400.0961	2919
402.6185	2905
405.1424	2907
407.6635	2928
410.1838	2913
412.7035	2966
415.2225	2927
417.7388	2968
420.2585	3033
422.7754	2998
425.2917	2965
427.8072	3130
430.3221	3216
432.8363	3152
435.3498	3043
437.8626	3154
440.3727	3126
442.8841	3164
445.3969	3157
447.907	3109
450.4142	3112
452.9229	3074
455.4289	3134
457.9362	3037
460.4449	3164
462.9488	3123
465.454	3115
467.9566	3155
470.4604	3068
472.9637	3065
475.4662	3052
477.966	3079
480.4671	3213
482.9656	3084
485.4633	3124
487.9645	3183
490.4608	3181
492.9566	3197
495.4536	3276
497.948	3234
500.4437	3142
502.9387	3184
505.431	3266
507.9226	3168
510.4136	3220
512.9079	3184
515.3975	3210
517.8864	3189
520.3746	3177
522.8622	3225
525.3491	3209
527.8394	3216
530.3249	3234
532.8098	3181
535.2939	3148
537.7774	3288
540.2623	3298
542.7444	3245
545.2259	3191
547.7067	3158
550.1868	3338
552.6683	3245
555.147	3192
557.6231	3264
560.1005	3260
562.5773	3257
565.0534	3295
567.5308	3308
570.0056	3354
572.4776	3241
574.951	3312
577.4237	3377
579.8978	3327
582.3671	3326
584.8378	3321
587.3079	3407
589.7773	3326
592.244	3360
594.714	3331
597.1793	3390
599.6461	3354
602.1121	3277
604.5754	3342
607.0421	3329
609.5042	3297
611.9675	3356
614.4282	3297
616.8902	3344
619.3515	3368
621.8122	3344
624.2702	3388
626.7296	3339
629.1863	3305
631.6423	3372
634.1017	3310
636.5563	3299
639.0104	3378
641.4658	3363
643.9185	3298
646.3725	3333
648.8239	3310
651.2766	3437
653.7266	3416
656.176	3328
658.6247	3386
661.0748	3378
663.5242	3344
665.9709	3461
668.417	3459
670.8624	3410
673.3092	3345
675.7533	3381
678.1968	3444
680.6395	3434
683.0817	3425
685.5251	3391
687.9659	3446
690.4061	3460
692.8456	3440
695.2844	3491
697.7226	3463
700.1621	3400
702.599	3498
705.0332	3433
707.4688	3477
709.9036	3489
712.3399	3536
714.7735	3460
717.2044	3468
719.6367	3530
722.0683	3500
724.4993	3557
726.9296	3555
729.3593	3594
731.7883	3548
734.2147	3586
736.6423	3510
739.0714	3666
741.4958	3523
743.9216	3627
746.3447	3642
748.7691	3580
751.1929	3642
753.616	3668
756.0366	3671
758.4584	3690
760.8776	3648
763.2982	3673
765.718	3678
768.1373	3712
770.5539	3595
772.9698	3682
775.3871	3710
777.8038	3681
780.2178	3674
782.6332	3679
785.0459	3660
787.458	3693
789.8714	3730
792.2842	3763
794.6943	3669
797.1038	3695
799.5127	3717
801.9209	3584
804.3324	3690
806.7393	3692
809.1456	3695
811.5513	3698
813.9562	3735
816.3625	3700
818.7663	3760
821.1693	3744
823.5718	3725
825.9735	3773
828.3746	3769
830.7771	3737
833.177	3680
835.5762	3726
837.9747	3709
840.3727	3712
842.772	3751
845.1666	3722
847.5626	3769
849.958	3800
852.3527	3825
854.7488	3888
857.1403	3775
859.5331	3872
861.9253	3721
864.3168	3819
866.7057	3796
869.098	3791
871.4876	3763
873.8746	3813
876.263	3766
878.6487	3783
881.0378	3780
883.4243	3822
885.8081	3785
888.1933	3820
890.5759	3780
892.9598	3857
895.343	3751
897.7256	3904
900.1057	3787
902.4871	3764
904.8659	3822
907.246	3972
909.6254	3832
912.0023	3797
914.3786	3970
916.7562	4000
919.1331	3908
921.5074	3903
923.8831	3964
926.2562	4007
928.6287	4008
931.0005	4005
933.3757	4018
935.7462	3919
938.1162	3992
940.4855	4059
942.8542	3960
945.2242	4028
947.5916	4145
949.9584	4192
952.3266	4242
954.6921	4441
957.0571	4498
959.4233	4726
961.787	4691
964.15	4595
966.5125	4609
968.8742	4456
971.2354	4209
973.5959	4257
975.9559	4141
978.3151	4020
980.6738	4046
983.0338	3981
985.3912	3980
987.7461	3873
990.1022	3789
992.4578	3889
994.8127	4019
997.1689	3935
999.5207	3864
1001.874	3900
1004.226	3986
1006.576	3942
1008.929	3970
1011.28	3883
1013.628	3965
1015.977	4010
1018.324	3878
1020.674	3951
1023.019	4039
1025.366	3964
1027.713	4007
1030.056	4027
1032.399	4008
1034.746	4001
1037.087	4067
1039.431	4056
1041.771	3944
1044.113	4078
1046.454	3963
1048.793	4004
1051.133	3995
1053.471	3980
1055.807	3968
1058.146	4053
1060.483	3997
1062.818	4143
1065.153	4066
1067.489	4043
1069.822	4117
1072.156	4197
1074.488	4047
1076.82	4178
1079.15	4040
1081.48	4107
1083.814	4185
1086.143	4115
1088.471	3995
1090.799	4011
1093.126	4036
1095.452	4035
1097.78	4047
1100.105	4021
1102.43	4076
1104.754	4075
1107.077	3994
1109.4	4011
1111.722	4062
1114.044	4054
1116.365	4071
1118.685	4034
1121.005	3956
1123.324	4100
1125.643	4031
1127.961	4116
1130.278	4126
1132.595	4074
1134.911	4069
1137.226	4105
1139.541	4057
1141.854	4064
1144.167	3978
1146.482	3961
1148.793	4085
1151.105	4088
1153.414	4099
1155.725	4016
1158.033	4125
1160.344	4059
1162.651	4070
1164.959	4083
1167.265	4085
1169.572	4148
1171.878	4055
1174.184	4122
1176.488	4049
1178.79	4102
1181.094	4063
1183.396	4116
1185.699	4088
1188.001	4076
1190.301	4059
1192.6	4041
1194.9	4008
1197.2	4107
1199.497	4134
1201.794	4092
1204.09	4046
1206.387	4067
1208.684	4073
1210.978	4137
1213.272	4077
1215.565	4008
1217.858	4154
1220.15	4235
1222.443	3992
1224.734	4127
1227.024	4194
1229.313	4168
1231.602	4202
1233.892	4213
1236.18	4189
1238.467	4253
1240.754	4258
1243.04	4254
1245.325	4214
1247.612	4162
1249.896	4336
1252.178	4262
1254.461	4259
1256.743	4286
1259.027	4224
1261.308	4253
1263.587	4322
1265.867	4266
1268.146	4258
1270.425	4352
1272.703	4189
1274.981	4300
1277.256	4280
1279.532	4349
1281.808	4187
1284.083	4157
1286.358	4295
1288.63	4213
1290.904	4240
1293.175	4183
1295.449	4203
1297.719	4120
1299.99	4199
1302.259	4177
1304.529	4207
1306.798	4255
1309.065	4207
1311.333	4172
1313.599	4263
1315.866	4234
1318.131	4225
1320.396	4124
1322.66	4254
1324.925	4236
1327.187	4249
1329.448	4199
1331.711	4201
1333.974	4237
1336.234	4186
1338.493	4191
1340.752	4254
1343.01	4203
1345.269	4205
1347.526	4193
1349.784	4214
1352.04	4194
1354.295	4237
1356.552	4261
1358.806	4265
1361.059	4201
1363.312	4240
1365.564	4176
1367.818	4251
1370.069	4201
1372.318	4290
1374.568	4283
1376.817	4233
1379.066	4229
1381.316	4144
1383.564	4223
1385.809	4217
1388.056	4266
1390.301	4279
1392.549	4283
1394.793	4316
1397.036	4306
1399.279	4371
1401.522	4484
1403.763	4379
1406.007	4320
1408.248	4389
1410.487	4409
1412.727	4373
1414.965	4396
1417.205	4430
1419.442	4355
1421.68	4379
1423.915	4350
1426.152	4316
1428.388	4422
1430.623	4358
1432.857	4519
1435.091	4361
1437.323	4467
1439.556	4385
1441.789	4329
1444.019	4519
1446.25	4420
1448.48	4424
1450.708	4387
1452.938	4477
1455.167	4413
1457.394	4439
1459.62	4461
1461.846	4502
1464.073	4421
1466.299	4341
1468.523	4430
1470.746	4506
1472.969	4381
1475.191	4384
1477.415	4385
1479.636	4404
1481.858	4200
1484.078	4314
1486.298	4144
1488.518	4358
1490.736	4273
1492.954	4284
1495.169	4292
1497.386	4198
1499.602	4172
1501.819	4256
1504.034	4281
1506.248	4204
1508.462	4221
1510.675	4245
1512.888	4259
1515.1	4159
1517.311	4315
1519.522	4180
1521.732	4251
1523.942	4213
1526.151	4246
1528.36	4218
1530.566	4257
1532.773	4282
1534.98	4162
1537.187	4222
1539.392	4351
1541.596	4341
1543.801	4354
1546.005	4266
1548.208	4263
1550.411	4274
1552.612	4248
1554.814	4292
1557.013	4324
1559.212	4360
1561.414	4319
1563.612	4355
1565.811	4237
1568.007	4292
1570.203	4306
1572.403	4347
1574.598	4314
1576.792	4363
1578.988	4412
1581.181	4298
1583.376	4383
1585.568	4484
1587.761	4380
1589.952	4358
1592.143	4421
1594.333	4349
1596.524	4363
1598.715	4381
1600.903	4431
1603.091	4397
1605.278	4490
1607.466	4405
1609.652	4368
1611.838	4424
1614.023	4401
1616.207	4448
1618.391	4466
1620.576	4339
1622.759	4411
1624.941	4439
1627.123	4407
1629.304	4481
1631.484	4460
1633.664	4397
1635.844	4479
1638.022	4449
1640.201	4491
1642.38	4384
1644.556	4441
1646.732	4561
1648.908	4488
1651.084	4477
1653.257	4468
1655.433	4532
1657.607	4544
1659.779	4500
1661.951	4468
1664.122	4605
1666.295	4555
1668.467	4501
1670.635	4527
1672.805	4503
1674.973	4481
1677.142	4437
1679.31	4483
1681.478	4501
1683.644	4477
1685.81	4434
1687.975	4426
1690.142	4459
1692.305	4490
1694.468	4507
1696.632	4379
1698.794	4413
1700.957	4413
1703.119	4392
1705.279	4407
1707.439	4513
1709.598	4428
1711.758	4390
1713.917	4446
1716.075	4347
1718.231	4418
1720.388	4376
1722.543	4343
1724.702	4382
1726.856	4394
1729.01	4346
1731.164	4399
1733.317	4390
1735.471	4473
1737.623	4402
1739.774	4319
1741.925	4401
1744.075	4411
1746.225	4339
1748.376	4416
1750.524	4409
1752.672	4387
1754.82	4381
1756.965	4425
1759.113	4429
1761.259	4467
1763.405	4423
1765.549	4377
1767.694	4371
1769.836	4393
1771.981	4436
1774.123	4412
1776.264	4482
1778.405	4381
1780.546	4447
1782.687	4524
1784.827	4424
1786.966	4463
1789.103	4409
1791.242	4466
1793.381	4459
1795.517	4488
1797.653	4451
1799.788	4415
1801.923	4423
1804.057	4392
1806.193	4430
1808.326	4328
1810.457	4458
1812.59	4424
1814.721	4465
1816.855	4444
1818.984	4495
1821.113	4414
1823.244	4493
1825.372	4404
1827.499	4447
1829.63	4317
1831.756	4466
1833.882	4430
1836.007	4414
1838.132	4362
1840.26	4435
1842.384	4469
1844.507	4391
1846.63	4446
1848.752	4362
1850.875	4335
1852.996	4394
1855.118	4333
1857.238	4423
1859.358	4370
1861.477	4382
1863.597	4401
1865.715	4365
1867.832	4389
1869.948	4364
1872.064	4481
1874.181	4447
1876.297	4472
1878.411	4413
1880.526	4383
1882.639	4304
1884.752	4429
1886.865	4383
1888.977	4414
1891.089	4393
1893.2	4452
1895.308	4541
1897.42	4480
1899.53	4394
1901.639	4442
1903.745	4435
1905.853	4466
1907.962	4420
1910.067	4480
1912.174	4486
1914.278	4460
1916.383	4505
1918.486	4525
1920.592	4494
1922.694	4482
1924.797	4426
1926.898	4421
1929	4436
1931.102	4539
1933.203	4427
1935.301	4493
1937.401	4468
1939.499	4450
1941.598	4422
1943.697	4485
1945.793	4405
1947.888	4442
1949.985	4523
1952.08	4516
1954.176	4508
1956.269	4474
1958.364	4487
1960.457	4544
1962.549	4512
1964.642	4474
1966.733	4506
1968.823	4392
1970.913	4520
1973.005	4449
1975.093	4426
1977.184	4377
1979.271	4380
1981.359	4456
1983.446	4454
1985.532	4520
1987.619	4502
1989.705	4433
1991.789	4414
1993.874	4613
1995.956	4544
1998.041	4443
2000.123	4428
2002.206	4491
2004.287	4416
2006.368	4482
2008.449	4425
2010.529	4464
2012.609	4349
2014.688	4547
2016.766	4500
2018.843	4402
2020.922	4478
2022.999	4471
2025.074	4433
2027.15	4435
2029.225	4434
2031.299	4488
2033.375	4444
2035.447	4443
2037.52	4422
2039.592	4470
2041.664	4420
2043.736	4564
2045.807	4432
2047.876	4521
2049.947	4447
2052.015	4575
2054.086	4487
2056.153	4384
2058.221	4520
2060.288	4519
2062.353	4451
2064.42	4512
2066.486	4466
2068.55	4452
2070.614	4476
2072.678	4444
2074.741	4408
2076.805	4443
2078.866	4510
2080.929	4523
2082.99	4497
2085.049	4419
2087.109	4415
2089.17	4468
2091.228	4455
2093.286	4441
2095.344	4502
2097.4	4528
2099.46	4572
2101.516	4459
2103.572	4441
2105.626	4413
2107.679	4481
2109.735	4503
2111.788	4484
2113.841	4385
2115.894	4418
2117.945	4516
2119.997	4469
2122.049	4509
2124.1	4377
2126.148	4459
2128.197	4380
2130.246	4467
2132.296	4404
2134.342	4468
2136.39	4480
2138.437	4425
2140.483	4453
2142.527	4405
2144.574	4407
2146.619	4456
2148.661	4498
2150.705	4437
2152.747	4536
2154.792	4405
2156.832	4474
2158.874	4462
2160.915	4478
2162.954	4455
2164.995	4422
2167.034	4446
2169.072	4344
2171.111	4405
2173.148	4389
2175.186	4366
2177.223	4485
2179.258	4432
2181.294	4349
2183.328	4419
2185.362	4410
2187.398	4473
2189.431	4412
2191.463	4423
2193.495	4371
2195.528	4431
2197.56	4337
2199.59	4311
2201.62	4366
2203.649	4370
2205.678	4384
2207.708	4371
2209.737	4349
2211.764	4327
2213.791	4311
2215.817	4484
2217.843	4259
2219.87	4239
2221.895	4392
2223.919	4377
2225.942	4356
2227.966	4328
2229.988	4367
2232.012	4356
2234.032	4267
2236.054	4405
2238.074	4313
2240.095	4385
2242.116	4427
2244.135	4321
2246.153	4368
2248.171	4243
2250.188	4242
2252.208	4350
2254.223	4369
2256.239	4386
2258.255	4357
2260.269	4401
2262.283	4362
2264.3	4388
2266.312	4329
2268.325	4332
2270.336	4377
2272.349	4405
2274.362	4375
2276.372	4327
2278.383	4354
2280.392	4365
2282.402	4371
2284.409	4356
2286.418	4386
2288.427	4416
2290.433	4273
2292.441	4329
2294.446	4342
2296.453	4351
2298.459	4324
2300.463	4266
2302.466	4267
2304.471	4316
2306.475	4304
2308.477	4291
2310.478	4292
2312.481	4355
2314.481	4249
2316.481	4374
2318.482	4220
2320.482	4305
2322.48	4360
2324.48	4339
2326.478	4443
2328.476	4334
2330.473	4290
2332.469	4278
2334.465	4276
2336.46	4298
2338.454	4330
2340.45	4309
2342.444	4320
2344.437	4378
2346.43	4270
2348.421	4236
2350.414	4209
2352.405	4375
2354.396	4336
2356.386	4187
2358.376	4267
2360.366	4275
2362.355	4271
2364.343	4278
2366.331	4156
2368.317	4406
2370.304	4253
2372.292	4250
2374.278	4293
2376.262	4273
2378.247	4274
2380.23	4350
2382.216	4159
2384.199	4276
2386.181	4283
2388.163	4203
2390.144	4173
2392.127	4216
2394.107	4216
2396.087	4247
2398.066	4206
2400.046	4246
2402.023	4244
2404.004	4309
2405.981	4210
2407.957	4225
2409.934	4123
2411.91	4133
2413.886	4247
2415.862	4184
2417.836	4273
2419.809	4173
2421.784	4239
2423.756	4171
2425.73	4213
2427.701	4278
2429.672	4313
2431.644	4268
2433.615	4219
2435.586	4177
2437.555	4218
2439.523	4183
2441.491	4166
2443.459	4238
2445.428	4211
2447.395	4193
2449.361	4140
2451.327	4150
2453.292	4143
2455.257	4121
2457.223	4246
2459.187	4278
2461.15	4165
2463.113	4143
2465.076	4140
2467.039	4249
2468.999	4256
2470.96	4144
2472.921	4220
2474.881	4182
2476.841	4151
2478.8	4189
2480.759	4239
2482.717	4232
2484.675	4179
2486.63	4087
2488.589	4216
2490.545	4144
2492.5	4208
2494.455	4165
2496.408	4168
2498.364	4146
2500.318	4148
2502.27	4115
2504.223	4151
2506.174	4094
2508.126	4288
2510.078	4102
2512.03	4143
2513.979	4041
2515.927	4166
2517.877	4163
2519.826	4102
2521.775	4164
2523.722	4102
2525.668	4202
2527.616	4053
2529.561	4085
2531.508	4186
2533.452	4096
2535.398	4195
2537.342	4084
2539.284	4071
2541.229	4085
2543.173	4110
2545.114	4134
2547.055	4070
2548.996	4091
2550.938	4204
2552.878	4027
2554.817	4197
2556.756	4047
2558.695	4145
2560.633	4072
2562.572	4134
2564.509	4201
2566.445	4173
2568.382	4108
2570.317	4074
2572.254	4217
2574.189	4213
2576.123	4100
2578.057	4116
2579.99	4056
2581.923	4156
2583.855	4069
2585.788	4074
2587.719	4204
2589.65	4138
2591.579	4113
2593.511	4132
2595.44	4187
2597.37	4071
2599.297	4080
2601.225	4073
2603.153	4097
2605.08	4100
2607.007	4073
2608.932	4070
2610.858	4038
2612.782	4137
2614.709	4028
2616.632	4086
2618.556	4158
2620.478	4116
2622.401	4114
2624.324	4214
2626.247	4133
2628.167	4150
2630.088	4157
2632.008	4157
2633.928	4202
2635.848	4085
2637.766	4189
2639.684	4155
2641.603	4088
2643.519	4187
2645.437	4100
2647.353	4093
2649.27	4142
2651.184	4080
2653.099	4242
2655.014	4047
2656.928	4197
2658.842	4136
2660.755	4090
2662.667	4122
2664.579	4114
2666.491	4070
2668.402	4139
2670.312	4223
2672.222	4132
2674.132	4106
2676.042	4130
2677.951	4029
2679.859	4132
2681.766	4087
2683.674	4057
2685.582	4073
2687.488	4116
2689.392	4077
2691.298	4108
2693.202	4136
2695.107	4147
2697.012	4157
2698.914	4141
2700.817	4135
2702.72	4111
2704.622	4095
2706.524	4050
2708.425	4001
2710.326	4053
2712.225	4124
2714.125	3979
2716.024	4138
2717.923	4039
2719.822	4117
2721.719	4024
2723.616	3989
2725.512	4031
2727.41	3990
2729.305	4080
2731.201	4062
2733.095	4132
2734.99	4071
2736.884	4114
2738.778	4039
2740.67	4079
2742.562	4096
2744.455	4007
2746.346	4057
2748.238	4030
2750.129	4059
2752.018	4011
2753.907	4082
2755.797	3991
2757.687	3992
2759.575	4038
2761.462	4032
2763.349	4024
2765.237	3985
2767.124	4091
2769.009	4006
2770.894	4102
2772.779	4054
2774.663	4070
2776.547	4070
2778.431	4089
2780.314	4030
2782.197	4009
2784.078	4053
2785.96	3993
2787.842	4035
2789.723	4056
2791.603	4094
2793.483	4118
2795.362	3917
2797.241	4091
2799.121	3983
2800.997	3938
2802.874	4108
2804.751	3964
2806.628	4008
2808.506	4020
2810.38	3993
2812.255	3986
2814.13	4040
2816.003	4018
2817.878	4087
2819.752	3984
2821.623	4028
2823.496	4008
2825.368	3954
2827.238	3957
2829.111	4054
2830.98	4021
2832.851	4013
2834.719	4021
2836.589	4014
2838.458	3926
2840.327	4001
2842.193	3999
2844.061	3978
2845.927	4129
2847.794	4011
2849.66	4036
2851.525	4023
2853.39	4050
2855.254	4135
2857.117	4134
2858.983	4085
2860.845	4057
2862.707	4080
2864.569	4069
2866.431	4186
2868.293	4214
2870.154	4147
2872.013	4155
2873.873	4229
2875.733	4224
2877.592	4242
2879.451	4289
2881.309	4325
2883.166	4394
2885.022	4262
2886.879	4360
2888.736	4297
2890.591	4322
2892.446	4413
2894.301	4514
2896.155	4393
2898.009	4294
2899.863	4354
2901.716	4422
2903.568	4410
2905.419	4351
2907.27	4351
2909.123	4399
2910.973	4355
2912.824	4437
2914.673	4478
2916.521	4363
2918.372	4482
2920.22	4462
2922.067	4472
2923.914	4494
2925.761	4513
2927.607	4628
2929.455	4679
2931.301	4575
2933.144	4618
2934.99	4719
2936.833	4709
2938.678	4609
2940.522	4790
2942.364	4805
2944.207	4819
2946.048	4874
2947.891	4964
2949.731	4908
2951.571	5052
2953.412	4845
2955.25	4890
2957.09	4855
2958.93	4757
2960.767	4767
2962.606	4697
2964.443	4698
2966.279	4757
2968.116	4645
2969.953	4547
2971.788	4642
2973.623	4582
2975.457	4442
2977.292	4369
2979.127	4478
2980.959	4371
2982.792	4344
2984.624	4369
2986.455	4393
2988.288	4310
2990.119	4319
2991.949	4239
2993.779	4296
2995.608	4239
2997.439	4243
2999.268	4214
3001.096	4177
3002.923	4105
3004.751	4066
3006.578	4038
3008.406	4022
3010.232	4092
3012.057	4020
3013.883	3966
3015.706	3994
3017.532	3967
3019.356	3998
3021.179	3929
3023.002	3908
3024.823	3901
3026.646	3962
3028.469	3792
3030.289	3952
3032.11	3856
3033.93	3880
3035.749	3863
3037.57	3782
3039.39	3764
3041.207	3908
3043.026	3902
3044.842	3873
3046.661	3805
3048.477	3871
3050.294	3774
3052.109	3826
3053.925	3841
3055.739	3759
3057.555	3803
3059.368	3812
3061.181	3736
3062.995	3829
3064.807	3795
3066.62	3818
3068.433	3829
3070.243	3760
3072.054	3702
3073.865	3763
3075.675	3755
3077.485	3867
3079.293	3759
3081.102	3810
3082.911	3748
3084.719	3683
3086.527	3793
3088.333	3736
3090.139	3763
3091.945	3706
3093.75	3716
3095.557	3715
3097.361	3743
3099.165	3650
3100.969	3687
3102.772	3653
3104.575	3680
3106.379	3652
3108.181	3666
3109.982	3727
3111.783	3673
3113.584	3681
3115.386	3658
3117.186	3754
3118.985	3682
3120.783	3739
3122.582	3651
3124.381	3665
3126.179	3643
3127.975	3607
3129.772	3611
3131.569	3694
3133.365	3604
3135.161	3602
3136.956	3656
3138.751	3611
3140.544	3615
3142.338	3597
3144.132	3645
3145.925	3639
3147.717	3573
3149.509	3622
3151.301	3569
3153.091	3626
3154.884	3562
3156.673	3626
3158.462	3592
3160.252	3717
3162.041	3556
3163.831	3566
3165.618	3529
3167.405	3608
3169.193	3607
3170.979	3657
3172.767	3571
3174.553	3578
3176.338	3535
3178.123	3538
3179.907	3488
3181.692	3449
3183.477	3564
3185.259	3594
3187.042	3635
3188.824	3571
3190.607	3473
3192.389	3542
3194.17	3559
3195.951	3595
3197.73	3521
3199.51	3572
3201.289	3558
3203.07	3622
3204.848	3574
3206.626	3558
3208.403	3502
3210.18	3548
3211.959	3619
3213.735	3627
3215.511	3543
3217.285	3571
3219.06	3525
3220.836	3527
3222.611	3498
3224.384	3569
3226.158	3589
3227.929	3575
3229.702	3569
3231.476	3507
3233.248	3528
3235.018	3587
3236.789	3511
3238.56	3562
3240.33	3583
3242.1	3545
3243.869	3575
3245.637	3550
3247.405	3612
3249.172	3552
3250.941	3524
3252.707	3573
3254.474	3604
3256.24	3516
3258.006	3549
3259.772	3467
3261.537	3594
3263.301	3571
3265.065	3523
3266.828	3509
3268.592	3531
3270.355	3511
3272.117	3569
3273.878	3574
3275.64	3585
3277.401	3604
3279.162	3501
3280.922	3560
3282.682	3515
3284.441	3624
3286.199	3551
3287.959	3651
3289.716	3456
3291.475	3563
3293.232	3604
3294.988	3584
3296.744	3527
3298.501	3541
3300.256	3421
3302.011	3559
3303.766	3553
3305.52	3458
3307.275	3573
3309.028	3504
3310.781	3455
3312.533	3476
3314.285	3516
3316.038	3501
3317.789	3632
3319.54	3459
3321.289	3568
3323.039	3591
3324.789	3546
3326.539	3588
3328.288	3491
3330.035	3512
3331.783	3553
3333.531	3488
3335.28	3494
3337.025	3526
3338.771	3535
3340.518	3488
3342.262	3448
3344.009	3609
3345.753	3507
3347.497	3490
3349.24	3445
3350.983	3531
3352.726	3499
3354.469	3449
3356.212	3495
3357.952	3478
3359.694	3415
3361.434	3471
3363.176	3425
3364.916	3479
3366.654	3444
3368.394	3446
3370.132	3477
3371.871	3412
3373.61	3403
3375.346	3356
3377.083	3409
3378.82	3449
3380.556	3374
3382.292	3401
3384.027	3449
3385.763	3441
3387.497	3384
3389.231	3378
3390.965	3449
3392.698	3321
3394.431	3457
3396.164	3408
3397.896	3472
3399.627	3403
3401.36	3400
3403.09	3429
3404.82	3447
3406.55	3452
3408.279	3428
3410.01	3376
3411.738	3401
3413.467	3382
3415.194	3417
3416.92	3410
3418.647	3399
3420.375	3350
3422.102	3352
3423.827	3366
3425.553	3369
3427.277	3370
3429.003	3313
3430.727	3315
3432.451	3387
3434.173	3351
3435.896	3305
3437.62	3339
3439.343	3375
3441.063	3279
3442.785	3325
3444.505	3245
3446.226	3352
3447.948	3380
3449.666	3321
3451.386	3275
3453.104	3325
3454.823	3383
3456.541	3326
3458.259	3291
3459.976	3258
3461.693	3263
3463.408	3314
3465.125	3261
3466.841	3266
3468.556	3265
3470.271	3303
3471.985	3225
3473.698	3227
3475.414	3230
3477.126	3248
3478.838	3234
3480.55	3244
3482.263	3226
3483.975	3234
3485.686	3241
3487.396	3203
3489.106	3193
3490.817	3219
3492.526	3121
3494.236	3276
3495.944	3231
3497.652	3237
3499.359	3207
3501.066	3110
3502.775	3166
3504.481	3147
3506.187	3194
3507.893	3202
3509.598	3098
3511.304	3166
3513.009	3094
3514.713	3120
3516.417	3154
3518.12	3178
3519.821	3148
3521.525	3180
3523.228	3162
3524.929	3122
3526.631	3175
3528.33	3089
3530.032	3180
3531.733	3125
3533.433	3094
3535.131	3081
3536.83	3056
3538.529	3127
3540.227	3073
3541.925	3103
3543.623	3088
3545.319	3115
3547.016	3067
3548.712	3025
3550.408	3090
3552.103	3168
3553.798	3076
3555.491	3012
3557.188	3091
3558.88	3047
3560.574	3055
3562.266	3019
3563.959	3054
3565.651	3057
3567.343	3090
3569.035	3045
3570.725	3114
3572.415	3071
3574.106	3012
3575.797	3076
3577.485	3091
3579.174	3054
3580.863	3063
3582.551	3019
3584.238	3028
3585.926	3052
3587.613	3044
3589.3	2977
3590.986	3053
3592.671	2986
3594.357	2991
3596.042	3011
3597.726	3016
3599.41	2975
3601.094	2990
3602.778	2911
3604.461	3016
3606.143	3013
3607.825	2967
3609.507	2927
3611.188	2923
3612.87	3000
3614.551	2921
3616.229	2985
3617.909	2870
3619.589	2935
3621.269	3004
3622.948	2891
3624.625	2898
3626.302	2942
3627.98	2925
3629.657	2947
3631.334	2855
3633.01	2912
3634.686	2981
3636.361	2906
3638.036	2905
3639.712	2900
3641.385	2868
3643.06	2831
3644.732	2892
3646.405	2903
3648.08	2887
3649.751	3013
3651.424	2867
3653.094	2835
3654.766	2883
3656.436	2833
3658.106	2789
3659.777	2776
3661.446	2847
3663.115	2825
3664.783	2805
3666.452	2812
3668.121	2848
3669.788	2817
3671.454	2919
3673.121	2831
3674.789	2803
3676.455	2816
3678.12	2741
3679.784	2774
3681.45	2808
3683.114	2808
3684.779	2788
3686.442	2821
3688.105	2880
3689.768	2872
3691.43	2829
3693.093	2809
3694.754	2791
3696.415	2818
3698.076	2787
3699.736	2821
3701.396	2845
3703.057	2780
3704.716	2831
3706.375	2796
3708.034	2753
3709.692	2806
3711.351	2792
3713.008	2776
3714.665	2804
3716.321	2768
3717.977	2810
3719.634	2773
3721.29	2745
3722.945	2759
3724.598	2782
3726.253	2775
3727.907	2785
3729.561	2803
3731.214	2767
3732.867	2753
3734.518	2773
3736.171	2769
3737.824	2779
3739.474	2747
3741.125	2742
3742.775	2715
3744.425	2760
3746.074	2746
3747.725	2734
3749.373	2735
3751.022	2702
3752.669	2737
3754.318	2792
3755.966	2773
3757.612	2763
3759.259	2678
3760.905	2720
3762.55	2770
3764.197	2722
3765.842	2700
3767.486	2770
3769.131	2718
3770.774	2713
3772.417	2766
3774.061	2769
3775.705	2656
3777.347	2726
3778.988	2709
3780.629	2669
3782.271	2666
3783.912	2727
3785.552	2707
3787.192	2725
3788.831	2654
3790.472	2628
3792.112	2700
3793.75	2711
3795.388	2608
3797.024	2652
3798.661	2704
3800.3	2658
3801.936	2630
3803.572	2673
3805.208	2683
3806.844	2578
3808.48	2660
3810.115	2632
3811.748	2640
3813.382	2655
3815.016	2649
3816.649	2650
3818.283	2710
3819.914	2699
3821.547	2631
3823.178	2564
3824.809	2591
3826.441	2657
3828.072	2578
3829.701	2605
3831.331	2608
3832.96	2592
3834.591	2631
3836.219	2588
3837.847	2585
3839.475	2559
3841.102	2644
3842.729	2638
3844.357	2592
3845.984	2579
3847.609	2587
3849.234	2605
3850.86	2621
3852.485	2574
3854.11	2631
3855.734	2554
3857.357	2535
3858.981	2583
3860.603	2557
3862.227	2582
3863.848	2518
3865.471	2542
3867.092	2579
3868.713	2559
3870.334	2557
3871.954	2594
3873.575	2552
3875.194	2598
3876.813	2563
3878.433	2623
3880.051	2568
3881.669	2552
3883.286	2533
3884.904	2602
3886.52	2489
3888.138	2638
3889.754	2544
3891.37	2583
3892.985	2491
3894.6	2515
3896.216	2553
3897.831	2522
3899.444	2611
3901.058	2487
3902.67	2503
3904.283	2494
3905.897	2540
3907.509	2456
3909.121	2557
3910.731	2508
3912.342	2524
3913.954	2523
3915.563	2514
3917.174	2481
3918.783	2494
3920.391	2503
3922.002	2611
3923.611	2459
3925.218	2521
3926.826	2533
3928.432	2591
3930.039	2520
3931.647	2529
3933.253	2544
3934.859	2500
3936.464	2495
3938.068	2529
3939.675	2525
3941.278	2476
3942.883	2538
3944.486	2499
3946.089	2519
3947.692	2438
3949.295	2439
3950.898	2497
3952.499	2408
3954.1	2494
3955.7	2418
3957.303	2449
3958.903	2488
3960.502	2503
3962.101	2430
3963.7	2494
3965.301	2536
3966.899	2418
3968.497	2477
3970.094	2401
3971.691	2489
3973.288	2400
3974.885	2416
3976.481	2447
3978.077	2472
3979.672	2453
3981.267	2395
3982.863	2485
3984.457	2378
3986.051	2421
3987.645	2424
3989.238	2452
3990.831	2425
3992.425	2400
3994.017	2373
3995.607	2383
3997.199	2345
3998.79	2375
4000.382	2424
4001.973	2449
4003.561	2455
4005.151	2350
4006.741	2399
4008.331	2420
4009.918	2343
4011.507	2385
4013.095	2330
4014.681	2365
4016.269	2344
4017.856	2377
4019.443	2322
4021.028	2337
4022.614	2345
4024.199	2371
4025.785	2333
4027.37	2332
4028.953	2428
4030.536	2303
4032.12	2316
4033.704	2337
4035.287	2335
4036.869	2304
4038.45	2366
4040.032	2338
4041.613	2302
4043.195	2332
4044.776	2354
4046.356	2352
4047.935	2239
4049.515	2349
4051.095	2372
4052.674	2336
4054.251	2321
4055.829	2324
4057.406	2330
4058.985	2322
4060.562	2314
4062.139	2274
4063.715	2309
4065.29	2235
4066.865	2308
4068.442	2268
4070.016	2256
4071.59	2340
4073.164	2302
4074.738	2284
4076.312	2268
4077.885	2303
4079.458	2251
4081.03	2259
4082.602	2284
4084.173	2276
4085.745	2214
4087.315	2271
4088.886	2199
4090.456	2224
4092.026	2239
4093.596	2228
4095.165	2270
4096.734	2263
4098.301	2255
4099.869	2233
4101.437	2291
4103.006	2217
4104.572	2260
4106.139	2261
4107.704	2291
4109.27	2225
4110.837	2221
4112.401	2254
4113.966	2218
4115.53	2217
4117.094	2245
4118.659	2277
4120.223	2231
4121.785	2190
4123.347	2338
4124.909	2287
4126.471	2247
4128.034	2201
4129.595	2236
4131.155	2179
4132.716	2175
4134.275	2208
4135.836	2192
4137.395	2184
4138.955	2187
4140.513	2153
4142.071	2175
4143.628	2232
4145.188	2209
4146.745	2194
4148.302	2174
4149.858	2188
4151.414	2158
4152.971	2211
4154.526	2218
4156.081	2176
4157.635	2136
4159.189	2111
4160.745	2134
4162.298	2124
4163.852	2175
4165.405	2220
4166.957	2171
4168.51	2151
4170.063	2162
4171.614	2159
4173.166	2185
4174.717	2174
4176.267	2197
4177.817	2115
4179.368	2102
4180.917	2102
4182.466	2131
4184.016	2134
4185.564	2033
4187.112	2125
4188.66	2127
4190.207	2080
4191.754	2112
4193.301	2167
4194.848	2144
4196.394	2153
4197.94	2140
4199.484	2147
4201.03	2046
4202.575	2163
4204.12	2076
4205.663	2083
4207.207	2042
4208.75	2115
4210.292	2087
4211.836	2090
4213.378	2113
4214.92	2134
4216.46	2091
4218.002	2107
4219.544	2113
4221.083	2084
4222.625	2111
4224.164	2093
4225.703	2081
4227.244	2146
4228.782	2023
4230.32	2095
4231.857	2115
4233.395	2121
4234.933	2072
4236.471	2067
4238.007	2100
4239.542	2089
4241.078	2069
4242.614	2086
4244.15	2069
4245.685	2092
4247.219	1998
4248.753	2061
4250.287	2066
4251.82	2063
4253.354	2018
4254.887	2052
4256.419	2075
4257.951	2080
4259.483	2061
4261.016	2063
4262.547	2067
4264.078	1997
4265.608	2046
4267.137	2079
4268.668	2093
4270.197	2043
4271.727	2053
4273.254	2021
4274.783	2044
4276.311	2060
4277.84	2095
4279.366	2028
4280.894	1998
4282.42	1981
4283.946	1956
4285.473	2025
4286.998	2049
4288.523	2023
4290.047	2000
4291.572	1941
4293.096	2022
4294.622	2013
4296.144	1992
4297.668	1966
4299.19	1989
4300.713	1990
4302.236	2007
4303.758	2054
4305.279	2002
4306.799	1935
4308.321	2036
4309.842	1983
4311.361	1983
4312.882	1956
4314.401	1989
