400.0961	2747
402.6185	2679
405.1424	2771
407.6635	2731
410.1838	2693
412.7035	2742
415.2225	2836
417.7388	2766
420.2585	2891
422.7754	2786
425.2917	2819
427.8072	2882
430.3221	2949
432.8363	2967
435.3498	2942
437.8626	2902
440.3727	2952
442.8841	2947
445.3969	2855
447.907	2920
450.4142	2856
452.9229	2993
455.4289	2857
457.9362	2958
460.4449	2953
462.9488	2870
465.454	2935
467.9566	2831
470.4604	2886
472.9637	2941
475.4662	2855
477.966	2908
480.4671	2860
482.9656	2898
485.4633	2949
487.9645	2890
490.4608	2955
492.9566	2938
495.4536	2958
497.948	2994
500.4437	2896
502.9387	2980
505.431	2986
507.9226	2987
510.4136	2964
512.9079	2936
515.3975	3010
517.8864	2896
520.3746	3021
522.8622	2986
525.3491	2947
527.8394	2952
530.3249	2925
532.8098	2978
535.2939	3031
537.7774	2960
540.2623	2990
542.7444	2995
545.2259	2894
547.7067	2938
550.1868	2995
552.6683	2881
555.147	3010
557.6231	2988
560.1005	3043
562.5773	3025
565.0534	3035
567.5308	3072
570.0056	3083
572.4776	3096
574.951	3128
577.4237	3097
579.8978	3078
582.3671	3097
584.8378	3071
587.3079	3146
589.7773	3115
592.244	3082
594.714	3150
597.1793	3116
599.6461	3149
602.1121	3150
604.5754	3107
607.0421	3093
609.5042	3093
611.9675	3101
614.4282	3087
616.8902	3102
619.3515	3113
621.8122	3092
624.2702	3061
626.7296	3075
629.1863	3048
631.6423	3070
634.1017	3047
636.5563	3079
639.0104	3028
641.4658	3113
643.9185	3027
646.3725	3131
648.8239	3023
651.2766	3052
653.7266	3037
656.176	3107
658.6247	3188
661.0748	3168
663.5242	3114
665.9709	3176
668.417	3163
670.8624	3112
673.3092	3139
675.7533	3141
678.1968	3170
680.6395	3240
683.0817	3163
685.5251	3216
687.9659	3137
690.4061	3279
692.8456	3194
695.2844	3132
697.7226	3201
700.1621	3213
702.599	3161
705.0332	3224
707.4688	3227
709.9036	3171
712.3399	3234
714.7735	3179
717.2044	3172
719.6367	3195
722.0683	3190
724.4993	3156
726.9296	3320
729.3593	3215
731.7883	3311
734.2147	3298
736.6423	3287
739.0714	3323
741.4958	3325
743.9216	3371
746.3447	3308
748.7691	3311
751.1929	3382
753.616	3413
756.0366	3326
758.4584	3423
760.8776	3388
763.2982	3373
765.718	3385
768.1373	3394
770.5539	3359
772.9698	3425
775.3871	3320
777.8038	3374
780.2178	3365
782.6332	3404
785.0459	3370
787.458	3406
789.8714	3519
792.2842	3374
794.6943	3355
797.1038	3355
799.5127	3394
801.9209	3466
804.3324	3368
806.7393	3384
809.1456	3371
811.5513	3460
813.9562	3415
816.3625	3515
818.7663	3429
821.1693	3412
823.5718	3465
825.9735	3383
828.3746	3434
830.7771	3409
833.177	3515
835.5762	3430
837.9747	3444
840.3727	3436
842.772	3417
845.1666	3516
847.5626	3506
849.958	3531
852.3527	3562
854.7488	3485
857.1403	3441
859.5331	3581
861.9253	3474
864.3168	3611
866.7057	3466
869.098	3612
871.4876	3557
873.8746	3433
876.263	3510
878.6487	3451
881.0378	3431
883.4243	3558
885.8081	3599
888.1933	3511
890.5759	3478
892.9598	3429
895.343	3549
897.7256	3494
900.1057	3466
902.4871	3460
904.8659	3540
907.246	3512
909.6254	3552
912.0023	3541
914.3786	3576
916.7562	3620
919.1331	3633
921.5074	3628
923.8831	3640
926.2562	3689
928.6287	3714
931.0005	3761
933.3757	3620
935.7462	3748
938.1162	3746
940.4855	3730
942.8542	3864
945.2242	3898
947.5916	3889
949.9584	4055
952.3266	4183
954.6921	4241
957.0571	4448
959.4233	4668
961.787	4593
964.15	4590
966.5125	4476
968.8742	4260
971.2354	4128
973.5959	3983
975.9559	3875
978.3151	3781
980.6738	3767
983.0338	3669
985.3912	3704
987.7461	3587
990.1022	3602
992.4578	3590
994.8127	3684
997.1689	3669
999.5207	3696
1001.874	3665
1004.226	3697
1006.576	3656
1008.929	3657
1011.28	3671
1013.628	3576
1015.977	3693
1018.324	3642
1020.674	3665
1023.019	3660
1025.366	3804
1027.713	3656
1030.056	3733
1032.399	3756
1034.746	3832
1037.087	3737
1039.431	3730
1041.771	3709
1044.113	3727
1046.454	3772
1048.793	3787
1051.133	3720
1053.471	3861
1055.807	3739
1058.146	3699
1060.483	3748
1062.818	3779
1065.153	3790
1067.489	3746
1069.822	3900
1072.156	3803
1074.488	3871
1076.82	3842
1079.15	3822
1081.48	3817
1083.814	3766
1086.143	3845
1088.471	3743
1090.799	3756
1093.126	3766
1095.452	3763
1097.78	3785
1100.105	3748
1102.43	3754
1104.754	3707
1107.077	3820
1109.4	3717
1111.722	3636
1114.044	3721
1116.365	3693
1118.685	3740
1121.005	3816
1123.324	3850
1125.643	3771
1127.961	3699
1130.278	3782
1132.595	3755
1134.911	3827
1137.226	3779
1139.541	3700
1141.854	3804
1144.167	3771
1146.482	3735
1148.793	3752
1151.105	3785
1153.414	3715
1155.725	3825
1158.033	3805
1160.344	3719
1162.651	3735
1164.959	3795
1167.265	3764
1169.572	3747
1171.878	3745
1174.184	3754
1176.488	3858
1178.79	3754
1181.094	3809
1183.396	3825
1185.699	3801
1188.001	3796
1190.301	3717
1192.6	3832
1194.9	3719
1197.2	3749
1199.497	3751
1201.794	3697
1204.09	3844
1206.387	3784
1208.684	3830
1210.978	3733
1213.272	3756
1215.565	3772
1217.858	3804
1220.15	3755
1222.443	3730
1224.734	3780
1227.024	3870
1229.313	3838
1231.602	3819
1233.892	3943
1236.18	3873
1238.467	3877
1240.754	3937
1243.04	3939
1245.325	3946
1247.612	4000
1249.896	3972
1252.178	4045
1254.461	3937
1256.743	3913
1259.027	3941
1261.308	3880
1263.587	3991
1265.867	3845
1268.146	3938
1270.425	3858
1272.703	4006
1274.981	3900
1277.256	3919
1279.532	3947
1281.808	3969
1284.083	3904
1286.358	3940
1288.63	3845
1290.904	3986
1293.175	3918
1295.449	3823
1297.719	3895
1299.99	3917
1302.259	3898
1304.529	3879
1306.798	3886
1309.065	3951
1311.333	3796
1313.599	3829
1315.866	3921
1318.131	3803
1320.396	3893
1322.66	3876
1324.925	3936
1327.187	3805
1329.448	3752
1331.711	3988
1333.974	3882
1336.234	3867
1338.493	3956
1340.752	3880
1343.01	3997
1345.269	3871
1347.526	3940
1349.784	3882
1352.04	3934
1354.295	3945
1356.552	3967
1358.806	3981
1361.059	3872
1363.312	3941
1365.564	3835
1367.818	3914
1370.069	3942
1372.318	3894
1374.568	3868
1376.817	3937
1379.066	3873
1381.316	3902
1383.564	3927
1385.809	3908
1388.056	3882
1390.301	3953
1392.549	3981
1394.793	4056
1397.036	3972
1399.279	4018
1401.522	3936
1403.763	3949
1406.007	3944
1408.248	3982
1410.487	3892
1412.727	4035
1414.965	4000
1417.205	4004
1419.442	4134
1421.68	4017
1423.915	4031
1426.152	4032
1428.388	3932
1430.623	4044
1432.857	4146
1435.091	4079
1437.323	4108
1439.556	4065
1441.789	4090
1444.019	4053
1446.25	4079
1448.48	4041
1450.708	4120
1452.938	4052
1455.167	4138
1457.394	4124
1459.62	4114
1461.846	4043
1464.073	4025
1466.299	4100
1468.523	4035
1470.746	4068
1472.969	4019
1475.191	3951
1477.415	4013
1479.636	3957
1481.858	3932
1484.078	3977
1486.298	3935
1488.518	3994
1490.736	4005
1492.954	3939
1495.169	3871
1497.386	3859
1499.602	3937
1501.819	3873
1504.034	3921
1506.248	3903
1508.462	3910
1510.675	3918
1512.888	3855
1515.1	3955
1517.311	3908
1519.522	3903
1521.732	3943
1523.942	3957
1526.151	3975
1528.36	3919
1530.566	3846
1532.773	3932
1534.98	3905
1537.187	3872
1539.392	3917
1541.596	3904
1543.801	3921
1546.005	3837
1548.208	3906
1550.411	4018
1552.612	3954
1554.814	4060
1557.013	3981
1559.212	3917
1561.414	3983
1563.612	3968
1565.811	4072
1568.007	4064
1570.203	4046
1572.403	3966
1574.598	4003
1576.792	3987
1578.988	4009
1581.181	4021
1583.376	4069
1585.568	4067
1587.761	4041
1589.952	4051
1592.143	4089
1594.333	4046
1596.524	4112
1598.715	4095
1600.903	4054
1603.091	4002
1605.278	4122
1607.466	4083
1609.652	4032
1611.838	4116
1614.023	4096
1616.207	4063
1618.391	4093
1620.576	4130
1622.759	4122
1624.941	4113
1627.123	4111
1629.304	4091
1631.484	4152
1633.664	4091
1635.844	4127
1638.022	4200
1640.201	4094
1642.38	4157
1644.556	4154
1646.732	4197
1648.908	4153
1651.084	4177
1653.257	4210
1655.433	4171
1657.607	4098
1659.779	4214
1661.951	4190
1664.122	4190
1666.295	4184
1668.467	4294
1670.635	4260
1672.805	4163
1674.973	4213
1677.142	4072
1679.31	4195
1681.478	4139
1683.644	4197
1685.81	4142
1687.975	4152
1690.142	4209
1692.305	4050
1694.468	4192
1696.632	4014
1698.794	4112
1700.957	4039
1703.119	4142
1705.279	4043
1707.439	4015
1709.598	4147
1711.758	4161
1713.917	4025
1716.075	4129
1718.231	4047
1720.388	3995
1722.543	4147
1724.702	4103
1726.856	4110
1729.01	4003
1731.164	4127
1733.317	4058
1735.471	4037
1737.623	4052
1739.774	4093
1741.925	4154
1744.075	4131
1746.225	4094
1748.376	4042
1750.524	4154
1752.672	4088
1754.82	4075
1756.965	4017
1759.113	4106
1761.259	4148
1763.405	4183
1765.549	4105
1767.694	4077
1769.836	4100
1771.981	4136
1774.123	4135
1776.264	4154
1778.405	4133
1780.546	4180
1782.687	4103
1784.827	4085
1786.966	4133
1789.103	4234
1791.242	4098
1793.381	4083
1795.517	4155
1797.653	4239
1799.788	4171
1801.923	4071
1804.057	4102
1806.193	4046
1808.326	4240
1810.457	4076
1812.59	4178
1814.721	4172
1816.855	4096
1818.984	4225
1821.113	4160
1823.244	4111
1825.372	4114
1827.499	4168
1829.63	4101
1831.756	4173
1833.882	4143
1836.007	4109
1838.132	4118
1840.26	4098
1842.384	4063
1844.507	4178
1846.63	4128
1848.752	4049
1850.875	4218
1852.996	4073
1855.118	4100
1857.238	4139
1859.358	4107
1861.477	4105
1863.597	4041
1865.715	4095
1867.832	4046
1869.948	4053
1872.064	4133
1874.181	4195
1876.297	4003
1878.411	4097
1880.526	4052
1882.639	4054
1884.752	4187
1886.865	4043
1888.977	4186
1891.089	4143
1893.2	4031
1895.308	4232
1897.42	4172
1899.53	4161
1901.639	4178
1903.745	4160
1905.853	4164
1907.962	4163
1910.067	4164
1912.174	4227
1914.278	4135
1916.383	4127
1918.486	4238
1920.592	4178
1922.694	4101
1924.797	4153
1926.898	4142
1929	4122
1931.102	4188
1933.203	4253
1935.301	4188
1937.401	4208
1939.499	4162
1941.598	4132
1943.697	4144
1945.793	4175
1947.888	4154
1949.985	4179
1952.08	4185
1954.176	4240
1956.269	4227
1958.364	4183
1960.457	4209
1962.549	4255
1964.642	4211
1966.733	4172
1968.823	4235
1970.913	4123
1973.005	4133
1975.093	4038
1977.184	4069
1979.271	4173
1981.359	4103
1983.446	4188
1985.532	4169
1987.619	4164
1989.705	4123
1991.789	4183
1993.874	4146
1995.956	4088
1998.041	4114
2000.123	4103
2002.206	4207
2004.287	4230
2006.368	4163
2008.449	4166
2010.529	4110
2012.609	4090
2014.688	4148
2016.766	4174
2018.843	4112
2020.922	4231
2022.999	4062
2025.074	4165
2027.15	4201
2029.225	4098
2031.299	4093
2033.375	4168
2035.447	4158
2037.52	4174
2039.592	4081
2041.664	4192
2043.736	4152
2045.807	4127
2047.876	4177
2049.947	4129
2052.015	4106
2054.086	4191
2056.153	4136
2058.221	4179
2060.288	4209
2062.353	4259
2064.42	4094
2066.486	4197
2068.55	4180
2070.614	4115
2072.678	4249
2074.741	4194
2076.805	4150
2078.866	4244
2080.929	4105
2082.99	4127
2085.049	4183
2087.109	4122
2089.17	4112
2091.228	4288
2093.286	4156
2095.344	4185
2097.4	4145
2099.46	4134
2101.516	4172
2103.572	4178
2105.626	4259
2107.679	4216
2109.735	4092
2111.788	4131
2113.841	4242
2115.894	4154
2117.945	4123
2119.997	4172
2122.049	4186
2124.1	4154
2126.148	4125
2128.197	4146
2130.246	4127
2132.296	4159
2134.342	4301
2136.39	4222
2138.437	4219
2140.483	4197
2142.527	4155
2144.574	4153
2146.619	4127
2148.661	4138
2150.705	4148
2152.747	4142
2154.792	4148
2156.832	4122
2158.874	4150
2160.915	4190
2162.954	4238
2164.995	4083
2167.034	4086
2169.072	4125
2171.111	4155
2173.148	4102
2175.186	4127
2177.223	4092
2179.258	4085
2181.294	4142
2183.328	4232
2185.362	4109
2187.398	4116
2189.431	4088
2191.463	4034
2193.495	4190
2195.528	4111
2197.56	4104
2199.59	4010
2201.62	4074
2203.649	4166
2205.678	4039
2207.708	4151
2209.737	4056
2211.764	4074
2213.791	3990
2215.817	4102
2217.843	4032
2219.87	4059
2221.895	4093
2223.919	4074
2225.942	4175
2227.966	4102
2229.988	4036
2232.012	4169
2234.032	4141
2236.054	4071
2238.074	4079
2240.095	4141
2242.116	4027
2244.135	4181
2246.153	4144
2248.171	4096
2250.188	4111
2252.208	4045
2254.223	4102
2256.239	4113
2258.255	4110
2260.269	3995
2262.283	4072
2264.3	4057
2266.312	4080
2268.325	4070
2270.336	4061
2272.349	4156
2274.362	4007
2276.372	4074
2278.383	4101
2280.392	4062
2282.402	4089
2284.409	4192
2286.418	4030
2288.427	4136
2290.433	4138
2292.441	4064
2294.446	4028
2296.453	4065
2298.459	4087
2300.463	4099
2302.466	4145
2304.471	4075
2306.475	4132
2308.477	4099
2310.478	4113
2312.481	4048
2314.481	4084
2316.481	4063
2318.482	4083
2320.482	4007
2322.48	4121
2324.48	4019
2326.478	4003
2328.476	4093
2330.473	4084
2332.469	4078
2334.465	4070
2336.46	4032
2338.454	4040
2340.45	4017
2342.444	4089
2344.437	4059
2346.43	4013
2348.421	3964
2350.414	4025
2352.405	4018
2354.396	3983
2356.386	4011
2358.376	3979
2360.366	4001
2362.355	4093
2364.343	4062
2366.331	4111
2368.317	4158
2370.304	4016
2372.292	4041
2374.278	4018
2376.262	4035
2378.247	3976
2380.23	3963
2382.216	4008
2384.199	3928
2386.181	3972
2388.163	4055
2390.144	3985
2392.127	4008
2394.107	3984
2396.087	3942
2398.066	3932
2400.046	4034
2402.023	3978
2404.004	3971
2405.981	4018
2407.957	3998
2409.934	3966
2411.91	4010
2413.886	3902
2415.862	3961
2417.836	3993
2419.809	4036
2421.784	3953
2423.756	4026
2425.73	3965
2427.701	3961
2429.672	4003
2431.644	3983
2433.615	4002
2435.586	3999
2437.555	3962
2439.523	3991
2441.491	3978
2443.459	4049
2445.428	3926
2447.395	3917
2449.361	4066
2451.327	3975
2453.292	4009
2455.257	3973
2457.223	4052
2459.187	3951
2461.15	4021
2463.113	3978
2465.076	3983
2467.039	3982
2468.999	4010
2470.96	3959
2472.921	4009
2474.881	3863
2476.841	3929
2478.8	4042
2480.759	3968
2482.717	3929
2484.675	4011
2486.63	3914
2488.589	3996
2490.545	3913
2492.5	3956
2494.455	3836
2496.408	3937
2498.364	3849
2500.318	3939
2502.27	3931
2504.223	3949
2506.174	3967
2508.126	3934
2510.078	3918
2512.03	3969
2513.979	3894
2515.927	3822
2517.877	3945
2519.826	3927
2521.775	3907
2523.722	3921
2525.668	3833
2527.616	3886
2529.561	3950
2531.508	3898
2533.452	3858
2535.398	3926
2537.342	3882
2539.284	3956
2541.229	3929
2543.173	4007
2545.114	3877
2547.055	3912
2548.996	3882
2550.938	3866
2552.878	3879
2554.817	3846
2556.756	3931
2558.695	3914
2560.633	3986
2562.572	3880
2564.509	3946
2566.445	3895
2568.382	3857
2570.317	3944
2572.254	3871
2574.189	3925
2576.123	3858
2578.057	3918
2579.99	3931
2581.923	3817
2583.855	3895
2585.788	3926
2587.719	3909
2589.65	4006
2591.579	3981
2593.511	3872
2595.44	3919
2597.37	3952
2599.297	3976
2601.225	3910
2603.153	3911
2605.08	3925
2607.007	3941
2608.932	3962
2610.858	3923
2612.782	3812
2614.709	3931
2616.632	3837
2618.556	3983
2620.478	3928
2622.401	3873
2624.324	3927
2626.247	3954
2628.167	4020
2630.088	3977
2632.008	3908
2633.928	3987
2635.848	3863
2637.766	3947
2639.684	3993
2641.603	3965
2643.519	3827
2645.437	3900
2647.353	3946
2649.27	3877
2651.184	3956
2653.099	4005
2655.014	3902
2656.928	3940
2658.842	3976
2660.755	3935
2662.667	3970
2664.579	3934
2666.491	3957
2668.402	3960
2670.312	3924
2672.222	3901
2674.132	3928
2676.042	3987
2677.951	3916
2679.859	3920
2681.766	3910
2683.674	3881
2685.582	3874
2687.488	3879
2689.392	3889
2691.298	3927
2693.202	3843
2695.107	3869
2697.012	3889
2698.914	3901
2700.817	3839
2702.72	3927
2704.622	3859
2706.524	3922
2708.425	3951
2710.326	3925
2712.225	3842
2714.125	3852
2716.024	3846
2717.923	3865
2719.822	3866
2721.719	3843
2723.616	3838
2725.512	3903
2727.41	3879
2729.305	3805
2731.201	3859
2733.095	3882
2734.99	3870
2736.884	3839
2738.778	3865
2740.67	3836
2742.562	3852
2744.455	3858
2746.346	3885
2748.238	3807
2750.129	3914
2752.018	3805
2753.907	3874
2755.797	3879
2757.687	3860
2759.575	3858
2761.462	3869
2763.349	3847
2765.237	3868
2767.124	3910
2769.009	3869
2770.894	3867
2772.779	3848
2774.663	3908
2776.547	3939
2778.431	3891
2780.314	3842
2782.197	3875
2784.078	3877
2785.96	3888
2787.842	3825
2789.723	3864
2791.603	3789
2793.483	3833
2795.362	3811
2797.241	3865
2799.121	3894
2800.997	3842
2802.874	3827
2804.751	3828
2806.628	3879
2808.506	3894
2810.38	3745
2812.255	3881
2814.13	3823
2816.003	3803
2817.878	3806
2819.752	3816
2821.623	3817
2823.496	3775
2825.368	3823
2827.238	3865
2829.111	3865
2830.98	3800
2832.851	3889
2834.719	3822
2836.589	3873
2838.458	3844
2840.327	3919
2842.193	3834
2844.061	3903
2845.927	3813
2847.794	3924
2849.66	3912
2851.525	3856
2853.39	3974
2855.254	3831
2857.117	3839
2858.983	3886
2860.845	3884
2862.707	3956
2864.569	4021
2866.431	3968
2868.293	3962
2870.154	3977
2872.013	4105
2873.873	4072
2875.733	4073
2877.592	4093
2879.451	4073
2881.309	4144
2883.166	4113
2885.022	4249
2886.879	4177
2888.736	4315
2890.591	4201
2892.446	4188
2894.301	4238
2896.155	4231
2898.009	4232
2899.863	4215
2901.716	4177
2903.568	4154
2905.419	4133
2907.27	4176
2909.123	4222
2910.973	4129
2912.824	4137
2914.673	4255
2916.521	4188
2918.372	4268
2920.22	4347
2922.067	4342
2923.914	4322
2925.761	4457
2927.607	4452
2929.455	4376
2931.301	4472
2933.144	4583
2934.99	4490
2936.833	4616
2938.678	4528
2940.522	4604
2942.364	4566
2944.207	4631
2946.048	4656
2947.891	4673
2949.731	4696
2951.571	4726
2953.412	4610
2955.25	4605
2957.09	4626
2958.93	4606
2960.767	4586
2962.606	4670
2964.443	4662
2966.279	4560
2968.116	4519
2969.953	4465
2971.788	4342
2973.623	4426
2975.457	4353
2977.292	4297
2979.127	4239
2980.959	4246
2982.792	4227
2984.624	4201
2986.455	4285
2988.288	4219
2990.119	4160
2991.949	4140
2993.779	4082
2995.608	4087
2997.439	4134
2999.268	4035
3001.096	4093
3002.923	4024
3004.751	3966
3006.578	3940
3008.406	3808
3010.232	3906
3012.057	3897
3013.883	3864
3015.706	3842
3017.532	3859
3019.356	3822
3021.179	3764
3023.002	3831
3024.823	3765
3026.646	3668
3028.469	3804
3030.289	3732
3032.11	3765
3033.93	3721
3035.749	3756
3037.57	3723
3039.39	3746
3041.207	3704
3043.026	3695
3044.842	3623
3046.661	3669
3048.477	3648
3050.294	3761
3052.109	3653
3053.925	3648
3055.739	3639
3057.555	3658
3059.368	3688
3061.181	3697
3062.995	3702
3064.807	3610
3066.62	3665
3068.433	3829
3070.243	3605
3072.054	3605
3073.865	3596
3075.675	3649
3077.485	3567
3079.293	3607
3081.102	3641
3082.911	3679
3084.719	3653
3086.527	3619
3088.333	3649
3090.139	3693
3091.945	3456
3093.75	3553
3095.557	3577
3097.361	3599
3099.165	3534
3100.969	3528
3102.772	3512
3104.575	3594
3106.379	3494
3108.181	3546
3109.982	3628
3111.783	3571
3113.584	3588
3115.386	3549
3117.186	3460
3118.985	3571
3120.783	3560
3122.582	3508
3124.381	3574
3126.179	3507
3127.975	3572
3129.772	3507
3131.569	3548
3133.365	3489
3135.161	3501
3136.956	3544
3138.751	3530
3140.544	3533
3142.338	3577
3144.132	3571
3145.925	3489
3147.717	3528
3149.509	3472
3151.301	3537
3153.091	3529
3154.884	3515
3156.673	3519
3158.462	3453
3160.252	3560
3162.041	3461
3163.831	3512
3165.618	3497
3167.405	3478
3169.193	3537
3170.979	3436
3172.767	3503
3174.553	3534
3176.338	3441
3178.123	3502
3179.907	3498
3181.692	3545
3183.477	3494
3185.259	3537
3187.042	3409
3188.824	3467
3190.607	3407
3192.389	3523
3194.17	3436
3195.951	3513
3197.73	3449
3199.51	3458
3201.289	3536
3203.07	3506
3204.848	3528
3206.626	3432
3208.403	3409
3210.18	3493
3211.959	3520
3213.735	3456
3215.511	3474
3217.285	3413
3219.06	3472
3220.836	3436
3222.611	3419
3224.384	3477
3226.158	3445
3227.929	3477
3229.702	3532
3231.476	3368
3233.248	3409
3235.018	3512
3236.789	3449
3238.56	3367
3240.33	3437
3242.1	3446
3243.869	3416
3245.637	3455
3247.405	3380
3249.172	3475
3250.941	3499
3252.707	3419
3254.474	3516
3256.24	3488
3258.006	3435
3259.772	3453
3261.537	3474
3263.301	3486
3265.065	3495
3266.828	3385
3268.592	3500
3270.355	3453
3272.117	3460
3273.878	3474
3275.64	3478
3277.401	3484
3279.162	3480
3280.922	3416
3282.682	3523
3284.441	3425
3286.199	3363
3287.959	3437
3289.716	3413
3291.475	3455
3293.232	3442
3294.988	3421
3296.744	3544
3298.501	3498
3300.256	3480
3302.011	3413
3303.766	3470
3305.52	3476
3307.275	3454
3309.028	3403
3310.781	3439
3312.533	3436
3314.285	3402
3316.038	3458
3317.789	3422
3319.54	3484
3321.289	3504
3323.039	3440
3324.789	3406
3326.539	3428
3328.288	3383
3330.035	3503
3331.783	3377
3333.531	3469
3335.28	3405
3337.025	3413
3338.771	3426
3340.518	3419
3342.262	3405
3344.009	3452
3345.753	3465
3347.497	3471
3349.24	3420
3350.983	3362
3352.726	3427
3354.469	3377
3356.212	3493
3357.952	3412
3359.694	3400
3361.434	3329
3363.176	3378
3364.916	3395
3366.654	3366
3368.394	3405
3370.132	3514
3371.871	3342
3373.61	3414
3375.346	3324
3377.083	3373
3378.82	3371
3380.556	3385
3382.292	3372
3384.027	3391
3385.763	3403
3387.497	3306
3389.231	3395
3390.965	3334
3392.698	3379
3394.431	3255
3396.164	3354
3397.896	3416
3399.627	3387
3401.36	3400
3403.09	3351
3404.82	3270
3406.55	3431
3408.279	3280
3410.01	3287
3411.738	3382
3413.467	3321
3415.194	3283
3416.92	3287
3418.647	3363
3420.375	3324
3422.102	3273
3423.827	3278
3425.553	3356
3427.277	3334
3429.003	3238
3430.727	3279
3432.451	3265
3434.173	3333
3435.896	3284
3437.62	3304
3439.343	3313
3441.063	3282
3442.785	3269
3444.505	3261
3446.226	3251
3447.948	3239
3449.666	3277
3451.386	3315
3453.104	3274
3454.823	3306
3456.541	3332
3458.259	3244
3459.976	3240
3461.693	3243
3463.408	3229
3465.125	3151
3466.841	3117
3468.556	3257
3470.271	3242
3471.985	3186
3473.698	3251
3475.414	3250
3477.126	3175
3478.838	3175
3480.55	3157
3482.263	3207
3483.975	3211
3485.686	3284
3487.396	3205
3489.106	3182
3490.817	3163
3492.526	3146
3494.236	3169
3495.944	3131
3497.652	3161
3499.359	3205
3501.066	3098
3502.775	3097
3504.481	2992
3506.187	3111
3507.893	3072
3509.598	3089
3511.304	3101
3513.009	3052
3514.713	3106
3516.417	3053
3518.12	3145
3519.821	3156
3521.525	3162
3523.228	3089
3524.929	3069
3526.631	3090
3528.33	3078
3530.032	3034
3531.733	3104
3533.433	3060
3535.131	3056
3536.83	3133
3538.529	3090
3540.227	3020
3541.925	3073
3543.623	3039
3545.319	3037
3547.016	3028
3548.712	3082
3550.408	3057
3552.103	3093
3553.798	3023
3555.491	2990
3557.188	3069
3558.88	3093
3560.574	3038
3562.266	2979
3563.959	3030
3565.651	3103
3567.343	3018
3569.035	3032
3570.725	3014
3572.415	3032
3574.106	3048
3575.797	3021
3577.485	3084
3579.174	2953
3580.863	3020
3582.551	2982
3584.238	3006
3585.926	3000
3587.613	2982
3589.3	2979
3590.986	3005
3592.671	2994
3594.357	2955
3596.042	2941
3597.726	2965
3599.41	3014
3601.094	2917
3602.778	3000
3604.461	2932
3606.143	2968
3607.825	2975
3609.507	2880
3611.188	2936
3612.87	2959
3614.551	2905
3616.229	2884
3617.909	2866
3619.589	2890
3621.269	2945
3622.948	2845
3624.625	2895
3626.302	2873
3627.98	2885
3629.657	2933
3631.334	2860
3633.01	2869
3634.686	2901
3636.361	2845
3638.036	2768
3639.712	2841
3641.385	2904
3643.06	2831
3644.732	2886
3646.405	2846
3648.08	2825
3649.751	2836
3651.424	2862
3653.094	2807
3654.766	2854
3656.436	2818
3658.106	2855
3659.777	2911
3661.446	2876
3663.115	2789
3664.783	2786
3666.452	2851
3668.121	2777
3669.788	2801
3671.454	2841
3673.121	2790
3674.789	2752
3676.455	2742
3678.12	2854
3679.784	2770
3681.45	2831
3683.114	2852
3684.779	2772
3686.442	2797
3688.105	2722
3689.768	2766
3691.43	2718
3693.093	2811
3694.754	2763
3696.415	2752
3698.076	2739
3699.736	2807
3701.396	2745
3703.057	2785
3704.716	2795
3706.375	2770
3708.034	2771
3709.692	2820
3711.351	2720
3713.008	2773
3714.665	2782
3716.321	2684
3717.977	2733
3719.634	2751
3721.29	2758
3722.945	2735
3724.598	2724
3726.253	2816
3727.907	2754
3729.561	2849
3731.214	2764
3732.867	2713
3734.518	2738
3736.171	2657
3737.824	2723
3739.474	2705
3741.125	2757
3742.775	2676
3744.425	2753
3746.074	2752
3747.725	2708
3749.373	2783
3751.022	2681
3752.669	2625
3754.318	2734
3755.966	2688
3757.612	2697
3759.259	2694
3760.905	2701
3762.55	2722
3764.197	2673
3765.842	2785
3767.486	2623
3769.131	2734
3770.774	2659
3772.417	2665
3774.061	2693
3775.705	2546
3777.347	2654
3778.988	2669
3780.629	2731
3782.271	2714
3783.912	2672
3785.552	2640
3787.192	2573
3788.831	2653
3790.472	2642
3792.112	2669
3793.75	2621
3795.388	2639
3797.024	2645
3798.661	2647
3800.3	2643
3801.936	2610
3803.572	2670
3805.208	2653
3806.844	2669
3808.48	2649
3810.115	2636
3811.748	2620
3813.382	2634
3815.016	2606
3816.649	2633
3818.283	2626
3819.914	2602
3821.547	2540
3823.178	2595
3824.809	2602
3826.441	2616
3828.072	2636
3829.701	2558
3831.331	2550
3832.96	2587
3834.591	2562
3836.219	2591
3837.847	2663
3839.475	2570
3841.102	2589
3842.729	2603
3844.357	2549
3845.984	2550
3847.609	2553
3849.234	2644
3850.86	2581
3852.485	2582
3854.11	2607
3855.734	2586
3857.357	2528
3858.981	2571
3860.603	2621
3862.227	2621
3863.848	2570
3865.471	2628
3867.092	2542
3868.713	2514
3870.334	2494
3871.954	2480
3873.575	2603
3875.194	2525
3876.813	2606
3878.433	2527
3880.051	2533
3881.669	2544
3883.286	2571
3884.904	2593
3886.52	2507
3888.138	2540
3889.754	2562
3891.37	2507
3892.985	2559
3894.6	2505
3896.216	2501
3897.831	2471
3899.444	2490
3901.058	2512
3902.67	2564
3904.283	2532
3905.897	2554
3907.509	2481
3909.121	2523
3910.731	2513
3912.342	2508
3913.954	2518
3915.563	2511
3917.174	2513
3918.783	2597
3920.391	2495
3922.002	2535
3923.611	2473
3925.218	2502
3926.826	2509
3928.432	2515
3930.039	2471
3931.647	2468
3933.253	2509
3934.859	2509
3936.464	2442
3938.068	2475
3939.675	2465
3941.278	2447
3942.883	2411
3944.486	2510
3946.089	2482
3947.692	2475
3949.295	2460
3950.898	2477
3952.499	2481
3954.1	2448
3955.7	2513
3957.303	2413
3958.903	2402
3960.502	2431
3962.101	2430
3963.7	2444
3965.301	2440
3966.899	2439
3968.497	2417
3970.094	2457
3971.691	2454
3973.288	2487
3974.885	2472
3976.481	2434
3978.077	2494
3979.672	2453
3981.267	2418
3982.863	2449
3984.457	2487
3986.051	2391
3987.645	2424
3989.238	2359
3990.831	2394
3992.425	2353
3994.017	2417
3995.607	2369
3997.199	2438
3998.79	2386
4000.382	2356
4001.973	2379
4003.561	2344
4005.151	2352
4006.741	2401
4008.331	2440
4009.918	2316
4011.507	2374
4013.095	2365
4014.681	2403
4016.269	2410
4017.856	2288
4019.443	2439
4021.028	2283
4022.614	2390
4024.199	2354
4025.785	2360
4027.37	2348
4028.953	2309
4030.536	2360
4032.12	2260
4033.704	2293
4035.287	2357
4036.869	2337
4038.45	2314
4040.032	2285
4041.613	2319
4043.195	2341
4044.776	2270
4046.356	2282
4047.935	2272
4049.515	2313
4051.095	2377
4052.674	2313
4054.251	2281
4055.829	2306
4057.406	2312
4058.985	2289
4060.562	2311
4062.139	2284
4063.715	2280
4065.29	2242
4066.865	2338
4068.442	2263
4070.016	2234
4071.59	2263
4073.164	2292
4074.738	2276
4076.312	2278
4077.885	2337
4079.458	2294
4081.03	2263
4082.602	2232
4084.173	2285
4085.745	2219
4087.315	2206
4088.886	2259
4090.456	2242
4092.026	2332
4093.596	2261
4095.165	2289
4096.734	2294
4098.301	2209
4099.869	2362
4101.437	2281
4103.006	2215
4104.572	2168
4106.139	2256
4107.704	2257
4109.27	2278
4110.837	2262
4112.401	2237
4113.966	2272
4115.53	2205
4117.094	2234
4118.659	2239
4120.223	2266
4121.785	2257
4123.347	2250
4124.909	2272
4126.471	2179
4128.034	2284
4129.595	2188
4131.155	2219
4132.716	2219
4134.275	2244
4135.836	2216
4137.395	2245
4138.955	2228
4140.513	2200
4142.071	2187
4143.628	2151
4145.188	2192
4146.745	2178
4148.302	2155
4149.858	2184
4151.414	2161
4152.971	2211
4154.526	2133
4156.081	2190
4157.635	2254
4159.189	2226
4160.745	2114
4162.298	2235
4163.852	2177
4165.405	2142
4166.957	2112
4168.51	2249
4170.063	2140
4171.614	2147
4173.166	2185
4174.717	2168
4176.267	2177
4177.817	2125
4179.368	2115
4180.917	2128
4182.466	2114
4184.016	2098
4185.564	2185
4187.112	2114
4188.66	2137
4190.207	2107
4191.754	2144
4193.301	2207
4194.848	2091
4196.394	2129
4197.94	2127
4199.484	2113
4201.03	2137
4202.575	2126
4204.12	2123
4205.663	2141
4207.207	2081
4208.75	2133
4210.292	2091
4211.836	2112
4213.378	2094
4214.92	2066
4216.46	2119
4218.002	2147
4219.544	2076
4221.083	2081
4222.625	2134
4224.164	2072
4225.703	2101
4227.244	2124
4228.782	2084
4230.32	2089
4231.857	2120
4233.395	2067
4234.933	2137
4236.471	2093
4238.007	2052
4239.542	2109
4241.078	2071
4242.614	2128
4244.15	2047
4245.685	2021
4247.219	2094
4248.753	1997
4250.287	2097
4251.82	2021
4253.354	2104
4254.887	2099
4256.419	2067
4257.951	2038
4259.483	2038
4261.016	2065
4262.547	2068
4264.078	2106
4265.608	2091
4267.137	2024
4268.668	2030
4270.197	2066
4271.727	2057
4273.254	2026
4274.783	2046
4276.311	2077
4277.84	2078
4279.366	2007
4280.894	2042
4282.42	2050
4283.946	2035
4285.473	1999
4286.998	2063
4288.523	2059
4290.047	2041
4291.572	2023
4293.096	2064
4294.622	2060
4296.144	2002
4297.668	2061
4299.19	2042
4300.713	2028
4302.236	2002
4303.758	2063
4305.279	1981
4306.799	2028
4308.321	2018
4309.842	2044
4311.361	2041
4312.882	2043
4314.401	2056
