400.0961	2688
402.6185	2673
405.1424	2712
407.6635	2737
410.1838	2743
412.7035	2767
415.2225	2736
417.7388	2754
420.2585	2765
422.7754	2865
425.2917	2889
427.8072	2926
430.3221	2909
432.8363	2929
435.3498	2856
437.8626	2918
440.3727	2905
442.8841	2896
445.3969	2859
447.907	2990
450.4142	2891
452.9229	2842
455.4289	2876
457.9362	2860
460.4449	2956
462.9488	2845
465.454	2890
467.9566	2841
470.4604	2838
472.9637	2816
475.4662	2866
477.966	2892
480.4671	2912
482.9656	2917
485.4633	2870
487.9645	2861
490.4608	2837
492.9566	2857
495.4536	2851
497.948	2918
500.4437	2937
502.9387	2926
505.431	2986
507.9226	2940
510.4136	2902
512.9079	2897
515.3975	3001
517.8864	2958
520.3746	2928
522.8622	2983
525.3491	2956
527.8394	2891
530.3249	3026
532.8098	2992
535.2939	2942
537.7774	3014
540.2623	3030
542.7444	2972
545.2259	2982
547.7067	2928
550.1868	2995
552.6683	2975
555.147	3057
557.6231	3022
560.1005	2959
562.5773	3014
565.0534	2981
567.5308	3054
570.0056	3102
572.4776	3051
574.951	3157
577.4237	3052
579.8978	3062
582.3671	3134
584.8378	3083
587.3079	3079
589.7773	3105
592.244	3130
594.714	3111
597.1793	3060
599.6461	3163
602.1121	3009
604.5754	3094
607.0421	3126
609.5042	3079
611.9675	3130
614.4282	3065
616.8902	3056
619.3515	3049
621.8122	3093
624.2702	3079
626.7296	3170
629.1863	3057
631.6423	2967
634.1017	3041
636.5563	3034
639.0104	2997
641.4658	3024
643.9185	3028
646.3725	3150
648.8239	3071
651.2766	3043
653.7266	3091
656.176	3141
658.6247	3109
661.0748	3115
663.5242	3148
665.9709	3121
668.417	3083
670.8624	3169
673.3092	3184
675.7533	3108
678.1968	3135
680.6395	3121
683.0817	3181
685.5251	3181
687.9659	3161
690.4061	3136
692.8456	3121
695.2844	3201
697.7226	3256
700.1621	3223
702.599	3187
705.0332	3208
707.4688	3097
709.9036	3208
712.3399	3288
714.7735	3126
717.2044	3222
719.6367	3222
722.0683	3202
724.4993	3150
726.9296	3221
729.3593	3300
731.7883	3278
734.2147	3252
736.6423	3199
739.0714	3277
741.4958	3306
743.9216	3290
746.3447	3348
748.7691	3332
751.1929	3304
753.616	3342
756.0366	3369
758.4584	3294
760.8776	3326
763.2982	3345
765.718	3455
768.1373	3394
770.5539	3337
772.9698	3385
775.3871	3404
777.8038	3338
780.2178	3413
782.6332	3379
785.0459	3311
787.458	3360
789.8714	3486
792.2842	3446
794.6943	3367
797.1038	3348
799.5127	3355
801.9209	3368
804.3324	3370
806.7393	3398
809.1456	3403
811.5513	3416
813.9562	3337
816.3625	3451
818.7663	3333
821.1693	3444
823.5718	3490
825.9735	3415
828.3746	3477
830.7771	3400
833.177	3439
835.5762	3470
837.9747	3479
840.3727	3471
842.772	3475
845.1666	3440
847.5626	3515
849.958	3519
852.3527	3556
854.7488	3524
857.1403	3494
859.5331	3575
861.9253	3540
864.3168	3492
866.7057	3451
869.098	3482
871.4876	3448
873.8746	3507
876.263	3481
878.6487	3422
881.0378	3485
883.4243	3432
885.8081	3516
888.1933	3491
890.5759	3479
892.9598	3566
895.343	3569
897.7256	3550
900.1057	3486
902.4871	3570
904.8659	3464
907.246	3506
909.6254	3589
912.0023	3523
914.3786	3638
916.7562	3641
919.1331	3608
921.5074	3645
923.8831	3699
926.2562	3724
928.6287	3592
931.0005	3662
933.3757	3738
935.7462	3655
938.1162	3722
940.4855	3761
942.8542	3750
945.2242	3793
947.5916	3906
949.9584	3977
952.3266	4174
954.6921	4239
957.0571	4361
959.4233	4430
961.787	4523
964.15	4519
966.5125	4377
968.8742	4339
971.2354	4054
973.5959	3939
975.9559	3823
978.3151	3714
980.6738	3714
983.0338	3662
985.3912	3668
987.7461	3618
990.1022	3624
992.4578	3624
994.8127	3681
997.1689	3674
999.5207	3670
1001.874	3664
1004.226	3695
1006.576	3634
1008.929	3694
1011.28	3596
1013.628	3669
1015.977	3668
1018.324	3661
1020.674	3673
1023.019	3647
1025.366	3749
1027.713	3631
1030.056	3666
1032.399	3720
1034.746	3694
1037.087	3651
1039.431	3711
1041.771	3746
1044.113	3740
1046.454	3748
1048.793	3760
1051.133	3704
1053.471	3684
1055.807	3760
1058.146	3799
1060.483	3784
1062.818	3807
1065.153	3796
1067.489	3723
1069.822	3812
1072.156	3845
1074.488	3867
1076.82	3851
1079.15	3848
1081.48	3831
1083.814	3850
1086.143	3828
1088.471	3812
1090.799	3700
1093.126	3644
1095.452	3800
1097.78	3691
1100.105	3756
1102.43	3739
1104.754	3718
1107.077	3678
1109.4	3634
1111.722	3697
1114.044	3728
1116.365	3748
1118.685	3816
1121.005	3722
1123.324	3698
1125.643	3802
1127.961	3814
1130.278	3799
1132.595	3739
1134.911	3859
1137.226	3686
1139.541	3703
1141.854	3821
1144.167	3711
1146.482	3713
1148.793	3718
1151.105	3661
1153.414	3715
1155.725	3709
1158.033	3794
1160.344	3814
1162.651	3769
1164.959	3669
1167.265	3822
1169.572	3784
1171.878	3749
1174.184	3853
1176.488	3755
1178.79	3746
1181.094	3700
1183.396	3789
1185.699	3708
1188.001	3741
1190.301	3748
1192.6	3809
1194.9	3752
1197.2	3736
1199.497	3745
1201.794	3695
1204.09	3737
1206.387	3778
1208.684	3825
1210.978	3795
1213.272	3721
1215.565	3757
1217.858	3732
1220.15	3783
1222.443	3732
1224.734	3727
1227.024	3704
1229.313	3894
1231.602	3855
1233.892	3841
1236.18	3878
1238.467	3949
1240.754	3984
1243.04	4025
1245.325	3939
1247.612	3890
1249.896	3857
1252.178	3908
1254.461	3999
1256.743	3932
1259.027	4029
1261.308	3945
1263.587	4020
1265.867	3968
1268.146	3912
1270.425	3838
1272.703	3836
1274.981	4045
1277.256	4051
1279.532	4015
1281.808	3943
1284.083	3946
1286.358	3834
1288.63	3973
1290.904	3844
1293.175	3824
1295.449	3862
1297.719	3776
1299.99	3848
1302.259	3866
1304.529	3892
1306.798	3935
1309.065	3869
1311.333	3861
1313.599	3881
1315.866	3816
1318.131	3871
1320.396	3920
1322.66	3873
1324.925	3934
1327.187	3908
1329.448	3850
1331.711	3937
1333.974	3822
1336.234	3914
1338.493	4004
1340.752	3873
1343.01	3909
1345.269	3862
1347.526	3814
1349.784	3948
1352.04	3915
1354.295	3855
1356.552	3861
1358.806	3837
1361.059	3911
1363.312	3848
1365.564	3910
1367.818	3953
1370.069	3895
1372.318	3872
1374.568	3861
1376.817	3908
1379.066	3922
1381.316	3867
1383.564	3935
1385.809	3937
1388.056	3915
1390.301	3970
1392.549	3912
1394.793	3969
1397.036	3913
1399.279	3971
1401.522	3982
1403.763	3976
1406.007	3956
1408.248	3902
1410.487	4001
1412.727	3920
1414.965	3987
1417.205	3965
1419.442	4079
1421.68	3969
1423.915	3962
1426.152	4085
1428.388	3997
1430.623	4039
1432.857	3986
1435.091	3950
1437.323	4021
1439.556	4022
1441.789	4032
1444.019	4009
1446.25	4129
1448.48	3997
1450.708	4088
1452.938	4105
1455.167	4137
1457.394	4155
1459.62	4153
1461.846	4092
1464.073	4072
1466.299	4072
1468.523	4050
1470.746	4082
1472.969	4013
1475.191	3936
1477.415	3977
1479.636	3995
1481.858	3964
1484.078	3879
1486.298	3970
1488.518	3891
1490.736	3915
1492.954	3830
1495.169	3904
1497.386	3898
1499.602	3934
1501.819	3843
1504.034	3852
1506.248	3928
1508.462	3832
1510.675	3763
1512.888	3835
1515.1	3902
1517.311	3898
1519.522	3813
1521.732	3963
1523.942	3897
1526.151	3974
1528.36	3917
1530.566	3856
1532.773	3845
1534.98	3898
1537.187	3887
1539.392	3966
1541.596	3947
1543.801	4028
1546.005	3897
1548.208	3897
1550.411	3969
1552.612	3955
1554.814	3932
1557.013	3925
1559.212	4061
1561.414	4006
1563.612	3978
1565.811	3974
1568.007	4064
1570.203	4029
1572.403	3974
1574.598	4029
1576.792	3935
1578.988	4042
1581.181	3998
1583.376	4033
1585.568	3974
1587.761	3994
1589.952	4086
1592.143	4006
1594.333	4092
1596.524	4005
1598.715	4074
1600.903	4024
1603.091	4037
1605.278	4027
1607.466	4050
1609.652	4029
1611.838	4088
1614.023	4018
1616.207	4079
1618.391	4037
1620.576	4025
1622.759	4100
1624.941	4031
1627.123	3991
1629.304	4149
1631.484	4048
1633.664	4085
1635.844	4112
1638.022	4048
1640.201	4117
1642.38	4018
1644.556	4118
1646.732	4123
1648.908	4075
1651.084	4167
1653.257	4228
1655.433	4090
1657.607	4053
1659.779	4155
1661.951	4065
1664.122	4172
1666.295	4208
1668.467	4134
1670.635	4104
1672.805	4168
1674.973	4154
1677.142	4167
1679.31	4240
1681.478	4111
1683.644	4143
1685.81	4114
1687.975	4095
1690.142	4204
1692.305	4104
1694.468	4160
1696.632	4135
1698.794	4122
1700.957	4050
1703.119	4049
1705.279	3964
1707.439	4045
1709.598	4052
1711.758	3969
1713.917	3934
1716.075	4058
1718.231	3967
1720.388	3996
1722.543	4008
1724.702	4041
1726.856	4015
1729.01	3941
1731.164	3994
1733.317	4068
1735.471	3972
1737.623	3990
1739.774	4053
1741.925	4098
1744.075	4100
1746.225	4019
1748.376	4029
1750.524	4040
1752.672	3989
1754.82	4075
1756.965	4124
1759.113	4085
1761.259	4049
1763.405	4132
1765.549	4135
1767.694	4110
1769.836	4088
1771.981	4021
1774.123	4019
1776.264	4104
1778.405	4095
1780.546	4067
1782.687	3993
1784.827	4133
1786.966	4044
1789.103	4020
1791.242	4117
1793.381	4056
1795.517	4093
1797.653	4047
1799.788	3962
1801.923	4049
1804.057	3987
1806.193	4063
1808.326	4089
1810.457	4059
1812.59	4116
1814.721	4101
1816.855	4128
1818.984	4088
1821.113	4110
1823.244	3940
1825.372	4012
1827.499	4152
1829.63	4071
1831.756	4137
1833.882	4020
1836.007	4093
1838.132	4007
1840.26	4068
1842.384	4037
1844.507	4061
1846.63	4107
1848.752	4086
1850.875	4033
1852.996	4157
1855.118	4007
1857.238	4015
1859.358	3999
1861.477	4032
1863.597	3996
1865.715	3983
1867.832	4034
1869.948	4024
1872.064	4059
1874.181	4065
1876.297	4099
1878.411	4045
1880.526	3980
1882.639	4033
1884.752	4071
1886.865	3988
1888.977	4045
1891.089	4064
1893.2	4061
1895.308	4094
1897.42	4020
1899.53	4159
1901.639	4117
1903.745	4085
1905.853	4096
1907.962	4019
1910.067	4082
1912.174	4047
1914.278	4105
1916.383	4149
1918.486	4128
1920.592	4107
1922.694	4138
1924.797	4090
1926.898	4092
1929	4148
1931.102	4149
1933.203	4116
1935.301	4147
1937.401	4051
1939.499	4179
1941.598	4094
1943.697	4091
1945.793	4151
1947.888	4157
1949.985	4148
1952.08	4065
1954.176	4113
1956.269	4099
1958.364	4160
1960.457	4106
1962.549	4186
1964.642	4071
1966.733	4098
1968.823	4168
1970.913	4087
1973.005	4097
1975.093	4169
1977.184	4061
1979.271	4130
1981.359	4066
1983.446	4181
1985.532	4081
1987.619	4047
1989.705	4057
1991.789	4042
1993.874	4143
1995.956	4009
1998.041	4177
2000.123	4083
2002.206	4108
2004.287	4115
2006.368	4183
2008.449	4053
2010.529	4045
2012.609	4090
2014.688	4084
2016.766	4095
2018.843	4066
2020.922	4031
2022.999	4034
2025.074	4072
2027.15	4005
2029.225	4091
2031.299	4031
2033.375	4048
2035.447	4077
2037.52	4078
2039.592	4046
2041.664	4018
2043.736	4017
2045.807	3996
2047.876	4102
2049.947	4043
2052.015	4038
2054.086	4065
2056.153	4059
2058.221	4101
2060.288	4096
2062.353	4080
2064.42	4063
2066.486	4083
2068.55	4143
2070.614	4104
2072.678	4139
2074.741	4114
2076.805	4143
2078.866	4092
2080.929	4055
2082.99	4019
2085.049	4025
2087.109	4010
2089.17	4103
2091.228	4076
2093.286	4166
2095.344	4111
2097.4	4131
2099.46	4114
2101.516	4128
2103.572	4097
2105.626	4116
2107.679	4045
2109.735	4106
2111.788	4107
2113.841	4029
2115.894	4096
2117.945	4063
2119.997	4051
2122.049	4095
2124.1	4139
2126.148	4080
2128.197	4076
2130.246	4044
2132.296	4047
2134.342	4131
2136.39	4099
2138.437	4088
2140.483	4057
2142.527	4053
2144.574	4070
2146.619	4000
2148.661	4122
2150.705	4077
2152.747	4084
2154.792	4156
2156.832	4110
2158.874	4094
2160.915	3981
2162.954	3993
2164.995	4088
2167.034	4105
2169.072	3983
2171.111	4015
2173.148	4032
2175.186	4060
2177.223	4134
2179.258	4042
2181.294	4022
2183.328	4029
2185.362	4051
2187.398	4032
2189.431	4028
2191.463	4040
2193.495	3979
2195.528	4000
2197.56	4011
2199.59	4023
2201.62	4004
2203.649	3929
2205.678	4003
2207.708	3915
2209.737	3922
2211.764	3992
2213.791	3936
2215.817	4011
2217.843	4011
2219.87	3951
2221.895	3947
2223.919	3952
2225.942	3984
2227.966	3988
2229.988	3991
2232.012	4047
2234.032	3964
2236.054	4053
2238.074	3929
2240.095	3965
2242.116	3894
2244.135	3977
2246.153	3823
2248.171	4035
2250.188	4013
2252.208	3958
2254.223	3942
2256.239	3988
2258.255	4038
2260.269	3957
2262.283	3937
2264.3	3978
2266.312	4031
2268.325	4005
2270.336	3994
2272.349	3927
2274.362	4016
2276.372	4004
2278.383	3981
2280.392	4018
2282.402	3986
2284.409	3928
2286.418	3909
2288.427	3954
2290.433	3934
2292.441	3969
2294.446	4001
2296.453	3977
2298.459	3972
2300.463	3955
2302.466	4033
2304.471	3996
2306.475	4024
2308.477	3966
2310.478	3911
2312.481	3999
2314.481	3987
2316.481	3982
2318.482	3996
2320.482	3926
2322.48	4016
2324.48	3924
2326.478	3936
2328.476	3965
2330.473	3927
2332.469	3918
2334.465	3917
2336.46	3968
2338.454	3975
2340.45	3879
2342.444	4022
2344.437	3982
2346.43	3956
2348.421	3951
2350.414	3945
2352.405	3887
2354.396	3953
2356.386	4018
2358.376	3889
2360.366	3962
2362.355	3915
2364.343	3968
2366.331	4004
2368.317	3923
2370.304	3969
2372.292	3921
2374.278	3967
2376.262	3819
2378.247	3930
2380.23	3905
2382.216	3858
2384.199	3859
2386.181	3956
2388.163	3809
2390.144	3864
2392.127	3842
2394.107	3906
2396.087	3890
2398.066	3847
2400.046	3895
2402.023	3895
2404.004	3855
2405.981	3861
2407.957	3850
2409.934	3845
2411.91	3909
2413.886	3848
2415.862	3858
2417.836	3907
2419.809	3838
2421.784	3931
2423.756	3835
2425.73	3871
2427.701	3812
2429.672	3924
2431.644	3865
2433.615	3876
2435.586	3942
2437.555	3990
2439.523	3858
2441.491	3935
2443.459	3840
2445.428	3895
2447.395	3859
2449.361	3779
2451.327	3816
2453.292	3784
2455.257	3823
2457.223	3910
2459.187	3844
2461.15	3839
2463.113	3811
2465.076	3834
2467.039	3711
2468.999	3902
2470.96	3847
2472.921	3835
2474.881	3764
2476.841	3826
2478.8	3836
2480.759	3923
2482.717	3823
2484.675	3872
2486.63	3862
2488.589	3915
2490.545	3884
2492.5	3861
2494.455	3843
2496.408	3785
2498.364	3834
2500.318	3851
2502.27	3832
2504.223	3773
2506.174	3848
2508.126	3826
2510.078	3722
2512.03	3755
2513.979	3849
2515.927	3891
2517.877	3845
2519.826	3799
2521.775	3727
2523.722	3716
2525.668	3746
2527.616	3794
2529.561	3847
2531.508	3832
2533.452	3784
2535.398	3778
2537.342	3814
2539.284	3706
2541.229	3780
2543.173	3757
2545.114	3705
2547.055	3823
2548.996	3833
2550.938	3837
2552.878	3766
2554.817	3751
2556.756	3824
2558.695	3792
2560.633	3780
2562.572	3660
2564.509	3842
2566.445	3828
2568.382	3758
2570.317	3790
2572.254	3796
2574.189	3752
2576.123	3784
2578.057	3795
2579.99	3740
2581.923	3756
2583.855	3760
2585.788	3872
2587.719	3796
2589.65	3741
2591.579	3786
2593.511	3755
2595.44	3781
2597.37	3783
2599.297	3822
2601.225	3777
2603.153	3766
2605.08	3768
2607.007	3771
2608.932	3753
2610.858	3776
2612.782	3838
2614.709	3798
2616.632	3802
2618.556	3749
2620.478	3781
2622.401	3793
2624.324	3842
2626.247	3771
2628.167	3817
2630.088	3793
2632.008	3765
2633.928	3846
2635.848	3848
2637.766	3796
2639.684	3821
2641.603	3837
2643.519	3846
2645.437	3812
2647.353	3838
2649.27	3778
2651.184	3747
2653.099	3818
2655.014	3817
2656.928	3678
2658.842	3890
2660.755	3836
2662.667	3742
2664.579	3838
2666.491	3776
2668.402	3747
2670.312	3816
2672.222	3757
2674.132	3773
2676.042	3728
2677.951	3753
2679.859	3760
2681.766	3737
2683.674	3786
2685.582	3742
2687.488	3708
2689.392	3750
2691.298	3711
2693.202	3723
2695.107	3750
2697.012	3789
2698.914	3781
2700.817	3768
2702.72	3786
2704.622	3758
2706.524	3794
2708.425	3703
2710.326	3756
2712.225	3683
2714.125	3719
2716.024	3688
2717.923	3756
2719.822	3783
2721.719	3751
2723.616	3734
2725.512	3747
2727.41	3704
2729.305	3663
2731.201	3657
2733.095	3730
2734.99	3698
2736.884	3725
2738.778	3638
2740.67	3716
2742.562	3720
2744.455	3653
2746.346	3698
2748.238	3771
2750.129	3713
2752.018	3808
2753.907	3726
2755.797	3653
2757.687	3774
2759.575	3698
2761.462	3720
2763.349	3676
2765.237	3668
2767.124	3691
2769.009	3767
2770.894	3630
2772.779	3659
2774.663	3672
2776.547	3690
2778.431	3657
2780.314	3737
2782.197	3682
2784.078	3690
2785.96	3661
2787.842	3693
2789.723	3687
2791.603	3751
2793.483	3689
2795.362	3774
2797.241	3524
2799.121	3679
2800.997	3651
2802.874	3671
2804.751	3666
2806.628	3720
2808.506	3633
2810.38	3631
2812.255	3687
2814.13	3582
2816.003	3633
2817.878	3634
2819.752	3709
2821.623	3713
2823.496	3704
2825.368	3663
2827.238	3603
2829.111	3650
2830.98	3690
2832.851	3692
2834.719	3735
2836.589	3672
2838.458	3682
2840.327	3659
2842.193	3700
2844.061	3581
2845.927	3656
2847.794	3588
2849.66	3606
2851.525	3668
2853.39	3684
2855.254	3697
2857.117	3605
2858.983	3743
2860.845	3681
2862.707	3784
2864.569	3752
2866.431	3778
2868.293	3803
2870.154	3791
2872.013	3862
2873.873	3799
2875.733	3858
2877.592	3954
2879.451	3892
2881.309	3946
2883.166	3931
2885.022	4092
2886.879	4019
2888.736	4027
2890.591	4007
2892.446	4050
2894.301	4014
2896.155	3944
2898.009	3903
2899.863	3976
2901.716	3995
2903.568	3944
2905.419	3923
2907.27	3990
2909.123	3979
2910.973	3995
2912.824	3989
2914.673	4051
2916.521	4102
2918.372	4087
2920.22	4108
2922.067	4143
2923.914	4191
2925.761	4154
2927.607	4172
2929.455	4339
2931.301	4327
2933.144	4400
2934.99	4416
2936.833	4398
2938.678	4357
2940.522	4433
2942.364	4429
2944.207	4541
2946.048	4522
2947.891	4536
2949.731	4556
2951.571	4435
2953.412	4459
2955.25	4404
2957.09	4352
2958.93	4390
2960.767	4340
2962.606	4319
2964.443	4302
2966.279	4224
2968.116	4185
2969.953	4252
2971.788	4128
2973.623	4115
2975.457	4118
2977.292	3981
2979.127	4045
2980.959	4141
2982.792	4100
2984.624	4002
2986.455	4031
2988.288	4100
2990.119	3934
2991.949	3999
2993.779	4027
2995.608	3925
2997.439	3873
2999.268	3899
3001.096	3872
3002.923	3802
3004.751	3844
3006.578	3758
3008.406	3704
3010.232	3688
3012.057	3715
3013.883	3685
3015.706	3659
3017.532	3615
3019.356	3578
3021.179	3667
3023.002	3602
3024.823	3489
3026.646	3581
3028.469	3545
3030.289	3554
3032.11	3565
3033.93	3559
3035.749	3542
3037.57	3448
3039.39	3510
3041.207	3488
3043.026	3545
3044.842	3535
3046.661	3433
3048.477	3511
3050.294	3464
3052.109	3493
3053.925	3443
3055.739	3486
3057.555	3430
3059.368	3463
3061.181	3496
3062.995	3483
3064.807	3440
3066.62	3506
3068.433	3465
3070.243	3465
3072.054	3488
3073.865	3475
3075.675	3418
3077.485	3483
3079.293	3461
3081.102	3401
3082.911	3486
3084.719	3419
3086.527	3389
3088.333	3397
3090.139	3487
3091.945	3393
3093.75	3480
3095.557	3448
3097.361	3458
3099.165	3384
3100.969	3373
3102.772	3395
3104.575	3394
3106.379	3432
3108.181	3392
3109.982	3429
3111.783	3368
3113.584	3437
3115.386	3294
3117.186	3401
3118.985	3234
3120.783	3290
3122.582	3352
3124.381	3340
3126.179	3384
3127.975	3421
3129.772	3332
3131.569	3323
3133.365	3318
3135.161	3349
3136.956	3362
3138.751	3352
3140.544	3399
3142.338	3322
3144.132	3385
3145.925	4279
3147.717	4169
3149.509	3277
3151.301	3333
3153.091	3375
3154.884	3368
3156.673	3268
3158.462	3256
3160.252	3449
3162.041	3252
3163.831	3222
3165.618	3340
3167.405	3305
3169.193	3361
3170.979	3384
3172.767	3250
3174.553	3310
3176.338	3309
3178.123	3263
3179.907	3260
3181.692	3291
3183.477	3207
3185.259	3247
3187.042	3253
3188.824	3187
3190.607	3250
3192.389	3231
3194.17	3294
3195.951	3230
3197.73	3239
3199.51	3256
3201.289	3278
3203.07	3344
3204.848	3213
3206.626	3259
3208.403	3272
3210.18	3297
3211.959	3301
3213.735	3298
3215.511	3340
3217.285	3241
3219.06	3283
3220.836	3262
3222.611	3284
3224.384	3191
3226.158	3203
3227.929	3335
3229.702	3265
3231.476	3285
3233.248	3211
3235.018	3263
3236.789	3337
3238.56	3311
3240.33	3269
3242.1	3293
3243.869	3303
3245.637	3282
3247.405	3258
3249.172	3274
3250.941	3249
3252.707	3265
3254.474	3167
3256.24	3241
3258.006	3294
3259.772	3227
3261.537	3193
3263.301	3286
3265.065	3201
3266.828	3236
3268.592	3282
3270.355	3215
3272.117	3303
3273.878	3265
3275.64	3276
3277.401	3242
3279.162	3271
3280.922	3288
3282.682	3256
3284.441	3300
3286.199	3228
3287.959	3261
3289.716	3205
3291.475	3259
3293.232	3311
3294.988	3294
3296.744	3319
3298.501	3240
3300.256	3105
3302.011	3290
3303.766	3262
3305.52	3299
3307.275	3307
3309.028	3238
3310.781	3263
3312.533	3305
3314.285	3332
3316.038	3319
3317.789	3286
3319.54	3213
3321.289	3354
3323.039	3283
3324.789	3239
3326.539	3215
3328.288	3189
3330.035	3161
3331.783	3246
3333.531	3232
3335.28	3270
3337.025	3209
3338.771	3309
3340.518	3213
3342.262	3155
3344.009	3231
3345.753	3255
3347.497	3207
3349.24	3145
3350.983	3152
3352.726	3254
3354.469	3145
3356.212	3255
3357.952	3215
3359.694	3199
3361.434	3243
3363.176	3219
3364.916	3181
3366.654	3177
3368.394	3204
3370.132	3182
3371.871	3220
3373.61	3135
3375.346	3209
3377.083	3176
3378.82	3224
3380.556	3135
3382.292	3144
3384.027	3135
3385.763	3168
3387.497	3193
3389.231	3189
3390.965	3129
3392.698	3145
3394.431	3160
3396.164	3140
3397.896	3125
3399.627	3102
3401.36	3106
3403.09	3138
3404.82	3122
3406.55	3078
3408.279	3098
3410.01	3151
3411.738	3115
3413.467	3084
3415.194	3142
3416.92	3157
3418.647	3115
3420.375	3106
3422.102	3146
3423.827	3105
3425.553	3099
3427.277	3071
3429.003	3048
3430.727	3136
3432.451	3068
3434.173	3069
3435.896	3102
3437.62	3074
3439.343	3108
3441.063	3045
3442.785	2988
3444.505	3020
3446.226	3043
3447.948	3041
3449.666	3042
3451.386	3000
3453.104	3011
3454.823	3051
3456.541	3008
3458.259	3082
3459.976	3021
3461.693	3009
3463.408	3070
3465.125	3010
3466.841	2979
3468.556	3017
3470.271	2996
3471.985	2976
3473.698	2985
3475.414	3022
3477.126	2974
3478.838	2925
3480.55	2967
3482.263	3021
3483.975	2991
3485.686	3015
3487.396	2951
3489.106	2959
3490.817	3001
3492.526	2999
3494.236	2898
3495.944	3029
3497.652	2936
3499.359	2909
3501.066	2920
3502.775	2986
3504.481	2904
3506.187	2938
3507.893	2897
3509.598	2871
3511.304	2889
3513.009	2939
3514.713	2932
3516.417	2930
3518.12	2832
3519.821	2940
3521.525	2906
3523.228	2867
3524.929	2889
3526.631	2862
3528.33	2860
3530.032	2897
3531.733	2935
3533.433	2902
3535.131	2922
3536.83	2850
3538.529	2903
3540.227	2852
3541.925	2801
3543.623	2829
3545.319	2908
3547.016	2836
3548.712	2903
3550.408	2838
3552.103	2859
3553.798	2768
3555.491	2849
3557.188	2881
3558.88	2841
3560.574	2761
3562.266	2736
3563.959	2853
3565.651	2837
3567.343	2817
3569.035	2798
3570.725	2808
3572.415	2854
3574.106	2836
3575.797	2777
3577.485	2783
3579.174	2844
3580.863	2770
3582.551	2836
3584.238	2729
3585.926	2746
3587.613	2783
3589.3	2739
3590.986	2818
3592.671	2791
3594.357	2711
3596.042	2738
3597.726	2747
3599.41	2726
3601.094	2791
3602.778	2716
3604.461	2708
3606.143	2672
3607.825	2777
3609.507	2763
3611.188	2669
3612.87	2738
3614.551	2684
3616.229	2691
3617.909	2600
3619.589	2671
3621.269	2716
3622.948	2698
3624.625	2693
3626.302	2668
3627.98	2680
3629.657	2668
3631.334	2696
3633.01	2655
3634.686	2688
3636.361	2637
3638.036	2670
3639.712	2675
3641.385	2629
3643.06	2663
3644.732	2641
3646.405	2624
3648.08	2650
3649.751	2675
3651.424	2642
3653.094	2655
3654.766	2566
3656.436	2637
3658.106	2634
3659.777	2622
3661.446	2632
3663.115	2585
3664.783	2606
3666.452	2562
3668.121	2659
3669.788	2637
3671.454	2610
3673.121	2584
3674.789	2651
3676.455	2640
3678.12	2586
3679.784	2604
3681.45	2588
3683.114	2630
3684.779	2570
3686.442	2599
3688.105	2524
3689.768	2575
3691.43	2548
3693.093	2626
3694.754	2537
3696.415	2486
3698.076	2533
3699.736	2493
3701.396	2553
3703.057	2591
3704.716	2493
3706.375	2508
3708.034	2578
3709.692	2531
3711.351	2553
3713.008	2484
3714.665	2523
3716.321	2499
3717.977	2581
3719.634	2547
3721.29	2619
3722.945	2531
3724.598	2508
3726.253	2564
3727.907	2445
3729.561	2478
3731.214	2499
3732.867	2518
3734.518	2522
3736.171	2553
3737.824	2510
3739.474	2527
3741.125	2431
3742.775	2514
3744.425	2488
3746.074	2564
3747.725	2496
3749.373	2507
3751.022	2547
3752.669	2491
3754.318	2517
3755.966	2510
3757.612	2467
3759.259	2496
3760.905	2521
3762.55	2513
3764.197	2459
3765.842	2447
3767.486	2455
3769.131	2400
3770.774	2499
3772.417	2456
3774.061	2412
3775.705	2454
3777.347	2485
3778.988	2475
3780.629	2461
3782.271	2483
3783.912	2409
3785.552	2446
3787.192	2422
3788.831	2457
3790.472	2493
3792.112	2480
3793.75	2481
3795.388	2455
3797.024	2418
3798.661	2466
3800.3	2388
3801.936	2402
3803.572	2417
3805.208	2366
3806.844	2411
3808.48	2389
3810.115	2336
3811.748	2431
3813.382	2395
3815.016	2380
3816.649	2433
3818.283	2446
3819.914	2356
3821.547	2431
3823.178	2392
3824.809	2464
3826.441	2345
3828.072	2385
3829.701	2387
3831.331	2421
3832.96	2378
3834.591	2335
3836.219	2469
3837.847	2351
3839.475	2397
3841.102	2329
3842.729	2362
3844.357	2424
3845.984	2416
3847.609	2337
3849.234	2358
3850.86	2382
3852.485	2303
3854.11	2357
3855.734	2326
3857.357	2396
3858.981	2330
3860.603	2281
3862.227	2342
3863.848	2411
3865.471	2426
3867.092	2320
3868.713	2377
3870.334	2275
3871.954	2309
3873.575	2354
3875.194	2352
3876.813	2312
3878.433	2320
3880.051	2353
3881.669	2344
3883.286	2339
3884.904	2303
3886.52	2320
3888.138	2303
3889.754	2294
3891.37	2330
3892.985	2267
3894.6	2317
3896.216	2360
3897.831	2339
3899.444	2320
3901.058	2321
3902.67	2331
3904.283	2373
3905.897	2306
3907.509	2323
3909.121	2333
3910.731	2277
3912.342	2343
3913.954	2319
3915.563	2281
3917.174	2335
3918.783	2342
3920.391	2325
3922.002	2256
3923.611	2247
3925.218	2282
3926.826	2288
3928.432	2275
3930.039	2285
3931.647	2270
3933.253	2288
3934.859	2261
3936.464	2307
3938.068	2291
3939.675	2285
3941.278	2236
3942.883	2249
3944.486	2250
3946.089	2278
3947.692	2272
3949.295	2222
3950.898	2270
3952.499	2249
3954.1	2254
3955.7	2275
3957.303	2292
3958.903	2265
3960.502	2238
3962.101	2231
3963.7	2257
3965.301	2203
3966.899	2221
3968.497	2186
3970.094	2194
3971.691	2242
3973.288	2208
3974.885	2204
3976.481	2240
3978.077	2179
3979.672	2215
3981.267	2218
3982.863	2195
3984.457	2186
3986.051	2243
3987.645	2284
3989.238	2206
3990.831	2221
3992.425	2228
3994.017	2191
3995.607	2197
3997.199	2151
3998.79	2121
4000.382	2205
4001.973	2199
4003.561	2220
4005.151	2190
4006.741	2171
4008.331	2135
4009.918	2151
4011.507	2200
4013.095	2176
4014.681	2186
4016.269	2169
4017.856	2154
4019.443	2198
4021.028	2144
4022.614	2113
4024.199	2143
4025.785	2134
4027.37	2149
4028.953	2167
4030.536	2159
4032.12	2111
4033.704	2089
4035.287	2123
4036.869	2086
4038.45	2124
4040.032	2092
4041.613	2118
4043.195	2168
4044.776	2138
4046.356	2185
4047.935	2136
4049.515	2131
4051.095	2122
4052.674	2155
4054.251	2096
4055.829	2137
4057.406	2105
4058.985	2107
4060.562	2107
4062.139	2131
4063.715	2137
4065.29	2121
4066.865	2086
4068.442	2140
4070.016	2064
4071.59	2097
4073.164	2037
4074.738	2071
4076.312	2069
4077.885	2021
4079.458	2062
4081.03	2047
4082.602	2120
4084.173	2072
4085.745	2094
4087.315	2093
4088.886	2079
4090.456	2045
4092.026	2083
4093.596	1999
4095.165	2046
4096.734	2109
4098.301	2058
4099.869	2063
4101.437	2100
4103.006	2105
4104.572	2118
4106.139	2060
4107.704	2127
4109.27	2058
4110.837	2081
4112.401	2069
4113.966	2067
4115.53	2007
4117.094	2074
4118.659	2042
4120.223	2013
4121.785	1984
4123.347	2066
4124.909	2022
4126.471	2027
4128.034	2066
4129.595	2069
4131.155	1982
4132.716	2055
4134.275	1976
4135.836	2029
4137.395	2037
4138.955	2047
4140.513	2043
4142.071	2033
4143.628	1989
4145.188	2003
4146.745	1984
4148.302	1965
4149.858	1992
4151.414	2024
4152.971	1959
4154.526	2007
4156.081	1941
4157.635	1961
4159.189	1973
4160.745	1983
4162.298	2007
4163.852	1942
4165.405	1945
4166.957	2036
4168.51	2010
4170.063	2042
4171.614	2010
4173.166	1983
4174.717	1985
4176.267	1942
4177.817	1986
4179.368	1943
4180.917	1982
4182.466	1961
4184.016	1932
4185.564	1955
4187.112	1929
4188.66	1964
4190.207	1910
4191.754	1941
4193.301	1958
4194.848	1916
4196.394	1959
4197.94	1904
4199.484	1921
4201.03	1914
4202.575	1925
4204.12	1992
4205.663	1915
4207.207	1902
4208.75	1906
4210.292	1967
4211.836	1868
4213.378	1891
4214.92	1883
4216.46	1933
4218.002	1884
4219.544	1940
4221.083	1969
4222.625	1847
4224.164	1854
4225.703	1984
4227.244	1921
4228.782	1961
4230.32	1871
4231.857	1944
4233.395	1840
4234.933	1906
4236.471	1904
4238.007	1898
4239.542	1918
4241.078	1889
4242.614	1868
4244.15	1896
4245.685	1895
4247.219	1877
4248.753	1920
4250.287	1879
4251.82	1816
4253.354	1848
4254.887	1915
4256.419	1896
4257.951	1859
4259.483	1865
4261.016	1835
4262.547	1882
4264.078	1895
4265.608	1904
4267.137	1852
4268.668	1845
4270.197	1884
4271.727	1859
4273.254	1861
4274.783	1906
4276.311	1892
4277.84	1885
4279.366	1798
4280.894	1848
4282.42	1852
4283.946	1868
4285.473	1865
4286.998	1810
4288.523	1831
4290.047	1886
4291.572	1826
4293.096	1822
4294.622	1820
4296.144	1783
4297.668	1818
4299.19	1890
4300.713	1823
4302.236	1782
4303.758	1834
4305.279	1804
4306.799	1882
4308.321	1839
4309.842	1812
4311.361	1806
4312.882	1842
4314.401	1790
