400.0961	2566
402.6185	2595
405.1424	2616
407.6635	2627
410.1838	2680
412.7035	2670
415.2225	2626
417.7388	2704
420.2585	2715
422.7754	2657
425.2917	2749
427.8072	2834
430.3221	2801
432.8363	2803
435.3498	2824
437.8626	2827
440.3727	2839
442.8841	2740
445.3969	2804
447.907	2796
450.4142	2772
452.9229	2804
455.4289	2768
457.9362	2757
460.4449	2729
462.9488	2725
465.454	2814
467.9566	2787
470.4604	2754
472.9637	2740
475.4662	2802
477.966	2742
480.4671	2673
482.9656	2716
485.4633	2761
487.9645	2807
490.4608	2809
492.9566	2779
495.4536	2809
497.948	2810
500.4437	2746
502.9387	2772
505.431	2772
507.9226	2806
510.4136	2791
512.9079	2756
515.3975	2819
517.8864	2793
520.3746	2811
522.8622	2767
525.3491	2890
527.8394	2824
530.3249	2758
532.8098	2826
535.2939	2840
537.7774	2853
540.2623	2800
542.7444	2839
545.2259	2796
547.7067	2789
550.1868	2831
552.6683	2819
555.147	2917
557.6231	2841
560.1005	2820
562.5773	2850
565.0534	2838
567.5308	2969
570.0056	2922
572.4776	2914
574.951	2871
577.4237	3006
579.8978	2968
582.3671	2985
584.8378	3058
587.3079	2950
589.7773	3012
592.244	3042
594.714	2995
597.1793	3001
599.6461	2913
602.1121	2892
604.5754	2984
607.0421	2981
609.5042	2978
611.9675	2898
614.4282	2903
616.8902	2954
619.3515	2993
621.8122	2928
624.2702	2924
626.7296	2933
629.1863	2832
631.6423	2896
634.1017	2984
636.5563	2894
639.0104	2976
641.4658	2946
643.9185	2932
646.3725	2887
648.8239	2967
651.2766	3014
653.7266	2903
656.176	2912
658.6247	2890
661.0748	2974
663.5242	2870
665.9709	2941
668.417	2908
670.8624	2899
673.3092	2947
675.7533	3032
678.1968	3006
680.6395	3009
683.0817	2987
685.5251	2983
687.9659	2998
690.4061	2996
692.8456	2992
695.2844	2980
697.7226	2993
700.1621	3056
702.599	2993
705.0332	2980
707.4688	3092
709.9036	3071
712.3399	3072
714.7735	3126
717.2044	3022
719.6367	3059
722.0683	3083
724.4993	3056
726.9296	3138
729.3593	3095
731.7883	3068
734.2147	3117
736.6423	3213
739.0714	3107
741.4958	3135
743.9216	3164
746.3447	3140
748.7691	3136
751.1929	3159
753.616	3174
756.0366	3204
758.4584	3192
760.8776	3089
763.2982	3172
765.718	3273
768.1373	3176
770.5539	3291
772.9698	3199
775.3871	3246
777.8038	3230
780.2178	3234
782.6332	3209
785.0459	3270
787.458	3141
789.8714	3218
792.2842	3163
794.6943	3180
797.1038	3197
799.5127	3165
801.9209	3209
804.3324	3217
806.7393	3238
809.1456	3200
811.5513	3270
813.9562	3238
816.3625	3281
818.7663	3197
821.1693	3205
823.5718	3214
825.9735	3238
828.3746	3251
830.7771	3206
833.177	3323
835.5762	3224
837.9747	3246
840.3727	3276
842.772	3339
845.1666	3231
847.5626	3312
849.958	3382
852.3527	3452
854.7488	3424
857.1403	3304
859.5331	3408
861.9253	3429
864.3168	3298
866.7057	3425
869.098	3313
871.4876	3358
873.8746	3320
876.263	3334
878.6487	3388
881.0378	3397
883.4243	3262
885.8081	3343
888.1933	3338
890.5759	3282
892.9598	3386
895.343	3299
897.7256	3297
900.1057	3382
902.4871	3309
904.8659	3360
907.246	3393
909.6254	3355
912.0023	3337
914.3786	3363
916.7562	3485
919.1331	3487
921.5074	3576
923.8831	3416
926.2562	3488
928.6287	3516
931.0005	3568
933.3757	3572
935.7462	3519
938.1162	3511
940.4855	3615
942.8542	3629
945.2242	3806
947.5916	3853
949.9584	3951
952.3266	4070
954.6921	4234
957.0571	4474
959.4233	4610
961.787	4804
964.15	4700
966.5125	4601
968.8742	4434
971.2354	4210
973.5959	3908
975.9559	3672
978.3151	3667
980.6738	3565
983.0338	3496
985.3912	3505
987.7461	3492
990.1022	3508
992.4578	3470
994.8127	3401
997.1689	3428
999.5207	3447
1001.874	3545
1004.226	3549
1006.576	3479
1008.929	3583
1011.28	3468
1013.628	3401
1015.977	3476
1018.324	3486
1020.674	3518
1023.019	3524
1025.366	3528
1027.713	3493
1030.056	3526
1032.399	3525
1034.746	3590
1037.087	3561
1039.431	3641
1041.771	3458
1044.113	3624
1046.454	3623
1048.793	3601
1051.133	3566
1053.471	3560
1055.807	3615
1058.146	3644
1060.483	3570
1062.818	3665
1065.153	3580
1067.489	3611
1069.822	3735
1072.156	3724
1074.488	3731
1076.82	3659
1079.15	3653
1081.48	3626
1083.814	3645
1086.143	3638
1088.471	3532
1090.799	3606
1093.126	3485
1095.452	3555
1097.78	3642
1100.105	3594
1102.43	3600
1104.754	3535
1107.077	3540
1109.4	3585
1111.722	3549
1114.044	3565
1116.365	3494
1118.685	3527
1121.005	3486
1123.324	3563
1125.643	3521
1127.961	3564
1130.278	3564
1132.595	3578
1134.911	3494
1137.226	3584
1139.541	3544
1141.854	3570
1144.167	3494
1146.482	3562
1148.793	3524
1151.105	3556
1153.414	3522
1155.725	3570
1158.033	3543
1160.344	3558
1162.651	3575
1164.959	3488
1167.265	3565
1169.572	3631
1171.878	3493
1174.184	3565
1176.488	3513
1178.79	3539
1181.094	3618
1183.396	3509
1185.699	3514
1188.001	3607
1190.301	3615
1192.6	3601
1194.9	3506
1197.2	3593
1199.497	3495
1201.794	3555
1204.09	3620
1206.387	3612
1208.684	3573
1210.978	3629
1213.272	3540
1215.565	3561
1217.858	3552
1220.15	3564
1222.443	3583
1224.734	3549
1227.024	3552
1229.313	3573
1231.602	3653
1233.892	3655
1236.18	3664
1238.467	3663
1240.754	3791
1243.04	3731
1245.325	3684
1247.612	3807
1249.896	3750
1252.178	3708
1254.461	3763
1256.743	3694
1259.027	3725
1261.308	3739
1263.587	3721
1265.867	3706
1268.146	3781
1270.425	3684
1272.703	3685
1274.981	3704
1277.256	3763
1279.532	3704
1281.808	3749
1284.083	3717
1286.358	3709
1288.63	3715
1290.904	3660
1293.175	3721
1295.449	3700
1297.719	3670
1299.99	3686
1302.259	3686
1304.529	3611
1306.798	3694
1309.065	3724
1311.333	3653
1313.599	3610
1315.866	3715
1318.131	3673
1320.396	3695
1322.66	3622
1324.925	3664
1327.187	3697
1329.448	3762
1331.711	3699
1333.974	3621
1336.234	3664
1338.493	3699
1340.752	3658
1343.01	3614
1345.269	3727
1347.526	3628
1349.784	3701
1352.04	3716
1354.295	3550
1356.552	3652
1358.806	3698
1361.059	3641
1363.312	3692
1365.564	3596
1367.818	3646
1370.069	3679
1372.318	3659
1374.568	3721
1376.817	3739
1379.066	3776
1381.316	3711
1383.564	3694
1385.809	3687
1388.056	3809
1390.301	3688
1392.549	3702
1394.793	3736
1397.036	3778
1399.279	3761
1401.522	3859
1403.763	3803
1406.007	3830
1408.248	3796
1410.487	3783
1412.727	3806
1414.965	3778
1417.205	3795
1419.442	3843
1421.68	3839
1423.915	3806
1426.152	3778
1428.388	3797
1430.623	3815
1432.857	3916
1435.091	3785
1437.323	3847
1439.556	3891
1441.789	3820
1444.019	3764
1446.25	3895
1448.48	3859
1450.708	3897
1452.938	3889
1455.167	3858
1457.394	3884
1459.62	3952
1461.846	3949
1464.073	3872
1466.299	3864
1468.523	3890
1470.746	3830
1472.969	3821
1475.191	3797
1477.415	3729
1479.636	3803
1481.858	3712
1484.078	3765
1486.298	3747
1488.518	3635
1490.736	3695
1492.954	3708
1495.169	3666
1497.386	3678
1499.602	3697
1501.819	3738
1504.034	3697
1506.248	3661
1508.462	3744
1510.675	3655
1512.888	3741
1515.1	3611
1517.311	3647
1519.522	3589
1521.732	3650
1523.942	3640
1526.151	3761
1528.36	3753
1530.566	3682
1532.773	3686
1534.98	3725
1537.187	3663
1539.392	3671
1541.596	3735
1543.801	3833
1546.005	3738
1548.208	3664
1550.411	3672
1552.612	3755
1554.814	3771
1557.013	3715
1559.212	3779
1561.414	3703
1563.612	3733
1565.811	3777
1568.007	3710
1570.203	3817
1572.403	3744
1574.598	3862
1576.792	3741
1578.988	3681
1581.181	3821
1583.376	3745
1585.568	3849
1587.761	3676
1589.952	3767
1592.143	3806
1594.333	3776
1596.524	3747
1598.715	3832
1600.903	3808
1603.091	3871
1605.278	3804
1607.466	3856
1609.652	3873
1611.838	3879
1614.023	3790
1616.207	3789
1618.391	3839
1620.576	3857
1622.759	3870
1624.941	3844
1627.123	3868
1629.304	3859
1631.484	3903
1633.664	3914
1635.844	3926
1638.022	3910
1640.201	3865
1642.38	3862
1644.556	3908
1646.732	3982
1648.908	3862
1651.084	3961
1653.257	3953
1655.433	3949
1657.607	3904
1659.779	3983
1661.951	3893
1664.122	3962
1666.295	3966
1668.467	4025
1670.635	3945
1672.805	3957
1674.973	3935
1677.142	3927
1679.31	3962
1681.478	3960
1683.644	3978
1685.81	3946
1687.975	3900
1690.142	3961
1692.305	3927
1694.468	3946
1696.632	3938
1698.794	3868
1700.957	3815
1703.119	3904
1705.279	3891
1707.439	3838
1709.598	3763
1711.758	3828
1713.917	3779
1716.075	3820
1718.231	3829
1720.388	3706
1722.543	3884
1724.702	3795
1726.856	3841
1729.01	3902
1731.164	3791
1733.317	3772
1735.471	3774
1737.623	3787
1739.774	3829
1741.925	3778
1744.075	3857
1746.225	3900
1748.376	3846
1750.524	3832
1752.672	3762
1754.82	3825
1756.965	3832
1759.113	3837
1761.259	3861
1763.405	3820
1765.549	3876
1767.694	3857
1769.836	3855
1771.981	3920
1774.123	3885
1776.264	3836
1778.405	3824
1780.546	3970
1782.687	3852
1784.827	3769
1786.966	3871
1789.103	3767
1791.242	3829
1793.381	3833
1795.517	3813
1797.653	3863
1799.788	3899
1801.923	3864
1804.057	3793
1806.193	3765
1808.326	3845
1810.457	3798
1812.59	3833
1814.721	3889
1816.855	3892
1818.984	3858
1821.113	3946
1823.244	3855
1825.372	3811
1827.499	3867
1829.63	3968
1831.756	3869
1833.882	3898
1836.007	3878
1838.132	3786
1840.26	3869
1842.384	3722
1844.507	3809
1846.63	3796
1848.752	3815
1850.875	3797
1852.996	3742
1855.118	3837
1857.238	3891
1859.358	3795
1861.477	3835
1863.597	3806
1865.715	3886
1867.832	3765
1869.948	3860
1872.064	3744
1874.181	3888
1876.297	3860
1878.411	3748
1880.526	3876
1882.639	3845
1884.752	3870
1886.865	3802
1888.977	3856
1891.089	3788
1893.2	3924
1895.308	3829
1897.42	3875
1899.53	3866
1901.639	3803
1903.745	3799
1905.853	3925
1907.962	3813
1910.067	3883
1912.174	3884
1914.278	3927
1916.383	3918
1918.486	3849
1920.592	3873
1922.694	3809
1924.797	3856
1926.898	3899
1929	3961
1931.102	3864
1933.203	3936
1935.301	3918
1937.401	3941
1939.499	3919
1941.598	3992
1943.697	3916
1945.793	3898
1947.888	3767
1949.985	3948
1952.08	3889
1954.176	3832
1956.269	3931
1958.364	3954
1960.457	3946
1962.549	3927
1964.642	3923
1966.733	3932
1968.823	3836
1970.913	3904
1973.005	3868
1975.093	3843
1977.184	3823
1979.271	3852
1981.359	3899
1983.446	3821
1985.532	3881
1987.619	3928
1989.705	3934
1991.789	3908
1993.874	3921
1995.956	3927
1998.041	3807
2000.123	3825
2002.206	3839
2004.287	3907
2006.368	3747
2008.449	3839
2010.529	3833
2012.609	3886
2014.688	3831
2016.766	3885
2018.843	3844
2020.922	3854
2022.999	3863
2025.074	3870
2027.15	3853
2029.225	3932
2031.299	3901
2033.375	3813
2035.447	3901
2037.52	3873
2039.592	3854
2041.664	3841
2043.736	3921
2045.807	3926
2047.876	3924
2049.947	3894
2052.015	3911
2054.086	3837
2056.153	3906
2058.221	3895
2060.288	3973
2062.353	3906
2064.42	3833
2066.486	3777
2068.55	3863
2070.614	3899
2072.678	3971
2074.741	3882
2076.805	3937
2078.866	3980
2080.929	3919
2082.99	3899
2085.049	3885
2087.109	3824
2089.17	3918
2091.228	3892
2093.286	3897
2095.344	3912
2097.4	3940
2099.46	3838
2101.516	3871
2103.572	3868
2105.626	3861
2107.679	3986
2109.735	3852
2111.788	3784
2113.841	3892
2115.894	3853
2117.945	3889
2119.997	3861
2122.049	3837
2124.1	3899
2126.148	3910
2128.197	3893
2130.246	3877
2132.296	3885
2134.342	3899
2136.39	3930
2138.437	3831
2140.483	3854
2142.527	3935
2144.574	3875
2146.619	3919
2148.661	3880
2150.705	3825
2152.747	3864
2154.792	3870
2156.832	3824
2158.874	3897
2160.915	3854
2162.954	3879
2164.995	3903
2167.034	3926
2169.072	3879
2171.111	3899
2173.148	3773
2175.186	3866
2177.223	3837
2179.258	3839
2181.294	3930
2183.328	3832
2185.362	3841
2187.398	3796
2189.431	3757
2191.463	3805
2193.495	3787
2195.528	3796
2197.56	3857
2199.59	3742
2201.62	3782
2203.649	3679
2205.678	3731
2207.708	3836
2209.737	3746
2211.764	3722
2213.791	3752
2215.817	3820
2217.843	3816
2219.87	3859
2221.895	3846
2223.919	3751
2225.942	3780
2227.966	3749
2229.988	3841
2232.012	3739
2234.032	3807
2236.054	3799
2238.074	3765
2240.095	3819
2242.116	3818
2244.135	3800
2246.153	3811
2248.171	3774
2250.188	3811
2252.208	3782
2254.223	3864
2256.239	3802
2258.255	3833
2260.269	3814
2262.283	3824
2264.3	3767
2266.312	3775
2268.325	3826
2270.336	3800
2272.349	3818
2274.362	3808
2276.372	3781
2278.383	3781
2280.392	3807
2282.402	3870
2284.409	3782
2286.418	3790
2288.427	3785
2290.433	3807
2292.441	3821
2294.446	3811
2296.453	3736
2298.459	3765
2300.463	3761
2302.466	3839
2304.471	3753
2306.475	3740
2308.477	3765
2310.478	3799
2312.481	3853
2314.481	3799
2316.481	3750
2318.482	3773
2320.482	3764
2322.48	3809
2324.48	3767
2326.478	3782
2328.476	3721
2330.473	3843
2332.469	3666
2334.465	3803
2336.46	3790
2338.454	3677
2340.45	3719
2342.444	3778
2344.437	3763
2346.43	3723
2348.421	3746
2350.414	3746
2352.405	3715
2354.396	3764
2356.386	3706
2358.376	3674
2360.366	3695
2362.355	3695
2364.343	3699
2366.331	3683
2368.317	3725
2370.304	3707
2372.292	3708
2374.278	3640
2376.262	3767
2378.247	3810
2380.23	3809
2382.216	3712
2384.199	3678
2386.181	3678
2388.163	3671
2390.144	3724
2392.127	3712
2394.107	3646
2396.087	3683
2398.066	3631
2400.046	3736
2402.023	3662
2404.004	3697
2405.981	3720
2407.957	3696
2409.934	3651
2411.91	3658
2413.886	3655
2415.862	3728
2417.836	3751
2419.809	3634
2421.784	3674
2423.756	3664
2425.73	3761
2427.701	3594
2429.672	3699
2431.644	3697
2433.615	3641
2435.586	3586
2437.555	3779
2439.523	3723
2441.491	3649
2443.459	3730
2445.428	3655
2447.395	3594
2449.361	3686
2451.327	3731
2453.292	3603
2455.257	3645
2457.223	3685
2459.187	3675
2461.15	3699
2463.113	3663
2465.076	3673
2467.039	3769
2468.999	3611
2470.96	3696
2472.921	3641
2474.881	3609
2476.841	3695
2478.8	3721
2480.759	3673
2482.717	3593
2484.675	3678
2486.63	3698
2488.589	3690
2490.545	3683
2492.5	3618
2494.455	3643
2496.408	3587
2498.364	3699
2500.318	3653
2502.27	3675
2504.223	3627
2506.174	3627
2508.126	3560
2510.078	3639
2512.03	3647
2513.979	3640
2515.927	3601
2517.877	3673
2519.826	3600
2521.775	3598
2523.722	3629
2525.668	3597
2527.616	3676
2529.561	3644
2531.508	3612
2533.452	3635
2535.398	3653
2537.342	3722
2539.284	3638
2541.229	3598
2543.173	3680
2545.114	3638
2547.055	3584
2548.996	3549
2550.938	3507
2552.878	3682
2554.817	3587
2556.756	3586
2558.695	3584
2560.633	3543
2562.572	3610
2564.509	3626
2566.445	3633
2568.382	3692
2570.317	3654
2572.254	3641
2574.189	3626
2576.123	3664
2578.057	3559
2579.99	3640
2581.923	3638
2583.855	3593
2585.788	3615
2587.719	3679
2589.65	3622
2591.579	3628
2593.511	3720
2595.44	3614
2597.37	3653
2599.297	3627
2601.225	3610
2603.153	3538
2605.08	3660
2607.007	3564
2608.932	3654
2610.858	3568
2612.782	3577
2614.709	3667
2616.632	3685
2618.556	3586
2620.478	3599
2622.401	3629
2624.324	3610
2626.247	3645
2628.167	3655
2630.088	3654
2632.008	3640
2633.928	3594
2635.848	3710
2637.766	3558
2639.684	3711
2641.603	3636
2643.519	3532
2645.437	3633
2647.353	3583
2649.27	3606
2651.184	3588
2653.099	3664
2655.014	3608
2656.928	3688
2658.842	3725
2660.755	3522
2662.667	3675
2664.579	3590
2666.491	3543
2668.402	3586
2670.312	3607
2672.222	3594
2674.132	3591
2676.042	3579
2677.951	3556
2679.859	3603
2681.766	3634
2683.674	3520
2685.582	3606
2687.488	3577
2689.392	3642
2691.298	3552
2693.202	3617
2695.107	3644
2697.012	3769
2698.914	3569
2700.817	3620
2702.72	3558
2704.622	3492
2706.524	3647
2708.425	3552
2710.326	3593
2712.225	3590
2714.125	3544
2716.024	3501
2717.923	3542
2719.822	3551
2721.719	3571
2723.616	3567
2725.512	3498
2727.41	3517
2729.305	3567
2731.201	3536
2733.095	3571
2734.99	3561
2736.884	3609
2738.778	3569
2740.67	3525
2742.562	3579
2744.455	3552
2746.346	3633
2748.238	3547
2750.129	3621
2752.018	3561
2753.907	3519
2755.797	3489
2757.687	3398
2759.575	3514
2761.462	3510
2763.349	3587
2765.237	3604
2767.124	3585
2769.009	3509
2770.894	3545
2772.779	3595
2774.663	3588
2776.547	3508
2778.431	3515
2780.314	3523
2782.197	3471
2784.078	3522
2785.96	3540
2787.842	3531
2789.723	3526
2791.603	3498
2793.483	3559
2795.362	3519
2797.241	3585
2799.121	3533
2800.997	3471
2802.874	3557
2804.751	3528
2806.628	3605
2808.506	3535
2810.38	3492
2812.255	3531
2814.13	3569
2816.003	3500
2817.878	3445
2819.752	3474
2821.623	3581
2823.496	3570
2825.368	3466
2827.238	3559
2829.111	3589
2830.98	3529
2832.851	3558
2834.719	3411
2836.589	3503
2838.458	3507
2840.327	3513
2842.193	3532
2844.061	3509
2845.927	3538
2847.794	3502
2849.66	3529
2851.525	3547
2853.39	3541
2855.254	3560
2857.117	3606
2858.983	3716
2860.845	3594
2862.707	3609
2864.569	3671
2866.431	3586
2868.293	3618
2870.154	3630
2872.013	3681
2873.873	3791
2875.733	3721
2877.592	3760
2879.451	3785
2881.309	3845
2883.166	3938
2885.022	3888
2886.879	3889
2888.736	3872
2890.591	3953
2892.446	3951
2894.301	3958
2896.155	3869
2898.009	3950
2899.863	3909
2901.716	3927
2903.568	3998
2905.419	3836
2907.27	3898
2909.123	3983
2910.973	3980
2912.824	3911
2914.673	3979
2916.521	4038
2918.372	4062
2920.22	4026
2922.067	4061
2923.914	4200
2925.761	4167
2927.607	4161
2929.455	4145
2931.301	4304
2933.144	4243
2934.99	4347
2936.833	4333
2938.678	4362
2940.522	4377
2942.364	4529
2944.207	4504
2946.048	4594
2947.891	4586
2949.731	4526
2951.571	4575
2953.412	4552
2955.25	4454
2957.09	4458
2958.93	4339
2960.767	4349
2962.606	4312
2964.443	4252
2966.279	4281
2968.116	4167
2969.953	4116
2971.788	4167
2973.623	4119
2975.457	3997
2977.292	4212
2979.127	4038
2980.959	3968
2982.792	4005
2984.624	4070
2986.455	3912
2988.288	3957
2990.119	3974
2991.949	3902
2993.779	3876
2995.608	3894
2997.439	3850
2999.268	3807
3001.096	3811
3002.923	3774
3004.751	3759
3006.578	3639
3008.406	3665
3010.232	3631
3012.057	3581
3013.883	3589
3015.706	3549
3017.532	3582
3019.356	3600
3021.179	3541
3023.002	3542
3024.823	3521
3026.646	3478
3028.469	3488
3030.289	3469
3032.11	3471
3033.93	3388
3035.749	3392
3037.57	3369
3039.39	3407
3041.207	3416
3043.026	3454
3044.842	3292
3046.661	3302
3048.477	3353
3050.294	3334
3052.109	3408
3053.925	3328
3055.739	3413
3057.555	3457
3059.368	3411
3061.181	3490
3062.995	3355
3064.807	3365
3066.62	3395
3068.433	3383
3070.243	3377
3072.054	3377
3073.865	3339
3075.675	3414
3077.485	3463
3079.293	3337
3081.102	3382
3082.911	3382
3084.719	3370
3086.527	3289
3088.333	3302
3090.139	3422
3091.945	3305
3093.75	3359
3095.557	3325
3097.361	3333
3099.165	3309
3100.969	3292
3102.772	3306
3104.575	3247
3106.379	3285
3108.181	3224
3109.982	3272
3111.783	3257
3113.584	3275
3115.386	3298
3117.186	3289
3118.985	3293
3120.783	3262
3122.582	3223
3124.381	3273
3126.179	3275
3127.975	3253
3129.772	3253
3131.569	3270
3133.365	3230
3135.161	3278
3136.956	3203
3138.751	3202
3140.544	3220
3142.338	3197
3144.132	3219
3145.925	3224
3147.717	3177
3149.509	3272
3151.301	3181
3153.091	3201
3154.884	3153
3156.673	3235
3158.462	3240
3160.252	3216
3162.041	3184
3163.831	3284
3165.618	3203
3167.405	3183
3169.193	3229
3170.979	3159
3172.767	3250
3174.553	3194
3176.338	3256
3178.123	3151
3179.907	3187
3181.692	3215
3183.477	3194
3185.259	3241
3187.042	3161
3188.824	3158
3190.607	3216
3192.389	3162
3194.17	3220
3195.951	3181
3197.73	3172
3199.51	3210
3201.289	3196
3203.07	3269
3204.848	3174
3206.626	3186
3208.403	3149
3210.18	3216
3211.959	3206
3213.735	3221
3215.511	3167
3217.285	3232
3219.06	3116
3220.836	3198
3222.611	3283
3224.384	3284
3226.158	3204
3227.929	3192
3229.702	3277
3231.476	3272
3233.248	3155
3235.018	3185
3236.789	3237
3238.56	3175
3240.33	3128
3242.1	3211
3243.869	3180
3245.637	3158
3247.405	3200
3249.172	3129
3250.941	3200
3252.707	3241
3254.474	3286
3256.24	3217
3258.006	3206
3259.772	3279
3261.537	3160
3263.301	3166
3265.065	3263
3266.828	3167
3268.592	3180
3270.355	3179
3272.117	3167
3273.878	3242
3275.64	3142
3277.401	3217
3279.162	3200
3280.922	3194
3282.682	3143
3284.441	3181
3286.199	3205
3287.959	3181
3289.716	3293
3291.475	3214
3293.232	3249
3294.988	3254
3296.744	3187
3298.501	3211
3300.256	3221
3302.011	3164
3303.766	3176
3305.52	3229
3307.275	3212
3309.028	3189
3310.781	3252
3312.533	3223
3314.285	3178
3316.038	3155
3317.789	3232
3319.54	3178
3321.289	3220
3323.039	3259
3324.789	3145
3326.539	3180
3328.288	3211
3330.035	3240
3331.783	3220
3333.531	3173
3335.28	3178
3337.025	3142
3338.771	3224
3340.518	3159
3342.262	3197
3344.009	3236
3345.753	3273
3347.497	3135
3349.24	3121
3350.983	3145
3352.726	3135
3354.469	3197
3356.212	3139
3357.952	3107
3359.694	3145
3361.434	3117
3363.176	3163
3364.916	3147
3366.654	3154
3368.394	3095
3370.132	3191
3371.871	3128
3373.61	3162
3375.346	3146
3377.083	3151
3378.82	3164
3380.556	3059
3382.292	3114
3384.027	3102
3385.763	3159
3387.497	3168
3389.231	3075
3390.965	3117
3392.698	3095
3394.431	3011
3396.164	3102
3397.896	2999
3399.627	3111
3401.36	3154
3403.09	3128
3404.82	3044
3406.55	3082
3408.279	3116
3410.01	3087
3411.738	3030
3413.467	3043
3415.194	3045
3416.92	3061
3418.647	3046
3420.375	3088
3422.102	3076
3423.827	3078
3425.553	3078
3427.277	3016
3429.003	3055
3430.727	3069
3432.451	3068
3434.173	3090
3435.896	3070
3437.62	3055
3439.343	3038
3441.063	3079
3442.785	3063
3444.505	2966
3446.226	2988
3447.948	3025
3449.666	2963
3451.386	3021
3453.104	2897
3454.823	2948
3456.541	3004
3458.259	2975
3459.976	2917
3461.693	2913
3463.408	2896
3465.125	2946
3466.841	2995
3468.556	2920
3470.271	2861
3471.985	2989
3473.698	3000
3475.414	3000
3477.126	2955
3478.838	2896
3480.55	2961
3482.263	2916
3483.975	2886
3485.686	2925
3487.396	2888
3489.106	2888
3490.817	2950
3492.526	2861
3494.236	2879
3495.944	2926
3497.652	2969
3499.359	2879
3501.066	2853
3502.775	2987
3504.481	2859
3506.187	2853
3507.893	2897
3509.598	2928
3511.304	2862
3513.009	2864
3514.713	2875
3516.417	2817
3518.12	2908
3519.821	2803
3521.525	2860
3523.228	2847
3524.929	2781
3526.631	2809
3528.33	2865
3530.032	2845
3531.733	2849
3533.433	2772
3535.131	2883
3536.83	2759
3538.529	2772
3540.227	2742
3541.925	2824
3543.623	2832
3545.319	2829
3547.016	2834
3548.712	2807
3550.408	2760
3552.103	2796
3553.798	2825
3555.491	2755
3557.188	2745
3558.88	2816
3560.574	2731
3562.266	2758
3563.959	2772
3565.651	2766
3567.343	2751
3569.035	2786
3570.725	2776
3572.415	2761
3574.106	2761
3575.797	2761
3577.485	2703
3579.174	2705
3580.863	2716
3582.551	2694
3584.238	2764
3585.926	2690
3587.613	2726
3589.3	2672
3590.986	2745
3592.671	2652
3594.357	2694
3596.042	2686
3597.726	2606
3599.41	2689
3601.094	2651
3602.778	2714
3604.461	2685
3606.143	2695
3607.825	2634
3609.507	2683
3611.188	2720
3612.87	2555
3614.551	2602
3616.229	2603
3617.909	2615
3619.589	2695
3621.269	2648
3622.948	2639
3624.625	2639
3626.302	2588
3627.98	2601
3629.657	2614
3631.334	2581
3633.01	2595
3634.686	2590
3636.361	2591
3638.036	2514
3639.712	2624
3641.385	2603
3643.06	2528
3644.732	2630
3646.405	2596
3648.08	2514
3649.751	2605
3651.424	2497
3653.094	2627
3654.766	2516
3656.436	2512
3658.106	2524
3659.777	2597
3661.446	2546
3663.115	2489
3664.783	2508
3666.452	2536
3668.121	2517
3669.788	2546
3671.454	2530
3673.121	2529
3674.789	2548
3676.455	2494
3678.12	2495
3679.784	2496
3681.45	2561
3683.114	2545
3684.779	2527
3686.442	2541
3688.105	2409
3689.768	2532
3691.43	2545
3693.093	2471
3694.754	2493
3696.415	2451
3698.076	2517
3699.736	2489
3701.396	2464
3703.057	2441
3704.716	2491
3706.375	2575
3708.034	2463
3709.692	2511
3711.351	2447
3713.008	2475
3714.665	2469
3716.321	2507
3717.977	2500
3719.634	2429
3721.29	2459
3722.945	2404
3724.598	2425
3726.253	2491
3727.907	2453
3729.561	2450
3731.214	2464
3732.867	2437
3734.518	2405
3736.171	2406
3737.824	2443
3739.474	2421
3741.125	2475
3742.775	2455
3744.425	2477
3746.074	2469
3747.725	2440
3749.373	2408
3751.022	2413
3752.669	2492
3754.318	2446
3755.966	2422
3757.612	2453
3759.259	2414
3760.905	2418
3762.55	2411
3764.197	2387
3765.842	2404
3767.486	2457
3769.131	2428
3770.774	2405
3772.417	2430
3774.061	2406
3775.705	2369
3777.347	2370
3778.988	2424
3780.629	2403
3782.271	2371
3783.912	2428
3785.552	2371
3787.192	2415
3788.831	2404
3790.472	2376
3792.112	2433
3793.75	2357
3795.388	2397
3797.024	2292
3798.661	2382
3800.3	2357
3801.936	2398
3803.572	2305
3805.208	2270
3806.844	2325
3808.48	2349
3810.115	2314
3811.748	2377
3813.382	2374
3815.016	2353
3816.649	2313
3818.283	2337
3819.914	2359
3821.547	2337
3823.178	2394
3824.809	2324
3826.441	2362
3828.072	2297
3829.701	2320
3831.331	2346
3832.96	2328
3834.591	2340
3836.219	2309
3837.847	2214
3839.475	2304
3841.102	2297
3842.729	2282
3844.357	2370
3845.984	2282
3847.609	2287
3849.234	2267
3850.86	2326
3852.485	2270
3854.11	2292
3855.734	2255
3857.357	2271
3858.981	2397
3860.603	2258
3862.227	2257
3863.848	2265
3865.471	2315
3867.092	2266
3868.713	2256
3870.334	2261
3871.954	2235
3873.575	2319
3875.194	2314
3876.813	2216
3878.433	2248
3880.051	2230
3881.669	2238
3883.286	2282
3884.904	2252
3886.52	2239
3888.138	2241
3889.754	2228
3891.37	2325
3892.985	2216
3894.6	2252
3896.216	2229
3897.831	2291
3899.444	2253
3901.058	2237
3902.67	2240
3904.283	2248
3905.897	2196
3907.509	2223
3909.121	2260
3910.731	2213
3912.342	2261
3913.954	2205
3915.563	2240
3917.174	2308
3918.783	2204
3920.391	2261
3922.002	2205
3923.611	2273
3925.218	2269
3926.826	2273
3928.432	2243
3930.039	2185
3931.647	2197
3933.253	2263
3934.859	2204
3936.464	2184
3938.068	2243
3939.675	2238
3941.278	2249
3942.883	2236
3944.486	2267
3946.089	2198
3947.692	2254
3949.295	2221
3950.898	2191
3952.499	2207
3954.1	2227
3955.7	2174
3957.303	2164
3958.903	2150
3960.502	2186
3962.101	2206
3963.7	2223
3965.301	2107
3966.899	2165
3968.497	2214
3970.094	2196
3971.691	2218
3973.288	2172
3974.885	2195
3976.481	2121
3978.077	2199
3979.672	2154
3981.267	2175
3982.863	2164
3984.457	2152
3986.051	2110
3987.645	2128
3989.238	2183
3990.831	2145
3992.425	2157
3994.017	2132
3995.607	2202
3997.199	2146
3998.79	2137
4000.382	2110
4001.973	2130
4003.561	2126
4005.151	2079
4006.741	2160
4008.331	2127
4009.918	2101
4011.507	2090
4013.095	2104
4014.681	2118
4016.269	2135
4017.856	2103
4019.443	2159
4021.028	2137
4022.614	2090
4024.199	2075
4025.785	2117
4027.37	2040
4028.953	2121
4030.536	2077
4032.12	2068
4033.704	2080
4035.287	2074
4036.869	2089
4038.45	2059
4040.032	2096
4041.613	2051
4043.195	2066
4044.776	2084
4046.356	2009
4047.935	2024
4049.515	2093
4051.095	2089
4052.674	2025
4054.251	2038
4055.829	2038
4057.406	2103
4058.985	2067
4060.562	2001
4062.139	2105
4063.715	2039
4065.29	2034
4066.865	2068
4068.442	2110
4070.016	2062
4071.59	2009
4073.164	2082
4074.738	2033
4076.312	2050
4077.885	2098
4079.458	2010
4081.03	1999
4082.602	2055
4084.173	2036
4085.745	2026
4087.315	2032
4088.886	1995
4090.456	2019
4092.026	1993
4093.596	2014
4095.165	2032
4096.734	2019
4098.301	1989
4099.869	2049
4101.437	1985
4103.006	2043
4104.572	1991
4106.139	1984
4107.704	1982
4109.27	2030
4110.837	2077
4112.401	1963
4113.966	2016
4115.53	2099
4117.094	1987
4118.659	2045
4120.223	1985
4121.785	1950
4123.347	1993
4124.909	2006
4126.471	1959
4128.034	1960
4129.595	1938
4131.155	1951
4132.716	1982
4134.275	2055
4135.836	1996
4137.395	1935
4138.955	1990
4140.513	1976
4142.071	1943
4143.628	1978
4145.188	1967
4146.745	1984
4148.302	1972
4149.858	1880
4151.414	2005
4152.971	1988
4154.526	1930
4156.081	1926
4157.635	1937
4159.189	1893
4160.745	1962
4162.298	1900
4163.852	1898
4165.405	1939
4166.957	1903
4168.51	1902
4170.063	1925
4171.614	1902
4173.166	1940
4174.717	1899
4176.267	1887
4177.817	1914
4179.368	1876
4180.917	1911
4182.466	1853
4184.016	1950
4185.564	1935
4187.112	1937
4188.66	1893
4190.207	1889
4191.754	1877
4193.301	1893
4194.848	1918
4196.394	1874
4197.94	1888
4199.484	1857
4201.03	1841
4202.575	1851
4204.12	1871
4205.663	1939
4207.207	1863
4208.75	1805
4210.292	1834
4211.836	1851
4213.378	1882
4214.92	1877
4216.46	1892
4218.002	1868
4219.544	1864
4221.083	1881
4222.625	1902
4224.164	1858
4225.703	1862
4227.244	1904
4228.782	1845
4230.32	1842
4231.857	1874
4233.395	1810
4234.933	1833
4236.471	1854
4238.007	1834
4239.542	1896
4241.078	1905
4242.614	1892
4244.15	1814
4245.685	1851
4247.219	1859
4248.753	1884
4250.287	1873
4251.82	1833
4253.354	1780
4254.887	1859
4256.419	1858
4257.951	1825
4259.483	1854
4261.016	1833
4262.547	1826
4264.078	1812
4265.608	1814
4267.137	1784
4268.668	1804
4270.197	1843
4271.727	1789
4273.254	1863
4274.783	1865
4276.311	1841
4277.84	1811
4279.366	1841
4280.894	1836
4282.42	1845
4283.946	1779
4285.473	1815
4286.998	1853
4288.523	1805
4290.047	1754
4291.572	1835
4293.096	1844
4294.622	1797
4296.144	1792
4297.668	1799
4299.19	1794
4300.713	1828
4302.236	1755
4303.758	1782
4305.279	1801
4306.799	1763
4308.321	1771
4309.842	1766
4311.361	1768
4312.882	1829
4314.401	1793
