400.0961	4058
402.6185	4114
405.1424	4183
407.6635	4151
410.1838	4127
412.7035	4069
415.2225	4184
417.7388	4171
420.2585	4221
422.7754	4313
425.2917	4331
427.8072	4337
430.3221	4343
432.8363	4347
435.3498	4348
437.8626	4391
440.3727	4400
442.8841	4361
445.3969	4457
447.907	4394
450.4142	4449
452.9229	4400
455.4289	4397
457.9362	4453
460.4449	4454
462.9488	4402
465.454	4337
467.9566	4340
470.4604	4392
472.9637	4379
475.4662	4417
477.966	4345
480.4671	4394
482.9656	4367
485.4633	4356
487.9645	4472
490.4608	4479
492.9566	4416
495.4536	4396
497.948	4397
500.4437	4460
502.9387	4532
505.431	4539
507.9226	4566
510.4136	4561
512.9079	4476
515.3975	4592
517.8864	4475
520.3746	4427
522.8622	4542
525.3491	4499
527.8394	4617
530.3249	4473
532.8098	4510
535.2939	4544
537.7774	4503
540.2623	4500
542.7444	4558
545.2259	4565
547.7067	4491
550.1868	4538
552.6683	4569
555.147	4468
557.6231	4565
560.1005	4588
562.5773	4643
565.0534	4572
567.5308	4572
570.0056	4748
572.4776	4618
574.951	4720
577.4237	4742
579.8978	4681
582.3671	4772
584.8378	4762
587.3079	4775
589.7773	4738
592.244	4778
594.714	4726
597.1793	4836
599.6461	4826
602.1121	4567
604.5754	4768
607.0421	4685
609.5042	4666
611.9675	4718
614.4282	4762
616.8902	4692
619.3515	4708
621.8122	4714
624.2702	4700
626.7296	4629
629.1863	4675
631.6423	4671
634.1017	4635
636.5563	4623
639.0104	4681
641.4658	4630
643.9185	4713
646.3725	4702
648.8239	4649
651.2766	4726
653.7266	4745
656.176	4686
658.6247	4743
661.0748	4730
663.5242	4750
665.9709	4763
668.417	4840
670.8624	4812
673.3092	4859
675.7533	4773
678.1968	4723
680.6395	4842
683.0817	4825
685.5251	4896
687.9659	4757
690.4061	4809
692.8456	4931
695.2844	4870
697.7226	4844
700.1621	4865
702.599	4806
705.0332	4849
707.4688	4842
709.9036	4964
712.3399	4888
714.7735	4938
717.2044	4913
719.6367	5067
722.0683	4832
724.4993	4932
726.9296	5057
729.3593	4992
731.7883	4894
734.2147	4963
736.6423	4995
739.0714	4996
741.4958	5050
743.9216	5035
746.3447	5051
748.7691	5054
751.1929	5040
753.616	5143
756.0366	5115
758.4584	5201
760.8776	5127
763.2982	5098
765.718	5182
768.1373	5243
770.5539	5105
772.9698	5129
775.3871	5155
777.8038	5058
780.2178	5189
782.6332	5201
785.0459	5090
787.458	5158
789.8714	5211
792.2842	5294
794.6943	5308
797.1038	5167
799.5127	5180
801.9209	5241
804.3324	5319
806.7393	5157
809.1456	5274
811.5513	5327
813.9562	5233
816.3625	5286
818.7663	5305
821.1693	5225
823.5718	5261
825.9735	5243
828.3746	5288
830.7771	5252
833.177	5248
835.5762	5301
837.9747	5421
840.3727	5267
842.772	5362
845.1666	5373
847.5626	5221
849.958	5300
852.3527	5417
854.7488	5405
857.1403	5323
859.5331	5491
861.9253	5377
864.3168	5379
866.7057	5381
869.098	5380
871.4876	5408
873.8746	5372
876.263	5461
878.6487	5289
881.0378	5327
883.4243	5371
885.8081	5421
888.1933	5342
890.5759	5296
892.9598	5342
895.343	5323
897.7256	5318
900.1057	5284
902.4871	5313
904.8659	5489
907.246	5452
909.6254	5509
912.0023	5358
914.3786	5498
916.7562	5613
919.1331	5476
921.5074	5609
923.8831	5627
926.2562	5640
928.6287	5720
931.0005	5644
933.3757	5644
935.7462	5613
938.1162	5598
940.4855	5730
942.8542	5849
945.2242	5767
947.5916	5879
949.9584	6019
952.3266	6229
954.6921	6414
957.0571	6624
959.4233	6835
961.787	6929
964.15	6884
966.5125	6784
968.8742	6564
971.2354	6284
973.5959	6048
975.9559	5958
978.3151	5765
980.6738	5637
983.0338	5678
985.3912	5595
987.7461	5489
990.1022	5594
992.4578	5534
994.8127	5587
997.1689	5525
999.5207	5527
1001.874	5613
1004.226	5523
1006.576	5595
1008.929	5594
1011.28	5651
1013.628	5622
1015.977	5658
1018.324	5607
1020.674	5692
1023.019	5577
1025.366	5728
1027.713	5596
1030.056	5602
1032.399	5574
1034.746	5704
1037.087	5734
1039.431	5786
1041.771	5659
1044.113	5596
1046.454	5715
1048.793	5712
1051.133	5704
1053.471	5732
1055.807	5702
1058.146	5763
1060.483	5752
1062.818	5759
1065.153	5821
1067.489	5831
1069.822	5772
1072.156	5898
1074.488	5745
1076.82	5792
1079.15	5813
1081.48	5797
1083.814	5688
1086.143	5715
1088.471	5872
1090.799	5778
1093.126	5700
1095.452	5681
1097.78	5674
1100.105	5698
1102.43	5677
1104.754	5751
1107.077	5759
1109.4	5791
1111.722	5769
1114.044	5765
1116.365	5819
1118.685	5796
1121.005	5734
1123.324	5792
1125.643	5797
1127.961	5706
1130.278	5861
1132.595	5744
1134.911	5655
1137.226	5729
1139.541	5669
1141.854	5728
1144.167	5751
1146.482	5693
1148.793	5757
1151.105	5717
1153.414	5767
1155.725	5855
1158.033	5736
1160.344	5756
1162.651	5698
1164.959	5860
1167.265	5753
1169.572	5861
1171.878	5751
1174.184	5657
1176.488	5755
1178.79	5704
1181.094	5764
1183.396	5695
1185.699	5728
1188.001	5779
1190.301	5851
1192.6	5692
1194.9	5800
1197.2	5655
1199.497	5842
1201.794	5779
1204.09	5695
1206.387	5652
1208.684	5790
1210.978	5675
1213.272	5770
1215.565	5715
1217.858	5739
1220.15	5942
1222.443	5848
1224.734	5700
1227.024	5800
1229.313	5872
1231.602	5892
1233.892	5828
1236.18	5959
1238.467	5945
1240.754	5912
1243.04	5941
1245.325	6074
1247.612	6040
1249.896	5991
1252.178	6079
1254.461	6017
1256.743	5892
1259.027	6052
1261.308	6013
1263.587	6001
1265.867	5995
1268.146	5954
1270.425	6005
1272.703	6023
1274.981	6018
1277.256	6067
1279.532	5941
1281.808	5939
1284.083	6024
1286.358	5882
1288.63	5929
1290.904	5917
1293.175	5915
1295.449	6001
1297.719	5863
1299.99	5965
1302.259	5892
1304.529	5837
1306.798	5992
1309.065	5867
1311.333	5932
1313.599	5880
1315.866	5967
1318.131	5988
1320.396	5842
1322.66	5894
1324.925	5923
1327.187	5902
1329.448	5872
1331.711	5967
1333.974	5985
1336.234	5970
1338.493	5932
1340.752	5865
1343.01	5915
1345.269	5953
1347.526	5944
1349.784	5895
1352.04	5782
1354.295	5853
1356.552	5931
1358.806	5916
1361.059	5888
1363.312	5984
1365.564	5857
1367.818	5907
1370.069	5923
1372.318	5960
1374.568	5999
1376.817	6130
1379.066	5947
1381.316	5961
1383.564	6069
1385.809	5958
1388.056	6014
1390.301	5999
1392.549	6020
1394.793	6122
1397.036	6124
1399.279	6048
1401.522	6072
1403.763	6223
1406.007	5938
1408.248	6164
1410.487	6151
1412.727	6028
1414.965	6047
1417.205	5976
1419.442	6051
1421.68	6079
1423.915	6264
1426.152	6131
1428.388	6143
1430.623	6151
1432.857	6077
1435.091	6186
1437.323	6288
1439.556	6150
1441.789	6343
1444.019	6280
1446.25	6253
1448.48	6206
1450.708	6289
1452.938	6307
1455.167	6301
1457.394	6296
1459.62	6295
1461.846	6261
1464.073	6302
1466.299	6235
1468.523	6117
1470.746	6257
1472.969	6115
1475.191	6130
1477.415	6026
1479.636	6044
1481.858	5953
1484.078	6090
1486.298	5952
1488.518	6060
1490.736	5994
1492.954	5876
1495.169	5866
1497.386	5883
1499.602	6007
1501.819	5992
1504.034	5798
1506.248	6070
1508.462	5958
1510.675	5938
1512.888	6001
1515.1	5942
1517.311	5922
1519.522	5891
1521.732	5829
1523.942	6005
1526.151	6029
1528.36	5951
1530.566	5940
1532.773	5917
1534.98	5939
1537.187	5977
1539.392	5973
1541.596	5948
1543.801	5948
1546.005	6019
1548.208	5994
1550.411	6084
1552.612	5914
1554.814	5997
1557.013	5967
1559.212	6069
1561.414	6058
1563.612	6006
1565.811	5999
1568.007	6062
1570.203	6223
1572.403	6015
1574.598	6100
1576.792	6063
1578.988	6139
1581.181	6061
1583.376	6074
1585.568	6150
1587.761	6309
1589.952	6167
1592.143	6042
1594.333	6113
1596.524	6133
1598.715	6092
1600.903	6159
1603.091	6161
1605.278	6133
1607.466	6188
1609.652	6172
1611.838	6149
1614.023	6100
1616.207	6192
1618.391	6098
1620.576	6211
1622.759	6224
1624.941	6203
1627.123	6194
1629.304	6235
1631.484	6266
1633.664	6356
1635.844	6213
1638.022	6264
1640.201	6328
1642.38	6277
1644.556	6401
1646.732	6178
1648.908	6266
1651.084	6177
1653.257	6216
1655.433	6436
1657.607	6294
1659.779	6312
1661.951	6346
1664.122	6371
1666.295	6316
1668.467	6375
1670.635	6224
1672.805	6307
1674.973	6360
1677.142	6297
1679.31	6474
1681.478	6299
1683.644	6237
1685.81	6335
1687.975	6298
1690.142	6322
1692.305	6282
1694.468	6348
1696.632	6271
1698.794	6348
1700.957	6203
1703.119	6177
1705.279	6197
1707.439	6147
1709.598	6323
1711.758	6211
1713.917	6177
1716.075	6127
1718.231	6063
1720.388	6200
1722.543	6070
1724.702	6230
1726.856	6231
1729.01	6116
1731.164	6158
1733.317	6127
1735.471	6164
1737.623	6112
1739.774	6163
1741.925	6159
1744.075	6106
1746.225	6234
1748.376	6068
1750.524	6196
1752.672	6209
1754.82	6160
1756.965	6170
1759.113	6094
1761.259	6179
1763.405	6214
1765.549	6237
1767.694	6255
1769.836	6206
1771.981	6266
1774.123	6206
1776.264	6304
1778.405	6121
1780.546	6205
1782.687	6235
1784.827	6105
1786.966	6200
1789.103	6336
1791.242	6310
1793.381	6249
1795.517	6132
1797.653	6354
1799.788	6194
1801.923	6345
1804.057	6202
1806.193	6223
1808.326	6163
1810.457	6205
1812.59	6283
1814.721	6242
1816.855	6092
1818.984	6192
1821.113	6113
1823.244	6072
1825.372	6145
1827.499	6124
1829.63	6189
1831.756	6166
1833.882	6203
1836.007	6276
1838.132	6159
1840.26	6217
1842.384	6233
1844.507	6201
1846.63	6083
1848.752	6229
1850.875	6147
1852.996	6166
1855.118	6154
1857.238	6166
1859.358	6166
1861.477	6143
1863.597	6309
1865.715	6180
1867.832	6202
1869.948	6214
1872.064	6243
1874.181	6147
1876.297	6101
1878.411	6078
1880.526	6154
1882.639	6182
1884.752	6106
1886.865	6229
1888.977	6196
1891.089	6176
1893.2	6228
1895.308	6245
1897.42	6229
1899.53	6271
1901.639	6141
1903.745	6123
1905.853	6355
1907.962	6285
1910.067	6214
1912.174	6225
1914.278	6167
1916.383	6221
1918.486	6238
1920.592	6223
1922.694	6335
1924.797	6225
1926.898	6153
1929	6318
1931.102	6311
1933.203	6366
1935.301	6265
1937.401	6220
1939.499	6257
1941.598	6329
1943.697	6220
1945.793	6284
1947.888	6274
1949.985	6235
1952.08	6291
1954.176	6233
1956.269	6319
1958.364	6321
1960.457	6282
1962.549	6234
1964.642	6240
1966.733	6285
1968.823	6299
1970.913	6206
1973.005	6242
1975.093	6242
1977.184	6233
1979.271	6275
1981.359	6214
1983.446	6249
1985.532	6199
1987.619	6194
1989.705	6151
1991.789	6163
1993.874	6246
1995.956	6294
1998.041	6207
2000.123	6254
2002.206	6267
2004.287	6273
2006.368	6112
2008.449	6260
2010.529	6232
2012.609	6171
2014.688	6179
2016.766	6162
2018.843	6206
2020.922	6036
2022.999	6222
2025.074	6171
2027.15	6229
2029.225	6234
2031.299	6199
2033.375	6115
2035.447	6355
2037.52	6229
2039.592	6209
2041.664	6166
2043.736	6195
2045.807	6153
2047.876	6233
2049.947	6220
2052.015	6171
2054.086	6249
2056.153	6215
2058.221	6130
2060.288	6208
2062.353	6152
2064.42	6296
2066.486	6169
2068.55	6272
2070.614	6152
2072.678	6247
2074.741	6248
2076.805	6275
2078.866	6192
2080.929	6177
2082.99	6262
2085.049	6206
2087.109	6204
2089.17	6270
2091.228	6269
2093.286	6220
2095.344	6134
2097.4	6171
2099.46	6188
2101.516	6180
2103.572	6185
2105.626	6249
2107.679	6249
2109.735	6215
2111.788	6142
2113.841	6170
2115.894	6083
2117.945	6242
2119.997	6193
2122.049	6234
2124.1	6181
2126.148	6226
2128.197	6194
2130.246	6122
2132.296	6140
2134.342	6230
2136.39	6215
2138.437	6180
2140.483	6169
2142.527	6219
2144.574	6139
2146.619	6176
2148.661	6173
2150.705	6250
2152.747	6147
2154.792	6227
2156.832	6061
2158.874	6192
2160.915	6188
2162.954	6176
2164.995	6112
2167.034	6181
2169.072	6214
2171.111	6070
2173.148	6229
2175.186	6187
2177.223	6157
2179.258	5996
2181.294	6114
2183.328	6054
2185.362	6120
2187.398	6066
2189.431	6032
2191.463	6170
2193.495	6067
2195.528	6008
2197.56	6046
2199.59	6103
2201.62	6030
2203.649	6102
2205.678	6047
2207.708	6046
2209.737	6074
2211.764	6164
2213.791	5987
2215.817	5964
2217.843	6022
2219.87	5996
2221.895	6015
2223.919	6033
2225.942	6096
2227.966	6000
2229.988	5991
2232.012	5948
2234.032	5929
2236.054	5983
2238.074	6008
2240.095	6026
2242.116	6046
2244.135	6120
2246.153	5917
2248.171	5966
2250.188	6046
2252.208	6086
2254.223	5968
2256.239	6064
2258.255	6028
2260.269	6006
2262.283	6051
2264.3	6057
2266.312	6028
2268.325	5982
2270.336	6139
2272.349	5992
2274.362	6079
2276.372	5993
2278.383	5904
2280.392	6039
2282.402	6038
2284.409	6118
2286.418	6029
2288.427	6052
2290.433	6024
2292.441	6067
2294.446	5986
2296.453	6004
2298.459	6000
2300.463	6056
2302.466	6001
2304.471	5948
2306.475	6019
2308.477	6051
2310.478	6054
2312.481	6024
2314.481	5937
2316.481	5985
2318.482	5892
2320.482	6082
2322.48	5885
2324.48	5968
2326.478	5884
2328.476	5962
2330.473	6052
2332.469	5912
2334.465	5899
2336.46	5994
2338.454	6014
2340.45	6046
2342.444	5825
2344.437	5945
2346.43	5950
2348.421	5936
2350.414	5875
2352.405	5898
2354.396	5861
2356.386	5904
2358.376	5852
2360.366	5907
2362.355	5945
2364.343	5877
2366.331	5912
2368.317	5773
2370.304	5875
2372.292	5893
2374.278	5884
2376.262	5902
2378.247	5886
2380.23	5883
2382.216	5811
2384.199	5894
2386.181	5881
2388.163	5853
2390.144	5768
2392.127	5826
2394.107	5875
2396.087	5841
2398.066	5872
2400.046	5889
2402.023	5826
2404.004	5707
2405.981	5909
2407.957	5821
2409.934	5823
2411.91	5729
2413.886	5847
2415.862	5856
2417.836	5791
2419.809	5724
2421.784	5861
2423.756	5797
2425.73	5791
2427.701	5852
2429.672	5808
2431.644	5828
2433.615	5770
2435.586	5734
2437.555	5745
2439.523	5852
2441.491	5717
2443.459	5821
2445.428	5836
2447.395	5745
2449.361	5698
2451.327	5684
2453.292	5780
2455.257	5752
2457.223	5653
2459.187	5760
2461.15	5829
2463.113	5781
2465.076	5761
2467.039	5792
2468.999	5796
2470.96	5628
2472.921	5639
2474.881	5725
2476.841	5805
2478.8	5706
2480.759	5651
2482.717	5737
2484.675	5774
2486.63	5682
2488.589	5708
2490.545	5674
2492.5	5635
2494.455	5695
2496.408	5664
2498.364	5729
2500.318	5674
2502.27	5730
2504.223	5752
2506.174	5714
2508.126	5689
2510.078	5644
2512.03	5724
2513.979	5707
2515.927	5626
2517.877	5730
2519.826	5730
2521.775	5660
2523.722	5723
2525.668	5711
2527.616	5697
2529.561	5645
2531.508	5626
2533.452	5715
2535.398	5612
2537.342	5677
2539.284	5687
2541.229	5763
2543.173	5630
2545.114	5681
2547.055	5687
2548.996	5627
2550.938	5682
2552.878	5750
2554.817	5665
2556.756	5642
2558.695	5589
2560.633	5688
2562.572	5748
2564.509	5700
2566.445	5692
2568.382	5668
2570.317	5728
2572.254	5711
2574.189	5709
2576.123	5602
2578.057	5558
2579.99	5713
2581.923	5607
2583.855	5602
2585.788	5745
2587.719	5682
2589.65	5721
2591.579	5667
2593.511	5631
2595.44	5726
2597.37	5625
2599.297	5709
2601.225	5710
2603.153	5687
2605.08	5700
2607.007	5622
2608.932	5625
2610.858	5681
2612.782	5606
2614.709	5704
2616.632	5685
2618.556	5733
2620.478	5740
2622.401	5625
2624.324	5694
2626.247	5661
2628.167	5660
2630.088	5756
2632.008	5614
2633.928	5686
2635.848	5728
2637.766	5542
2639.684	5603
2641.603	5711
2643.519	5628
2645.437	5658
2647.353	5688
2649.27	5580
2651.184	5728
2653.099	5679
2655.014	5748
2656.928	5696
2658.842	5716
2660.755	5670
2662.667	5600
2664.579	5654
2666.491	5614
2668.402	5621
2670.312	5685
2672.222	5534
2674.132	5633
2676.042	5650
2677.951	5648
2679.859	5669
2681.766	5576
2683.674	5609
2685.582	5596
2687.488	5657
2689.392	5542
2691.298	5672
2693.202	5551
2695.107	5614
2697.012	5528
2698.914	5665
2700.817	5633
2702.72	5544
2704.622	5468
2706.524	5657
2708.425	5555
2710.326	5622
2712.225	5571
2714.125	5468
2716.024	5595
2717.923	5528
2719.822	5565
2721.719	5570
2723.616	5514
2725.512	5615
2727.41	5503
2729.305	5538
2731.201	5558
2733.095	5586
2734.99	5501
2736.884	5572
2738.778	5601
2740.67	5592
2742.562	5530
2744.455	5525
2746.346	5627
2748.238	5436
2750.129	5620
2752.018	5606
2753.907	5515
2755.797	5399
2757.687	5567
2759.575	5335
2761.462	5440
2763.349	5540
2765.237	5554
2767.124	5510
2769.009	5513
2770.894	5520
2772.779	5551
2774.663	5574
2776.547	5424
2778.431	5495
2780.314	5507
2782.197	5546
2784.078	5581
2785.96	5498
2787.842	5511
2789.723	5456
2791.603	5517
2793.483	5382
2795.362	5507
2797.241	5462
2799.121	5503
2800.997	5470
2802.874	5443
2804.751	5403
2806.628	5363
2808.506	5466
2810.38	5379
2812.255	5501
2814.13	5377
2816.003	5604
2817.878	5342
2819.752	5389
2821.623	5528
2823.496	5468
2825.368	5444
2827.238	5429
2829.111	5489
2830.98	5401
2832.851	5527
2834.719	5402
2836.589	5361
2838.458	5462
2840.327	5412
2842.193	5394
2844.061	5425
2845.927	5614
2847.794	5486
2849.66	5463
2851.525	5569
2853.39	5397
2855.254	5494
2857.117	5531
2858.983	5541
2860.845	5515
2862.707	5565
2864.569	5602
2866.431	5577
2868.293	5753
2870.154	5656
2872.013	5739
2873.873	5703
2875.733	5735
2877.592	5908
2879.451	5726
2881.309	5974
2883.166	5887
2885.022	5944
2886.879	5980
2888.736	5953
2890.591	5951
2892.446	6004
2894.301	6019
2896.155	6016
2898.009	5987
2899.863	5913
2901.716	5922
2903.568	6003
2905.419	5961
2907.27	5851
2909.123	6042
2910.973	6080
2912.824	5948
2914.673	5942
2916.521	5963
2918.372	6102
2920.22	6125
2922.067	6173
2923.914	6173
2925.761	6241
2927.607	6390
2929.455	6388
2931.301	6236
2933.144	6383
2934.99	6326
2936.833	6512
2938.678	6490
2940.522	6565
2942.364	6661
2944.207	6634
2946.048	6660
2947.891	6599
2949.731	6823
2951.571	6691
2953.412	6671
2955.25	6560
2957.09	6591
2958.93	6484
2960.767	6536
2962.606	6535
2964.443	6252
2966.279	6298
2968.116	6192
2969.953	6208
2971.788	6189
2973.623	6173
2975.457	6109
2977.292	6088
2979.127	6034
2980.959	5991
2982.792	5942
2984.624	6151
2986.455	5970
2988.288	5883
2990.119	5845
2991.949	5844
2993.779	5734
2995.608	5787
2997.439	5788
2999.268	5787
3001.096	5748
3002.923	5621
3004.751	5687
3006.578	5595
3008.406	5513
3010.232	5519
3012.057	5544
3013.883	5484
3015.706	5539
3017.532	5487
3019.356	5414
3021.179	5325
3023.002	5268
3024.823	5233
3026.646	5348
3028.469	5309
3030.289	5271
3032.11	5230
3033.93	5265
3035.749	5188
3037.57	5326
3039.39	5248
3041.207	5172
3043.026	5224
3044.842	5233
3046.661	5197
3048.477	5225
3050.294	5211
3052.109	5153
3053.925	5177
3055.739	5123
3057.555	5254
3059.368	5156
3061.181	5126
3062.995	5113
3064.807	5124
3066.62	5102
3068.433	5186
3070.243	5056
3072.054	5206
3073.865	5124
3075.675	5085
3077.485	5090
3079.293	5126
3081.102	5082
3082.911	5086
3084.719	5049
3086.527	5113
3088.333	5011
3090.139	5018
3091.945	5004
3093.75	5159
3095.557	5108
3097.361	5078
3099.165	5128
3100.969	4983
3102.772	4908
3104.575	4934
3106.379	4946
3108.181	4988
3109.982	4968
3111.783	4984
3113.584	4993
3115.386	4987
3117.186	4920
3118.985	5056
3120.783	4990
3122.582	5004
3124.381	4913
3126.179	5010
3127.975	4920
3129.772	4975
3131.569	4971
3133.365	4851
3135.161	4972
3136.956	5027
3138.751	4940
3140.544	4859
3142.338	4866
3144.132	4833
3145.925	4909
3147.717	4949
3149.509	4892
3151.301	4921
3153.091	4944
3154.884	4858
3156.673	4988
3158.462	4892
3160.252	4804
3162.041	4814
3163.831	4864
3165.618	4938
3167.405	4917
3169.193	4875
3170.979	4758
3172.767	4856
3174.553	4881
3176.338	4907
3178.123	4821
3179.907	4840
3181.692	4814
3183.477	4799
3185.259	4894
3187.042	4777
3188.824	4809
3190.607	4803
3192.389	4834
3194.17	4867
3195.951	4853
3197.73	4837
3199.51	4758
3201.289	4903
3203.07	4774
3204.848	4718
3206.626	4731
3208.403	4790
3210.18	4790
3211.959	4749
3213.735	4816
3215.511	4773
3217.285	4767
3219.06	4765
3220.836	4885
3222.611	4877
3224.384	4757
3226.158	4737
3227.929	4847
3229.702	4762
3231.476	4844
3233.248	4707
3235.018	4757
3236.789	4772
3238.56	4826
3240.33	4721
3242.1	4798
3243.869	4763
3245.637	4814
3247.405	4823
3249.172	4883
3250.941	4821
3252.707	4792
3254.474	4739
3256.24	4867
3258.006	4741
3259.772	4835
3261.537	4812
3263.301	4861
3265.065	4762
3266.828	4749
3268.592	4822
3270.355	4718
3272.117	4779
3273.878	4745
3275.64	4813
3277.401	4752
3279.162	4781
3280.922	4751
3282.682	4772
3284.441	4749
3286.199	4785
3287.959	4791
3289.716	4779
3291.475	4794
3293.232	4888
3294.988	4731
3296.744	4876
3298.501	4721
3300.256	4751
3302.011	4762
3303.766	4672
3305.52	4805
3307.275	4816
3309.028	4788
3310.781	4906
3312.533	4813
3314.285	4847
3316.038	4923
3317.789	4865
3319.54	4796
3321.289	4669
3323.039	4738
3324.789	4807
3326.539	4747
3328.288	4702
3330.035	4722
3331.783	4776
3333.531	4690
3335.28	4752
3337.025	4777
3338.771	4723
3340.518	4719
3342.262	4739
3344.009	4699
3345.753	4693
3347.497	4753
3349.24	4780
3350.983	4668
3352.726	4758
3354.469	4708
3356.212	4702
3357.952	4651
3359.694	4655
3361.434	4559
3363.176	4623
3364.916	4765
3366.654	4686
3368.394	4678
3370.132	4670
3371.871	4625
3373.61	4598
3375.346	4552
3377.083	4661
3378.82	4561
3380.556	4654
3382.292	4562
3384.027	4623
3385.763	4524
3387.497	4662
3389.231	4568
3390.965	4530
3392.698	4573
3394.431	4565
3396.164	4517
3397.896	4520
3399.627	4567
3401.36	4579
3403.09	4584
3404.82	4539
3406.55	4484
3408.279	4638
3410.01	4572
3411.738	4572
3413.467	4583
3415.194	4617
3416.92	4547
3418.647	4539
3420.375	4528
3422.102	4555
3423.827	4468
3425.553	4485
3427.277	4550
3429.003	4492
3430.727	4496
3432.451	4576
3434.173	4526
3435.896	4543
3437.62	4430
3439.343	4388
3441.063	4503
3442.785	4369
3444.505	4487
3446.226	4554
3447.948	4378
3449.666	4481
3451.386	4419
3453.104	4383
3454.823	4409
3456.541	4532
3458.259	4249
3459.976	4346
3461.693	4353
3463.408	4347
3465.125	4299
3466.841	4315
3468.556	4319
3470.271	4401
3471.985	4423
3473.698	4404
3475.414	4370
3477.126	4330
3478.838	4301
3480.55	4394
3482.263	4279
3483.975	4386
3485.686	4316
3487.396	4291
3489.106	4337
3490.817	4212
3492.526	4357
3494.236	4296
3495.944	4368
3497.652	4256
3499.359	4236
3501.066	4222
3502.775	4164
3504.481	4204
3506.187	4290
3507.893	4228
3509.598	4219
3511.304	4145
3513.009	4086
3514.713	4281
3516.417	4181
3518.12	4235
3519.821	4159
3521.525	4145
3523.228	4145
3524.929	4239
3526.631	4145
3528.33	4213
3530.032	4140
3531.733	4200
3533.433	4185
3535.131	4142
3536.83	4091
3538.529	4218
3540.227	4130
3541.925	4120
3543.623	4130
3545.319	4116
3547.016	4099
3548.712	4009
3550.408	4141
3552.103	4059
3553.798	4151
3555.491	4110
3557.188	4047
3558.88	4066
3560.574	3991
3562.266	4096
3563.959	4061
3565.651	4037
3567.343	4043
3569.035	4061
3570.725	4064
3572.415	4044
3574.106	4024
3575.797	4053
3577.485	4136
3579.174	4039
3580.863	4091
3582.551	4061
3584.238	3991
3585.926	4033
3587.613	4018
3589.3	4017
3590.986	4076
3592.671	3935
3594.357	4046
3596.042	3880
3597.726	3941
3599.41	4069
3601.094	3991
3602.778	3972
3604.461	3969
3606.143	3981
3607.825	4005
3609.507	3864
3611.188	3889
3612.87	3997
3614.551	3855
3616.229	3987
3617.909	3839
3619.589	3838
3621.269	3884
3622.948	3829
3624.625	3842
3626.302	3882
3627.98	3868
3629.657	3811
3631.334	3760
3633.01	3835
3634.686	3875
3636.361	3832
3638.036	3852
3639.712	3884
3641.385	3814
3643.06	3786
3644.732	3796
3646.405	3838
3648.08	3861
3649.751	3798
3651.424	3746
3653.094	3774
3654.766	3779
3656.436	3644
3658.106	3705
3659.777	3773
3661.446	3784
3663.115	3799
3664.783	3725
3666.452	3811
3668.121	3729
3669.788	3773
3671.454	3717
3673.121	3734
3674.789	3747
3676.455	3727
3678.12	3732
3679.784	3811
3681.45	3657
3683.114	3691
3684.779	3679
3686.442	3745
3688.105	3693
3689.768	3659
3691.43	3801
3693.093	3642
3694.754	3794
3696.415	3703
3698.076	3786
3699.736	3625
3701.396	3724
3703.057	3659
3704.716	3661
3706.375	3669
3708.034	3690
3709.692	3718
3711.351	3665
3713.008	3670
3714.665	3680
3716.321	3593
3717.977	3648
3719.634	3644
3721.29	3548
3722.945	3703
3724.598	3611
3726.253	3575
3727.907	3647
3729.561	3628
3731.214	3678
3732.867	3640
3734.518	3613
3736.171	3639
3737.824	3603
3739.474	3549
3741.125	3660
3742.775	3556
3744.425	3598
3746.074	3704
3747.725	3603
3749.373	3614
3751.022	3719
3752.669	3600
3754.318	3602
3755.966	3660
3757.612	3584
3759.259	3615
3760.905	3605
3762.55	3557
3764.197	3553
3765.842	3534
3767.486	3601
3769.131	3593
3770.774	3559
3772.417	3427
3774.061	3513
3775.705	3504
3777.347	3501
3778.988	3632
3780.629	3612
3782.271	3488
3783.912	3539
3785.552	3539
3787.192	3512
3788.831	3607
3790.472	3566
3792.112	3535
3793.75	3487
3795.388	3445
3797.024	3620
3798.661	3495
3800.3	3540
3801.936	3509
3803.572	3503
3805.208	3475
3806.844	3438
3808.48	3452
3810.115	3413
3811.748	3425
3813.382	3543
3815.016	3389
3816.649	3388
3818.283	3426
3819.914	3545
3821.547	3417
3823.178	3437
3824.809	3453
3826.441	3428
3828.072	3400
3829.701	3366
3831.331	3392
3832.96	3422
3834.591	3411
3836.219	3337
3837.847	3376
3839.475	3409
3841.102	3461
3842.729	3353
3844.357	3382
3845.984	3416
3847.609	3325
3849.234	3363
3850.86	3454
3852.485	3420
3854.11	3408
3855.734	3394
3857.357	3389
3858.981	3300
3860.603	3347
3862.227	3396
3863.848	3330
3865.471	3314
3867.092	3335
3868.713	3279
3870.334	3423
3871.954	3290
3873.575	3288
3875.194	3334
3876.813	3371
3878.433	3334
3880.051	3458
3881.669	3352
3883.286	3377
3884.904	3355
3886.52	3374
3888.138	3334
3889.754	3250
3891.37	3294
3892.985	3263
3894.6	3381
3896.216	3293
3897.831	3279
3899.444	3196
3901.058	3355
3902.67	3316
3904.283	3275
3905.897	3234
3907.509	3298
3909.121	3232
3910.731	3326
3912.342	3311
3913.954	3216
3915.563	3228
3917.174	3289
3918.783	3262
3920.391	3226
3922.002	3255
3923.611	3257
3925.218	3246
3926.826	3237
3928.432	3297
3930.039	3282
3931.647	3218
3933.253	3279
3934.859	3220
3936.464	3242
3938.068	3301
3939.675	3243
3941.278	3215
3942.883	3244
3944.486	3186
3946.089	3310
3947.692	3235
3949.295	3197
3950.898	3232
3952.499	3204
3954.1	3166
3955.7	3188
3957.303	3121
3958.903	3186
3960.502	3191
3962.101	3196
3963.7	3221
3965.301	3148
3966.899	3193
3968.497	3160
3970.094	3153
3971.691	3100
3973.288	3198
3974.885	3146
3976.481	3129
3978.077	3185
3979.672	3134
3981.267	3170
3982.863	3086
3984.457	3150
3986.051	3097
3987.645	3144
3989.238	3163
3990.831	3207
3992.425	3099
3994.017	3035
3995.607	3047
3997.199	3068
3998.79	3115
4000.382	3147
4001.973	3132
4003.561	3089
4005.151	3075
4006.741	3064
4008.331	3054
4009.918	3066
4011.507	3097
4013.095	3036
4014.681	3083
4016.269	3068
4017.856	3049
4019.443	3031
4021.028	3039
4022.614	3010
4024.199	3083
4025.785	3080
4027.37	3036
4028.953	3043
4030.536	3098
4032.12	3061
4033.704	3080
4035.287	3032
4036.869	3023
4038.45	3075
4040.032	2980
4041.613	2964
4043.195	2987
4044.776	3000
4046.356	2935
4047.935	3033
4049.515	3002
4051.095	3004
4052.674	2992
4054.251	2917
4055.829	3046
4057.406	2865
4058.985	3008
4060.562	2968
4062.139	2968
4063.715	2930
4065.29	2869
4066.865	2995
4068.442	2939
4070.016	2944
4071.59	2950
4073.164	2973
4074.738	2906
4076.312	2986
4077.885	2920
4079.458	2977
4081.03	2929
4082.602	2919
4084.173	2919
4085.745	2971
4087.315	2951
4088.886	2992
4090.456	2974
4092.026	2993
4093.596	2899
4095.165	2929
4096.734	2854
4098.301	2952
4099.869	2905
4101.437	2968
4103.006	2878
4104.572	2904
4106.139	2838
4107.704	2896
4109.27	2922
4110.837	2962
4112.401	2928
4113.966	2904
4115.53	2872
4117.094	2879
4118.659	2884
4120.223	2839
4121.785	2827
4123.347	2834
4124.909	2928
4126.471	2882
4128.034	2820
4129.595	2861
4131.155	2822
4132.716	2892
4134.275	2853
4135.836	2824
4137.395	2829
4138.955	2769
4140.513	2801
4142.071	2737
4143.628	2829
4145.188	2786
4146.745	2808
4148.302	2866
4149.858	2783
4151.414	2803
4152.971	2762
4154.526	2813
4156.081	2771
4157.635	2806
4159.189	2735
4160.745	2815
4162.298	2807
4163.852	2779
4165.405	2800
4166.957	2742
4168.51	2734
4170.063	2743
4171.614	2740
4173.166	2733
4174.717	2700
4176.267	2763
4177.817	2728
4179.368	2693
4180.917	2778
4182.466	2663
4184.016	2770
4185.564	2648
4187.112	2719
4188.66	2759
4190.207	2716
4191.754	2705
4193.301	2689
4194.848	2727
4196.394	2776
4197.94	2726
4199.484	2739
4201.03	2656
4202.575	2719
4204.12	2701
4205.663	2688
4207.207	2622
4208.75	2678
4210.292	2713
4211.836	2709
4213.378	2610
4214.92	2657
4216.46	2682
4218.002	2698
4219.544	2710
4221.083	2694
4222.625	2688
4224.164	2705
4225.703	2646
4227.244	2652
4228.782	2647
4230.32	2622
4231.857	2672
4233.395	2619
4234.933	2634
4236.471	2676
4238.007	2681
4239.542	2646
4241.078	2612
4242.614	2606
4244.15	2641
4245.685	2586
4247.219	2682
4248.753	2634
4250.287	2603
4251.82	2628
4253.354	2525
4254.887	2654
4256.419	2642
4257.951	2656
4259.483	2634
4261.016	2562
4262.547	2597
4264.078	2543
4265.608	2656
4267.137	2691
4268.668	2556
4270.197	2553
4271.727	2617
4273.254	2676
4274.783	2616
4276.311	2561
4277.84	2611
4279.366	2590
4280.894	2568
4282.42	2618
4283.946	2550
4285.473	2606
4286.998	2497
4288.523	2567
4290.047	2493
4291.572	2553
4293.096	2537
4294.622	2602
4296.144	2510
4297.668	2552
4299.19	2593
4300.713	2576
4302.236	2518
4303.758	2530
4305.279	2531
4306.799	2514
4308.321	2533
4309.842	2541
4311.361	2500
4312.882	2494
4314.401	2507
