400.0961	2464
402.6185	2453
405.1424	2474
407.6635	2477
410.1838	2430
412.7035	2525
415.2225	2473
417.7388	2648
420.2585	2608
422.7754	2634
425.2917	2642
427.8072	2721
430.3221	2691
432.8363	2676
435.3498	2723
437.8626	2668
440.3727	2647
442.8841	2674
445.3969	2695
447.907	2656
450.4142	2624
452.9229	2630
455.4289	2616
457.9362	2615
460.4449	2579
462.9488	2594
465.454	2639
467.9566	2601
470.4604	2628
472.9637	2620
475.4662	2550
477.966	2543
480.4671	2555
482.9656	2630
485.4633	2604
487.9645	2611
490.4608	2592
492.9566	2561
495.4536	2625
497.948	2576
500.4437	2623
502.9387	2666
505.431	2646
507.9226	2630
510.4136	2661
512.9079	2673
515.3975	2665
517.8864	2630
520.3746	2669
522.8622	2684
525.3491	2674
527.8394	2733
530.3249	2685
532.8098	2663
535.2939	2715
537.7774	2743
540.2623	2669
542.7444	2683
545.2259	2707
547.7067	2706
550.1868	2701
552.6683	2741
555.147	2707
557.6231	2737
560.1005	2697
562.5773	2699
565.0534	2769
567.5308	2747
570.0056	2809
572.4776	2791
574.951	2715
577.4237	2751
579.8978	2811
582.3671	2872
584.8378	2810
587.3079	2910
589.7773	2902
592.244	2834
594.714	2810
597.1793	2842
599.6461	2836
602.1121	2882
604.5754	2806
607.0421	2843
609.5042	2767
611.9675	2785
614.4282	2772
616.8902	2804
619.3515	2741
621.8122	2748
624.2702	2742
626.7296	2770
629.1863	2670
631.6423	2672
634.1017	2758
636.5563	2758
639.0104	2754
641.4658	2775
643.9185	2777
646.3725	2732
648.8239	2748
651.2766	2705
653.7266	2699
656.176	2787
658.6247	2768
661.0748	2775
663.5242	2768
665.9709	2778
668.417	2809
670.8624	2780
673.3092	2775
675.7533	2807
678.1968	2801
680.6395	2820
683.0817	2823
685.5251	2841
687.9659	2846
690.4061	2848
692.8456	2866
695.2844	2812
697.7226	2826
700.1621	2892
702.599	2845
705.0332	2849
707.4688	2879
709.9036	2874
712.3399	2832
714.7735	2888
717.2044	2854
719.6367	2872
722.0683	2971
724.4993	2908
726.9296	2818
729.3593	2946
731.7883	2930
734.2147	2896
736.6423	2845
739.0714	2916
741.4958	2933
743.9216	2897
746.3447	2922
748.7691	2965
751.1929	2938
753.616	2988
756.0366	2996
758.4584	3037
760.8776	3012
763.2982	2982
765.718	3016
768.1373	2979
770.5539	3012
772.9698	2972
775.3871	2967
777.8038	2998
780.2178	2944
782.6332	2993
785.0459	3011
787.458	2989
789.8714	3006
792.2842	3044
794.6943	3045
797.1038	3004
799.5127	2996
801.9209	3015
804.3324	2968
806.7393	3022
809.1456	2940
811.5513	3156
813.9562	3086
816.3625	3111
818.7663	3072
821.1693	3084
823.5718	3133
825.9735	3049
828.3746	3050
830.7771	3111
833.177	3025
835.5762	3091
837.9747	3083
840.3727	3013
842.772	3121
845.1666	3106
847.5626	3173
849.958	3077
852.3527	3172
854.7488	3183
857.1403	3160
859.5331	3128
861.9253	3188
864.3168	3137
866.7057	3178
869.098	3101
871.4876	3070
873.8746	3092
876.263	3177
878.6487	3222
881.0378	3073
883.4243	3222
885.8081	3203
888.1933	3131
890.5759	3132
892.9598	3167
895.343	3122
897.7256	3113
900.1057	3135
902.4871	3209
904.8659	3164
907.246	3184
909.6254	3113
912.0023	3194
914.3786	3282
916.7562	3269
919.1331	3277
921.5074	3321
923.8831	3390
926.2562	3266
928.6287	3303
931.0005	3390
933.3757	3351
935.7462	3480
938.1162	3427
940.4855	3533
942.8542	3510
945.2242	3619
947.5916	3685
949.9584	3843
952.3266	3944
954.6921	4201
957.0571	4431
959.4233	4593
961.787	4661
964.15	4612
966.5125	4490
968.8742	4175
971.2354	3939
973.5959	3815
975.9559	3542
978.3151	3461
980.6738	3377
983.0338	3421
985.3912	3309
987.7461	3293
990.1022	3255
992.4578	3278
994.8127	3294
997.1689	3277
999.5207	3283
1001.874	3361
1004.226	3289
1006.576	3363
1008.929	3308
1011.28	3291
1013.628	3329
1015.977	3319
1018.324	3231
1020.674	3206
1023.019	3326
1025.366	3366
1027.713	3277
1030.056	3358
1032.399	3313
1034.746	3468
1037.087	3389
1039.431	3386
1041.771	3396
1044.113	3379
1046.454	3301
1048.793	3396
1051.133	3353
1053.471	3386
1055.807	3394
1058.146	3419
1060.483	3472
1062.818	3457
1065.153	3447
1067.489	3367
1069.822	3484
1072.156	3477
1074.488	3573
1076.82	3529
1079.15	3486
1081.48	3459
1083.814	3525
1086.143	3348
1088.471	3417
1090.799	3366
1093.126	3351
1095.452	3261
1097.78	3290
1100.105	3375
1102.43	3321
1104.754	3415
1107.077	3308
1109.4	3362
1111.722	3270
1114.044	3313
1116.365	3316
1118.685	3341
1121.005	3337
1123.324	3390
1125.643	3245
1127.961	3375
1130.278	3307
1132.595	3332
1134.911	3396
1137.226	3362
1139.541	3342
1141.854	3344
1144.167	3323
1146.482	3247
1148.793	3321
1151.105	3230
1153.414	3372
1155.725	3421
1158.033	3311
1160.344	3352
1162.651	3319
1164.959	3434
1167.265	3351
1169.572	3348
1171.878	3322
1174.184	3400
1176.488	3437
1178.79	3327
1181.094	3359
1183.396	3394
1185.699	3316
1188.001	3457
1190.301	3334
1192.6	3359
1194.9	3355
1197.2	3352
1199.497	3395
1201.794	3392
1204.09	3362
1206.387	3412
1208.684	3354
1210.978	3360
1213.272	3333
1215.565	3385
1217.858	3343
1220.15	3432
1222.443	3423
1224.734	3315
1227.024	3423
1229.313	3477
1231.602	3439
1233.892	3496
1236.18	3394
1238.467	3497
1240.754	3505
1243.04	3513
1245.325	3545
1247.612	3463
1249.896	3601
1252.178	3530
1254.461	3597
1256.743	3532
1259.027	3549
1261.308	3527
1263.587	3551
1265.867	3494
1268.146	3576
1270.425	3558
1272.703	3532
1274.981	3584
1277.256	3527
1279.532	3573
1281.808	3428
1284.083	3483
1286.358	3501
1288.63	3502
1290.904	3473
1293.175	3450
1295.449	3434
1297.719	3484
1299.99	3456
1302.259	3439
1304.529	3457
1306.798	3472
1309.065	3463
1311.333	3498
1313.599	3422
1315.866	3495
1318.131	3455
1320.396	3435
1322.66	3456
1324.925	3578
1327.187	3467
1329.448	3443
1331.711	3485
1333.974	3491
1336.234	3404
1338.493	3460
1340.752	3426
1343.01	3492
1345.269	3459
1347.526	3456
1349.784	3438
1352.04	3561
1354.295	3415
1356.552	3399
1358.806	3444
1361.059	3554
1363.312	3452
1365.564	3482
1367.818	3450
1370.069	3506
1372.318	3511
1374.568	3453
1376.817	3543
1379.066	3509
1381.316	3473
1383.564	3473
1385.809	3589
1388.056	3444
1390.301	3572
1392.549	3588
1394.793	3650
1397.036	3542
1399.279	3538
1401.522	3584
1403.763	3639
1406.007	3568
1408.248	3581
1410.487	3594
1412.727	3534
1414.965	3592
1417.205	3574
1419.442	3676
1421.68	3630
1423.915	3642
1426.152	3660
1428.388	3562
1430.623	3604
1432.857	3549
1435.091	3604
1437.323	3532
1439.556	3632
1441.789	3735
1444.019	3712
1446.25	3672
1448.48	3655
1450.708	3633
1452.938	3647
1455.167	3667
1457.394	3673
1459.62	3812
1461.846	3662
1464.073	3661
1466.299	3641
1468.523	3642
1470.746	3625
1472.969	3632
1475.191	3515
1477.415	3639
1479.636	3513
1481.858	3433
1484.078	3468
1486.298	3467
1488.518	3515
1490.736	3491
1492.954	3491
1495.169	3414
1497.386	3492
1499.602	3492
1501.819	3402
1504.034	3412
1506.248	3419
1508.462	3426
1510.675	3466
1512.888	3470
1515.1	3418
1517.311	3440
1519.522	3453
1521.732	3456
1523.942	3425
1526.151	3422
1528.36	3454
1530.566	3417
1532.773	3554
1534.98	3482
1537.187	3415
1539.392	3446
1541.596	3510
1543.801	3450
1546.005	3589
1548.208	3422
1550.411	3542
1552.612	3453
1554.814	3545
1557.013	3539
1559.212	3508
1561.414	3528
1563.612	3552
1565.811	3520
1568.007	3574
1570.203	3614
1572.403	3529
1574.598	3575
1576.792	3587
1578.988	3517
1581.181	3540
1583.376	3578
1585.568	3561
1587.761	3589
1589.952	3620
1592.143	3596
1594.333	3519
1596.524	3592
1598.715	3687
1600.903	3566
1603.091	3675
1605.278	3567
1607.466	3604
1609.652	3618
1611.838	3596
1614.023	3654
1616.207	3655
1618.391	3601
1620.576	3584
1622.759	3650
1624.941	3761
1627.123	3539
1629.304	3629
1631.484	3633
1633.664	3557
1635.844	3700
1638.022	3702
1640.201	3622
1642.38	3716
1644.556	3718
1646.732	3688
1648.908	3700
1651.084	3731
1653.257	3723
1655.433	3710
1657.607	3675
1659.779	3697
1661.951	3774
1664.122	3733
1666.295	3713
1668.467	3810
1670.635	3811
1672.805	3782
1674.973	3838
1677.142	3798
1679.31	3803
1681.478	3749
1683.644	3715
1685.81	3655
1687.975	3773
1690.142	3745
1692.305	3753
1694.468	3683
1696.632	3656
1698.794	3630
1700.957	3620
1703.119	3673
1705.279	3646
1707.439	3619
1709.598	3594
1711.758	3568
1713.917	3691
1716.075	3632
1718.231	3542
1720.388	3578
1722.543	3582
1724.702	3564
1726.856	3627
1729.01	3544
1731.164	3591
1733.317	3575
1735.471	3620
1737.623	3554
1739.774	3627
1741.925	3588
1744.075	3535
1746.225	3571
1748.376	3634
1750.524	3582
1752.672	3614
1754.82	3691
1756.965	3619
1759.113	3636
1761.259	3588
1763.405	3633
1765.549	3689
1767.694	3582
1769.836	3665
1771.981	3700
1774.123	3565
1776.264	3599
1778.405	3600
1780.546	3599
1782.687	3584
1784.827	3666
1786.966	3642
1789.103	3624
1791.242	3649
1793.381	3623
1795.517	3656
1797.653	3623
1799.788	3575
1801.923	3656
1804.057	3590
1806.193	3665
1808.326	3597
1810.457	3659
1812.59	3565
1814.721	3604
1816.855	3579
1818.984	3572
1821.113	3647
1823.244	3557
1825.372	3596
1827.499	3578
1829.63	3618
1831.756	3572
1833.882	3591
1836.007	3650
1838.132	3580
1840.26	3579
1842.384	3584
1844.507	3644
1846.63	3642
1848.752	3643
1850.875	3560
1852.996	3633
1855.118	3609
1857.238	3617
1859.358	3588
1861.477	3630
1863.597	3591
1865.715	3622
1867.832	3628
1869.948	3604
1872.064	3642
1874.181	3569
1876.297	3643
1878.411	3561
1880.526	3598
1882.639	3662
1884.752	3666
1886.865	3680
1888.977	3596
1891.089	3673
1893.2	3617
1895.308	3599
1897.42	3590
1899.53	3657
1901.639	3709
1903.745	3553
1905.853	3637
1907.962	3613
1910.067	3605
1912.174	3614
1914.278	3666
1916.383	3605
1918.486	3628
1920.592	3665
1922.694	3749
1924.797	3677
1926.898	3696
1929	3652
1931.102	3669
1933.203	3691
1935.301	3701
1937.401	3607
1939.499	3706
1941.598	3835
1943.697	3595
1945.793	3638
1947.888	3642
1949.985	3719
1952.08	3635
1954.176	3700
1956.269	3681
1958.364	3713
1960.457	3684
1962.549	3684
1964.642	3620
1966.733	3646
1968.823	3590
1970.913	3672
1973.005	3641
1975.093	3690
1977.184	3740
1979.271	3638
1981.359	3654
1983.446	3662
1985.532	3628
1987.619	3715
1989.705	3770
1991.789	3650
1993.874	3555
1995.956	3623
1998.041	3675
2000.123	3631
2002.206	3705
2004.287	3663
2006.368	3673
2008.449	3666
2010.529	3675
2012.609	3661
2014.688	3621
2016.766	3675
2018.843	3613
2020.922	3649
2022.999	3648
2025.074	3664
2027.15	3730
2029.225	3649
2031.299	3672
2033.375	3678
2035.447	3610
2037.52	3634
2039.592	3604
2041.664	3629
2043.736	3597
2045.807	3727
2047.876	3665
2049.947	3669
2052.015	3663
2054.086	3625
2056.153	3682
2058.221	3612
2060.288	3656
2062.353	3669
2064.42	3672
2066.486	3644
2068.55	3615
2070.614	3675
2072.678	3638
2074.741	3752
2076.805	3704
2078.866	3619
2080.929	3666
2082.99	3686
2085.049	3761
2087.109	3702
2089.17	3683
2091.228	3712
2093.286	3703
2095.344	3757
2097.4	3744
2099.46	3640
2101.516	3616
2103.572	3705
2105.626	3662
2107.679	3740
2109.735	3623
2111.788	3694
2113.841	3746
2115.894	3705
2117.945	3581
2119.997	3661
2122.049	3638
2124.1	3673
2126.148	3602
2128.197	3621
2130.246	3646
2132.296	3578
2134.342	3685
2136.39	3594
2138.437	3674
2140.483	3682
2142.527	3625
2144.574	3637
2146.619	3761
2148.661	3730
2150.705	3688
2152.747	3539
2154.792	3749
2156.832	3703
2158.874	3661
2160.915	3608
2162.954	3652
2164.995	3589
2167.034	3678
2169.072	3684
2171.111	3712
2173.148	3646
2175.186	3719
2177.223	3645
2179.258	3568
2181.294	3744
2183.328	3692
2185.362	3627
2187.398	3684
2189.431	3695
2191.463	3666
2193.495	3579
2195.528	3647
2197.56	3730
2199.59	3613
2201.62	3577
2203.649	3627
2205.678	3645
2207.708	3519
2209.737	3604
2211.764	3605
2213.791	3556
2215.817	3620
2217.843	3608
2219.87	3683
2221.895	3566
2223.919	3508
2225.942	3594
2227.966	3549
2229.988	3535
2232.012	3585
2234.032	3649
2236.054	3566
2238.074	3560
2240.095	3627
2242.116	3557
2244.135	3571
2246.153	3597
2248.171	3609
2250.188	3626
2252.208	3590
2254.223	3483
2256.239	3669
2258.255	3588
2260.269	3663
2262.283	3634
2264.3	3615
2266.312	3654
2268.325	3527
2270.336	3573
2272.349	3606
2274.362	3508
2276.372	3564
2278.383	3588
2280.392	3612
2282.402	3574
2284.409	3562
2286.418	3632
2288.427	3625
2290.433	3638
2292.441	3542
2294.446	3556
2296.453	3551
2298.459	3584
2300.463	3605
2302.466	3609
2304.471	3547
2306.475	3633
2308.477	3581
2310.478	3543
2312.481	3557
2314.481	3586
2316.481	3626
2318.482	3548
2320.482	3529
2322.48	3567
2324.48	3607
2326.478	3555
2328.476	3560
2330.473	3592
2332.469	3557
2334.465	3599
2336.46	3558
2338.454	3596
2340.45	3504
2342.444	3534
2344.437	3488
2346.43	3585
2348.421	3457
2350.414	3604
2352.405	3531
2354.396	3487
2356.386	3565
2358.376	3532
2360.366	3558
2362.355	3599
2364.343	3621
2366.331	3394
2368.317	3494
2370.304	3533
2372.292	3565
2374.278	3517
2376.262	3532
2378.247	3559
2380.23	3461
2382.216	3512
2384.199	3452
2386.181	3471
2388.163	3539
2390.144	3530
2392.127	3451
2394.107	3523
2396.087	3478
2398.066	3495
2400.046	3562
2402.023	3521
2404.004	3515
2405.981	3553
2407.957	3503
2409.934	3441
2411.91	3503
2413.886	3497
2415.862	3485
2417.836	3500
2419.809	3495
2421.784	3450
2423.756	3430
2425.73	3542
2427.701	3498
2429.672	3600
2431.644	3449
2433.615	3457
2435.586	3498
2437.555	3458
2439.523	3473
2441.491	3477
2443.459	3456
2445.428	3478
2447.395	3512
2449.361	3574
2451.327	3465
2453.292	3446
2455.257	3474
2457.223	3445
2459.187	3469
2461.15	3512
2463.113	3491
2465.076	3513
2467.039	3496
2468.999	3486
2470.96	3511
2472.921	3433
2474.881	3500
2476.841	3423
2478.8	3547
2480.759	3471
2482.717	3530
2484.675	3535
2486.63	3505
2488.589	3500
2490.545	3458
2492.5	3493
2494.455	3505
2496.408	3478
2498.364	3463
2500.318	3433
2502.27	3540
2504.223	3437
2506.174	3589
2508.126	3409
2510.078	3411
2512.03	3449
2513.979	3456
2515.927	3443
2517.877	3530
2519.826	3459
2521.775	3430
2523.722	3471
2525.668	3423
2527.616	3464
2529.561	3467
2531.508	3479
2533.452	3486
2535.398	3489
2537.342	3407
2539.284	3479
2541.229	3408
2543.173	3445
2545.114	3428
2547.055	3405
2548.996	3450
2550.938	3440
2552.878	3509
2554.817	3547
2556.756	3406
2558.695	3485
2560.633	3436
2562.572	3368
2564.509	3555
2566.445	3470
2568.382	3471
2570.317	3483
2572.254	3479
2574.189	3477
2576.123	3392
2578.057	3486
2579.99	3507
2581.923	3389
2583.855	3459
2585.788	3472
2587.719	3449
2589.65	3490
2591.579	3469
2593.511	3513
2595.44	3418
2597.37	3496
2599.297	3469
2601.225	3494
2603.153	3570
2605.08	3520
2607.007	3494
2608.932	3487
2610.858	3445
2612.782	3419
2614.709	3472
2616.632	3482
2618.556	3492
2620.478	3462
2622.401	3462
2624.324	3547
2626.247	3366
2628.167	3512
2630.088	3451
2632.008	3491
2633.928	3423
2635.848	3477
2637.766	3504
2639.684	3433
2641.603	3455
2643.519	3477
2645.437	3537
2647.353	3489
2649.27	3352
2651.184	3460
2653.099	3460
2655.014	3437
2656.928	3527
2658.842	3446
2660.755	3439
2662.667	3478
2664.579	3437
2666.491	3461
2668.402	3439
2670.312	3400
2672.222	3477
2674.132	3499
2676.042	3455
2677.951	3487
2679.859	3387
2681.766	3478
2683.674	3429
2685.582	3455
2687.488	3495
2689.392	3516
2691.298	3461
2693.202	3447
2695.107	3438
2697.012	3416
2698.914	3494
2700.817	3511
2702.72	3487
2704.622	3424
2706.524	3428
2708.425	3440
2710.326	3390
2712.225	3465
2714.125	3493
2716.024	3450
2717.923	3477
2719.822	3396
2721.719	3360
2723.616	3443
2725.512	3402
2727.41	3477
2729.305	3492
2731.201	3482
2733.095	3522
2734.99	3542
2736.884	3362
2738.778	3397
2740.67	3446
2742.562	3412
2744.455	3442
2746.346	3458
2748.238	3410
2750.129	3377
2752.018	3456
2753.907	3479
2755.797	3451
2757.687	3453
2759.575	3428
2761.462	3462
2763.349	3464
2765.237	3382
2767.124	3432
2769.009	3431
2770.894	3399
2772.779	3414
2774.663	3389
2776.547	3405
2778.431	3395
2780.314	3359
2782.197	3358
2784.078	3417
2785.96	3409
2787.842	3451
2789.723	3433
2791.603	3390
2793.483	3378
2795.362	3327
2797.241	3390
2799.121	3453
2800.997	3291
2802.874	3447
2804.751	3369
2806.628	3379
2808.506	3474
2810.38	3430
2812.255	3373
2814.13	3385
2816.003	3416
2817.878	3438
2819.752	3372
2821.623	3390
2823.496	3363
2825.368	3430
2827.238	3362
2829.111	3415
2830.98	3425
2832.851	3374
2834.719	3467
2836.589	3385
2838.458	3378
2840.327	3390
2842.193	3464
2844.061	3483
2845.927	3422
2847.794	3447
2849.66	3452
2851.525	3479
2853.39	3459
2855.254	3502
2857.117	3467
2858.983	3527
2860.845	3514
2862.707	3479
2864.569	3467
2866.431	3524
2868.293	3580
2870.154	3686
2872.013	3627
2873.873	3719
2875.733	3751
2877.592	3790
2879.451	3901
2881.309	3816
2883.166	3870
2885.022	3781
2886.879	3890
2888.736	3889
2890.591	3846
2892.446	3850
2894.301	3852
2896.155	3923
2898.009	3927
2899.863	3839
2901.716	3845
2903.568	3925
2905.419	3885
2907.27	3901
2909.123	3851
2910.973	3882
2912.824	3878
2914.673	4006
2916.521	3978
2918.372	4011
2920.22	4082
2922.067	4219
2923.914	4169
2925.761	4138
2927.607	4238
2929.455	4274
2931.301	4244
2933.144	4357
2934.99	4310
2936.833	4457
2938.678	4532
2940.522	4460
2942.364	4468
2944.207	4593
2946.048	4633
2947.891	4602
2949.731	4676
2951.571	4583
2953.412	4585
2955.25	4539
2957.09	4494
2958.93	4430
2960.767	4473
2962.606	4349
2964.443	4345
2966.279	4253
2968.116	4154
2969.953	4194
2971.788	4147
2973.623	4146
2975.457	4056
2977.292	4072
2979.127	3982
2980.959	3978
2982.792	3995
2984.624	3936
2986.455	3963
2988.288	3947
2990.119	3929
2991.949	3904
2993.779	3849
2995.608	3819
2997.439	3729
2999.268	3753
3001.096	3796
3002.923	3692
3004.751	3708
3006.578	3679
3008.406	3680
3010.232	3574
3012.057	3560
3013.883	3535
3015.706	3582
3017.532	3449
3019.356	3492
3021.179	3426
3023.002	3446
3024.823	3307
3026.646	3440
3028.469	3391
3030.289	3338
3032.11	3282
3033.93	3338
3035.749	3347
3037.57	3383
3039.39	3299
3041.207	3315
3043.026	3352
3044.842	3324
3046.661	3340
3048.477	3329
3050.294	3296
3052.109	3310
3053.925	3316
3055.739	3331
3057.555	3343
3059.368	3335
3061.181	3296
3062.995	3277
3064.807	3286
3066.62	3274
3068.433	3250
3070.243	3266
3072.054	3290
3073.865	3253
3075.675	3287
3077.485	3321
3079.293	3292
3081.102	3305
3082.911	3266
3084.719	3283
3086.527	3227
3088.333	3303
3090.139	3152
3091.945	3264
3093.75	3264
3095.557	3262
3097.361	3264
3099.165	3195
3100.969	3149
3102.772	3251
3104.575	3256
3106.379	3166
3108.181	3110
3109.982	3233
3111.783	3180
3113.584	3235
3115.386	3267
3117.186	3190
3118.985	3125
3120.783	3171
3122.582	3277
3124.381	3159
3126.179	3178
3127.975	3162
3129.772	3143
3131.569	3177
3133.365	3090
3135.161	3147
3136.956	3267
3138.751	3172
3140.544	3235
3142.338	3170
3144.132	3130
3145.925	3138
3147.717	3174
3149.509	3173
3151.301	3166
3153.091	3187
3154.884	3153
3156.673	3215
3158.462	3176
3160.252	3137
3162.041	3194
3163.831	3128
3165.618	3109
3167.405	3156
3169.193	3054
3170.979	3166
3172.767	3164
3174.553	3156
3176.338	3073
3178.123	3065
3179.907	3150
3181.692	3152
3183.477	3115
3185.259	3141
3187.042	3123
3188.824	3126
3190.607	3114
3192.389	3100
3194.17	3131
3195.951	3120
3197.73	3160
3199.51	3190
3201.289	3048
3203.07	3083
3204.848	3201
3206.626	3122
3208.403	3120
3210.18	3089
3211.959	3199
3213.735	3137
3215.511	3169
3217.285	3138
3219.06	3152
3220.836	3106
3222.611	3093
3224.384	3101
3226.158	3080
3227.929	3150
3229.702	3116
3231.476	3175
3233.248	3126
3235.018	3156
3236.789	3159
3238.56	3066
3240.33	3108
3242.1	3209
3243.869	3059
3245.637	3146
3247.405	3092
3249.172	3145
3250.941	3136
3252.707	3097
3254.474	3232
3256.24	3181
3258.006	3103
3259.772	3077
3261.537	3152
3263.301	3121
3265.065	3171
3266.828	3180
3268.592	3114
3270.355	3146
3272.117	3166
3273.878	3080
3275.64	3212
3277.401	3110
3279.162	3177
3280.922	3143
3282.682	3190
3284.441	3084
3286.199	3129
3287.959	3180
3289.716	3109
3291.475	3148
3293.232	3162
3294.988	3213
3296.744	3131
3298.501	3111
3300.256	3160
3302.011	3156
3303.766	3177
3305.52	3223
3307.275	3163
3309.028	3154
3310.781	3251
3312.533	3141
3314.285	3145
3316.038	3185
3317.789	3154
3319.54	3137
3321.289	3070
3323.039	3141
3324.789	3150
3326.539	3190
3328.288	3172
3330.035	3189
3331.783	3201
3333.531	3226
3335.28	3060
3337.025	3155
3338.771	3161
3340.518	3168
3342.262	3161
3344.009	3187
3345.753	3101
3347.497	3139
3349.24	3100
3350.983	3084
3352.726	3084
3354.469	3111
3356.212	3130
3357.952	3196
3359.694	3090
3361.434	3142
3363.176	3115
3364.916	3192
3366.654	3136
3368.394	3131
3370.132	3121
3371.871	3029
3373.61	3026
3375.346	3175
3377.083	3089
3378.82	3075
3380.556	3109
3382.292	3095
3384.027	3121
3385.763	3009
3387.497	3130
3389.231	3098
3390.965	3130
3392.698	3062
3394.431	3027
3396.164	3097
3397.896	3019
3399.627	3001
3401.36	3041
3403.09	3004
3404.82	3066
3406.55	2968
3408.279	3046
3410.01	3024
3411.738	3076
3413.467	3092
3415.194	3152
3416.92	3054
3418.647	3025
3420.375	3062
3422.102	3013
3423.827	3038
3425.553	3000
3427.277	2991
3429.003	3005
3430.727	2952
3432.451	3026
3434.173	2933
3435.896	2944
3437.62	2956
3439.343	2956
3441.063	2937
3442.785	2982
3444.505	3002
3446.226	2931
3447.948	2946
3449.666	2961
3451.386	2919
3453.104	2968
3454.823	2942
3456.541	2930
3458.259	2955
3459.976	2943
3461.693	2980
3463.408	2893
3465.125	2957
3466.841	2881
3468.556	2938
3470.271	2862
3471.985	3008
3473.698	2928
3475.414	2906
3477.126	2870
3478.838	2899
3480.55	2829
3482.263	2910
3483.975	2808
3485.686	2847
3487.396	2828
3489.106	2893
3490.817	2794
3492.526	2856
3494.236	2890
3495.944	2851
3497.652	2847
3499.359	2869
3501.066	2877
3502.775	2811
3504.481	2857
3506.187	2896
3507.893	2840
3509.598	2894
3511.304	2761
3513.009	2823
3514.713	2868
3516.417	2803
3518.12	2762
3519.821	2834
3521.525	2811
3523.228	2862
3524.929	2760
3526.631	2783
3528.33	2788
3530.032	2742
3531.733	2793
3533.433	2783
3535.131	2751
3536.83	2759
3538.529	2783
3540.227	2781
3541.925	2723
3543.623	2744
3545.319	2734
3547.016	2751
3548.712	2756
3550.408	2748
3552.103	2812
3553.798	2746
3555.491	2716
3557.188	2724
3558.88	2760
3560.574	2695
3562.266	2677
3563.959	2669
3565.651	2716
3567.343	2717
3569.035	2752
3570.725	2766
3572.415	2711
3574.106	2750
3575.797	2758
3577.485	2662
3579.174	2734
3580.863	2719
3582.551	2631
3584.238	2648
3585.926	2702
3587.613	2645
3589.3	2635
3590.986	2665
3592.671	2657
3594.357	2666
3596.042	2664
3597.726	2601
3599.41	2603
3601.094	2653
3602.778	2619
3604.461	2653
3606.143	2603
3607.825	2636
3609.507	2663
3611.188	2682
3612.87	2653
3614.551	2582
3616.229	2574
3617.909	2622
3619.589	2555
3621.269	2622
3622.948	2558
3624.625	2624
3626.302	2524
3627.98	2550
3629.657	2619
3631.334	2573
3633.01	2497
3634.686	2597
3636.361	2529
3638.036	2623
3639.712	2540
3641.385	2485
3643.06	2581
3644.732	2496
3646.405	2537
3648.08	2532
3649.751	2560
3651.424	2496
3653.094	2543
3654.766	2535
3656.436	2443
3658.106	2528
3659.777	2513
3661.446	2569
3663.115	2484
3664.783	2509
3666.452	2531
3668.121	2467
3669.788	2516
3671.454	2464
3673.121	2472
3674.789	2462
3676.455	2510
3678.12	2492
3679.784	2473
3681.45	2467
3683.114	2467
3684.779	2503
3686.442	2373
3688.105	2508
3689.768	2508
3691.43	2483
3693.093	2449
3694.754	2523
3696.415	2473
3698.076	2460
3699.736	2494
3701.396	2445
3703.057	2513
3704.716	2517
3706.375	2428
3708.034	2470
3709.692	2342
3711.351	2448
3713.008	2392
3714.665	2419
3716.321	2415
3717.977	2463
3719.634	2445
3721.29	2446
3722.945	2457
3724.598	2463
3726.253	2388
3727.907	2387
3729.561	2355
3731.214	2464
3732.867	2422
3734.518	2404
3736.171	2420
3737.824	2408
3739.474	2431
3741.125	2357
3742.775	2399
3744.425	2360
3746.074	2386
3747.725	2397
3749.373	2482
3751.022	2415
3752.669	2367
3754.318	2371
3755.966	2380
3757.612	2438
3759.259	2429
3760.905	2385
3762.55	2389
3764.197	2373
3765.842	2417
3767.486	2403
3769.131	2381
3770.774	2369
3772.417	2356
3774.061	2369
3775.705	2349
3777.347	2330
3778.988	2401
3780.629	2410
3782.271	2353
3783.912	2372
3785.552	2364
3787.192	2346
3788.831	2383
3790.472	2331
3792.112	2338
3793.75	2340
3795.388	2353
3797.024	2309
3798.661	2283
3800.3	2275
3801.936	2410
3803.572	2431
3805.208	2375
3806.844	2306
3808.48	2340
3810.115	2302
3811.748	2320
3813.382	2338
3815.016	2341
3816.649	2290
3818.283	2341
3819.914	2304
3821.547	2290
3823.178	2286
3824.809	2270
3826.441	2342
3828.072	2320
3829.701	2302
3831.331	2276
3832.96	2324
3834.591	2271
3836.219	2296
3837.847	2253
3839.475	2318
3841.102	2221
3842.729	2251
3844.357	2282
3845.984	2258
3847.609	2265
3849.234	2271
3850.86	2297
3852.485	2348
3854.11	2291
3855.734	2332
3857.357	2331
3858.981	2293
3860.603	2289
3862.227	2296
3863.848	2225
3865.471	2286
3867.092	2330
3868.713	2172
3870.334	2256
3871.954	2232
3873.575	2200
3875.194	2282
3876.813	2237
3878.433	2245
3880.051	2236
3881.669	2294
3883.286	2264
3884.904	2242
3886.52	2261
3888.138	2235
3889.754	2254
3891.37	2229
3892.985	2246
3894.6	2212
3896.216	2265
3897.831	2175
3899.444	2251
3901.058	2239
3902.67	2275
3904.283	2228
3905.897	2203
3907.509	2240
3909.121	2256
3910.731	2176
3912.342	2264
3913.954	2206
3915.563	2174
3917.174	2226
3918.783	2187
3920.391	2228
3922.002	2154
3923.611	2206
3925.218	2195
3926.826	2188
3928.432	2179
3930.039	2207
3931.647	2193
3933.253	2260
3934.859	2246
3936.464	2177
3938.068	2219
3939.675	2241
3941.278	2185
3942.883	2173
3944.486	2153
3946.089	2155
3947.692	2183
3949.295	2177
3950.898	2132
3952.499	2189
3954.1	2176
3955.7	2195
3957.303	2138
3958.903	2180
3960.502	2179
3962.101	2179
3963.7	2179
3965.301	2169
3966.899	2164
3968.497	2236
3970.094	2160
3971.691	2182
3973.288	2137
3974.885	2162
3976.481	2154
3978.077	2189
3979.672	2092
3981.267	2188
3982.863	2106
3984.457	2205
3986.051	2143
3987.645	2173
3989.238	2121
3990.831	2185
3992.425	2140
3994.017	2135
3995.607	2117
3997.199	2129
3998.79	2150
4000.382	2096
4001.973	2100
4003.561	2152
4005.151	2112
4006.741	2156
4008.331	2132
4009.918	2106
4011.507	2136
4013.095	2139
4014.681	2068
4016.269	2098
4017.856	2080
4019.443	2153
4021.028	2034
4022.614	2063
4024.199	2111
4025.785	2035
4027.37	2046
4028.953	2079
4030.536	2099
4032.12	2057
4033.704	2014
4035.287	2059
4036.869	2051
4038.45	2104
4040.032	2091
4041.613	2070
4043.195	2062
4044.776	2085
4046.356	2066
4047.935	2058
4049.515	2025
4051.095	2105
4052.674	2080
4054.251	2073
4055.829	2075
4057.406	2058
4058.985	2060
4060.562	2099
4062.139	2032
4063.715	2033
4065.29	2024
4066.865	2085
4068.442	2054
4070.016	2010
4071.59	2024
4073.164	2042
4074.738	2033
4076.312	2004
4077.885	2014
4079.458	2020
4081.03	2005
4082.602	2029
4084.173	2076
4085.745	1998
4087.315	1981
4088.886	2016
4090.456	2061
4092.026	1943
4093.596	2004
4095.165	1960
4096.734	2026
4098.301	2008
4099.869	1983
4101.437	2001
4103.006	2004
4104.572	2020
4106.139	2026
4107.704	2014
4109.27	1953
4110.837	1938
4112.401	1992
4113.966	1983
4115.53	1988
4117.094	1989
4118.659	2015
4120.223	2004
4121.785	2004
4123.347	1931
4124.909	1997
4126.471	1962
4128.034	1965
4129.595	1959
4131.155	1991
4132.716	1950
4134.275	1968
4135.836	1962
4137.395	1887
4138.955	1943
4140.513	1972
4142.071	1952
4143.628	1995
4145.188	1950
4146.745	1909
4148.302	1912
4149.858	1950
4151.414	1968
4152.971	1978
4154.526	1937
4156.081	1888
4157.635	1956
4159.189	1936
4160.745	2006
4162.298	1910
4163.852	1922
4165.405	1922
4166.957	1926
4168.51	1883
4170.063	1944
4171.614	1970
4173.166	1938
4174.717	1954
4176.267	1947
4177.817	1945
4179.368	1950
4180.917	1917
4182.466	1893
4184.016	1917
4185.564	1928
4187.112	1913
4188.66	1854
4190.207	1884
4191.754	1922
4193.301	1884
4194.848	1864
4196.394	1862
4197.94	1907
4199.484	1854
4201.03	1874
4202.575	1862
4204.12	1895
4205.663	1864
4207.207	1909
4208.75	1923
4210.292	1948
4211.836	1847
4213.378	1879
4214.92	1891
4216.46	1863
4218.002	1898
4219.544	1892
4221.083	1944
4222.625	1863
4224.164	1892
4225.703	1891
4227.244	1853
4228.782	1842
4230.32	1807
4231.857	1896
4233.395	1889
4234.933	1865
4236.471	1874
4238.007	1887
4239.542	1867
4241.078	1811
4242.614	1846
4244.15	1900
4245.685	1902
4247.219	1862
4248.753	1793
4250.287	1823
4251.82	1833
4253.354	1863
4254.887	1875
4256.419	1813
4257.951	1864
4259.483	1844
4261.016	1817
4262.547	1856
4264.078	1778
4265.608	1864
4267.137	1784
4268.668	1842
4270.197	1847
4271.727	1829
4273.254	1837
4274.783	1811
4276.311	1830
4277.84	1790
4279.366	1816
4280.894	1854
4282.42	1797
4283.946	1836
4285.473	1822
4286.998	1820
4288.523	1775
4290.047	1808
4291.572	1790
4293.096	1813
4294.622	1798
4296.144	1821
4297.668	1847
4299.19	1821
4300.713	1773
4302.236	1794
4303.758	1786
4305.279	1834
4306.799	1810
4308.321	1811
4309.842	1762
4311.361	1772
4312.882	1775
4314.401	1759
