400.0961	2218
402.6185	2234
405.1424	2209
407.6635	2277
410.1838	2289
412.7035	2245
415.2225	2302
417.7388	2369
420.2585	2204
422.7754	2275
425.2917	2307
427.8072	2283
430.3221	2420
432.8363	2339
435.3498	2388
437.8626	2425
440.3727	2391
442.8841	2372
445.3969	2423
447.907	2409
450.4142	2326
452.9229	2362
455.4289	2383
457.9362	2442
460.4449	2369
462.9488	2385
465.454	2347
467.9566	2332
470.4604	2350
472.9637	2392
475.4662	2444
477.966	2385
480.4671	2381
482.9656	2378
485.4633	2385
487.9645	2441
490.4608	2394
492.9566	2415
495.4536	2410
497.948	2401
500.4437	2481
502.9387	2358
505.431	2463
507.9226	2425
510.4136	2435
512.9079	2353
515.3975	2469
517.8864	2456
520.3746	2456
522.8622	2390
525.3491	2409
527.8394	2370
530.3249	2445
532.8098	2418
535.2939	2400
537.7774	2479
540.2623	2478
542.7444	2440
545.2259	2388
547.7067	2462
550.1868	2374
552.6683	2463
555.147	2401
557.6231	2484
560.1005	2435
562.5773	2536
565.0534	2428
567.5308	2533
570.0056	2523
572.4776	2511
574.951	2473
577.4237	2521
579.8978	2593
582.3671	2571
584.8378	2574
587.3079	2529
589.7773	2512
592.244	2574
594.714	2550
597.1793	2515
599.6461	2515
602.1121	2505
604.5754	2468
607.0421	2527
609.5042	2530
611.9675	2565
614.4282	2475
616.8902	2532
619.3515	2514
621.8122	2468
624.2702	2441
626.7296	2453
629.1863	2527
631.6423	2542
634.1017	2562
636.5563	2481
639.0104	2461
641.4658	2476
643.9185	2524
646.3725	2534
648.8239	2615
651.2766	2571
653.7266	2487
656.176	2482
658.6247	2569
661.0748	2531
663.5242	2588
665.9709	2563
668.417	2561
670.8624	2592
673.3092	2551
675.7533	2633
678.1968	2483
680.6395	2565
683.0817	2634
685.5251	2620
687.9659	2607
690.4061	2611
692.8456	2584
695.2844	2596
697.7226	2586
700.1621	2566
702.599	2581
705.0332	2619
707.4688	2536
709.9036	2582
712.3399	2621
714.7735	2669
717.2044	2580
719.6367	2656
722.0683	2681
724.4993	2671
726.9296	2678
729.3593	2656
731.7883	2660
734.2147	2603
736.6423	2700
739.0714	2642
741.4958	2632
743.9216	2715
746.3447	2759
748.7691	2638
751.1929	2694
753.616	2694
756.0366	2747
758.4584	2716
760.8776	2642
763.2982	2800
765.718	2701
768.1373	2757
770.5539	2790
772.9698	2770
775.3871	2750
777.8038	2774
780.2178	2826
782.6332	2749
785.0459	2740
787.458	2755
789.8714	2671
792.2842	2765
794.6943	2740
797.1038	2761
799.5127	2689
801.9209	2753
804.3324	2814
806.7393	2805
809.1456	2821
811.5513	2783
813.9562	2728
816.3625	2741
818.7663	2757
821.1693	2788
823.5718	2762
825.9735	2776
828.3746	2786
830.7771	2764
833.177	2846
835.5762	2793
837.9747	2828
840.3727	2809
842.772	2774
845.1666	2829
847.5626	2777
849.958	2821
852.3527	2815
854.7488	2756
857.1403	2840
859.5331	2870
861.9253	2886
864.3168	2781
866.7057	2908
869.098	2830
871.4876	2870
873.8746	2886
876.263	2824
878.6487	2826
881.0378	2809
883.4243	2853
885.8081	2822
888.1933	2883
890.5759	2839
892.9598	2840
895.343	2757
897.7256	2795
900.1057	2798
902.4871	2798
904.8659	2918
907.246	2853
909.6254	2841
912.0023	2939
914.3786	2879
916.7562	2951
919.1331	2958
921.5074	2993
923.8831	2954
926.2562	2978
928.6287	2923
931.0005	2995
933.3757	2867
935.7462	3013
938.1162	3048
940.4855	3112
942.8542	3136
945.2242	3076
947.5916	3134
949.9584	3236
952.3266	3273
954.6921	3418
957.0571	3658
959.4233	3734
961.787	3790
964.15	3764
966.5125	3629
968.8742	3454
971.2354	3404
973.5959	3265
975.9559	3057
978.3151	3046
980.6738	2988
983.0338	3128
985.3912	3001
987.7461	2955
990.1022	2878
992.4578	2910
994.8127	2941
997.1689	2954
999.5207	2933
1001.874	2962
1004.226	2946
1006.576	2952
1008.929	2997
1011.28	2934
1013.628	2987
1015.977	2960
1018.324	2990
1020.674	2979
1023.019	2945
1025.366	2999
1027.713	3018
1030.056	2976
1032.399	3027
1034.746	3005
1037.087	3078
1039.431	2965
1041.771	3073
1044.113	3030
1046.454	3058
1048.793	3055
1051.133	3032
1053.471	3006
1055.807	3069
1058.146	3026
1060.483	3020
1062.818	3002
1065.153	3125
1067.489	3112
1069.822	3116
1072.156	3085
1074.488	3185
1076.82	3184
1079.15	3062
1081.48	3070
1083.814	3060
1086.143	3080
1088.471	2954
1090.799	3045
1093.126	3044
1095.452	3080
1097.78	3096
1100.105	3087
1102.43	3064
1104.754	2967
1107.077	3041
1109.4	2971
1111.722	3044
1114.044	3020
1116.365	3027
1118.685	2976
1121.005	3049
1123.324	3072
1125.643	3078
1127.961	3013
1130.278	3041
1132.595	2967
1134.911	3034
1137.226	3079
1139.541	3064
1141.854	3070
1144.167	3035
1146.482	3098
1148.793	3065
1151.105	3052
1153.414	3021
1155.725	2971
1158.033	3064
1160.344	3049
1162.651	3074
1164.959	3086
1167.265	3031
1169.572	3069
1171.878	3026
1174.184	3040
1176.488	2989
1178.79	3029
1181.094	3092
1183.396	3100
1185.699	3104
1188.001	3087
1190.301	3018
1192.6	3040
1194.9	3069
1197.2	3015
1199.497	3129
1201.794	3026
1204.09	3010
1206.387	3041
1208.684	3032
1210.978	3035
1213.272	3102
1215.565	3053
1217.858	3025
1220.15	3102
1222.443	3044
1224.734	3089
1227.024	3174
1229.313	3132
1231.602	3084
1233.892	3095
1236.18	3133
1238.467	3129
1240.754	3201
1243.04	3190
1245.325	3164
1247.612	3211
1249.896	3145
1252.178	3216
1254.461	3202
1256.743	3167
1259.027	3174
1261.308	3106
1263.587	3112
1265.867	3155
1268.146	3229
1270.425	3197
1272.703	3148
1274.981	3223
1277.256	3190
1279.532	3158
1281.808	3141
1284.083	3152
1286.358	3239
1288.63	3139
1290.904	3070
1293.175	3107
1295.449	3078
1297.719	3103
1299.99	3163
1302.259	3136
1304.529	3115
1306.798	3160
1309.065	3098
1311.333	3076
1313.599	3133
1315.866	3208
1318.131	3095
1320.396	3167
1322.66	3140
1324.925	3170
1327.187	3195
1329.448	3147
1331.711	3121
1333.974	3155
1336.234	3191
1338.493	3184
1340.752	3299
1343.01	3209
1345.269	3134
1347.526	3125
1349.784	3062
1352.04	3238
1354.295	3198
1356.552	3180
1358.806	3118
1361.059	3191
1363.312	3149
1365.564	3180
1367.818	3190
1370.069	3199
1372.318	3188
1374.568	3124
1376.817	3126
1379.066	3185
1381.316	3174
1383.564	3205
1385.809	3135
1388.056	3249
1390.301	3146
1392.549	3173
1394.793	3308
1397.036	3211
1399.279	3230
1401.522	3230
1403.763	3192
1406.007	3270
1408.248	3318
1410.487	3244
1412.727	3240
1414.965	3226
1417.205	3225
1419.442	3192
1421.68	3222
1423.915	3265
1426.152	3204
1428.388	3228
1430.623	3238
1432.857	3244
1435.091	3233
1437.323	3288
1439.556	3294
1441.789	3235
1444.019	3309
1446.25	3298
1448.48	3401
1450.708	3251
1452.938	3320
1455.167	3367
1457.394	3288
1459.62	3276
1461.846	3347
1464.073	3245
1466.299	3274
1468.523	3347
1470.746	3272
1472.969	3297
1475.191	3176
1477.415	3274
1479.636	3180
1481.858	3218
1484.078	3218
1486.298	3176
1488.518	3241
1490.736	3206
1492.954	3252
1495.169	3157
1497.386	3214
1499.602	3196
1501.819	3153
1504.034	3165
1506.248	3175
1508.462	3186
1510.675	3154
1512.888	3144
1515.1	3218
1517.311	3214
1519.522	3191
1521.732	3104
1523.942	3202
1526.151	3253
1528.36	3184
1530.566	3216
1532.773	3189
1534.98	3225
1537.187	3212
1539.392	3170
1541.596	3259
1543.801	3178
1546.005	3133
1548.208	3208
1550.411	3191
1552.612	3204
1554.814	3302
1557.013	3169
1559.212	3296
1561.414	3230
1563.612	3181
1565.811	3150
1568.007	3203
1570.203	3221
1572.403	3182
1574.598	3284
1576.792	3232
1578.988	3213
1581.181	3202
1583.376	3306
1585.568	3228
1587.761	3249
1589.952	3307
1592.143	3280
1594.333	3332
1596.524	3247
1598.715	3271
1600.903	3249
1603.091	3338
1605.278	3230
1607.466	3249
1609.652	3264
1611.838	3302
1614.023	3344
1616.207	3247
1618.391	3311
1620.576	3293
1622.759	3287
1624.941	3243
1627.123	3348
1629.304	3282
1631.484	3280
1633.664	3364
1635.844	3364
1638.022	3407
1640.201	3380
1642.38	3381
1644.556	3350
1646.732	3287
1648.908	3365
1651.084	3414
1653.257	3328
1655.433	3408
1657.607	3374
1659.779	3446
1661.951	3376
1664.122	3330
1666.295	3350
1668.467	3349
1670.635	3432
1672.805	3362
1674.973	3396
1677.142	3369
1679.31	3321
1681.478	3350
1683.644	3339
1685.81	3409
1687.975	3357
1690.142	3383
1692.305	3356
1694.468	3316
1696.632	3368
1698.794	3289
1700.957	3264
1703.119	3347
1705.279	3281
1707.439	3312
1709.598	3288
1711.758	3343
1713.917	3351
1716.075	3373
1718.231	3303
1720.388	3240
1722.543	3296
1724.702	3253
1726.856	3269
1729.01	3285
1731.164	3260
1733.317	3211
1735.471	3269
1737.623	3262
1739.774	3293
1741.925	3367
1744.075	3300
1746.225	3310
1748.376	3241
1750.524	3276
1752.672	3288
1754.82	3342
1756.965	3279
1759.113	3337
1761.259	3324
1763.405	3298
1765.549	3319
1767.694	3341
1769.836	3333
1771.981	3341
1774.123	3372
1776.264	3321
1778.405	3328
1780.546	3276
1782.687	3347
1784.827	3257
1786.966	3361
1789.103	3340
1791.242	3359
1793.381	3294
1795.517	3343
1797.653	3331
1799.788	3391
1801.923	3295
1804.057	3321
1806.193	3388
1808.326	3364
1810.457	3345
1812.59	3341
1814.721	3320
1816.855	3292
1818.984	3310
1821.113	3317
1823.244	3382
1825.372	3427
1827.499	3347
1829.63	3283
1831.756	3312
1833.882	3322
1836.007	3312
1838.132	3325
1840.26	3232
1842.384	3361
1844.507	3304
1846.63	3234
1848.752	3321
1850.875	3240
1852.996	3331
1855.118	3320
1857.238	3285
1859.358	3352
1861.477	3241
1863.597	3307
1865.715	3301
1867.832	3191
1869.948	3343
1872.064	3305
1874.181	3339
1876.297	3299
1878.411	3294
1880.526	3356
1882.639	3308
1884.752	3246
1886.865	3407
1888.977	3276
1891.089	3291
1893.2	3328
1895.308	3334
1897.42	3441
1899.53	3242
1901.639	3365
1903.745	3278
1905.853	3407
1907.962	3252
1910.067	3280
1912.174	3294
1914.278	3312
1916.383	3374
1918.486	3269
1920.592	3332
1922.694	3360
1924.797	3330
1926.898	3258
1929	3336
1931.102	3285
1933.203	3409
1935.301	3304
1937.401	3416
1939.499	3343
1941.598	3335
1943.697	3410
1945.793	3284
1947.888	3378
1949.985	3380
1952.08	3398
1954.176	3391
1956.269	3326
1958.364	3390
1960.457	3382
1962.549	3372
1964.642	3305
1966.733	3292
1968.823	3350
1970.913	3381
1973.005	3289
1975.093	3322
1977.184	3306
1979.271	3389
1981.359	3292
1983.446	3401
1985.532	3313
1987.619	3353
1989.705	3214
1991.789	3318
1993.874	3338
1995.956	3357
1998.041	3411
2000.123	3337
2002.206	3343
2004.287	3295
2006.368	3251
2008.449	3256
2010.529	3352
2012.609	3389
2014.688	3316
2016.766	3206
2018.843	3327
2020.922	3317
2022.999	3406
2025.074	3326
2027.15	3399
2029.225	3278
2031.299	3351
2033.375	3301
2035.447	3327
2037.52	3330
2039.592	3369
2041.664	3375
2043.736	3372
2045.807	3295
2047.876	3287
2049.947	3389
2052.015	3407
2054.086	3312
2056.153	3291
2058.221	3312
2060.288	3334
2062.353	3347
2064.42	3310
2066.486	3362
2068.55	3281
2070.614	3347
2072.678	3335
2074.741	3372
2076.805	3327
2078.866	3361
2080.929	3376
2082.99	3322
2085.049	3387
2087.109	3393
2089.17	3275
2091.228	3374
2093.286	3280
2095.344	3376
2097.4	3426
2099.46	3371
2101.516	3351
2103.572	3386
2105.626	3390
2107.679	3293
2109.735	3347
2111.788	3367
2113.841	3403
2115.894	3342
2117.945	3362
2119.997	3347
2122.049	3382
2124.1	3251
2126.148	3379
2128.197	3332
2130.246	3345
2132.296	3409
2134.342	3367
2136.39	3390
2138.437	3398
2140.483	3338
2142.527	3342
2144.574	3340
2146.619	3368
2148.661	3282
2150.705	3289
2152.747	3330
2154.792	3318
2156.832	3444
2158.874	3333
2160.915	3399
2162.954	3337
2164.995	3370
2167.034	3281
2169.072	3287
2171.111	3332
2173.148	3215
2175.186	3338
2177.223	3328
2179.258	3356
2181.294	3358
2183.328	3291
2185.362	3352
2187.398	3238
2189.431	3295
2191.463	3361
2193.495	3302
2195.528	3271
2197.56	3217
2199.59	3229
2201.62	3312
2203.649	3282
2205.678	3285
2207.708	3298
2209.737	3326
2211.764	3291
2213.791	3191
2215.817	3300
2217.843	3315
2219.87	3278
2221.895	3174
2223.919	3241
2225.942	3238
2227.966	3298
2229.988	3243
2232.012	3264
2234.032	3227
2236.054	3302
2238.074	3274
2240.095	3284
2242.116	3330
2244.135	3242
2246.153	3343
2248.171	3279
2250.188	3244
2252.208	3265
2254.223	3265
2256.239	3179
2258.255	3330
2260.269	3303
2262.283	3228
2264.3	3259
2266.312	3267
2268.325	3224
2270.336	3286
2272.349	3316
2274.362	3238
2276.372	3278
2278.383	3302
2280.392	3308
2282.402	3290
2284.409	3228
2286.418	3315
2288.427	3303
2290.433	3289
2292.441	3242
2294.446	3228
2296.453	3272
2298.459	3239
2300.463	3251
2302.466	3276
2304.471	3234
2306.475	3265
2308.477	3264
2310.478	3294
2312.481	3256
2314.481	3238
2316.481	3329
2318.482	3345
2320.482	3220
2322.48	3176
2324.48	3281
2326.478	3263
2328.476	3223
2330.473	3334
2332.469	3236
2334.465	3217
2336.46	3181
2338.454	3251
2340.45	3289
2342.444	3247
2344.437	3215
2346.43	3231
2348.421	3180
2350.414	3210
2352.405	3289
2354.396	3171
2356.386	3296
2358.376	3134
2360.366	3204
2362.355	3267
2364.343	3240
2366.331	3127
2368.317	3235
2370.304	3203
2372.292	3218
2374.278	3218
2376.262	3244
2378.247	3223
2380.23	3196
2382.216	3221
2384.199	3142
2386.181	3180
2388.163	3275
2390.144	3215
2392.127	3236
2394.107	3161
2396.087	3261
2398.066	3150
2400.046	3270
2402.023	3224
2404.004	3168
2405.981	3215
2407.957	3175
2409.934	3197
2411.91	3198
2413.886	3180
2415.862	3209
2417.836	3209
2419.809	3204
2421.784	3155
2423.756	3217
2425.73	3252
2427.701	3205
2429.672	3168
2431.644	3251
2433.615	3224
2435.586	3179
2437.555	3151
2439.523	3235
2441.491	3180
2443.459	3183
2445.428	3281
2447.395	3160
2449.361	3159
2451.327	3128
2453.292	3215
2455.257	3179
2457.223	3175
2459.187	3163
2461.15	3138
2463.113	3111
2465.076	3119
2467.039	3247
2468.999	3206
2470.96	3099
2472.921	3096
2474.881	3127
2476.841	3137
2478.8	3227
2480.759	3176
2482.717	3123
2484.675	3165
2486.63	3093
2488.589	3132
2490.545	3169
2492.5	3120
2494.455	3169
2496.408	3236
2498.364	3058
2500.318	3176
2502.27	3184
2504.223	3071
2506.174	3098
2508.126	3122
2510.078	3158
2512.03	3120
2513.979	3144
2515.927	3102
2517.877	3069
2519.826	3140
2521.775	3048
2523.722	3092
2525.668	3127
2527.616	3101
2529.561	3107
2531.508	3159
2533.452	3180
2535.398	3114
2537.342	3106
2539.284	3101
2541.229	3188
2543.173	3155
2545.114	3072
2547.055	3104
2548.996	3140
2550.938	3084
2552.878	3080
2554.817	3119
2556.756	3143
2558.695	3145
2560.633	3110
2562.572	3168
2564.509	3088
2566.445	3076
2568.382	3149
2570.317	3148
2572.254	3104
2574.189	3185
2576.123	3105
2578.057	3127
2579.99	3091
2581.923	3138
2583.855	3202
2585.788	3181
2587.719	3071
2589.65	3131
2591.579	3136
2593.511	3133
2595.44	3139
2597.37	3162
2599.297	3105
2601.225	3083
2603.153	3120
2605.08	3081
2607.007	3127
2608.932	3144
2610.858	3189
2612.782	3122
2614.709	3173
2616.632	3155
2618.556	3154
2620.478	3110
2622.401	3096
2624.324	3134
2626.247	3188
2628.167	3114
2630.088	3069
2632.008	3170
2633.928	3187
2635.848	3160
2637.766	3184
2639.684	3130
2641.603	3072
2643.519	3103
2645.437	3120
2647.353	3129
2649.27	2978
2651.184	3142
2653.099	3160
2655.014	3106
2656.928	3116
2658.842	3101
2660.755	3136
2662.667	3159
2664.579	3137
2666.491	3121
2668.402	3072
2670.312	3196
2672.222	3103
2674.132	3107
2676.042	3126
2677.951	3142
2679.859	3098
2681.766	3108
2683.674	3096
2685.582	3170
2687.488	3110
2689.392	3110
2691.298	3104
2693.202	3077
2695.107	3050
2697.012	3076
2698.914	3109
2700.817	3074
2702.72	3097
2704.622	3143
2706.524	3018
2708.425	3068
2710.326	3055
2712.225	3088
2714.125	3080
2716.024	3061
2717.923	3083
2719.822	3104
2721.719	3078
2723.616	3103
2725.512	3071
2727.41	3065
2729.305	3083
2731.201	3063
2733.095	3082
2734.99	3040
2736.884	3006
2738.778	3066
2740.67	3048
2742.562	3074
2744.455	3047
2746.346	3073
2748.238	3082
2750.129	3132
2752.018	3088
2753.907	3072
2755.797	2983
2757.687	3146
2759.575	3082
2761.462	3002
2763.349	3208
2765.237	3048
2767.124	3036
2769.009	3062
2770.894	3027
2772.779	3059
2774.663	3026
2776.547	3086
2778.431	3050
2780.314	3100
2782.197	3070
2784.078	3052
2785.96	2966
2787.842	3031
2789.723	3095
2791.603	3065
2793.483	3086
2795.362	3092
2797.241	3013
2799.121	3043
2800.997	3061
2802.874	3044
2804.751	3112
2806.628	3048
2808.506	3038
2810.38	3044
2812.255	3088
2814.13	3054
2816.003	3048
2817.878	2983
2819.752	3147
2821.623	3090
2823.496	3024
2825.368	3042
2827.238	3053
2829.111	3009
2830.98	3078
2832.851	3067
2834.719	3004
2836.589	3056
2838.458	3025
2840.327	3091
2842.193	3065
2844.061	2990
2845.927	3080
2847.794	2982
2849.66	3058
2851.525	3058
2853.39	3108
2855.254	3057
2857.117	3115
2858.983	3003
2860.845	3137
2862.707	3078
2864.569	3165
2866.431	3104
2868.293	3152
2870.154	3147
2872.013	3207
2873.873	3132
2875.733	3153
2877.592	3212
2879.451	3167
2881.309	3247
2883.166	3195
2885.022	3274
2886.879	3263
2888.736	3299
2890.591	3282
2892.446	3299
2894.301	3204
2896.155	3290
2898.009	3204
2899.863	3262
2901.716	3316
2903.568	3286
2905.419	3299
2907.27	3247
2909.123	3305
2910.973	3265
2912.824	3264
2914.673	3322
2916.521	3389
2918.372	3378
2920.22	3380
2922.067	3343
2923.914	3424
2925.761	3467
2927.607	3422
2929.455	3455
2931.301	3469
2933.144	3510
2934.99	3547
2936.833	3583
2938.678	3570
2940.522	3689
2942.364	3601
2944.207	3596
2946.048	3653
2947.891	3664
2949.731	3650
2951.571	3666
2953.412	3661
2955.25	3621
2957.09	3583
2958.93	3530
2960.767	3558
2962.606	3502
2964.443	3459
2966.279	3520
2968.116	3374
2969.953	3375
2971.788	3399
2973.623	3314
2975.457	3385
2977.292	3325
2979.127	3367
2980.959	3465
2982.792	3289
2984.624	3322
2986.455	3335
2988.288	3234
2990.119	3238
2991.949	3237
2993.779	3222
2995.608	3160
2997.439	3180
2999.268	3268
3001.096	3179
3002.923	3131
3004.751	3112
3006.578	3141
3008.406	3162
3010.232	3081
3012.057	3062
3013.883	3091
3015.706	3043
3017.532	2963
3019.356	2965
3021.179	2956
3023.002	2967
3024.823	3004
3026.646	2930
3028.469	2864
3030.289	2911
3032.11	3009
3033.93	2905
3035.749	2899
3037.57	2933
3039.39	2909
3041.207	2881
3043.026	2946
3044.842	2877
3046.661	2955
3048.477	2932
3050.294	2938
3052.109	2960
3053.925	2939
3055.739	2869
3057.555	2888
3059.368	2845
3061.181	2951
3062.995	2904
3064.807	2908
3066.62	2910
3068.433	2896
3070.243	2911
3072.054	2905
3073.865	2840
3075.675	2820
3077.485	2864
3079.293	2874
3081.102	2953
3082.911	2839
3084.719	2806
3086.527	2795
3088.333	2909
3090.139	2846
3091.945	2885
3093.75	2824
3095.557	2856
3097.361	2838
3099.165	2856
3100.969	2884
3102.772	2806
3104.575	2806
3106.379	2847
3108.181	2804
3109.982	2844
3111.783	2788
3113.584	2832
3115.386	2795
3117.186	2806
3118.985	2818
3120.783	2800
3122.582	2794
3124.381	2763
3126.179	2798
3127.975	2809
3129.772	2857
3131.569	2723
3133.365	2716
3135.161	2766
3136.956	2779
3138.751	2837
3140.544	2820
3142.338	2846
3144.132	2817
3145.925	2798
3147.717	2697
3149.509	2778
3151.301	2695
3153.091	2769
3154.884	2815
3156.673	2805
3158.462	2749
3160.252	2793
3162.041	2826
3163.831	2794
3165.618	2764
3167.405	2756
3169.193	2724
3170.979	2774
3172.767	2728
3174.553	2738
3176.338	2781
3178.123	2730
3179.907	2766
3181.692	2776
3183.477	2712
3185.259	2711
3187.042	2746
3188.824	2758
3190.607	2708
3192.389	2779
3194.17	2774
3195.951	2742
3197.73	2770
3199.51	2771
3201.289	2753
3203.07	2816
3204.848	2737
3206.626	2700
3208.403	2782
3210.18	2708
3211.959	2756
3213.735	2757
3215.511	2759
3217.285	2657
3219.06	2756
3220.836	2766
3222.611	2639
3224.384	2755
3226.158	2811
3227.929	2690
3229.702	2775
3231.476	2677
3233.248	2690
3235.018	2731
3236.789	2754
3238.56	2758
3240.33	2723
3242.1	2697
3243.869	2724
3245.637	2748
3247.405	2760
3249.172	2735
3250.941	2699
3252.707	2682
3254.474	2675
3256.24	2814
3258.006	2667
3259.772	2718
3261.537	2667
3263.301	2732
3265.065	2770
3266.828	2767
3268.592	2755
3270.355	2777
3272.117	2707
3273.878	2677
3275.64	2713
3277.401	2719
3279.162	2737
3280.922	2713
3282.682	2805
3284.441	2682
3286.199	2808
3287.959	2739
3289.716	2725
3291.475	2775
3293.232	2687
3294.988	2762
3296.744	2748
3298.501	2694
3300.256	2703
3302.011	2774
3303.766	2759
3305.52	2695
3307.275	2728
3309.028	2732
3310.781	2807
3312.533	2733
3314.285	2736
3316.038	2678
3317.789	2703
3319.54	2652
3321.289	2673
3323.039	2685
3324.789	2668
3326.539	2747
3328.288	2684
3330.035	2623
3331.783	2727
3333.531	2681
3335.28	2709
3337.025	2708
3338.771	2735
3340.518	2661
3342.262	2731
3344.009	2635
3345.753	2692
3347.497	2659
3349.24	2726
3350.983	2642
3352.726	2711
3354.469	2750
3356.212	2709
3357.952	2720
3359.694	2690
3361.434	2659
3363.176	2680
3364.916	2661
3366.654	2667
3368.394	2613
3370.132	2623
3371.871	2634
3373.61	2650
3375.346	2658
3377.083	2706
3378.82	2628
3380.556	2642
3382.292	2604
3384.027	2599
3385.763	2587
3387.497	2629
3389.231	2601
3390.965	2648
3392.698	2607
3394.431	2639
3396.164	2611
3397.896	2633
3399.627	2621
3401.36	2622
3403.09	2649
3404.82	2605
3406.55	2610
3408.279	2625
3410.01	2643
3411.738	2647
3413.467	2631
3415.194	2608
3416.92	2621
3418.647	2654
3420.375	2578
3422.102	2554
3423.827	2553
3425.553	2571
3427.277	2578
3429.003	2651
3430.727	2556
3432.451	2567
3434.173	2594
3435.896	2532
3437.62	2603
3439.343	2588
3441.063	2597
3442.785	2575
3444.505	2614
3446.226	2576
3447.948	2600
3449.666	2519
3451.386	2518
3453.104	2557
3454.823	2603
3456.541	2542
3458.259	2654
3459.976	2548
3461.693	2543
3463.408	2536
3465.125	2533
3466.841	2495
3468.556	2568
3470.271	2601
3471.985	2614
3473.698	2524
3475.414	2512
3477.126	2495
3478.838	2486
3480.55	2511
3482.263	2565
3483.975	2526
3485.686	2544
3487.396	2532
3489.106	2425
3490.817	2546
3492.526	2475
3494.236	2477
3495.944	2471
3497.652	2489
3499.359	2533
3501.066	2435
3502.775	2457
3504.481	2405
3506.187	2480
3507.893	2454
3509.598	2440
3511.304	2423
3513.009	2490
3514.713	2459
3516.417	2412
3518.12	2449
3519.821	2481
3521.525	2432
3523.228	2423
3524.929	2451
3526.631	2413
3528.33	2359
3530.032	2409
3531.733	2426
3533.433	2464
3535.131	2380
3536.83	2504
3538.529	2456
3540.227	2406
3541.925	2429
3543.623	2487
3545.319	2375
3547.016	2443
3548.712	2458
3550.408	2356
3552.103	2421
3553.798	2389
3555.491	2415
3557.188	2399
3558.88	2403
3560.574	2450
3562.266	2410
3563.959	2384
3565.651	2420
3567.343	2375
3569.035	2421
3570.725	2430
3572.415	2460
3574.106	2346
3575.797	2383
3577.485	2351
3579.174	2385
3580.863	2379
3582.551	2412
3584.238	2332
3585.926	2346
3587.613	2398
3589.3	2346
3590.986	2410
3592.671	2329
3594.357	2295
3596.042	2349
3597.726	2269
3599.41	2332
3601.094	2273
3602.778	2359
3604.461	2306
3606.143	2353
3607.825	2329
3609.507	2369
3611.188	2209
3612.87	2309
3614.551	2351
3616.229	2277
3617.909	2273
3619.589	2328
3621.269	2331
3622.948	2280
3624.625	2301
3626.302	2258
3627.98	2273
3629.657	2334
3631.334	2265
3633.01	2291
3634.686	2240
3636.361	2224
3638.036	2257
3639.712	2268
3641.385	2301
3643.06	2307
3644.732	2200
3646.405	2270
3648.08	2252
3649.751	2258
3651.424	2221
3653.094	2234
3654.766	2239
3656.436	2170
3658.106	2258
3659.777	2241
3661.446	2197
3663.115	2287
3664.783	2149
3666.452	2180
3668.121	2248
3669.788	2213
3671.454	2235
3673.121	2246
3674.789	2218
3676.455	2219
3678.12	2224
3679.784	2220
3681.45	2231
3683.114	2203
3684.779	2167
3686.442	2165
3688.105	2210
3689.768	2243
3691.43	2199
3693.093	2103
3694.754	2212
3696.415	2124
3698.076	2186
3699.736	2193
3701.396	2177
3703.057	2205
3704.716	2202
3706.375	2139
3708.034	2183
3709.692	2118
3711.351	2145
3713.008	2213
3714.665	2168
3716.321	2144
3717.977	2225
3719.634	2173
3721.29	2195
3722.945	2181
3724.598	2173
3726.253	2182
3727.907	2164
3729.561	2180
3731.214	2123
3732.867	2176
3734.518	2131
3736.171	2102
3737.824	2201
3739.474	2073
3741.125	2153
3742.775	2186
3744.425	2153
3746.074	2082
3747.725	2088
3749.373	2193
3751.022	2123
3752.669	2117
3754.318	2162
3755.966	2193
3757.612	2051
3759.259	2158
3760.905	2076
3762.55	2150
3764.197	2153
3765.842	2147
3767.486	2162
3769.131	2155
3770.774	2131
3772.417	2112
3774.061	2147
3775.705	2138
3777.347	2179
3778.988	2104
3780.629	2094
3782.271	2097
3783.912	2120
3785.552	2095
3787.192	2087
3788.831	2047
3790.472	2082
3792.112	2101
3793.75	2101
3795.388	2117
3797.024	2113
3798.661	2142
3800.3	2023
3801.936	2058
3803.572	2102
3805.208	2051
3806.844	2133
3808.48	2058
3810.115	2035
3811.748	2098
3813.382	2077
3815.016	2040
3816.649	2097
3818.283	2072
3819.914	2073
3821.547	2115
3823.178	2050
3824.809	2089
3826.441	2078
3828.072	2010
3829.701	1992
3831.331	2018
3832.96	2045
3834.591	2049
3836.219	2051
3837.847	2069
3839.475	2099
3841.102	2044
3842.729	2010
3844.357	2040
3845.984	2023
3847.609	2062
3849.234	2015
3850.86	1990
3852.485	1995
3854.11	2050
3855.734	1993
3857.357	2021
3858.981	1957
3860.603	2037
3862.227	1977
3863.848	2027
3865.471	2040
3867.092	2073
3868.713	2066
3870.334	2072
3871.954	2041
3873.575	2078
3875.194	2010
3876.813	1970
3878.433	2003
3880.051	1999
3881.669	1988
3883.286	1938
3884.904	1993
3886.52	1999
3888.138	1977
3889.754	1976
3891.37	1966
3892.985	1999
3894.6	1976
3896.216	1995
3897.831	2012
3899.444	2004
3901.058	2007
3902.67	1979
3904.283	1977
3905.897	2009
3907.509	1957
3909.121	1953
3910.731	1985
3912.342	2000
3913.954	2002
3915.563	1912
3917.174	1918
3918.783	1961
3920.391	2002
3922.002	1956
3923.611	1986
3925.218	1972
3926.826	1964
3928.432	1952
3930.039	1945
3931.647	1960
3933.253	1947
3934.859	2007
3936.464	2014
3938.068	1930
3939.675	1968
3941.278	1933
3942.883	1964
3944.486	1898
3946.089	1917
3947.692	1917
3949.295	1999
3950.898	1971
3952.499	1940
3954.1	1974
3955.7	1940
3957.303	1939
3958.903	1970
3960.502	1880
3962.101	1989
3963.7	1966
3965.301	2001
3966.899	1947
3968.497	1943
3970.094	1912
3971.691	1891
3973.288	1907
3974.885	1940
3976.481	1908
3978.077	1943
3979.672	1863
3981.267	1886
3982.863	1946
3984.457	1979
3986.051	1951
3987.645	1850
3989.238	1915
3990.831	1908
3992.425	1920
3994.017	1876
3995.607	1908
3997.199	1918
3998.79	1932
4000.382	1911
4001.973	1898
4003.561	1897
4005.151	1907
4006.741	1878
4008.331	1851
4009.918	1870
4011.507	1854
4013.095	1884
4014.681	1847
4016.269	1882
4017.856	1875
4019.443	1871
4021.028	1862
4022.614	1792
4024.199	1851
4025.785	1863
4027.37	1839
4028.953	1847
4030.536	1872
4032.12	1859
4033.704	1828
4035.287	1865
4036.869	1857
4038.45	1900
4040.032	1838
4041.613	1825
4043.195	1782
4044.776	1834
4046.356	1832
4047.935	1882
4049.515	1832
4051.095	1829
4052.674	1780
4054.251	1802
4055.829	1790
4057.406	1834
4058.985	1795
4060.562	1833
4062.139	1780
4063.715	1764
4065.29	1825
4066.865	1794
4068.442	1775
4070.016	1858
4071.59	1799
4073.164	1827
4074.738	1812
4076.312	1758
4077.885	1835
4079.458	1778
4081.03	1811
4082.602	1803
4084.173	1791
4085.745	1773
4087.315	1820
4088.886	1816
4090.456	1782
4092.026	1775
4093.596	1803
4095.165	1816
4096.734	1827
4098.301	1816
4099.869	1792
4101.437	1802
4103.006	1824
4104.572	1843
4106.139	1783
4107.704	1765
4109.27	1730
4110.837	1784
4112.401	1750
4113.966	1788
4115.53	1803
4117.094	1798
4118.659	1761
4120.223	1808
4121.785	1727
4123.347	1802
4124.909	1781
4126.471	1736
4128.034	1703
4129.595	1748
4131.155	1776
4132.716	1751
4134.275	1765
4135.836	1762
4137.395	1749
4138.955	1784
4140.513	1731
4142.071	1762
4143.628	1743
4145.188	1737
4146.745	1723
4148.302	1751
4149.858	1707
4151.414	1772
4152.971	1756
4154.526	1719
4156.081	1687
4157.635	1758
4159.189	1730
4160.745	1724
4162.298	1670
4163.852	1740
4165.405	1701
4166.957	1709
4168.51	1719
4170.063	1717
4171.614	1654
4173.166	1734
4174.717	1708
4176.267	1708
4177.817	1675
4179.368	1671
4180.917	1668
4182.466	1757
4184.016	1678
4185.564	1649
4187.112	1737
4188.66	1689
4190.207	1689
4191.754	1653
4193.301	1692
4194.848	1663
4196.394	1642
4197.94	1652
4199.484	1680
4201.03	1667
4202.575	1647
4204.12	1683
4205.663	1662
4207.207	1681
4208.75	1699
4210.292	1671
4211.836	1652
4213.378	1664
4214.92	1669
4216.46	1705
4218.002	1660
4219.544	1631
4221.083	1636
4222.625	1641
4224.164	1629
4225.703	1666
4227.244	1615
4228.782	1653
4230.32	1684
4231.857	1709
4233.395	1689
4234.933	1694
4236.471	1626
4238.007	1685
4239.542	1645
4241.078	1614
4242.614	1651
4244.15	1673
4245.685	1635
4247.219	1705
4248.753	1667
4250.287	1624
4251.82	1664
4253.354	1628
4254.887	1645
4256.419	1638
4257.951	1590
4259.483	1617
4261.016	1673
4262.547	1626
4264.078	1606
4265.608	1649
4267.137	1607
4268.668	1656
4270.197	1647
4271.727	1645
4273.254	1615
4274.783	1652
4276.311	1618
4277.84	1556
4279.366	1613
4280.894	1595
4282.42	1627
4283.946	1602
4285.473	1621
4286.998	1577
4288.523	1643
4290.047	1582
4291.572	1622
4293.096	1632
4294.622	1606
4296.144	1615
4297.668	1592
4299.19	1563
4300.713	1600
4302.236	1613
4303.758	1572
4305.279	1604
4306.799	1611
4308.321	1602
4309.842	1584
4311.361	1547
4312.882	1550
4314.401	1540
