400.0961	3435
402.6185	3467
405.1424	3519
407.6635	3526
410.1838	3528
412.7035	3526
415.2225	3570
417.7388	3560
420.2585	3686
422.7754	3757
425.2917	3771
427.8072	3845
430.3221	3877
432.8363	3830
435.3498	3899
437.8626	3816
440.3727	3837
442.8841	3845
445.3969	3807
447.907	3842
450.4142	3778
452.9229	3830
455.4289	3820
457.9362	3875
460.4449	3723
462.9488	3773
465.454	3741
467.9566	3701
470.4604	3722
472.9637	3716
475.4662	3761
477.966	3694
480.4671	3716
482.9656	3735
485.4633	3738
487.9645	3711
490.4608	3793
492.9566	3721
495.4536	3816
497.948	3687
500.4437	3744
502.9387	3742
505.431	3774
507.9226	3792
510.4136	3823
512.9079	3875
515.3975	3751
517.8864	3781
520.3746	3766
522.8622	3865
525.3491	3886
527.8394	3786
530.3249	3824
532.8098	3949
535.2939	3875
537.7774	3851
540.2623	3876
542.7444	3912
545.2259	3902
547.7067	3880
550.1868	3934
552.6683	3889
555.147	3868
557.6231	3928
560.1005	3862
562.5773	3892
565.0534	3921
567.5308	3965
570.0056	4002
572.4776	4063
574.951	4040
577.4237	4030
579.8978	4103
582.3671	4153
584.8378	4069
587.3079	4065
589.7773	4152
592.244	4113
594.714	4131
597.1793	4106
599.6461	4028
602.1121	4006
604.5754	3950
607.0421	4122
609.5042	3964
611.9675	3947
614.4282	3991
616.8902	4004
619.3515	3938
621.8122	3935
624.2702	3995
626.7296	3960
629.1863	3905
631.6423	3958
634.1017	3874
636.5563	3860
639.0104	3916
641.4658	4051
643.9185	3933
646.3725	3986
648.8239	3980
651.2766	3883
653.7266	3948
656.176	3982
658.6247	4001
661.0748	3991
663.5242	3976
665.9709	3971
668.417	4021
670.8624	4078
673.3092	3998
675.7533	4007
678.1968	4020
680.6395	4060
683.0817	4138
685.5251	4013
687.9659	4104
690.4061	4048
692.8456	4017
695.2844	4020
697.7226	4119
700.1621	4170
702.599	4141
705.0332	4058
707.4688	4112
709.9036	4086
712.3399	4100
714.7735	4098
717.2044	4104
719.6367	4140
722.0683	4163
724.4993	4149
726.9296	4188
729.3593	4204
731.7883	4134
734.2147	4203
736.6423	4217
739.0714	4299
741.4958	4288
743.9216	4187
746.3447	4277
748.7691	4263
751.1929	4316
753.616	4364
756.0366	4272
758.4584	4312
760.8776	4366
763.2982	4318
765.718	4390
768.1373	4394
770.5539	4355
772.9698	4274
775.3871	4309
777.8038	4298
780.2178	4463
782.6332	4384
785.0459	4293
787.458	4368
789.8714	4392
792.2842	4379
794.6943	4380
797.1038	4354
799.5127	4421
801.9209	4276
804.3324	4384
806.7393	4437
809.1456	4363
811.5513	4314
813.9562	4295
816.3625	4458
818.7663	4456
821.1693	4489
823.5718	4436
825.9735	4383
828.3746	4383
830.7771	4459
833.177	4453
835.5762	4466
837.9747	4463
840.3727	4455
842.772	4549
845.1666	4517
847.5626	4505
849.958	4568
852.3527	4651
854.7488	4618
857.1403	4602
859.5331	4602
861.9253	4490
864.3168	4517
866.7057	4515
869.098	4592
871.4876	4597
873.8746	4485
876.263	4539
878.6487	4647
881.0378	4578
883.4243	4551
885.8081	4599
888.1933	4558
890.5759	4505
892.9598	4648
895.343	4535
897.7256	4573
900.1057	4502
902.4871	4594
904.8659	4565
907.246	4494
909.6254	4640
912.0023	4704
914.3786	4663
916.7562	4680
919.1331	4719
921.5074	4862
923.8831	4882
926.2562	4818
928.6287	4869
931.0005	4847
933.3757	4904
935.7462	4878
938.1162	4982
940.4855	4953
942.8542	5066
945.2242	5230
947.5916	5413
949.9584	5431
952.3266	5726
954.6921	6137
957.0571	6435
959.4233	6765
961.787	6763
964.15	6745
966.5125	6500
968.8742	6134
971.2354	5782
973.5959	5359
975.9559	5211
978.3151	4988
980.6738	4846
983.0338	4831
985.3912	4780
987.7461	4823
990.1022	4721
992.4578	4713
994.8127	4771
997.1689	4759
999.5207	4833
1001.874	4691
1004.226	4845
1006.576	4784
1008.929	4847
1011.28	4830
1013.628	4755
1015.977	4763
1018.324	4823
1020.674	4899
1023.019	4820
1025.366	4761
1027.713	4847
1030.056	4891
1032.399	4859
1034.746	4842
1037.087	4901
1039.431	4866
1041.771	4815
1044.113	4860
1046.454	4902
1048.793	4900
1051.133	4902
1053.471	4891
1055.807	4908
1058.146	4929
1060.483	4905
1062.818	4994
1065.153	4983
1067.489	5026
1069.822	5019
1072.156	4974
1074.488	5060
1076.82	5101
1079.15	4973
1081.48	5027
1083.814	5030
1086.143	4857
1088.471	4889
1090.799	4834
1093.126	4835
1095.452	4898
1097.78	4774
1100.105	4854
1102.43	4862
1104.754	4902
1107.077	4855
1109.4	4851
1111.722	4856
1114.044	4770
1116.365	4771
1118.685	4843
1121.005	4868
1123.324	4815
1125.643	4709
1127.961	4853
1130.278	4920
1132.595	4769
1134.911	4851
1137.226	4914
1139.541	4807
1141.854	4836
1144.167	4847
1146.482	4826
1148.793	4778
1151.105	4784
1153.414	4820
1155.725	4862
1158.033	4831
1160.344	4784
1162.651	4851
1164.959	4751
1167.265	4843
1169.572	4876
1171.878	4834
1174.184	4881
1176.488	4878
1178.79	4842
1181.094	4835
1183.396	4887
1185.699	4763
1188.001	4759
1190.301	4822
1192.6	4836
1194.9	4879
1197.2	4798
1199.497	4875
1201.794	4822
1204.09	4703
1206.387	4928
1208.684	4883
1210.978	4923
1213.272	4939
1215.565	4892
1217.858	4832
1220.15	4882
1222.443	4827
1224.734	4904
1227.024	4999
1229.313	4961
1231.602	5057
1233.892	5081
1236.18	5085
1238.467	5124
1240.754	5099
1243.04	5091
1245.325	5134
1247.612	5097
1249.896	5161
1252.178	5207
1254.461	5202
1256.743	5090
1259.027	5111
1261.308	5091
1263.587	5103
1265.867	5117
1268.146	5179
1270.425	5122
1272.703	5197
1274.981	5125
1277.256	5094
1279.532	5115
1281.808	5096
1284.083	5031
1286.358	5062
1288.63	5093
1290.904	5024
1293.175	5053
1295.449	5014
1297.719	5067
1299.99	5032
1302.259	4977
1304.529	5017
1306.798	5050
1309.065	5029
1311.333	5006
1313.599	5049
1315.866	4999
1318.131	4992
1320.396	5021
1322.66	5044
1324.925	5051
1327.187	5028
1329.448	5019
1331.711	4907
1333.974	4991
1336.234	5023
1338.493	4932
1340.752	5019
1343.01	5003
1345.269	5075
1347.526	4985
1349.784	4916
1352.04	5093
1354.295	4945
1356.552	5067
1358.806	5047
1361.059	5004
1363.312	4932
1365.564	5006
1367.818	5069
1370.069	5080
1372.318	5003
1374.568	5018
1376.817	5081
1379.066	5042
1381.316	5064
1383.564	5157
1385.809	5099
1388.056	5204
1390.301	5099
1392.549	5130
1394.793	5203
1397.036	5175
1399.279	5219
1401.522	5178
1403.763	5162
1406.007	5194
1408.248	5236
1410.487	5163
1412.727	5179
1414.965	5196
1417.205	5185
1419.442	5221
1421.68	5171
1423.915	5189
1426.152	5193
1428.388	5228
1430.623	5265
1432.857	5278
1435.091	5161
1437.323	5213
1439.556	5250
1441.789	5245
1444.019	5252
1446.25	5370
1448.48	5413
1450.708	5304
1452.938	5417
1455.167	5438
1457.394	5380
1459.62	5312
1461.846	5408
1464.073	5376
1466.299	5286
1468.523	5244
1470.746	5257
1472.969	5233
1475.191	5198
1477.415	5164
1479.636	5144
1481.858	5036
1484.078	5193
1486.298	5039
1488.518	5049
1490.736	5028
1492.954	5022
1495.169	5026
1497.386	4994
1499.602	5015
1501.819	5040
1504.034	5024
1506.248	4992
1508.462	5025
1510.675	5004
1512.888	5007
1515.1	5112
1517.311	5034
1519.522	4883
1521.732	4976
1523.942	4963
1526.151	5037
1528.36	4959
1530.566	5032
1532.773	5038
1534.98	5082
1537.187	4900
1539.392	5046
1541.596	5050
1543.801	5017
1546.005	5025
1548.208	4981
1550.411	5148
1552.612	5057
1554.814	5087
1557.013	5119
1559.212	5228
1561.414	5061
1563.612	5095
1565.811	5122
1568.007	5096
1570.203	5209
1572.403	5101
1574.598	5207
1576.792	5168
1578.988	5101
1581.181	5169
1583.376	5230
1585.568	5193
1587.761	5244
1589.952	5139
1592.143	5172
1594.333	5095
1596.524	5216
1598.715	5083
1600.903	5250
1603.091	5193
1605.278	5167
1607.466	5247
1609.652	5265
1611.838	5208
1614.023	5219
1616.207	5075
1618.391	5181
1620.576	5148
1622.759	5284
1624.941	5283
1627.123	5200
1629.304	5273
1631.484	5242
1633.664	5345
1635.844	5212
1638.022	5299
1640.201	5298
1642.38	5330
1644.556	5347
1646.732	5342
1648.908	5354
1651.084	5477
1653.257	5300
1655.433	5358
1657.607	5382
1659.779	5391
1661.951	5296
1664.122	5360
1666.295	5495
1668.467	5436
1670.635	5377
1672.805	5477
1674.973	5487
1677.142	5319
1679.31	5429
1681.478	5408
1683.644	5416
1685.81	5254
1687.975	5338
1690.142	5318
1692.305	5415
1694.468	5317
1696.632	5283
1698.794	5191
1700.957	5226
1703.119	5231
1705.279	5216
1707.439	5177
1709.598	5196
1711.758	5074
1713.917	5191
1716.075	5220
1718.231	5172
1720.388	5097
1722.543	5202
1724.702	5241
1726.856	5226
1729.01	5190
1731.164	5141
1733.317	5247
1735.471	5141
1737.623	5060
1739.774	5156
1741.925	5105
1744.075	5101
1746.225	5184
1748.376	5171
1750.524	5103
1752.672	5150
1754.82	5167
1756.965	5107
1759.113	5215
1761.259	5145
1763.405	5151
1765.549	5197
1767.694	5148
1769.836	5192
1771.981	5046
1774.123	5171
1776.264	5181
1778.405	5153
1780.546	5252
1782.687	5233
1784.827	5168
1786.966	5232
1789.103	5239
1791.242	5212
1793.381	5144
1795.517	5171
1797.653	5247
1799.788	5197
1801.923	5226
1804.057	5209
1806.193	5258
1808.326	5243
1810.457	5185
1812.59	5228
1814.721	5222
1816.855	5145
1818.984	5196
1821.113	5255
1823.244	5133
1825.372	5159
1827.499	5207
1829.63	5189
1831.756	5205
1833.882	5145
1836.007	5153
1838.132	5132
1840.26	5116
1842.384	5173
1844.507	5165
1846.63	5169
1848.752	5148
1850.875	5145
1852.996	5201
1855.118	5150
1857.238	5064
1859.358	5136
1861.477	5073
1863.597	5150
1865.715	5192
1867.832	5122
1869.948	5185
1872.064	5087
1874.181	5210
1876.297	5192
1878.411	5186
1880.526	5163
1882.639	5286
1884.752	5156
1886.865	5136
1888.977	5143
1891.089	5276
1893.2	5192
1895.308	5241
1897.42	5073
1899.53	5260
1901.639	5183
1903.745	5213
1905.853	5188
1907.962	5206
1910.067	5239
1912.174	5234
1914.278	5251
1916.383	5252
1918.486	5185
1920.592	5218
1922.694	5184
1924.797	5220
1926.898	5176
1929	5161
1931.102	5201
1933.203	5267
1935.301	5327
1937.401	5170
1939.499	5229
1941.598	5190
1943.697	5294
1945.793	5186
1947.888	5243
1949.985	5327
1952.08	5272
1954.176	5294
1956.269	5220
1958.364	5276
1960.457	5267
1962.549	5243
1964.642	5185
1966.733	5236
1968.823	5170
1970.913	5359
1973.005	5210
1975.093	5276
1977.184	5245
1979.271	5235
1981.359	5188
1983.446	5278
1985.532	5250
1987.619	5254
1989.705	5192
1991.789	5220
1993.874	5209
1995.956	5179
1998.041	5268
2000.123	5153
2002.206	5298
2004.287	5190
2006.368	5232
2008.449	5214
2010.529	5212
2012.609	5199
2014.688	5089
2016.766	5178
2018.843	5128
2020.922	5201
2022.999	5108
2025.074	5089
2027.15	5189
2029.225	5131
2031.299	5194
2033.375	5174
2035.447	5179
2037.52	5249
2039.592	5194
2041.664	5165
2043.736	5229
2045.807	5152
2047.876	5111
2049.947	5262
2052.015	5153
2054.086	5161
2056.153	5201
2058.221	5164
2060.288	5179
2062.353	5197
2064.42	5166
2066.486	5224
2068.55	5212
2070.614	5190
2072.678	5172
2074.741	5185
2076.805	5300
2078.866	5230
2080.929	5227
2082.99	5216
2085.049	5238
2087.109	5144
2089.17	5248
2091.228	5250
2093.286	5130
2095.344	5154
2097.4	5123
2099.46	5237
2101.516	5233
2103.572	5216
2105.626	5254
2107.679	5125
2109.735	5218
2111.788	5134
2113.841	5257
2115.894	5152
2117.945	5246
2119.997	5159
2122.049	5203
2124.1	5167
2126.148	5228
2128.197	5260
2130.246	5167
2132.296	5187
2134.342	5219
2136.39	5250
2138.437	5112
2140.483	5167
2142.527	5192
2144.574	5207
2146.619	5147
2148.661	5221
2150.705	5172
2152.747	5148
2154.792	5125
2156.832	5134
2158.874	5148
2160.915	5009
2162.954	5079
2164.995	5197
2167.034	5132
2169.072	5137
2171.111	5112
2173.148	5114
2175.186	5158
2177.223	5197
2179.258	5194
2181.294	5126
2183.328	5133
2185.362	5193
2187.398	4999
2189.431	5093
2191.463	5169
2193.495	5125
2195.528	5078
2197.56	5127
2199.59	5078
2201.62	5002
2203.649	5134
2205.678	5143
2207.708	5018
2209.737	5026
2211.764	5053
2213.791	5124
2215.817	5093
2217.843	5059
2219.87	5111
2221.895	5160
2223.919	5127
2225.942	5117
2227.966	5137
2229.988	5048
2232.012	5066
2234.032	5208
2236.054	5014
2238.074	5012
2240.095	5136
2242.116	5092
2244.135	5027
2246.153	4972
2248.171	5091
2250.188	5019
2252.208	5014
2254.223	5065
2256.239	5069
2258.255	5049
2260.269	5088
2262.283	5090
2264.3	5084
2266.312	5063
2268.325	5065
2270.336	5110
2272.349	5016
2274.362	5064
2276.372	5028
2278.383	4909
2280.392	5084
2282.402	5099
2284.409	5065
2286.418	5076
2288.427	5124
2290.433	5115
2292.441	5040
2294.446	5033
2296.453	5102
2298.459	5034
2300.463	5002
2302.466	5029
2304.471	5024
2306.475	5077
2308.477	5002
2310.478	5003
2312.481	5057
2314.481	4976
2316.481	5048
2318.482	5045
2320.482	4995
2322.48	5037
2324.48	5074
2326.478	4992
2328.476	5048
2330.473	5014
2332.469	4924
2334.465	4986
2336.46	4928
2338.454	4928
2340.45	4828
2342.444	5006
2344.437	4977
2346.43	4990
2348.421	4989
2350.414	4932
2352.405	4847
2354.396	4934
2356.386	4914
2358.376	4902
2360.366	4909
2362.355	4962
2364.343	5030
2366.331	4935
2368.317	4946
2370.304	4916
2372.292	4940
2374.278	4999
2376.262	5008
2378.247	4824
2380.23	4835
2382.216	4971
2384.199	4885
2386.181	4887
2388.163	4968
2390.144	4869
2392.127	4838
2394.107	4879
2396.087	4792
2398.066	4850
2400.046	4896
2402.023	4862
2404.004	4878
2405.981	4830
2407.957	4839
2409.934	4838
2411.91	4860
2413.886	4812
2415.862	4874
2417.836	4882
2419.809	4907
2421.784	4815
2423.756	4865
2425.73	4984
2427.701	4845
2429.672	4907
2431.644	4749
2433.615	4854
2435.586	4832
2437.555	4918
2439.523	4912
2441.491	4911
2443.459	4948
2445.428	4930
2447.395	4779
2449.361	4886
2451.327	4878
2453.292	4894
2455.257	4889
2457.223	4837
2459.187	4803
2461.15	4850
2463.113	4912
2465.076	4848
2467.039	4714
2468.999	4880
2470.96	4817
2472.921	4897
2474.881	4970
2476.841	4771
2478.8	4871
2480.759	4913
2482.717	4801
2484.675	4873
2486.63	4912
2488.589	4819
2490.545	4877
2492.5	4789
2494.455	4876
2496.408	4902
2498.364	4829
2500.318	4893
2502.27	4899
2504.223	4844
2506.174	4807
2508.126	4861
2510.078	4781
2512.03	4824
2513.979	4851
2515.927	4870
2517.877	4770
2519.826	4763
2521.775	4720
2523.722	4908
2525.668	4771
2527.616	4756
2529.561	4907
2531.508	4856
2533.452	4774
2535.398	4804
2537.342	4751
2539.284	4801
2541.229	4790
2543.173	4930
2545.114	4731
2547.055	4688
2548.996	4802
2550.938	4797
2552.878	4800
2554.817	4868
2556.756	4796
2558.695	4743
2560.633	4788
2562.572	4706
2564.509	4808
2566.445	4875
2568.382	4680
2570.317	4849
2572.254	4744
2574.189	4698
2576.123	4827
2578.057	4808
2579.99	4812
2581.923	4820
2583.855	4721
2585.788	4832
2587.719	4708
2589.65	4894
2591.579	4750
2593.511	4809
2595.44	4763
2597.37	4713
2599.297	4852
2601.225	4827
2603.153	4851
2605.08	4740
2607.007	4793
2608.932	4795
2610.858	4743
2612.782	4823
2614.709	4837
2616.632	4723
2618.556	4751
2620.478	4797
2622.401	4768
2624.324	4915
2626.247	4792
2628.167	4786
2630.088	4893
2632.008	4820
2633.928	4808
2635.848	4862
2637.766	4764
2639.684	4823
2641.603	4872
2643.519	4816
2645.437	4847
2647.353	4795
2649.27	4792
2651.184	4878
2653.099	4815
2655.014	4753
2656.928	4806
2658.842	4860
2660.755	4820
2662.667	4760
2664.579	4807
2666.491	4789
2668.402	4799
2670.312	4720
2672.222	4709
2674.132	4816
2676.042	4754
2677.951	4778
2679.859	4788
2681.766	4799
2683.674	4714
2685.582	4682
2687.488	4675
2689.392	4751
2691.298	4787
2693.202	4802
2695.107	4844
2697.012	4789
2698.914	4770
2700.817	4710
2702.72	4704
2704.622	4593
2706.524	4830
2708.425	4646
2710.326	4723
2712.225	4711
2714.125	4729
2716.024	4768
2717.923	4740
2719.822	4715
2721.719	4744
2723.616	4720
2725.512	4772
2727.41	4669
2729.305	4677
2731.201	4722
2733.095	4682
2734.99	4727
2736.884	4688
2738.778	4760
2740.67	4710
2742.562	4693
2744.455	4711
2746.346	4673
2748.238	4735
2750.129	4799
2752.018	4653
2753.907	4663
2755.797	4654
2757.687	4769
2759.575	4695
2761.462	4747
2763.349	4719
2765.237	4750
2767.124	4753
2769.009	4654
2770.894	4607
2772.779	4715
2774.663	4682
2776.547	4647
2778.431	4689
2780.314	4689
2782.197	4659
2784.078	4728
2785.96	4736
2787.842	4657
2789.723	4639
2791.603	4645
2793.483	4563
2795.362	4684
2797.241	4601
2799.121	4660
2800.997	4691
2802.874	4690
2804.751	4618
2806.628	4750
2808.506	4716
2810.38	4589
2812.255	4550
2814.13	4668
2816.003	4697
2817.878	4661
2819.752	4657
2821.623	4697
2823.496	4613
2825.368	4651
2827.238	4555
2829.111	4693
2830.98	4658
2832.851	4763
2834.719	4801
2836.589	4642
2838.458	4681
2840.327	4727
2842.193	4655
2844.061	4658
2845.927	4725
2847.794	4721
2849.66	4646
2851.525	4773
2853.39	4708
2855.254	4815
2857.117	4865
2858.983	4804
2860.845	4894
2862.707	4932
2864.569	4893
2866.431	4920
2868.293	4971
2870.154	4975
2872.013	4984
2873.873	5062
2875.733	5118
2877.592	5228
2879.451	5233
2881.309	5338
2883.166	5299
2885.022	5375
2886.879	5362
2888.736	5369
2890.591	5412
2892.446	5302
2894.301	5363
2896.155	5544
2898.009	5460
2899.863	5420
2901.716	5308
2903.568	5320
2905.419	5334
2907.27	5360
2909.123	5404
2910.973	5358
2912.824	5414
2914.673	5440
2916.521	5441
2918.372	5502
2920.22	5668
2922.067	5684
2923.914	5703
2925.761	5880
2927.607	5796
2929.455	5988
2931.301	6076
2933.144	6000
2934.99	6044
2936.833	6182
2938.678	6216
2940.522	6267
2942.364	6427
2944.207	6413
2946.048	6478
2947.891	6494
2949.731	6429
2951.571	6398
2953.412	6396
2955.25	6413
2957.09	6196
2958.93	6188
2960.767	6242
2962.606	6021
2964.443	6090
2966.279	5955
2968.116	5893
2969.953	5770
2971.788	5809
2973.623	5846
2975.457	5610
2977.292	5624
2979.127	5598
2980.959	5513
2982.792	5463
2984.624	5458
2986.455	5455
2988.288	5438
2990.119	5454
2991.949	5408
2993.779	5301
2995.608	5360
2997.439	5224
2999.268	5162
3001.096	5170
3002.923	5181
3004.751	4991
3006.578	4974
3008.406	4883
3010.232	4977
3012.057	4898
3013.883	4795
3015.706	4773
3017.532	4808
3019.356	4719
3021.179	4732
3023.002	4640
3024.823	4594
3026.646	4618
3028.469	4505
3030.289	4549
3032.11	4560
3033.93	4559
3035.749	4517
3037.57	4492
3039.39	4503
3041.207	4490
3043.026	4514
3044.842	4540
3046.661	4611
3048.477	4568
3050.294	4431
3052.109	4492
3053.925	4512
3055.739	4471
3057.555	4481
3059.368	4532
3061.181	4512
3062.995	4480
3064.807	4531
3066.62	4519
3068.433	4460
3070.243	4552
3072.054	4459
3073.865	4463
3075.675	4448
3077.485	4489
3079.293	4437
3081.102	4445
3082.911	4390
3084.719	4455
3086.527	4345
3088.333	4389
3090.139	4423
3091.945	4421
3093.75	4367
3095.557	4332
3097.361	4368
3099.165	4417
3100.969	4325
3102.772	4406
3104.575	4401
3106.379	4276
3108.181	4214
3109.982	4334
3111.783	4296
3113.584	4325
3115.386	4382
3117.186	4292
3118.985	4368
3120.783	4253
3122.582	4267
3124.381	4208
3126.179	4304
3127.975	4318
3129.772	4361
3131.569	4344
3133.365	4315
3135.161	4345
3136.956	4296
3138.751	4349
3140.544	4236
3142.338	4276
3144.132	4206
3145.925	4256
3147.717	4321
3149.509	4293
3151.301	4207
3153.091	4248
3154.884	4250
3156.673	4266
3158.462	4250
3160.252	4264
3162.041	4197
3163.831	4284
3165.618	4198
3167.405	4303
3169.193	4250
3170.979	4197
3172.767	4198
3174.553	4191
3176.338	4244
3178.123	4168
3179.907	4125
3181.692	4295
3183.477	4085
3185.259	4196
3187.042	4247
3188.824	4188
3190.607	4180
3192.389	4306
3194.17	4206
3195.951	4177
3197.73	4230
3199.51	4296
3201.289	4154
3203.07	4267
3204.848	4211
3206.626	4252
3208.403	4213
3210.18	4249
3211.959	4129
3213.735	4230
3215.511	4163
3217.285	4145
3219.06	4286
3220.836	4161
3222.611	4227
3224.384	4259
3226.158	4285
3227.929	4194
3229.702	4275
3231.476	4209
3233.248	4170
3235.018	4224
3236.789	4178
3238.56	4331
3240.33	4159
3242.1	4299
3243.869	4276
3245.637	4214
3247.405	4214
3249.172	4174
3250.941	4342
3252.707	4338
3254.474	4218
3256.24	4260
3258.006	4155
3259.772	4217
3261.537	4172
3263.301	4182
3265.065	4222
3266.828	4219
3268.592	4317
3270.355	4178
3272.117	4152
3273.878	4226
3275.64	4156
3277.401	4254
3279.162	4313
3280.922	4264
3282.682	4243
3284.441	4347
3286.199	4236
3287.959	4246
3289.716	4238
3291.475	4265
3293.232	4236
3294.988	4245
3296.744	4168
3298.501	4296
3300.256	4274
3302.011	4268
3303.766	4321
3305.52	4236
3307.275	4344
3309.028	4300
3310.781	4237
3312.533	4244
3314.285	4283
3316.038	4271
3317.789	4181
3319.54	4278
3321.289	4220
3323.039	4348
3324.789	4323
3326.539	4252
3328.288	4293
3330.035	4273
3331.783	4239
3333.531	4247
3335.28	4363
3337.025	4240
3338.771	4209
3340.518	4251
3342.262	4208
3344.009	4247
3345.753	4231
3347.497	4238
3349.24	4233
3350.983	4193
3352.726	4252
3354.469	4107
3356.212	4172
3357.952	4259
3359.694	4232
3361.434	4220
3363.176	4219
3364.916	4161
3366.654	4106
3368.394	4223
3370.132	4145
3371.871	4238
3373.61	4102
3375.346	4202
3377.083	4161
3378.82	4157
3380.556	4060
3382.292	4033
3384.027	4116
3385.763	4058
3387.497	4177
3389.231	4085
3390.965	4170
3392.698	4157
3394.431	4120
3396.164	4149
3397.896	4008
3399.627	4037
3401.36	4091
3403.09	4109
3404.82	4031
3406.55	3995
3408.279	4116
3410.01	4009
3411.738	4104
3413.467	4006
3415.194	4013
3416.92	4046
3418.647	4131
3420.375	4007
3422.102	4002
3423.827	4079
3425.553	3968
3427.277	3998
3429.003	3989
3430.727	3971
3432.451	3920
3434.173	4055
3435.896	3931
3437.62	3964
3439.343	3978
3441.063	4030
3442.785	3861
3444.505	3995
3446.226	3913
3447.948	3998
3449.666	3960
3451.386	4027
3453.104	3961
3454.823	3896
3456.541	3850
3458.259	3949
3459.976	3900
3461.693	3920
3463.408	3985
3465.125	3856
3466.841	3897
3468.556	3908
3470.271	3885
3471.985	3799
3473.698	3900
3475.414	3812
3477.126	3824
3478.838	3874
3480.55	3823
3482.263	3755
3483.975	3834
3485.686	3802
3487.396	3732
3489.106	3809
3490.817	3725
3492.526	3803
3494.236	3833
3495.944	3754
3497.652	3807
3499.359	3818
3501.066	3741
3502.775	3842
3504.481	3704
3506.187	3740
3507.893	3775
3509.598	3758
3511.304	3769
3513.009	3720
3514.713	3763
3516.417	3638
3518.12	3680
3519.821	3677
3521.525	3746
3523.228	3694
3524.929	3651
3526.631	3746
3528.33	3707
3530.032	3728
3531.733	3620
3533.433	3750
3535.131	3684
3536.83	3678
3538.529	3670
3540.227	3695
3541.925	3655
3543.623	3553
3545.319	3603
3547.016	3620
3548.712	3608
3550.408	3649
3552.103	3554
3553.798	3631
3555.491	3568
3557.188	3684
3558.88	3560
3560.574	3623
3562.266	3638
3563.959	3583
3565.651	3558
3567.343	3594
3569.035	3551
3570.725	3636
3572.415	3573
3574.106	3518
3575.797	3665
3577.485	3562
3579.174	3608
3580.863	3508
3582.551	3554
3584.238	3466
3585.926	3514
3587.613	3531
3589.3	3493
3590.986	3554
3592.671	3463
3594.357	3426
3596.042	3440
3597.726	3439
3599.41	3456
3601.094	3562
3602.778	3492
3604.461	3458
3606.143	3432
3607.825	3459
3609.507	3466
3611.188	3412
3612.87	3400
3614.551	3312
3616.229	3506
3617.909	3398
3619.589	3435
3621.269	3373
3622.948	3328
3624.625	3385
3626.302	3370
3627.98	3327
3629.657	3363
3631.334	3428
3633.01	3388
3634.686	3313
3636.361	3259
3638.036	3279
3639.712	3346
3641.385	3306
3643.06	3306
3644.732	3374
3646.405	3249
3648.08	3265
3649.751	3352
3651.424	3321
3653.094	3235
3654.766	3227
3656.436	3261
3658.106	3283
3659.777	3231
3661.446	3309
3663.115	3297
3664.783	3231
3666.452	3199
3668.121	3292
3669.788	3204
3671.454	3248
3673.121	3238
3674.789	3217
3676.455	3233
3678.12	3215
3679.784	3166
3681.45	3248
3683.114	3217
3684.779	3184
3686.442	3185
3688.105	3221
3689.768	3192
3691.43	3221
3693.093	3138
3694.754	3259
3696.415	3172
3698.076	3235
3699.736	3089
3701.396	3129
3703.057	3197
3704.716	3214
3706.375	3199
3708.034	3230
3709.692	3199
3711.351	3126
3713.008	3117
3714.665	3212
3716.321	3203
3717.977	3150
3719.634	3165
3721.29	3109
3722.945	3202
3724.598	3098
3726.253	3116
3727.907	3036
3729.561	3113
3731.214	3158
3732.867	3156
3734.518	3137
3736.171	3138
3737.824	3134
3739.474	3140
3741.125	3086
3742.775	3078
3744.425	3118
3746.074	3110
3747.725	3141
3749.373	3053
3751.022	3058
3752.669	3101
3754.318	3146
3755.966	3121
3757.612	3119
3759.259	3122
3760.905	3021
3762.55	3119
3764.197	3094
3765.842	3150
3767.486	3099
3769.131	3033
3770.774	3142
3772.417	3096
3774.061	3073
3775.705	3043
3777.347	3108
3778.988	3015
3780.629	2998
3782.271	3041
3783.912	2975
3785.552	3032
3787.192	3039
3788.831	3022
3790.472	2980
3792.112	3009
3793.75	3019
3795.388	2969
3797.024	3016
3798.661	2976
3800.3	3057
3801.936	2954
3803.572	3057
3805.208	2964
3806.844	2904
3808.48	2984
3810.115	3029
3811.748	2978
3813.382	3001
3815.016	2971
3816.649	2976
3818.283	3005
3819.914	3005
3821.547	2952
3823.178	2939
3824.809	2970
3826.441	3011
3828.072	3027
3829.701	3039
3831.331	2996
3832.96	2927
3834.591	2958
3836.219	3037
3837.847	2959
3839.475	2965
3841.102	2891
3842.729	2923
3844.357	2956
3845.984	2851
3847.609	2854
3849.234	2998
3850.86	2969
3852.485	2920
3854.11	2932
3855.734	2923
3857.357	2902
3858.981	2924
3860.603	2915
3862.227	2952
3863.848	2905
3865.471	2943
3867.092	2874
3868.713	2886
3870.334	2889
3871.954	2880
3873.575	2889
3875.194	2885
3876.813	2860
3878.433	2946
3880.051	2890
3881.669	2860
3883.286	2908
3884.904	2895
3886.52	2789
3888.138	2903
3889.754	2940
3891.37	2818
3892.985	2872
3894.6	2863
3896.216	2915
3897.831	2909
3899.444	2870
3901.058	2820
3902.67	2887
3904.283	2843
3905.897	2888
3907.509	2838
3909.121	2827
3910.731	2884
3912.342	2801
3913.954	2835
3915.563	2858
3917.174	2789
3918.783	2890
3920.391	2756
3922.002	2835
3923.611	2843
3925.218	2885
3926.826	2867
3928.432	2762
3930.039	2831
3931.647	2858
3933.253	2796
3934.859	2841
3936.464	2832
3938.068	2770
3939.675	2813
3941.278	2839
3942.883	2818
3944.486	2752
3946.089	2802
3947.692	2773
3949.295	2773
3950.898	2797
3952.499	2804
3954.1	2832
3955.7	2804
3957.303	2832
3958.903	2794
3960.502	2703
3962.101	2746
3963.7	2753
3965.301	2772
3966.899	2757
3968.497	2782
3970.094	2811
3971.691	2737
3973.288	2756
3974.885	2730
3976.481	2759
3978.077	2737
3979.672	2738
3981.267	2724
3982.863	2822
3984.457	2668
3986.051	2805
3987.645	2671
3989.238	2718
3990.831	2726
3992.425	2728
3994.017	2709
3995.607	2749
3997.199	2753
3998.79	2683
4000.382	2654
4001.973	2684
4003.561	2690
4005.151	2722
4006.741	2746
4008.331	2688
4009.918	2681
4011.507	2690
4013.095	2613
4014.681	2717
4016.269	2675
4017.856	2630
4019.443	2678
4021.028	2673
4022.614	2646
4024.199	2681
4025.785	2649
4027.37	2686
4028.953	2637
4030.536	2625
4032.12	2580
4033.704	2661
4035.287	2665
4036.869	2646
4038.45	2610
4040.032	2657
4041.613	2560
4043.195	2613
4044.776	2594
4046.356	2654
4047.935	2597
4049.515	2652
4051.095	2545
4052.674	2625
4054.251	2635
4055.829	2554
4057.406	2613
4058.985	2542
4060.562	2582
4062.139	2546
4063.715	2558
4065.29	2601
4066.865	2549
4068.442	2541
4070.016	2618
4071.59	2661
4073.164	2539
4074.738	2557
4076.312	2575
4077.885	2507
4079.458	2604
4081.03	2570
4082.602	2540
4084.173	2604
4085.745	2523
4087.315	2516
4088.886	2556
4090.456	2567
4092.026	2532
4093.596	2565
4095.165	2532
4096.734	2485
4098.301	2507
4099.869	2614
4101.437	2607
4103.006	2514
4104.572	2527
4106.139	2573
4107.704	2561
4109.27	2481
4110.837	2550
4112.401	2506
4113.966	2504
4115.53	2507
4117.094	2523
4118.659	2541
4120.223	2510
4121.785	2499
4123.347	2541
4124.909	2494
4126.471	2445
4128.034	2519
4129.595	2513
4131.155	2497
4132.716	2498
4134.275	2455
4135.836	2426
4137.395	2459
4138.955	2472
4140.513	2463
4142.071	2476
4143.628	2431
4145.188	2542
4146.745	2440
4148.302	2400
4149.858	2433
4151.414	2414
4152.971	2494
4154.526	2441
4156.081	2459
4157.635	2424
4159.189	2496
4160.745	2459
4162.298	2409
4163.852	2416
4165.405	2423
4166.957	2475
4168.51	2402
4170.063	2411
4171.614	2443
4173.166	2473
4174.717	2452
4176.267	2365
4177.817	2362
4179.368	2427
4180.917	2395
4182.466	2461
4184.016	2428
4185.564	2335
4187.112	2378
4188.66	2388
4190.207	2346
4191.754	2383
4193.301	2381
4194.848	2337
4196.394	2375
4197.94	2368
4199.484	2401
4201.03	2372
4202.575	2325
4204.12	2347
4205.663	2376
4207.207	2349
4208.75	2387
4210.292	2372
4211.836	2371
4213.378	2355
4214.92	2352
4216.46	2330
4218.002	2353
4219.544	2348
4221.083	2303
4222.625	2298
4224.164	2320
4225.703	2322
4227.244	2371
4228.782	2326
4230.32	2368
4231.857	2331
4233.395	2295
4234.933	2382
4236.471	2333
4238.007	2315
4239.542	2251
4241.078	2312
4242.614	2283
4244.15	2325
4245.685	2302
4247.219	2309
4248.753	2344
4250.287	2330
4251.82	2300
4253.354	2336
4254.887	2321
4256.419	2298
4257.951	2298
4259.483	2262
4261.016	2368
4262.547	2308
4264.078	2295
4265.608	2313
4267.137	2275
4268.668	2245
4270.197	2283
4271.727	2257
4273.254	2266
4274.783	2293
4276.311	2270
4277.84	2207
4279.366	2297
4280.894	2305
4282.42	2236
4283.946	2299
4285.473	2237
4286.998	2263
4288.523	2235
4290.047	2224
4291.572	2223
4293.096	2246
4294.622	2253
4296.144	2226
4297.668	2240
4299.19	2261
4300.713	2247
4302.236	2222
4303.758	2225
4305.279	2236
4306.799	2253
4308.321	2203
4309.842	2257
4311.361	2222
4312.882	2245
4314.401	2219
