400.0961	5212
402.6185	5334
405.1424	5175
407.6635	5353
410.1838	5295
412.7035	5328
415.2225	5430
417.7388	5422
420.2585	5426
422.7754	5536
425.2917	5469
427.8072	5622
430.3221	5635
432.8363	5629
435.3498	5690
437.8626	5665
440.3727	5575
442.8841	5655
445.3969	5647
447.907	5654
450.4142	5734
452.9229	5592
455.4289	5641
457.9362	5578
460.4449	5563
462.9488	5604
465.454	5675
467.9566	5611
470.4604	5601
472.9637	5535
475.4662	5629
477.966	5570
480.4671	5761
482.9656	5772
485.4633	5715
487.9645	5696
490.4608	5741
492.9566	5694
495.4536	5830
497.948	5680
500.4437	5841
502.9387	5679
505.431	5801
507.9226	5765
510.4136	5824
512.9079	5843
515.3975	5861
517.8864	5876
520.3746	5901
522.8622	5867
525.3491	5895
527.8394	5991
530.3249	5856
532.8098	5871
535.2939	5781
537.7774	5941
540.2623	5829
542.7444	5789
545.2259	5941
547.7067	5891
550.1868	5868
552.6683	5930
555.147	5951
557.6231	5895
560.1005	5886
562.5773	5946
565.0534	5992
567.5308	5907
570.0056	5986
572.4776	6082
574.951	6080
577.4237	6040
579.8978	6005
582.3671	6047
584.8378	6044
587.3079	6066
589.7773	6107
592.244	6157
594.714	6040
597.1793	6040
599.6461	6085
602.1121	6150
604.5754	5991
607.0421	6142
609.5042	6089
611.9675	6105
614.4282	6119
616.8902	6069
619.3515	6009
621.8122	6031
624.2702	6064
626.7296	6005
629.1863	5978
631.6423	5973
634.1017	6006
636.5563	5956
639.0104	5982
641.4658	6034
643.9185	6049
646.3725	5988
648.8239	6125
651.2766	6140
653.7266	6038
656.176	6159
658.6247	6175
661.0748	6148
663.5242	6188
665.9709	6161
668.417	6127
670.8624	6128
673.3092	6220
675.7533	6169
678.1968	6253
680.6395	6293
683.0817	6313
685.5251	6204
687.9659	6290
690.4061	6324
692.8456	6215
695.2844	6362
697.7226	6348
700.1621	6409
702.599	6269
705.0332	6289
707.4688	6213
709.9036	6320
712.3399	6316
714.7735	6402
717.2044	6281
719.6367	6424
722.0683	6413
724.4993	6454
726.9296	6413
729.3593	6398
731.7883	6420
734.2147	6458
736.6423	6378
739.0714	6512
741.4958	6524
743.9216	6468
746.3447	6563
748.7691	6567
751.1929	6631
753.616	6656
756.0366	6562
758.4584	6557
760.8776	6655
763.2982	6662
765.718	6564
768.1373	6632
770.5539	6593
772.9698	6659
775.3871	6599
777.8038	6659
780.2178	6706
782.6332	6627
785.0459	6662
787.458	6665
789.8714	6622
792.2842	6575
794.6943	6716
797.1038	6799
799.5127	6668
801.9209	6584
804.3324	6818
806.7393	6680
809.1456	6740
811.5513	6789
813.9562	6829
816.3625	6825
818.7663	6833
821.1693	6786
823.5718	6875
825.9735	6836
828.3746	6831
830.7771	6766
833.177	6722
835.5762	6940
837.9747	6843
840.3727	6883
842.772	6898
845.1666	6983
847.5626	6921
849.958	6921
852.3527	7135
854.7488	6985
857.1403	6918
859.5331	6953
861.9253	6894
864.3168	6985
866.7057	6935
869.098	6907
871.4876	7005
873.8746	6975
876.263	6993
878.6487	6999
881.0378	6928
883.4243	6954
885.8081	6918
888.1933	6905
890.5759	6944
892.9598	6827
895.343	7052
897.7256	6965
900.1057	6967
902.4871	6986
904.8659	7102
907.246	6953
909.6254	6871
912.0023	7039
914.3786	6996
916.7562	7144
919.1331	7165
921.5074	7348
923.8831	7337
926.2562	7262
928.6287	7348
931.0005	7192
933.3757	7308
935.7462	7344
938.1162	7192
940.4855	7357
942.8542	7476
945.2242	7504
947.5916	7649
949.9584	7770
952.3266	7988
954.6921	8150
957.0571	8380
959.4233	8777
961.787	8741
964.15	8956
966.5125	8598
968.8742	8217
971.2354	7902
973.5959	7794
975.9559	7488
978.3151	7427
980.6738	7286
983.0338	7077
985.3912	7314
987.7461	7130
990.1022	7208
992.4578	7190
994.8127	7089
997.1689	7274
999.5207	7264
1001.874	7216
1004.226	7382
1006.576	7206
1008.929	7367
1011.28	7292
1013.628	7148
1015.977	7220
1018.324	7145
1020.674	7241
1023.019	7237
1025.366	7426
1027.713	7269
1030.056	7340
1032.399	7318
1034.746	7310
1037.087	7381
1039.431	7385
1041.771	7275
1044.113	7449
1046.454	7352
1048.793	7356
1051.133	7364
1053.471	7389
1055.807	7457
1058.146	7366
1060.483	7518
1062.818	7412
1065.153	7479
1067.489	7597
1069.822	7489
1072.156	7400
1074.488	7561
1076.82	7552
1079.15	7510
1081.48	7381
1083.814	7409
1086.143	7474
1088.471	7408
1090.799	7259
1093.126	7420
1095.452	7436
1097.78	7354
1100.105	7416
1102.43	7398
1104.754	7369
1107.077	7324
1109.4	7378
1111.722	7375
1114.044	7346
1116.365	7364
1118.685	7406
1121.005	7295
1123.324	7395
1125.643	7389
1127.961	7476
1130.278	7453
1132.595	7448
1134.911	7285
1137.226	7479
1139.541	7405
1141.854	7407
1144.167	7336
1146.482	7327
1148.793	7445
1151.105	7496
1153.414	7403
1155.725	7345
1158.033	7476
1160.344	7386
1162.651	7536
1164.959	7350
1167.265	7521
1169.572	7382
1171.878	7362
1174.184	7461
1176.488	7406
1178.79	7426
1181.094	7522
1183.396	7455
1185.699	7389
1188.001	7471
1190.301	7386
1192.6	7407
1194.9	7486
1197.2	7587
1199.497	7307
1201.794	7468
1204.09	7438
1206.387	7569
1208.684	7502
1210.978	7517
1213.272	7379
1215.565	7440
1217.858	7480
1220.15	7546
1222.443	7452
1224.734	7426
1227.024	7622
1229.313	7625
1231.602	7635
1233.892	7605
1236.18	7767
1238.467	7715
1240.754	7738
1243.04	7789
1245.325	7797
1247.612	7837
1249.896	7757
1252.178	7803
1254.461	7865
1256.743	7750
1259.027	7694
1261.308	7728
1263.587	7721
1265.867	7872
1268.146	7826
1270.425	7883
1272.703	7720
1274.981	7885
1277.256	7693
1279.532	7773
1281.808	7713
1284.083	7868
1286.358	7697
1288.63	7767
1290.904	7635
1293.175	7479
1295.449	7685
1297.719	7735
1299.99	7681
1302.259	7630
1304.529	7540
1306.798	7693
1309.065	7637
1311.333	7611
1313.599	7602
1315.866	7633
1318.131	7635
1320.396	7548
1322.66	7761
1324.925	7709
1327.187	7574
1329.448	7650
1331.711	7637
1333.974	7737
1336.234	7559
1338.493	7743
1340.752	7631
1343.01	7686
1345.269	7762
1347.526	7700
1349.784	7801
1352.04	7632
1354.295	7603
1356.552	7619
1358.806	7594
1361.059	7698
1363.312	7668
1365.564	7784
1367.818	7701
1370.069	7769
1372.318	7823
1374.568	7619
1376.817	7763
1379.066	7720
1381.316	7699
1383.564	7713
1385.809	7700
1388.056	7699
1390.301	7795
1392.549	7807
1394.793	7837
1397.036	7917
1399.279	7988
1401.522	7977
1403.763	8017
1406.007	7834
1408.248	8001
1410.487	7856
1412.727	7822
1414.965	7910
1417.205	7979
1419.442	7852
1421.68	7894
1423.915	7960
1426.152	7954
1428.388	7995
1430.623	8013
1432.857	8056
1435.091	7928
1437.323	8116
1439.556	7939
1441.789	8085
1444.019	8098
1446.25	8069
1448.48	8129
1450.708	8063
1452.938	8140
1455.167	8116
1457.394	8285
1459.62	8209
1461.846	8142
1464.073	8271
1466.299	8158
1468.523	8105
1470.746	7871
1472.969	7980
1475.191	7819
1477.415	8050
1479.636	7922
1481.858	7802
1484.078	7801
1486.298	7727
1488.518	7715
1490.736	7777
1492.954	7630
1495.169	7738
1497.386	7707
1499.602	7778
1501.819	7705
1504.034	7700
1506.248	7728
1508.462	7631
1510.675	7645
1512.888	7704
1515.1	7700
1517.311	7809
1519.522	7792
1521.732	7603
1523.942	7723
1526.151	7678
1528.36	7652
1530.566	7685
1532.773	7682
1534.98	7667
1537.187	7776
1539.392	7696
1541.596	7776
1543.801	7744
1546.005	7742
1548.208	7842
1550.411	7828
1552.612	7809
1554.814	7725
1557.013	7737
1559.212	7824
1561.414	7896
1563.612	7845
1565.811	7914
1568.007	7964
1570.203	7920
1572.403	7814
1574.598	7972
1576.792	7879
1578.988	7893
1581.181	7919
1583.376	7840
1585.568	7790
1587.761	7929
1589.952	7967
1592.143	7886
1594.333	7959
1596.524	7908
1598.715	7920
1600.903	8029
1603.091	7821
1605.278	7938
1607.466	7942
1609.652	7998
1611.838	7866
1614.023	7954
1616.207	7934
1618.391	8007
1620.576	7935
1622.759	8169
1624.941	7961
1627.123	7903
1629.304	8131
1631.484	8017
1633.664	8012
1635.844	7937
1638.022	8174
1640.201	8084
1642.38	8052
1644.556	8136
1646.732	8078
1648.908	8078
1651.084	8027
1653.257	8184
1655.433	8089
1657.607	8170
1659.779	8058
1661.951	8074
1664.122	8258
1666.295	8088
1668.467	8195
1670.635	8188
1672.805	8193
1674.973	8050
1677.142	8356
1679.31	8269
1681.478	8125
1683.644	8088
1685.81	8125
1687.975	8035
1690.142	8144
1692.305	8174
1694.468	8168
1696.632	8048
1698.794	8122
1700.957	8112
1703.119	8095
1705.279	7912
1707.439	7956
1709.598	7999
1711.758	7888
1713.917	7907
1716.075	8022
1718.231	7964
1720.388	7939
1722.543	7928
1724.702	8047
1726.856	7880
1729.01	7989
1731.164	7795
1733.317	7925
1735.471	8028
1737.623	7876
1739.774	7924
1741.925	7999
1744.075	7961
1746.225	7916
1748.376	7842
1750.524	8068
1752.672	7951
1754.82	7952
1756.965	7942
1759.113	8040
1761.259	7971
1763.405	7968
1765.549	8059
1767.694	7949
1769.836	8027
1771.981	7926
1774.123	8035
1776.264	7973
1778.405	8145
1780.546	8029
1782.687	8026
1784.827	8126
1786.966	8015
1789.103	8046
1791.242	8118
1793.381	7936
1795.517	8017
1797.653	8096
1799.788	8020
1801.923	8016
1804.057	7940
1806.193	7928
1808.326	8092
1810.457	7986
1812.59	7918
1814.721	7989
1816.855	8010
1818.984	7908
1821.113	7995
1823.244	7897
1825.372	7842
1827.499	8050
1829.63	7973
1831.756	8034
1833.882	8028
1836.007	7986
1838.132	8019
1840.26	7989
1842.384	7947
1844.507	8030
1846.63	8098
1848.752	7935
1850.875	7898
1852.996	7982
1855.118	7950
1857.238	7900
1859.358	7829
1861.477	8000
1863.597	7881
1865.715	7942
1867.832	7815
1869.948	7854
1872.064	7930
1874.181	8083
1876.297	7899
1878.411	8126
1880.526	8031
1882.639	8003
1884.752	7926
1886.865	7940
1888.977	8029
1891.089	7954
1893.2	7909
1895.308	8024
1897.42	8030
1899.53	8055
1901.639	7898
1903.745	8052
1905.853	8068
1907.962	8007
1910.067	8058
1912.174	8048
1914.278	8056
1916.383	8108
1918.486	7994
1920.592	8009
1922.694	7961
1924.797	8128
1926.898	8006
1929	8002
1931.102	8049
1933.203	8149
1935.301	8034
1937.401	8016
1939.499	8027
1941.598	8078
1943.697	8084
1945.793	8083
1947.888	8246
1949.985	8113
1952.08	8167
1954.176	8087
1956.269	8072
1958.364	8153
1960.457	8108
1962.549	7990
1964.642	8048
1966.733	8029
1968.823	8023
1970.913	7894
1973.005	8074
1975.093	7990
1977.184	8210
1979.271	7989
1981.359	8068
1983.446	8009
1985.532	8013
1987.619	8050
1989.705	8052
1991.789	7995
1993.874	8077
1995.956	8074
1998.041	8010
2000.123	8000
2002.206	8012
2004.287	7994
2006.368	8049
2008.449	7924
2010.529	8008
2012.609	7987
2014.688	8058
2016.766	7924
2018.843	7863
2020.922	8084
2022.999	8078
2025.074	7932
2027.15	7907
2029.225	7967
2031.299	7905
2033.375	7964
2035.447	7969
2037.52	7970
2039.592	8057
2041.664	7997
2043.736	7925
2045.807	7936
2047.876	7882
2049.947	7967
2052.015	7912
2054.086	7918
2056.153	8062
2058.221	8055
2060.288	7905
2062.353	8015
2064.42	7975
2066.486	7974
2068.55	8032
2070.614	8020
2072.678	8117
2074.741	8046
2076.805	7920
2078.866	7783
2080.929	7990
2082.99	7924
2085.049	7995
2087.109	8059
2089.17	7927
2091.228	8052
2093.286	7994
2095.344	7936
2097.4	7977
2099.46	8004
2101.516	8096
2103.572	7959
2105.626	8016
2107.679	7811
2109.735	8022
2111.788	7864
2113.841	8079
2115.894	7928
2117.945	7941
2119.997	7991
2122.049	7943
2124.1	7968
2126.148	7917
2128.197	7995
2130.246	7887
2132.296	8024
2134.342	7964
2136.39	8010
2138.437	8014
2140.483	7843
2142.527	7992
2144.574	7893
2146.619	7984
2148.661	7946
2150.705	7918
2152.747	8009
2154.792	7806
2156.832	7967
2158.874	7956
2160.915	7867
2162.954	7901
2164.995	7881
2167.034	7946
2169.072	7867
2171.111	7798
2173.148	7922
2175.186	7914
2177.223	7938
2179.258	7796
2181.294	7854
2183.328	7987
2185.362	7927
2187.398	7875
2189.431	7863
2191.463	7772
2193.495	7692
2195.528	7787
2197.56	7931
2199.59	7694
2201.62	7843
2203.649	7823
2205.678	7797
2207.708	7745
2209.737	7876
2211.764	7733
2213.791	7814
2215.817	7867
2217.843	7687
2219.87	7815
2221.895	7805
2223.919	7727
2225.942	7760
2227.966	7713
2229.988	7742
2232.012	7622
2234.032	7747
2236.054	7661
2238.074	7728
2240.095	7821
2242.116	7655
2244.135	7810
2246.153	7697
2248.171	7828
2250.188	7737
2252.208	7671
2254.223	7663
2256.239	7810
2258.255	7852
2260.269	7775
2262.283	7743
2264.3	7773
2266.312	7669
2268.325	7740
2270.336	7760
2272.349	7729
2274.362	7714
2276.372	7800
2278.383	7803
2280.392	7685
2282.402	7832
2284.409	7757
2286.418	7586
2288.427	7725
2290.433	7779
2292.441	7739
2294.446	7683
2296.453	7781
2298.459	7772
2300.463	7814
2302.466	7682
2304.471	7606
2306.475	7685
2308.477	7784
2310.478	7726
2312.481	7872
2314.481	7635
2316.481	7664
2318.482	7523
2320.482	7681
2322.48	7661
2324.48	7695
2326.478	7628
2328.476	7529
2330.473	7566
2332.469	7597
2334.465	7754
2336.46	7579
2338.454	7655
2340.45	7686
2342.444	7617
2344.437	7607
2346.43	7634
2348.421	7572
2350.414	7608
2352.405	7591
2354.396	7525
2356.386	7420
2358.376	7536
2360.366	7519
2362.355	7449
2364.343	7505
2366.331	7641
2368.317	7658
2370.304	7678
2372.292	7532
2374.278	7530
2376.262	7577
2378.247	7507
2380.23	7540
2382.216	7524
2384.199	7479
2386.181	7443
2388.163	7527
2390.144	7443
2392.127	7488
2394.107	7446
2396.087	7519
2398.066	7413
2400.046	7628
2402.023	7399
2404.004	7422
2405.981	7451
2407.957	7587
2409.934	7599
2411.91	7417
2413.886	7411
2415.862	7461
2417.836	7477
2419.809	7405
2421.784	7403
2423.756	7462
2425.73	7513
2427.701	7578
2429.672	7517
2431.644	7555
2433.615	7556
2435.586	7353
2437.555	7326
2439.523	7403
2441.491	7444
2443.459	7485
2445.428	7432
2447.395	7466
2449.361	7522
2451.327	7435
2453.292	7487
2455.257	7355
2457.223	7436
2459.187	7298
2461.15	7441
2463.113	7361
2465.076	7416
2467.039	7401
2468.999	7411
2470.96	7368
2472.921	7398
2474.881	7453
2476.841	7304
2478.8	7348
2480.759	7386
2482.717	7277
2484.675	7388
2486.63	7402
2488.589	7361
2490.545	7320
2492.5	7266
2494.455	7223
2496.408	7459
2498.364	7282
2500.318	7356
2502.27	7359
2504.223	7251
2506.174	7410
2508.126	7294
2510.078	7321
2512.03	7378
2513.979	7356
2515.927	7142
2517.877	7143
2519.826	7218
2521.775	7275
2523.722	7218
2525.668	7303
2527.616	7289
2529.561	7225
2531.508	7295
2533.452	7201
2535.398	7257
2537.342	7359
2539.284	7266
2541.229	7250
2543.173	7210
2545.114	7241
2547.055	7238
2548.996	7238
2550.938	7239
2552.878	7127
2554.817	7216
2556.756	7189
2558.695	7235
2560.633	7254
2562.572	7134
2564.509	7262
2566.445	7226
2568.382	7225
2570.317	7381
2572.254	7266
2574.189	7241
2576.123	7165
2578.057	7244
2579.99	7291
2581.923	7301
2583.855	7303
2585.788	7245
2587.719	7279
2589.65	7385
2591.579	7231
2593.511	7239
2595.44	7217
2597.37	7256
2599.297	7217
2601.225	7355
2603.153	7159
2605.08	7188
2607.007	7115
2608.932	7025
2610.858	7306
2612.782	7399
2614.709	7267
2616.632	7330
2618.556	7312
2620.478	7240
2622.401	7291
2624.324	7378
2626.247	7211
2628.167	7294
2630.088	7327
2632.008	7288
2633.928	7262
2635.848	7167
2637.766	7264
2639.684	7395
2641.603	7264
2643.519	7292
2645.437	7364
2647.353	7312
2649.27	7347
2651.184	7348
2653.099	7432
2655.014	7419
2656.928	7320
2658.842	7258
2660.755	7263
2662.667	7258
2664.579	7319
2666.491	7167
2668.402	7323
2670.312	7233
2672.222	7172
2674.132	7303
2676.042	7331
2677.951	7105
2679.859	7279
2681.766	7203
2683.674	7260
2685.582	7206
2687.488	7222
2689.392	7330
2691.298	7126
2693.202	7193
2695.107	7158
2697.012	7188
2698.914	7198
2700.817	7092
2702.72	7131
2704.622	7094
2706.524	7148
2708.425	7146
2710.326	7100
2712.225	7083
2714.125	7046
2716.024	7251
2717.923	7159
2719.822	6991
2721.719	7088
2723.616	7033
2725.512	7059
2727.41	7102
2729.305	7029
2731.201	7068
2733.095	7118
2734.99	7157
2736.884	7108
2738.778	7258
2740.67	7038
2742.562	7062
2744.455	7058
2746.346	7063
2748.238	7045
2750.129	7117
2752.018	7061
2753.907	6982
2755.797	7100
2757.687	7144
2759.575	7089
2761.462	7068
2763.349	7077
2765.237	7042
2767.124	7022
2769.009	7065
2770.894	6981
2772.779	7018
2774.663	7069
2776.547	6877
2778.431	7171
2780.314	6998
2782.197	6988
2784.078	7045
2785.96	6977
2787.842	6893
2789.723	7044
2791.603	6978
2793.483	7063
2795.362	6969
2797.241	6971
2799.121	6916
2800.997	7015
2802.874	7127
2804.751	7000
2806.628	6963
2808.506	7041
2810.38	6946
2812.255	6840
2814.13	7076
2816.003	7078
2817.878	6850
2819.752	6933
2821.623	7048
2823.496	6981
2825.368	7039
2827.238	6955
2829.111	6977
2830.98	6902
2832.851	7009
2834.719	6951
2836.589	6935
2838.458	7004
2840.327	7012
2842.193	7033
2844.061	6886
2845.927	6974
2847.794	7088
2849.66	7082
2851.525	7144
2853.39	7115
2855.254	7072
2857.117	7129
2858.983	7172
2860.845	7147
2862.707	7117
2864.569	7214
2866.431	7163
2868.293	7216
2870.154	7227
2872.013	7351
2873.873	7269
2875.733	7398
2877.592	7390
2879.451	7406
2881.309	7680
2883.166	7546
2885.022	7603
2886.879	7774
2888.736	7648
2890.591	7678
2892.446	7593
2894.301	7614
2896.155	7610
2898.009	7640
2899.863	7584
2901.716	7738
2903.568	7540
2905.419	7550
2907.27	7556
2909.123	7600
2910.973	7615
2912.824	7678
2914.673	7674
2916.521	7782
2918.372	7768
2920.22	7859
2922.067	7989
2923.914	7964
2925.761	8048
2927.607	8055
2929.455	8135
2931.301	8149
2933.144	8200
2934.99	8272
2936.833	8344
2938.678	8563
2940.522	8362
2942.364	8588
2944.207	8604
2946.048	8646
2947.891	8722
2949.731	8663
2951.571	8534
2953.412	8519
2955.25	8544
2957.09	8489
2958.93	8409
2960.767	8407
2962.606	8251
2964.443	8296
2966.279	8260
2968.116	8031
2969.953	7932
2971.788	7958
2973.623	7866
2975.457	7934
2977.292	7770
2979.127	7684
2980.959	7781
2982.792	7814
2984.624	7682
2986.455	7704
2988.288	7558
2990.119	7509
2991.949	7570
2993.779	7474
2995.608	7368
2997.439	7394
2999.268	7394
3001.096	7418
3002.923	7186
3004.751	7156
3006.578	7202
3008.406	7132
3010.232	7077
3012.057	6970
3013.883	6997
3015.706	6945
3017.532	6965
3019.356	6865
3021.179	6806
3023.002	6796
3024.823	6594
3026.646	6710
3028.469	6750
3030.289	6669
3032.11	6607
3033.93	6794
3035.749	6812
3037.57	6645
3039.39	6557
3041.207	6575
3043.026	6672
3044.842	6723
3046.661	6715
3048.477	6518
3050.294	6525
3052.109	6651
3053.925	6537
3055.739	6467
3057.555	6651
3059.368	6656
3061.181	6634
3062.995	6546
3064.807	6564
3066.62	6523
3068.433	6555
3070.243	6504
3072.054	6511
3073.865	6463
3075.675	6544
3077.485	6475
3079.293	6472
3081.102	6537
3082.911	6553
3084.719	6426
3086.527	6363
3088.333	6501
3090.139	6549
3091.945	6363
3093.75	6423
3095.557	6414
3097.361	6348
3099.165	6456
3100.969	6370
3102.772	6372
3104.575	6379
3106.379	6264
3108.181	6355
3109.982	6397
3111.783	6236
3113.584	6342
3115.386	6341
3117.186	6304
3118.985	6176
3120.783	6250
3122.582	6306
3124.381	6287
3126.179	6383
3127.975	6301
3129.772	6427
3131.569	6282
3133.365	6331
3135.161	6287
3136.956	6307
3138.751	6264
3140.544	6212
3142.338	6283
3144.132	6181
3145.925	6288
3147.717	6195
3149.509	6173
3151.301	6263
3153.091	6192
3154.884	6189
3156.673	6195
3158.462	6196
3160.252	6136
3162.041	6133
3163.831	6232
3165.618	6191
3167.405	6230
3169.193	6161
3170.979	6148
3172.767	6124
3174.553	6182
3176.338	6130
3178.123	6249
3179.907	6115
3181.692	6117
3183.477	6111
3185.259	6168
3187.042	6164
3188.824	6039
3190.607	6220
3192.389	6115
3194.17	6156
3195.951	6120
3197.73	6178
3199.51	6187
3201.289	6136
3203.07	6064
3204.848	6112
3206.626	6062
3208.403	6118
3210.18	6056
3211.959	6138
3213.735	6003
3215.511	6050
3217.285	6057
3219.06	6128
3220.836	5983
3222.611	6010
3224.384	6119
3226.158	6166
3227.929	6136
3229.702	6181
3231.476	6110
3233.248	6062
3235.018	6089
3236.789	6108
3238.56	6119
3240.33	6020
3242.1	6092
3243.869	6026
3245.637	6089
3247.405	6052
3249.172	6053
3250.941	6055
3252.707	6008
3254.474	6153
3256.24	5992
3258.006	6074
3259.772	6119
3261.537	6093
3263.301	6020
3265.065	5985
3266.828	6043
3268.592	6101
3270.355	6055
3272.117	6001
3273.878	5971
3275.64	6072
3277.401	6025
3279.162	6085
3280.922	6069
3282.682	5995
3284.441	6055
3286.199	5977
3287.959	6122
3289.716	6038
3291.475	6142
3293.232	6044
3294.988	6144
3296.744	6004
3298.501	6073
3300.256	6034
3302.011	6172
3303.766	6034
3305.52	6096
3307.275	6037
3309.028	6041
3310.781	6003
3312.533	6094
3314.285	5951
3316.038	5957
3317.789	6040
3319.54	6055
3321.289	6047
3323.039	5997
3324.789	5983
3326.539	6028
3328.288	6044
3330.035	6080
3331.783	6050
3333.531	6001
3335.28	5957
3337.025	5963
3338.771	6031
3340.518	6063
3342.262	5996
3344.009	6071
3345.753	5964
3347.497	5912
3349.24	5968
3350.983	5983
3352.726	5813
3354.469	5860
3356.212	5820
3357.952	5850
3359.694	5991
3361.434	5933
3363.176	5900
3364.916	6051
3366.654	5852
3368.394	5909
3370.132	5874
3371.871	5828
3373.61	5988
3375.346	5842
3377.083	5871
3378.82	5833
3380.556	5870
3382.292	5857
3384.027	5740
3385.763	5852
3387.497	5847
3389.231	5799
3390.965	5781
3392.698	5863
3394.431	5877
3396.164	5758
3397.896	5714
3399.627	5784
3401.36	5776
3403.09	5853
3404.82	5765
3406.55	5879
3408.279	5898
3410.01	5726
3411.738	5761
3413.467	5722
3415.194	5705
3416.92	5789
3418.647	5760
3420.375	5626
3422.102	5808
3423.827	5747
3425.553	5583
3427.277	5773
3429.003	5759
3430.727	5641
3432.451	5766
3434.173	5716
3435.896	5681
3437.62	5757
3439.343	5629
3441.063	5637
3442.785	5732
3444.505	5588
3446.226	5690
3447.948	5641
3449.666	5532
3451.386	5554
3453.104	5603
3454.823	5572
3456.541	5486
3458.259	5598
3459.976	5583
3461.693	5445
3463.408	5592
3465.125	5475
3466.841	5468
3468.556	5432
3470.271	5467
3471.985	5543
3473.698	5504
3475.414	5554
3477.126	5567
3478.838	5503
3480.55	5435
3482.263	5538
3483.975	5406
3485.686	5471
3487.396	5373
3489.106	5480
3490.817	5434
3492.526	5423
3494.236	5297
3495.944	5430
3497.652	5401
3499.359	5343
3501.066	5365
3502.775	5278
3504.481	5374
3506.187	5380
3507.893	5281
3509.598	5211
3511.304	5360
3513.009	5224
3514.713	5255
3516.417	5277
3518.12	5321
3519.821	5294
3521.525	5242
3523.228	5313
3524.929	5313
3526.631	5273
3528.33	5175
3530.032	5357
3531.733	5280
3533.433	5291
3535.131	5252
3536.83	5203
3538.529	5261
3540.227	5232
3541.925	5131
3543.623	5236
3545.319	5210
3547.016	5207
3548.712	5201
3550.408	5183
3552.103	5268
3553.798	5186
3555.491	5174
3557.188	5089
3558.88	5183
3560.574	5127
3562.266	5146
3563.959	5225
3565.651	5207
3567.343	5133
3569.035	5086
3570.725	5110
3572.415	5089
3574.106	5126
3575.797	5141
3577.485	5077
3579.174	5116
3580.863	5109
3582.551	5026
3584.238	4930
3585.926	5129
3587.613	5096
3589.3	4995
3590.986	5059
3592.671	5004
3594.357	5060
3596.042	5053
3597.726	4939
3599.41	5058
3601.094	4959
3602.778	5069
3604.461	4994
3606.143	4943
3607.825	4980
3609.507	4938
3611.188	4918
3612.87	4914
3614.551	4996
3616.229	4809
3617.909	4791
3619.589	4805
3621.269	4984
3622.948	4911
3624.625	4833
3626.302	4903
3627.98	4882
3629.657	4881
3631.334	4846
3633.01	4837
3634.686	4863
3636.361	4911
3638.036	4744
3639.712	4807
3641.385	4864
3643.06	4748
3644.732	4765
3646.405	4781
3648.08	4709
3649.751	4856
3651.424	4725
3653.094	4841
3654.766	4645
3656.436	4763
3658.106	4783
3659.777	4820
3661.446	4743
3663.115	4720
3664.783	4766
3666.452	4760
3668.121	4743
3669.788	4725
3671.454	4762
3673.121	4694
3674.789	4639
3676.455	4703
3678.12	4683
3679.784	4707
3681.45	4684
3683.114	4657
3684.779	4714
3686.442	4615
3688.105	4636
3689.768	4598
3691.43	4713
3693.093	4663
3694.754	4688
3696.415	4599
3698.076	4688
3699.736	4739
3701.396	4685
3703.057	4595
3704.716	4651
3706.375	4638
3708.034	4618
3709.692	4616
3711.351	4612
3713.008	4572
3714.665	4624
3716.321	4518
3717.977	4530
3719.634	4625
3721.29	4557
3722.945	4681
3724.598	4590
3726.253	4558
3727.907	4615
3729.561	4618
3731.214	4556
3732.867	4489
3734.518	4572
3736.171	4527
3737.824	4595
3739.474	4455
3741.125	4607
3742.775	4531
3744.425	4486
3746.074	4562
3747.725	4528
3749.373	4483
3751.022	4558
3752.669	4477
3754.318	4565
3755.966	4462
3757.612	4375
3759.259	4534
3760.905	4560
3762.55	4395
3764.197	4429
3765.842	4338
3767.486	4464
3769.131	4431
3770.774	4429
3772.417	4485
3774.061	4578
3775.705	4494
3777.347	4433
3778.988	4478
3780.629	4397
3782.271	4452
3783.912	4374
3785.552	4532
3787.192	4284
3788.831	4503
3790.472	4476
3792.112	4410
3793.75	4398
3795.388	4422
3797.024	4480
3798.661	4369
3800.3	4430
3801.936	4476
3803.572	4386
3805.208	4343
3806.844	4357
3808.48	4336
3810.115	4307
3811.748	4373
3813.382	4321
3815.016	4337
3816.649	4357
3818.283	4296
3819.914	4240
3821.547	4381
3823.178	4430
3824.809	4206
3826.441	4408
3828.072	4296
3829.701	4272
3831.331	4339
3832.96	4344
3834.591	4284
3836.219	4392
3837.847	4238
3839.475	4312
3841.102	4251
3842.729	4237
3844.357	4191
3845.984	4312
3847.609	4248
3849.234	4341
3850.86	4300
3852.485	4219
3854.11	4269
3855.734	4152
3857.357	4187
3858.981	4340
3860.603	4236
3862.227	4202
3863.848	4260
3865.471	4253
3867.092	4183
3868.713	4137
3870.334	4169
3871.954	4265
3873.575	4162
3875.194	4185
3876.813	4167
3878.433	4214
3880.051	4167
3881.669	4170
3883.286	4160
3884.904	4116
3886.52	4199
3888.138	4130
3889.754	4146
3891.37	4220
3892.985	4136
3894.6	4140
3896.216	4123
3897.831	4019
3899.444	4170
3901.058	4182
3902.67	4091
3904.283	4035
3905.897	4124
3907.509	4170
3909.121	4109
3910.731	4073
3912.342	4102
3913.954	4057
3915.563	4068
3917.174	4069
3918.783	4174
3920.391	4112
3922.002	4062
3923.611	4052
3925.218	4032
3926.826	4068
3928.432	4017
3930.039	4013
3931.647	4070
3933.253	4111
3934.859	4024
3936.464	4191
3938.068	4021
3939.675	4068
3941.278	4121
3942.883	4044
3944.486	4031
3946.089	4045
3947.692	3998
3949.295	4056
3950.898	3992
3952.499	4009
3954.1	4035
3955.7	3959
3957.303	4052
3958.903	3950
3960.502	4012
3962.101	4040
3963.7	4054
3965.301	3909
3966.899	4014
3968.497	3957
3970.094	4040
3971.691	3948
3973.288	3993
3974.885	3975
3976.481	3950
3978.077	4036
3979.672	3943
3981.267	3916
3982.863	4026
3984.457	3979
3986.051	3917
3987.645	3943
3989.238	3816
3990.831	3890
3992.425	3849
3994.017	3923
3995.607	3924
3997.199	3943
3998.79	3878
4000.382	3951
4001.973	3891
4003.561	3855
4005.151	3887
4006.741	3805
4008.331	3909
4009.918	3854
4011.507	3838
4013.095	3904
4014.681	3854
4016.269	3852
4017.856	3897
4019.443	3812
4021.028	3799
4022.614	3768
4024.199	3794
4025.785	3788
4027.37	3833
4028.953	3903
4030.536	3817
4032.12	3771
4033.704	3707
4035.287	3817
4036.869	3746
4038.45	3801
4040.032	3736
4041.613	3737
4043.195	3755
4044.776	3740
4046.356	3624
4047.935	3737
4049.515	3733
4051.095	3773
4052.674	3678
4054.251	3801
4055.829	3681
4057.406	3664
4058.985	3759
4060.562	3683
4062.139	3731
4063.715	3760
4065.29	3700
4066.865	3606
4068.442	3669
4070.016	3640
4071.59	3665
4073.164	3559
4074.738	3659
4076.312	3695
4077.885	3736
4079.458	3658
4081.03	3629
4082.602	3664
4084.173	3585
4085.745	3569
4087.315	3701
4088.886	3729
4090.456	3623
4092.026	3678
4093.596	3663
4095.165	3612
4096.734	3621
4098.301	3727
4099.869	3556
4101.437	3714
4103.006	3608
4104.572	3589
4106.139	3611
4107.704	3699
4109.27	3627
4110.837	3525
4112.401	3576
4113.966	3580
4115.53	3625
4117.094	3662
4118.659	3520
4120.223	3571
4121.785	3456
4123.347	3469
4124.909	3546
4126.471	3586
4128.034	3597
4129.595	3529
4131.155	3480
4132.716	3567
4134.275	3501
4135.836	3500
4137.395	3526
4138.955	3587
4140.513	3485
4142.071	3578
4143.628	3462
4145.188	3526
4146.745	3481
4148.302	3511
4149.858	3462
4151.414	3406
4152.971	3480
4154.526	3535
4156.081	3435
4157.635	3447
4159.189	3472
4160.745	3486
4162.298	3475
4163.852	3467
4165.405	3406
4166.957	3428
4168.51	3422
4170.063	3447
4171.614	3376
4173.166	3352
4174.717	3416
4176.267	3408
4177.817	3468
4179.368	3363
4180.917	3443
4182.466	3382
4184.016	3394
4185.564	3356
4187.112	3448
4188.66	3377
4190.207	3399
4191.754	3345
4193.301	3354
4194.848	3363
4196.394	3381
4197.94	3276
4199.484	3313
4201.03	3340
4202.575	3374
4204.12	3384
4205.663	3345
4207.207	3398
4208.75	3297
4210.292	3290
4211.836	3327
4213.378	3339
4214.92	3380
4216.46	3333
4218.002	3237
4219.544	3274
4221.083	3301
4222.625	3286
4224.164	3251
4225.703	3320
4227.244	3341
4228.782	3285
4230.32	3250
4231.857	3246
4233.395	3292
4234.933	3330
4236.471	3244
4238.007	3194
4239.542	3232
4241.078	3209
4242.614	3294
4244.15	3321
4245.685	3286
4247.219	3349
4248.753	3269
4250.287	3204
4251.82	3217
4253.354	3257
4254.887	3225
4256.419	3224
4257.951	3277
4259.483	3205
4261.016	3208
4262.547	3247
4264.078	3219
4265.608	3176
4267.137	3238
4268.668	3249
4270.197	3225
4271.727	3184
4273.254	3113
4274.783	3253
4276.311	3245
4277.84	3215
4279.366	3089
4280.894	3180
4282.42	3138
4283.946	3211
4285.473	3162
4286.998	3179
4288.523	3194
4290.047	3171
4291.572	3127
4293.096	3233
4294.622	3221
4296.144	3113
4297.668	3185
4299.19	3163
4300.713	3121
4302.236	3165
4303.758	3178
4305.279	3139
4306.799	3123
4308.321	3203
4309.842	3053
4311.361	3220
4312.882	3172
4314.401	3106
