400.0961	2492
402.6185	2390
405.1424	2442
407.6635	2444
410.1838	2454
412.7035	2519
415.2225	2427
417.7388	2441
420.2585	2484
422.7754	2580
425.2917	2598
427.8072	2612
430.3221	2610
432.8363	2622
435.3498	2639
437.8626	2616
440.3727	2624
442.8841	2591
445.3969	2606
447.907	2595
450.4142	2605
452.9229	2603
455.4289	2627
457.9362	2637
460.4449	2570
462.9488	2562
465.454	2574
467.9566	2605
470.4604	2519
472.9637	2586
475.4662	2625
477.966	2571
480.4671	2552
482.9656	2540
485.4633	2568
487.9645	2556
490.4608	2594
492.9566	2539
495.4536	2630
497.948	2618
500.4437	2605
502.9387	2618
505.431	2611
507.9226	2633
510.4136	2611
512.9079	2549
515.3975	2653
517.8864	2610
520.3746	2617
522.8622	2629
525.3491	2675
527.8394	2654
530.3249	2666
532.8098	2679
535.2939	2653
537.7774	2601
540.2623	2691
542.7444	2660
545.2259	2615
547.7067	2687
550.1868	2662
552.6683	2675
555.147	2615
557.6231	2684
560.1005	2696
562.5773	2686
565.0534	2709
567.5308	2703
570.0056	2817
572.4776	2691
574.951	2723
577.4237	2740
579.8978	2757
582.3671	2836
584.8378	2831
587.3079	2805
589.7773	2858
592.244	2801
594.714	2786
597.1793	2734
599.6461	2802
602.1121	2788
604.5754	2680
607.0421	2779
609.5042	2751
611.9675	2750
614.4282	2722
616.8902	2741
619.3515	2711
621.8122	2755
624.2702	2717
626.7296	2719
629.1863	2683
631.6423	2744
634.1017	2774
636.5563	2700
639.0104	2724
641.4658	2673
643.9185	2715
646.3725	2743
648.8239	2736
651.2766	2703
653.7266	2713
656.176	2814
658.6247	2746
661.0748	2814
663.5242	2772
665.9709	2723
668.417	2765
670.8624	2846
673.3092	2732
675.7533	2845
678.1968	2820
680.6395	2838
683.0817	2782
685.5251	2843
687.9659	2812
690.4061	2793
692.8456	2788
695.2844	2809
697.7226	2815
700.1621	2860
702.599	2832
705.0332	2827
707.4688	2837
709.9036	2880
712.3399	2855
714.7735	2895
717.2044	2830
719.6367	2865
722.0683	2850
724.4993	2799
726.9296	2911
729.3593	2891
731.7883	2863
734.2147	2938
736.6423	2899
739.0714	2879
741.4958	2924
743.9216	2968
746.3447	2868
748.7691	2897
751.1929	2908
753.616	2941
756.0366	2930
758.4584	3047
760.8776	2971
763.2982	3042
765.718	2972
768.1373	3014
770.5539	3027
772.9698	2983
775.3871	3006
777.8038	2966
780.2178	2971
782.6332	2985
785.0459	2970
787.458	2969
789.8714	3085
792.2842	2944
794.6943	2947
797.1038	2996
799.5127	2980
801.9209	2976
804.3324	3010
806.7393	3017
809.1456	3090
811.5513	3043
813.9562	3054
816.3625	3036
818.7663	3015
821.1693	3018
823.5718	3052
825.9735	3057
828.3746	3052
830.7771	3055
833.177	3076
835.5762	3038
837.9747	3025
840.3727	3140
842.772	3111
845.1666	3135
847.5626	3086
849.958	3114
852.3527	3185
854.7488	3090
857.1403	3111
859.5331	3137
861.9253	3240
864.3168	3164
866.7057	3070
869.098	3148
871.4876	3148
873.8746	3117
876.263	3130
878.6487	3144
881.0378	3118
883.4243	3163
885.8081	3158
888.1933	3112
890.5759	3120
892.9598	3090
895.343	3070
897.7256	3113
900.1057	3162
902.4871	3179
904.8659	3113
907.246	3136
909.6254	3083
912.0023	3139
914.3786	3111
916.7562	3220
919.1331	3127
921.5074	3317
923.8831	3292
926.2562	3283
928.6287	3287
931.0005	3274
933.3757	3367
935.7462	3293
938.1162	3371
940.4855	3419
942.8542	3402
945.2242	3465
947.5916	3519
949.9584	3692
952.3266	3815
954.6921	3970
957.0571	4171
959.4233	4243
961.787	4355
964.15	4333
966.5125	4155
968.8742	4049
971.2354	3718
973.5959	3668
975.9559	3488
978.3151	3392
980.6738	3288
983.0338	3277
985.3912	3268
987.7461	3155
990.1022	3248
992.4578	3146
994.8127	3227
997.1689	3198
999.5207	3275
1001.874	3267
1004.226	3269
1006.576	3304
1008.929	3342
1011.28	3324
1013.628	3270
1015.977	3241
1018.324	3243
1020.674	3330
1023.019	3265
1025.366	3240
1027.713	3259
1030.056	3296
1032.399	3282
1034.746	3334
1037.087	3299
1039.431	3320
1041.771	3371
1044.113	3326
1046.454	3382
1048.793	3295
1051.133	3306
1053.471	3362
1055.807	3389
1058.146	3369
1060.483	3368
1062.818	3431
1065.153	3346
1067.489	3476
1069.822	3489
1072.156	3404
1074.488	3392
1076.82	3412
1079.15	3400
1081.48	3385
1083.814	3357
1086.143	3354
1088.471	3367
1090.799	3457
1093.126	3362
1095.452	3352
1097.78	3397
1100.105	3287
1102.43	3379
1104.754	3349
1107.077	3377
1109.4	3290
1111.722	3354
1114.044	3210
1116.365	3348
1118.685	3292
1121.005	3324
1123.324	3334
1125.643	3304
1127.961	3378
1130.278	3281
1132.595	3339
1134.911	3267
1137.226	3368
1139.541	3278
1141.854	3321
1144.167	3352
1146.482	3217
1148.793	3306
1151.105	3339
1153.414	3322
1155.725	3409
1158.033	3343
1160.344	3374
1162.651	3298
1164.959	3231
1167.265	3393
1169.572	3321
1171.878	3417
1174.184	3296
1176.488	3340
1178.79	3372
1181.094	3327
1183.396	3374
1185.699	3365
1188.001	3322
1190.301	3365
1192.6	3321
1194.9	3409
1197.2	3344
1199.497	3387
1201.794	3306
1204.09	3353
1206.387	3303
1208.684	3253
1210.978	3373
1213.272	3364
1215.565	3379
1217.858	3358
1220.15	3370
1222.443	3370
1224.734	3333
1227.024	3298
1229.313	3431
1231.602	3446
1233.892	3409
1236.18	3455
1238.467	3448
1240.754	3425
1243.04	3467
1245.325	3483
1247.612	3473
1249.896	3570
1252.178	3540
1254.461	3449
1256.743	3534
1259.027	3438
1261.308	3496
1263.587	3523
1265.867	3555
1268.146	3426
1270.425	3427
1272.703	3608
1274.981	3458
1277.256	3537
1279.532	3468
1281.808	3513
1284.083	3460
1286.358	3482
1288.63	3490
1290.904	3482
1293.175	3473
1295.449	3404
1297.719	3426
1299.99	3465
1302.259	3457
1304.529	3459
1306.798	3400
1309.065	3482
1311.333	3485
1313.599	3444
1315.866	3403
1318.131	3421
1320.396	3379
1322.66	3413
1324.925	3434
1327.187	3477
1329.448	3341
1331.711	3453
1333.974	3466
1336.234	3461
1338.493	3495
1340.752	3403
1343.01	3428
1345.269	3404
1347.526	3391
1349.784	3443
1352.04	3459
1354.295	3449
1356.552	3486
1358.806	3429
1361.059	3453
1363.312	3422
1365.564	3400
1367.818	3404
1370.069	3434
1372.318	3402
1374.568	3498
1376.817	3408
1379.066	3449
1381.316	3468
1383.564	3351
1385.809	3497
1388.056	3406
1390.301	3547
1392.549	3548
1394.793	3438
1397.036	3535
1399.279	3496
1401.522	3563
1403.763	3517
1406.007	3562
1408.248	3588
1410.487	3543
1412.727	3628
1414.965	3524
1417.205	3504
1419.442	3474
1421.68	3515
1423.915	3594
1426.152	3524
1428.388	3578
1430.623	3586
1432.857	3609
1435.091	3644
1437.323	3593
1439.556	3556
1441.789	3676
1444.019	3624
1446.25	3581
1448.48	3603
1450.708	3574
1452.938	3697
1455.167	3724
1457.394	3729
1459.62	3661
1461.846	3674
1464.073	3730
1466.299	3688
1468.523	3662
1470.746	3549
1472.969	3524
1475.191	3581
1477.415	3587
1479.636	3554
1481.858	3593
1484.078	3536
1486.298	3389
1488.518	3505
1490.736	3467
1492.954	3572
1495.169	3425
1497.386	3421
1499.602	3430
1501.819	3441
1504.034	3413
1506.248	3398
1508.462	3439
1510.675	3465
1512.888	3477
1515.1	3412
1517.311	3452
1519.522	3467
1521.732	3435
1523.942	3457
1526.151	3441
1528.36	3422
1530.566	3443
1532.773	3503
1534.98	3453
1537.187	3457
1539.392	3490
1541.596	3531
1543.801	3526
1546.005	3466
1548.208	3508
1550.411	3586
1552.612	3464
1554.814	3559
1557.013	3562
1559.212	3409
1561.414	3599
1563.612	3555
1565.811	3586
1568.007	3554
1570.203	3535
1572.403	3464
1574.598	3518
1576.792	3626
1578.988	3535
1581.181	3550
1583.376	3612
1585.568	3545
1587.761	3572
1589.952	3566
1592.143	3588
1594.333	3555
1596.524	3489
1598.715	3621
1600.903	3640
1603.091	3669
1605.278	3672
1607.466	3586
1609.652	3566
1611.838	3597
1614.023	3627
1616.207	3586
1618.391	3619
1620.576	3568
1622.759	3658
1624.941	3573
1627.123	3624
1629.304	3616
1631.484	3635
1633.664	3642
1635.844	3654
1638.022	3692
1640.201	3660
1642.38	3698
1644.556	3663
1646.732	3682
1648.908	3677
1651.084	3703
1653.257	3691
1655.433	3707
1657.607	3678
1659.779	3721
1661.951	3662
1664.122	3707
1666.295	3741
1668.467	3783
1670.635	3691
1672.805	3597
1674.973	3765
1677.142	3763
1679.31	3755
1681.478	3641
1683.644	3759
1685.81	3707
1687.975	3669
1690.142	3749
1692.305	3639
1694.468	3708
1696.632	3658
1698.794	3592
1700.957	3611
1703.119	3593
1705.279	3618
1707.439	3629
1709.598	3631
1711.758	3542
1713.917	3560
1716.075	3570
1718.231	3577
1720.388	3688
1722.543	3566
1724.702	3582
1726.856	3571
1729.01	3608
1731.164	3516
1733.317	3555
1735.471	3584
1737.623	3524
1739.774	3555
1741.925	3582
1744.075	3545
1746.225	3579
1748.376	3557
1750.524	3581
1752.672	3611
1754.82	3671
1756.965	3640
1759.113	3634
1761.259	3647
1763.405	3666
1765.549	3575
1767.694	3606
1769.836	3616
1771.981	3606
1774.123	3613
1776.264	3583
1778.405	3661
1780.546	3620
1782.687	3591
1784.827	3549
1786.966	3615
1789.103	3635
1791.242	3650
1793.381	3680
1795.517	3643
1797.653	3615
1799.788	3654
1801.923	3525
1804.057	3642
1806.193	3642
1808.326	3569
1810.457	3554
1812.59	3675
1814.721	3679
1816.855	3542
1818.984	3706
1821.113	3670
1823.244	3627
1825.372	3678
1827.499	3643
1829.63	3627
1831.756	3567
1833.882	3587
1836.007	3610
1838.132	3552
1840.26	3652
1842.384	3584
1844.507	3574
1846.63	3501
1848.752	3657
1850.875	3587
1852.996	3587
1855.118	3541
1857.238	3535
1859.358	3619
1861.477	3583
1863.597	3574
1865.715	3534
1867.832	3648
1869.948	3657
1872.064	3594
1874.181	3595
1876.297	3599
1878.411	3511
1880.526	3582
1882.639	3575
1884.752	3603
1886.865	3645
1888.977	3585
1891.089	3717
1893.2	3603
1895.308	3640
1897.42	3542
1899.53	3583
1901.639	3601
1903.745	3631
1905.853	3654
1907.962	3683
1910.067	3593
1912.174	3703
1914.278	3659
1916.383	3634
1918.486	3544
1920.592	3738
1922.694	3655
1924.797	3661
1926.898	3609
1929	3740
1931.102	3694
1933.203	3700
1935.301	3566
1937.401	3584
1939.499	3668
1941.598	3663
1943.697	3693
1945.793	3659
1947.888	3588
1949.985	3683
1952.08	3723
1954.176	3670
1956.269	3657
1958.364	3698
1960.457	3706
1962.549	3671
1964.642	3672
1966.733	3623
1968.823	3691
1970.913	3669
1973.005	3684
1975.093	3684
1977.184	3580
1979.271	3696
1981.359	3739
1983.446	3651
1985.532	3600
1987.619	3638
1989.705	3590
1991.789	3649
1993.874	3655
1995.956	3627
1998.041	3595
2000.123	3589
2002.206	3657
2004.287	3626
2006.368	3605
2008.449	3667
2010.529	3583
2012.609	3600
2014.688	3669
2016.766	3662
2018.843	3648
2020.922	3673
2022.999	3589
2025.074	3674
2027.15	3638
2029.225	3628
2031.299	3599
2033.375	3627
2035.447	3605
2037.52	3626
2039.592	3662
2041.664	3680
2043.736	3572
2045.807	3635
2047.876	3569
2049.947	3611
2052.015	3637
2054.086	3603
2056.153	3654
2058.221	3576
2060.288	3594
2062.353	3636
2064.42	3577
2066.486	3580
2068.55	3613
2070.614	3728
2072.678	3647
2074.741	3579
2076.805	3647
2078.866	3669
2080.929	3633
2082.99	3644
2085.049	3624
2087.109	3587
2089.17	3620
2091.228	3706
2093.286	3613
2095.344	3747
2097.4	3695
2099.46	3570
2101.516	3630
2103.572	3627
2105.626	3698
2107.679	3668
2109.735	3690
2111.788	3612
2113.841	3591
2115.894	3575
2117.945	3589
2119.997	3622
2122.049	3510
2124.1	3623
2126.148	3637
2128.197	3712
2130.246	3624
2132.296	3633
2134.342	3694
2136.39	3642
2138.437	3639
2140.483	3602
2142.527	3649
2144.574	3545
2146.619	3590
2148.661	3639
2150.705	3709
2152.747	3596
2154.792	3605
2156.832	3685
2158.874	3636
2160.915	3593
2162.954	3661
2164.995	3613
2167.034	3589
2169.072	3636
2171.111	3580
2173.148	3567
2175.186	3613
2177.223	3612
2179.258	3627
2181.294	3625
2183.328	3567
2185.362	3564
2187.398	3589
2189.431	3531
2191.463	3607
2193.495	3591
2195.528	3521
2197.56	3629
2199.59	3491
2201.62	3561
2203.649	3567
2205.678	3551
2207.708	3584
2209.737	3521
2211.764	3650
2213.791	3531
2215.817	3548
2217.843	3591
2219.87	3599
2221.895	3605
2223.919	3543
2225.942	3592
2227.966	3542
2229.988	3536
2232.012	3525
2234.032	3625
2236.054	3570
2238.074	3504
2240.095	3570
2242.116	3531
2244.135	3510
2246.153	3616
2248.171	3521
2250.188	3571
2252.208	3545
2254.223	3552
2256.239	3619
2258.255	3614
2260.269	3569
2262.283	3524
2264.3	3508
2266.312	3532
2268.325	3590
2270.336	3490
2272.349	3531
2274.362	3566
2276.372	3429
2278.383	3596
2280.392	3506
2282.402	3596
2284.409	3647
2286.418	3572
2288.427	3595
2290.433	3596
2292.441	3630
2294.446	3573
2296.453	3459
2298.459	3562
2300.463	3556
2302.466	3566
2304.471	3653
2306.475	3557
2308.477	3545
2310.478	3626
2312.481	3610
2314.481	3575
2316.481	3441
2318.482	3546
2320.482	3480
2322.48	3486
2324.48	3604
2326.478	3645
2328.476	3584
2330.473	3566
2332.469	3567
2334.465	3560
2336.46	3542
2338.454	3520
2340.45	3521
2342.444	3479
2344.437	3511
2346.43	3482
2348.421	3451
2350.414	3527
2352.405	3537
2354.396	3499
2356.386	3518
2358.376	3544
2360.366	3504
2362.355	3493
2364.343	3518
2366.331	3445
2368.317	3559
2370.304	3396
2372.292	3569
2374.278	3465
2376.262	3495
2378.247	3453
2380.23	3575
2382.216	3459
2384.199	3493
2386.181	3527
2388.163	3440
2390.144	3492
2392.127	3513
2394.107	3444
2396.087	3485
2398.066	3474
2400.046	3429
2402.023	3431
2404.004	3475
2405.981	3455
2407.957	3464
2409.934	3481
2411.91	3425
2413.886	3545
2415.862	3415
2417.836	3504
2419.809	3481
2421.784	3399
2423.756	3438
2425.73	3433
2427.701	3435
2429.672	3514
2431.644	3463
2433.615	3408
2435.586	3416
2437.555	3425
2439.523	3455
2441.491	3407
2443.459	3514
2445.428	3476
2447.395	3377
2449.361	3419
2451.327	3474
2453.292	3349
2455.257	3432
2457.223	3437
2459.187	3455
2461.15	3441
2463.113	3471
2465.076	3372
2467.039	3457
2468.999	3577
2470.96	3414
2472.921	3454
2474.881	3499
2476.841	3416
2478.8	3428
2480.759	3440
2482.717	3384
2484.675	3381
2486.63	3426
2488.589	3420
2490.545	3425
2492.5	3456
2494.455	3436
2496.408	3419
2498.364	3392
2500.318	3433
2502.27	3420
2504.223	3439
2506.174	3398
2508.126	3417
2510.078	3410
2512.03	3508
2513.979	3401
2515.927	3451
2517.877	3418
2519.826	3431
2521.775	3335
2523.722	3360
2525.668	3322
2527.616	3314
2529.561	3407
2531.508	3396
2533.452	3420
2535.398	3401
2537.342	3393
2539.284	3468
2541.229	3413
2543.173	3402
2545.114	3348
2547.055	3341
2548.996	3400
2550.938	3329
2552.878	3312
2554.817	3424
2556.756	3354
2558.695	3337
2560.633	3373
2562.572	3336
2564.509	3321
2566.445	3432
2568.382	3410
2570.317	3457
2572.254	3371
2574.189	3388
2576.123	3425
2578.057	3401
2579.99	3381
2581.923	3407
2583.855	3479
2585.788	3352
2587.719	3378
2589.65	3506
2591.579	3421
2593.511	3472
2595.44	3385
2597.37	3384
2599.297	3447
2601.225	3351
2603.153	3380
2605.08	3353
2607.007	3331
2608.932	3348
2610.858	3414
2612.782	3412
2614.709	3377
2616.632	3457
2618.556	3424
2620.478	3444
2622.401	3424
2624.324	3401
2626.247	3349
2628.167	3468
2630.088	3398
2632.008	3446
2633.928	3414
2635.848	3345
2637.766	3387
2639.684	3419
2641.603	3370
2643.519	3376
2645.437	3372
2647.353	3417
2649.27	3411
2651.184	3351
2653.099	3388
2655.014	3373
2656.928	3451
2658.842	3428
2660.755	3357
2662.667	3407
2664.579	3338
2666.491	3431
2668.402	3344
2670.312	3363
2672.222	3349
2674.132	3391
2676.042	3381
2677.951	3373
2679.859	3453
2681.766	3360
2683.674	3383
2685.582	3374
2687.488	3429
2689.392	3472
2691.298	3367
2693.202	3418
2695.107	3412
2697.012	3328
2698.914	3379
2700.817	3390
2702.72	3375
2704.622	3333
2706.524	3354
2708.425	3372
2710.326	3384
2712.225	3396
2714.125	3411
2716.024	3406
2717.923	3400
2719.822	3334
2721.719	3354
2723.616	3317
2725.512	3421
2727.41	3343
2729.305	3310
2731.201	3419
2733.095	3408
2734.99	3392
2736.884	3362
2738.778	3333
2740.67	3380
2742.562	3391
2744.455	3390
2746.346	3359
2748.238	3304
2750.129	3306
2752.018	3356
2753.907	3355
2755.797	3352
2757.687	3338
2759.575	3349
2761.462	3387
2763.349	3379
2765.237	3310
2767.124	3307
2769.009	3397
2770.894	3256
2772.779	3361
2774.663	3358
2776.547	3312
2778.431	3333
2780.314	3337
2782.197	3271
2784.078	3274
2785.96	3262
2787.842	3337
2789.723	3328
2791.603	3406
2793.483	3248
2795.362	3301
2797.241	3287
2799.121	3378
2800.997	3173
2802.874	3404
2804.751	3275
2806.628	3326
2808.506	3302
2810.38	3313
2812.255	3329
2814.13	3277
2816.003	3282
2817.878	3374
2819.752	3320
2821.623	3310
2823.496	3307
2825.368	3306
2827.238	3298
2829.111	3304
2830.98	3318
2832.851	3306
2834.719	3319
2836.589	3253
2838.458	3463
2840.327	3256
2842.193	3319
2844.061	3314
2845.927	3283
2847.794	3360
2849.66	3302
2851.525	3343
2853.39	3372
2855.254	3421
2857.117	3276
2858.983	3383
2860.845	3397
2862.707	3389
2864.569	3438
2866.431	3444
2868.293	3411
2870.154	3463
2872.013	3530
2873.873	3467
2875.733	3541
2877.592	3555
2879.451	3494
2881.309	3648
2883.166	3526
2885.022	3688
2886.879	3677
2888.736	3630
2890.591	3716
2892.446	3649
2894.301	3590
2896.155	3684
2898.009	3730
2899.863	3552
2901.716	3559
2903.568	3666
2905.419	3596
2907.27	3697
2909.123	3605
2910.973	3634
2912.824	3706
2914.673	3696
2916.521	3750
2918.372	3751
2920.22	3817
2922.067	3801
2923.914	3818
2925.761	3942
2927.607	3950
2929.455	3973
2931.301	4019
2933.144	4034
2934.99	4025
2936.833	4110
2938.678	4158
2940.522	4166
2942.364	4175
2944.207	4057
2946.048	4321
2947.891	4278
2949.731	4231
2951.571	4237
2953.412	4137
2955.25	4155
2957.09	4215
2958.93	4059
2960.767	4067
2962.606	4023
2964.443	4044
2966.279	4040
2968.116	3784
2969.953	3964
2971.788	3917
2973.623	3827
2975.457	3816
2977.292	3780
2979.127	3732
2980.959	3804
2982.792	3720
2984.624	3713
2986.455	3679
2988.288	3761
2990.119	3700
2991.949	3589
2993.779	3627
2995.608	3619
2997.439	3603
2999.268	3517
3001.096	3566
3002.923	3533
3004.751	3517
3006.578	3454
3008.406	3421
3010.232	3427
3012.057	3325
3013.883	3280
3015.706	3354
3017.532	3418
3019.356	3287
3021.179	3245
3023.002	3281
3024.823	3303
3026.646	3233
3028.469	3274
3030.289	3304
3032.11	3236
3033.93	3272
3035.749	3235
3037.57	3171
3039.39	3209
3041.207	3190
3043.026	3141
3044.842	3191
3046.661	3043
3048.477	3160
3050.294	3157
3052.109	3205
3053.925	3178
3055.739	3147
3057.555	3244
3059.368	3190
3061.181	3224
3062.995	3205
3064.807	3252
3066.62	3145
3068.433	3194
3070.243	3226
3072.054	3220
3073.865	3123
3075.675	3198
3077.485	3177
3079.293	3248
3081.102	3094
3082.911	3048
3084.719	3105
3086.527	3181
3088.333	3138
3090.139	3138
3091.945	3120
3093.75	3146
3095.557	3106
3097.361	3098
3099.165	3086
3100.969	3188
3102.772	3036
3104.575	3024
3106.379	3152
3108.181	3114
3109.982	3085
3111.783	3047
3113.584	3123
3115.386	3109
3117.186	3110
3118.985	3087
3120.783	3084
3122.582	3104
3124.381	3076
3126.179	2957
3127.975	3035
3129.772	3042
3131.569	3060
3133.365	3049
3135.161	3009
3136.956	3031
3138.751	3056
3140.544	3013
3142.338	3086
3144.132	3065
3145.925	3086
3147.717	3088
3149.509	2983
3151.301	3027
3153.091	3102
3154.884	3036
3156.673	3006
3158.462	2988
3160.252	3047
3162.041	2952
3163.831	2999
3165.618	3024
3167.405	3050
3169.193	2941
3170.979	3072
3172.767	3029
3174.553	3038
3176.338	2988
3178.123	3081
3179.907	2997
3181.692	3031
3183.477	3030
3185.259	2943
3187.042	2957
3188.824	3008
3190.607	2957
3192.389	3075
3194.17	2983
3195.951	3008
3197.73	2967
3199.51	3019
3201.289	3029
3203.07	3003
3204.848	3027
3206.626	2964
3208.403	2930
3210.18	2985
3211.959	3001
3213.735	3067
3215.511	3002
3217.285	2951
3219.06	3025
3220.836	3128
3222.611	2939
3224.384	3076
3226.158	2980
3227.929	3036
3229.702	3001
3231.476	3072
3233.248	2997
3235.018	2958
3236.789	2964
3238.56	3039
3240.33	2964
3242.1	2996
3243.869	3047
3245.637	2978
3247.405	3014
3249.172	3069
3250.941	3032
3252.707	2945
3254.474	3023
3256.24	2919
3258.006	3002
3259.772	2984
3261.537	3084
3263.301	3018
3265.065	3032
3266.828	3039
3268.592	3055
3270.355	3022
3272.117	3044
3273.878	2884
3275.64	2992
3277.401	3017
3279.162	3022
3280.922	2986
3282.682	2980
3284.441	3002
3286.199	3052
3287.959	2946
3289.716	2943
3291.475	3012
3293.232	2986
3294.988	2962
3296.744	2997
3298.501	3002
3300.256	3007
3302.011	3021
3303.766	2998
3305.52	3001
3307.275	3035
3309.028	3048
3310.781	3021
3312.533	3008
3314.285	2986
3316.038	2986
3317.789	3034
3319.54	2997
3321.289	3067
3323.039	3041
3324.789	3009
3326.539	3052
3328.288	3068
3330.035	3050
3331.783	2972
3333.531	2988
3335.28	2977
3337.025	3026
3338.771	2957
3340.518	3005
3342.262	3098
3344.009	3004
3345.753	2954
3347.497	2933
3349.24	2992
3350.983	3063
3352.726	2935
3354.469	2949
3356.212	2970
3357.952	2934
3359.694	2964
3361.434	2948
3363.176	3027
3364.916	2894
3366.654	2883
3368.394	2937
3370.132	3027
3371.871	2920
3373.61	2925
3375.346	2900
3377.083	2967
3378.82	2916
3380.556	2963
3382.292	2924
3384.027	2901
3385.763	2850
3387.497	2970
3389.231	2871
3390.965	2868
3392.698	2954
3394.431	2868
3396.164	2888
3397.896	2956
3399.627	2888
3401.36	2858
3403.09	2895
3404.82	2954
3406.55	2912
3408.279	2931
3410.01	2867
3411.738	2834
3413.467	2958
3415.194	2911
3416.92	2874
3418.647	2921
3420.375	2870
3422.102	2908
3423.827	2831
3425.553	2865
3427.277	2864
3429.003	2883
3430.727	2847
3432.451	2862
3434.173	2835
3435.896	2885
3437.62	2847
3439.343	2912
3441.063	2810
3442.785	2876
3444.505	2848
3446.226	2839
3447.948	2855
3449.666	2842
3451.386	2850
3453.104	2810
3454.823	2789
3456.541	2844
3458.259	2762
3459.976	2794
3461.693	2807
3463.408	2822
3465.125	2774
3466.841	2778
3468.556	2758
3470.271	2809
3471.985	2795
3473.698	2649
3475.414	2768
3477.126	2772
3478.838	2734
3480.55	2695
3482.263	2803
3483.975	2721
3485.686	2810
3487.396	2723
3489.106	2814
3490.817	2717
3492.526	2732
3494.236	2746
3495.944	2731
3497.652	2679
3499.359	2740
3501.066	2666
3502.775	2705
3504.481	2658
3506.187	2714
3507.893	2727
3509.598	2695
3511.304	2720
3513.009	2619
3514.713	2728
3516.417	2606
3518.12	2675
3519.821	2651
3521.525	2684
3523.228	2666
3524.929	2694
3526.631	2661
3528.33	2598
3530.032	2648
3531.733	2611
3533.433	2662
3535.131	2588
3536.83	2662
3538.529	2607
3540.227	2682
3541.925	2640
3543.623	2670
3545.319	2648
3547.016	2576
3548.712	2642
3550.408	2573
3552.103	2616
3553.798	2574
3555.491	2661
3557.188	2575
3558.88	2654
3560.574	2572
3562.266	2608
3563.959	2575
3565.651	2594
3567.343	2595
3569.035	2607
3570.725	2564
3572.415	2547
3574.106	2609
3575.797	2534
3577.485	2590
3579.174	2592
3580.863	2577
3582.551	2597
3584.238	2575
3585.926	2660
3587.613	2595
3589.3	2639
3590.986	2521
3592.671	2510
3594.357	2547
3596.042	2548
3597.726	2533
3599.41	2523
3601.094	2500
3602.778	2548
3604.461	2500
3606.143	2447
3607.825	2533
3609.507	2535
3611.188	2476
3612.87	2438
3614.551	2475
3616.229	2504
3617.909	2508
3619.589	2518
3621.269	2446
3622.948	2439
3624.625	2523
3626.302	2468
3627.98	2478
3629.657	2434
3631.334	2421
3633.01	2418
3634.686	2419
3636.361	2449
3638.036	2470
3639.712	2425
3641.385	2415
3643.06	2409
3644.732	2381
3646.405	2401
3648.08	2416
3649.751	2387
3651.424	2418
3653.094	2384
3654.766	2502
3656.436	2384
3658.106	2393
3659.777	2374
3661.446	2467
3663.115	2411
3664.783	2364
3666.452	2392
3668.121	2343
3669.788	2398
3671.454	2342
3673.121	2488
3674.789	2399
3676.455	2381
3678.12	2365
3679.784	2371
3681.45	2358
3683.114	2376
3684.779	2408
3686.442	2372
3688.105	2406
3689.768	2336
3691.43	2400
3693.093	2433
3694.754	2386
3696.415	2385
3698.076	2272
3699.736	2340
3701.396	2301
3703.057	2308
3704.716	2370
3706.375	2330
3708.034	2428
3709.692	2286
3711.351	2311
3713.008	2359
3714.665	2312
3716.321	2345
3717.977	2328
3719.634	2363
3721.29	2345
3722.945	2297
3724.598	2335
3726.253	2322
3727.907	2300
3729.561	2398
3731.214	2329
3732.867	2284
3734.518	2295
3736.171	2286
3737.824	2287
3739.474	2299
3741.125	2349
3742.775	2373
3744.425	2326
3746.074	2310
3747.725	2286
3749.373	2266
3751.022	2312
3752.669	2326
3754.318	2324
3755.966	2277
3757.612	2253
3759.259	2246
3760.905	2289
3762.55	2271
3764.197	2262
3765.842	2293
3767.486	2282
3769.131	2302
3770.774	2235
3772.417	2220
3774.061	2287
3775.705	2248
3777.347	2261
3778.988	2305
3780.629	2302
3782.271	2246
3783.912	2215
3785.552	2319
3787.192	2307
3788.831	2252
3790.472	2238
3792.112	2254
3793.75	2250
3795.388	2254
3797.024	2275
3798.661	2301
3800.3	2205
3801.936	2262
3803.572	2257
3805.208	2219
3806.844	2281
3808.48	2241
3810.115	2261
3811.748	2233
3813.382	2248
3815.016	2217
3816.649	2185
3818.283	2224
3819.914	2189
3821.547	2208
3823.178	2170
3824.809	2210
3826.441	2221
3828.072	2177
3829.701	2244
3831.331	2170
3832.96	2227
3834.591	2204
3836.219	2159
3837.847	2225
3839.475	2186
3841.102	2190
3842.729	2187
3844.357	2254
3845.984	2186
3847.609	2150
3849.234	2176
3850.86	2230
3852.485	2160
3854.11	2165
3855.734	2185
3857.357	2147
3858.981	2096
3860.603	2185
3862.227	2157
3863.848	2132
3865.471	2201
3867.092	2142
3868.713	2113
3870.334	2222
3871.954	2189
3873.575	2188
3875.194	2166
3876.813	2130
3878.433	2122
3880.051	2200
3881.669	2118
3883.286	2151
3884.904	2187
3886.52	2090
3888.138	2136
3889.754	2131
3891.37	2132
3892.985	2118
3894.6	2133
3896.216	2064
3897.831	2151
3899.444	2126
3901.058	2135
3902.67	2087
3904.283	2064
3905.897	2131
3907.509	2139
3909.121	2118
3910.731	2142
3912.342	2110
3913.954	2087
3915.563	2114
3917.174	2129
3918.783	2131
3920.391	2085
3922.002	2085
3923.611	2141
3925.218	2139
3926.826	2124
3928.432	2098
3930.039	2152
3931.647	2103
3933.253	2112
3934.859	2106
3936.464	2107
3938.068	2118
3939.675	2109
3941.278	2075
3942.883	2115
3944.486	2098
3946.089	2093
3947.692	2106
3949.295	2033
3950.898	2078
3952.499	2116
3954.1	2114
3955.7	2113
3957.303	2065
3958.903	2059
3960.502	2071
3962.101	2062
3963.7	2065
3965.301	2114
3966.899	2126
3968.497	2082
3970.094	2058
3971.691	2054
3973.288	2064
3974.885	2081
3976.481	2059
3978.077	2069
3979.672	2095
3981.267	1978
3982.863	2101
3984.457	2070
3986.051	2044
3987.645	2062
3989.238	2045
3990.831	1991
3992.425	2008
3994.017	1985
3995.607	1997
3997.199	2043
3998.79	2058
4000.382	2060
4001.973	1975
4003.561	1994
4005.151	2014
4006.741	2057
4008.331	1979
4009.918	2037
4011.507	2029
4013.095	1996
4014.681	2037
4016.269	1956
4017.856	1949
4019.443	1961
4021.028	1943
4022.614	1973
4024.199	1976
4025.785	1947
4027.37	1956
4028.953	1960
4030.536	2038
4032.12	1986
4033.704	1914
4035.287	1944
4036.869	1976
4038.45	1937
4040.032	1946
4041.613	1977
4043.195	1966
4044.776	1979
4046.356	1924
4047.935	1922
4049.515	1948
4051.095	1927
4052.674	1926
4054.251	1936
4055.829	2009
4057.406	1892
4058.985	1967
4060.562	1936
4062.139	1907
4063.715	1924
4065.29	1961
4066.865	2018
4068.442	1913
4070.016	1960
4071.59	1919
4073.164	1961
4074.738	1991
4076.312	2007
4077.885	1903
4079.458	1918
4081.03	1929
4082.602	1913
4084.173	1921
4085.745	1939
4087.315	1921
4088.886	1930
4090.456	1902
4092.026	1895
4093.596	1917
4095.165	1931
4096.734	1889
4098.301	1908
4099.869	1910
4101.437	1938
4103.006	1896
4104.572	1957
4106.139	1891
4107.704	1912
4109.27	1936
4110.837	1933
4112.401	1925
4113.966	1917
4115.53	1917
4117.094	1881
4118.659	1923
4120.223	1831
4121.785	1902
4123.347	1876
4124.909	1942
4126.471	1873
4128.034	1909
4129.595	1895
4131.155	1883
4132.716	1864
4134.275	1858
4135.836	1867
4137.395	1918
4138.955	1912
4140.513	1872
4142.071	1862
4143.628	1853
4145.188	1824
4146.745	1773
4148.302	1816
4149.858	1823
4151.414	1851
4152.971	1867
4154.526	1840
4156.081	1901
4157.635	1876
4159.189	1777
4160.745	1861
4162.298	1848
4163.852	1888
4165.405	1759
4166.957	1847
4168.51	1784
4170.063	1795
4171.614	1841
4173.166	1864
4174.717	1819
4176.267	1816
4177.817	1860
4179.368	1813
4180.917	1800
4182.466	1787
4184.016	1829
4185.564	1819
4187.112	1780
4188.66	1827
4190.207	1815
4191.754	1796
4193.301	1727
4194.848	1781
4196.394	1768
4197.94	1771
4199.484	1761
4201.03	1755
4202.575	1793
4204.12	1764
4205.663	1758
4207.207	1822
4208.75	1779
4210.292	1787
4211.836	1770
4213.378	1754
4214.92	1788
4216.46	1760
4218.002	1785
4219.544	1763
4221.083	1812
4222.625	1797
4224.164	1799
4225.703	1755
4227.244	1770
4228.782	1726
4230.32	1745
4231.857	1766
4233.395	1785
4234.933	1720
4236.471	1765
4238.007	1775
4239.542	1734
4241.078	1703
4242.614	1779
4244.15	1725
4245.685	1741
4247.219	1739
4248.753	1822
4250.287	1776
4251.82	1755
4253.354	1763
4254.887	1765
4256.419	1791
4257.951	1758
4259.483	1753
4261.016	1719
4262.547	1724
4264.078	1722
4265.608	1724
4267.137	1747
4268.668	1747
4270.197	1731
4271.727	1732
4273.254	1782
4274.783	1719
4276.311	1751
4277.84	1740
4279.366	1731
4280.894	1730
4282.42	1744
4283.946	1740
4285.473	1703
4286.998	1723
4288.523	1670
4290.047	1721
4291.572	1690
4293.096	1705
4294.622	1724
4296.144	1750
4297.668	1748
4299.19	1684
4300.713	1664
4302.236	1670
4303.758	1704
4305.279	1657
4306.799	1757
4308.321	1704
4309.842	1702
4311.361	1693
4312.882	1721
4314.401	1663
