400.0961	2971
402.6185	2950
405.1424	2946
407.6635	3049
410.1838	3053
412.7035	2978
415.2225	3084
417.7388	2988
420.2585	3040
422.7754	3092
425.2917	3147
427.8072	3152
430.3221	3086
432.8363	3166
435.3498	3149
437.8626	3185
440.3727	3103
442.8841	3143
445.3969	3168
447.907	3205
450.4142	3164
452.9229	3143
455.4289	3150
457.9362	3139
460.4449	3197
462.9488	3136
465.454	3160
467.9566	3066
470.4604	3171
472.9637	3174
475.4662	3206
477.966	3106
480.4671	3094
482.9656	3144
485.4633	3149
487.9645	3194
490.4608	3172
492.9566	3193
495.4536	3198
497.948	3153
500.4437	3243
502.9387	3218
505.431	3222
507.9226	3201
510.4136	3249
512.9079	3247
515.3975	3215
517.8864	3241
520.3746	3248
522.8622	3143
525.3491	3265
527.8394	3258
530.3249	3246
532.8098	3242
535.2939	3248
537.7774	3252
540.2623	3195
542.7444	3226
545.2259	3254
547.7067	3217
550.1868	3231
552.6683	3313
555.147	3283
557.6231	3267
560.1005	3272
562.5773	3313
565.0534	3298
567.5308	3284
570.0056	3304
572.4776	3413
574.951	3430
577.4237	3363
579.8978	3464
582.3671	3388
584.8378	3385
587.3079	3381
589.7773	3472
592.244	3321
594.714	3369
597.1793	3304
599.6461	3343
602.1121	3329
604.5754	3386
607.0421	3370
609.5042	3354
611.9675	3357
614.4282	3352
616.8902	3349
619.3515	3387
621.8122	3339
624.2702	3314
626.7296	3240
629.1863	3354
631.6423	3322
634.1017	3330
636.5563	3298
639.0104	3263
641.4658	3346
643.9185	3320
646.3725	3366
648.8239	3329
651.2766	3383
653.7266	3391
656.176	3300
658.6247	3443
661.0748	3364
663.5242	3443
665.9709	3382
668.417	3392
670.8624	3360
673.3092	3383
675.7533	3419
678.1968	3380
680.6395	3392
683.0817	3406
685.5251	3459
687.9659	3444
690.4061	3449
692.8456	3456
695.2844	3541
697.7226	3418
700.1621	3471
702.599	3425
705.0332	3516
707.4688	3494
709.9036	3494
712.3399	3518
714.7735	3519
717.2044	3527
719.6367	3580
722.0683	3569
724.4993	3531
726.9296	3664
729.3593	3516
731.7883	3564
734.2147	3608
736.6423	3593
739.0714	3505
741.4958	3567
743.9216	3648
746.3447	3552
748.7691	3604
751.1929	3713
753.616	3608
756.0366	3652
758.4584	3668
760.8776	3656
763.2982	3617
765.718	3657
768.1373	3742
770.5539	3710
772.9698	3749
775.3871	3644
777.8038	3723
780.2178	3678
782.6332	3690
785.0459	3730
787.458	3684
789.8714	3676
792.2842	3706
794.6943	3664
797.1038	3730
799.5127	3704
801.9209	3747
804.3324	3753
806.7393	3737
809.1456	3736
811.5513	3770
813.9562	3741
816.3625	3686
818.7663	3805
821.1693	3700
823.5718	3750
825.9735	3681
828.3746	3716
830.7771	3684
833.177	3829
835.5762	3766
837.9747	3764
840.3727	3865
842.772	3815
845.1666	3911
847.5626	3847
849.958	3806
852.3527	3840
854.7488	3886
857.1403	3854
859.5331	3835
861.9253	3796
864.3168	3928
866.7057	3835
869.098	3859
871.4876	3819
873.8746	3965
876.263	3793
878.6487	3915
881.0378	3857
883.4243	3862
885.8081	3883
888.1933	3810
890.5759	3767
892.9598	3842
895.343	3786
897.7256	3838
900.1057	3808
902.4871	3934
904.8659	3819
907.246	3818
909.6254	3920
912.0023	3928
914.3786	3959
916.7562	3934
919.1331	3953
921.5074	4079
923.8831	4043
926.2562	3979
928.6287	4015
931.0005	4006
933.3757	4104
935.7462	4041
938.1162	4098
940.4855	4122
942.8542	4191
945.2242	4203
947.5916	4272
949.9584	4411
952.3266	4584
954.6921	4670
957.0571	4890
959.4233	5088
961.787	5179
964.15	5087
966.5125	4839
968.8742	4744
971.2354	4520
973.5959	4401
975.9559	4238
978.3151	4154
980.6738	4073
983.0338	4017
985.3912	3998
987.7461	3945
990.1022	3993
992.4578	4031
994.8127	3958
997.1689	3950
999.5207	4017
1001.874	4098
1004.226	4068
1006.576	4096
1008.929	3979
1011.28	3975
1013.628	3951
1015.977	4024
1018.324	3967
1020.674	3982
1023.019	4026
1025.366	3964
1027.713	4063
1030.056	4034
1032.399	4030
1034.746	4117
1037.087	4130
1039.431	4158
1041.771	4090
1044.113	4037
1046.454	4082
1048.793	4093
1051.133	4040
1053.471	4080
1055.807	4092
1058.146	4067
1060.483	4053
1062.818	4077
1065.153	4094
1067.489	4128
1069.822	4307
1072.156	4261
1074.488	4249
1076.82	4202
1079.15	4060
1081.48	4053
1083.814	4101
1086.143	4119
1088.471	4171
1090.799	4027
1093.126	4122
1095.452	4189
1097.78	4047
1100.105	4057
1102.43	4096
1104.754	4054
1107.077	4137
1109.4	4055
1111.722	4067
1114.044	4112
1116.365	4111
1118.685	4102
1121.005	4088
1123.324	4122
1125.643	4093
1127.961	4084
1130.278	4095
1132.595	4125
1134.911	4193
1137.226	4085
1139.541	4059
1141.854	4087
1144.167	4045
1146.482	4047
1148.793	3994
1151.105	4163
1153.414	3995
1155.725	4135
1158.033	4040
1160.344	4044
1162.651	4070
1164.959	4032
1167.265	4186
1169.572	4140
1171.878	4141
1174.184	4030
1176.488	4048
1178.79	4019
1181.094	4154
1183.396	4139
1185.699	4115
1188.001	4121
1190.301	4031
1192.6	3991
1194.9	4088
1197.2	4114
1199.497	4099
1201.794	4074
1204.09	4111
1206.387	4100
1208.684	4150
1210.978	4078
1213.272	4080
1215.565	4177
1217.858	4135
1220.15	4115
1222.443	4041
1224.734	4148
1227.024	4234
1229.313	4182
1231.602	4179
1233.892	4189
1236.18	4198
1238.467	4233
1240.754	4167
1243.04	4349
1245.325	4333
1247.612	4290
1249.896	4167
1252.178	4251
1254.461	4352
1256.743	4255
1259.027	4271
1261.308	4272
1263.587	4256
1265.867	4268
1268.146	4247
1270.425	4286
1272.703	4276
1274.981	4304
1277.256	4274
1279.532	4217
1281.808	4237
1284.083	4258
1286.358	4234
1288.63	4315
1290.904	4221
1293.175	4210
1295.449	4213
1297.719	4341
1299.99	4187
1302.259	4219
1304.529	4206
1306.798	4208
1309.065	4254
1311.333	4148
1313.599	4253
1315.866	4209
1318.131	4162
1320.396	4291
1322.66	4295
1324.925	4287
1327.187	4161
1329.448	4236
1331.711	4341
1333.974	4290
1336.234	4303
1338.493	4167
1340.752	4242
1343.01	4224
1345.269	4263
1347.526	4332
1349.784	4180
1352.04	4249
1354.295	4206
1356.552	4158
1358.806	4217
1361.059	4191
1363.312	4243
1365.564	4209
1367.818	4275
1370.069	4211
1372.318	4278
1374.568	4240
1376.817	4272
1379.066	4256
1381.316	4216
1383.564	4247
1385.809	4279
1388.056	4344
1390.301	4278
1392.549	4430
1394.793	4372
1397.036	4405
1399.279	4247
1401.522	4319
1403.763	4352
1406.007	4410
1408.248	4430
1410.487	4314
1412.727	4384
1414.965	4324
1417.205	4224
1419.442	4371
1421.68	4381
1423.915	4346
1426.152	4379
1428.388	4419
1430.623	4346
1432.857	4383
1435.091	4267
1437.323	4442
1439.556	4421
1441.789	4436
1444.019	4424
1446.25	4426
1448.48	4372
1450.708	4411
1452.938	4549
1455.167	4556
1457.394	4463
1459.62	4443
1461.846	4546
1464.073	4519
1466.299	4464
1468.523	4404
1470.746	4400
1472.969	4472
1475.191	4350
1477.415	4399
1479.636	4332
1481.858	4340
1484.078	4339
1486.298	4247
1488.518	4269
1490.736	4258
1492.954	4315
1495.169	4237
1497.386	4255
1499.602	4202
1501.819	4161
1504.034	4217
1506.248	4142
1508.462	4108
1510.675	4281
1512.888	4168
1515.1	4286
1517.311	4277
1519.522	4233
1521.732	4260
1523.942	4208
1526.151	4228
1528.36	4252
1530.566	4194
1532.773	4240
1534.98	4293
1537.187	4244
1539.392	4236
1541.596	4384
1543.801	4212
1546.005	4278
1548.208	4231
1550.411	4289
1552.612	4326
1554.814	4333
1557.013	4273
1559.212	4240
1561.414	4255
1563.612	4239
1565.811	4414
1568.007	4341
1570.203	4310
1572.403	4299
1574.598	4278
1576.792	4274
1578.988	4295
1581.181	4374
1583.376	4326
1585.568	4348
1587.761	4412
1589.952	4456
1592.143	4331
1594.333	4398
1596.524	4407
1598.715	4387
1600.903	4414
1603.091	4404
1605.278	4405
1607.466	4500
1609.652	4360
1611.838	4393
1614.023	4396
1616.207	4440
1618.391	4399
1620.576	4358
1622.759	4473
1624.941	4421
1627.123	4453
1629.304	4472
1631.484	4538
1633.664	4354
1635.844	4530
1638.022	4453
1640.201	4519
1642.38	4531
1644.556	4462
1646.732	4462
1648.908	4510
1651.084	4504
1653.257	4503
1655.433	4532
1657.607	4541
1659.779	4456
1661.951	4465
1664.122	4476
1666.295	4532
1668.467	4544
1670.635	4516
1672.805	4566
1674.973	4497
1677.142	4561
1679.31	4486
1681.478	4504
1683.644	4572
1685.81	4529
1687.975	4532
1690.142	4582
1692.305	4485
1694.468	4484
1696.632	4365
1698.794	4506
1700.957	4363
1703.119	4421
1705.279	4401
1707.439	4510
1709.598	4385
1711.758	4398
1713.917	4353
1716.075	4366
1718.231	4383
1720.388	4434
1722.543	4372
1724.702	4302
1726.856	4376
1729.01	4368
1731.164	4425
1733.317	4422
1735.471	4433
1737.623	4363
1739.774	4378
1741.925	4408
1744.075	4461
1746.225	4348
1748.376	4400
1750.524	4301
1752.672	4382
1754.82	4425
1756.965	4442
1759.113	4306
1761.259	4485
1763.405	4423
1765.549	4464
1767.694	4340
1769.836	4459
1771.981	4341
1774.123	4308
1776.264	4452
1778.405	4443
1780.546	4376
1782.687	4495
1784.827	4335
1786.966	4427
1789.103	4435
1791.242	4473
1793.381	4496
1795.517	4510
1797.653	4415
1799.788	4404
1801.923	4470
1804.057	4459
1806.193	4508
1808.326	4492
1810.457	4506
1812.59	4377
1814.721	4400
1816.855	4378
1818.984	4503
1821.113	4390
1823.244	4333
1825.372	4471
1827.499	4416
1829.63	4394
1831.756	4397
1833.882	4382
1836.007	4377
1838.132	4391
1840.26	4550
1842.384	4358
1844.507	4466
1846.63	4414
1848.752	4430
1850.875	4344
1852.996	4363
1855.118	4328
1857.238	4437
1859.358	4388
1861.477	4424
1863.597	4385
1865.715	4363
1867.832	4373
1869.948	4380
1872.064	4341
1874.181	4424
1876.297	4410
1878.411	4437
1880.526	4536
1882.639	4405
1884.752	4427
1886.865	4363
1888.977	4513
1891.089	4325
1893.2	4444
1895.308	4354
1897.42	4545
1899.53	4513
1901.639	4463
1903.745	4420
1905.853	4461
1907.962	4489
1910.067	4375
1912.174	4483
1914.278	4373
1916.383	4477
1918.486	4473
1920.592	4483
1922.694	4421
1924.797	4452
1926.898	4420
1929	4390
1931.102	4341
1933.203	4494
1935.301	4458
1937.401	4418
1939.499	4489
1941.598	4577
1943.697	4460
1945.793	4464
1947.888	4429
1949.985	4481
1952.08	4464
1954.176	4436
1956.269	4417
1958.364	4506
1960.457	4420
1962.549	4430
1964.642	4474
1966.733	4444
1968.823	4422
1970.913	4496
1973.005	4532
1975.093	4432
1977.184	4459
1979.271	4442
1981.359	4428
1983.446	4414
1985.532	4554
1987.619	4490
1989.705	4388
1991.789	4422
1993.874	4420
1995.956	4471
1998.041	4422
2000.123	4404
2002.206	4417
2004.287	4527
2006.368	4461
2008.449	4367
2010.529	4500
2012.609	4519
2014.688	4375
2016.766	4392
2018.843	4302
2020.922	4434
2022.999	4394
2025.074	4424
2027.15	4370
2029.225	4424
2031.299	4437
2033.375	4370
2035.447	4413
2037.52	4425
2039.592	4344
2041.664	4390
2043.736	4377
2045.807	4435
2047.876	4484
2049.947	4504
2052.015	4437
2054.086	4525
2056.153	4373
2058.221	4389
2060.288	4406
2062.353	4387
2064.42	4409
2066.486	4452
2068.55	4503
2070.614	4443
2072.678	4417
2074.741	4396
2076.805	4540
2078.866	4415
2080.929	4419
2082.99	4416
2085.049	4415
2087.109	4498
2089.17	4387
2091.228	4343
2093.286	4446
2095.344	4430
2097.4	4366
2099.46	4512
2101.516	4405
2103.572	4387
2105.626	4469
2107.679	4390
2109.735	4377
2111.788	4415
2113.841	4423
2115.894	4497
2117.945	4391
2119.997	4452
2122.049	4368
2124.1	4512
2126.148	4447
2128.197	4385
2130.246	4402
2132.296	4496
2134.342	4414
2136.39	4384
2138.437	4440
2140.483	4397
2142.527	4394
2144.574	4503
2146.619	4420
2148.661	4329
2150.705	4495
2152.747	4389
2154.792	4273
2156.832	4441
2158.874	4431
2160.915	4378
2162.954	4359
2164.995	4370
2167.034	4389
2169.072	4374
2171.111	4381
2173.148	4439
2175.186	4380
2177.223	4446
2179.258	4431
2181.294	4398
2183.328	4385
2185.362	4371
2187.398	4274
2189.431	4458
2191.463	4343
2193.495	4334
2195.528	4336
2197.56	4398
2199.59	4339
2201.62	4303
2203.649	4351
2205.678	4362
2207.708	4289
2209.737	4317
2211.764	4314
2213.791	4276
2215.817	4295
2217.843	4298
2219.87	4363
2221.895	4310
2223.919	4385
2225.942	4204
2227.966	4296
2229.988	4346
2232.012	4222
2234.032	4345
2236.054	4255
2238.074	4242
2240.095	4378
2242.116	4260
2244.135	4351
2246.153	4252
2248.171	4281
2250.188	4324
2252.208	4246
2254.223	4370
2256.239	4331
2258.255	4375
2260.269	4258
2262.283	4351
2264.3	4289
2266.312	4300
2268.325	4373
2270.336	4330
2272.349	4311
2274.362	4229
2276.372	4369
2278.383	4290
2280.392	4324
2282.402	4254
2284.409	4365
2286.418	4384
2288.427	4381
2290.433	4396
2292.441	4353
2294.446	4359
2296.453	4336
2298.459	4393
2300.463	4341
2302.466	4259
2304.471	4299
2306.475	4235
2308.477	4230
2310.478	4294
2312.481	4237
2314.481	4303
2316.481	4303
2318.482	4300
2320.482	4342
2322.48	4277
2324.48	4294
2326.478	4280
2328.476	4330
2330.473	4272
2332.469	4245
2334.465	4263
2336.46	4302
2338.454	4300
2340.45	4302
2342.444	4312
2344.437	4216
2346.43	4235
2348.421	4211
2350.414	4184
2352.405	4226
2354.396	4301
2356.386	4259
2358.376	4274
2360.366	4241
2362.355	4243
2364.343	4270
2366.331	4243
2368.317	4173
2370.304	4394
2372.292	4271
2374.278	4256
2376.262	4208
2378.247	4238
2380.23	4294
2382.216	4180
2384.199	4122
2386.181	4178
2388.163	4168
2390.144	4214
2392.127	4218
2394.107	4160
2396.087	4152
2398.066	4169
2400.046	4209
2402.023	4193
2404.004	4142
2405.981	4195
2407.957	4233
2409.934	4154
2411.91	4233
2413.886	4169
2415.862	4154
2417.836	4189
2419.809	4209
2421.784	4121
2423.756	4175
2425.73	4208
2427.701	4159
2429.672	4272
2431.644	4169
2433.615	4202
2435.586	4268
2437.555	4165
2439.523	4116
2441.491	4188
2443.459	4198
2445.428	4125
2447.395	4176
2449.361	4096
2451.327	4133
2453.292	4151
2455.257	4160
2457.223	4178
2459.187	4070
2461.15	4105
2463.113	4126
2465.076	4142
2467.039	4156
2468.999	4155
2470.96	4117
2472.921	4114
2474.881	4207
2476.841	4150
2478.8	4117
2480.759	4109
2482.717	4020
2484.675	4118
2486.63	4112
2488.589	4123
2490.545	4070
2492.5	4105
2494.455	4189
2496.408	4067
2498.364	4114
2500.318	4044
2502.27	4073
2504.223	4122
2506.174	4169
2508.126	4136
2510.078	4116
2512.03	4061
2513.979	4107
2515.927	4150
2517.877	4126
2519.826	4090
2521.775	4055
2523.722	4114
2525.668	4120
2527.616	4057
2529.561	4089
2531.508	4137
2533.452	4173
2535.398	4160
2537.342	4148
2539.284	4074
2541.229	4124
2543.173	4050
2545.114	4073
2547.055	4136
2548.996	4064
2550.938	4025
2552.878	4167
2554.817	4078
2556.756	4057
2558.695	4027
2560.633	4118
2562.572	4050
2564.509	4208
2566.445	4086
2568.382	4063
2570.317	4144
2572.254	4145
2574.189	4041
2576.123	4041
2578.057	4078
2579.99	4080
2581.923	4185
2583.855	4047
2585.788	4101
2587.719	4159
2589.65	4118
2591.579	4048
2593.511	4114
2595.44	3979
2597.37	4116
2599.297	4231
2601.225	4131
2603.153	3986
2605.08	4138
2607.007	4078
2608.932	4159
2610.858	4077
2612.782	4097
2614.709	4123
2616.632	4114
2618.556	4125
2620.478	4158
2622.401	4052
2624.324	4111
2626.247	4133
2628.167	4162
2630.088	4128
2632.008	4052
2633.928	4037
2635.848	4106
2637.766	3992
2639.684	4057
2641.603	4039
2643.519	4154
2645.437	4087
2647.353	4123
2649.27	4073
2651.184	4107
2653.099	4139
2655.014	4064
2656.928	4131
2658.842	4016
2660.755	4112
2662.667	4130
2664.579	4053
2666.491	4046
2668.402	4121
2670.312	4094
2672.222	4035
2674.132	4105
2676.042	3982
2677.951	3974
2679.859	4142
2681.766	4117
2683.674	4048
2685.582	4111
2687.488	4078
2689.392	4018
2691.298	3983
2693.202	3945
2695.107	3982
2697.012	4066
2698.914	4019
2700.817	4082
2702.72	4053
2704.622	4054
2706.524	4083
2708.425	3988
2710.326	3990
2712.225	4046
2714.125	4005
2716.024	4027
2717.923	4089
2719.822	4015
2721.719	4082
2723.616	4020
2725.512	4049
2727.41	4016
2729.305	4008
2731.201	3984
2733.095	4074
2734.99	4052
2736.884	4024
2738.778	4043
2740.67	4059
2742.562	3983
2744.455	4074
2746.346	4073
2748.238	3974
2750.129	4012
2752.018	4011
2753.907	4006
2755.797	4019
2757.687	4005
2759.575	3977
2761.462	3970
2763.349	3983
2765.237	4043
2767.124	4014
2769.009	3969
2770.894	4066
2772.779	4020
2774.663	4051
2776.547	4003
2778.431	3935
2780.314	3941
2782.197	3990
2784.078	3907
2785.96	4005
2787.842	3982
2789.723	3946
2791.603	3989
2793.483	3921
2795.362	3970
2797.241	4029
2799.121	4045
2800.997	3999
2802.874	3976
2804.751	4008
2806.628	3949
2808.506	3961
2810.38	3970
2812.255	3986
2814.13	3900
2816.003	3966
2817.878	3953
2819.752	3949
2821.623	3991
2823.496	3870
2825.368	3957
2827.238	3939
2829.111	3929
2830.98	3943
2832.851	3974
2834.719	3859
2836.589	3940
2838.458	3965
2840.327	3983
2842.193	3950
2844.061	4005
2845.927	3962
2847.794	4027
2849.66	4048
2851.525	4024
2853.39	4085
2855.254	4027
2857.117	4048
2858.983	4012
2860.845	4064
2862.707	4059
2864.569	4138
2866.431	4103
2868.293	4183
2870.154	4156
2872.013	4265
2873.873	4226
2875.733	4271
2877.592	4248
2879.451	4337
2881.309	4358
2883.166	4324
2885.022	4354
2886.879	4350
2888.736	4441
2890.591	4446
2892.446	4417
2894.301	4377
2896.155	4392
2898.009	4392
2899.863	4390
2901.716	4413
2903.568	4462
2905.419	4483
2907.27	4378
2909.123	4320
2910.973	4368
2912.824	4411
2914.673	4391
2916.521	4467
2918.372	4520
2920.22	4579
2922.067	4520
2923.914	4611
2925.761	4637
2927.607	4696
2929.455	4756
2931.301	4707
2933.144	4817
2934.99	4880
2936.833	4871
2938.678	4963
2940.522	4951
2942.364	4966
2944.207	5049
2946.048	5040
2947.891	5065
2949.731	5082
2951.571	4997
2953.412	5041
2955.25	5006
2957.09	4940
2958.93	4848
2960.767	4861
2962.606	4663
2964.443	4842
2966.279	4807
2968.116	4695
2969.953	4663
2971.788	4606
2973.623	4570
2975.457	4537
2977.292	4539
2979.127	4450
2980.959	4598
2982.792	4441
2984.624	4451
2986.455	4406
2988.288	4357
2990.119	4456
2991.949	4282
2993.779	4357
2995.608	4274
2997.439	4203
2999.268	4194
3001.096	4236
3002.923	4178
3004.751	4117
3006.578	4106
3008.406	4109
3010.232	4081
3012.057	3952
3013.883	3986
3015.706	3973
3017.532	3942
3019.356	3907
3021.179	3969
3023.002	3955
3024.823	3848
3026.646	3894
3028.469	3869
3030.289	3863
3032.11	3768
3033.93	3957
3035.749	3775
3037.57	3793
3039.39	3769
3041.207	3726
3043.026	3785
3044.842	3807
3046.661	3788
3048.477	3736
3050.294	3754
3052.109	3747
3053.925	3767
3055.739	3756
3057.555	3795
3059.368	3768
3061.181	3720
3062.995	3876
3064.807	3847
3066.62	3866
3068.433	3716
3070.243	3762
3072.054	3792
3073.865	3778
3075.675	3836
3077.485	3785
3079.293	3700
3081.102	3805
3082.911	3733
3084.719	3712
3086.527	3804
3088.333	3725
3090.139	3635
3091.945	3643
3093.75	3688
3095.557	3762
3097.361	3751
3099.165	3667
3100.969	3659
3102.772	3636
3104.575	3645
3106.379	3646
3108.181	3620
3109.982	3639
3111.783	3704
3113.584	3625
3115.386	3742
3117.186	3646
3118.985	3612
3120.783	3703
3122.582	3593
3124.381	3581
3126.179	3635
3127.975	3646
3129.772	3660
3131.569	3693
3133.365	3503
3135.161	3692
3136.956	3629
3138.751	3620
3140.544	3503
3142.338	3565
3144.132	3612
3145.925	3573
3147.717	3553
3149.509	3613
3151.301	3528
3153.091	3547
3154.884	3638
3156.673	3686
3158.462	3589
3160.252	3506
3162.041	3624
3163.831	3467
3165.618	3538
3167.405	3594
3169.193	3620
3170.979	3491
3172.767	3552
3174.553	3595
3176.338	3550
3178.123	3580
3179.907	3575
3181.692	3464
3183.477	3517
3185.259	3648
3187.042	3541
3188.824	3493
3190.607	3531
3192.389	3599
3194.17	3518
3195.951	3501
3197.73	3583
3199.51	3540
3201.289	3591
3203.07	3456
3204.848	3566
3206.626	3520
3208.403	3585
3210.18	3553
3211.959	3530
3213.735	3583
3215.511	3631
3217.285	3529
3219.06	3517
3220.836	3545
3222.611	3495
3224.384	3486
3226.158	3624
3227.929	3590
3229.702	3536
3231.476	3542
3233.248	3567
3235.018	3518
3236.789	3560
3238.56	3596
3240.33	3612
3242.1	3493
3243.869	3520
3245.637	3496
3247.405	3525
3249.172	3555
3250.941	3523
3252.707	3524
3254.474	3528
3256.24	3537
3258.006	3482
3259.772	3567
3261.537	3628
3263.301	3561
3265.065	3529
3266.828	3560
3268.592	3503
3270.355	3552
3272.117	3620
3273.878	3471
3275.64	3545
3277.401	3532
3279.162	3508
3280.922	3531
3282.682	3503
3284.441	3578
3286.199	3546
3287.959	3530
3289.716	3516
3291.475	3569
3293.232	3612
3294.988	3524
3296.744	3524
3298.501	3567
3300.256	3545
3302.011	3639
3303.766	3517
3305.52	3606
3307.275	3640
3309.028	3586
3310.781	3548
3312.533	3572
3314.285	3572
3316.038	3576
3317.789	3633
3319.54	3557
3321.289	3570
3323.039	3537
3324.789	3516
3326.539	3489
3328.288	3509
3330.035	3549
3331.783	3519
3333.531	3540
3335.28	3602
3337.025	3469
3338.771	3572
3340.518	3444
3342.262	3609
3344.009	3488
3345.753	3538
3347.497	3526
3349.24	3397
3350.983	3419
3352.726	3479
3354.469	3433
3356.212	3439
3357.952	3484
3359.694	3503
3361.434	3503
3363.176	3455
3364.916	3452
3366.654	3449
3368.394	3476
3370.132	3459
3371.871	3477
3373.61	3428
3375.346	3445
3377.083	3462
3378.82	3326
3380.556	3431
3382.292	3367
3384.027	3452
3385.763	3531
3387.497	3355
3389.231	3422
3390.965	3396
3392.698	3331
3394.431	3470
3396.164	3385
3397.896	3418
3399.627	3425
3401.36	3377
3403.09	3424
3404.82	3372
3406.55	3413
3408.279	3385
3410.01	3366
3411.738	3354
3413.467	3351
3415.194	3369
3416.92	3335
3418.647	3366
3420.375	3371
3422.102	3396
3423.827	3352
3425.553	3392
3427.277	3326
3429.003	3351
3430.727	3404
3432.451	3408
3434.173	3336
3435.896	3321
3437.62	3240
3439.343	3392
3441.063	3323
3442.785	3346
3444.505	3237
3446.226	3249
3447.948	3307
3449.666	3306
3451.386	3249
3453.104	3260
3454.823	3326
3456.541	3238
3458.259	3257
3459.976	3244
3461.693	3275
3463.408	3337
3465.125	3245
3466.841	3266
3468.556	3212
3470.271	3184
3471.985	3303
3473.698	3195
3475.414	3218
3477.126	3217
3478.838	3232
3480.55	3220
3482.263	3268
3483.975	3153
3485.686	3253
3487.396	3190
3489.106	3191
3490.817	3212
3492.526	3159
3494.236	3173
3495.944	3128
3497.652	3215
3499.359	3188
3501.066	3240
3502.775	3201
3504.481	3197
3506.187	3227
3507.893	3159
3509.598	3109
3511.304	3180
3513.009	3157
3514.713	3096
3516.417	3075
3518.12	3142
3519.821	3116
3521.525	3146
3523.228	3132
3524.929	3134
3526.631	3165
3528.33	3119
3530.032	3095
3531.733	3113
3533.433	3107
3535.131	3139
3536.83	3085
3538.529	3156
3540.227	3051
3541.925	3083
3543.623	3024
3545.319	3063
3547.016	3171
3548.712	3091
3550.408	2994
3552.103	3095
3553.798	3063
3555.491	3078
3557.188	3066
3558.88	3048
3560.574	2983
3562.266	3054
3563.959	3074
3565.651	3038
3567.343	3069
3569.035	2967
3570.725	3025
3572.415	3044
3574.106	2998
3575.797	2956
3577.485	2972
3579.174	3085
3580.863	3039
3582.551	3039
3584.238	2988
3585.926	2992
3587.613	2980
3589.3	2973
3590.986	3015
3592.671	2945
3594.357	2971
3596.042	2941
3597.726	2881
3599.41	2989
3601.094	2951
3602.778	2921
3604.461	2893
3606.143	2903
3607.825	2932
3609.507	2934
3611.188	2951
3612.87	2970
3614.551	2881
3616.229	2962
3617.909	2943
3619.589	2811
3621.269	2854
3622.948	2860
3624.625	2901
3626.302	2826
3627.98	2813
3629.657	2814
3631.334	2835
3633.01	2798
3634.686	2905
3636.361	2848
3638.036	2867
3639.712	2757
3641.385	2926
3643.06	2789
3644.732	2889
3646.405	2803
3648.08	2853
3649.751	2827
3651.424	2778
3653.094	2874
3654.766	2835
3656.436	2854
3658.106	2813
3659.777	2817
3661.446	2826
3663.115	2813
3664.783	2889
3666.452	2748
3668.121	2764
3669.788	2707
3671.454	2746
3673.121	2753
3674.789	2775
3676.455	2830
3678.12	2808
3679.784	2795
3681.45	2756
3683.114	2751
3684.779	2750
3686.442	2714
3688.105	2763
3689.768	2769
3691.43	2783
3693.093	2727
3694.754	2791
3696.415	2722
3698.076	2716
3699.736	2776
3701.396	2733
3703.057	2798
3704.716	2696
3706.375	2768
3708.034	2752
3709.692	2745
3711.351	2807
3713.008	2733
3714.665	2709
3716.321	2752
3717.977	2674
3719.634	2761
3721.29	2751
3722.945	2695
3724.598	2665
3726.253	2727
3727.907	2677
3729.561	2717
3731.214	2680
3732.867	2682
3734.518	2623
3736.171	2738
3737.824	2699
3739.474	2645
3741.125	2641
3742.775	2693
3744.425	2672
3746.074	2704
3747.725	2731
3749.373	2682
3751.022	2720
3752.669	2627
3754.318	2689
3755.966	2663
3757.612	2686
3759.259	2651
3760.905	2661
3762.55	2657
3764.197	2698
3765.842	2657
3767.486	2712
3769.131	2662
3770.774	2632
3772.417	2657
3774.061	2604
3775.705	2668
3777.347	2686
3778.988	2611
3780.629	2666
3782.271	2652
3783.912	2629
3785.552	2578
3787.192	2660
3788.831	2664
3790.472	2665
3792.112	2627
3793.75	2606
3795.388	2655
3797.024	2620
3798.661	2622
3800.3	2606
3801.936	2642
3803.572	2615
3805.208	2616
3806.844	2674
3808.48	2523
3810.115	2580
3811.748	2545
3813.382	2656
3815.016	2655
3816.649	2645
3818.283	2549
3819.914	2622
3821.547	2594
3823.178	2592
3824.809	2617
3826.441	2572
3828.072	2605
3829.701	2471
3831.331	2587
3832.96	2561
3834.591	2513
3836.219	2576
3837.847	2556
3839.475	2576
3841.102	2571
3842.729	2547
3844.357	2570
3845.984	2547
3847.609	2543
3849.234	2525
3850.86	2482
3852.485	2556
3854.11	2590
3855.734	2491
3857.357	2473
3858.981	2506
3860.603	2511
3862.227	2547
3863.848	2494
3865.471	2577
3867.092	2509
3868.713	2473
3870.334	2532
3871.954	2385
3873.575	2524
3875.194	2502
3876.813	2570
3878.433	2441
3880.051	2491
3881.669	2435
3883.286	2481
3884.904	2534
3886.52	2497
3888.138	2470
3889.754	2481
3891.37	2475
3892.985	2516
3894.6	2475
3896.216	2567
3897.831	2440
3899.444	2483
3901.058	2460
3902.67	2474
3904.283	2487
3905.897	2462
3907.509	2495
3909.121	2515
3910.731	2472
3912.342	2429
3913.954	2495
3915.563	2438
3917.174	2413
3918.783	2457
3920.391	2498
3922.002	2490
3923.611	2425
3925.218	2389
3926.826	2365
3928.432	2499
3930.039	2461
3931.647	2501
3933.253	2395
3934.859	2442
3936.464	2406
3938.068	2410
3939.675	2403
3941.278	2489
3942.883	2492
3944.486	2419
3946.089	2537
3947.692	2469
3949.295	2429
3950.898	2399
3952.499	2401
3954.1	2412
3955.7	2390
3957.303	2406
3958.903	2459
3960.502	2428
3962.101	2312
3963.7	2363
3965.301	2438
3966.899	2396
3968.497	2459
3970.094	2385
3971.691	2371
3973.288	2418
3974.885	2433
3976.481	2416
3978.077	2394
3979.672	2357
3981.267	2357
3982.863	2394
3984.457	2426
3986.051	2359
3987.645	2361
3989.238	2435
3990.831	2335
3992.425	2376
3994.017	2334
3995.607	2334
3997.199	2414
3998.79	2329
4000.382	2364
4001.973	2343
4003.561	2366
4005.151	2408
4006.741	2361
4008.331	2286
4009.918	2316
4011.507	2281
4013.095	2329
4014.681	2309
4016.269	2294
4017.856	2320
4019.443	2304
4021.028	2324
4022.614	2289
4024.199	2320
4025.785	2309
4027.37	2300
4028.953	2266
4030.536	2287
4032.12	2337
4033.704	2251
4035.287	2314
4036.869	2275
4038.45	2300
4040.032	2316
4041.613	2285
4043.195	2319
4044.776	2230
4046.356	2306
4047.935	2277
4049.515	2261
4051.095	2204
4052.674	2284
4054.251	2292
4055.829	2225
4057.406	2245
4058.985	2214
4060.562	2302
4062.139	2212
4063.715	2250
4065.29	2292
4066.865	2235
4068.442	2196
4070.016	2183
4071.59	2210
4073.164	2250
4074.738	2184
4076.312	2188
4077.885	2192
4079.458	2238
4081.03	2194
4082.602	2303
4084.173	2229
4085.745	2175
4087.315	2279
4088.886	2196
4090.456	2228
4092.026	2220
4093.596	2235
4095.165	2263
4096.734	2252
4098.301	2229
4099.869	2212
4101.437	2203
4103.006	2226
4104.572	2249
4106.139	2278
4107.704	2211
4109.27	2189
4110.837	2198
4112.401	2155
4113.966	2174
4115.53	2166
4117.094	2211
4118.659	2188
4120.223	2177
4121.785	2171
4123.347	2190
4124.909	2209
4126.471	2170
4128.034	2139
4129.595	2143
4131.155	2196
4132.716	2131
4134.275	2154
4135.836	2165
4137.395	2142
4138.955	2118
4140.513	2202
4142.071	2120
4143.628	2107
4145.188	2201
4146.745	2116
4148.302	2146
4149.858	2140
4151.414	2131
4152.971	2109
4154.526	2107
4156.081	2096
4157.635	2178
4159.189	2141
4160.745	2089
4162.298	2114
4163.852	2117
4165.405	2079
4166.957	2064
4168.51	2162
4170.063	2093
4171.614	2105
4173.166	2076
4174.717	2112
4176.267	2122
4177.817	2090
4179.368	2142
4180.917	2122
4182.466	2074
4184.016	2031
4185.564	2094
4187.112	2042
4188.66	2075
4190.207	2085
4191.754	2062
4193.301	2072
4194.848	2115
4196.394	2050
4197.94	2101
4199.484	2098
4201.03	2120
4202.575	2097
4204.12	2060
4205.663	2088
4207.207	2101
4208.75	2049
4210.292	2103
4211.836	2033
4213.378	2083
4214.92	2024
4216.46	2023
4218.002	2035
4219.544	2000
4221.083	2045
4222.625	2103
4224.164	1969
4225.703	2134
4227.244	1999
4228.782	2072
4230.32	1978
4231.857	1994
4233.395	2030
4234.933	2036
4236.471	2042
4238.007	2049
4239.542	2040
4241.078	2017
4242.614	2049
4244.15	2048
4245.685	1994
4247.219	2059
4248.753	2089
4250.287	1969
4251.82	2036
4253.354	2024
4254.887	2022
4256.419	1999
4257.951	2053
4259.483	2066
4261.016	1986
4262.547	1956
4264.078	2004
4265.608	2027
4267.137	2022
4268.668	1975
4270.197	2007
4271.727	2017
4273.254	1963
4274.783	1994
4276.311	1938
4277.84	1995
4279.366	1934
4280.894	1980
4282.42	1927
4283.946	1959
4285.473	1936
4286.998	2011
4288.523	1993
4290.047	2005
4291.572	1983
4293.096	1976
4294.622	2016
4296.144	1962
4297.668	1918
4299.19	1957
4300.713	1965
4302.236	1948
4303.758	1952
4305.279	1983
4306.799	1961
4308.321	1990
4309.842	1899
4311.361	1961
4312.882	1960
4314.401	1965
