400.0961	2252
402.6185	2272
405.1424	2262
407.6635	2374
410.1838	2309
412.7035	2279
415.2225	2333
417.7388	2371
420.2585	2386
422.7754	2370
425.2917	2413
427.8072	2384
430.3221	2490
432.8363	2393
435.3498	2468
437.8626	2407
440.3727	2402
442.8841	2409
445.3969	2476
447.907	2459
450.4142	2461
452.9229	2436
455.4289	2473
457.9362	2404
460.4449	2413
462.9488	2325
465.454	2454
467.9566	2431
470.4604	2452
472.9637	2458
475.4662	2415
477.966	2365
480.4671	2422
482.9656	2340
485.4633	2458
487.9645	2395
490.4608	2438
492.9566	2464
495.4536	2487
497.948	2460
500.4437	2428
502.9387	2415
505.431	2431
507.9226	2402
510.4136	2460
512.9079	2462
515.3975	2464
517.8864	2436
520.3746	2502
522.8622	2483
525.3491	2477
527.8394	2478
530.3249	2530
532.8098	2483
535.2939	2531
537.7774	2573
540.2623	2500
542.7444	2455
545.2259	2501
547.7067	2523
550.1868	2509
552.6683	2413
555.147	2523
557.6231	2479
560.1005	2506
562.5773	2492
565.0534	2485
567.5308	2485
570.0056	2555
572.4776	2555
574.951	2572
577.4237	2552
579.8978	2584
582.3671	2645
584.8378	2520
587.3079	2594
589.7773	2620
592.244	2645
594.714	2579
597.1793	2593
599.6461	2575
602.1121	2555
604.5754	2601
607.0421	2595
609.5042	2609
611.9675	2498
614.4282	2554
616.8902	2542
619.3515	2525
621.8122	2469
624.2702	2552
626.7296	2591
629.1863	2541
631.6423	2552
634.1017	2489
636.5563	2477
639.0104	2549
641.4658	2532
643.9185	2588
646.3725	2522
648.8239	2559
651.2766	2551
653.7266	2572
656.176	2583
658.6247	2631
661.0748	2536
663.5242	2562
665.9709	2612
668.417	2550
670.8624	2643
673.3092	2687
675.7533	2629
678.1968	2534
680.6395	2567
683.0817	2582
685.5251	2547
687.9659	2635
690.4061	2609
692.8456	2597
695.2844	2679
697.7226	2608
700.1621	2605
702.599	2657
705.0332	2598
707.4688	2686
709.9036	2578
712.3399	2666
714.7735	2587
717.2044	2684
719.6367	2754
722.0683	2651
724.4993	2703
726.9296	2757
729.3593	2658
731.7883	2755
734.2147	2741
736.6423	2731
739.0714	2723
741.4958	2723
743.9216	2713
746.3447	2809
748.7691	2732
751.1929	2771
753.616	2713
756.0366	2676
758.4584	2769
760.8776	2699
763.2982	2757
765.718	2759
768.1373	2754
770.5539	2783
772.9698	2789
775.3871	2786
777.8038	2837
780.2178	2790
782.6332	2783
785.0459	2761
787.458	2805
789.8714	2846
792.2842	2779
794.6943	2791
797.1038	2864
799.5127	2811
801.9209	2750
804.3324	2765
806.7393	2789
809.1456	2878
811.5513	2776
813.9562	2813
816.3625	2898
818.7663	2867
821.1693	2818
823.5718	2803
825.9735	2828
828.3746	2795
830.7771	2804
833.177	2868
835.5762	2894
837.9747	2829
840.3727	2879
842.772	2860
845.1666	2898
847.5626	2862
849.958	2929
852.3527	2972
854.7488	2859
857.1403	2941
859.5331	2877
861.9253	2942
864.3168	2911
866.7057	2917
869.098	2840
871.4876	2939
873.8746	2816
876.263	2936
878.6487	2867
881.0378	2818
883.4243	2880
885.8081	2873
888.1933	2929
890.5759	2857
892.9598	2925
895.343	2919
897.7256	2917
900.1057	2867
902.4871	2852
904.8659	2942
907.246	2994
909.6254	2937
912.0023	2996
914.3786	3005
916.7562	2979
919.1331	3045
921.5074	3085
923.8831	3066
926.2562	3081
928.6287	3183
931.0005	3014
933.3757	3082
935.7462	3050
938.1162	3073
940.4855	3212
942.8542	3116
945.2242	3168
947.5916	3264
949.9584	3271
952.3266	3411
954.6921	3465
957.0571	3635
959.4233	3677
961.787	3798
964.15	3706
966.5125	3648
968.8742	3527
971.2354	3425
973.5959	3268
975.9559	3235
978.3151	3048
980.6738	3060
983.0338	3072
985.3912	3043
987.7461	3085
990.1022	2964
992.4578	2968
994.8127	3084
997.1689	2948
999.5207	3013
1001.874	3050
1004.226	3017
1006.576	3004
1008.929	3031
1011.28	3055
1013.628	3064
1015.977	2959
1018.324	3015
1020.674	2994
1023.019	3054
1025.366	3050
1027.713	2979
1030.056	3074
1032.399	3062
1034.746	3107
1037.087	3096
1039.431	3108
1041.771	3079
1044.113	3078
1046.454	3111
1048.793	3088
1051.133	3074
1053.471	3082
1055.807	3103
1058.146	3087
1060.483	3045
1062.818	3135
1065.153	3018
1067.489	3122
1069.822	3156
1072.156	3141
1074.488	3126
1076.82	3163
1079.15	3147
1081.48	3111
1083.814	3133
1086.143	3196
1088.471	3128
1090.799	3031
1093.126	3014
1095.452	3120
1097.78	3134
1100.105	3009
1102.43	3097
1104.754	3120
1107.077	3045
1109.4	3120
1111.722	3038
1114.044	3036
1116.365	3090
1118.685	3069
1121.005	3076
1123.324	3131
1125.643	3030
1127.961	3129
1130.278	3128
1132.595	3010
1134.911	3110
1137.226	3116
1139.541	3117
1141.854	3081
1144.167	3016
1146.482	3046
1148.793	3087
1151.105	3124
1153.414	3078
1155.725	3031
1158.033	3083
1160.344	3125
1162.651	3173
1164.959	3112
1167.265	3155
1169.572	3020
1171.878	3067
1174.184	3168
1176.488	3084
1178.79	3085
1181.094	3106
1183.396	3118
1185.699	3055
1188.001	3010
1190.301	3044
1192.6	3107
1194.9	3132
1197.2	3097
1199.497	3131
1201.794	3184
1204.09	3143
1206.387	3054
1208.684	3125
1210.978	3151
1213.272	3126
1215.565	3128
1217.858	3123
1220.15	3149
1222.443	3153
1224.734	3079
1227.024	3164
1229.313	3173
1231.602	3151
1233.892	3221
1236.18	3192
1238.467	3228
1240.754	3223
1243.04	3212
1245.325	3220
1247.612	3207
1249.896	3258
1252.178	3195
1254.461	3329
1256.743	3279
1259.027	3280
1261.308	3248
1263.587	3242
1265.867	3297
1268.146	3224
1270.425	3183
1272.703	3228
1274.981	3284
1277.256	3197
1279.532	3297
1281.808	3233
1284.083	3225
1286.358	3281
1288.63	3248
1290.904	3130
1293.175	3176
1295.449	3291
1297.719	3201
1299.99	3208
1302.259	3220
1304.529	3241
1306.798	3190
1309.065	3173
1311.333	3152
1313.599	3277
1315.866	3160
1318.131	3186
1320.396	3250
1322.66	3173
1324.925	3172
1327.187	3192
1329.448	3233
1331.711	3231
1333.974	3201
1336.234	3188
1338.493	3235
1340.752	3288
1343.01	3274
1345.269	3181
1347.526	3136
1349.784	3186
1352.04	3259
1354.295	3203
1356.552	3171
1358.806	3201
1361.059	3171
1363.312	3133
1365.564	3222
1367.818	3160
1370.069	3293
1372.318	3155
1374.568	3207
1376.817	3314
1379.066	3129
1381.316	3190
1383.564	3224
1385.809	3263
1388.056	3252
1390.301	3268
1392.549	3269
1394.793	3288
1397.036	3258
1399.279	3346
1401.522	3315
1403.763	3311
1406.007	3362
1408.248	3351
1410.487	3331
1412.727	3357
1414.965	3375
1417.205	3388
1419.442	3326
1421.68	3291
1423.915	3312
1426.152	3332
1428.388	3373
1430.623	3431
1432.857	3364
1435.091	3419
1437.323	3445
1439.556	3375
1441.789	3417
1444.019	3406
1446.25	3359
1448.48	3370
1450.708	3407
1452.938	3379
1455.167	3418
1457.394	3405
1459.62	3487
1461.846	3355
1464.073	3344
1466.299	3398
1468.523	3429
1470.746	3347
1472.969	3316
1475.191	3244
1477.415	3317
1479.636	3304
1481.858	3223
1484.078	3291
1486.298	3249
1488.518	3304
1490.736	3236
1492.954	3212
1495.169	3203
1497.386	3174
1499.602	3198
1501.819	3170
1504.034	3218
1506.248	3239
1508.462	3310
1510.675	3136
1512.888	3264
1515.1	3277
1517.311	3187
1519.522	3154
1521.732	3211
1523.942	3256
1526.151	3135
1528.36	3251
1530.566	3220
1532.773	3246
1534.98	3151
1537.187	3212
1539.392	3293
1541.596	3166
1543.801	3285
1546.005	3197
1548.208	3283
1550.411	3249
1552.612	3289
1554.814	3287
1557.013	3326
1559.212	3304
1561.414	3305
1563.612	3234
1565.811	3291
1568.007	3298
1570.203	3322
1572.403	3359
1574.598	3278
1576.792	3312
1578.988	3261
1581.181	3288
1583.376	3302
1585.568	3385
1587.761	3294
1589.952	3345
1592.143	3313
1594.333	3313
1596.524	3420
1598.715	3362
1600.903	3382
1603.091	3317
1605.278	3294
1607.466	3356
1609.652	3359
1611.838	3350
1614.023	3375
1616.207	3282
1618.391	3340
1620.576	3302
1622.759	3352
1624.941	3313
1627.123	3379
1629.304	3343
1631.484	3436
1633.664	3447
1635.844	3510
1638.022	3436
1640.201	3424
1642.38	3394
1644.556	3347
1646.732	3389
1648.908	3368
1651.084	3450
1653.257	3417
1655.433	3422
1657.607	3450
1659.779	3498
1661.951	3460
1664.122	3430
1666.295	3358
1668.467	3415
1670.635	3409
1672.805	3503
1674.973	3471
1677.142	3394
1679.31	3488
1681.478	3507
1683.644	3421
1685.81	3458
1687.975	3408
1690.142	3465
1692.305	3417
1694.468	3427
1696.632	3419
1698.794	3373
1700.957	3280
1703.119	3412
1705.279	3388
1707.439	3352
1709.598	3416
1711.758	3291
1713.917	3300
1716.075	3332
1718.231	3282
1720.388	3301
1722.543	3409
1724.702	3326
1726.856	3307
1729.01	3385
1731.164	3298
1733.317	3398
1735.471	3337
1737.623	3237
1739.774	3282
1741.925	3323
1744.075	3276
1746.225	3355
1748.376	3275
1750.524	3322
1752.672	3326
1754.82	3330
1756.965	3343
1759.113	3354
1761.259	3326
1763.405	3373
1765.549	3361
1767.694	3368
1769.836	3366
1771.981	3314
1774.123	3365
1776.264	3326
1778.405	3423
1780.546	3368
1782.687	3365
1784.827	3373
1786.966	3447
1789.103	3291
1791.242	3373
1793.381	3486
1795.517	3362
1797.653	3340
1799.788	3399
1801.923	3408
1804.057	3389
1806.193	3334
1808.326	3360
1810.457	3399
1812.59	3379
1814.721	3421
1816.855	3382
1818.984	3300
1821.113	3364
1823.244	3417
1825.372	3341
1827.499	3335
1829.63	3401
1831.756	3322
1833.882	3440
1836.007	3386
1838.132	3347
1840.26	3383
1842.384	3354
1844.507	3336
1846.63	3308
1848.752	3325
1850.875	3419
1852.996	3354
1855.118	3288
1857.238	3426
1859.358	3338
1861.477	3363
1863.597	3342
1865.715	3396
1867.832	3327
1869.948	3369
1872.064	3389
1874.181	3296
1876.297	3274
1878.411	3347
1880.526	3374
1882.639	3340
1884.752	3282
1886.865	3433
1888.977	3336
1891.089	3443
1893.2	3393
1895.308	3352
1897.42	3281
1899.53	3352
1901.639	3430
1903.745	3357
1905.853	3423
1907.962	3396
1910.067	3409
1912.174	3343
1914.278	3392
1916.383	3411
1918.486	3369
1920.592	3395
1922.694	3355
1924.797	3366
1926.898	3422
1929	3368
1931.102	3435
1933.203	3463
1935.301	3483
1937.401	3426
1939.499	3400
1941.598	3411
1943.697	3417
1945.793	3353
1947.888	3393
1949.985	3511
1952.08	3499
1954.176	3400
1956.269	3448
1958.364	3371
1960.457	3334
1962.549	3399
1964.642	3396
1966.733	3392
1968.823	3383
1970.913	3398
1973.005	3398
1975.093	3485
1977.184	3372
1979.271	3362
1981.359	3364
1983.446	3377
1985.532	3380
1987.619	3391
1989.705	3393
1991.789	3383
1993.874	3422
1995.956	3357
1998.041	3372
2000.123	3344
2002.206	3391
2004.287	3355
2006.368	3375
2008.449	3385
2010.529	3387
2012.609	3343
2014.688	3449
2016.766	3365
2018.843	3351
2020.922	3379
2022.999	3386
2025.074	3403
2027.15	3359
2029.225	3366
2031.299	3327
2033.375	3421
2035.447	3389
2037.52	3365
2039.592	3351
2041.664	3424
2043.736	3448
2045.807	3414
2047.876	3405
2049.947	3407
2052.015	3442
2054.086	3396
2056.153	3429
2058.221	3438
2060.288	3386
2062.353	3383
2064.42	3354
2066.486	3493
2068.55	3415
2070.614	3381
2072.678	3463
2074.741	3368
2076.805	3366
2078.866	3439
2080.929	3408
2082.99	3411
2085.049	3392
2087.109	3431
2089.17	3423
2091.228	3445
2093.286	3381
2095.344	3438
2097.4	3468
2099.46	3466
2101.516	3447
2103.572	3443
2105.626	3427
2107.679	3370
2109.735	3396
2111.788	3388
2113.841	3369
2115.894	3403
2117.945	3353
2119.997	3380
2122.049	3402
2124.1	3419
2126.148	3351
2128.197	3460
2130.246	3369
2132.296	3318
2134.342	3416
2136.39	3355
2138.437	3397
2140.483	3402
2142.527	3376
2144.574	3371
2146.619	3380
2148.661	3485
2150.705	3414
2152.747	3349
2154.792	3491
2156.832	3448
2158.874	3367
2160.915	3464
2162.954	3357
2164.995	3421
2167.034	3421
2169.072	3393
2171.111	3387
2173.148	3376
2175.186	3409
2177.223	3340
2179.258	3377
2181.294	3383
2183.328	3366
2185.362	3383
2187.398	3309
2189.431	3357
2191.463	3384
2193.495	3383
2195.528	3351
2197.56	3367
2199.59	3332
2201.62	3285
2203.649	3383
2205.678	3346
2207.708	3343
2209.737	3336
2211.764	3393
2213.791	3331
2215.817	3384
2217.843	3355
2219.87	3360
2221.895	3363
2223.919	3405
2225.942	3394
2227.966	3322
2229.988	3286
2232.012	3299
2234.032	3377
2236.054	3415
2238.074	3321
2240.095	3384
2242.116	3360
2244.135	3300
2246.153	3322
2248.171	3362
2250.188	3352
2252.208	3314
2254.223	3379
2256.239	3325
2258.255	3373
2260.269	3311
2262.283	3363
2264.3	3305
2266.312	3319
2268.325	3355
2270.336	3340
2272.349	3289
2274.362	3332
2276.372	3339
2278.383	3306
2280.392	3414
2282.402	3340
2284.409	3329
2286.418	3360
2288.427	3376
2290.433	3319
2292.441	3410
2294.446	3330
2296.453	3313
2298.459	3339
2300.463	3335
2302.466	3368
2304.471	3283
2306.475	3288
2308.477	3302
2310.478	3303
2312.481	3375
2314.481	3302
2316.481	3332
2318.482	3311
2320.482	3288
2322.48	3264
2324.48	3298
2326.478	3308
2328.476	3279
2330.473	3327
2332.469	3348
2334.465	3336
2336.46	3329
2338.454	3283
2340.45	3331
2342.444	3313
2344.437	3219
2346.43	3221
2348.421	3261
2350.414	3256
2352.405	3347
2354.396	3275
2356.386	3244
2358.376	3235
2360.366	3327
2362.355	3340
2364.343	3352
2366.331	3246
2368.317	3259
2370.304	3296
2372.292	3278
2374.278	3215
2376.262	3310
2378.247	3241
2380.23	3245
2382.216	3216
2384.199	3287
2386.181	3273
2388.163	3243
2390.144	3253
2392.127	3336
2394.107	3268
2396.087	3301
2398.066	3272
2400.046	3240
2402.023	3217
2404.004	3216
2405.981	3363
2407.957	3266
2409.934	3260
2411.91	3228
2413.886	3221
2415.862	3105
2417.836	3293
2419.809	3284
2421.784	3285
2423.756	3292
2425.73	3265
2427.701	3323
2429.672	3268
2431.644	3219
2433.615	3327
2435.586	3265
2437.555	3294
2439.523	3249
2441.491	3204
2443.459	3213
2445.428	3235
2447.395	3234
2449.361	3317
2451.327	3267
2453.292	3227
2455.257	3337
2457.223	3290
2459.187	3269
2461.15	3137
2463.113	3220
2465.076	3191
2467.039	3227
2468.999	3267
2470.96	3206
2472.921	3210
2474.881	3256
2476.841	3151
2478.8	3198
2480.759	3298
2482.717	3214
2484.675	3164
2486.63	3176
2488.589	3226
2490.545	3182
2492.5	3252
2494.455	3253
2496.408	3254
2498.364	3180
2500.318	3251
2502.27	3222
2504.223	3147
2506.174	3247
2508.126	3110
2510.078	3186
2512.03	3221
2513.979	3277
2515.927	3186
2517.877	3186
2519.826	3137
2521.775	3181
2523.722	3170
2525.668	3288
2527.616	3110
2529.561	3202
2531.508	3158
2533.452	3125
2535.398	3186
2537.342	3130
2539.284	3126
2541.229	3205
2543.173	3142
2545.114	3215
2547.055	3192
2548.996	3110
2550.938	3108
2552.878	3224
2554.817	3159
2556.756	3176
2558.695	3257
2560.633	3191
2562.572	3206
2564.509	3142
2566.445	3167
2568.382	3219
2570.317	3220
2572.254	3122
2574.189	3256
2576.123	3173
2578.057	3191
2579.99	3199
2581.923	3216
2583.855	3157
2585.788	3224
2587.719	3124
2589.65	3233
2591.579	3198
2593.511	3172
2595.44	3143
2597.37	3195
2599.297	3232
2601.225	3132
2603.153	3206
2605.08	3210
2607.007	3234
2608.932	3268
2610.858	3219
2612.782	3311
2614.709	3108
2616.632	3223
2618.556	3173
2620.478	3167
2622.401	3190
2624.324	3218
2626.247	3199
2628.167	3240
2630.088	3180
2632.008	3187
2633.928	3186
2635.848	3188
2637.766	3151
2639.684	3182
2641.603	3172
2643.519	3126
2645.437	3221
2647.353	3273
2649.27	3137
2651.184	3194
2653.099	3184
2655.014	3177
2656.928	3172
2658.842	3157
2660.755	3183
2662.667	3218
2664.579	3267
2666.491	3220
2668.402	3228
2670.312	3267
2672.222	3130
2674.132	3197
2676.042	3163
2677.951	3137
2679.859	3158
2681.766	3083
2683.674	3230
2685.582	3242
2687.488	3179
2689.392	3166
2691.298	3145
2693.202	3165
2695.107	3189
2697.012	3130
2698.914	3158
2700.817	3183
2702.72	3248
2704.622	3232
2706.524	3277
2708.425	3149
2710.326	3100
2712.225	3161
2714.125	3102
2716.024	3113
2717.923	3202
2719.822	3122
2721.719	3123
2723.616	3179
2725.512	3232
2727.41	3134
2729.305	3176
2731.201	3049
2733.095	3168
2734.99	3171
2736.884	3095
2738.778	3189
2740.67	3121
2742.562	3224
2744.455	3195
2746.346	3125
2748.238	3186
2750.129	3102
2752.018	3189
2753.907	3182
2755.797	3192
2757.687	3096
2759.575	3135
2761.462	3170
2763.349	3087
2765.237	3129
2767.124	3129
2769.009	3112
2770.894	3151
2772.779	3162
2774.663	3078
2776.547	3171
2778.431	3103
2780.314	3188
2782.197	3098
2784.078	3172
2785.96	3122
2787.842	3103
2789.723	3101
2791.603	3109
2793.483	3108
2795.362	3126
2797.241	3100
2799.121	3136
2800.997	3068
2802.874	3100
2804.751	3077
2806.628	3185
2808.506	3048
2810.38	3177
2812.255	3114
2814.13	3113
2816.003	3130
2817.878	3057
2819.752	3089
2821.623	3080
2823.496	3077
2825.368	3169
2827.238	3157
2829.111	3206
2830.98	3095
2832.851	3164
2834.719	3115
2836.589	3095
2838.458	3148
2840.327	3144
2842.193	3215
2844.061	3133
2845.927	3145
2847.794	3110
2849.66	3193
2851.525	3100
2853.39	3210
2855.254	3202
2857.117	3075
2858.983	3207
2860.845	3238
2862.707	3164
2864.569	3268
2866.431	3201
2868.293	3192
2870.154	3192
2872.013	3356
2873.873	3311
2875.733	3382
2877.592	3353
2879.451	3342
2881.309	3385
2883.166	3353
2885.022	3475
2886.879	3423
2888.736	3485
2890.591	3418
2892.446	3429
2894.301	3444
2896.155	3332
2898.009	3451
2899.863	3435
2901.716	3445
2903.568	3399
2905.419	3455
2907.27	3439
2909.123	3460
2910.973	3480
2912.824	3443
2914.673	3490
2916.521	3458
2918.372	3549
2920.22	3553
2922.067	3665
2923.914	3576
2925.761	3694
2927.607	3626
2929.455	3735
2931.301	3606
2933.144	3720
2934.99	3713
2936.833	3841
2938.678	3770
2940.522	3822
2942.364	3801
2944.207	3892
2946.048	3914
2947.891	3925
2949.731	3883
2951.571	3884
2953.412	3957
2955.25	3898
2957.09	3848
2958.93	3826
2960.767	3861
2962.606	3770
2964.443	3696
2966.279	3705
2968.116	3684
2969.953	3676
2971.788	3556
2973.623	3579
2975.457	3590
2977.292	3583
2979.127	3507
2980.959	3521
2982.792	3523
2984.624	3525
2986.455	3495
2988.288	3572
2990.119	3482
2991.949	3395
2993.779	3505
2995.608	3330
2997.439	3323
2999.268	3273
3001.096	3223
3002.923	3336
3004.751	3249
3006.578	3199
3008.406	3244
3010.232	3218
3012.057	3176
3013.883	3119
3015.706	3089
3017.532	3099
3019.356	3046
3021.179	3108
3023.002	3088
3024.823	3203
3026.646	3068
3028.469	3045
3030.289	3110
3032.11	3092
3033.93	3046
3035.749	3000
3037.57	3077
3039.39	3032
3041.207	2985
3043.026	2998
3044.842	3000
3046.661	2975
3048.477	3031
3050.294	2998
3052.109	3021
3053.925	2982
3055.739	2956
3057.555	3071
3059.368	2993
3061.181	2995
3062.995	2946
3064.807	2943
3066.62	3013
3068.433	3084
3070.243	2940
3072.054	2978
3073.865	2998
3075.675	3002
3077.485	2996
3079.293	2976
3081.102	2965
3082.911	2907
3084.719	2961
3086.527	2979
3088.333	2995
3090.139	2961
3091.945	2951
3093.75	2903
3095.557	2925
3097.361	2929
3099.165	2978
3100.969	2906
3102.772	2912
3104.575	2922
3106.379	2943
3108.181	2885
3109.982	2899
3111.783	2920
3113.584	2902
3115.386	2874
3117.186	2836
3118.985	2914
3120.783	2894
3122.582	2908
3124.381	2896
3126.179	2880
3127.975	2893
3129.772	2874
3131.569	2913
3133.365	2872
3135.161	2853
3136.956	2889
3138.751	2856
3140.544	2787
3142.338	2807
3144.132	2828
3145.925	2871
3147.717	2863
3149.509	2843
3151.301	2827
3153.091	2864
3154.884	2821
3156.673	2791
3158.462	2857
3160.252	2885
3162.041	2867
3163.831	2848
3165.618	2831
3167.405	2872
3169.193	2831
3170.979	2810
3172.767	2846
3174.553	2832
3176.338	2825
3178.123	2724
3179.907	2793
3181.692	2838
3183.477	2801
3185.259	2787
3187.042	2807
3188.824	2758
3190.607	2791
3192.389	2824
3194.17	2804
3195.951	2865
3197.73	2797
3199.51	2793
3201.289	2855
3203.07	2797
3204.848	2904
3206.626	2835
3208.403	2783
3210.18	2837
3211.959	2762
3213.735	2781
3215.511	2806
3217.285	2788
3219.06	2862
3220.836	2805
3222.611	2822
3224.384	2732
3226.158	2849
3227.929	2779
3229.702	2709
3231.476	2793
3233.248	2845
3235.018	2719
3236.789	2844
3238.56	2782
3240.33	2863
3242.1	2822
3243.869	2813
3245.637	2782
3247.405	2771
3249.172	2855
3250.941	2841
3252.707	2780
3254.474	2860
3256.24	2881
3258.006	2779
3259.772	2811
3261.537	2844
3263.301	2905
3265.065	2755
3266.828	2762
3268.592	2847
3270.355	2791
3272.117	2809
3273.878	2806
3275.64	2802
3277.401	2826
3279.162	2796
3280.922	2782
3282.682	2853
3284.441	2791
3286.199	2815
3287.959	2782
3289.716	2701
3291.475	2804
3293.232	2853
3294.988	2801
3296.744	2821
3298.501	2805
3300.256	2807
3302.011	2794
3303.766	2835
3305.52	2800
3307.275	2846
3309.028	2804
3310.781	2819
3312.533	2839
3314.285	2739
3316.038	2774
3317.789	2774
3319.54	2819
3321.289	2755
3323.039	2801
3324.789	2857
3326.539	2737
3328.288	2852
3330.035	2770
3331.783	2761
3333.531	2775
3335.28	2845
3337.025	2762
3338.771	2881
3340.518	2740
3342.262	2672
3344.009	2801
3345.753	2813
3347.497	2738
3349.24	2801
3350.983	2743
3352.726	2798
3354.469	2800
3356.212	2713
3357.952	2733
3359.694	2802
3361.434	2772
3363.176	2699
3364.916	2730
3366.654	2810
3368.394	2774
3370.132	2747
3371.871	2767
3373.61	2743
3375.346	2710
3377.083	2659
3378.82	2720
3380.556	2679
3382.292	2659
3384.027	2688
3385.763	2725
3387.497	2781
3389.231	2731
3390.965	2733
3392.698	2735
3394.431	2749
3396.164	2765
3397.896	2682
3399.627	2732
3401.36	2659
3403.09	2736
3404.82	2726
3406.55	2713
3408.279	2702
3410.01	2688
3411.738	2730
3413.467	2718
3415.194	2729
3416.92	2662
3418.647	2689
3420.375	2663
3422.102	2690
3423.827	2680
3425.553	2685
3427.277	2648
3429.003	2679
3430.727	2690
3432.451	2665
3434.173	2646
3435.896	2691
3437.62	2681
3439.343	2725
3441.063	2681
3442.785	2649
3444.505	2657
3446.226	2603
3447.948	2599
3449.666	2579
3451.386	2604
3453.104	2672
3454.823	2650
3456.541	2661
3458.259	2608
3459.976	2573
3461.693	2618
3463.408	2661
3465.125	2615
3466.841	2640
3468.556	2641
3470.271	2637
3471.985	2570
3473.698	2680
3475.414	2606
3477.126	2640
3478.838	2637
3480.55	2592
3482.263	2611
3483.975	2535
3485.686	2684
3487.396	2597
3489.106	2571
3490.817	2586
3492.526	2595
3494.236	2567
3495.944	2540
3497.652	2521
3499.359	2507
3501.066	2495
3502.775	2552
3504.481	2516
3506.187	2585
3507.893	2598
3509.598	2586
3511.304	2532
3513.009	2547
3514.713	2482
3516.417	2611
3518.12	2519
3519.821	2513
3521.525	2477
3523.228	2477
3524.929	2511
3526.631	2513
3528.33	2486
3530.032	2474
3531.733	2520
3533.433	2516
3535.131	2417
3536.83	2439
3538.529	2490
3540.227	2563
3541.925	2473
3543.623	2443
3545.319	2536
3547.016	2453
3548.712	2474
3550.408	2465
3552.103	2491
3553.798	2426
3555.491	2451
3557.188	2464
3558.88	2452
3560.574	2464
3562.266	2416
3563.959	2396
3565.651	2417
3567.343	2450
3569.035	2465
3570.725	2385
3572.415	2471
3574.106	2491
3575.797	2386
3577.485	2403
3579.174	2466
3580.863	2418
3582.551	2393
3584.238	2457
3585.926	2376
3587.613	2486
3589.3	2457
3590.986	2401
3592.671	2366
3594.357	2367
3596.042	2448
3597.726	2388
3599.41	2358
3601.094	2331
3602.778	2377
3604.461	2403
3606.143	2392
3607.825	2373
3609.507	2353
3611.188	2344
3612.87	2398
3614.551	2379
3616.229	2301
3617.909	2415
3619.589	2318
3621.269	2335
3622.948	2303
3624.625	2338
3626.302	2312
3627.98	2329
3629.657	2380
3631.334	2340
3633.01	2363
3634.686	2370
3636.361	2300
3638.036	2330
3639.712	2348
3641.385	2341
3643.06	2367
3644.732	2308
3646.405	2327
3648.08	2298
3649.751	2301
3651.424	2278
3653.094	2289
3654.766	2314
3656.436	2299
3658.106	2269
3659.777	2296
3661.446	2285
3663.115	2321
3664.783	2260
3666.452	2289
3668.121	2299
3669.788	2213
3671.454	2324
3673.121	2314
3674.789	2260
3676.455	2251
3678.12	2303
3679.784	2275
3681.45	2277
3683.114	2295
3684.779	2199
3686.442	2254
3688.105	2213
3689.768	2282
3691.43	2263
3693.093	2257
3694.754	2193
3696.415	2227
3698.076	2189
3699.736	2222
3701.396	2202
3703.057	2274
3704.716	2261
3706.375	2231
3708.034	2224
3709.692	2279
3711.351	2201
3713.008	2238
3714.665	2271
3716.321	2188
3717.977	2239
3719.634	2242
3721.29	2210
3722.945	2207
3724.598	2204
3726.253	2222
3727.907	2263
3729.561	2237
3731.214	2259
3732.867	2218
3734.518	2197
3736.171	2235
3737.824	2265
3739.474	2250
3741.125	2218
3742.775	2195
3744.425	2258
3746.074	2201
3747.725	2265
3749.373	2171
3751.022	2184
3752.669	2209
3754.318	2210
3755.966	2131
3757.612	2207
3759.259	2208
3760.905	2145
3762.55	2232
3764.197	2155
3765.842	2203
3767.486	2168
3769.131	2191
3770.774	2181
3772.417	2158
3774.061	2128
3775.705	2199
3777.347	2187
3778.988	2211
3780.629	2151
3782.271	2209
3783.912	2145
3785.552	2170
3787.192	2150
3788.831	2163
3790.472	2162
3792.112	2163
3793.75	2148
3795.388	2115
3797.024	2175
3798.661	2115
3800.3	2144
3801.936	2154
3803.572	2138
3805.208	2124
3806.844	2135
3808.48	2192
3810.115	2114
3811.748	2143
3813.382	2140
3815.016	2133
3816.649	2068
3818.283	2123
3819.914	2099
3821.547	2168
3823.178	2101
3824.809	2110
3826.441	2102
3828.072	2134
3829.701	2160
3831.331	2125
3832.96	2161
3834.591	2100
3836.219	2113
3837.847	2110
3839.475	2126
3841.102	2108
3842.729	2156
3844.357	2090
3845.984	2112
3847.609	2076
3849.234	2050
3850.86	2079
3852.485	2081
3854.11	2060
3855.734	2096
3857.357	2071
3858.981	2096
3860.603	2089
3862.227	2078
3863.848	2124
3865.471	2129
3867.092	2070
3868.713	2029
3870.334	2031
3871.954	2083
3873.575	2111
3875.194	2080
3876.813	2043
3878.433	2019
3880.051	2058
3881.669	2091
3883.286	2134
3884.904	2085
3886.52	2043
3888.138	2019
3889.754	2095
3891.37	2024
3892.985	2043
3894.6	2019
3896.216	2119
3897.831	2052
3899.444	2044
3901.058	2001
3902.67	2034
3904.283	2039
3905.897	2059
3907.509	2003
3909.121	2029
3910.731	2059
3912.342	2088
3913.954	2093
3915.563	2015
3917.174	2062
3918.783	2044
3920.391	1991
3922.002	2030
3923.611	2056
3925.218	2001
3926.826	2063
3928.432	1986
3930.039	2026
3931.647	2014
3933.253	2055
3934.859	2044
3936.464	2058
3938.068	2021
3939.675	2005
3941.278	1976
3942.883	1950
3944.486	2020
3946.089	1973
3947.692	1958
3949.295	2001
3950.898	1971
3952.499	1977
3954.1	1950
3955.7	2021
3957.303	1983
3958.903	1982
3960.502	1984
3962.101	1996
3963.7	2000
3965.301	1967
3966.899	1989
3968.497	2057
3970.094	1934
3971.691	1984
3973.288	1957
3974.885	2008
3976.481	1993
3978.077	1986
3979.672	1918
3981.267	1959
3982.863	1973
3984.457	1949
3986.051	1990
3987.645	2017
3989.238	1982
3990.831	1977
3992.425	1931
3994.017	2001
3995.607	1990
3997.199	1937
3998.79	2001
4000.382	1933
4001.973	1982
4003.561	1898
4005.151	1935
4006.741	1938
4008.331	1957
4009.918	1903
4011.507	1923
4013.095	1944
4014.681	1907
4016.269	1915
4017.856	1893
4019.443	1925
4021.028	1921
4022.614	1886
4024.199	1977
4025.785	1852
4027.37	1872
4028.953	1920
4030.536	1921
4032.12	1943
4033.704	1879
4035.287	1868
4036.869	1902
4038.45	1830
4040.032	1948
4041.613	1895
4043.195	1924
4044.776	1946
4046.356	1932
4047.935	1838
4049.515	1856
4051.095	1871
4052.674	1844
4054.251	1872
4055.829	1899
4057.406	1924
4058.985	1847
4060.562	1850
4062.139	1887
4063.715	1871
4065.29	1870
4066.865	1842
4068.442	1883
4070.016	1816
4071.59	1834
4073.164	1825
4074.738	1894
4076.312	1867
4077.885	1804
4079.458	1804
4081.03	1883
4082.602	1805
4084.173	1881
4085.745	1834
4087.315	1813
4088.886	1831
4090.456	1844
4092.026	1848
4093.596	1857
4095.165	1820
4096.734	1797
4098.301	1831
4099.869	1808
4101.437	1846
4103.006	1864
4104.572	1855
4106.139	1795
4107.704	1758
4109.27	1810
4110.837	1867
4112.401	1842
4113.966	1805
4115.53	1812
4117.094	1841
4118.659	1816
4120.223	1809
4121.785	1820
4123.347	1845
4124.909	1805
4126.471	1852
4128.034	1839
4129.595	1744
4131.155	1814
4132.716	1784
4134.275	1736
4135.836	1746
4137.395	1799
4138.955	1775
4140.513	1810
4142.071	1831
4143.628	1734
4145.188	1775
4146.745	1821
4148.302	1778
4149.858	1733
4151.414	1726
4152.971	1829
4154.526	1778
4156.081	1785
4157.635	1810
4159.189	1827
4160.745	1776
4162.298	1765
4163.852	1796
4165.405	1725
4166.957	1733
4168.51	1723
4170.063	1744
4171.614	1777
4173.166	1763
4174.717	1747
4176.267	1730
4177.817	1748
4179.368	1768
4180.917	1724
4182.466	1772
4184.016	1704
4185.564	1740
4187.112	1781
4188.66	1742
4190.207	1670
4191.754	1717
4193.301	1712
4194.848	1702
4196.394	1708
4197.94	1729
4199.484	1727
4201.03	1730
4202.575	1728
4204.12	1683
4205.663	1677
4207.207	1692
4208.75	1717
4210.292	1732
4211.836	1731
4213.378	1737
4214.92	1728
4216.46	1748
4218.002	1690
4219.544	1667
4221.083	1740
4222.625	1701
4224.164	1730
4225.703	1730
4227.244	1702
4228.782	1712
4230.32	1731
4231.857	1677
4233.395	1702
4234.933	1725
4236.471	1701
4238.007	1705
4239.542	1712
4241.078	1681
4242.614	1678
4244.15	1664
4245.685	1733
4247.219	1672
4248.753	1703
4250.287	1693
4251.82	1724
4253.354	1653
4254.887	1653
4256.419	1734
4257.951	1687
4259.483	1699
4261.016	1691
4262.547	1634
4264.078	1633
4265.608	1694
4267.137	1696
4268.668	1695
4270.197	1709
4271.727	1684
4273.254	1672
4274.783	1715
4276.311	1700
4277.84	1703
4279.366	1659
4280.894	1670
4282.42	1675
4283.946	1665
4285.473	1732
4286.998	1635
4288.523	1695
4290.047	1657
4291.572	1639
4293.096	1630
4294.622	1642
4296.144	1670
4297.668	1648
4299.19	1613
4300.713	1694
4302.236	1693
4303.758	1633
4305.279	1666
4306.799	1658
4308.321	1653
4309.842	1636
4311.361	1674
4312.882	1625
4314.401	1667
