400.0961	2605
402.6185	2523
405.1424	2549
407.6635	2558
410.1838	2563
412.7035	2657
415.2225	2634
417.7388	2689
420.2585	2709
422.7754	2702
425.2917	2687
427.8072	2756
430.3221	2752
432.8363	2767
435.3498	2853
437.8626	2889
440.3727	2735
442.8841	2781
445.3969	2745
447.907	2731
450.4142	2810
452.9229	2821
455.4289	2760
457.9362	2756
460.4449	2779
462.9488	2784
465.454	2735
467.9566	2751
470.4604	2768
472.9637	2709
475.4662	2747
477.966	2713
480.4671	2691
482.9656	2753
485.4633	2785
487.9645	2758
490.4608	2734
492.9566	2806
495.4536	2775
497.948	2807
500.4437	2746
502.9387	2741
505.431	2757
507.9226	2739
510.4136	2847
512.9079	2828
515.3975	2734
517.8864	2821
520.3746	2824
522.8622	2760
525.3491	2880
527.8394	2737
530.3249	2864
532.8098	2889
535.2939	2846
537.7774	2800
540.2623	2874
542.7444	2821
545.2259	2844
547.7067	2807
550.1868	2801
552.6683	2804
555.147	2871
557.6231	2804
560.1005	2798
562.5773	2882
565.0534	2791
567.5308	2894
570.0056	2834
572.4776	2958
574.951	2923
577.4237	2944
579.8978	2940
582.3671	3017
584.8378	2998
587.3079	2998
589.7773	2972
592.244	2982
594.714	2921
597.1793	2959
599.6461	3010
602.1121	3001
604.5754	2894
607.0421	2929
609.5042	2930
611.9675	2982
614.4282	2923
616.8902	2931
619.3515	2925
621.8122	2981
624.2702	2918
626.7296	2869
629.1863	2837
631.6423	2908
634.1017	2920
636.5563	2808
639.0104	2900
641.4658	2974
643.9185	2808
646.3725	2947
648.8239	2844
651.2766	2920
653.7266	2940
656.176	2907
658.6247	2873
661.0748	2888
663.5242	2953
665.9709	2890
668.417	2971
670.8624	2987
673.3092	2932
675.7533	3025
678.1968	2950
680.6395	2979
683.0817	2966
685.5251	2956
687.9659	3046
690.4061	2963
692.8456	2957
695.2844	2998
697.7226	3002
700.1621	3015
702.599	3056
705.0332	2988
707.4688	2987
709.9036	3089
712.3399	3087
714.7735	2969
717.2044	3017
719.6367	3026
722.0683	3023
724.4993	3092
726.9296	3025
729.3593	3083
731.7883	3030
734.2147	3010
736.6423	3052
739.0714	3136
741.4958	3146
743.9216	3100
746.3447	3112
748.7691	3072
751.1929	3122
753.616	3183
756.0366	3091
758.4584	3265
760.8776	3186
763.2982	3211
765.718	3215
768.1373	3167
770.5539	3096
772.9698	3142
775.3871	3227
777.8038	3141
780.2178	3156
782.6332	3179
785.0459	3195
787.458	3170
789.8714	3223
792.2842	3228
794.6943	3136
797.1038	3227
799.5127	3194
801.9209	3193
804.3324	3241
806.7393	3311
809.1456	3226
811.5513	3267
813.9562	3236
816.3625	3232
818.7663	3306
821.1693	3235
823.5718	3325
825.9735	3235
828.3746	3215
830.7771	3238
833.177	3261
835.5762	3250
837.9747	3277
840.3727	3229
842.772	3226
845.1666	3313
847.5626	3279
849.958	3231
852.3527	3336
854.7488	3333
857.1403	3317
859.5331	3347
861.9253	3330
864.3168	3321
866.7057	3352
869.098	3329
871.4876	3359
873.8746	3280
876.263	3303
878.6487	3301
881.0378	3291
883.4243	3296
885.8081	3256
888.1933	3362
890.5759	3269
892.9598	3264
895.343	3289
897.7256	3355
900.1057	3294
902.4871	3315
904.8659	3329
907.246	3405
909.6254	3420
912.0023	3353
914.3786	3362
916.7562	3445
919.1331	3554
921.5074	3489
923.8831	3603
926.2562	3511
928.6287	3516
931.0005	3465
933.3757	3424
935.7462	3517
938.1162	3517
940.4855	3656
942.8542	3670
945.2242	3685
947.5916	3772
949.9584	3802
952.3266	3908
954.6921	4121
957.0571	4314
959.4233	4652
961.787	4668
964.15	4608
966.5125	4567
968.8742	4178
971.2354	4039
973.5959	3752
975.9559	3646
978.3151	3639
980.6738	3528
983.0338	3587
985.3912	3455
987.7461	3490
990.1022	3415
992.4578	3440
994.8127	3421
997.1689	3470
999.5207	3457
1001.874	3426
1004.226	3436
1006.576	3513
1008.929	3506
1011.28	3523
1013.628	3423
1015.977	3402
1018.324	3486
1020.674	3443
1023.019	3538
1025.366	3490
1027.713	3521
1030.056	3604
1032.399	3443
1034.746	3484
1037.087	3605
1039.431	3497
1041.771	3527
1044.113	3566
1046.454	3595
1048.793	3523
1051.133	3566
1053.471	3597
1055.807	3556
1058.146	3545
1060.483	3513
1062.818	3572
1065.153	3575
1067.489	3668
1069.822	3671
1072.156	3644
1074.488	3569
1076.82	3680
1079.15	3578
1081.48	3624
1083.814	3616
1086.143	3569
1088.471	3571
1090.799	3470
1093.126	3484
1095.452	3590
1097.78	3555
1100.105	3550
1102.43	3531
1104.754	3469
1107.077	3626
1109.4	3439
1111.722	3587
1114.044	3604
1116.365	3549
1118.685	3575
1121.005	3527
1123.324	3519
1125.643	3522
1127.961	3563
1130.278	3472
1132.595	3589
1134.911	3536
1137.226	3612
1139.541	3548
1141.854	3533
1144.167	3511
1146.482	3572
1148.793	3500
1151.105	3581
1153.414	3538
1155.725	3562
1158.033	3549
1160.344	3551
1162.651	3538
1164.959	3584
1167.265	3476
1169.572	3587
1171.878	3526
1174.184	3489
1176.488	3598
1178.79	3548
1181.094	3558
1183.396	3533
1185.699	3566
1188.001	3604
1190.301	3550
1192.6	3551
1194.9	3558
1197.2	3518
1199.497	3620
1201.794	3693
1204.09	3552
1206.387	3593
1208.684	3558
1210.978	3613
1213.272	3659
1215.565	3536
1217.858	3545
1220.15	3611
1222.443	3589
1224.734	3649
1227.024	3572
1229.313	3583
1231.602	3612
1233.892	3674
1236.18	3696
1238.467	3655
1240.754	3693
1243.04	3676
1245.325	3659
1247.612	3715
1249.896	3708
1252.178	3758
1254.461	3799
1256.743	3768
1259.027	3725
1261.308	3789
1263.587	3742
1265.867	3737
1268.146	3777
1270.425	3687
1272.703	3747
1274.981	3723
1277.256	3646
1279.532	3760
1281.808	3642
1284.083	3754
1286.358	3710
1288.63	3776
1290.904	3692
1293.175	3602
1295.449	3629
1297.719	3629
1299.99	3676
1302.259	3655
1304.529	3683
1306.798	3709
1309.065	3713
1311.333	3739
1313.599	3701
1315.866	3697
1318.131	3725
1320.396	3782
1322.66	3737
1324.925	3713
1327.187	3641
1329.448	3689
1331.711	3710
1333.974	3867
1336.234	3676
1338.493	3640
1340.752	3694
1343.01	3704
1345.269	3746
1347.526	3764
1349.784	3720
1352.04	3634
1354.295	3730
1356.552	3679
1358.806	3718
1361.059	3636
1363.312	3667
1365.564	3656
1367.818	3657
1370.069	3740
1372.318	3650
1374.568	3690
1376.817	3636
1379.066	3679
1381.316	3778
1383.564	3699
1385.809	3738
1388.056	3733
1390.301	3780
1392.549	3804
1394.793	3773
1397.036	3897
1399.279	3852
1401.522	3828
1403.763	3828
1406.007	3831
1408.248	3861
1410.487	3801
1412.727	3897
1414.965	3788
1417.205	3869
1419.442	3794
1421.68	3902
1423.915	3911
1426.152	3857
1428.388	3924
1430.623	3860
1432.857	3902
1435.091	3923
1437.323	3843
1439.556	3834
1441.789	3892
1444.019	3789
1446.25	3863
1448.48	3974
1450.708	3946
1452.938	3912
1455.167	3973
1457.394	3901
1459.62	3896
1461.846	3903
1464.073	3899
1466.299	4004
1468.523	3819
1470.746	3989
1472.969	3775
1475.191	3734
1477.415	3839
1479.636	3746
1481.858	3772
1484.078	3832
1486.298	3747
1488.518	3732
1490.736	3726
1492.954	3721
1495.169	3726
1497.386	3723
1499.602	3774
1501.819	3710
1504.034	3723
1506.248	3731
1508.462	3717
1510.675	3676
1512.888	3787
1515.1	3807
1517.311	3700
1519.522	3634
1521.732	3713
1523.942	3753
1526.151	3689
1528.36	3694
1530.566	3708
1532.773	3807
1534.98	3776
1537.187	3709
1539.392	3719
1541.596	3769
1543.801	3729
1546.005	3765
1548.208	3746
1550.411	3811
1552.612	3837
1554.814	3814
1557.013	3810
1559.212	3748
1561.414	3760
1563.612	3827
1565.811	3786
1568.007	3751
1570.203	3815
1572.403	3804
1574.598	3850
1576.792	3882
1578.988	3855
1581.181	3757
1583.376	3890
1585.568	3824
1587.761	3758
1589.952	3844
1592.143	3907
1594.333	3866
1596.524	3815
1598.715	3844
1600.903	3905
1603.091	3907
1605.278	3886
1607.466	3863
1609.652	3907
1611.838	3824
1614.023	3901
1616.207	3880
1618.391	3979
1620.576	3777
1622.759	3911
1624.941	3892
1627.123	3977
1629.304	3922
1631.484	3898
1633.664	3995
1635.844	3904
1638.022	3935
1640.201	3894
1642.38	3969
1644.556	3865
1646.732	3966
1648.908	3922
1651.084	3865
1653.257	3947
1655.433	3931
1657.607	3911
1659.779	3918
1661.951	3958
1664.122	3911
1666.295	3938
1668.467	4030
1670.635	3997
1672.805	3951
1674.973	3917
1677.142	3978
1679.31	3932
1681.478	3909
1683.644	3913
1685.81	3878
1687.975	3973
1690.142	3960
1692.305	3965
1694.468	3909
1696.632	3965
1698.794	3884
1700.957	3957
1703.119	3886
1705.279	3841
1707.439	3943
1709.598	3864
1711.758	3925
1713.917	3933
1716.075	3873
1718.231	3869
1720.388	3841
1722.543	3829
1724.702	3914
1726.856	3821
1729.01	3860
1731.164	3853
1733.317	3850
1735.471	3859
1737.623	3951
1739.774	3889
1741.925	3857
1744.075	3865
1746.225	3906
1748.376	3830
1750.524	3842
1752.672	3953
1754.82	3900
1756.965	3844
1759.113	3947
1761.259	3968
1763.405	3873
1765.549	3879
1767.694	3880
1769.836	3850
1771.981	3908
1774.123	3956
1776.264	3854
1778.405	3907
1780.546	3915
1782.687	3844
1784.827	3917
1786.966	3955
1789.103	3865
1791.242	3912
1793.381	3907
1795.517	3955
1797.653	3855
1799.788	3977
1801.923	3836
1804.057	3780
1806.193	3836
1808.326	3830
1810.457	3891
1812.59	3963
1814.721	3842
1816.855	3940
1818.984	3933
1821.113	3841
1823.244	3915
1825.372	3914
1827.499	3934
1829.63	3919
1831.756	3979
1833.882	3806
1836.007	3927
1838.132	3852
1840.26	3828
1842.384	3847
1844.507	3804
1846.63	4012
1848.752	3864
1850.875	3853
1852.996	3929
1855.118	3821
1857.238	3860
1859.358	3814
1861.477	3850
1863.597	3843
1865.715	3886
1867.832	3942
1869.948	3879
1872.064	3812
1874.181	3888
1876.297	3864
1878.411	3897
1880.526	3945
1882.639	3880
1884.752	3974
1886.865	3838
1888.977	3877
1891.089	3928
1893.2	3831
1895.308	3847
1897.42	3805
1899.53	3999
1901.639	3851
1903.745	3849
1905.853	3857
1907.962	3975
1910.067	3843
1912.174	3879
1914.278	3911
1916.383	3930
1918.486	3923
1920.592	3967
1922.694	3869
1924.797	3878
1926.898	4012
1929	3931
1931.102	3905
1933.203	3959
1935.301	3914
1937.401	3878
1939.499	3976
1941.598	3969
1943.697	3905
1945.793	3949
1947.888	3962
1949.985	3909
1952.08	3964
1954.176	3929
1956.269	3957
1958.364	3894
1960.457	3943
1962.549	3931
1964.642	3985
1966.733	3948
1968.823	3887
1970.913	3983
1973.005	3922
1975.093	3954
1977.184	3988
1979.271	3977
1981.359	4006
1983.446	4010
1985.532	3923
1987.619	3871
1989.705	3868
1991.789	3948
1993.874	3944
1995.956	3857
1998.041	3937
2000.123	3994
2002.206	3865
2004.287	3952
2006.368	3918
2008.449	3919
2010.529	3914
2012.609	3870
2014.688	3980
2016.766	3932
2018.843	3999
2020.922	3822
2022.999	3968
2025.074	3911
2027.15	3901
2029.225	3941
2031.299	3863
2033.375	4002
2035.447	3901
2037.52	3898
2039.592	3949
2041.664	3921
2043.736	3915
2045.807	3937
2047.876	3943
2049.947	3973
2052.015	3991
2054.086	3889
2056.153	3894
2058.221	3962
2060.288	3966
2062.353	3930
2064.42	3911
2066.486	3899
2068.55	4001
2070.614	3909
2072.678	3828
2074.741	3906
2076.805	3949
2078.866	3869
2080.929	3890
2082.99	3933
2085.049	4001
2087.109	3942
2089.17	4000
2091.228	3935
2093.286	3943
2095.344	3921
2097.4	3914
2099.46	3815
2101.516	3931
2103.572	3851
2105.626	3948
2107.679	3870
2109.735	3867
2111.788	3897
2113.841	3940
2115.894	3883
2117.945	3969
2119.997	3934
2122.049	3915
2124.1	3891
2126.148	3926
2128.197	3925
2130.246	3886
2132.296	3928
2134.342	3937
2136.39	3977
2138.437	3875
2140.483	4025
2142.527	3886
2144.574	3835
2146.619	3886
2148.661	3946
2150.705	3941
2152.747	3931
2154.792	3948
2156.832	3930
2158.874	3871
2160.915	3861
2162.954	3943
2164.995	3862
2167.034	3907
2169.072	3824
2171.111	3917
2173.148	3992
2175.186	3952
2177.223	3928
2179.258	3924
2181.294	3911
2183.328	3895
2185.362	3849
2187.398	3864
2189.431	3913
2191.463	3874
2193.495	3974
2195.528	3936
2197.56	3882
2199.59	3844
2201.62	3832
2203.649	3928
2205.678	3918
2207.708	3854
2209.737	3872
2211.764	3813
2213.791	3866
2215.817	3853
2217.843	3917
2219.87	3872
2221.895	3940
2223.919	3844
2225.942	3858
2227.966	3799
2229.988	3845
2232.012	3808
2234.032	3820
2236.054	3894
2238.074	3867
2240.095	3876
2242.116	3812
2244.135	3786
2246.153	3866
2248.171	3879
2250.188	3883
2252.208	3858
2254.223	3957
2256.239	3876
2258.255	3919
2260.269	3944
2262.283	3847
2264.3	3904
2266.312	3840
2268.325	3843
2270.336	3884
2272.349	3887
2274.362	3757
2276.372	3925
2278.383	3840
2280.392	3836
2282.402	3947
2284.409	3804
2286.418	3824
2288.427	3786
2290.433	3819
2292.441	3902
2294.446	3901
2296.453	3869
2298.459	3799
2300.463	3811
2302.466	3818
2304.471	3838
2306.475	3904
2308.477	3866
2310.478	3792
2312.481	3917
2314.481	3725
2316.481	3793
2318.482	3854
2320.482	3840
2322.48	3760
2324.48	3899
2326.478	3841
2328.476	3799
2330.473	3833
2332.469	3761
2334.465	3845
2336.46	3824
2338.454	3858
2340.45	3801
2342.444	3779
2344.437	3832
2346.43	3788
2348.421	3772
2350.414	3773
2352.405	3831
2354.396	3798
2356.386	3805
2358.376	3742
2360.366	3750
2362.355	3870
2364.343	3730
2366.331	3697
2368.317	3836
2370.304	3755
2372.292	3815
2374.278	3816
2376.262	3813
2378.247	3888
2380.23	3773
2382.216	3746
2384.199	3754
2386.181	3788
2388.163	3800
2390.144	3765
2392.127	3784
2394.107	3715
2396.087	3739
2398.066	3681
2400.046	3880
2402.023	3832
2404.004	3689
2405.981	3790
2407.957	3743
2409.934	3725
2411.91	3704
2413.886	3780
2415.862	3772
2417.836	3704
2419.809	3809
2421.784	3750
2423.756	3796
2425.73	3764
2427.701	3720
2429.672	3732
2431.644	3787
2433.615	3805
2435.586	3702
2437.555	3760
2439.523	3770
2441.491	3673
2443.459	3727
2445.428	3765
2447.395	3736
2449.361	3702
2451.327	3802
2453.292	3757
2455.257	3763
2457.223	3725
2459.187	3697
2461.15	3727
2463.113	3769
2465.076	3740
2467.039	3699
2468.999	3793
2470.96	3757
2472.921	3798
2474.881	3719
2476.841	3673
2478.8	3685
2480.759	3768
2482.717	3745
2484.675	3634
2486.63	3751
2488.589	3790
2490.545	3682
2492.5	3671
2494.455	3693
2496.408	3695
2498.364	3688
2500.318	3626
2502.27	3693
2504.223	3716
2506.174	3659
2508.126	3658
2510.078	3719
2512.03	3727
2513.979	3829
2515.927	3719
2517.877	3714
2519.826	3726
2521.775	3728
2523.722	3644
2525.668	3779
2527.616	3711
2529.561	3745
2531.508	3716
2533.452	3727
2535.398	3748
2537.342	3712
2539.284	3654
2541.229	3722
2543.173	3785
2545.114	3628
2547.055	3775
2548.996	3702
2550.938	3690
2552.878	3702
2554.817	3640
2556.756	3698
2558.695	3784
2560.633	3699
2562.572	3611
2564.509	3706
2566.445	3695
2568.382	3650
2570.317	3749
2572.254	3730
2574.189	3763
2576.123	3710
2578.057	3753
2579.99	3733
2581.923	3724
2583.855	3722
2585.788	3792
2587.719	3683
2589.65	3736
2591.579	3710
2593.511	3670
2595.44	3686
2597.37	3663
2599.297	3730
2601.225	3704
2603.153	3609
2605.08	3658
2607.007	3621
2608.932	3701
2610.858	3686
2612.782	3664
2614.709	3762
2616.632	3643
2618.556	3700
2620.478	3703
2622.401	3688
2624.324	3706
2626.247	3672
2628.167	3791
2630.088	3796
2632.008	3663
2633.928	3749
2635.848	3704
2637.766	3702
2639.684	3709
2641.603	3655
2643.519	3706
2645.437	3702
2647.353	3711
2649.27	3706
2651.184	3665
2653.099	3700
2655.014	3772
2656.928	3667
2658.842	3746
2660.755	3655
2662.667	3749
2664.579	3620
2666.491	3734
2668.402	3732
2670.312	3768
2672.222	3707
2674.132	3738
2676.042	3754
2677.951	3679
2679.859	3672
2681.766	3629
2683.674	3767
2685.582	3735
2687.488	3700
2689.392	3667
2691.298	3691
2693.202	3781
2695.107	3698
2697.012	3657
2698.914	3684
2700.817	3704
2702.72	3641
2704.622	3711
2706.524	3676
2708.425	3655
2710.326	3667
2712.225	3618
2714.125	3665
2716.024	3745
2717.923	3679
2719.822	3767
2721.719	3691
2723.616	3582
2725.512	3637
2727.41	3687
2729.305	3538
2731.201	3627
2733.095	3655
2734.99	3691
2736.884	3716
2738.778	3602
2740.67	3583
2742.562	3728
2744.455	3684
2746.346	3677
2748.238	3683
2750.129	3666
2752.018	3688
2753.907	3643
2755.797	3682
2757.687	3652
2759.575	3615
2761.462	3688
2763.349	3529
2765.237	3670
2767.124	3579
2769.009	3636
2770.894	3668
2772.779	3774
2774.663	3620
2776.547	3616
2778.431	3564
2780.314	3673
2782.197	3671
2784.078	3708
2785.96	3614
2787.842	3636
2789.723	3687
2791.603	3673
2793.483	3618
2795.362	3591
2797.241	3617
2799.121	3724
2800.997	3656
2802.874	3676
2804.751	3565
2806.628	3683
2808.506	3562
2810.38	3566
2812.255	3646
2814.13	3574
2816.003	3659
2817.878	3590
2819.752	3676
2821.623	3616
2823.496	3587
2825.368	3665
2827.238	3673
2829.111	3704
2830.98	3628
2832.851	3709
2834.719	3680
2836.589	3584
2838.458	3652
2840.327	3590
2842.193	3669
2844.061	3657
2845.927	3680
2847.794	3724
2849.66	3793
2851.525	3639
2853.39	3749
2855.254	3736
2857.117	3635
2858.983	3698
2860.845	3748
2862.707	3821
2864.569	3797
2866.431	3804
2868.293	3747
2870.154	3816
2872.013	3889
2873.873	3703
2875.733	3918
2877.592	3958
2879.451	3858
2881.309	3922
2883.166	4021
2885.022	4084
2886.879	3946
2888.736	4019
2890.591	3986
2892.446	4055
2894.301	3977
2896.155	4066
2898.009	4040
2899.863	4068
2901.716	4013
2903.568	3953
2905.419	3982
2907.27	3975
2909.123	4129
2910.973	4058
2912.824	4061
2914.673	4114
2916.521	4131
2918.372	4146
2920.22	4200
2922.067	4188
2923.914	4219
2925.761	4263
2927.607	4210
2929.455	4223
2931.301	4360
2933.144	4380
2934.99	4310
2936.833	4407
2938.678	4493
2940.522	4393
2942.364	4412
2944.207	4482
2946.048	4468
2947.891	4568
2949.731	4522
2951.571	4497
2953.412	4510
2955.25	4625
2957.09	4451
2958.93	4400
2960.767	4496
2962.606	4388
2964.443	4346
2966.279	4223
2968.116	4243
2969.953	4224
2971.788	4193
2973.623	4145
2975.457	4045
2977.292	4153
2979.127	4172
2980.959	4076
2982.792	3979
2984.624	4082
2986.455	3995
2988.288	4018
2990.119	4023
2991.949	4029
2993.779	3883
2995.608	3901
2997.439	3867
2999.268	3831
3001.096	3785
3002.923	3806
3004.751	3757
3006.578	3783
3008.406	3764
3010.232	3831
3012.057	3743
3013.883	3654
3015.706	3703
3017.532	3701
3019.356	3613
3021.179	3576
3023.002	3643
3024.823	3705
3026.646	3545
3028.469	3527
3030.289	3557
3032.11	3570
3033.93	3466
3035.749	3494
3037.57	3629
3039.39	3500
3041.207	3616
3043.026	3567
3044.842	3491
3046.661	3501
3048.477	3620
3050.294	3471
3052.109	3498
3053.925	3512
3055.739	3511
3057.555	3542
3059.368	3501
3061.181	3507
3062.995	3474
3064.807	3501
3066.62	3481
3068.433	3478
3070.243	3456
3072.054	3500
3073.865	3402
3075.675	3442
3077.485	3508
3079.293	3483
3081.102	3441
3082.911	3393
3084.719	3490
3086.527	3404
3088.333	3482
3090.139	3446
3091.945	3519
3093.75	3459
3095.557	3419
3097.361	3415
3099.165	3437
3100.969	3401
3102.772	3416
3104.575	3404
3106.379	3382
3108.181	3353
3109.982	3432
3111.783	3400
3113.584	3356
3115.386	3313
3117.186	3493
3118.985	3358
3120.783	3358
3122.582	3396
3124.381	3428
3126.179	3291
3127.975	3451
3129.772	3412
3131.569	3366
3133.365	3423
3135.161	3408
3136.956	3306
3138.751	3372
3140.544	3348
3142.338	3350
3144.132	3400
3145.925	3284
3147.717	3334
3149.509	3364
3151.301	3368
3153.091	3387
3154.884	3333
3156.673	3349
3158.462	3354
3160.252	3412
3162.041	3351
3163.831	3289
3165.618	3336
3167.405	3421
3169.193	3334
3170.979	3327
3172.767	3330
3174.553	3292
3176.338	3337
3178.123	3369
3179.907	3411
3181.692	3402
3183.477	3331
3185.259	3338
3187.042	3367
3188.824	3360
3190.607	3317
3192.389	3375
3194.17	3369
3195.951	3263
3197.73	3350
3199.51	3329
3201.289	3292
3203.07	3361
3204.848	3265
3206.626	3278
3208.403	3380
3210.18	3288
3211.959	3328
3213.735	3262
3215.511	3309
3217.285	3349
3219.06	3305
3220.836	3363
3222.611	3346
3224.384	3326
3226.158	3365
3227.929	3294
3229.702	3264
3231.476	3324
3233.248	3252
3235.018	3396
3236.789	3309
3238.56	3274
3240.33	3339
3242.1	3315
3243.869	3316
3245.637	3305
3247.405	3263
3249.172	3329
3250.941	3250
3252.707	3315
3254.474	3310
3256.24	3361
3258.006	3256
3259.772	3308
3261.537	3276
3263.301	3352
3265.065	3295
3266.828	3363
3268.592	3270
3270.355	3318
3272.117	3316
3273.878	3260
3275.64	3379
3277.401	3323
3279.162	3345
3280.922	3429
3282.682	3360
3284.441	3297
3286.199	3296
3287.959	3327
3289.716	3268
3291.475	3299
3293.232	3349
3294.988	3327
3296.744	3342
3298.501	3334
3300.256	3384
3302.011	3318
3303.766	3275
3305.52	3323
3307.275	3283
3309.028	3420
3310.781	3335
3312.533	3302
3314.285	3273
3316.038	3220
3317.789	3243
3319.54	3351
3321.289	3332
3323.039	3267
3324.789	3293
3326.539	3338
3328.288	3284
3330.035	3304
3331.783	3244
3333.531	3370
3335.28	3199
3337.025	3302
3338.771	3265
3340.518	3281
3342.262	3294
3344.009	3209
3345.753	3209
3347.497	3191
3349.24	3242
3350.983	3247
3352.726	3210
3354.469	3299
3356.212	3272
3357.952	3231
3359.694	3282
3361.434	3284
3363.176	3236
3364.916	3255
3366.654	3244
3368.394	3262
3370.132	3233
3371.871	3267
3373.61	3228
3375.346	3224
3377.083	3248
3378.82	3194
3380.556	3257
3382.292	3199
3384.027	3260
3385.763	3238
3387.497	3217
3389.231	3235
3390.965	3218
3392.698	3242
3394.431	3191
3396.164	3183
3397.896	3260
3399.627	3215
3401.36	3197
3403.09	3253
3404.82	3184
3406.55	3144
3408.279	3163
3410.01	3156
3411.738	3214
3413.467	3223
3415.194	3302
3416.92	3216
3418.647	3188
3420.375	3199
3422.102	3221
3423.827	3151
3425.553	3204
3427.277	3146
3429.003	3169
3430.727	3167
3432.451	3178
3434.173	3105
3435.896	3201
3437.62	3182
3439.343	3180
3441.063	3111
3442.785	3148
3444.505	3124
3446.226	3162
3447.948	3179
3449.666	3051
3451.386	3152
3453.104	3177
3454.823	3126
3456.541	3104
3458.259	3184
3459.976	3053
3461.693	3155
3463.408	3165
3465.125	3080
3466.841	3087
3468.556	3081
3470.271	3108
3471.985	3063
3473.698	3133
3475.414	3120
3477.126	3094
3478.838	3041
3480.55	3033
3482.263	3048
3483.975	3056
3485.686	3108
3487.396	3016
3489.106	3114
3490.817	3037
3492.526	3082
3494.236	2978
3495.944	3013
3497.652	3016
3499.359	3043
3501.066	3005
3502.775	3021
3504.481	3038
3506.187	2996
3507.893	3018
3509.598	2964
3511.304	3034
3513.009	3047
3514.713	2953
3516.417	2967
3518.12	2969
3519.821	3009
3521.525	2915
3523.228	2969
3524.929	2993
3526.631	2933
3528.33	2988
3530.032	3044
3531.733	2953
3533.433	3000
3535.131	2903
3536.83	2958
3538.529	2949
3540.227	2957
3541.925	2995
3543.623	2920
3545.319	2999
3547.016	2917
3548.712	2917
3550.408	2952
3552.103	2917
3553.798	2898
3555.491	2926
3557.188	2916
3558.88	2963
3560.574	2887
3562.266	2898
3563.959	2906
3565.651	2886
3567.343	2897
3569.035	2917
3570.725	2909
3572.415	2909
3574.106	2938
3575.797	2991
3577.485	2890
3579.174	2941
3580.863	2862
3582.551	2901
3584.238	2831
3585.926	2943
3587.613	2873
3589.3	2831
3590.986	2906
3592.671	2959
3594.357	2869
3596.042	2852
3597.726	2815
3599.41	2838
3601.094	2826
3602.778	2892
3604.461	2850
3606.143	2889
3607.825	2785
3609.507	2847
3611.188	2848
3612.87	2859
3614.551	2853
3616.229	2861
3617.909	2796
3619.589	2799
3621.269	2900
3622.948	2780
3624.625	2794
3626.302	2833
3627.98	2788
3629.657	2793
3631.334	2759
3633.01	2762
3634.686	2774
3636.361	2712
3638.036	2747
3639.712	2736
3641.385	2699
3643.06	2763
3644.732	2737
3646.405	2709
3648.08	2766
3649.751	2781
3651.424	2722
3653.094	2663
3654.766	2695
3656.436	2693
3658.106	2700
3659.777	2716
3661.446	2669
3663.115	2726
3664.783	2756
3666.452	2782
3668.121	2750
3669.788	2781
3671.454	2758
3673.121	2739
3674.789	2694
3676.455	2757
3678.12	2685
3679.784	2678
3681.45	2721
3683.114	2683
3684.779	2704
3686.442	2722
3688.105	2670
3689.768	2677
3691.43	2703
3693.093	2653
3694.754	2641
3696.415	2721
3698.076	2620
3699.736	2695
3701.396	2712
3703.057	2700
3704.716	2645
3706.375	2642
3708.034	2639
3709.692	2706
3711.351	2682
3713.008	2724
3714.665	2717
3716.321	2652
3717.977	2724
3719.634	2653
3721.29	2655
3722.945	2635
3724.598	2679
3726.253	2682
3727.907	2600
3729.561	2602
3731.214	2713
3732.867	2647
3734.518	2671
3736.171	2635
3737.824	2650
3739.474	2630
3741.125	2629
3742.775	2593
3744.425	2673
3746.074	2624
3747.725	2684
3749.373	2573
3751.022	2644
3752.669	2668
3754.318	2661
3755.966	2638
3757.612	2581
3759.259	2604
3760.905	2641
3762.55	2604
3764.197	2582
3765.842	2557
3767.486	2648
3769.131	2581
3770.774	2625
3772.417	2648
3774.061	2589
3775.705	2502
3777.347	2566
3778.988	2514
3780.629	2651
3782.271	2627
3783.912	2643
3785.552	2572
3787.192	2611
3788.831	2575
3790.472	2474
3792.112	2547
3793.75	2491
3795.388	2571
3797.024	2587
3798.661	2533
3800.3	2622
3801.936	2555
3803.572	2566
3805.208	2573
3806.844	2588
3808.48	2588
3810.115	2593
3811.748	2511
3813.382	2545
3815.016	2499
3816.649	2525
3818.283	2566
3819.914	2575
3821.547	2541
3823.178	2576
3824.809	2581
3826.441	2553
3828.072	2495
3829.701	2513
3831.331	2556
3832.96	2525
3834.591	2525
3836.219	2531
3837.847	2519
3839.475	2487
3841.102	2537
3842.729	2496
3844.357	2496
3845.984	2542
3847.609	2528
3849.234	2557
3850.86	2479
3852.485	2491
3854.11	2457
3855.734	2454
3857.357	2524
3858.981	2493
3860.603	2471
3862.227	2456
3863.848	2456
3865.471	2496
3867.092	2511
3868.713	2457
3870.334	2485
3871.954	2551
3873.575	2509
3875.194	2479
3876.813	2471
3878.433	2474
3880.051	2430
3881.669	2500
3883.286	2490
3884.904	2484
3886.52	2465
3888.138	2511
3889.754	2433
3891.37	2454
3892.985	2513
3894.6	2431
3896.216	2460
3897.831	2454
3899.444	2471
3901.058	2489
3902.67	2406
3904.283	2441
3905.897	2424
3907.509	2501
3909.121	2437
3910.731	2403
3912.342	2405
3913.954	2453
3915.563	2431
3917.174	2401
3918.783	2516
3920.391	2441
3922.002	2439
3923.611	2435
3925.218	2443
3926.826	2447
3928.432	2498
3930.039	2414
3931.647	2453
3933.253	2359
3934.859	2460
3936.464	2465
3938.068	2510
3939.675	2421
3941.278	2475
3942.883	2408
3944.486	2459
3946.089	2400
3947.692	2358
3949.295	2442
3950.898	2471
3952.499	2411
3954.1	2487
3955.7	2369
3957.303	2409
3958.903	2448
3960.502	2368
3962.101	2339
3963.7	2365
3965.301	2414
3966.899	2393
3968.497	2364
3970.094	2344
3971.691	2354
3973.288	2414
3974.885	2402
3976.481	2358
3978.077	2374
3979.672	2426
3981.267	2378
3982.863	2330
3984.457	2383
3986.051	2378
3987.645	2410
3989.238	2335
3990.831	2404
3992.425	2352
3994.017	2333
3995.607	2376
3997.199	2293
3998.79	2363
4000.382	2271
4001.973	2346
4003.561	2349
4005.151	2327
4006.741	2392
4008.331	2424
4009.918	2334
4011.507	2310
4013.095	2359
4014.681	2322
4016.269	2320
4017.856	2335
4019.443	2250
4021.028	2200
4022.614	2332
4024.199	2327
4025.785	2313
4027.37	2356
4028.953	2340
4030.536	2358
4032.12	2263
4033.704	2331
4035.287	2333
4036.869	2289
4038.45	2327
4040.032	2324
4041.613	2303
4043.195	2306
4044.776	2299
4046.356	2240
4047.935	2254
4049.515	2283
4051.095	2301
4052.674	2291
4054.251	2313
4055.829	2250
4057.406	2300
4058.985	2248
4060.562	2298
4062.139	2215
4063.715	2274
4065.29	2211
4066.865	2248
4068.442	2245
4070.016	2327
4071.59	2266
4073.164	2247
4074.738	2226
4076.312	2289
4077.885	2287
4079.458	2234
4081.03	2221
4082.602	2181
4084.173	2244
4085.745	2275
4087.315	2233
4088.886	2201
4090.456	2253
4092.026	2215
4093.596	2217
4095.165	2214
4096.734	2238
4098.301	2286
4099.869	2219
4101.437	2236
4103.006	2187
4104.572	2247
4106.139	2290
4107.704	2269
4109.27	2180
4110.837	2287
4112.401	2212
4113.966	2208
4115.53	2250
4117.094	2186
4118.659	2196
4120.223	2192
4121.785	2224
4123.347	2250
4124.909	2118
4126.471	2218
4128.034	2211
4129.595	2187
4131.155	2212
4132.716	2171
4134.275	2179
4135.836	2189
4137.395	2210
4138.955	2140
4140.513	2186
4142.071	2175
4143.628	2155
4145.188	2164
4146.745	2194
4148.302	2204
4149.858	2167
4151.414	2168
4152.971	2176
4154.526	2141
4156.081	2178
4157.635	2141
4159.189	2127
4160.745	2146
4162.298	2172
4163.852	2106
4165.405	2193
4166.957	2138
4168.51	2177
4170.063	2136
4171.614	2136
4173.166	2207
4174.717	2129
4176.267	2175
4177.817	2129
4179.368	2134
4180.917	2092
4182.466	2140
4184.016	2129
4185.564	2186
4187.112	2107
4188.66	2111
4190.207	2150
4191.754	2157
4193.301	2098
4194.848	2078
4196.394	2044
4197.94	2123
4199.484	2083
4201.03	2065
4202.575	2081
4204.12	2082
4205.663	2059
4207.207	2049
4208.75	2090
4210.292	2117
4211.836	2081
4213.378	2070
4214.92	2056
4216.46	2081
4218.002	2064
4219.544	2049
4221.083	2092
4222.625	2054
4224.164	2102
4225.703	2038
4227.244	2053
4228.782	2039
4230.32	2119
4231.857	2141
4233.395	2081
4234.933	2029
4236.471	2059
4238.007	2101
4239.542	2071
4241.078	2089
4242.614	2095
4244.15	2058
4245.685	2024
4247.219	2007
4248.753	2057
4250.287	2105
4251.82	2067
4253.354	2047
4254.887	2050
4256.419	2071
4257.951	2026
4259.483	2020
4261.016	2011
4262.547	2012
4264.078	2085
4265.608	2006
4267.137	2098
4268.668	2007
4270.197	2040
4271.727	2075
4273.254	2026
4274.783	2038
4276.311	2050
4277.84	2043
4279.366	2015
4280.894	2061
4282.42	1987
4283.946	2005
4285.473	2010
4286.998	2038
4288.523	2002
4290.047	2030
4291.572	2005
4293.096	2054
4294.622	2028
4296.144	2037
4297.668	2024
4299.19	2013
4300.713	2027
4302.236	1982
4303.758	1960
4305.279	2039
4306.799	1953
4308.321	1965
4309.842	1981
4311.361	1983
4312.882	1994
4314.401	2052
