400.0961	2786
402.6185	2804
405.1424	2835
407.6635	2823
410.1838	2878
412.7035	2822
415.2225	2869
417.7388	2883
420.2585	2963
422.7754	3027
425.2917	2968
427.8072	3001
430.3221	3090
432.8363	3106
435.3498	3066
437.8626	3030
440.3727	3066
442.8841	3093
445.3969	2978
447.907	3069
450.4142	3046
452.9229	3060
455.4289	3020
457.9362	3052
460.4449	3039
462.9488	2960
465.454	2991
467.9566	3012
470.4604	3018
472.9637	2937
475.4662	3010
477.966	2940
480.4671	3025
482.9656	2996
485.4633	3017
487.9645	2974
490.4608	2994
492.9566	2955
495.4536	2982
497.948	3037
500.4437	2934
502.9387	3035
505.431	3096
507.9226	3023
510.4136	3104
512.9079	3022
515.3975	2993
517.8864	3095
520.3746	2980
522.8622	2964
525.3491	3087
527.8394	3080
530.3249	2996
532.8098	3035
535.2939	3072
537.7774	3069
540.2623	3066
542.7444	3089
545.2259	3079
547.7067	3114
550.1868	3073
552.6683	3104
555.147	3099
557.6231	3075
560.1005	3030
562.5773	3127
565.0534	3102
567.5308	3242
570.0056	3151
572.4776	3146
574.951	3181
577.4237	3207
579.8978	3210
582.3671	3185
584.8378	3185
587.3079	3249
589.7773	3257
592.244	3272
594.714	3253
597.1793	3285
599.6461	3169
602.1121	3178
604.5754	3172
607.0421	3286
609.5042	3256
611.9675	3203
614.4282	3198
616.8902	3171
619.3515	3218
621.8122	3200
624.2702	3201
626.7296	3155
629.1863	3102
631.6423	3129
634.1017	3174
636.5563	3099
639.0104	3150
641.4658	3057
643.9185	3142
646.3725	3129
648.8239	3152
651.2766	3211
653.7266	3218
656.176	3139
658.6247	3167
661.0748	3200
663.5242	3247
665.9709	3160
668.417	3189
670.8624	3197
673.3092	3201
675.7533	3217
678.1968	3274
680.6395	3260
683.0817	3231
685.5251	3207
687.9659	3221
690.4061	3270
692.8456	3247
695.2844	3247
697.7226	3271
700.1621	3279
702.599	3218
705.0332	3213
707.4688	3291
709.9036	3248
712.3399	3291
714.7735	3309
717.2044	3331
719.6367	3319
722.0683	3368
724.4993	3285
726.9296	3337
729.3593	3331
731.7883	3290
734.2147	3400
736.6423	3335
739.0714	3352
741.4958	3349
743.9216	3372
746.3447	3460
748.7691	3435
751.1929	3357
753.616	3416
756.0366	3405
758.4584	3465
760.8776	3447
763.2982	3407
765.718	3505
768.1373	3504
770.5539	3350
772.9698	3425
775.3871	3451
777.8038	3499
780.2178	3476
782.6332	3557
785.0459	3509
787.458	3508
789.8714	3432
792.2842	3488
794.6943	3499
797.1038	3441
799.5127	3369
801.9209	3445
804.3324	3446
806.7393	3540
809.1456	3490
811.5513	3519
813.9562	3580
816.3625	3541
818.7663	3507
821.1693	3527
823.5718	3534
825.9735	3571
828.3746	3586
830.7771	3477
833.177	3523
835.5762	3493
837.9747	3582
840.3727	3566
842.772	3481
845.1666	3579
847.5626	3539
849.958	3657
852.3527	3689
854.7488	3642
857.1403	3691
859.5331	3609
861.9253	3685
864.3168	3677
866.7057	3601
869.098	3637
871.4876	3624
873.8746	3657
876.263	3635
878.6487	3587
881.0378	3575
883.4243	3706
885.8081	3596
888.1933	3591
890.5759	3558
892.9598	3627
895.343	3668
897.7256	3611
900.1057	3647
902.4871	3650
904.8659	3655
907.246	3614
909.6254	3624
912.0023	3789
914.3786	3726
916.7562	3760
919.1331	3746
921.5074	3826
923.8831	3873
926.2562	3827
928.6287	3878
931.0005	3841
933.3757	3841
935.7462	3867
938.1162	3904
940.4855	3958
942.8542	4039
945.2242	4043
947.5916	4217
949.9584	4309
952.3266	4551
954.6921	4793
957.0571	4937
959.4233	5203
961.787	5429
964.15	5376
966.5125	5031
968.8742	4877
971.2354	4514
973.5959	4272
975.9559	4101
978.3151	3917
980.6738	3853
983.0338	3827
985.3912	3804
987.7461	3821
990.1022	3726
992.4578	3756
994.8127	3681
997.1689	3744
999.5207	3811
1001.874	3770
1004.226	3812
1006.576	3762
1008.929	3837
1011.28	3759
1013.628	3812
1015.977	3819
1018.324	3797
1020.674	3750
1023.019	3788
1025.366	3826
1027.713	3848
1030.056	3832
1032.399	3829
1034.746	3870
1037.087	3890
1039.431	3789
1041.771	3830
1044.113	3907
1046.454	3847
1048.793	3865
1051.133	3851
1053.471	3906
1055.807	3887
1058.146	3900
1060.483	3923
1062.818	3932
1065.153	4005
1067.489	4025
1069.822	3985
1072.156	4064
1074.488	4035
1076.82	4043
1079.15	3988
1081.48	4042
1083.814	3952
1086.143	3928
1088.471	3835
1090.799	3955
1093.126	3822
1095.452	3875
1097.78	3844
1100.105	3779
1102.43	3760
1104.754	3884
1107.077	3864
1109.4	3767
1111.722	3877
1114.044	3911
1116.365	3862
1118.685	3889
1121.005	3814
1123.324	3784
1125.643	3815
1127.961	3870
1130.278	3890
1132.595	3915
1134.911	3864
1137.226	3817
1139.541	3816
1141.854	3926
1144.167	3736
1146.482	3910
1148.793	3807
1151.105	3813
1153.414	3847
1155.725	3821
1158.033	3792
1160.344	3752
1162.651	3872
1164.959	3834
1167.265	3823
1169.572	3869
1171.878	3846
1174.184	3937
1176.488	3823
1178.79	3824
1181.094	3816
1183.396	3901
1185.699	3816
1188.001	3828
1190.301	3857
1192.6	3767
1194.9	3842
1197.2	3798
1199.497	3814
1201.794	3919
1204.09	3760
1206.387	3843
1208.684	3778
1210.978	3876
1213.272	3932
1215.565	3826
1217.858	3928
1220.15	3940
1222.443	3918
1224.734	3900
1227.024	3989
1229.313	4036
1231.602	4053
1233.892	3957
1236.18	4002
1238.467	3946
1240.754	4073
1243.04	4094
1245.325	4030
1247.612	4079
1249.896	4150
1252.178	4062
1254.461	4061
1256.743	4049
1259.027	3979
1261.308	4042
1263.587	3981
1265.867	4035
1268.146	4053
1270.425	4041
1272.703	4042
1274.981	4037
1277.256	3977
1279.532	4093
1281.808	4063
1284.083	4036
1286.358	3957
1288.63	4062
1290.904	3962
1293.175	3982
1295.449	3965
1297.719	3968
1299.99	4088
1302.259	4042
1304.529	3977
1306.798	4091
1309.065	4031
1311.333	3908
1313.599	3897
1315.866	3970
1318.131	3972
1320.396	3962
1322.66	3988
1324.925	3961
1327.187	3956
1329.448	4032
1331.711	4022
1333.974	4023
1336.234	3968
1338.493	3995
1340.752	3924
1343.01	3968
1345.269	3933
1347.526	3948
1349.784	3954
1352.04	3939
1354.295	4004
1356.552	3937
1358.806	3975
1361.059	3964
1363.312	3992
1365.564	4089
1367.818	3936
1370.069	3984
1372.318	4067
1374.568	3996
1376.817	4078
1379.066	4041
1381.316	4086
1383.564	4033
1385.809	3979
1388.056	4028
1390.301	4007
1392.549	4095
1394.793	4177
1397.036	4123
1399.279	4157
1401.522	4141
1403.763	4180
1406.007	4138
1408.248	4164
1410.487	4078
1412.727	4160
1414.965	4146
1417.205	4100
1419.442	4209
1421.68	4103
1423.915	4090
1426.152	4128
1428.388	4095
1430.623	4124
1432.857	4096
1435.091	4203
1437.323	4225
1439.556	4167
1441.789	4226
1444.019	4286
1446.25	4214
1448.48	4290
1450.708	4242
1452.938	4272
1455.167	4286
1457.394	4314
1459.62	4269
1461.846	4270
1464.073	4305
1466.299	4191
1468.523	4214
1470.746	4129
1472.969	4091
1475.191	4062
1477.415	4078
1479.636	4156
1481.858	4124
1484.078	4090
1486.298	4009
1488.518	4019
1490.736	4000
1492.954	4038
1495.169	3883
1497.386	3997
1499.602	3922
1501.819	4049
1504.034	4023
1506.248	4004
1508.462	4008
1510.675	4009
1512.888	3911
1515.1	3951
1517.311	4019
1519.522	3997
1521.732	4019
1523.942	3995
1526.151	4058
1528.36	3896
1530.566	4043
1532.773	3951
1534.98	3960
1537.187	3951
1539.392	3919
1541.596	3958
1543.801	3938
1546.005	3958
1548.208	4058
1550.411	4062
1552.612	4039
1554.814	3989
1557.013	3957
1559.212	4009
1561.414	4029
1563.612	4092
1565.811	4088
1568.007	4079
1570.203	4108
1572.403	4060
1574.598	4020
1576.792	4170
1578.988	4070
1581.181	4052
1583.376	4044
1585.568	4082
1587.761	4129
1589.952	4152
1592.143	4104
1594.333	4135
1596.524	4105
1598.715	4150
1600.903	4089
1603.091	4117
1605.278	4122
1607.466	4062
1609.652	4241
1611.838	4126
1614.023	4226
1616.207	4138
1618.391	4096
1620.576	4157
1622.759	4095
1624.941	4186
1627.123	4182
1629.304	4182
1631.484	4185
1633.664	4175
1635.844	4245
1638.022	4243
1640.201	4240
1642.38	4274
1644.556	4284
1646.732	4191
1648.908	4209
1651.084	4359
1653.257	4318
1655.433	4322
1657.607	4181
1659.779	4265
1661.951	4324
1664.122	4293
1666.295	4284
1668.467	4333
1670.635	4298
1672.805	4374
1674.973	4353
1677.142	4256
1679.31	4262
1681.478	4352
1683.644	4179
1685.81	4211
1687.975	4194
1690.142	4281
1692.305	4289
1694.468	4188
1696.632	4165
1698.794	4152
1700.957	4111
1703.119	4190
1705.279	4210
1707.439	4216
1709.598	4163
1711.758	4106
1713.917	4105
1716.075	4109
1718.231	4076
1720.388	4175
1722.543	4127
1724.702	4044
1726.856	4217
1729.01	4012
1731.164	4193
1733.317	4119
1735.471	4076
1737.623	4081
1739.774	4097
1741.925	4054
1744.075	4166
1746.225	4097
1748.376	4090
1750.524	4154
1752.672	4066
1754.82	4160
1756.965	4134
1759.113	4129
1761.259	4124
1763.405	4152
1765.549	4212
1767.694	4059
1769.836	4149
1771.981	4141
1774.123	4124
1776.264	4120
1778.405	4128
1780.546	4205
1782.687	4164
1784.827	4239
1786.966	4191
1789.103	4065
1791.242	4174
1793.381	4106
1795.517	4232
1797.653	4107
1799.788	4243
1801.923	4198
1804.057	4198
1806.193	4261
1808.326	4180
1810.457	4208
1812.59	4030
1814.721	4195
1816.855	4156
1818.984	4170
1821.113	4125
1823.244	4096
1825.372	4192
1827.499	4190
1829.63	4139
1831.756	4095
1833.882	4130
1836.007	4110
1838.132	4046
1840.26	4117
1842.384	4130
1844.507	4177
1846.63	4092
1848.752	4145
1850.875	4149
1852.996	4143
1855.118	4041
1857.238	4084
1859.358	4071
1861.477	4002
1863.597	4155
1865.715	4092
1867.832	4096
1869.948	4145
1872.064	4050
1874.181	4173
1876.297	4088
1878.411	4068
1880.526	4127
1882.639	4137
1884.752	4115
1886.865	4129
1888.977	4203
1891.089	4166
1893.2	4200
1895.308	4209
1897.42	4064
1899.53	4087
1901.639	4176
1903.745	4097
1905.853	4148
1907.962	4159
1910.067	4084
1912.174	4160
1914.278	4192
1916.383	4146
1918.486	4203
1920.592	4091
1922.694	4178
1924.797	4176
1926.898	4156
1929	4157
1931.102	4168
1933.203	4190
1935.301	4182
1937.401	4163
1939.499	4295
1941.598	4186
1943.697	4244
1945.793	4083
1947.888	4219
1949.985	4257
1952.08	4107
1954.176	4257
1956.269	4154
1958.364	4262
1960.457	4255
1962.549	4217
1964.642	4209
1966.733	4131
1968.823	4214
1970.913	4210
1973.005	4131
1975.093	4156
1977.184	4179
1979.271	4180
1981.359	4119
1983.446	4132
1985.532	4096
1987.619	4169
1989.705	4084
1991.789	4167
1993.874	4218
1995.956	4157
1998.041	4151
2000.123	4139
2002.206	4157
2004.287	4113
2006.368	4123
2008.449	4080
2010.529	4063
2012.609	4216
2014.688	4231
2016.766	4116
2018.843	4164
2020.922	4083
2022.999	4126
2025.074	4182
2027.15	4072
2029.225	4167
2031.299	4173
2033.375	4164
2035.447	4235
2037.52	4147
2039.592	4166
2041.664	4144
2043.736	4150
2045.807	4274
2047.876	4157
2049.947	4172
2052.015	4162
2054.086	4184
2056.153	4204
2058.221	4176
2060.288	4101
2062.353	4147
2064.42	4143
2066.486	4262
2068.55	4211
2070.614	4115
2072.678	4117
2074.741	4167
2076.805	4089
2078.866	4112
2080.929	4179
2082.99	4154
2085.049	4199
2087.109	4157
2089.17	4254
2091.228	4185
2093.286	4171
2095.344	4091
2097.4	4165
2099.46	4170
2101.516	4163
2103.572	4222
2105.626	4108
2107.679	4169
2109.735	4222
2111.788	4267
2113.841	4147
2115.894	4220
2117.945	4161
2119.997	4207
2122.049	4152
2124.1	4172
2126.148	4223
2128.197	4190
2130.246	4192
2132.296	4164
2134.342	4169
2136.39	4092
2138.437	4160
2140.483	4181
2142.527	4098
2144.574	4206
2146.619	4118
2148.661	4158
2150.705	4201
2152.747	4149
2154.792	4139
2156.832	4132
2158.874	4186
2160.915	4187
2162.954	4139
2164.995	4242
2167.034	4164
2169.072	4048
2171.111	4117
2173.148	4228
2175.186	4101
2177.223	4107
2179.258	4063
2181.294	4119
2183.328	4136
2185.362	4192
2187.398	4102
2189.431	4055
2191.463	4022
2193.495	4048
2195.528	4220
2197.56	4146
2199.59	4039
2201.62	4062
2203.649	4109
2205.678	4072
2207.708	4174
2209.737	4036
2211.764	4085
2213.791	4108
2215.817	4081
2217.843	4034
2219.87	4114
2221.895	4101
2223.919	3977
2225.942	4114
2227.966	4108
2229.988	4061
2232.012	4039
2234.032	4163
2236.054	4182
2238.074	4139
2240.095	4081
2242.116	4013
2244.135	4123
2246.153	4067
2248.171	4132
2250.188	3976
2252.208	3981
2254.223	4080
2256.239	4070
2258.255	4165
2260.269	4136
2262.283	4037
2264.3	4106
2266.312	4137
2268.325	4034
2270.336	3997
2272.349	4088
2274.362	4099
2276.372	4073
2278.383	4033
2280.392	4113
2282.402	3994
2284.409	4107
2286.418	4048
2288.427	4075
2290.433	4089
2292.441	3996
2294.446	4055
2296.453	4017
2298.459	4145
2300.463	4082
2302.466	4047
2304.471	4090
2306.475	4068
2308.477	4068
2310.478	4042
2312.481	4020
2314.481	4114
2316.481	4066
2318.482	4008
2320.482	4045
2322.48	4037
2324.48	4047
2326.478	4052
2328.476	4034
2330.473	4062
2332.469	4021
2334.465	4007
2336.46	4081
2338.454	4028
2340.45	3958
2342.444	4032
2344.437	4115
2346.43	4055
2348.421	3958
2350.414	4001
2352.405	3990
2354.396	4017
2356.386	4092
2358.376	3980
2360.366	3970
2362.355	3964
2364.343	4016
2366.331	3972
2368.317	3893
2370.304	4067
2372.292	3989
2374.278	4051
2376.262	4014
2378.247	4039
2380.23	3965
2382.216	4031
2384.199	4028
2386.181	3961
2388.163	3906
2390.144	3931
2392.127	3972
2394.107	3907
2396.087	3951
2398.066	3979
2400.046	3960
2402.023	4023
2404.004	3895
2405.981	3902
2407.957	3999
2409.934	3933
2411.91	3945
2413.886	3953
2415.862	3926
2417.836	3988
2419.809	4025
2421.784	3963
2423.756	3853
2425.73	3946
2427.701	3924
2429.672	4018
2431.644	4036
2433.615	3998
2435.586	3976
2437.555	3974
2439.523	3978
2441.491	3920
2443.459	3978
2445.428	3945
2447.395	3962
2449.361	3979
2451.327	3988
2453.292	4033
2455.257	4010
2457.223	3898
2459.187	3896
2461.15	3965
2463.113	3879
2465.076	3883
2467.039	3917
2468.999	3924
2470.96	3905
2472.921	3955
2474.881	3935
2476.841	3914
2478.8	4004
2480.759	3839
2482.717	3876
2484.675	3985
2486.63	3946
2488.589	3850
2490.545	3918
2492.5	3907
2494.455	3908
2496.408	3884
2498.364	3911
2500.318	3911
2502.27	3926
2504.223	3962
2506.174	3892
2508.126	3871
2510.078	3932
2512.03	3930
2513.979	3879
2515.927	3857
2517.877	3902
2519.826	3865
2521.775	3861
2523.722	3830
2525.668	3883
2527.616	3937
2529.561	3872
2531.508	3787
2533.452	3892
2535.398	3912
2537.342	3934
2539.284	3803
2541.229	3864
2543.173	3854
2545.114	3831
2547.055	3972
2548.996	3916
2550.938	3859
2552.878	3876
2554.817	3909
2556.756	3917
2558.695	3910
2560.633	3885
2562.572	3853
2564.509	3865
2566.445	3955
2568.382	3815
2570.317	3915
2572.254	3852
2574.189	3929
2576.123	3871
2578.057	3853
2579.99	3853
2581.923	3814
2583.855	3908
2585.788	3842
2587.719	3887
2589.65	3848
2591.579	3902
2593.511	3824
2595.44	3878
2597.37	3881
2599.297	3890
2601.225	3791
2603.153	3842
2605.08	3945
2607.007	3919
2608.932	3913
2610.858	3830
2612.782	3786
2614.709	3891
2616.632	3888
2618.556	3794
2620.478	3919
2622.401	3806
2624.324	3911
2626.247	3834
2628.167	3975
2630.088	3966
2632.008	3901
2633.928	3905
2635.848	3972
2637.766	3860
2639.684	3914
2641.603	3866
2643.519	3871
2645.437	3975
2647.353	3956
2649.27	3897
2651.184	3904
2653.099	3849
2655.014	3862
2656.928	3939
2658.842	3903
2660.755	3826
2662.667	4011
2664.579	3819
2666.491	3949
2668.402	3906
2670.312	3893
2672.222	3890
2674.132	3910
2676.042	3850
2677.951	3832
2679.859	3823
2681.766	3796
2683.674	3828
2685.582	3888
2687.488	3878
2689.392	3918
2691.298	3900
2693.202	3871
2695.107	3883
2697.012	3908
2698.914	3846
2700.817	3813
2702.72	3807
2704.622	3763
2706.524	3768
2708.425	3771
2710.326	3887
2712.225	3817
2714.125	3871
2716.024	3857
2717.923	3835
2719.822	3873
2721.719	3817
2723.616	3867
2725.512	3864
2727.41	3777
2729.305	3809
2731.201	3776
2733.095	3868
2734.99	3816
2736.884	3811
2738.778	3915
2740.67	3838
2742.562	3882
2744.455	3851
2746.346	3858
2748.238	3815
2750.129	3836
2752.018	3830
2753.907	3910
2755.797	3849
2757.687	3836
2759.575	3774
2761.462	3796
2763.349	3846
2765.237	3857
2767.124	3797
2769.009	3737
2770.894	3705
2772.779	3840
2774.663	3840
2776.547	3812
2778.431	3790
2780.314	3769
2782.197	3815
2784.078	3761
2785.96	3786
2787.842	3781
2789.723	3900
2791.603	3837
2793.483	3845
2795.362	3824
2797.241	3796
2799.121	3745
2800.997	3751
2802.874	3879
2804.751	3783
2806.628	3827
2808.506	3799
2810.38	3758
2812.255	3898
2814.13	3755
2816.003	3853
2817.878	3811
2819.752	3868
2821.623	3824
2823.496	3747
2825.368	3899
2827.238	3813
2829.111	3743
2830.98	3773
2832.851	3818
2834.719	3791
2836.589	3859
2838.458	3785
2840.327	3798
2842.193	3731
2844.061	3819
2845.927	3720
2847.794	3876
2849.66	3824
2851.525	3948
2853.39	3856
2855.254	3898
2857.117	3870
2858.983	3954
2860.845	3845
2862.707	3989
2864.569	3975
2866.431	4070
2868.293	4022
2870.154	4028
2872.013	4024
2873.873	4179
2875.733	4212
2877.592	4282
2879.451	4125
2881.309	4299
2883.166	4245
2885.022	4301
2886.879	4381
2888.736	4268
2890.591	4456
2892.446	4420
2894.301	4342
2896.155	4338
2898.009	4350
2899.863	4466
2901.716	4349
2903.568	4354
2905.419	4326
2907.27	4396
2909.123	4356
2910.973	4393
2912.824	4447
2914.673	4398
2916.521	4392
2918.372	4596
2920.22	4521
2922.067	4539
2923.914	4674
2925.761	4659
2927.607	4763
2929.455	4593
2931.301	4708
2933.144	4819
2934.99	4879
2936.833	4961
2938.678	4961
2940.522	5011
2942.364	5120
2944.207	5166
2946.048	5073
2947.891	5137
2949.731	5093
2951.571	5084
2953.412	5144
2955.25	5088
2957.09	5010
2958.93	4985
2960.767	4926
2962.606	4837
2964.443	4932
2966.279	4790
2968.116	4761
2969.953	4717
2971.788	4567
2973.623	4633
2975.457	4547
2977.292	4497
2979.127	4444
2980.959	4443
2982.792	4456
2984.624	4460
2986.455	4426
2988.288	4396
2990.119	4354
2991.949	4335
2993.779	4309
2995.608	4331
2997.439	4241
2999.268	4185
3001.096	4096
3002.923	4033
3004.751	4042
3006.578	4005
3008.406	4002
3010.232	3989
3012.057	3930
3013.883	3902
3015.706	3969
3017.532	3807
3019.356	3764
3021.179	3888
3023.002	3827
3024.823	3795
3026.646	3718
3028.469	3764
3030.289	3803
3032.11	3732
3033.93	3749
3035.749	3696
3037.57	3707
3039.39	3846
3041.207	3689
3043.026	3680
3044.842	3682
3046.661	3711
3048.477	3664
3050.294	3721
3052.109	3700
3053.925	3629
3055.739	3668
3057.555	3702
3059.368	3637
3061.181	3660
3062.995	3697
3064.807	3750
3066.62	3672
3068.433	3673
3070.243	3666
3072.054	3753
3073.865	3590
3075.675	3728
3077.485	3616
3079.293	3571
3081.102	3634
3082.911	3630
3084.719	3581
3086.527	3629
3088.333	3520
3090.139	3610
3091.945	3599
3093.75	3587
3095.557	3550
3097.361	3498
3099.165	3637
3100.969	3567
3102.772	3543
3104.575	3558
3106.379	3588
3108.181	3525
3109.982	3473
3111.783	3529
3113.584	3569
3115.386	3474
3117.186	3493
3118.985	3495
3120.783	3474
3122.582	3513
3124.381	3537
3126.179	3458
3127.975	3475
3129.772	3586
3131.569	3552
3133.365	3507
3135.161	3512
3136.956	3578
3138.751	3564
3140.544	3494
3142.338	3473
3144.132	3462
3145.925	3519
3147.717	3490
3149.509	3409
3151.301	3402
3153.091	3559
3154.884	3457
3156.673	3472
3158.462	3463
3160.252	3490
3162.041	3408
3163.831	3504
3165.618	3455
3167.405	3409
3169.193	3521
3170.979	3427
3172.767	3409
3174.553	3494
3176.338	3459
3178.123	3461
3179.907	3460
3181.692	3492
3183.477	3430
3185.259	3418
3187.042	3454
3188.824	3453
3190.607	3445
3192.389	3457
3194.17	3409
3195.951	3465
3197.73	3400
3199.51	3463
3201.289	3508
3203.07	3538
3204.848	3486
3206.626	3328
3208.403	3467
3210.18	3468
3211.959	3500
3213.735	3364
3215.511	3396
3217.285	3369
3219.06	3522
3220.836	3505
3222.611	3420
3224.384	3403
3226.158	3466
3227.929	3404
3229.702	3472
3231.476	3464
3233.248	3466
3235.018	3423
3236.789	3443
3238.56	3524
3240.33	3389
3242.1	3541
3243.869	3415
3245.637	3498
3247.405	3487
3249.172	3523
3250.941	3455
3252.707	3486
3254.474	3470
3256.24	3474
3258.006	3481
3259.772	3433
3261.537	3443
3263.301	3428
3265.065	3575
3266.828	3381
3268.592	3475
3270.355	3529
3272.117	3468
3273.878	3460
3275.64	3372
3277.401	3469
3279.162	3378
3280.922	3443
3282.682	3561
3284.441	3469
3286.199	3555
3287.959	3485
3289.716	3447
3291.475	3464
3293.232	3549
3294.988	3464
3296.744	3472
3298.501	3435
3300.256	3455
3302.011	3503
3303.766	3501
3305.52	3410
3307.275	3410
3309.028	3491
3310.781	3549
3312.533	3495
3314.285	3531
3316.038	3458
3317.789	3434
3319.54	3396
3321.289	3515
3323.039	3512
3324.789	3467
3326.539	3502
3328.288	3469
3330.035	3524
3331.783	3463
3333.531	3473
3335.28	3488
3337.025	3446
3338.771	3412
3340.518	3552
3342.262	3438
3344.009	3479
3345.753	3450
3347.497	3424
3349.24	3429
3350.983	3471
3352.726	3413
3354.469	3466
3356.212	3415
3357.952	3493
3359.694	3528
3361.434	3456
3363.176	3379
3364.916	3399
3366.654	3387
3368.394	3305
3370.132	3360
3371.871	3302
3373.61	3369
3375.346	3430
3377.083	3472
3378.82	3431
3380.556	3364
3382.292	3359
3384.027	3410
3385.763	3289
3387.497	3345
3389.231	3406
3390.965	3370
3392.698	3384
3394.431	3323
3396.164	3337
3397.896	3389
3399.627	3304
3401.36	3298
3403.09	3296
3404.82	3405
3406.55	3344
3408.279	3317
3410.01	3346
3411.738	3311
3413.467	3290
3415.194	3314
3416.92	3296
3418.647	3300
3420.375	3274
3422.102	3322
3423.827	3368
3425.553	3325
3427.277	3257
3429.003	3236
3430.727	3306
3432.451	3234
3434.173	3205
3435.896	3363
3437.62	3225
3439.343	3232
3441.063	3225
3442.785	3327
3444.505	3278
3446.226	3244
3447.948	3293
3449.666	3279
3451.386	3208
3453.104	3284
3454.823	3236
3456.541	3243
3458.259	3182
3459.976	3190
3461.693	3245
3463.408	3202
3465.125	3218
3466.841	3260
3468.556	3225
3470.271	3154
3471.985	3100
3473.698	3161
3475.414	3158
3477.126	3169
3478.838	3110
3480.55	3158
3482.263	3140
3483.975	3065
3485.686	3128
3487.396	3170
3489.106	3134
3490.817	3139
3492.526	3122
3494.236	3150
3495.944	3102
3497.652	3098
3499.359	3060
3501.066	3063
3502.775	3103
3504.481	3152
3506.187	3115
3507.893	3143
3509.598	3014
3511.304	3085
3513.009	3089
3514.713	3053
3516.417	3072
3518.12	3129
3519.821	3034
3521.525	3051
3523.228	2981
3524.929	3059
3526.631	2963
3528.33	3059
3530.032	3015
3531.733	3069
3533.433	3178
3535.131	3006
3536.83	2997
3538.529	3044
3540.227	3022
3541.925	3069
3543.623	3011
3545.319	3055
3547.016	3009
3548.712	3040
3550.408	2933
3552.103	2967
3553.798	2996
3555.491	2910
3557.188	3021
3558.88	3010
3560.574	2979
3562.266	2901
3563.959	2965
3565.651	2968
3567.343	2989
3569.035	2945
3570.725	2949
3572.415	2860
3574.106	2945
3575.797	2920
3577.485	2965
3579.174	2919
3580.863	2942
3582.551	2879
3584.238	2916
3585.926	2946
3587.613	2914
3589.3	2913
3590.986	2934
3592.671	2892
3594.357	2840
3596.042	2813
3597.726	2896
3599.41	2881
3601.094	2845
3602.778	2878
3604.461	2832
3606.143	2860
3607.825	2842
3609.507	2836
3611.188	2923
3612.87	2898
3614.551	2833
3616.229	2773
3617.909	2742
3619.589	2811
3621.269	2790
3622.948	2849
3624.625	2727
3626.302	2799
3627.98	2778
3629.657	2833
3631.334	2824
3633.01	2784
3634.686	2770
3636.361	2666
3638.036	2784
3639.712	2830
3641.385	2746
3643.06	2828
3644.732	2795
3646.405	2718
3648.08	2783
3649.751	2720
3651.424	2783
3653.094	2740
3654.766	2746
3656.436	2701
3658.106	2661
3659.777	2699
3661.446	2693
3663.115	2733
3664.783	2755
3666.452	2697
3668.121	2707
3669.788	2684
3671.454	2699
3673.121	2665
3674.789	2711
3676.455	2633
3678.12	2732
3679.784	2637
3681.45	2702
3683.114	2632
3684.779	2679
3686.442	2669
3688.105	2662
3689.768	2699
3691.43	2671
3693.093	2673
3694.754	2636
3696.415	2656
3698.076	2671
3699.736	2696
3701.396	2626
3703.057	2603
3704.716	2685
3706.375	2615
3708.034	2681
3709.692	2608
3711.351	2667
3713.008	2644
3714.665	2693
3716.321	2649
3717.977	2604
3719.634	2564
3721.29	2573
3722.945	2641
3724.598	2645
3726.253	2618
3727.907	2652
3729.561	2639
3731.214	2622
3732.867	2593
3734.518	2579
3736.171	2646
3737.824	2622
3739.474	2647
3741.125	2636
3742.775	2578
3744.425	2552
3746.074	2637
3747.725	2612
3749.373	2559
3751.022	2536
3752.669	2547
3754.318	2619
3755.966	2522
3757.612	2532
3759.259	2638
3760.905	2646
3762.55	2595
3764.197	2553
3765.842	2583
3767.486	2550
3769.131	2522
3770.774	2543
3772.417	2505
3774.061	2531
3775.705	2532
3777.347	2590
3778.988	2516
3780.629	2577
3782.271	2530
3783.912	2549
3785.552	2525
3787.192	2573
3788.831	2556
3790.472	2553
3792.112	2545
3793.75	2547
3795.388	2482
3797.024	2465
3798.661	2462
3800.3	2505
3801.936	2498
3803.572	2495
3805.208	2439
3806.844	2540
3808.48	2489
3810.115	2494
3811.748	2455
3813.382	2508
3815.016	2500
3816.649	2484
3818.283	2408
3819.914	2506
3821.547	2446
3823.178	2519
3824.809	2452
3826.441	2435
3828.072	2478
3829.701	2439
3831.331	2510
3832.96	2470
3834.591	2436
3836.219	2462
3837.847	2457
3839.475	2438
3841.102	2444
3842.729	2403
3844.357	2450
3845.984	2438
3847.609	2403
3849.234	2360
3850.86	2403
3852.485	2420
3854.11	2428
3855.734	2425
3857.357	2462
3858.981	2403
3860.603	2501
3862.227	2423
3863.848	2460
3865.471	2436
3867.092	2457
3868.713	2420
3870.334	2412
3871.954	2400
3873.575	2366
3875.194	2416
3876.813	2435
3878.433	2347
3880.051	2401
3881.669	2365
3883.286	2370
3884.904	2375
3886.52	2400
3888.138	2379
3889.754	2427
3891.37	2383
3892.985	2452
3894.6	2406
3896.216	2352
3897.831	2353
3899.444	2373
3901.058	2372
3902.67	2375
3904.283	2323
3905.897	2404
3907.509	2423
3909.121	2412
3910.731	2366
3912.342	2402
3913.954	2352
3915.563	2413
3917.174	2447
3918.783	2340
3920.391	2391
3922.002	2417
3923.611	2324
3925.218	2343
3926.826	2412
3928.432	2329
3930.039	2390
3931.647	2292
3933.253	2372
3934.859	2384
3936.464	2363
3938.068	2320
3939.675	2338
3941.278	2392
3942.883	2369
3944.486	2291
3946.089	2323
3947.692	2364
3949.295	2364
3950.898	2420
3952.499	2353
3954.1	2339
3955.7	2303
3957.303	2284
3958.903	2286
3960.502	2348
3962.101	2305
3963.7	2270
3965.301	2302
3966.899	2308
3968.497	2289
3970.094	2381
3971.691	2354
3973.288	2307
3974.885	2305
3976.481	2271
3978.077	2372
3979.672	2274
3981.267	2306
3982.863	2324
3984.457	2259
3986.051	2275
3987.645	2307
3989.238	2269
3990.831	2261
3992.425	2239
3994.017	2241
3995.607	2249
3997.199	2287
3998.79	2201
4000.382	2242
4001.973	2294
4003.561	2281
4005.151	2252
4006.741	2248
4008.331	2254
4009.918	2254
4011.507	2271
4013.095	2189
4014.681	2246
4016.269	2289
4017.856	2244
4019.443	2231
4021.028	2295
4022.614	2240
4024.199	2188
4025.785	2224
4027.37	2177
4028.953	2221
4030.536	2190
4032.12	2229
4033.704	2190
4035.287	2214
4036.869	2208
4038.45	2149
4040.032	2211
4041.613	2199
4043.195	2207
4044.776	2238
4046.356	2179
4047.935	2203
4049.515	2178
4051.095	2179
4052.674	2115
4054.251	2179
4055.829	2228
4057.406	2142
4058.985	2185
4060.562	2206
4062.139	2208
4063.715	2160
4065.29	2174
4066.865	2185
4068.442	2173
4070.016	2211
4071.59	2138
4073.164	2112
4074.738	2154
4076.312	2220
4077.885	2181
4079.458	2182
4081.03	2125
4082.602	2162
4084.173	2174
4085.745	2108
4087.315	2197
4088.886	2190
4090.456	2194
4092.026	2123
4093.596	2172
4095.165	2147
4096.734	2119
4098.301	2127
4099.869	2099
4101.437	2156
4103.006	2157
4104.572	2182
4106.139	2115
4107.704	2138
4109.27	2094
4110.837	2098
4112.401	2143
4113.966	2144
4115.53	2069
4117.094	2126
4118.659	2125
4120.223	2060
4121.785	2055
4123.347	2062
4124.909	2086
4126.471	2087
4128.034	2100
4129.595	2090
4131.155	2027
4132.716	2063
4134.275	1998
4135.836	2097
4137.395	2090
4138.955	2040
4140.513	2089
4142.071	2125
4143.628	2079
4145.188	2125
4146.745	2069
4148.302	2069
4149.858	2067
4151.414	2048
4152.971	2083
4154.526	2094
4156.081	2039
4157.635	2076
4159.189	1984
4160.745	2052
4162.298	2051
4163.852	2030
4165.405	2043
4166.957	2073
4168.51	1977
4170.063	2051
4171.614	2044
4173.166	2054
4174.717	2047
4176.267	2017
4177.817	2016
4179.368	2061
4180.917	2043
4182.466	2012
4184.016	2041
4185.564	2005
4187.112	2011
4188.66	2039
4190.207	2048
4191.754	1973
4193.301	2010
4194.848	2013
4196.394	2004
4197.94	2027
4199.484	1987
4201.03	2001
4202.575	1987
4204.12	1935
4205.663	2027
4207.207	1944
4208.75	2012
4210.292	1999
4211.836	2005
4213.378	2010
4214.92	1958
4216.46	1986
4218.002	1978
4219.544	1980
4221.083	1949
4222.625	1974
4224.164	1918
4225.703	1940
4227.244	1918
4228.782	1932
4230.32	1994
4231.857	1972
4233.395	1939
4234.933	1964
4236.471	1997
4238.007	1961
4239.542	1965
4241.078	1941
4242.614	1911
4244.15	1953
4245.685	1983
4247.219	1931
4248.753	1971
4250.287	1923
4251.82	1924
4253.354	1919
4254.887	1907
4256.419	1966
4257.951	1951
4259.483	1914
4261.016	1919
4262.547	1936
4264.078	1906
4265.608	1924
4267.137	1966
4268.668	1927
4270.197	1934
4271.727	1946
4273.254	1944
4274.783	1957
4276.311	1861
4277.84	1928
4279.366	1926
4280.894	1869
4282.42	1971
4283.946	1924
4285.473	1879
4286.998	1906
4288.523	1916
4290.047	1939
4291.572	1891
4293.096	1895
4294.622	1861
4296.144	1892
4297.668	1934
4299.19	1896
4300.713	1910
4302.236	1880
4303.758	1889
4305.279	1895
4306.799	1880
4308.321	1896
4309.842	1892
4311.361	1871
4312.882	1888
4314.401	1873
