400.0961	3863
402.6185	3960
405.1424	3869
407.6635	3891
410.1838	3870
412.7035	3871
415.2225	4000
417.7388	4008
420.2585	3963
422.7754	4006
425.2917	4105
427.8072	4132
430.3221	4177
432.8363	4126
435.3498	4109
437.8626	4102
440.3727	4159
442.8841	4211
445.3969	4164
447.907	4096
450.4142	4170
452.9229	4152
455.4289	4131
457.9362	4177
460.4449	4096
462.9488	4173
465.454	4073
467.9566	4107
470.4604	4087
472.9637	4126
475.4662	4206
477.966	4111
480.4671	4233
482.9656	4166
485.4633	4284
487.9645	4285
490.4608	4208
492.9566	4211
495.4536	4149
497.948	4196
500.4437	4238
502.9387	4215
505.431	4211
507.9226	4233
510.4136	4381
512.9079	4399
515.3975	4266
517.8864	4308
520.3746	4352
522.8622	4203
525.3491	4298
527.8394	4329
530.3249	4246
532.8098	4335
535.2939	4332
537.7774	4341
540.2623	4378
542.7444	4328
545.2259	4286
547.7067	4268
550.1868	4313
552.6683	4362
555.147	4399
557.6231	4341
560.1005	4363
562.5773	4445
565.0534	4391
567.5308	4386
570.0056	4387
572.4776	4376
574.951	4478
577.4237	4511
579.8978	4466
582.3671	4506
584.8378	4473
587.3079	4527
589.7773	4530
592.244	4563
594.714	4507
597.1793	4468
599.6461	4595
602.1121	4447
604.5754	4456
607.0421	4389
609.5042	4414
611.9675	4369
614.4282	4505
616.8902	4423
619.3515	4363
621.8122	4384
624.2702	4405
626.7296	4430
629.1863	4385
631.6423	4435
634.1017	4446
636.5563	4400
639.0104	4496
641.4658	4454
643.9185	4474
646.3725	4448
648.8239	4475
651.2766	4513
653.7266	4564
656.176	4475
658.6247	4542
661.0748	4503
663.5242	4517
665.9709	4510
668.417	4552
670.8624	4624
673.3092	4573
675.7533	4562
678.1968	4595
680.6395	4576
683.0817	4639
685.5251	4686
687.9659	4591
690.4061	4716
692.8456	4632
695.2844	4489
697.7226	4574
700.1621	4706
702.599	4606
705.0332	4638
707.4688	4713
709.9036	4663
712.3399	4683
714.7735	4650
717.2044	4690
719.6367	4713
722.0683	4603
724.4993	4666
726.9296	4755
729.3593	4720
731.7883	4764
734.2147	4715
736.6423	4764
739.0714	4757
741.4958	4775
743.9216	4810
746.3447	4714
748.7691	4827
751.1929	4857
753.616	4841
756.0366	4892
758.4584	4813
760.8776	4877
763.2982	4920
765.718	4872
768.1373	4888
770.5539	4793
772.9698	4949
775.3871	4896
777.8038	4971
780.2178	4910
782.6332	5054
785.0459	4816
787.458	4905
789.8714	4926
792.2842	4905
794.6943	5007
797.1038	4929
799.5127	4929
801.9209	4949
804.3324	5005
806.7393	4936
809.1456	4865
811.5513	5053
813.9562	5017
816.3625	4953
818.7663	5038
821.1693	4998
823.5718	4993
825.9735	5059
828.3746	4916
830.7771	5062
833.177	4933
835.5762	4959
837.9747	5057
840.3727	5086
842.772	5039
845.1666	4960
847.5626	5083
849.958	5085
852.3527	5069
854.7488	5037
857.1403	5062
859.5331	5100
861.9253	5129
864.3168	5112
866.7057	5031
869.098	5109
871.4876	5096
873.8746	5026
876.263	5113
878.6487	5043
881.0378	5136
883.4243	5065
885.8081	5135
888.1933	4979
890.5759	5040
892.9598	5094
895.343	5062
897.7256	5028
900.1057	5096
902.4871	5085
904.8659	5144
907.246	5090
909.6254	5187
912.0023	5146
914.3786	5141
916.7562	5134
919.1331	5244
921.5074	5225
923.8831	5333
926.2562	5433
928.6287	5306
931.0005	5335
933.3757	5311
935.7462	5372
938.1162	5393
940.4855	5462
942.8542	5440
945.2242	5549
947.5916	5638
949.9584	5806
952.3266	5944
954.6921	6079
957.0571	6321
959.4233	6610
961.787	6595
964.15	6569
966.5125	6489
968.8742	6093
971.2354	6046
973.5959	5654
975.9559	5509
978.3151	5528
980.6738	5306
983.0338	5362
985.3912	5251
987.7461	5279
990.1022	5262
992.4578	5237
994.8127	5256
997.1689	5302
999.5207	5358
1001.874	5370
1004.226	5367
1006.576	5384
1008.929	5341
1011.28	5249
1013.628	5389
1015.977	5325
1018.324	5299
1020.674	5281
1023.019	5410
1025.366	5243
1027.713	5440
1030.056	5361
1032.399	5375
1034.746	5381
1037.087	5437
1039.431	5469
1041.771	5505
1044.113	5352
1046.454	5430
1048.793	5444
1051.133	5414
1053.471	5342
1055.807	5367
1058.146	5433
1060.483	5428
1062.818	5468
1065.153	5596
1067.489	5422
1069.822	5509
1072.156	5531
1074.488	5614
1076.82	5469
1079.15	5522
1081.48	5538
1083.814	5517
1086.143	5397
1088.471	5415
1090.799	5494
1093.126	5383
1095.452	5381
1097.78	5331
1100.105	5375
1102.43	5334
1104.754	5352
1107.077	5433
1109.4	5512
1111.722	5486
1114.044	5481
1116.365	5328
1118.685	5360
1121.005	5420
1123.324	5453
1125.643	5424
1127.961	5468
1130.278	5455
1132.595	5484
1134.911	5450
1137.226	5388
1139.541	5335
1141.854	5471
1144.167	5409
1146.482	5377
1148.793	5497
1151.105	5509
1153.414	5491
1155.725	5460
1158.033	5509
1160.344	5435
1162.651	5512
1164.959	5465
1167.265	5472
1169.572	5586
1171.878	5489
1174.184	5418
1176.488	5403
1178.79	5422
1181.094	5430
1183.396	5373
1185.699	5362
1188.001	5466
1190.301	5431
1192.6	5486
1194.9	5491
1197.2	5412
1199.497	5552
1201.794	5448
1204.09	5489
1206.387	5456
1208.684	5484
1210.978	5453
1213.272	5431
1215.565	5465
1217.858	5365
1220.15	5495
1222.443	5457
1224.734	5464
1227.024	5461
1229.313	5558
1231.602	5605
1233.892	5444
1236.18	5575
1238.467	5685
1240.754	5610
1243.04	5670
1245.325	5679
1247.612	5609
1249.896	5708
1252.178	5748
1254.461	5689
1256.743	5655
1259.027	5568
1261.308	5654
1263.587	5684
1265.867	5622
1268.146	5650
1270.425	5684
1272.703	5696
1274.981	5729
1277.256	5668
1279.532	5714
1281.808	5618
1284.083	5661
1286.358	5779
1288.63	5641
1290.904	5591
1293.175	5493
1295.449	5584
1297.719	5543
1299.99	5644
1302.259	5646
1304.529	5638
1306.798	5588
1309.065	5594
1311.333	5662
1313.599	5616
1315.866	5569
1318.131	5641
1320.396	5573
1322.66	5593
1324.925	5559
1327.187	5615
1329.448	5585
1331.711	5634
1333.974	5668
1336.234	5548
1338.493	5593
1340.752	5695
1343.01	5538
1345.269	5648
1347.526	5618
1349.784	5520
1352.04	5554
1354.295	5578
1356.552	5526
1358.806	5626
1361.059	5641
1363.312	5533
1365.564	5538
1367.818	5620
1370.069	5620
1372.318	5616
1374.568	5621
1376.817	5733
1379.066	5746
1381.316	5742
1383.564	5718
1385.809	5656
1388.056	5677
1390.301	5679
1392.549	5755
1394.793	5736
1397.036	5733
1399.279	5659
1401.522	5783
1403.763	5730
1406.007	5723
1408.248	5753
1410.487	5632
1412.727	5734
1414.965	5673
1417.205	5839
1419.442	5890
1421.68	5825
1423.915	5884
1426.152	5736
1428.388	5693
1430.623	5752
1432.857	5783
1435.091	5815
1437.323	5867
1439.556	5843
1441.789	5894
1444.019	5807
1446.25	5857
1448.48	5853
1450.708	5864
1452.938	6001
1455.167	5955
1457.394	5947
1459.62	5864
1461.846	5905
1464.073	5903
1466.299	5813
1468.523	5866
1470.746	5732
1472.969	5846
1475.191	5750
1477.415	5792
1479.636	5812
1481.858	5779
1484.078	5795
1486.298	5695
1488.518	5662
1490.736	5582
1492.954	5677
1495.169	5566
1497.386	5723
1499.602	5802
1501.819	5620
1504.034	5706
1506.248	5657
1508.462	5678
1510.675	5567
1512.888	5601
1515.1	5646
1517.311	5647
1519.522	5652
1521.732	5589
1523.942	5687
1526.151	5593
1528.36	5647
1530.566	5576
1532.773	5574
1534.98	5705
1537.187	5637
1539.392	5578
1541.596	5616
1543.801	5689
1546.005	5789
1548.208	5589
1550.411	5696
1552.612	5677
1554.814	5732
1557.013	5707
1559.212	5630
1561.414	5626
1563.612	5754
1565.811	5700
1568.007	5752
1570.203	5808
1572.403	5779
1574.598	5764
1576.792	5717
1578.988	5836
1581.181	5675
1583.376	5811
1585.568	5763
1587.761	5882
1589.952	5789
1592.143	5869
1594.333	5938
1596.524	5716
1598.715	5872
1600.903	5896
1603.091	5822
1605.278	5889
1607.466	5794
1609.652	5879
1611.838	5944
1614.023	5894
1616.207	5770
1618.391	5841
1620.576	5865
1622.759	5858
1624.941	5900
1627.123	5859
1629.304	5915
1631.484	5790
1633.664	5939
1635.844	5916
1638.022	5897
1640.201	5879
1642.38	5867
1644.556	5875
1646.732	5871
1648.908	5917
1651.084	6030
1653.257	5900
1655.433	5916
1657.607	5918
1659.779	6050
1661.951	5950
1664.122	5951
1666.295	5945
1668.467	5963
1670.635	6011
1672.805	6093
1674.973	6052
1677.142	5950
1679.31	5869
1681.478	5922
1683.644	6022
1685.81	5899
1687.975	5921
1690.142	5915
1692.305	5946
1694.468	5939
1696.632	5867
1698.794	5897
1700.957	5888
1703.119	5900
1705.279	5889
1707.439	5872
1709.598	5867
1711.758	5811
1713.917	5834
1716.075	5834
1718.231	5879
1720.388	5719
1722.543	5887
1724.702	5786
1726.856	5826
1729.01	5944
1731.164	5896
1733.317	5764
1735.471	5762
1737.623	5837
1739.774	5877
1741.925	5881
1744.075	5902
1746.225	5770
1748.376	5900
1750.524	5780
1752.672	5782
1754.82	5900
1756.965	5903
1759.113	5836
1761.259	5847
1763.405	5851
1765.549	5958
1767.694	5857
1769.836	5833
1771.981	5877
1774.123	5854
1776.264	5902
1778.405	5905
1780.546	5846
1782.687	5861
1784.827	5938
1786.966	5832
1789.103	5910
1791.242	5835
1793.381	5898
1795.517	5946
1797.653	5937
1799.788	5874
1801.923	5883
1804.057	5887
1806.193	5846
1808.326	5768
1810.457	5877
1812.59	5896
1814.721	5923
1816.855	5893
1818.984	5910
1821.113	5925
1823.244	5984
1825.372	5946
1827.499	5803
1829.63	5961
1831.756	5794
1833.882	5846
1836.007	5902
1838.132	5837
1840.26	5918
1842.384	5857
1844.507	5789
1846.63	5835
1848.752	5778
1850.875	5759
1852.996	5879
1855.118	5821
1857.238	5753
1859.358	5666
1861.477	5806
1863.597	5782
1865.715	5833
1867.832	5826
1869.948	5795
1872.064	5810
1874.181	5864
1876.297	5812
1878.411	5817
1880.526	5772
1882.639	5723
1884.752	5698
1886.865	5802
1888.977	5741
1891.089	5798
1893.2	5919
1895.308	5898
1897.42	5832
1899.53	5900
1901.639	5846
1903.745	5940
1905.853	5886
1907.962	5763
1910.067	5875
1912.174	5980
1914.278	5926
1916.383	5896
1918.486	5839
1920.592	5834
1922.694	5926
1924.797	5906
1926.898	5950
1929	6021
1931.102	5891
1933.203	5964
1935.301	5916
1937.401	5978
1939.499	5793
1941.598	5961
1943.697	5942
1945.793	5868
1947.888	5929
1949.985	5979
1952.08	5897
1954.176	5994
1956.269	5981
1958.364	5910
1960.457	5883
1962.549	5883
1964.642	5927
1966.733	5919
1968.823	6029
1970.913	5836
1973.005	5919
1975.093	5786
1977.184	5862
1979.271	5888
1981.359	5830
1983.446	5889
1985.532	5857
1987.619	5899
1989.705	5841
1991.789	5773
1993.874	5909
1995.956	5823
1998.041	5894
2000.123	5918
2002.206	5943
2004.287	5975
2006.368	5752
2008.449	5774
2010.529	5771
2012.609	5868
2014.688	5886
2016.766	5765
2018.843	5895
2020.922	5960
2022.999	5869
2025.074	5870
2027.15	5963
2029.225	5865
2031.299	5835
2033.375	5846
2035.447	5948
2037.52	5713
2039.592	5840
2041.664	5818
2043.736	5766
2045.807	5825
2047.876	5860
2049.947	5952
2052.015	5772
2054.086	5809
2056.153	5890
2058.221	5923
2060.288	5894
2062.353	5922
2064.42	5840
2066.486	5835
2068.55	5905
2070.614	5893
2072.678	5889
2074.741	5804
2076.805	5827
2078.866	5925
2080.929	5893
2082.99	5878
2085.049	5856
2087.109	5901
2089.17	5821
2091.228	5911
2093.286	5805
2095.344	5860
2097.4	5883
2099.46	5771
2101.516	5871
2103.572	5834
2105.626	5889
2107.679	5757
2109.735	5844
2111.788	5899
2113.841	5906
2115.894	5870
2117.945	5901
2119.997	5829
2122.049	5805
2124.1	5800
2126.148	5851
2128.197	5851
2130.246	5793
2132.296	5820
2134.342	5943
2136.39	5797
2138.437	5838
2140.483	5820
2142.527	5854
2144.574	5769
2146.619	5747
2148.661	5839
2150.705	5818
2152.747	5803
2154.792	5843
2156.832	5818
2158.874	5803
2160.915	5827
2162.954	5813
2164.995	5720
2167.034	5755
2169.072	5773
2171.111	5698
2173.148	5739
2175.186	5847
2177.223	5790
2179.258	5666
2181.294	5826
2183.328	5755
2185.362	5763
2187.398	5596
2189.431	5744
2191.463	5700
2193.495	5630
2195.528	5705
2197.56	5689
2199.59	5635
2201.62	5686
2203.649	5725
2205.678	5723
2207.708	5693
2209.737	5719
2211.764	5692
2213.791	5621
2215.817	5675
2217.843	5619
2219.87	5658
2221.895	5690
2223.919	5646
2225.942	5647
2227.966	5636
2229.988	5669
2232.012	5614
2234.032	5714
2236.054	5622
2238.074	5665
2240.095	5611
2242.116	5581
2244.135	5762
2246.153	5720
2248.171	5653
2250.188	5708
2252.208	5611
2254.223	5584
2256.239	5624
2258.255	5733
2260.269	5586
2262.283	5588
2264.3	5607
2266.312	5670
2268.325	5667
2270.336	5667
2272.349	5624
2274.362	5710
2276.372	5603
2278.383	5767
2280.392	5660
2282.402	5672
2284.409	5668
2286.418	5704
2288.427	5671
2290.433	5634
2292.441	5666
2294.446	5663
2296.453	5534
2298.459	5616
2300.463	5655
2302.466	5606
2304.471	5648
2306.475	5628
2308.477	5592
2310.478	5595
2312.481	5755
2314.481	5579
2316.481	5568
2318.482	5581
2320.482	5553
2322.48	5549
2324.48	5622
2326.478	5638
2328.476	5731
2330.473	5648
2332.469	5714
2334.465	5657
2336.46	5551
2338.454	5621
2340.45	5550
2342.444	5505
2344.437	5666
2346.43	5557
2348.421	5593
2350.414	5545
2352.405	5529
2354.396	5440
2356.386	5545
2358.376	5613
2360.366	5561
2362.355	5475
2364.343	5606
2366.331	5484
2368.317	5631
2370.304	5575
2372.292	5491
2374.278	5579
2376.262	5524
2378.247	5464
2380.23	5565
2382.216	5538
2384.199	5461
2386.181	5400
2388.163	5536
2390.144	5422
2392.127	5485
2394.107	5395
2396.087	5412
2398.066	5492
2400.046	5434
2402.023	5599
2404.004	5418
2405.981	5481
2407.957	5423
2409.934	5456
2411.91	5477
2413.886	5429
2415.862	5457
2417.836	5427
2419.809	5378
2421.784	5457
2423.756	5351
2425.73	5457
2427.701	5371
2429.672	5514
2431.644	5412
2433.615	5368
2435.586	5389
2437.555	5489
2439.523	5421
2441.491	5480
2443.459	5415
2445.428	5537
2447.395	5415
2449.361	5512
2451.327	5506
2453.292	5443
2455.257	5401
2457.223	5477
2459.187	5343
2461.15	5436
2463.113	5346
2465.076	5301
2467.039	5457
2468.999	5430
2470.96	5350
2472.921	5423
2474.881	5484
2476.841	5415
2478.8	5388
2480.759	5366
2482.717	5323
2484.675	5436
2486.63	5348
2488.589	5391
2490.545	5312
2492.5	5423
2494.455	5384
2496.408	5343
2498.364	5295
2500.318	5366
2502.27	5341
2504.223	5251
2506.174	5280
2508.126	5348
2510.078	5406
2512.03	5332
2513.979	5383
2515.927	5361
2517.877	5374
2519.826	5329
2521.775	5356
2523.722	5278
2525.668	5474
2527.616	5271
2529.561	5460
2531.508	5241
2533.452	5354
2535.398	5391
2537.342	5279
2539.284	5401
2541.229	5336
2543.173	5272
2545.114	5216
2547.055	5364
2548.996	5296
2550.938	5336
2552.878	5324
2554.817	5291
2556.756	5340
2558.695	5238
2560.633	5296
2562.572	5296
2564.509	5295
2566.445	5319
2568.382	5233
2570.317	5284
2572.254	5366
2574.189	5267
2576.123	5237
2578.057	5304
2579.99	5399
2581.923	5219
2583.855	5386
2585.788	5382
2587.719	5239
2589.65	5246
2591.579	5269
2593.511	5295
2595.44	5296
2597.37	5295
2599.297	5340
2601.225	5355
2603.153	5315
2605.08	5284
2607.007	5276
2608.932	5262
2610.858	5304
2612.782	5295
2614.709	5179
2616.632	5376
2618.556	5324
2620.478	5237
2622.401	5316
2624.324	5283
2626.247	5317
2628.167	5188
2630.088	5175
2632.008	5320
2633.928	5492
2635.848	5236
2637.766	5256
2639.684	5239
2641.603	5262
2643.519	5222
2645.437	5319
2647.353	5305
2649.27	5352
2651.184	5300
2653.099	5261
2655.014	5290
2656.928	5295
2658.842	5290
2660.755	5312
2662.667	5224
2664.579	5230
2666.491	5273
2668.402	5323
2670.312	5246
2672.222	5200
2674.132	5186
2676.042	5163
2677.951	5344
2679.859	5259
2681.766	5166
2683.674	5290
2685.582	5245
2687.488	5316
2689.392	5223
2691.298	5280
2693.202	5202
2695.107	5115
2697.012	5216
2698.914	5255
2700.817	5179
2702.72	5260
2704.622	5155
2706.524	5244
2708.425	5194
2710.326	5160
2712.225	5253
2714.125	5204
2716.024	5199
2717.923	5142
2719.822	5320
2721.719	5207
2723.616	5180
2725.512	5175
2727.41	5098
2729.305	5212
2731.201	5202
2733.095	5122
2734.99	5106
2736.884	5111
2738.778	5169
2740.67	5244
2742.562	5103
2744.455	5270
2746.346	5199
2748.238	5164
2750.129	5108
2752.018	5178
2753.907	5150
2755.797	5126
2757.687	5269
2759.575	5079
2761.462	5221
2763.349	5134
2765.237	5101
2767.124	5103
2769.009	5174
2770.894	5164
2772.779	5116
2774.663	5173
2776.547	5145
2778.431	5023
2780.314	5097
2782.197	5079
2784.078	5084
2785.96	5047
2787.842	5165
2789.723	5108
2791.603	5256
2793.483	5137
2795.362	5132
2797.241	5079
2799.121	5045
2800.997	5129
2802.874	5034
2804.751	5046
2806.628	5073
2808.506	5075
2810.38	5179
2812.255	5016
2814.13	5066
2816.003	5066
2817.878	4982
2819.752	5170
2821.623	5053
2823.496	5080
2825.368	5030
2827.238	5086
2829.111	4994
2830.98	5091
2832.851	5158
2834.719	5193
2836.589	5098
2838.458	5125
2840.327	5017
2842.193	5045
2844.061	5111
2845.927	5120
2847.794	5096
2849.66	5035
2851.525	5173
2853.39	5091
2855.254	5081
2857.117	5072
2858.983	5216
2860.845	5178
2862.707	5127
2864.569	5128
2866.431	5163
2868.293	5201
2870.154	5211
2872.013	5269
2873.873	5231
2875.733	5297
2877.592	5360
2879.451	5452
2881.309	5314
2883.166	5461
2885.022	5367
2886.879	5393
2888.736	5363
2890.591	5557
2892.446	5469
2894.301	5334
2896.155	5492
2898.009	5467
2899.863	5428
2901.716	5392
2903.568	5385
2905.419	5367
2907.27	5386
2909.123	5310
2910.973	5364
2912.824	5451
2914.673	5467
2916.521	5483
2918.372	5651
2920.22	5495
2922.067	5608
2923.914	5613
2925.761	5534
2927.607	5649
2929.455	5612
2931.301	5747
2933.144	5807
2934.99	5822
2936.833	5872
2938.678	5800
2940.522	5896
2942.364	5965
2944.207	5919
2946.048	6004
2947.891	6003
2949.731	6019
2951.571	6036
2953.412	5912
2955.25	5917
2957.09	5885
2958.93	5825
2960.767	5798
2962.606	5770
2964.443	5621
2966.279	5782
2968.116	5615
2969.953	5709
2971.788	5623
2973.623	5581
2975.457	5480
2977.292	5513
2979.127	5464
2980.959	5485
2982.792	5331
2984.624	5392
2986.455	5460
2988.288	5352
2990.119	5421
2991.949	5356
2993.779	5378
2995.608	5265
2997.439	5282
2999.268	5274
3001.096	5235
3002.923	5212
3004.751	5146
3006.578	5130
3008.406	5106
3010.232	5076
3012.057	5126
3013.883	4908
3015.706	4943
3017.532	4942
3019.356	4893
3021.179	4938
3023.002	4796
3024.823	4761
3026.646	4934
3028.469	4890
3030.289	4883
3032.11	4787
3033.93	4828
3035.749	4786
3037.57	4835
3039.39	4802
3041.207	4772
3043.026	4737
3044.842	4804
3046.661	4678
3048.477	4739
3050.294	4739
3052.109	4749
3053.925	4802
3055.739	4780
3057.555	4802
3059.368	4736
3061.181	4741
3062.995	4691
3064.807	4760
3066.62	4725
3068.433	4777
3070.243	4666
3072.054	4695
3073.865	4686
3075.675	4735
3077.485	4711
3079.293	4661
3081.102	4705
3082.911	4699
3084.719	4661
3086.527	4763
3088.333	4730
3090.139	4681
3091.945	4571
3093.75	4691
3095.557	4529
3097.361	4624
3099.165	4682
3100.969	4636
3102.772	4596
3104.575	4612
3106.379	4623
3108.181	4586
3109.982	4599
3111.783	4662
3113.584	4618
3115.386	4512
3117.186	4552
3118.985	4587
3120.783	4575
3122.582	4544
3124.381	4542
3126.179	4448
3127.975	4600
3129.772	4597
3131.569	4558
3133.365	4540
3135.161	4455
3136.956	4585
3138.751	4598
3140.544	4464
3142.338	4539
3144.132	4537
3145.925	4503
3147.717	4523
3149.509	4550
3151.301	4564
3153.091	4457
3154.884	4469
3156.673	4467
3158.462	4581
3160.252	4472
3162.041	4552
3163.831	4483
3165.618	4510
3167.405	4426
3169.193	4413
3170.979	4392
3172.767	4457
3174.553	4495
3176.338	4400
3178.123	4447
3179.907	4469
3181.692	4451
3183.477	4480
3185.259	4441
3187.042	4426
3188.824	4474
3190.607	4372
3192.389	4515
3194.17	4369
3195.951	4404
3197.73	4487
3199.51	4446
3201.289	4397
3203.07	4468
3204.848	4441
3206.626	4503
3208.403	4586
3210.18	4434
3211.959	4467
3213.735	4491
3215.511	4473
3217.285	4402
3219.06	4400
3220.836	4309
3222.611	4426
3224.384	4366
3226.158	4369
3227.929	4427
3229.702	4424
3231.476	4436
3233.248	4323
3235.018	4408
3236.789	4386
3238.56	4359
3240.33	4426
3242.1	4414
3243.869	4370
3245.637	4454
3247.405	4335
3249.172	4384
3250.941	4364
3252.707	4346
3254.474	4344
3256.24	4350
3258.006	4377
3259.772	4355
3261.537	4376
3263.301	4498
3265.065	4292
3266.828	4353
3268.592	4365
3270.355	4364
3272.117	4423
3273.878	4286
3275.64	4375
3277.401	4390
3279.162	4373
3280.922	4438
3282.682	4320
3284.441	4355
3286.199	4370
3287.959	4378
3289.716	4365
3291.475	4459
3293.232	4453
3294.988	4432
3296.744	4336
3298.501	4381
3300.256	4362
3302.011	4410
3303.766	4353
3305.52	4401
3307.275	4321
3309.028	4273
3310.781	4341
3312.533	4380
3314.285	4381
3316.038	4433
3317.789	4349
3319.54	4324
3321.289	4310
3323.039	4412
3324.789	4449
3326.539	4312
3328.288	4256
3330.035	4347
3331.783	4279
3333.531	4334
3335.28	4275
3337.025	4321
3338.771	4332
3340.518	4306
3342.262	4351
3344.009	4249
3345.753	4213
3347.497	4320
3349.24	4343
3350.983	4266
3352.726	4273
3354.469	4258
3356.212	4250
3357.952	4288
3359.694	4228
3361.434	4199
3363.176	4212
3364.916	4324
3366.654	4119
3368.394	4263
3370.132	4225
3371.871	4202
3373.61	4257
3375.346	4236
3377.083	4158
3378.82	4261
3380.556	4247
3382.292	4218
3384.027	4212
3385.763	4213
3387.497	4219
3389.231	4221
3390.965	4130
3392.698	4245
3394.431	4193
3396.164	4243
3397.896	4184
3399.627	4103
3401.36	4206
3403.09	4192
3404.82	4217
3406.55	4187
3408.279	4180
3410.01	4108
3411.738	4210
3413.467	4206
3415.194	4118
3416.92	4158
3418.647	4210
3420.375	4106
3422.102	4099
3423.827	4119
3425.553	4149
3427.277	4102
3429.003	4161
3430.727	4088
3432.451	4236
3434.173	4087
3435.896	4152
3437.62	4092
3439.343	4039
3441.063	4097
3442.785	4104
3444.505	4034
3446.226	4050
3447.948	4082
3449.666	4081
3451.386	4041
3453.104	4097
3454.823	4107
3456.541	4095
3458.259	4091
3459.976	4066
3461.693	3981
3463.408	4053
3465.125	3919
3466.841	3956
3468.556	4087
3470.271	4002
3471.985	3992
3473.698	3923
3475.414	4039
3477.126	3948
3478.838	3963
3480.55	3918
3482.263	4005
3483.975	3890
3485.686	4027
3487.396	3959
3489.106	3883
3490.817	3971
3492.526	3934
3494.236	3968
3495.944	3867
3497.652	3937
3499.359	3963
3501.066	3835
3502.775	3919
3504.481	3891
3506.187	3944
3507.893	3903
3509.598	3818
3511.304	3822
3513.009	3862
3514.713	3872
3516.417	3789
3518.12	3855
3519.821	3936
3521.525	3772
3523.228	3865
3524.929	3944
3526.631	3814
3528.33	3867
3530.032	3830
3531.733	3874
3533.433	3882
3535.131	3769
3536.83	3833
3538.529	3880
3540.227	3786
3541.925	3775
3543.623	3771
3545.319	3840
3547.016	3790
3548.712	3762
3550.408	3710
3552.103	3829
3553.798	3790
3555.491	3766
3557.188	3747
3558.88	3742
3560.574	3840
3562.266	3780
3563.959	3729
3565.651	3739
3567.343	3708
3569.035	3728
3570.725	3662
3572.415	3723
3574.106	3712
3575.797	3671
3577.485	3787
3579.174	3776
3580.863	3676
3582.551	3770
3584.238	3662
3585.926	3700
3587.613	3687
3589.3	3668
3590.986	3771
3592.671	3698
3594.357	3692
3596.042	3690
3597.726	3624
3599.41	3660
3601.094	3614
3602.778	3723
3604.461	3651
3606.143	3584
3607.825	3716
3609.507	3638
3611.188	3588
3612.87	3628
3614.551	3563
3616.229	3619
3617.909	3552
3619.589	3628
3621.269	3577
3622.948	3600
3624.625	3596
3626.302	3565
3627.98	3571
3629.657	3515
3631.334	3539
3633.01	3497
3634.686	3458
3636.361	3585
3638.036	3527
3639.712	3535
3641.385	3529
3643.06	3483
3644.732	3526
3646.405	3463
3648.08	3421
3649.751	3418
3651.424	3444
3653.094	3467
3654.766	3404
3656.436	3468
3658.106	3447
3659.777	3464
3661.446	3515
3663.115	3440
3664.783	3408
3666.452	3457
3668.121	3461
3669.788	3383
3671.454	3492
3673.121	3412
3674.789	3410
3676.455	3418
3678.12	3440
3679.784	3375
3681.45	3443
3683.114	3398
3684.779	3413
3686.442	3399
3688.105	3440
3689.768	3349
3691.43	3425
3693.093	3354
3694.754	3408
3696.415	3338
3698.076	3398
3699.736	3363
3701.396	3408
3703.057	3410
3704.716	3427
3706.375	3407
3708.034	3404
3709.692	3407
3711.351	3331
3713.008	3395
3714.665	3352
3716.321	3439
3717.977	3324
3719.634	3448
3721.29	3428
3722.945	3426
3724.598	3368
3726.253	3372
3727.907	3326
3729.561	3276
3731.214	3355
3732.867	3274
3734.518	3347
3736.171	3284
3737.824	3318
3739.474	3303
3741.125	3265
3742.775	3385
3744.425	3348
3746.074	3332
3747.725	3379
3749.373	3367
3751.022	3336
3752.669	3331
3754.318	3272
3755.966	3294
3757.612	3303
3759.259	3336
3760.905	3178
3762.55	3373
3764.197	3216
3765.842	3327
3767.486	3310
3769.131	3200
3770.774	3225
3772.417	3212
3774.061	3267
3775.705	3260
3777.347	3334
3778.988	3244
3780.629	3221
3782.271	3220
3783.912	3198
3785.552	3269
3787.192	3233
3788.831	3225
3790.472	3218
3792.112	3306
3793.75	3224
3795.388	3258
3797.024	3195
3798.661	3262
3800.3	3263
3801.936	3185
3803.572	3161
3805.208	3161
3806.844	3218
3808.48	3155
3810.115	3124
3811.748	3253
3813.382	3128
3815.016	3156
3816.649	3142
3818.283	3167
3819.914	3238
3821.547	3160
3823.178	3177
3824.809	3029
3826.441	3222
3828.072	3154
3829.701	3146
3831.331	3142
3832.96	3170
3834.591	3087
3836.219	3139
3837.847	3120
3839.475	3133
3841.102	3129
3842.729	3113
3844.357	3161
3845.984	3071
3847.609	3079
3849.234	3129
3850.86	3102
3852.485	3161
3854.11	3186
3855.734	3127
3857.357	3175
3858.981	3043
3860.603	3102
3862.227	3130
3863.848	3097
3865.471	3061
3867.092	3134
3868.713	3021
3870.334	3082
3871.954	3053
3873.575	3089
3875.194	3071
3876.813	3043
3878.433	2963
3880.051	3076
3881.669	3096
3883.286	3053
3884.904	3078
3886.52	3006
3888.138	3022
3889.754	3046
3891.37	3019
3892.985	2983
3894.6	3006
3896.216	3002
3897.831	3036
3899.444	3029
3901.058	3090
3902.67	3001
3904.283	3056
3905.897	2956
3907.509	3040
3909.121	3023
3910.731	2988
3912.342	2986
3913.954	3014
3915.563	3004
3917.174	3131
3918.783	3036
3920.391	3029
3922.002	2964
3923.611	3029
3925.218	2987
3926.826	3009
3928.432	3029
3930.039	3063
3931.647	3005
3933.253	2984
3934.859	2889
3936.464	2991
3938.068	2991
3939.675	2982
3941.278	2972
3942.883	2932
3944.486	3005
3946.089	2987
3947.692	2959
3949.295	2980
3950.898	2964
3952.499	2974
3954.1	2964
3955.7	2975
3957.303	2885
3958.903	2908
3960.502	2960
3962.101	2936
3963.7	2923
3965.301	3012
3966.899	2964
3968.497	2974
3970.094	2911
3971.691	2924
3973.288	2931
3974.885	2935
3976.481	2948
3978.077	2848
3979.672	2927
3981.267	2877
3982.863	2839
3984.457	2877
3986.051	2919
3987.645	2878
3989.238	2857
3990.831	2847
3992.425	2857
3994.017	2885
3995.607	2885
3997.199	2829
3998.79	2881
4000.382	2838
4001.973	2903
4003.561	2940
4005.151	2756
4006.741	2897
4008.331	2793
4009.918	2806
4011.507	2784
4013.095	2815
4014.681	2761
4016.269	2848
4017.856	2736
4019.443	2805
4021.028	2754
4022.614	2789
4024.199	2775
4025.785	2804
4027.37	2801
4028.953	2800
4030.536	2824
4032.12	2727
4033.704	2765
4035.287	2800
4036.869	2820
4038.45	2762
4040.032	2824
4041.613	2800
4043.195	2773
4044.776	2757
4046.356	2760
4047.935	2731
4049.515	2780
4051.095	2731
4052.674	2796
4054.251	2793
4055.829	2726
4057.406	2726
4058.985	2712
4060.562	2838
4062.139	2725
4063.715	2776
4065.29	2733
4066.865	2666
4068.442	2688
4070.016	2668
4071.59	2692
4073.164	2756
4074.738	2692
4076.312	2737
4077.885	2692
4079.458	2668
4081.03	2735
4082.602	2740
4084.173	2673
4085.745	2740
4087.315	2718
4088.886	2716
4090.456	2704
4092.026	2711
4093.596	2691
4095.165	2696
4096.734	2664
4098.301	2707
4099.869	2723
4101.437	2715
4103.006	2622
4104.572	2624
4106.139	2636
4107.704	2638
4109.27	2658
4110.837	2624
4112.401	2628
4113.966	2612
4115.53	2599
4117.094	2620
4118.659	2606
4120.223	2633
4121.785	2597
4123.347	2615
4124.909	2587
4126.471	2606
4128.034	2630
4129.595	2607
4131.155	2557
4132.716	2638
4134.275	2576
4135.836	2616
4137.395	2569
4138.955	2579
4140.513	2589
4142.071	2632
4143.628	2552
4145.188	2573
4146.745	2593
4148.302	2629
4149.858	2532
4151.414	2522
4152.971	2561
4154.526	2543
4156.081	2554
4157.635	2587
4159.189	2567
4160.745	2540
4162.298	2586
4163.852	2529
4165.405	2503
4166.957	2549
4168.51	2487
4170.063	2569
4171.614	2510
4173.166	2521
4174.717	2495
4176.267	2550
4177.817	2511
4179.368	2453
4180.917	2500
4182.466	2545
4184.016	2585
4185.564	2520
4187.112	2487
4188.66	2474
4190.207	2505
4191.754	2478
4193.301	2525
4194.848	2513
4196.394	2475
4197.94	2499
4199.484	2494
4201.03	2512
4202.575	2463
4204.12	2419
4205.663	2530
4207.207	2392
4208.75	2465
4210.292	2470
4211.836	2510
4213.378	2484
4214.92	2426
4216.46	2450
4218.002	2472
4219.544	2447
4221.083	2446
4222.625	2416
4224.164	2426
4225.703	2452
4227.244	2414
4228.782	2443
4230.32	2450
4231.857	2433
4233.395	2395
4234.933	2438
4236.471	2491
4238.007	2419
4239.542	2396
4241.078	2430
4242.614	2397
4244.15	2422
4245.685	2421
4247.219	2369
4248.753	2428
4250.287	2412
4251.82	2413
4253.354	2380
4254.887	2414
4256.419	2392
4257.951	2390
4259.483	2399
4261.016	2387
4262.547	2345
4264.078	2364
4265.608	2432
4267.137	2361
4268.668	2386
4270.197	2369
4271.727	2344
4273.254	2351
4274.783	2406
4276.311	2377
4277.84	2391
4279.366	2392
4280.894	2341
4282.42	2371
4283.946	2334
4285.473	2391
4286.998	2350
4288.523	2342
4290.047	2349
4291.572	2407
4293.096	2405
4294.622	2345
4296.144	2298
4297.668	2315
4299.19	2342
4300.713	2319
4302.236	2253
4303.758	2324
4305.279	2297
4306.799	2382
4308.321	2303
4309.842	2361
4311.361	2333
4312.882	2330
4314.401	2319
