400.0961	5825
402.6185	5904
405.1424	5913
407.6635	5797
410.1838	5808
412.7035	5881
415.2225	5991
417.7388	5954
420.2585	6023
422.7754	6042
425.2917	6130
427.8072	6131
430.3221	6184
432.8363	6149
435.3498	6186
437.8626	6115
440.3727	6088
442.8841	6284
445.3969	6246
447.907	6242
450.4142	6305
452.9229	6288
455.4289	6302
457.9362	6220
460.4449	6209
462.9488	6157
465.454	6224
467.9566	6309
470.4604	6269
472.9637	6306
475.4662	6332
477.966	6253
480.4671	6181
482.9656	6267
485.4633	6314
487.9645	6319
490.4608	6294
492.9566	6427
495.4536	6351
497.948	6565
500.4437	6412
502.9387	6541
505.431	6455
507.9226	6421
510.4136	6496
512.9079	6410
515.3975	6351
517.8864	6529
520.3746	6425
522.8622	6627
525.3491	6574
527.8394	6595
530.3249	6487
532.8098	6444
535.2939	6484
537.7774	6611
540.2623	6558
542.7444	6454
545.2259	6601
547.7067	6664
550.1868	6503
552.6683	6502
555.147	6540
557.6231	6555
560.1005	6502
562.5773	6632
565.0534	6634
567.5308	6619
570.0056	6612
572.4776	6713
574.951	6595
577.4237	6653
579.8978	6853
582.3671	6817
584.8378	6725
587.3079	6794
589.7773	6758
592.244	6761
594.714	6707
597.1793	6700
599.6461	6780
602.1121	6726
604.5754	6659
607.0421	6745
609.5042	6791
611.9675	6708
614.4282	6719
616.8902	6823
619.3515	6721
621.8122	6835
624.2702	6772
626.7296	6764
629.1863	6687
631.6423	6840
634.1017	6763
636.5563	6715
639.0104	6752
641.4658	6801
643.9185	6766
646.3725	6798
648.8239	6855
651.2766	6821
653.7266	6880
656.176	6825
658.6247	6743
661.0748	6794
663.5242	6784
665.9709	7043
668.417	6998
670.8624	6916
673.3092	7004
675.7533	6908
678.1968	6929
680.6395	6901
683.0817	6986
685.5251	6878
687.9659	6961
690.4061	7052
692.8456	6988
695.2844	7050
697.7226	7079
700.1621	7070
702.599	7103
705.0332	7189
707.4688	7138
709.9036	7014
712.3399	7105
714.7735	7089
717.2044	7031
719.6367	7136
722.0683	7156
724.4993	7230
726.9296	7205
729.3593	7279
731.7883	7203
734.2147	7301
736.6423	7227
739.0714	7319
741.4958	7348
743.9216	7335
746.3447	7357
748.7691	7298
751.1929	7393
753.616	7372
756.0366	7380
758.4584	7394
760.8776	7469
763.2982	7450
765.718	7540
768.1373	7406
770.5539	7446
772.9698	7440
775.3871	7507
777.8038	7552
780.2178	7588
782.6332	7540
785.0459	7615
787.458	7494
789.8714	7699
792.2842	7578
794.6943	7526
797.1038	7696
799.5127	7490
801.9209	7442
804.3324	7548
806.7393	7736
809.1456	7602
811.5513	7667
813.9562	7631
816.3625	7719
818.7663	7684
821.1693	7609
823.5718	7661
825.9735	7659
828.3746	7588
830.7771	7684
833.177	7577
835.5762	7611
837.9747	7642
840.3727	7716
842.772	7627
845.1666	7690
847.5626	7703
849.958	7783
852.3527	7732
854.7488	7800
857.1403	7703
859.5331	7751
861.9253	7671
864.3168	7685
866.7057	7866
869.098	7817
871.4876	7726
873.8746	7743
876.263	7732
878.6487	7754
881.0378	7833
883.4243	7636
885.8081	7630
888.1933	7707
890.5759	7678
892.9598	7808
895.343	7673
897.7256	7832
900.1057	7701
902.4871	7746
904.8659	7697
907.246	7679
909.6254	7837
912.0023	7874
914.3786	7928
916.7562	7927
919.1331	7880
921.5074	8076
923.8831	8135
926.2562	8124
928.6287	8066
931.0005	8037
933.3757	8110
935.7462	8208
938.1162	8107
940.4855	8232
942.8542	8190
945.2242	8256
947.5916	8366
949.9584	8452
952.3266	8773
954.6921	8814
957.0571	9093
959.4233	9368
961.787	9377
964.15	9230
966.5125	9219
968.8742	9038
971.2354	8813
973.5959	8458
975.9559	8319
978.3151	8113
980.6738	8189
983.0338	8075
985.3912	8057
987.7461	8218
990.1022	7954
992.4578	8141
994.8127	7994
997.1689	8069
999.5207	8048
1001.874	8197
1004.226	8111
1006.576	8136
1008.929	8096
1011.28	7976
1013.628	8162
1015.977	7961
1018.324	8099
1020.674	8116
1023.019	8178
1025.366	8112
1027.713	8249
1030.056	8293
1032.399	8098
1034.746	8182
1037.087	8176
1039.431	8225
1041.771	8161
1044.113	8231
1046.454	8343
1048.793	8121
1051.133	8247
1053.471	8327
1055.807	8276
1058.146	8204
1060.483	8211
1062.818	8173
1065.153	8454
1067.489	8284
1069.822	8397
1072.156	8266
1074.488	8285
1076.82	8294
1079.15	8390
1081.48	8359
1083.814	8402
1086.143	8346
1088.471	8268
1090.799	8177
1093.126	8143
1095.452	8334
1097.78	8313
1100.105	8337
1102.43	8345
1104.754	8265
1107.077	8443
1109.4	8363
1111.722	8240
1114.044	8461
1116.365	8289
1118.685	8297
1121.005	8288
1123.324	8254
1125.643	8261
1127.961	8395
1130.278	8452
1132.595	8455
1134.911	8306
1137.226	8339
1139.541	8306
1141.854	8415
1144.167	8346
1146.482	8371
1148.793	8332
1151.105	8453
1153.414	8320
1155.725	8521
1158.033	8398
1160.344	8288
1162.651	8414
1164.959	8265
1167.265	8345
1169.572	8432
1171.878	8359
1174.184	8271
1176.488	8502
1178.79	8395
1181.094	8516
1183.396	8345
1185.699	8364
1188.001	8428
1190.301	8511
1192.6	8467
1194.9	8439
1197.2	8444
1199.497	8551
1201.794	8447
1204.09	8452
1206.387	8419
1208.684	8410
1210.978	8573
1213.272	8450
1215.565	8377
1217.858	8506
1220.15	8479
1222.443	8396
1224.734	8515
1227.024	8554
1229.313	8480
1231.602	8601
1233.892	8654
1236.18	8489
1238.467	8569
1240.754	8715
1243.04	8732
1245.325	8754
1247.612	8597
1249.896	8825
1252.178	8686
1254.461	8794
1256.743	8622
1259.027	8775
1261.308	8745
1263.587	8769
1265.867	8849
1268.146	8745
1270.425	8745
1272.703	8854
1274.981	8636
1277.256	8890
1279.532	8679
1281.808	8606
1284.083	8753
1286.358	8699
1288.63	8835
1290.904	8629
1293.175	8760
1295.449	8639
1297.719	8685
1299.99	8809
1302.259	8629
1304.529	8742
1306.798	8645
1309.065	8659
1311.333	8733
1313.599	8793
1315.866	8682
1318.131	8764
1320.396	8824
1322.66	8666
1324.925	8698
1327.187	8579
1329.448	8581
1331.711	8777
1333.974	8945
1336.234	8601
1338.493	8635
1340.752	8759
1343.01	8696
1345.269	8622
1347.526	8618
1349.784	8793
1352.04	8734
1354.295	8820
1356.552	8706
1358.806	8599
1361.059	8826
1363.312	8712
1365.564	8692
1367.818	8692
1370.069	8755
1372.318	8817
1374.568	8673
1376.817	8735
1379.066	8823
1381.316	8831
1383.564	8797
1385.809	8849
1388.056	8674
1390.301	8756
1392.549	8693
1394.793	8864
1397.036	8937
1399.279	8873
1401.522	9184
1403.763	8900
1406.007	9011
1408.248	8926
1410.487	8955
1412.727	8926
1414.965	8942
1417.205	8890
1419.442	8894
1421.68	8801
1423.915	8931
1426.152	9048
1428.388	8978
1430.623	8928
1432.857	8998
1435.091	9042
1437.323	9094
1439.556	9138
1441.789	9108
1444.019	9059
1446.25	8939
1448.48	9066
1450.708	9167
1452.938	9236
1455.167	9181
1457.394	9225
1459.62	9076
1461.846	9119
1464.073	9092
1466.299	9125
1468.523	9029
1470.746	9106
1472.969	9029
1475.191	8855
1477.415	8863
1479.636	8926
1481.858	8715
1484.078	8958
1486.298	8921
1488.518	8902
1490.736	8931
1492.954	8777
1495.169	8698
1497.386	8749
1499.602	8799
1501.819	8842
1504.034	8862
1506.248	8898
1508.462	8699
1510.675	8898
1512.888	8702
1515.1	8961
1517.311	8806
1519.522	8773
1521.732	8725
1523.942	8756
1526.151	8900
1528.36	8903
1530.566	8745
1532.773	8932
1534.98	8861
1537.187	8704
1539.392	8870
1541.596	8870
1543.801	8781
1546.005	8826
1548.208	8883
1550.411	9118
1552.612	8968
1554.814	9069
1557.013	8790
1559.212	8917
1561.414	8880
1563.612	9018
1565.811	8904
1568.007	8856
1570.203	8989
1572.403	8899
1574.598	9127
1576.792	8954
1578.988	8986
1581.181	9060
1583.376	9081
1585.568	9020
1587.761	9134
1589.952	9052
1592.143	9134
1594.333	9070
1596.524	9090
1598.715	9079
1600.903	9044
1603.091	9013
1605.278	9165
1607.466	9147
1609.652	9084
1611.838	9146
1614.023	9040
1616.207	9155
1618.391	9164
1620.576	9151
1622.759	9174
1624.941	9160
1627.123	9126
1629.304	9118
1631.484	9202
1633.664	9116
1635.844	9285
1638.022	9195
1640.201	9018
1642.38	9128
1644.556	9049
1646.732	9201
1648.908	9032
1651.084	9240
1653.257	9260
1655.433	9221
1657.607	9174
1659.779	9282
1661.951	9150
1664.122	9243
1666.295	9192
1668.467	9249
1670.635	9193
1672.805	9243
1674.973	9208
1677.142	9262
1679.31	9158
1681.478	9224
1683.644	9177
1685.81	9231
1687.975	9196
1690.142	9093
1692.305	9158
1694.468	9122
1696.632	9119
1698.794	9122
1700.957	9081
1703.119	9027
1705.279	9137
1707.439	9141
1709.598	9138
1711.758	8988
1713.917	9208
1716.075	9051
1718.231	9039
1720.388	8999
1722.543	9028
1724.702	9136
1726.856	8983
1729.01	8981
1731.164	8939
1733.317	9030
1735.471	9185
1737.623	9021
1739.774	8957
1741.925	9160
1744.075	8967
1746.225	9086
1748.376	8994
1750.524	9187
1752.672	9111
1754.82	9161
1756.965	9090
1759.113	9072
1761.259	9106
1763.405	9206
1765.549	9130
1767.694	9051
1769.836	9195
1771.981	9058
1774.123	9121
1776.264	9128
1778.405	9193
1780.546	9377
1782.687	9164
1784.827	9174
1786.966	9229
1789.103	8995
1791.242	9198
1793.381	9159
1795.517	9252
1797.653	9120
1799.788	9112
1801.923	9169
1804.057	9239
1806.193	9187
1808.326	9125
1810.457	9208
1812.59	9024
1814.721	9228
1816.855	9157
1818.984	9142
1821.113	9230
1823.244	9064
1825.372	9166
1827.499	9102
1829.63	9051
1831.756	9003
1833.882	9187
1836.007	9075
1838.132	9086
1840.26	8946
1842.384	8883
1844.507	9022
1846.63	9109
1848.752	9070
1850.875	9082
1852.996	9070
1855.118	8839
1857.238	9053
1859.358	8992
1861.477	9101
1863.597	8954
1865.715	9053
1867.832	8939
1869.948	8923
1872.064	9061
1874.181	9003
1876.297	9088
1878.411	8967
1880.526	8966
1882.639	9113
1884.752	9116
1886.865	8971
1888.977	9033
1891.089	9039
1893.2	9198
1895.308	9045
1897.42	9183
1899.53	9148
1901.639	9029
1903.745	9074
1905.853	9139
1907.962	9086
1910.067	9037
1912.174	9077
1914.278	9187
1916.383	9109
1918.486	9267
1920.592	9182
1922.694	9041
1924.797	9239
1926.898	9174
1929	9201
1931.102	9211
1933.203	8953
1935.301	9208
1937.401	9089
1939.499	9306
1941.598	9140
1943.697	9268
1945.793	9174
1947.888	9227
1949.985	9185
1952.08	9195
1954.176	9230
1956.269	9146
1958.364	9252
1960.457	9214
1962.549	9150
1964.642	9063
1966.733	9242
1968.823	9100
1970.913	9140
1973.005	9101
1975.093	9022
1977.184	9071
1979.271	9082
1981.359	9045
1983.446	9135
1985.532	9145
1987.619	9057
1989.705	9197
1991.789	9084
1993.874	9113
1995.956	9093
1998.041	9249
2000.123	9069
2002.206	9212
2004.287	9084
2006.368	9070
2008.449	9034
2010.529	9089
2012.609	9069
2014.688	9181
2016.766	9029
2018.843	9054
2020.922	9041
2022.999	8978
2025.074	9027
2027.15	9217
2029.225	9014
2031.299	9180
2033.375	9099
2035.447	9047
2037.52	9193
2039.592	8999
2041.664	9148
2043.736	9128
2045.807	8962
2047.876	9093
2049.947	9050
2052.015	9021
2054.086	9231
2056.153	9127
2058.221	9079
2060.288	9127
2062.353	9054
2064.42	9161
2066.486	9063
2068.55	8999
2070.614	9067
2072.678	9088
2074.741	9039
2076.805	9190
2078.866	9254
2080.929	9093
2082.99	9144
2085.049	9147
2087.109	9187
2089.17	9064
2091.228	9095
2093.286	9097
2095.344	9239
2097.4	9217
2099.46	8981
2101.516	8982
2103.572	9150
2105.626	8975
2107.679	9069
2109.735	8932
2111.788	9073
2113.841	9057
2115.894	9032
2117.945	9126
2119.997	9246
2122.049	9090
2124.1	9069
2126.148	9155
2128.197	9065
2130.246	8884
2132.296	8987
2134.342	9160
2136.39	9054
2138.437	9074
2140.483	9154
2142.527	9038
2144.574	9059
2146.619	9055
2148.661	9150
2150.705	9017
2152.747	8949
2154.792	9085
2156.832	9100
2158.874	9139
2160.915	8921
2162.954	9021
2164.995	9040
2167.034	9050
2169.072	8932
2171.111	8972
2173.148	8924
2175.186	8919
2177.223	8926
2179.258	8951
2181.294	8887
2183.328	8909
2185.362	8877
2187.398	8813
2189.431	8936
2191.463	8936
2193.495	8808
2195.528	8949
2197.56	8974
2199.59	8807
2201.62	8786
2203.649	8826
2205.678	8798
2207.708	8837
2209.737	8830
2211.764	8814
2213.791	8707
2215.817	8845
2217.843	8801
2219.87	8971
2221.895	8699
2223.919	8890
2225.942	8873
2227.966	8743
2229.988	8897
2232.012	8806
2234.032	9026
2236.054	8776
2238.074	8776
2240.095	8768
2242.116	8787
2244.135	8868
2246.153	8857
2248.171	8843
2250.188	8896
2252.208	8811
2254.223	8809
2256.239	8878
2258.255	8763
2260.269	8762
2262.283	8812
2264.3	8938
2266.312	8785
2268.325	8894
2270.336	8777
2272.349	8800
2274.362	8756
2276.372	8771
2278.383	8794
2280.392	8728
2282.402	8687
2284.409	8937
2286.418	8834
2288.427	8728
2290.433	8817
2292.441	8820
2294.446	8684
2296.453	8663
2298.459	8793
2300.463	8892
2302.466	8863
2304.471	8739
2306.475	8764
2308.477	8937
2310.478	8644
2312.481	8842
2314.481	8825
2316.481	8793
2318.482	8843
2320.482	8648
2322.48	8719
2324.48	8754
2326.478	8659
2328.476	8720
2330.473	8688
2332.469	8693
2334.465	8617
2336.46	8618
2338.454	8644
2340.45	8665
2342.444	8734
2344.437	8697
2346.43	8724
2348.421	8620
2350.414	8566
2352.405	8613
2354.396	8648
2356.386	8620
2358.376	8645
2360.366	8566
2362.355	8652
2364.343	8452
2366.331	8623
2368.317	8630
2370.304	8547
2372.292	8607
2374.278	8468
2376.262	8700
2378.247	8656
2380.23	8635
2382.216	8664
2384.199	8458
2386.181	8426
2388.163	8582
2390.144	8373
2392.127	8498
2394.107	8536
2396.087	8343
2398.066	8454
2400.046	8487
2402.023	8438
2404.004	8485
2405.981	8484
2407.957	8409
2409.934	8424
2411.91	8494
2413.886	8530
2415.862	8565
2417.836	8398
2419.809	8432
2421.784	8449
2423.756	8379
2425.73	8374
2427.701	8446
2429.672	8523
2431.644	8499
2433.615	8392
2435.586	8348
2437.555	8525
2439.523	8343
2441.491	8427
2443.459	8345
2445.428	8337
2447.395	8339
2449.361	8505
2451.327	8387
2453.292	8376
2455.257	8381
2457.223	8417
2459.187	8448
2461.15	8512
2463.113	8455
2465.076	8373
2467.039	8405
2468.999	8404
2470.96	8350
2472.921	8411
2474.881	8339
2476.841	8356
2478.8	8314
2480.759	8371
2482.717	8301
2484.675	8303
2486.63	8258
2488.589	8408
2490.545	8250
2492.5	8277
2494.455	8171
2496.408	8318
2498.364	8209
2500.318	8258
2502.27	8255
2504.223	8268
2506.174	8268
2508.126	8245
2510.078	8167
2512.03	8206
2513.979	8276
2515.927	8238
2517.877	8335
2519.826	8278
2521.775	8332
2523.722	8320
2525.668	8385
2527.616	8208
2529.561	8380
2531.508	8181
2533.452	8130
2535.398	8228
2537.342	8243
2539.284	8382
2541.229	8115
2543.173	8205
2545.114	8227
2547.055	8126
2548.996	8296
2550.938	8103
2552.878	8151
2554.817	8329
2556.756	8174
2558.695	8129
2560.633	8193
2562.572	8247
2564.509	8196
2566.445	8178
2568.382	8101
2570.317	8216
2572.254	8128
2574.189	8226
2576.123	8149
2578.057	8117
2579.99	8185
2581.923	8225
2583.855	8093
2585.788	8331
2587.719	8168
2589.65	8197
2591.579	8157
2593.511	8166
2595.44	8152
2597.37	8298
2599.297	8188
2601.225	8165
2603.153	8142
2605.08	8175
2607.007	8227
2608.932	8227
2610.858	8126
2612.782	8213
2614.709	8164
2616.632	8162
2618.556	8184
2620.478	8196
2622.401	8175
2624.324	8287
2626.247	8142
2628.167	8207
2630.088	8165
2632.008	8272
2633.928	8140
2635.848	8196
2637.766	8284
2639.684	8150
2641.603	8259
2643.519	8172
2645.437	8267
2647.353	8270
2649.27	8019
2651.184	8197
2653.099	8126
2655.014	8207
2656.928	8247
2658.842	8195
2660.755	8207
2662.667	8259
2664.579	8188
2666.491	8359
2668.402	8168
2670.312	8064
2672.222	8118
2674.132	8183
2676.042	8248
2677.951	8120
2679.859	7988
2681.766	8154
2683.674	8122
2685.582	8038
2687.488	7785
2689.392	8216
2691.298	8073
2693.202	8016
2695.107	8170
2697.012	8007
2698.914	8151
2700.817	7847
2702.72	8111
2704.622	8056
2706.524	8130
2708.425	7997
2710.326	7997
2712.225	8069
2714.125	7973
2716.024	7985
2717.923	7958
2719.822	7929
2721.719	7986
2723.616	8030
2725.512	7939
2727.41	7982
2729.305	7898
2731.201	7987
2733.095	8125
2734.99	7979
2736.884	7798
2738.778	7902
2740.67	7993
2742.562	7950
2744.455	7866
2746.346	8036
2748.238	7870
2750.129	8054
2752.018	8026
2753.907	7914
2755.797	7927
2757.687	7895
2759.575	7894
2761.462	7950
2763.349	7829
2765.237	8002
2767.124	8046
2769.009	7833
2770.894	7883
2772.779	7867
2774.663	8024
2776.547	7943
2778.431	7791
2780.314	7868
2782.197	7919
2784.078	8038
2785.96	7807
2787.842	7821
2789.723	7813
2791.603	7938
2793.483	7794
2795.362	7932
2797.241	7871
2799.121	7759
2800.997	7913
2802.874	7837
2804.751	7790
2806.628	7984
2808.506	7640
2810.38	7738
2812.255	7769
2814.13	7758
2816.003	7756
2817.878	7777
2819.752	7804
2821.623	7809
2823.496	7734
2825.368	7773
2827.238	7734
2829.111	7809
2830.98	7753
2832.851	7850
2834.719	7720
2836.589	7700
2838.458	7870
2840.327	7896
2842.193	7754
2844.061	7719
2845.927	7900
2847.794	7811
2849.66	7795
2851.525	7891
2853.39	7903
2855.254	7709
2857.117	7917
2858.983	7782
2860.845	7913
2862.707	7919
2864.569	7937
2866.431	7800
2868.293	7922
2870.154	7991
2872.013	7955
2873.873	7959
2875.733	8152
2877.592	8045
2879.451	8135
2881.309	7993
2883.166	8107
2885.022	8072
2886.879	8185
2888.736	8185
2890.591	8261
2892.446	8209
2894.301	8214
2896.155	8278
2898.009	8150
2899.863	8243
2901.716	8080
2903.568	8253
2905.419	8101
2907.27	8161
2909.123	8179
2910.973	8159
2912.824	8153
2914.673	8187
2916.521	8098
2918.372	8107
2920.22	8365
2922.067	8362
2923.914	8284
2925.761	8446
2927.607	8562
2929.455	8399
2931.301	8405
2933.144	8426
2934.99	8451
2936.833	8523
2938.678	8589
2940.522	8559
2942.364	8851
2944.207	8755
2946.048	8841
2947.891	8725
2949.731	8708
2951.571	8776
2953.412	8790
2955.25	8713
2957.09	8766
2958.93	8499
2960.767	8716
2962.606	8479
2964.443	8416
2966.279	8511
2968.116	8482
2969.953	8370
2971.788	8206
2973.623	8162
2975.457	8126
2977.292	8223
2979.127	8123
2980.959	8085
2982.792	8127
2984.624	8002
2986.455	8072
2988.288	8058
2990.119	7982
2991.949	7898
2993.779	7942
2995.608	7871
2997.439	7746
2999.268	7814
3001.096	7791
3002.923	7674
3004.751	7665
3006.578	7683
3008.406	7669
3010.232	7715
3012.057	7610
3013.883	7606
3015.706	7501
3017.532	7629
3019.356	7426
3021.179	7493
3023.002	7572
3024.823	7356
3026.646	7366
3028.469	7510
3030.289	7470
3032.11	7383
3033.93	7432
3035.749	7363
3037.57	7274
3039.39	7210
3041.207	7414
3043.026	7338
3044.842	7304
3046.661	7277
3048.477	7439
3050.294	7250
3052.109	7339
3053.925	7288
3055.739	7261
3057.555	7324
3059.368	7213
3061.181	7250
3062.995	7197
3064.807	7285
3066.62	7146
3068.433	7258
3070.243	7334
3072.054	7158
3073.865	7228
3075.675	7209
3077.485	7390
3079.293	7175
3081.102	7212
3082.911	7232
3084.719	7091
3086.527	7066
3088.333	7186
3090.139	7117
3091.945	7112
3093.75	7130
3095.557	6981
3097.361	7007
3099.165	7115
3100.969	7045
3102.772	7081
3104.575	6902
3106.379	7043
3108.181	6949
3109.982	7061
3111.783	7015
3113.584	7055
3115.386	6931
3117.186	7068
3118.985	6979
3120.783	6990
3122.582	6795
3124.381	6978
3126.179	7023
3127.975	6813
3129.772	6829
3131.569	6925
3133.365	6831
3135.161	7125
3136.956	6878
3138.751	6918
3140.544	6794
3142.338	6991
3144.132	6986
3145.925	6863
3147.717	6845
3149.509	6915
3151.301	6618
3153.091	6880
3154.884	6857
3156.673	6900
3158.462	6725
3160.252	6807
3162.041	6768
3163.831	6835
3165.618	6871
3167.405	6737
3169.193	6859
3170.979	6850
3172.767	6769
3174.553	6871
3176.338	6707
3178.123	6787
3179.907	6757
3181.692	6653
3183.477	6717
3185.259	6693
3187.042	6780
3188.824	6762
3190.607	6839
3192.389	6692
3194.17	6822
3195.951	6602
3197.73	6652
3199.51	6800
3201.289	6686
3203.07	6665
3204.848	6640
3206.626	6715
3208.403	6718
3210.18	6690
3211.959	6697
3213.735	6708
3215.511	6677
3217.285	6701
3219.06	6634
3220.836	6770
3222.611	6679
3224.384	6775
3226.158	6698
3227.929	6672
3229.702	6674
3231.476	6595
3233.248	6541
3235.018	6700
3236.789	6704
3238.56	6710
3240.33	6551
3242.1	6665
3243.869	6692
3245.637	6600
3247.405	6610
3249.172	6618
3250.941	6669
3252.707	6665
3254.474	6530
3256.24	6667
3258.006	6628
3259.772	6587
3261.537	6573
3263.301	6653
3265.065	6653
3266.828	6584
3268.592	6561
3270.355	6561
3272.117	6461
3273.878	6630
3275.64	6686
3277.401	6653
3279.162	6500
3280.922	6658
3282.682	6544
3284.441	6660
3286.199	6628
3287.959	6675
3289.716	6517
3291.475	6543
3293.232	6620
3294.988	6533
3296.744	6592
3298.501	6526
3300.256	6621
3302.011	6641
3303.766	6638
3305.52	6525
3307.275	6581
3309.028	6536
3310.781	6636
3312.533	6460
3314.285	6441
3316.038	6507
3317.789	6479
3319.54	6529
3321.289	6544
3323.039	6517
3324.789	6573
3326.539	6537
3328.288	6483
3330.035	6535
3331.783	6540
3333.531	6513
3335.28	6531
3337.025	6466
3338.771	6594
3340.518	6442
3342.262	6490
3344.009	6517
3345.753	6447
3347.497	6547
3349.24	6534
3350.983	6419
3352.726	6400
3354.469	6416
3356.212	6449
3357.952	6386
3359.694	6385
3361.434	6391
3363.176	6338
3364.916	6454
3366.654	6359
3368.394	6415
3370.132	6459
3371.871	6366
3373.61	6334
3375.346	6362
3377.083	6476
3378.82	6305
3380.556	6393
3382.292	6369
3384.027	6356
3385.763	6324
3387.497	6304
3389.231	6257
3390.965	6359
3392.698	6410
3394.431	6262
3396.164	6226
3397.896	6322
3399.627	6287
3401.36	6249
3403.09	6317
3404.82	6313
3406.55	6301
3408.279	6228
3410.01	6214
3411.738	6348
3413.467	6175
3415.194	6234
3416.92	6229
3418.647	6305
3420.375	6158
3422.102	6248
3423.827	6205
3425.553	6237
3427.277	6226
3429.003	6174
3430.727	6225
3432.451	6204
3434.173	6132
3435.896	6260
3437.62	6261
3439.343	6224
3441.063	6280
3442.785	6128
3444.505	6072
3446.226	6157
3447.948	6114
3449.666	6041
3451.386	6075
3453.104	6068
3454.823	6061
3456.541	6018
3458.259	6188
3459.976	6163
3461.693	6103
3463.408	6004
3465.125	6150
3466.841	6047
3468.556	6121
3470.271	6025
3471.985	6001
3473.698	5925
3475.414	6045
3477.126	5952
3478.838	5996
3480.55	5978
3482.263	5980
3483.975	5963
3485.686	5947
3487.396	6080
3489.106	5945
3490.817	5886
3492.526	5975
3494.236	5892
3495.944	6048
3497.652	5842
3499.359	5887
3501.066	5860
3502.775	5893
3504.481	5928
3506.187	5877
3507.893	5966
3509.598	5936
3511.304	5848
3513.009	5832
3514.713	5809
3516.417	5908
3518.12	5852
3519.821	5899
3521.525	5851
3523.228	5794
3524.929	5806
3526.631	5783
3528.33	5851
3530.032	5733
3531.733	5729
3533.433	5847
3535.131	5800
3536.83	5810
3538.529	5705
3540.227	5764
3541.925	5712
3543.623	5631
3545.319	5752
3547.016	5814
3548.712	5621
3550.408	5695
3552.103	5778
3553.798	5736
3555.491	5687
3557.188	5724
3558.88	5744
3560.574	5679
3562.266	5633
3563.959	5746
3565.651	5661
3567.343	5601
3569.035	5677
3570.725	5672
3572.415	5831
3574.106	5628
3575.797	5576
3577.485	5685
3579.174	5564
3580.863	5450
3582.551	5503
3584.238	5549
3585.926	5701
3587.613	5632
3589.3	5554
3590.986	5602
3592.671	5489
3594.357	5462
3596.042	5621
3597.726	5477
3599.41	5570
3601.094	5494
3602.778	5490
3604.461	5516
3606.143	5506
3607.825	5533
3609.507	5558
3611.188	5482
3612.87	5427
3614.551	5460
3616.229	5421
3617.909	5411
3619.589	5460
3621.269	5430
3622.948	5361
3624.625	5495
3626.302	5431
3627.98	5328
3629.657	5382
3631.334	5270
3633.01	5368
3634.686	5400
3636.361	5229
3638.036	5348
3639.712	5406
3641.385	5329
3643.06	5316
3644.732	5274
3646.405	5285
3648.08	5314
3649.751	5256
3651.424	5258
3653.094	5356
3654.766	5255
3656.436	5286
3658.106	5207
3659.777	5278
3661.446	5244
3663.115	5281
3664.783	5207
3666.452	5302
3668.121	5244
3669.788	5182
3671.454	5203
3673.121	5258
3674.789	5197
3676.455	5190
3678.12	5250
3679.784	5235
3681.45	5140
3683.114	5180
3684.779	5121
3686.442	5165
3688.105	5161
3689.768	5130
3691.43	5204
3693.093	5211
3694.754	5137
3696.415	5126
3698.076	5198
3699.736	5204
3701.396	5209
3703.057	5137
3704.716	5283
3706.375	5210
3708.034	5141
3709.692	5132
3711.351	5089
3713.008	5179
3714.665	5177
3716.321	5146
3717.977	5104
3719.634	5137
3721.29	5081
3722.945	5084
3724.598	5160
3726.253	5055
3727.907	5025
3729.561	5096
3731.214	5129
3732.867	5060
3734.518	4977
3736.171	4995
3737.824	5030
3739.474	5004
3741.125	5126
3742.775	4971
3744.425	5045
3746.074	5065
3747.725	4978
3749.373	5112
3751.022	4915
3752.669	4986
3754.318	5092
3755.966	5077
3757.612	5001
3759.259	4966
3760.905	5027
3762.55	5062
3764.197	5090
3765.842	5043
3767.486	5051
3769.131	4950
3770.774	4946
3772.417	4896
3774.061	4992
3775.705	4929
3777.347	4907
3778.988	4927
3780.629	4926
3782.271	4928
3783.912	4895
3785.552	4968
3787.192	4863
3788.831	4881
3790.472	4849
3792.112	4911
3793.75	4930
3795.388	4920
3797.024	4802
3798.661	4931
3800.3	4876
3801.936	4879
3803.572	4871
3805.208	4795
3806.844	4883
3808.48	4720
3810.115	4759
3811.748	4798
3813.382	4862
3815.016	4876
3816.649	4831
3818.283	4872
3819.914	4767
3821.547	4864
3823.178	4827
3824.809	4769
3826.441	4809
3828.072	4722
3829.701	4835
3831.331	4726
3832.96	4740
3834.591	4679
3836.219	4770
3837.847	4743
3839.475	4826
3841.102	4684
3842.729	4758
3844.357	4786
3845.984	4736
3847.609	4736
3849.234	4619
3850.86	4746
3852.485	4683
3854.11	4650
3855.734	4768
3857.357	4730
3858.981	4724
3860.603	4655
3862.227	4693
3863.848	4638
3865.471	4708
3867.092	4810
3868.713	4656
3870.334	4643
3871.954	4615
3873.575	4703
3875.194	4644
3876.813	4648
3878.433	4605
3880.051	4672
3881.669	4701
3883.286	4622
3884.904	4684
3886.52	4575
3888.138	4618
3889.754	4629
3891.37	4609
3892.985	4547
3894.6	4658
3896.216	4561
3897.831	4569
3899.444	4489
3901.058	4557
3902.67	4640
3904.283	4511
3905.897	4673
3907.509	4541
3909.121	4577
3910.731	4556
3912.342	4609
3913.954	4522
3915.563	4601
3917.174	4532
3918.783	4574
3920.391	4503
3922.002	4519
3923.611	4617
3925.218	4596
3926.826	4519
3928.432	4658
3930.039	4574
3931.647	4611
3933.253	4602
3934.859	4517
3936.464	4540
3938.068	4520
3939.675	4551
3941.278	4472
3942.883	4526
3944.486	4387
3946.089	4462
3947.692	4542
3949.295	4476
3950.898	4551
3952.499	4458
3954.1	4497
3955.7	4462
3957.303	4365
3958.903	4376
3960.502	4436
3962.101	4348
3963.7	4519
3965.301	4430
3966.899	4318
3968.497	4480
3970.094	4336
3971.691	4378
3973.288	4432
3974.885	4478
3976.481	4456
3978.077	4366
3979.672	4439
3981.267	4366
3982.863	4368
3984.457	4399
3986.051	4352
3987.645	4238
3989.238	4364
3990.831	4387
3992.425	4356
3994.017	4308
3995.607	4389
3997.199	4276
3998.79	4309
4000.382	4373
4001.973	4351
4003.561	4291
4005.151	4281
4006.741	4190
4008.331	4307
4009.918	4223
4011.507	4311
4013.095	4171
4014.681	4357
4016.269	4215
4017.856	4217
4019.443	4290
4021.028	4244
4022.614	4275
4024.199	4201
4025.785	4215
4027.37	4152
4028.953	4231
4030.536	4090
4032.12	4290
4033.704	4142
4035.287	4151
4036.869	4149
4038.45	4221
4040.032	4148
4041.613	4209
4043.195	4176
4044.776	4200
4046.356	4078
4047.935	4157
4049.515	4199
4051.095	4176
4052.674	4196
4054.251	4201
4055.829	4149
4057.406	4157
4058.985	4174
4060.562	4220
4062.139	4137
4063.715	4066
4065.29	3984
4066.865	4109
4068.442	4165
4070.016	4119
4071.59	4097
4073.164	4146
4074.738	4052
4076.312	4084
4077.885	4076
4079.458	4023
4081.03	4079
4082.602	4106
4084.173	4072
4085.745	4011
4087.315	3992
4088.886	4026
4090.456	4112
4092.026	4025
4093.596	4038
4095.165	4073
4096.734	3997
4098.301	4043
4099.869	3973
4101.437	4035
4103.006	3983
4104.572	4046
4106.139	4040
4107.704	3948
4109.27	4001
4110.837	3991
4112.401	3992
4113.966	4009
4115.53	3969
4117.094	3977
4118.659	3946
4120.223	3935
4121.785	4049
4123.347	3959
4124.909	3868
4126.471	3956
4128.034	3923
4129.595	3963
4131.155	3875
4132.716	4024
4134.275	3962
4135.836	3856
4137.395	3841
4138.955	3909
4140.513	3916
4142.071	3852
4143.628	3821
4145.188	3861
4146.745	3867
4148.302	3888
4149.858	3829
4151.414	3809
4152.971	3856
4154.526	3813
4156.081	3727
4157.635	3951
4159.189	3836
4160.745	3808
4162.298	3804
4163.852	3859
4165.405	3822
4166.957	3870
4168.51	3831
4170.063	3754
4171.614	3750
4173.166	3712
4174.717	3738
4176.267	3776
4177.817	3800
4179.368	3699
4180.917	3775
4182.466	3752
4184.016	3699
4185.564	3739
4187.112	3750
4188.66	3685
4190.207	3848
4191.754	3751
4193.301	3745
4194.848	3672
4196.394	3653
4197.94	3814
4199.484	3677
4201.03	3739
4202.575	3738
4204.12	3679
4205.663	3786
4207.207	3765
4208.75	3752
4210.292	3586
4211.836	3616
4213.378	3697
4214.92	3698
4216.46	3724
4218.002	3632
4219.544	3676
4221.083	3627
4222.625	3674
4224.164	3742
4225.703	3632
4227.244	3701
4228.782	3612
4230.32	3697
4231.857	3589
4233.395	3634
4234.933	3563
4236.471	3638
4238.007	3642
4239.542	3581
4241.078	3650
4242.614	3700
4244.15	3724
4245.685	3646
4247.219	3635
4248.753	3597
4250.287	3633
4251.82	3597
4253.354	3581
4254.887	3603
4256.419	3578
4257.951	3565
4259.483	3620
4261.016	3581
4262.547	3573
4264.078	3586
4265.608	3608
4267.137	3524
4268.668	3532
4270.197	3593
4271.727	3546
4273.254	3582
4274.783	3567
4276.311	3586
4277.84	3592
4279.366	3515
4280.894	3594
4282.42	3527
4283.946	3421
4285.473	3544
4286.998	3579
4288.523	3520
4290.047	3461
4291.572	3526
4293.096	3516
4294.622	3446
4296.144	3547
4297.668	3489
4299.19	3437
4300.713	3516
4302.236	3473
4303.758	3388
4305.279	3454
4306.799	3491
4308.321	3424
4309.842	3499
4311.361	3454
4312.882	3467
4314.401	3442
