400.0961	2581
402.6185	2625
405.1424	2609
407.6635	2587
410.1838	2662
412.7035	2648
415.2225	2655
417.7388	2682
420.2585	2741
422.7754	2764
425.2917	2710
427.8072	2705
430.3221	2769
432.8363	2788
435.3498	2809
437.8626	2760
440.3727	2834
442.8841	2765
445.3969	2770
447.907	2827
450.4142	2787
452.9229	2780
455.4289	2766
457.9362	2824
460.4449	2721
462.9488	2783
465.454	2731
467.9566	2757
470.4604	2811
472.9637	2839
475.4662	2751
477.966	2768
480.4671	2770
482.9656	2715
485.4633	2747
487.9645	2786
490.4608	2682
492.9566	2812
495.4536	2818
497.948	2792
500.4437	2871
502.9387	2811
505.431	2819
507.9226	2835
510.4136	2847
512.9079	2857
515.3975	2830
517.8864	2765
520.3746	2836
522.8622	2837
525.3491	2840
527.8394	2930
530.3249	2812
532.8098	2866
535.2939	2835
537.7774	2893
540.2623	2771
542.7444	2792
545.2259	2785
547.7067	2811
550.1868	2862
552.6683	2818
555.147	2814
557.6231	2808
560.1005	2916
562.5773	2830
565.0534	2872
567.5308	2892
570.0056	2936
572.4776	2973
574.951	2939
577.4237	2968
579.8978	3050
582.3671	3033
584.8378	2951
587.3079	2991
589.7773	3038
592.244	2995
594.714	2956
597.1793	3000
599.6461	2950
602.1121	2916
604.5754	2929
607.0421	2979
609.5042	2936
611.9675	2961
614.4282	2999
616.8902	2897
619.3515	2907
621.8122	2917
624.2702	2878
626.7296	2860
629.1863	2998
631.6423	2911
634.1017	2884
636.5563	2879
639.0104	2855
641.4658	2939
643.9185	2934
646.3725	2970
648.8239	2958
651.2766	2895
653.7266	2965
656.176	2941
658.6247	2895
661.0748	2985
663.5242	2984
665.9709	2927
668.417	3017
670.8624	2906
673.3092	2957
675.7533	3058
678.1968	3048
680.6395	3001
683.0817	3016
685.5251	2982
687.9659	2991
690.4061	3079
692.8456	3033
695.2844	2983
697.7226	2988
700.1621	2989
702.599	3027
705.0332	3081
707.4688	3074
709.9036	3028
712.3399	3082
714.7735	2991
717.2044	3098
719.6367	3035
722.0683	3143
724.4993	3046
726.9296	3108
729.3593	3051
731.7883	3119
734.2147	3125
736.6423	3101
739.0714	3083
741.4958	3169
743.9216	3090
746.3447	3201
748.7691	3122
751.1929	3192
753.616	3163
756.0366	3161
758.4584	3187
760.8776	3181
763.2982	3246
765.718	3216
768.1373	3201
770.5539	3144
772.9698	3143
775.3871	3269
777.8038	3162
780.2178	3131
782.6332	3206
785.0459	3223
787.458	3182
789.8714	3214
792.2842	3243
794.6943	3221
797.1038	3198
799.5127	3249
801.9209	3200
804.3324	3272
806.7393	3236
809.1456	3225
811.5513	3254
813.9562	3263
816.3625	3181
818.7663	3307
821.1693	3232
823.5718	3249
825.9735	3251
828.3746	3250
830.7771	3184
833.177	3379
835.5762	3295
837.9747	3377
840.3727	3286
842.772	3247
845.1666	3299
847.5626	3301
849.958	3334
852.3527	3366
854.7488	3333
857.1403	3341
859.5331	3404
861.9253	3331
864.3168	3346
866.7057	3339
869.098	3386
871.4876	3343
873.8746	3373
876.263	3299
878.6487	3336
881.0378	3317
883.4243	3284
885.8081	3382
888.1933	3332
890.5759	3307
892.9598	3306
895.343	3335
897.7256	3332
900.1057	3320
902.4871	3352
904.8659	3321
907.246	3375
909.6254	3406
912.0023	3379
914.3786	3473
916.7562	3426
919.1331	3520
921.5074	3518
923.8831	3567
926.2562	3485
928.6287	3552
931.0005	3518
933.3757	3564
935.7462	3565
938.1162	3590
940.4855	3655
942.8542	3605
945.2242	3632
947.5916	3719
949.9584	3822
952.3266	3993
954.6921	4077
957.0571	4213
959.4233	4534
961.787	4504
964.15	4490
966.5125	4402
968.8742	4150
971.2354	3971
973.5959	3830
975.9559	3660
978.3151	3623
980.6738	3575
983.0338	3476
985.3912	3516
987.7461	3509
990.1022	3500
992.4578	3453
994.8127	3516
997.1689	3477
999.5207	3503
1001.874	3439
1004.226	3454
1006.576	3468
1008.929	3544
1011.28	3502
1013.628	3515
1015.977	3538
1018.324	3509
1020.674	3529
1023.019	3545
1025.366	3482
1027.713	3514
1030.056	3523
1032.399	3545
1034.746	3528
1037.087	3488
1039.431	3549
1041.771	3581
1044.113	3511
1046.454	3530
1048.793	3580
1051.133	3530
1053.471	3496
1055.807	3573
1058.146	3600
1060.483	3559
1062.818	3603
1065.153	3696
1067.489	3624
1069.822	3649
1072.156	3498
1074.488	3713
1076.82	3695
1079.15	3596
1081.48	3581
1083.814	3672
1086.143	3592
1088.471	3582
1090.799	3528
1093.126	3547
1095.452	3564
1097.78	3561
1100.105	3527
1102.43	3559
1104.754	3595
1107.077	3521
1109.4	3610
1111.722	3602
1114.044	3572
1116.365	3569
1118.685	3548
1121.005	3537
1123.324	3602
1125.643	3542
1127.961	3599
1130.278	3635
1132.595	3526
1134.911	3501
1137.226	3618
1139.541	3520
1141.854	3561
1144.167	3532
1146.482	3608
1148.793	3513
1151.105	3589
1153.414	3551
1155.725	3518
1158.033	3537
1160.344	3475
1162.651	3519
1164.959	3503
1167.265	3615
1169.572	3507
1171.878	3540
1174.184	3635
1176.488	3602
1178.79	3555
1181.094	3543
1183.396	3530
1185.699	3512
1188.001	3647
1190.301	3561
1192.6	3571
1194.9	3603
1197.2	3593
1199.497	3534
1201.794	3606
1204.09	3579
1206.387	3615
1208.684	3642
1210.978	3520
1213.272	3577
1215.565	3750
1217.858	3630
1220.15	3602
1222.443	3500
1224.734	3608
1227.024	3686
1229.313	3561
1231.602	3669
1233.892	3668
1236.18	3683
1238.467	3746
1240.754	3685
1243.04	3701
1245.325	3762
1247.612	3695
1249.896	3700
1252.178	3822
1254.461	3876
1256.743	3757
1259.027	3782
1261.308	3737
1263.587	3829
1265.867	3810
1268.146	3725
1270.425	3833
1272.703	3821
1274.981	3744
1277.256	3706
1279.532	3754
1281.808	3748
1284.083	3674
1286.358	3691
1288.63	3694
1290.904	3751
1293.175	3666
1295.449	3655
1297.719	3717
1299.99	3603
1302.259	3683
1304.529	3691
1306.798	3731
1309.065	3633
1311.333	3644
1313.599	3662
1315.866	3633
1318.131	3621
1320.396	3717
1322.66	3694
1324.925	3669
1327.187	3665
1329.448	3737
1331.711	3664
1333.974	3711
1336.234	3721
1338.493	3695
1340.752	3673
1343.01	3746
1345.269	3652
1347.526	3632
1349.784	3771
1352.04	3769
1354.295	3711
1356.552	3689
1358.806	3645
1361.059	3703
1363.312	3720
1365.564	3629
1367.818	3627
1370.069	3784
1372.318	3679
1374.568	3719
1376.817	3771
1379.066	3714
1381.316	3753
1383.564	3663
1385.809	3709
1388.056	3816
1390.301	3681
1392.549	3799
1394.793	3756
1397.036	3772
1399.279	3859
1401.522	3832
1403.763	3769
1406.007	3869
1408.248	3871
1410.487	3773
1412.727	3799
1414.965	3845
1417.205	3817
1419.442	3768
1421.68	3754
1423.915	3801
1426.152	3789
1428.388	3853
1430.623	3899
1432.857	3824
1435.091	3871
1437.323	3844
1439.556	3868
1441.789	3850
1444.019	3844
1446.25	3891
1448.48	3924
1450.708	3934
1452.938	3984
1455.167	3857
1457.394	3925
1459.62	3922
1461.846	3912
1464.073	3890
1466.299	3856
1468.523	3841
1470.746	3883
1472.969	3794
1475.191	3754
1477.415	3896
1479.636	3839
1481.858	3768
1484.078	3790
1486.298	3749
1488.518	3730
1490.736	3684
1492.954	3659
1495.169	3715
1497.386	3757
1499.602	3684
1501.819	3716
1504.034	3638
1506.248	3750
1508.462	3735
1510.675	3718
1512.888	3695
1515.1	3666
1517.311	3641
1519.522	3699
1521.732	3711
1523.942	3682
1526.151	3703
1528.36	3677
1530.566	3685
1532.773	3755
1534.98	3729
1537.187	3673
1539.392	3750
1541.596	3672
1543.801	3794
1546.005	3694
1548.208	3706
1550.411	3732
1552.612	3816
1554.814	3719
1557.013	3728
1559.212	3755
1561.414	3734
1563.612	3765
1565.811	3834
1568.007	3760
1570.203	3720
1572.403	3844
1574.598	3833
1576.792	3752
1578.988	3840
1581.181	3841
1583.376	3758
1585.568	3869
1587.761	3767
1589.952	3799
1592.143	3846
1594.333	3736
1596.524	3703
1598.715	3881
1600.903	3856
1603.091	3821
1605.278	3816
1607.466	3902
1609.652	3805
1611.838	3893
1614.023	3839
1616.207	3855
1618.391	3846
1620.576	3824
1622.759	3836
1624.941	3884
1627.123	3860
1629.304	3848
1631.484	3850
1633.664	3948
1635.844	3934
1638.022	3920
1640.201	3907
1642.38	3940
1644.556	3882
1646.732	3968
1648.908	3876
1651.084	3987
1653.257	3988
1655.433	3930
1657.607	3969
1659.779	3921
1661.951	3959
1664.122	3992
1666.295	3969
1668.467	3935
1670.635	3967
1672.805	3987
1674.973	4011
1677.142	3982
1679.31	3928
1681.478	4013
1683.644	3971
1685.81	3855
1687.975	3863
1690.142	4057
1692.305	3890
1694.468	3863
1696.632	3878
1698.794	3874
1700.957	3805
1703.119	3885
1705.279	3910
1707.439	3906
1709.598	3815
1711.758	3821
1713.917	3874
1716.075	3766
1718.231	3799
1720.388	3873
1722.543	3804
1724.702	3857
1726.856	3909
1729.01	3881
1731.164	3902
1733.317	3758
1735.471	3814
1737.623	3735
1739.774	3832
1741.925	3842
1744.075	3873
1746.225	3787
1748.376	3845
1750.524	3809
1752.672	3686
1754.82	3903
1756.965	3851
1759.113	3828
1761.259	3916
1763.405	3797
1765.549	3896
1767.694	3841
1769.836	3839
1771.981	3818
1774.123	3914
1776.264	3819
1778.405	3876
1780.546	3813
1782.687	3952
1784.827	3826
1786.966	3898
1789.103	3971
1791.242	3881
1793.381	3788
1795.517	3782
1797.653	3834
1799.788	3833
1801.923	3991
1804.057	3870
1806.193	3804
1808.326	3822
1810.457	3940
1812.59	3850
1814.721	3992
1816.855	3882
1818.984	3853
1821.113	3946
1823.244	3888
1825.372	3831
1827.499	3893
1829.63	3932
1831.756	3882
1833.882	3841
1836.007	3796
1838.132	3841
1840.26	3923
1842.384	3838
1844.507	3835
1846.63	3843
1848.752	3866
1850.875	3811
1852.996	3897
1855.118	3841
1857.238	3817
1859.358	3743
1861.477	3809
1863.597	3836
1865.715	3831
1867.832	3897
1869.948	3876
1872.064	3872
1874.181	3893
1876.297	3783
1878.411	3871
1880.526	3861
1882.639	3820
1884.752	3921
1886.865	3823
1888.977	3759
1891.089	3878
1893.2	3847
1895.308	3859
1897.42	3891
1899.53	3852
1901.639	3976
1903.745	3779
1905.853	3885
1907.962	3805
1910.067	3930
1912.174	3859
1914.278	3903
1916.383	3914
1918.486	3889
1920.592	3962
1922.694	3879
1924.797	3892
1926.898	3840
1929	3950
1931.102	3909
1933.203	3798
1935.301	3960
1937.401	3934
1939.499	3914
1941.598	3919
1943.697	3991
1945.793	3966
1947.888	3996
1949.985	3922
1952.08	3828
1954.176	3894
1956.269	4004
1958.364	3880
1960.457	4008
1962.549	3903
1964.642	3928
1966.733	3966
1968.823	3915
1970.913	3873
1973.005	3905
1975.093	3883
1977.184	3917
1979.271	3925
1981.359	3920
1983.446	3838
1985.532	3899
1987.619	3900
1989.705	3948
1991.789	3972
1993.874	3986
1995.956	3834
1998.041	3873
2000.123	3955
2002.206	3860
2004.287	3927
2006.368	3910
2008.449	3864
2010.529	3900
2012.609	3855
2014.688	3829
2016.766	3910
2018.843	3893
2020.922	3843
2022.999	3938
2025.074	3929
2027.15	3845
2029.225	3808
2031.299	3883
2033.375	3907
2035.447	3844
2037.52	3879
2039.592	3906
2041.664	3896
2043.736	3832
2045.807	3879
2047.876	3917
2049.947	3825
2052.015	3903
2054.086	3948
2056.153	3947
2058.221	3878
2060.288	3918
2062.353	3928
2064.42	3871
2066.486	3868
2068.55	3923
2070.614	3790
2072.678	3936
2074.741	3916
2076.805	3919
2078.866	3896
2080.929	3934
2082.99	3963
2085.049	3943
2087.109	3907
2089.17	3891
2091.228	3840
2093.286	3861
2095.344	3898
2097.4	3879
2099.46	3963
2101.516	3869
2103.572	3839
2105.626	3928
2107.679	3946
2109.735	3876
2111.788	3853
2113.841	3876
2115.894	3900
2117.945	3943
2119.997	3926
2122.049	3883
2124.1	3884
2126.148	3879
2128.197	3943
2130.246	3971
2132.296	3868
2134.342	3897
2136.39	3948
2138.437	3954
2140.483	4004
2142.527	3898
2144.574	3848
2146.619	3854
2148.661	3833
2150.705	3896
2152.747	3871
2154.792	3842
2156.832	3871
2158.874	3903
2160.915	3913
2162.954	3895
2164.995	3873
2167.034	3889
2169.072	3814
2171.111	3938
2173.148	3798
2175.186	3954
2177.223	3842
2179.258	3832
2181.294	3939
2183.328	3885
2185.362	3844
2187.398	3829
2189.431	3851
2191.463	3820
2193.495	3865
2195.528	3819
2197.56	3899
2199.59	3861
2201.62	3754
2203.649	3785
2205.678	3868
2207.708	3807
2209.737	3870
2211.764	3775
2213.791	3805
2215.817	3823
2217.843	3871
2219.87	3865
2221.895	3770
2223.919	3757
2225.942	3753
2227.966	3787
2229.988	3757
2232.012	3812
2234.032	3810
2236.054	3836
2238.074	3800
2240.095	3832
2242.116	3809
2244.135	3788
2246.153	3817
2248.171	3851
2250.188	3881
2252.208	3791
2254.223	3797
2256.239	3795
2258.255	3769
2260.269	3771
2262.283	3838
2264.3	3799
2266.312	3762
2268.325	3817
2270.336	3794
2272.349	3813
2274.362	3797
2276.372	3790
2278.383	3777
2280.392	3860
2282.402	3802
2284.409	3896
2286.418	3745
2288.427	3833
2290.433	3797
2292.441	3790
2294.446	3826
2296.453	3805
2298.459	3848
2300.463	3769
2302.466	3811
2304.471	3724
2306.475	3813
2308.477	3812
2310.478	3835
2312.481	3700
2314.481	3796
2316.481	3815
2318.482	3863
2320.482	3827
2322.48	3675
2324.48	3823
2326.478	3814
2328.476	3748
2330.473	3706
2332.469	3799
2334.465	3797
2336.46	3759
2338.454	3758
2340.45	3722
2342.444	3785
2344.437	3754
2346.43	3765
2348.421	3734
2350.414	3823
2352.405	3768
2354.396	3806
2356.386	3793
2358.376	3682
2360.366	3798
2362.355	3693
2364.343	3732
2366.331	3730
2368.317	3715
2370.304	3655
2372.292	3818
2374.278	3687
2376.262	3725
2378.247	3773
2380.23	3765
2382.216	3739
2384.199	3713
2386.181	3738
2388.163	3716
2390.144	3790
2392.127	3651
2394.107	3681
2396.087	3773
2398.066	3780
2400.046	3723
2402.023	3700
2404.004	3660
2405.981	3774
2407.957	3701
2409.934	3631
2411.91	3696
2413.886	3661
2415.862	3615
2417.836	3709
2419.809	3749
2421.784	3648
2423.756	3705
2425.73	3731
2427.701	3703
2429.672	3753
2431.644	3717
2433.615	3727
2435.586	3731
2437.555	3720
2439.523	3681
2441.491	3733
2443.459	3651
2445.428	3739
2447.395	3735
2449.361	3663
2451.327	3645
2453.292	3658
2455.257	3640
2457.223	3609
2459.187	3682
2461.15	3705
2463.113	3627
2465.076	3639
2467.039	3721
2468.999	3692
2470.96	3599
2472.921	3602
2474.881	3681
2476.841	3630
2478.8	3604
2480.759	3620
2482.717	3625
2484.675	3701
2486.63	3651
2488.589	3669
2490.545	3597
2492.5	3613
2494.455	3658
2496.408	3704
2498.364	3699
2500.318	3626
2502.27	3565
2504.223	3644
2506.174	3683
2508.126	3589
2510.078	3630
2512.03	3646
2513.979	3583
2515.927	3664
2517.877	3633
2519.826	3622
2521.775	3679
2523.722	3715
2525.668	3641
2527.616	3565
2529.561	3609
2531.508	3670
2533.452	3717
2535.398	3599
2537.342	3631
2539.284	3612
2541.229	3540
2543.173	3645
2545.114	3634
2547.055	3643
2548.996	3639
2550.938	3578
2552.878	3624
2554.817	3642
2556.756	3666
2558.695	3560
2560.633	3639
2562.572	3614
2564.509	3695
2566.445	3642
2568.382	3676
2570.317	3648
2572.254	3600
2574.189	3667
2576.123	3610
2578.057	3576
2579.99	3564
2581.923	3615
2583.855	3642
2585.788	3604
2587.719	3614
2589.65	3631
2591.579	3654
2593.511	3558
2595.44	3603
2597.37	3613
2599.297	3675
2601.225	3686
2603.153	3674
2605.08	3616
2607.007	3551
2608.932	3605
2610.858	3635
2612.782	3611
2614.709	3642
2616.632	3624
2618.556	3666
2620.478	3656
2622.401	3573
2624.324	3716
2626.247	3594
2628.167	3630
2630.088	3614
2632.008	3625
2633.928	3667
2635.848	3698
2637.766	3634
2639.684	3656
2641.603	3681
2643.519	3637
2645.437	3619
2647.353	3658
2649.27	3652
2651.184	3631
2653.099	3649
2655.014	3530
2656.928	3656
2658.842	3630
2660.755	3631
2662.667	3639
2664.579	3571
2666.491	3583
2668.402	3687
2670.312	3658
2672.222	3572
2674.132	3694
2676.042	3529
2677.951	3670
2679.859	3670
2681.766	3547
2683.674	3574
2685.582	3628
2687.488	3643
2689.392	3665
2691.298	3659
2693.202	3567
2695.107	3613
2697.012	3617
2698.914	3503
2700.817	3536
2702.72	3600
2704.622	3538
2706.524	3653
2708.425	3625
2710.326	3581
2712.225	3577
2714.125	3685
2716.024	3556
2717.923	3599
2719.822	3555
2721.719	3522
2723.616	3598
2725.512	3658
2727.41	3605
2729.305	3602
2731.201	3486
2733.095	3568
2734.99	3625
2736.884	3537
2738.778	3524
2740.67	3590
2742.562	3518
2744.455	3603
2746.346	3596
2748.238	3581
2750.129	3662
2752.018	3587
2753.907	3592
2755.797	3572
2757.687	3591
2759.575	3515
2761.462	3578
2763.349	3528
2765.237	3591
2767.124	3540
2769.009	3574
2770.894	3547
2772.779	3565
2774.663	3548
2776.547	3560
2778.431	3523
2780.314	3539
2782.197	3529
2784.078	3564
2785.96	3541
2787.842	3489
2789.723	3555
2791.603	3523
2793.483	3545
2795.362	3542
2797.241	3607
2799.121	3499
2800.997	3477
2802.874	3558
2804.751	3507
2806.628	3482
2808.506	3556
2810.38	3563
2812.255	3511
2814.13	3574
2816.003	3564
2817.878	3605
2819.752	3539
2821.623	3547
2823.496	3528
2825.368	3585
2827.238	3544
2829.111	3532
2830.98	3567
2832.851	3574
2834.719	3617
2836.589	3566
2838.458	3507
2840.327	3531
2842.193	3559
2844.061	3523
2845.927	3569
2847.794	3507
2849.66	3562
2851.525	3492
2853.39	3511
2855.254	3599
2857.117	3592
2858.983	3661
2860.845	3654
2862.707	3682
2864.569	3592
2866.431	3653
2868.293	3642
2870.154	3639
2872.013	3761
2873.873	3715
2875.733	3698
2877.592	3785
2879.451	3876
2881.309	3822
2883.166	3893
2885.022	3942
2886.879	3955
2888.736	3890
2890.591	3891
2892.446	3880
2894.301	3942
2896.155	3966
2898.009	3936
2899.863	4046
2901.716	3914
2903.568	3931
2905.419	3937
2907.27	3995
2909.123	3939
2910.973	3970
2912.824	3996
2914.673	3992
2916.521	3968
2918.372	3997
2920.22	4130
2922.067	4146
2923.914	4189
2925.761	4127
2927.607	4230
2929.455	4257
2931.301	4169
2933.144	4194
2934.99	4319
2936.833	4421
2938.678	4469
2940.522	4438
2942.364	4527
2944.207	4439
2946.048	4546
2947.891	4538
2949.731	4490
2951.571	4412
2953.412	4536
2955.25	4515
2957.09	4402
2958.93	4415
2960.767	4408
2962.606	4303
2964.443	4264
2966.279	4313
2968.116	4265
2969.953	4112
2971.788	3981
2973.623	4011
2975.457	4041
2977.292	4068
2979.127	4054
2980.959	3967
2982.792	3915
2984.624	3993
2986.455	3930
2988.288	4006
2990.119	3987
2991.949	3897
2993.779	3968
2995.608	3893
2997.439	3828
2999.268	3754
3001.096	3756
3002.923	3735
3004.751	3765
3006.578	3632
3008.406	3717
3010.232	3644
3012.057	3590
3013.883	3560
3015.706	3516
3017.532	3562
3019.356	3488
3021.179	3493
3023.002	3517
3024.823	3507
3026.646	3462
3028.469	3445
3030.289	3386
3032.11	3362
3033.93	3422
3035.749	3495
3037.57	3413
3039.39	3463
3041.207	3378
3043.026	3420
3044.842	3469
3046.661	3395
3048.477	3396
3050.294	3492
3052.109	3351
3053.925	3366
3055.739	3455
3057.555	3388
3059.368	3473
3061.181	3442
3062.995	3356
3064.807	3389
3066.62	3375
3068.433	3452
3070.243	3467
3072.054	3299
3073.865	3312
3075.675	3449
3077.485	3295
3079.293	3400
3081.102	3307
3082.911	3373
3084.719	3268
3086.527	3352
3088.333	3357
3090.139	3471
3091.945	3323
3093.75	3379
3095.557	3262
3097.361	3313
3099.165	3313
3100.969	3292
3102.772	3259
3104.575	3276
3106.379	3309
3108.181	3272
3109.982	3227
3111.783	3264
3113.584	3322
3115.386	3259
3117.186	3254
3118.985	3298
3120.783	3364
3122.582	3238
3124.381	3266
3126.179	3277
3127.975	3261
3129.772	3269
3131.569	3333
3133.365	3216
3135.161	3259
3136.956	3254
3138.751	3220
3140.544	3311
3142.338	3243
3144.132	3286
3145.925	3213
3147.717	3241
3149.509	3193
3151.301	3199
3153.091	3188
3154.884	3240
3156.673	3325
3158.462	3183
3160.252	3264
3162.041	3179
3163.831	3155
3165.618	3236
3167.405	3223
3169.193	3208
3170.979	3173
3172.767	3259
3174.553	3199
3176.338	3240
3178.123	3196
3179.907	3222
3181.692	3147
3183.477	3244
3185.259	3236
3187.042	3160
3188.824	3260
3190.607	3180
3192.389	3186
3194.17	3217
3195.951	3182
3197.73	3223
3199.51	3215
3201.289	3219
3203.07	3204
3204.848	3164
3206.626	3224
3208.403	3175
3210.18	3152
3211.959	3202
3213.735	3160
3215.511	3201
3217.285	3144
3219.06	3189
3220.836	3197
3222.611	3139
3224.384	3165
3226.158	3222
3227.929	3184
3229.702	3164
3231.476	3160
3233.248	3112
3235.018	3182
3236.789	3132
3238.56	3141
3240.33	3215
3242.1	3116
3243.869	3208
3245.637	3203
3247.405	3187
3249.172	3203
3250.941	3190
3252.707	3180
3254.474	3156
3256.24	3221
3258.006	3133
3259.772	3153
3261.537	3114
3263.301	3193
3265.065	3140
3266.828	3227
3268.592	3230
3270.355	3198
3272.117	3172
3273.878	3084
3275.64	3162
3277.401	3207
3279.162	3224
3280.922	3218
3282.682	3103
3284.441	3232
3286.199	3257
3287.959	3189
3289.716	3125
3291.475	3278
3293.232	3259
3294.988	3183
3296.744	3180
3298.501	3162
3300.256	3232
3302.011	3177
3303.766	3162
3305.52	3155
3307.275	3161
3309.028	3145
3310.781	3255
3312.533	3184
3314.285	3219
3316.038	3268
3317.789	3150
3319.54	3155
3321.289	3219
3323.039	3235
3324.789	3130
3326.539	3259
3328.288	3162
3330.035	3213
3331.783	3204
3333.531	3231
3335.28	3116
3337.025	3165
3338.771	3184
3340.518	3223
3342.262	3119
3344.009	3210
3345.753	3144
3347.497	3135
3349.24	3213
3350.983	3280
3352.726	3167
3354.469	3155
3356.212	3142
3357.952	3169
3359.694	3192
3361.434	3142
3363.176	3187
3364.916	3178
3366.654	3141
3368.394	3143
3370.132	3172
3371.871	3059
3373.61	3083
3375.346	3111
3377.083	3144
3378.82	3053
3380.556	3149
3382.292	3101
3384.027	3074
3385.763	3116
3387.497	3085
3389.231	3149
3390.965	3079
3392.698	3084
3394.431	3064
3396.164	3077
3397.896	3072
3399.627	3032
3401.36	3031
3403.09	3096
3404.82	3067
3406.55	3074
3408.279	3121
3410.01	3077
3411.738	3044
3413.467	2957
3415.194	3121
3416.92	3081
3418.647	3057
3420.375	3042
3422.102	3086
3423.827	3017
3425.553	3054
3427.277	3025
3429.003	3020
3430.727	3033
3432.451	3040
3434.173	3015
3435.896	3013
3437.62	3021
3439.343	2987
3441.063	3027
3442.785	3052
3444.505	2986
3446.226	2967
3447.948	2971
3449.666	3019
3451.386	2971
3453.104	2928
3454.823	2899
3456.541	3007
3458.259	2964
3459.976	2971
3461.693	2974
3463.408	3023
3465.125	3032
3466.841	2969
3468.556	3016
3470.271	3023
3471.985	2944
3473.698	2958
3475.414	2988
3477.126	2924
3478.838	2927
3480.55	2956
3482.263	2883
3483.975	2924
3485.686	2927
3487.396	2885
3489.106	2894
3490.817	2868
3492.526	2906
3494.236	2945
3495.944	2831
3497.652	2871
3499.359	2925
3501.066	2900
3502.775	2892
3504.481	2852
3506.187	2894
3507.893	2889
3509.598	2822
3511.304	2930
3513.009	2913
3514.713	2864
3516.417	2764
3518.12	2831
3519.821	2801
3521.525	2827
3523.228	2802
3524.929	2848
3526.631	2814
3528.33	2852
3530.032	2774
3531.733	2888
3533.433	2881
3535.131	2793
3536.83	2839
3538.529	2786
3540.227	2777
3541.925	2763
3543.623	2779
3545.319	2789
3547.016	2799
3548.712	2791
3550.408	2745
3552.103	2794
3553.798	2754
3555.491	2822
3557.188	2783
3558.88	2785
3560.574	2699
3562.266	2780
3563.959	2761
3565.651	2801
3567.343	2768
3569.035	2768
3570.725	2760
3572.415	2713
3574.106	2775
3575.797	2709
3577.485	2773
3579.174	2669
3580.863	2746
3582.551	2813
3584.238	2678
3585.926	2694
3587.613	2705
3589.3	2696
3590.986	2774
3592.671	2712
3594.357	2673
3596.042	2717
3597.726	2682
3599.41	2666
3601.094	2641
3602.778	2684
3604.461	2717
3606.143	2696
3607.825	2641
3609.507	2655
3611.188	2616
3612.87	2668
3614.551	2613
3616.229	2678
3617.909	2632
3619.589	2574
3621.269	2618
3622.948	2590
3624.625	2640
3626.302	2649
3627.98	2542
3629.657	2646
3631.334	2617
3633.01	2607
3634.686	2696
3636.361	2521
3638.036	2626
3639.712	2588
3641.385	2600
3643.06	2580
3644.732	2586
3646.405	2546
3648.08	2590
3649.751	2557
3651.424	2539
3653.094	2619
3654.766	2564
3656.436	2561
3658.106	2573
3659.777	2541
3661.446	2567
3663.115	2585
3664.783	2573
3666.452	2575
3668.121	2531
3669.788	2592
3671.454	2587
3673.121	2523
3674.789	2457
3676.455	2601
3678.12	2526
3679.784	2536
3681.45	2485
3683.114	2579
3684.779	2529
3686.442	2534
3688.105	2538
3689.768	2513
3691.43	2571
3693.093	2542
3694.754	2524
3696.415	2531
3698.076	2585
3699.736	2516
3701.396	2446
3703.057	2461
3704.716	2456
3706.375	2461
3708.034	2491
3709.692	2475
3711.351	2462
3713.008	2493
3714.665	2480
3716.321	2486
3717.977	2480
3719.634	2444
3721.29	2461
3722.945	2493
3724.598	2470
3726.253	2498
3727.907	2498
3729.561	2453
3731.214	2467
3732.867	2444
3734.518	2458
3736.171	2487
3737.824	2449
3739.474	2407
3741.125	2431
3742.775	2476
3744.425	2436
3746.074	2416
3747.725	2445
3749.373	2476
3751.022	2459
3752.669	2364
3754.318	2458
3755.966	2470
3757.612	2442
3759.259	2412
3760.905	2402
3762.55	2443
3764.197	2445
3765.842	2328
3767.486	2453
3769.131	2334
3770.774	2403
3772.417	2426
3774.061	2456
3775.705	2420
3777.347	2424
3778.988	2352
3780.629	2447
3782.271	2395
3783.912	2337
3785.552	2385
3787.192	2405
3788.831	2403
3790.472	2351
3792.112	2368
3793.75	2346
3795.388	2347
3797.024	2308
3798.661	2364
3800.3	2383
3801.936	2380
3803.572	2388
3805.208	2351
3806.844	2341
3808.48	2403
3810.115	2347
3811.748	2299
3813.382	2428
3815.016	2350
3816.649	2381
3818.283	2394
3819.914	2364
3821.547	2337
3823.178	2366
3824.809	2316
3826.441	2338
3828.072	2324
3829.701	2350
3831.331	2331
3832.96	2287
3834.591	2301
3836.219	2330
3837.847	2301
3839.475	2290
3841.102	2334
3842.729	2305
3844.357	2345
3845.984	2295
3847.609	2294
3849.234	2282
3850.86	2358
3852.485	2327
3854.11	2246
3855.734	2280
3857.357	2296
3858.981	2339
3860.603	2299
3862.227	2277
3863.848	2280
3865.471	2328
3867.092	2341
3868.713	2278
3870.334	2299
3871.954	2319
3873.575	2249
3875.194	2377
3876.813	2354
3878.433	2270
3880.051	2312
3881.669	2289
3883.286	2243
3884.904	2316
3886.52	2332
3888.138	2190
3889.754	2260
3891.37	2257
3892.985	2257
3894.6	2290
3896.216	2229
3897.831	2238
3899.444	2228
3901.058	2282
3902.67	2268
3904.283	2283
3905.897	2236
3907.509	2303
3909.121	2246
3910.731	2227
3912.342	2293
3913.954	2264
3915.563	2294
3917.174	2306
3918.783	2274
3920.391	2220
3922.002	2289
3923.611	2311
3925.218	2225
3926.826	2277
3928.432	2223
3930.039	2217
3931.647	2215
3933.253	2246
3934.859	2222
3936.464	2161
3938.068	2186
3939.675	2266
3941.278	2236
3942.883	2197
3944.486	2187
3946.089	2239
3947.692	2273
3949.295	2188
3950.898	2213
3952.499	2203
3954.1	2196
3955.7	2207
3957.303	2245
3958.903	2185
3960.502	2226
3962.101	2263
3963.7	2193
3965.301	2250
3966.899	2216
3968.497	2239
3970.094	2155
3971.691	2181
3973.288	2185
3974.885	2243
3976.481	2165
3978.077	2177
3979.672	2158
3981.267	2083
3982.863	2142
3984.457	2182
3986.051	2143
3987.645	2116
3989.238	2173
3990.831	2125
3992.425	2166
3994.017	2151
3995.607	2119
3997.199	2154
3998.79	2116
4000.382	2133
4001.973	2222
4003.561	2194
4005.151	2120
4006.741	2135
4008.331	2159
4009.918	2140
4011.507	2114
4013.095	2092
4014.681	2143
4016.269	2172
4017.856	2143
4019.443	2067
4021.028	2096
4022.614	2078
4024.199	2130
4025.785	2048
4027.37	2041
4028.953	2145
4030.536	2092
4032.12	2091
4033.704	2127
4035.287	2146
4036.869	2115
4038.45	2068
4040.032	2119
4041.613	2088
4043.195	2116
4044.776	2152
4046.356	2135
4047.935	2084
4049.515	2080
4051.095	2105
4052.674	2060
4054.251	2096
4055.829	2085
4057.406	2089
4058.985	2064
4060.562	2098
4062.139	2105
4063.715	2051
4065.29	2007
4066.865	2007
4068.442	2038
4070.016	2084
4071.59	2068
4073.164	2052
4074.738	2001
4076.312	2056
4077.885	2031
4079.458	2004
4081.03	2058
4082.602	2007
4084.173	2018
4085.745	2050
4087.315	2021
4088.886	2049
4090.456	1990
4092.026	2045
4093.596	2018
4095.165	2080
4096.734	1981
4098.301	1993
4099.869	2007
4101.437	2026
4103.006	2031
4104.572	2006
4106.139	2017
4107.704	2018
4109.27	2064
4110.837	2033
4112.401	2022
4113.966	2021
4115.53	2052
4117.094	2051
4118.659	1970
4120.223	1961
4121.785	1979
4123.347	1985
4124.909	2021
4126.471	2009
4128.034	2012
4129.595	1989
4131.155	1947
4132.716	1979
4134.275	2022
4135.836	2034
4137.395	1997
4138.955	1993
4140.513	1918
4142.071	1936
4143.628	1988
4145.188	1956
4146.745	1961
4148.302	2022
4149.858	1941
4151.414	1936
4152.971	1934
4154.526	1961
4156.081	2007
4157.635	1993
4159.189	1974
4160.745	1997
4162.298	1920
4163.852	1934
4165.405	1961
4166.957	1917
4168.51	1885
4170.063	1918
4171.614	1959
4173.166	1920
4174.717	1886
4176.267	1904
4177.817	1894
4179.368	1850
4180.917	1911
4182.466	1933
4184.016	1944
4185.564	1883
4187.112	1890
4188.66	1925
4190.207	1921
4191.754	1859
4193.301	1896
4194.848	1906
4196.394	1946
4197.94	1915
4199.484	1891
4201.03	1915
4202.575	1882
4204.12	1895
4205.663	1883
4207.207	1875
4208.75	1848
4210.292	1867
4211.836	1925
4213.378	1878
4214.92	1911
4216.46	1875
4218.002	1912
4219.544	1816
4221.083	1903
4222.625	1910
4224.164	1844
4225.703	1800
4227.244	1863
4228.782	1831
4230.32	1880
4231.857	1905
4233.395	1836
4234.933	1851
4236.471	1843
4238.007	1899
4239.542	1871
4241.078	1881
4242.614	1857
4244.15	1863
4245.685	1882
4247.219	1842
4248.753	1852
4250.287	1855
4251.82	1830
4253.354	1858
4254.887	1868
4256.419	1857
4257.951	1857
4259.483	1864
4261.016	1866
4262.547	1803
4264.078	1864
4265.608	1819
4267.137	1878
4268.668	1862
4270.197	1844
4271.727	1833
4273.254	1856
4274.783	1866
4276.311	1802
4277.84	1836
4279.366	1835
4280.894	1812
4282.42	1875
4283.946	1857
4285.473	1814
4286.998	1759
4288.523	1854
4290.047	1845
4291.572	1842
4293.096	1799
4294.622	1806
4296.144	1832
4297.668	1817
4299.19	1773
4300.713	1775
4302.236	1762
4303.758	1807
4305.279	1804
4306.799	1841
4308.321	1851
4309.842	1771
4311.361	1815
4312.882	1739
4314.401	1789
