400.0961	2403
402.6185	2482
405.1424	2423
407.6635	2491
410.1838	2499
412.7035	2491
415.2225	2479
417.7388	2553
420.2585	2539
422.7754	2600
425.2917	2661
427.8072	2682
430.3221	2657
432.8363	2631
435.3498	2651
437.8626	2653
440.3727	2609
442.8841	2631
445.3969	2618
447.907	2662
450.4142	2581
452.9229	2566
455.4289	2541
457.9362	2587
460.4449	2598
462.9488	2538
465.454	2592
467.9566	2625
470.4604	2503
472.9637	2568
475.4662	2548
477.966	2473
480.4671	2488
482.9656	2528
485.4633	2569
487.9645	2502
490.4608	2545
492.9566	2501
495.4536	2546
497.948	2538
500.4437	2539
502.9387	2562
505.431	2562
507.9226	2556
510.4136	2588
512.9079	2579
515.3975	2561
517.8864	2589
520.3746	2671
522.8622	2576
525.3491	2614
527.8394	2576
530.3249	2547
532.8098	2640
535.2939	2625
537.7774	2640
540.2623	2578
542.7444	2651
545.2259	2621
547.7067	2642
550.1868	2662
552.6683	2643
555.147	2597
557.6231	2700
560.1005	2569
562.5773	2698
565.0534	2655
567.5308	2638
570.0056	2672
572.4776	2718
574.951	2784
577.4237	2641
579.8978	2745
582.3671	2773
584.8378	2824
587.3079	2810
589.7773	2855
592.244	2879
594.714	2828
597.1793	2774
599.6461	2739
602.1121	2767
604.5754	2722
607.0421	2701
609.5042	2722
611.9675	2760
614.4282	2760
616.8902	2724
619.3515	2722
621.8122	2714
624.2702	2672
626.7296	2635
629.1863	2639
631.6423	2691
634.1017	2669
636.5563	2637
639.0104	2743
641.4658	2587
643.9185	2677
646.3725	2588
648.8239	2766
651.2766	2685
653.7266	2652
656.176	2654
658.6247	2727
661.0748	2700
663.5242	2673
665.9709	2712
668.417	2725
670.8624	2676
673.3092	2714
675.7533	2677
678.1968	2661
680.6395	2691
683.0817	2754
685.5251	2739
687.9659	2753
690.4061	2699
692.8456	2772
695.2844	2802
697.7226	2736
700.1621	2770
702.599	2796
705.0332	2798
707.4688	2717
709.9036	2814
712.3399	2725
714.7735	2800
717.2044	2755
719.6367	2825
722.0683	2757
724.4993	2779
726.9296	2789
729.3593	2834
731.7883	2788
734.2147	2892
736.6423	2790
739.0714	2838
741.4958	2847
743.9216	2882
746.3447	2861
748.7691	2901
751.1929	2941
753.616	2916
756.0366	2835
758.4584	2939
760.8776	2986
763.2982	2901
765.718	2921
768.1373	3016
770.5539	2893
772.9698	2881
775.3871	2889
777.8038	2929
780.2178	2936
782.6332	2954
785.0459	2957
787.458	2954
789.8714	2903
792.2842	2907
794.6943	2920
797.1038	2934
799.5127	2955
801.9209	2890
804.3324	2966
806.7393	3015
809.1456	2983
811.5513	2974
813.9562	3003
816.3625	3042
818.7663	2924
821.1693	2990
823.5718	2972
825.9735	3049
828.3746	2954
830.7771	3038
833.177	3003
835.5762	3018
837.9747	2961
840.3727	3026
842.772	2910
845.1666	3052
847.5626	3162
849.958	3118
852.3527	3144
854.7488	3130
857.1403	3090
859.5331	3145
861.9253	3060
864.3168	3087
866.7057	3126
869.098	3099
871.4876	3079
873.8746	3112
876.263	3087
878.6487	3094
881.0378	3096
883.4243	3065
885.8081	3065
888.1933	3107
890.5759	3073
892.9598	3136
895.343	3013
897.7256	3070
900.1057	3092
902.4871	3136
904.8659	3181
907.246	3124
909.6254	3109
912.0023	3131
914.3786	3150
916.7562	3262
919.1331	3278
921.5074	3281
923.8831	3363
926.2562	3422
928.6287	3389
931.0005	3317
933.3757	3270
935.7462	3355
938.1162	3435
940.4855	3402
942.8542	3516
945.2242	3654
947.5916	3680
949.9584	3823
952.3266	4004
954.6921	4257
957.0571	4563
959.4233	4875
961.787	4930
964.15	4862
966.5125	4683
968.8742	4315
971.2354	3976
973.5959	3830
975.9559	3501
978.3151	3527
980.6738	3458
983.0338	3259
985.3912	3267
987.7461	3284
990.1022	3137
992.4578	3212
994.8127	3190
997.1689	3217
999.5207	3306
1001.874	3232
1004.226	3309
1006.576	3192
1008.929	3265
1011.28	3218
1013.628	3238
1015.977	3270
1018.324	3265
1020.674	3230
1023.019	3208
1025.366	3300
1027.713	3211
1030.056	3185
1032.399	3231
1034.746	3308
1037.087	3325
1039.431	3299
1041.771	3286
1044.113	3327
1046.454	3301
1048.793	3312
1051.133	3318
1053.471	3406
1055.807	3350
1058.146	3372
1060.483	3296
1062.818	3395
1065.153	3428
1067.489	3389
1069.822	3494
1072.156	3448
1074.488	3417
1076.82	3506
1079.15	3396
1081.48	3385
1083.814	3434
1086.143	3328
1088.471	3296
1090.799	3288
1093.126	3287
1095.452	3242
1097.78	3248
1100.105	3266
1102.43	3311
1104.754	3221
1107.077	3239
1109.4	3290
1111.722	3255
1114.044	3233
1116.365	3291
1118.685	3215
1121.005	3217
1123.324	3265
1125.643	3241
1127.961	3164
1130.278	3232
1132.595	3221
1134.911	3149
1137.226	3231
1139.541	3285
1141.854	3314
1144.167	3191
1146.482	3219
1148.793	3178
1151.105	3233
1153.414	3281
1155.725	3091
1158.033	3258
1160.344	3255
1162.651	3241
1164.959	3248
1167.265	3244
1169.572	3233
1171.878	3216
1174.184	3287
1176.488	3277
1178.79	3257
1181.094	3340
1183.396	3268
1185.699	3228
1188.001	3274
1190.301	3286
1192.6	3182
1194.9	3281
1197.2	3239
1199.497	3218
1201.794	3254
1204.09	3273
1206.387	3212
1208.684	3318
1210.978	3325
1213.272	3272
1215.565	3289
1217.858	3235
1220.15	3291
1222.443	3305
1224.734	3221
1227.024	3304
1229.313	3346
1231.602	3384
1233.892	3356
1236.18	3383
1238.467	3405
1240.754	3485
1243.04	3409
1245.325	3423
1247.612	3508
1249.896	3459
1252.178	3478
1254.461	3467
1256.743	3424
1259.027	3413
1261.308	3523
1263.587	3439
1265.867	3464
1268.146	3445
1270.425	3490
1272.703	3460
1274.981	3451
1277.256	3462
1279.532	3498
1281.808	3456
1284.083	3495
1286.358	3435
1288.63	3499
1290.904	3306
1293.175	3356
1295.449	3414
1297.719	3406
1299.99	3302
1302.259	3365
1304.529	3355
1306.798	3393
1309.065	3356
1311.333	3420
1313.599	3372
1315.866	3361
1318.131	3352
1320.396	3405
1322.66	3416
1324.925	3394
1327.187	3394
1329.448	3360
1331.711	3479
1333.974	3416
1336.234	3346
1338.493	3381
1340.752	3356
1343.01	3364
1345.269	3430
1347.526	3397
1349.784	3323
1352.04	3360
1354.295	3346
1356.552	3290
1358.806	3337
1361.059	3334
1363.312	3385
1365.564	3324
1367.818	3351
1370.069	3417
1372.318	3392
1374.568	3338
1376.817	3427
1379.066	3386
1381.316	3340
1383.564	3363
1385.809	3456
1388.056	3412
1390.301	3455
1392.549	3523
1394.793	3496
1397.036	3499
1399.279	3614
1401.522	3544
1403.763	3599
1406.007	3530
1408.248	3570
1410.487	3579
1412.727	3581
1414.965	3454
1417.205	3557
1419.442	3550
1421.68	3559
1423.915	3530
1426.152	3529
1428.388	3470
1430.623	3565
1432.857	3689
1435.091	3542
1437.323	3574
1439.556	3602
1441.789	3598
1444.019	3551
1446.25	3568
1448.48	3636
1450.708	3620
1452.938	3639
1455.167	3736
1457.394	3765
1459.62	3740
1461.846	3571
1464.073	3677
1466.299	3623
1468.523	3649
1470.746	3677
1472.969	3463
1475.191	3536
1477.415	3507
1479.636	3438
1481.858	3396
1484.078	3392
1486.298	3398
1488.518	3416
1490.736	3369
1492.954	3399
1495.169	3304
1497.386	3363
1499.602	3376
1501.819	3365
1504.034	3329
1506.248	3325
1508.462	3306
1510.675	3386
1512.888	3245
1515.1	3312
1517.311	3370
1519.522	3378
1521.732	3273
1523.942	3273
1526.151	3359
1528.36	3365
1530.566	3365
1532.773	3311
1534.98	3415
1537.187	3300
1539.392	3407
1541.596	3320
1543.801	3342
1546.005	3402
1548.208	3332
1550.411	3385
1552.612	3341
1554.814	3384
1557.013	3383
1559.212	3361
1561.414	3416
1563.612	3360
1565.811	3429
1568.007	3345
1570.203	3414
1572.403	3319
1574.598	3432
1576.792	3443
1578.988	3450
1581.181	3433
1583.376	3459
1585.568	3437
1587.761	3403
1589.952	3434
1592.143	3448
1594.333	3396
1596.524	3423
1598.715	3466
1600.903	3512
1603.091	3433
1605.278	3481
1607.466	3516
1609.652	3454
1611.838	3524
1614.023	3499
1616.207	3445
1618.391	3537
1620.576	3455
1622.759	3394
1624.941	3470
1627.123	3501
1629.304	3545
1631.484	3507
1633.664	3584
1635.844	3537
1638.022	3568
1640.201	3624
1642.38	3544
1644.556	3653
1646.732	3602
1648.908	3677
1651.084	3649
1653.257	3623
1655.433	3642
1657.607	3640
1659.779	3681
1661.951	3603
1664.122	3642
1666.295	3725
1668.467	3673
1670.635	3729
1672.805	3707
1674.973	3701
1677.142	3664
1679.31	3642
1681.478	3619
1683.644	3697
1685.81	3700
1687.975	3623
1690.142	3633
1692.305	3545
1694.468	3543
1696.632	3486
1698.794	3493
1700.957	3482
1703.119	3532
1705.279	3526
1707.439	3506
1709.598	3483
1711.758	3432
1713.917	3414
1716.075	3374
1718.231	3553
1720.388	3470
1722.543	3449
1724.702	3479
1726.856	3482
1729.01	3581
1731.164	3428
1733.317	3471
1735.471	3396
1737.623	3388
1739.774	3436
1741.925	3456
1744.075	3430
1746.225	3388
1748.376	3453
1750.524	3447
1752.672	3423
1754.82	3429
1756.965	3448
1759.113	3390
1761.259	3493
1763.405	3426
1765.549	3510
1767.694	3371
1769.836	3486
1771.981	3382
1774.123	3430
1776.264	3467
1778.405	3443
1780.546	3466
1782.687	3481
1784.827	3452
1786.966	3491
1789.103	3498
1791.242	3491
1793.381	3484
1795.517	3538
1797.653	3542
1799.788	3434
1801.923	3475
1804.057	3457
1806.193	3521
1808.326	3461
1810.457	3494
1812.59	3491
1814.721	3450
1816.855	3434
1818.984	3513
1821.113	3518
1823.244	3485
1825.372	3420
1827.499	3468
1829.63	3398
1831.756	3491
1833.882	3404
1836.007	3538
1838.132	3418
1840.26	3491
1842.384	3386
1844.507	3457
1846.63	3507
1848.752	3441
1850.875	3421
1852.996	3430
1855.118	3496
1857.238	3558
1859.358	3387
1861.477	3485
1863.597	3446
1865.715	3411
1867.832	3492
1869.948	3480
1872.064	3424
1874.181	3487
1876.297	3520
1878.411	3486
1880.526	3524
1882.639	3404
1884.752	3474
1886.865	3540
1888.977	3502
1891.089	3445
1893.2	3491
1895.308	3524
1897.42	3497
1899.53	3524
1901.639	3542
1903.745	3526
1905.853	3399
1907.962	3420
1910.067	3490
1912.174	3532
1914.278	3530
1916.383	3423
1918.486	3464
1920.592	3511
1922.694	3427
1924.797	3474
1926.898	3469
1929	3531
1931.102	3562
1933.203	3465
1935.301	3572
1937.401	3537
1939.499	3505
1941.598	3465
1943.697	3477
1945.793	3453
1947.888	3633
1949.985	3528
1952.08	3562
1954.176	3452
1956.269	3487
1958.364	3488
1960.457	3544
1962.549	3502
1964.642	3528
1966.733	3580
1968.823	3562
1970.913	3498
1973.005	3547
1975.093	3546
1977.184	3549
1979.271	3501
1981.359	3574
1983.446	3513
1985.532	3565
1987.619	3530
1989.705	3504
1991.789	3570
1993.874	3454
1995.956	3442
1998.041	3511
2000.123	3496
2002.206	3571
2004.287	3568
2006.368	3531
2008.449	3435
2010.529	3476
2012.609	3566
2014.688	3495
2016.766	3540
2018.843	3535
2020.922	3465
2022.999	3534
2025.074	3444
2027.15	3486
2029.225	3484
2031.299	3489
2033.375	3598
2035.447	3515
2037.52	3441
2039.592	3501
2041.664	3564
2043.736	3566
2045.807	3451
2047.876	3495
2049.947	3506
2052.015	3466
2054.086	3393
2056.153	3494
2058.221	3528
2060.288	3530
2062.353	3550
2064.42	3510
2066.486	3557
2068.55	3600
2070.614	3543
2072.678	3526
2074.741	3523
2076.805	3506
2078.866	3609
2080.929	3554
2082.99	3538
2085.049	3553
2087.109	3586
2089.17	3443
2091.228	3497
2093.286	3512
2095.344	3487
2097.4	3525
2099.46	3547
2101.516	3592
2103.572	3535
2105.626	3514
2107.679	3409
2109.735	3533
2111.788	3495
2113.841	3539
2115.894	3436
2117.945	3559
2119.997	3446
2122.049	3472
2124.1	3578
2126.148	3544
2128.197	3517
2130.246	3510
2132.296	3485
2134.342	3492
2136.39	3485
2138.437	3570
2140.483	3542
2142.527	3548
2144.574	3580
2146.619	3450
2148.661	3462
2150.705	3500
2152.747	3522
2154.792	3506
2156.832	3487
2158.874	3508
2160.915	3548
2162.954	3505
2164.995	3548
2167.034	3509
2169.072	3521
2171.111	3444
2173.148	3457
2175.186	3558
2177.223	3495
2179.258	3388
2181.294	3471
2183.328	3466
2185.362	3498
2187.398	3444
2189.431	3533
2191.463	3540
2193.495	3481
2195.528	3476
2197.56	3536
2199.59	3425
2201.62	3496
2203.649	3523
2205.678	3527
2207.708	3366
2209.737	3439
2211.764	3522
2213.791	3445
2215.817	3535
2217.843	3420
2219.87	3480
2221.895	3489
2223.919	3457
2225.942	3409
2227.966	3488
2229.988	3484
2232.012	3345
2234.032	3429
2236.054	3364
2238.074	3363
2240.095	3476
2242.116	3448
2244.135	3475
2246.153	3472
2248.171	3374
2250.188	3348
2252.208	3431
2254.223	3482
2256.239	3500
2258.255	3380
2260.269	3564
2262.283	3548
2264.3	3457
2266.312	3522
2268.325	3461
2270.336	3435
2272.349	3416
2274.362	3585
2276.372	3458
2278.383	3460
2280.392	3432
2282.402	3429
2284.409	3503
2286.418	3411
2288.427	3510
2290.433	3405
2292.441	3484
2294.446	3489
2296.453	3469
2298.459	3473
2300.463	3420
2302.466	3442
2304.471	3414
2306.475	3488
2308.477	3451
2310.478	3449
2312.481	3449
2314.481	3367
2316.481	3427
2318.482	3438
2320.482	3412
2322.48	3472
2324.48	3417
2326.478	3483
2328.476	3475
2330.473	3516
2332.469	3487
2334.465	3469
2336.46	3491
2338.454	3373
2340.45	3401
2342.444	3459
2344.437	3432
2346.43	3317
2348.421	3486
2350.414	3375
2352.405	3512
2354.396	3495
2356.386	3409
2358.376	3404
2360.366	3416
2362.355	3400
2364.343	3448
2366.331	3392
2368.317	3427
2370.304	3405
2372.292	3418
2374.278	3429
2376.262	3435
2378.247	3381
2380.23	3284
2382.216	3419
2384.199	3357
2386.181	3437
2388.163	3353
2390.144	3355
2392.127	3361
2394.107	3347
2396.087	3357
2398.066	3353
2400.046	3407
2402.023	3427
2404.004	3328
2405.981	3460
2407.957	3346
2409.934	3380
2411.91	3321
2413.886	3311
2415.862	3407
2417.836	3374
2419.809	3309
2421.784	3362
2423.756	3364
2425.73	3349
2427.701	3414
2429.672	3431
2431.644	3288
2433.615	3329
2435.586	3328
2437.555	3442
2439.523	3301
2441.491	3395
2443.459	3387
2445.428	3420
2447.395	3278
2449.361	3385
2451.327	3311
2453.292	3376
2455.257	3360
2457.223	3418
2459.187	3314
2461.15	3327
2463.113	3435
2465.076	3335
2467.039	3420
2468.999	3353
2470.96	3365
2472.921	3275
2474.881	3277
2476.841	3400
2478.8	3327
2480.759	3346
2482.717	3305
2484.675	3350
2486.63	3342
2488.589	3334
2490.545	3379
2492.5	3348
2494.455	3370
2496.408	3296
2498.364	3304
2500.318	3348
2502.27	3328
2504.223	3274
2506.174	3321
2508.126	3303
2510.078	3292
2512.03	3322
2513.979	3362
2515.927	3362
2517.877	3357
2519.826	3351
2521.775	3361
2523.722	3394
2525.668	3325
2527.616	3296
2529.561	3338
2531.508	3248
2533.452	3305
2535.398	3306
2537.342	3279
2539.284	3255
2541.229	3332
2543.173	3313
2545.114	3288
2547.055	3298
2548.996	3288
2550.938	3358
2552.878	3347
2554.817	3352
2556.756	3406
2558.695	3313
2560.633	3237
2562.572	3247
2564.509	3353
2566.445	3372
2568.382	3340
2570.317	3288
2572.254	3321
2574.189	3319
2576.123	3299
2578.057	3291
2579.99	3312
2581.923	3280
2583.855	3382
2585.788	3308
2587.719	3350
2589.65	3343
2591.579	3360
2593.511	3344
2595.44	3248
2597.37	3356
2599.297	3337
2601.225	3294
2603.153	3333
2605.08	3281
2607.007	3323
2608.932	3352
2610.858	3353
2612.782	3379
2614.709	3336
2616.632	3228
2618.556	3351
2620.478	3281
2622.401	3338
2624.324	3347
2626.247	3323
2628.167	3429
2630.088	3344
2632.008	3301
2633.928	3358
2635.848	3260
2637.766	3349
2639.684	3358
2641.603	3430
2643.519	3351
2645.437	3374
2647.353	3332
2649.27	3310
2651.184	3387
2653.099	3334
2655.014	3322
2656.928	3366
2658.842	3366
2660.755	3338
2662.667	3368
2664.579	3361
2666.491	3391
2668.402	3388
2670.312	3340
2672.222	3213
2674.132	3373
2676.042	3335
2677.951	3340
2679.859	3372
2681.766	3354
2683.674	3307
2685.582	3366
2687.488	3315
2689.392	3354
2691.298	3271
2693.202	3385
2695.107	3293
2697.012	3372
2698.914	3288
2700.817	3267
2702.72	3269
2704.622	3281
2706.524	3307
2708.425	3264
2710.326	3288
2712.225	3309
2714.125	3279
2716.024	3375
2717.923	3312
2719.822	3262
2721.719	3300
2723.616	3263
2725.512	3279
2727.41	3273
2729.305	3310
2731.201	3238
2733.095	3340
2734.99	3325
2736.884	3293
2738.778	3314
2740.67	3285
2742.562	3389
2744.455	3326
2746.346	3224
2748.238	3311
2750.129	3266
2752.018	3385
2753.907	3267
2755.797	3328
2757.687	3323
2759.575	3273
2761.462	3337
2763.349	3281
2765.237	3184
2767.124	3379
2769.009	3378
2770.894	3248
2772.779	3275
2774.663	3338
2776.547	3363
2778.431	3287
2780.314	3228
2782.197	3297
2784.078	3287
2785.96	3281
2787.842	3333
2789.723	3272
2791.603	3252
2793.483	3293
2795.362	3220
2797.241	3268
2799.121	3279
2800.997	3294
2802.874	3255
2804.751	3320
2806.628	3271
2808.506	3279
2810.38	3248
2812.255	3307
2814.13	3307
2816.003	3346
2817.878	3317
2819.752	3306
2821.623	3235
2823.496	3298
2825.368	3366
2827.238	3347
2829.111	3287
2830.98	3293
2832.851	3288
2834.719	3329
2836.589	3331
2838.458	3320
2840.327	3336
2842.193	3335
2844.061	3433
2845.927	3370
2847.794	3335
2849.66	3399
2851.525	3410
2853.39	3326
2855.254	3368
2857.117	3427
2858.983	3483
2860.845	3453
2862.707	3432
2864.569	3463
2866.431	3543
2868.293	3551
2870.154	3594
2872.013	3640
2873.873	3709
2875.733	3734
2877.592	3873
2879.451	3903
2881.309	3867
2883.166	3877
2885.022	3882
2886.879	4009
2888.736	3944
2890.591	3983
2892.446	3918
2894.301	3945
2896.155	3962
2898.009	3995
2899.863	3937
2901.716	3912
2903.568	3975
2905.419	3976
2907.27	3904
2909.123	4006
2910.973	3981
2912.824	4063
2914.673	4078
2916.521	4064
2918.372	4198
2920.22	4177
2922.067	4254
2923.914	4315
2925.761	4371
2927.607	4332
2929.455	4396
2931.301	4490
2933.144	4594
2934.99	4546
2936.833	4709
2938.678	4736
2940.522	4716
2942.364	4831
2944.207	4973
2946.048	4920
2947.891	5022
2949.731	5016
2951.571	5008
2953.412	4929
2955.25	4829
2957.09	4764
2958.93	4687
2960.767	4717
2962.606	4550
2964.443	4589
2966.279	4496
2968.116	4502
2969.953	4415
2971.788	4296
2973.623	4322
2975.457	4300
2977.292	4215
2979.127	4231
2980.959	4089
2982.792	4116
2984.624	4080
2986.455	4115
2988.288	4052
2990.119	4055
2991.949	4020
2993.779	3904
2995.608	3902
2997.439	3806
2999.268	3796
3001.096	3840
3002.923	3736
3004.751	3687
3006.578	3732
3008.406	3616
3010.232	3570
3012.057	3559
3013.883	3523
3015.706	3528
3017.532	3455
3019.356	3477
3021.179	3424
3023.002	3372
3024.823	3329
3026.646	3313
3028.469	3284
3030.289	3303
3032.11	3172
3033.93	3344
3035.749	3365
3037.57	3212
3039.39	3276
3041.207	3242
3043.026	3289
3044.842	3274
3046.661	3262
3048.477	3284
3050.294	3269
3052.109	3260
3053.925	3179
3055.739	3259
3057.555	3247
3059.368	3210
3061.181	3267
3062.995	3215
3064.807	3239
3066.62	3210
3068.433	3207
3070.243	3255
3072.054	3276
3073.865	3283
3075.675	3206
3077.485	3245
3079.293	3169
3081.102	3223
3082.911	3157
3084.719	3091
3086.527	3138
3088.333	3150
3090.139	3176
3091.945	3244
3093.75	3153
3095.557	3132
3097.361	3218
3099.165	3144
3100.969	3173
3102.772	3141
3104.575	3174
3106.379	3153
3108.181	3089
3109.982	3114
3111.783	3209
3113.584	3136
3115.386	3215
3117.186	3082
3118.985	3164
3120.783	3098
3122.582	3130
3124.381	3094
3126.179	3120
3127.975	3061
3129.772	3094
3131.569	3091
3133.365	3129
3135.161	3084
3136.956	3132
3138.751	3064
3140.544	3088
3142.338	3172
3144.132	3034
3145.925	3124
3147.717	3123
3149.509	3092
3151.301	3109
3153.091	3132
3154.884	3016
3156.673	3111
3158.462	3088
3160.252	3073
3162.041	3154
3163.831	3020
3165.618	3076
3167.405	3126
3169.193	3064
3170.979	3081
3172.767	3139
3174.553	3078
3176.338	3076
3178.123	2977
3179.907	3033
3181.692	3023
3183.477	3148
3185.259	3082
3187.042	3102
3188.824	3072
3190.607	3055
3192.389	3034
3194.17	3063
3195.951	3074
3197.73	3049
3199.51	3111
3201.289	2985
3203.07	3165
3204.848	3160
3206.626	3055
3208.403	3111
3210.18	2990
3211.959	3056
3213.735	3089
3215.511	3063
3217.285	3113
3219.06	3094
3220.836	3079
3222.611	3157
3224.384	3111
3226.158	3113
3227.929	3054
3229.702	3134
3231.476	3069
3233.248	3101
3235.018	3178
3236.789	3106
3238.56	3052
3240.33	3096
3242.1	3132
3243.869	3062
3245.637	3130
3247.405	3104
3249.172	3079
3250.941	3077
3252.707	3094
3254.474	3140
3256.24	3082
3258.006	3078
3259.772	3104
3261.537	3173
3263.301	3145
3265.065	3151
3266.828	3121
3268.592	3122
3270.355	3150
3272.117	3171
3273.878	3091
3275.64	3145
3277.401	3227
3279.162	3132
3280.922	3169
3282.682	3078
3284.441	3154
3286.199	3123
3287.959	3135
3289.716	3169
3291.475	3133
3293.232	3212
3294.988	3177
3296.744	3108
3298.501	3113
3300.256	3233
3302.011	3154
3303.766	3118
3305.52	3161
3307.275	3173
3309.028	3153
3310.781	3161
3312.533	3207
3314.285	3107
3316.038	3080
3317.789	3092
3319.54	3180
3321.289	3086
3323.039	3218
3324.789	3143
3326.539	3190
3328.288	3207
3330.035	3169
3331.783	3139
3333.531	3163
3335.28	3133
3337.025	3153
3338.771	3179
3340.518	3218
3342.262	3139
3344.009	3124
3345.753	3140
3347.497	3128
3349.24	3113
3350.983	3121
3352.726	3108
3354.469	3099
3356.212	3095
3357.952	3124
3359.694	3123
3361.434	3055
3363.176	3091
3364.916	3112
3366.654	3065
3368.394	3065
3370.132	3074
3371.871	3017
3373.61	3063
3375.346	3044
3377.083	3101
3378.82	3077
3380.556	3115
3382.292	3002
3384.027	2981
3385.763	3036
3387.497	3023
3389.231	3021
3390.965	3001
3392.698	3079
3394.431	3036
3396.164	3051
3397.896	3099
3399.627	3036
3401.36	3011
3403.09	3060
3404.82	3011
3406.55	3042
3408.279	3001
3410.01	3010
3411.738	2970
3413.467	3029
3415.194	2995
3416.92	2983
3418.647	3028
3420.375	2985
3422.102	2987
3423.827	2957
3425.553	2976
3427.277	3062
3429.003	2943
3430.727	3019
3432.451	2952
3434.173	2938
3435.896	2966
3437.62	2948
3439.343	3034
3441.063	2986
3442.785	2935
3444.505	2921
3446.226	2948
3447.948	3008
3449.666	2924
3451.386	2866
3453.104	2929
3454.823	2924
3456.541	2964
3458.259	2928
3459.976	2913
3461.693	2826
3463.408	2953
3465.125	2903
3466.841	2844
3468.556	2915
3470.271	2837
3471.985	2868
3473.698	2841
3475.414	2915
3477.126	2887
3478.838	2827
3480.55	2790
3482.263	2843
3483.975	2814
3485.686	2818
3487.396	2780
3489.106	2881
3490.817	2837
3492.526	2816
3494.236	2748
3495.944	2865
3497.652	2810
3499.359	2794
3501.066	2860
3502.775	2822
3504.481	2720
3506.187	2787
3507.893	2719
3509.598	2778
3511.304	2790
3513.009	2809
3514.713	2790
3516.417	2767
3518.12	2706
3519.821	2884
3521.525	2756
3523.228	2797
3524.929	2746
3526.631	2648
3528.33	2774
3530.032	2746
3531.733	2684
3533.433	2718
3535.131	2748
3536.83	2717
3538.529	2743
3540.227	2719
3541.925	2764
3543.623	2694
3545.319	2690
3547.016	2673
3548.712	2573
3550.408	2667
3552.103	2777
3553.798	2696
3555.491	2715
3557.188	2640
3558.88	2616
3560.574	2645
3562.266	2669
3563.959	2708
3565.651	2607
3567.343	2628
3569.035	2626
3570.725	2586
3572.415	2581
3574.106	2627
3575.797	2565
3577.485	2603
3579.174	2628
3580.863	2644
3582.551	2699
3584.238	2627
3585.926	2620
3587.613	2618
3589.3	2672
3590.986	2595
3592.671	2569
3594.357	2578
3596.042	2553
3597.726	2525
3599.41	2539
3601.094	2570
3602.778	2550
3604.461	2533
3606.143	2520
3607.825	2541
3609.507	2552
3611.188	2522
3612.87	2511
3614.551	2499
3616.229	2504
3617.909	2511
3619.589	2536
3621.269	2558
3622.948	2532
3624.625	2501
3626.302	2448
3627.98	2516
3629.657	2509
3631.334	2525
3633.01	2455
3634.686	2506
3636.361	2475
3638.036	2385
3639.712	2436
3641.385	2449
3643.06	2488
3644.732	2424
3646.405	2523
3648.08	2403
3649.751	2427
3651.424	2483
3653.094	2427
3654.766	2400
3656.436	2422
3658.106	2436
3659.777	2374
3661.446	2419
3663.115	2383
3664.783	2453
3666.452	2441
3668.121	2409
3669.788	2390
3671.454	2406
3673.121	2357
3674.789	2408
3676.455	2335
3678.12	2432
3679.784	2370
3681.45	2421
3683.114	2375
3684.779	2414
3686.442	2351
3688.105	2332
3689.768	2367
3691.43	2322
3693.093	2314
3694.754	2389
3696.415	2380
3698.076	2320
3699.736	2389
3701.396	2372
3703.057	2292
3704.716	2300
3706.375	2429
3708.034	2304
3709.692	2366
3711.351	2299
3713.008	2433
3714.665	2281
3716.321	2347
3717.977	2348
3719.634	2382
3721.29	2318
3722.945	2357
3724.598	2282
3726.253	2317
3727.907	2355
3729.561	2307
3731.214	2358
3732.867	2313
3734.518	2313
3736.171	2285
3737.824	2312
3739.474	2347
3741.125	2375
3742.775	2332
3744.425	2324
3746.074	2309
3747.725	2323
3749.373	2325
3751.022	2295
3752.669	2324
3754.318	2352
3755.966	2263
3757.612	2310
3759.259	2324
3760.905	2268
3762.55	2303
3764.197	2274
3765.842	2293
3767.486	2272
3769.131	2295
3770.774	2315
3772.417	2307
3774.061	2271
3775.705	2280
3777.347	2289
3778.988	2293
3780.629	2254
3782.271	2347
3783.912	2289
3785.552	2290
3787.192	2277
3788.831	2189
3790.472	2217
3792.112	2271
3793.75	2249
3795.388	2235
3797.024	2288
3798.661	2203
3800.3	2263
3801.936	2179
3803.572	2162
3805.208	2231
3806.844	2240
3808.48	2303
3810.115	2225
3811.748	2210
3813.382	2229
3815.016	2185
3816.649	2209
3818.283	2200
3819.914	2233
3821.547	2203
3823.178	2232
3824.809	2214
3826.441	2235
3828.072	2217
3829.701	2223
3831.331	2187
3832.96	2199
3834.591	2189
3836.219	2219
3837.847	2213
3839.475	2276
3841.102	2153
3842.729	2204
3844.357	2229
3845.984	2165
3847.609	2141
3849.234	2174
3850.86	2153
3852.485	2220
3854.11	2183
3855.734	2166
3857.357	2103
3858.981	2191
3860.603	2182
3862.227	2141
3863.848	2232
3865.471	2236
3867.092	2138
3868.713	2187
3870.334	2190
3871.954	2188
3873.575	2216
3875.194	2143
3876.813	2167
3878.433	2173
3880.051	2127
3881.669	2136
3883.286	2181
3884.904	2233
3886.52	2078
3888.138	2158
3889.754	2213
3891.37	2213
3892.985	2090
3894.6	2103
3896.216	2196
3897.831	2122
3899.444	2176
3901.058	2158
3902.67	2158
3904.283	2117
3905.897	2172
3907.509	2177
3909.121	2132
3910.731	2114
3912.342	2107
3913.954	2171
3915.563	2177
3917.174	2131
3918.783	2129
3920.391	2129
3922.002	2142
3923.611	2134
3925.218	2049
3926.826	2075
3928.432	2105
3930.039	2101
3931.647	2179
3933.253	2140
3934.859	2098
3936.464	2192
3938.068	2101
3939.675	2121
3941.278	2099
3942.883	2104
3944.486	2126
3946.089	2151
3947.692	2048
3949.295	2086
3950.898	2111
3952.499	2071
3954.1	2134
3955.7	2109
3957.303	2142
3958.903	2111
3960.502	2075
3962.101	2108
3963.7	2097
3965.301	2074
3966.899	2119
3968.497	2057
3970.094	2108
3971.691	2042
3973.288	2102
3974.885	2094
3976.481	2046
3978.077	2112
3979.672	2067
3981.267	2065
3982.863	2053
3984.457	2057
3986.051	1978
3987.645	2059
3989.238	2088
3990.831	2066
3992.425	2027
3994.017	2072
3995.607	2011
3997.199	2034
3998.79	2047
4000.382	2065
4001.973	2089
4003.561	2013
4005.151	2100
4006.741	2000
4008.331	2031
4009.918	2060
4011.507	2007
4013.095	1981
4014.681	2037
4016.269	1994
4017.856	2002
4019.443	2052
4021.028	1982
4022.614	1950
4024.199	2013
4025.785	2000
4027.37	1995
4028.953	2009
4030.536	2028
4032.12	1993
4033.704	1993
4035.287	1959
4036.869	1977
4038.45	1987
4040.032	1972
4041.613	1948
4043.195	1974
4044.776	2017
4046.356	1939
4047.935	1982
4049.515	2015
4051.095	2057
4052.674	1920
4054.251	1996
4055.829	1911
4057.406	1959
4058.985	1997
4060.562	1915
4062.139	1975
4063.715	1900
4065.29	1957
4066.865	1988
4068.442	1928
4070.016	1964
4071.59	1951
4073.164	1937
4074.738	1935
4076.312	2018
4077.885	1972
4079.458	1918
4081.03	2000
4082.602	1911
4084.173	1960
4085.745	1927
4087.315	1946
4088.886	1942
4090.456	1903
4092.026	2009
4093.596	1934
4095.165	1960
4096.734	1922
4098.301	1986
4099.869	1904
4101.437	1930
4103.006	1914
4104.572	1929
4106.139	1935
4107.704	1931
4109.27	1880
4110.837	1878
4112.401	1902
4113.966	1974
4115.53	1934
4117.094	1899
4118.659	1905
4120.223	1914
4121.785	1918
4123.347	1906
4124.909	1927
4126.471	1950
4128.034	1886
4129.595	1890
4131.155	1895
4132.716	1860
4134.275	1917
4135.836	1866
4137.395	1877
4138.955	1891
4140.513	1915
4142.071	1899
4143.628	1880
4145.188	1930
4146.745	1918
4148.302	1891
4149.858	1849
4151.414	1909
4152.971	1879
4154.526	1874
4156.081	1925
4157.635	1842
4159.189	1853
4160.745	1851
4162.298	1864
4163.852	1876
4165.405	1912
4166.957	1843
4168.51	1824
4170.063	1873
4171.614	1875
4173.166	1866
4174.717	1856
4176.267	1851
4177.817	1794
4179.368	1844
4180.917	1879
4182.466	1848
4184.016	1815
4185.564	1856
4187.112	1777
4188.66	1873
4190.207	1792
4191.754	1878
4193.301	1818
4194.848	1846
4196.394	1798
4197.94	1841
4199.484	1829
4201.03	1801
4202.575	1825
4204.12	1856
4205.663	1834
4207.207	1819
4208.75	1823
4210.292	1784
4211.836	1835
4213.378	1756
4214.92	1807
4216.46	1841
4218.002	1852
4219.544	1776
4221.083	1814
4222.625	1857
4224.164	1785
4225.703	1826
4227.244	1829
4228.782	1774
4230.32	1836
4231.857	1764
4233.395	1815
4234.933	1802
4236.471	1759
4238.007	1787
4239.542	1787
4241.078	1797
4242.614	1776
4244.15	1762
4245.685	1732
4247.219	1744
4248.753	1833
4250.287	1786
4251.82	1866
4253.354	1792
4254.887	1732
4256.419	1772
4257.951	1751
4259.483	1776
4261.016	1752
4262.547	1769
4264.078	1793
4265.608	1745
4267.137	1747
4268.668	1760
4270.197	1766
4271.727	1747
4273.254	1743
4274.783	1788
4276.311	1748
4277.84	1751
4279.366	1760
4280.894	1776
4282.42	1814
4283.946	1746
4285.473	1706
4286.998	1779
4288.523	1759
4290.047	1723
4291.572	1769
4293.096	1755
4294.622	1728
4296.144	1736
4297.668	1752
4299.19	1764
4300.713	1675
4302.236	1723
4303.758	1744
4305.279	1772
4306.799	1709
4308.321	1716
4309.842	1738
4311.361	1715
4312.882	1736
4314.401	1717
