400.0961	3161
402.6185	3134
405.1424	3120
407.6635	3232
410.1838	3127
412.7035	3162
415.2225	3212
417.7388	3139
420.2585	3161
422.7754	3239
425.2917	3231
427.8072	3360
430.3221	3337
432.8363	3353
435.3498	3403
437.8626	3292
440.3727	3323
442.8841	3351
445.3969	3362
447.907	3222
450.4142	3343
452.9229	3290
455.4289	3355
457.9362	3278
460.4449	3307
462.9488	3333
465.454	3335
467.9566	3411
470.4604	3406
472.9637	3288
475.4662	3286
477.966	3363
480.4671	3340
482.9656	3328
485.4633	3397
487.9645	3402
490.4608	3385
492.9566	3388
495.4536	3415
497.948	3387
500.4437	3342
502.9387	3430
505.431	3529
507.9226	3388
510.4136	3371
512.9079	3366
515.3975	3446
517.8864	3474
520.3746	3424
522.8622	3424
525.3491	3381
527.8394	3430
530.3249	3458
532.8098	3475
535.2939	3539
537.7774	3491
540.2623	3474
542.7444	3430
545.2259	3359
547.7067	3442
550.1868	3376
552.6683	3430
555.147	3414
557.6231	3445
560.1005	3506
562.5773	3512
565.0534	3482
567.5308	3440
570.0056	3563
572.4776	3578
574.951	3509
577.4237	3521
579.8978	3645
582.3671	3612
584.8378	3543
587.3079	3629
589.7773	3570
592.244	3563
594.714	3567
597.1793	3549
599.6461	3497
602.1121	3623
604.5754	3615
607.0421	3589
609.5042	3530
611.9675	3586
614.4282	3566
616.8902	3640
619.3515	3567
621.8122	3639
624.2702	3624
626.7296	3554
629.1863	3629
631.6423	3413
634.1017	3468
636.5563	3563
639.0104	3587
641.4658	3594
643.9185	3595
646.3725	3542
648.8239	3613
651.2766	3509
653.7266	3473
656.176	3625
658.6247	3570
661.0748	3563
663.5242	3613
665.9709	3765
668.417	3665
670.8624	3554
673.3092	3639
675.7533	3680
678.1968	3618
680.6395	3725
683.0817	3644
685.5251	3587
687.9659	3704
690.4061	3611
692.8456	3689
695.2844	3678
697.7226	3695
700.1621	3631
702.599	3713
705.0332	3703
707.4688	3735
709.9036	3683
712.3399	3684
714.7735	3705
717.2044	3719
719.6367	3705
722.0683	3713
724.4993	3765
726.9296	3802
729.3593	3762
731.7883	3768
734.2147	3762
736.6423	3786
739.0714	3782
741.4958	3865
743.9216	3809
746.3447	3854
748.7691	3835
751.1929	3903
753.616	3821
756.0366	3927
758.4584	3894
760.8776	3835
763.2982	3821
765.718	3952
768.1373	3991
770.5539	3909
772.9698	3884
775.3871	3899
777.8038	3863
780.2178	3795
782.6332	3925
785.0459	3865
787.458	3849
789.8714	3935
792.2842	3885
794.6943	3942
797.1038	3907
799.5127	3840
801.9209	3937
804.3324	3951
806.7393	3970
809.1456	3894
811.5513	4040
813.9562	3929
816.3625	4001
818.7663	3977
821.1693	4012
823.5718	3979
825.9735	4035
828.3746	3960
830.7771	3914
833.177	3964
835.5762	3946
837.9747	3985
840.3727	3970
842.772	4047
845.1666	3982
847.5626	4030
849.958	4024
852.3527	4096
854.7488	4041
857.1403	4082
859.5331	4018
861.9253	4037
864.3168	4013
866.7057	4062
869.098	4051
871.4876	3999
873.8746	3991
876.263	4096
878.6487	3991
881.0378	4050
883.4243	4018
885.8081	4012
888.1933	4080
890.5759	4038
892.9598	4027
895.343	4024
897.7256	4047
900.1057	4018
902.4871	4096
904.8659	4093
907.246	4125
909.6254	4130
912.0023	4122
914.3786	4182
916.7562	4151
919.1331	4207
921.5074	4210
923.8831	4279
926.2562	4335
928.6287	4340
931.0005	4241
933.3757	4334
935.7462	4388
938.1162	4260
940.4855	4277
942.8542	4374
945.2242	4424
947.5916	4419
949.9584	4537
952.3266	4592
954.6921	4773
957.0571	4866
959.4233	4975
961.787	5060
964.15	5076
966.5125	5028
968.8742	4782
971.2354	4577
973.5959	4508
975.9559	4391
978.3151	4280
980.6738	4384
983.0338	4251
985.3912	4130
987.7461	4154
990.1022	4115
992.4578	4175
994.8127	4108
997.1689	4229
999.5207	4187
1001.874	4205
1004.226	4245
1006.576	4198
1008.929	4259
1011.28	4151
1013.628	4187
1015.977	4232
1018.324	4169
1020.674	4212
1023.019	4208
1025.366	4296
1027.713	4274
1030.056	4211
1032.399	4232
1034.746	4343
1037.087	4371
1039.431	4287
1041.771	4263
1044.113	4241
1046.454	4255
1048.793	4216
1051.133	4292
1053.471	4246
1055.807	4377
1058.146	4216
1060.483	4263
1062.818	4287
1065.153	4301
1067.489	4402
1069.822	4328
1072.156	4349
1074.488	4369
1076.82	4366
1079.15	4333
1081.48	4290
1083.814	4257
1086.143	4259
1088.471	4352
1090.799	4297
1093.126	4287
1095.452	4279
1097.78	4242
1100.105	4246
1102.43	4257
1104.754	4338
1107.077	4323
1109.4	4316
1111.722	4347
1114.044	4282
1116.365	4334
1118.685	4286
1121.005	4290
1123.324	4293
1125.643	4322
1127.961	4318
1130.278	4361
1132.595	4334
1134.911	4292
1137.226	4375
1139.541	4374
1141.854	4292
1144.167	4310
1146.482	4352
1148.793	4341
1151.105	4336
1153.414	4343
1155.725	4343
1158.033	4323
1160.344	4308
1162.651	4383
1164.959	4270
1167.265	4298
1169.572	4204
1171.878	4280
1174.184	4295
1176.488	4362
1178.79	4316
1181.094	4359
1183.396	4266
1185.699	4316
1188.001	4376
1190.301	4309
1192.6	4431
1194.9	4380
1197.2	4265
1199.497	4357
1201.794	4324
1204.09	4345
1206.387	4324
1208.684	4270
1210.978	4422
1213.272	4364
1215.565	4417
1217.858	4410
1220.15	4362
1222.443	4371
1224.734	4397
1227.024	4330
1229.313	4342
1231.602	4367
1233.892	4409
1236.18	4411
1238.467	4473
1240.754	4435
1243.04	4482
1245.325	4405
1247.612	4457
1249.896	4562
1252.178	4508
1254.461	4541
1256.743	4473
1259.027	4448
1261.308	4497
1263.587	4548
1265.867	4525
1268.146	4546
1270.425	4476
1272.703	4588
1274.981	4520
1277.256	4513
1279.532	4395
1281.808	4476
1284.083	4465
1286.358	4491
1288.63	4481
1290.904	4486
1293.175	4482
1295.449	4456
1297.719	4471
1299.99	4540
1302.259	4459
1304.529	4457
1306.798	4498
1309.065	4458
1311.333	4447
1313.599	4518
1315.866	4512
1318.131	4358
1320.396	4422
1322.66	4387
1324.925	4495
1327.187	4480
1329.448	4552
1331.711	4489
1333.974	4441
1336.234	4480
1338.493	4515
1340.752	4391
1343.01	4399
1345.269	4429
1347.526	4443
1349.784	4483
1352.04	4488
1354.295	4437
1356.552	4424
1358.806	4461
1361.059	4550
1363.312	4477
1365.564	4552
1367.818	4549
1370.069	4603
1372.318	4437
1374.568	4418
1376.817	4564
1379.066	4379
1381.316	4503
1383.564	4527
1385.809	4583
1388.056	4490
1390.301	4525
1392.549	4540
1394.793	4665
1397.036	4594
1399.279	4680
1401.522	4674
1403.763	4687
1406.007	4631
1408.248	4729
1410.487	4733
1412.727	4567
1414.965	4644
1417.205	4643
1419.442	4679
1421.68	4595
1423.915	4551
1426.152	4599
1428.388	4568
1430.623	4627
1432.857	4633
1435.091	4649
1437.323	4655
1439.556	4805
1441.789	4671
1444.019	4625
1446.25	4720
1448.48	4802
1450.708	4695
1452.938	4771
1455.167	4714
1457.394	4785
1459.62	4821
1461.846	4745
1464.073	4665
1466.299	4707
1468.523	4781
1470.746	4667
1472.969	4661
1475.191	4536
1477.415	4522
1479.636	4583
1481.858	4576
1484.078	4513
1486.298	4538
1488.518	4630
1490.736	4541
1492.954	4482
1495.169	4433
1497.386	4524
1499.602	4496
1501.819	4506
1504.034	4542
1506.248	4501
1508.462	4461
1510.675	4578
1512.888	4450
1515.1	4488
1517.311	4476
1519.522	4484
1521.732	4452
1523.942	4432
1526.151	4507
1528.36	4531
1530.566	4539
1532.773	4494
1534.98	4552
1537.187	4526
1539.392	4510
1541.596	4511
1543.801	4452
1546.005	4555
1548.208	4458
1550.411	4425
1552.612	4539
1554.814	4595
1557.013	4642
1559.212	4646
1561.414	4520
1563.612	4499
1565.811	4581
1568.007	4642
1570.203	4650
1572.403	4646
1574.598	4599
1576.792	4623
1578.988	4548
1581.181	4640
1583.376	4667
1585.568	4571
1587.761	4596
1589.952	4678
1592.143	4695
1594.333	4657
1596.524	4567
1598.715	4696
1600.903	4642
1603.091	4678
1605.278	4664
1607.466	4648
1609.652	4599
1611.838	4689
1614.023	4572
1616.207	4659
1618.391	4666
1620.576	4636
1622.759	4722
1624.941	4752
1627.123	4615
1629.304	4660
1631.484	4773
1633.664	4650
1635.844	4669
1638.022	4686
1640.201	4735
1642.38	4768
1644.556	4696
1646.732	4749
1648.908	4770
1651.084	4705
1653.257	4644
1655.433	4767
1657.607	4673
1659.779	4797
1661.951	4769
1664.122	4782
1666.295	4724
1668.467	4717
1670.635	4758
1672.805	4783
1674.973	4707
1677.142	4823
1679.31	4856
1681.478	4718
1683.644	4789
1685.81	4735
1687.975	4703
1690.142	4712
1692.305	4794
1694.468	4731
1696.632	4699
1698.794	4764
1700.957	4651
1703.119	4711
1705.279	4577
1707.439	4677
1709.598	4682
1711.758	4680
1713.917	4771
1716.075	4767
1718.231	4633
1720.388	4771
1722.543	4775
1724.702	4598
1726.856	4642
1729.01	4700
1731.164	4623
1733.317	4750
1735.471	4741
1737.623	4669
1739.774	4653
1741.925	4694
1744.075	4658
1746.225	4762
1748.376	4662
1750.524	4659
1752.672	4669
1754.82	4620
1756.965	4691
1759.113	4651
1761.259	4709
1763.405	4664
1765.549	4701
1767.694	4613
1769.836	4535
1771.981	4774
1774.123	4634
1776.264	4677
1778.405	4734
1780.546	4737
1782.687	4709
1784.827	4696
1786.966	4747
1789.103	4674
1791.242	4667
1793.381	4620
1795.517	4717
1797.653	4736
1799.788	4658
1801.923	4769
1804.057	4733
1806.193	4688
1808.326	4748
1810.457	4638
1812.59	4741
1814.721	4762
1816.855	4737
1818.984	4729
1821.113	4703
1823.244	4751
1825.372	4735
1827.499	4680
1829.63	4690
1831.756	4623
1833.882	4718
1836.007	4760
1838.132	4744
1840.26	4697
1842.384	4732
1844.507	4789
1846.63	4683
1848.752	4694
1850.875	4702
1852.996	4677
1855.118	4697
1857.238	4701
1859.358	4639
1861.477	4599
1863.597	4756
1865.715	4654
1867.832	4694
1869.948	4669
1872.064	4635
1874.181	4634
1876.297	4699
1878.411	4628
1880.526	4645
1882.639	4663
1884.752	4656
1886.865	4637
1888.977	4730
1891.089	4722
1893.2	4669
1895.308	4649
1897.42	4712
1899.53	4658
1901.639	4719
1903.745	4645
1905.853	4754
1907.962	4609
1910.067	4690
1912.174	4664
1914.278	4828
1916.383	4761
1918.486	4850
1920.592	4741
1922.694	4705
1924.797	4610
1926.898	4813
1929	4770
1931.102	4818
1933.203	4778
1935.301	4815
1937.401	4747
1939.499	4734
1941.598	4772
1943.697	4708
1945.793	4803
1947.888	4738
1949.985	4785
1952.08	4755
1954.176	4717
1956.269	4749
1958.364	4797
1960.457	4744
1962.549	4813
1964.642	4753
1966.733	4707
1968.823	4744
1970.913	4717
1973.005	4708
1975.093	4785
1977.184	4765
1979.271	4823
1981.359	4717
1983.446	4702
1985.532	4721
1987.619	4803
1989.705	4731
1991.789	4780
1993.874	4687
1995.956	4628
1998.041	4712
2000.123	4702
2002.206	4727
2004.287	4739
2006.368	4672
2008.449	4655
2010.529	4743
2012.609	4655
2014.688	4656
2016.766	4719
2018.843	4771
2020.922	4684
2022.999	4810
2025.074	4734
2027.15	4705
2029.225	4757
2031.299	4650
2033.375	4700
2035.447	4759
2037.52	4640
2039.592	4815
2041.664	4688
2043.736	4680
2045.807	4792
2047.876	4707
2049.947	4708
2052.015	4708
2054.086	4743
2056.153	4727
2058.221	4667
2060.288	4715
2062.353	4636
2064.42	4715
2066.486	4705
2068.55	4679
2070.614	4766
2072.678	4690
2074.741	4639
2076.805	4755
2078.866	4691
2080.929	4748
2082.99	4743
2085.049	4629
2087.109	4654
2089.17	4658
2091.228	4750
2093.286	4651
2095.344	4699
2097.4	4684
2099.46	4630
2101.516	4647
2103.572	4658
2105.626	4768
2107.679	4668
2109.735	4761
2111.788	4676
2113.841	4655
2115.894	4712
2117.945	4756
2119.997	4705
2122.049	4733
2124.1	4725
2126.148	4687
2128.197	4753
2130.246	4714
2132.296	4614
2134.342	4674
2136.39	4729
2138.437	4676
2140.483	4695
2142.527	4679
2144.574	4704
2146.619	4690
2148.661	4802
2150.705	4652
2152.747	4762
2154.792	4707
2156.832	4653
2158.874	4691
2160.915	4648
2162.954	4716
2164.995	4737
2167.034	4592
2169.072	4668
2171.111	4628
2173.148	4596
2175.186	4651
2177.223	4684
2179.258	4567
2181.294	4683
2183.328	4597
2185.362	4688
2187.398	4652
2189.431	4599
2191.463	4692
2193.495	4644
2195.528	4642
2197.56	4563
2199.59	4629
2201.62	4641
2203.649	4566
2205.678	4603
2207.708	4628
2209.737	4671
2211.764	4613
2213.791	4500
2215.817	4673
2217.843	4627
2219.87	4595
2221.895	4571
2223.919	4538
2225.942	4514
2227.966	4546
2229.988	4538
2232.012	4516
2234.032	4553
2236.054	4598
2238.074	4606
2240.095	4642
2242.116	4626
2244.135	4542
2246.153	4523
2248.171	4600
2250.188	4641
2252.208	4609
2254.223	4606
2256.239	4626
2258.255	4639
2260.269	4598
2262.283	4638
2264.3	4542
2266.312	4632
2268.325	4730
2270.336	4554
2272.349	4594
2274.362	4587
2276.372	4585
2278.383	4562
2280.392	4607
2282.402	4559
2284.409	4608
2286.418	4628
2288.427	4584
2290.433	4666
2292.441	4620
2294.446	4570
2296.453	4524
2298.459	4533
2300.463	4517
2302.466	4537
2304.471	4553
2306.475	4584
2308.477	4514
2310.478	4583
2312.481	4649
2314.481	4508
2316.481	4625
2318.482	4500
2320.482	4566
2322.48	4684
2324.48	4560
2326.478	4548
2328.476	4536
2330.473	4543
2332.469	4534
2334.465	4495
2336.46	4497
2338.454	4421
2340.45	4509
2342.444	4543
2344.437	4454
2346.43	4569
2348.421	4512
2350.414	4494
2352.405	4394
2354.396	4510
2356.386	4569
2358.376	4530
2360.366	4462
2362.355	4518
2364.343	4443
2366.331	4518
2368.317	4427
2370.304	4450
2372.292	4497
2374.278	4507
2376.262	4543
2378.247	4491
2380.23	4507
2382.216	4480
2384.199	4508
2386.181	4540
2388.163	4406
2390.144	4444
2392.127	4408
2394.107	4443
2396.087	4416
2398.066	4408
2400.046	4477
2402.023	4507
2404.004	4491
2405.981	4391
2407.957	4382
2409.934	4387
2411.91	4374
2413.886	4488
2415.862	4487
2417.836	4436
2419.809	4426
2421.784	4394
2423.756	4380
2425.73	4455
2427.701	4534
2429.672	4481
2431.644	4444
2433.615	4498
2435.586	4386
2437.555	4476
2439.523	4338
2441.491	4445
2443.459	4461
2445.428	4376
2447.395	4385
2449.361	4398
2451.327	4369
2453.292	4434
2455.257	4360
2457.223	4540
2459.187	4329
2461.15	4446
2463.113	4458
2465.076	4421
2467.039	4406
2468.999	4378
2470.96	4369
2472.921	4476
2474.881	4441
2476.841	4339
2478.8	4381
2480.759	4380
2482.717	4366
2484.675	4457
2486.63	4394
2488.589	4364
2490.545	4454
2492.5	4385
2494.455	4382
2496.408	4347
2498.364	4419
2500.318	4318
2502.27	4343
2504.223	4307
2506.174	4306
2508.126	4458
2510.078	4440
2512.03	4332
2513.979	4298
2515.927	4260
2517.877	4386
2519.826	4410
2521.775	4367
2523.722	4223
2525.668	4421
2527.616	4263
2529.561	4321
2531.508	4349
2533.452	4342
2535.398	4368
2537.342	4369
2539.284	4344
2541.229	4354
2543.173	4373
2545.114	4310
2547.055	4231
2548.996	4230
2550.938	4363
2552.878	4365
2554.817	4340
2556.756	4337
2558.695	4410
2560.633	4400
2562.572	4248
2564.509	4237
2566.445	4288
2568.382	4349
2570.317	4328
2572.254	4387
2574.189	4331
2576.123	4306
2578.057	4269
2579.99	4422
2581.923	4375
2583.855	4344
2585.788	4350
2587.719	4322
2589.65	4419
2591.579	4301
2593.511	4445
2595.44	4339
2597.37	4386
2599.297	4384
2601.225	4371
2603.153	4297
2605.08	4341
2607.007	4307
2608.932	4379
2610.858	4374
2612.782	4404
2614.709	4243
2616.632	4416
2618.556	4347
2620.478	4410
2622.401	4339
2624.324	4320
2626.247	4275
2628.167	4437
2630.088	4403
2632.008	4367
2633.928	4353
2635.848	4337
2637.766	4424
2639.684	4377
2641.603	4318
2643.519	4395
2645.437	4385
2647.353	4283
2649.27	4303
2651.184	4296
2653.099	4321
2655.014	4373
2656.928	4276
2658.842	4333
2660.755	4236
2662.667	4405
2664.579	4414
2666.491	4387
2668.402	4382
2670.312	4353
2672.222	4350
2674.132	4318
2676.042	4360
2677.951	4405
2679.859	4237
2681.766	4265
2683.674	4304
2685.582	4303
2687.488	4366
2689.392	4340
2691.298	4352
2693.202	4380
2695.107	4328
2697.012	4260
2698.914	4278
2700.817	4257
2702.72	4350
2704.622	4303
2706.524	4295
2708.425	4223
2710.326	4306
2712.225	4272
2714.125	4217
2716.024	4248
2717.923	4269
2719.822	4274
2721.719	4238
2723.616	4235
2725.512	4328
2727.41	4273
2729.305	4197
2731.201	4232
2733.095	4259
2734.99	4315
2736.884	4189
2738.778	4298
2740.67	4232
2742.562	4188
2744.455	4320
2746.346	4191
2748.238	4276
2750.129	4191
2752.018	4189
2753.907	4225
2755.797	4266
2757.687	4256
2759.575	4252
2761.462	4232
2763.349	4313
2765.237	4276
2767.124	4199
2769.009	4284
2770.894	4213
2772.779	4214
2774.663	4198
2776.547	4222
2778.431	4300
2780.314	4268
2782.197	4247
2784.078	4252
2785.96	4258
2787.842	4130
2789.723	4258
2791.603	4244
2793.483	4285
2795.362	4257
2797.241	4108
2799.121	4114
2800.997	4143
2802.874	4212
2804.751	4165
2806.628	4180
2808.506	4181
2810.38	4186
2812.255	4242
2814.13	4155
2816.003	4178
2817.878	4220
2819.752	4171
2821.623	4315
2823.496	4196
2825.368	4231
2827.238	4234
2829.111	4271
2830.98	4204
2832.851	4222
2834.719	4174
2836.589	4194
2838.458	4245
2840.327	4235
2842.193	4247
2844.061	4233
2845.927	4188
2847.794	4296
2849.66	4232
2851.525	4333
2853.39	4299
2855.254	4272
2857.117	4244
2858.983	4310
2860.845	4361
2862.707	4365
2864.569	4366
2866.431	4270
2868.293	4296
2870.154	4304
2872.013	4373
2873.873	4415
2875.733	4472
2877.592	4509
2879.451	4453
2881.309	4589
2883.166	4650
2885.022	4700
2886.879	4634
2888.736	4681
2890.591	4578
2892.446	4674
2894.301	4598
2896.155	4672
2898.009	4705
2899.863	4593
2901.716	4625
2903.568	4597
2905.419	4550
2907.27	4629
2909.123	4603
2910.973	4572
2912.824	4693
2914.673	4617
2916.521	4614
2918.372	4652
2920.22	4697
2922.067	4633
2923.914	4813
2925.761	4762
2927.607	4839
2929.455	4843
2931.301	4795
2933.144	4824
2934.99	4896
2936.833	4910
2938.678	4902
2940.522	4926
2942.364	5128
2944.207	5026
2946.048	5107
2947.891	5106
2949.731	5275
2951.571	5134
2953.412	5201
2955.25	5111
2957.09	5133
2958.93	5041
2960.767	5058
2962.606	5023
2964.443	4985
2966.279	4982
2968.116	4924
2969.953	4783
2971.788	4849
2973.623	4734
2975.457	4567
2977.292	4680
2979.127	4628
2980.959	4623
2982.792	4510
2984.624	4496
2986.455	4513
2988.288	4557
2990.119	4493
2991.949	4346
2993.779	4426
2995.608	4374
2997.439	4267
2999.268	4358
3001.096	4311
3002.923	4321
3004.751	4286
3006.578	4319
3008.406	4179
3010.232	4238
3012.057	4150
3013.883	4131
3015.706	4150
3017.532	4102
3019.356	4107
3021.179	4141
3023.002	4109
3024.823	3996
3026.646	4079
3028.469	4093
3030.289	4150
3032.11	3971
3033.93	4007
3035.749	4005
3037.57	4024
3039.39	4010
3041.207	3973
3043.026	4097
3044.842	4006
3046.661	4018
3048.477	4012
3050.294	3966
3052.109	3914
3053.925	4005
3055.739	3937
3057.555	4014
3059.368	3905
3061.181	4009
3062.995	4044
3064.807	3964
3066.62	3971
3068.433	3954
3070.243	3886
3072.054	3935
3073.865	3974
3075.675	3878
3077.485	3939
3079.293	3986
3081.102	3921
3082.911	3930
3084.719	3844
3086.527	3901
3088.333	3879
3090.139	3968
3091.945	3765
3093.75	3897
3095.557	3898
3097.361	3928
3099.165	3892
3100.969	3850
3102.772	3943
3104.575	3845
3106.379	3783
3108.181	3966
3109.982	3857
3111.783	3900
3113.584	3873
3115.386	3899
3117.186	3829
3118.985	3800
3120.783	3800
3122.582	3889
3124.381	3853
3126.179	3749
3127.975	3759
3129.772	3848
3131.569	3837
3133.365	3783
3135.161	3825
3136.956	3868
3138.751	3829
3140.544	3808
3142.338	3745
3144.132	3817
3145.925	3838
3147.717	3691
3149.509	3810
3151.301	3861
3153.091	3709
3154.884	3824
3156.673	3751
3158.462	3770
3160.252	3784
3162.041	3783
3163.831	3725
3165.618	3757
3167.405	3775
3169.193	3708
3170.979	3869
3172.767	3743
3174.553	3747
3176.338	3796
3178.123	3684
3179.907	3775
3181.692	3790
3183.477	3769
3185.259	3760
3187.042	3720
3188.824	3771
3190.607	3697
3192.389	3771
3194.17	3696
3195.951	3732
3197.73	3743
3199.51	3725
3201.289	3745
3203.07	3695
3204.848	3708
3206.626	3716
3208.403	3741
3210.18	3769
3211.959	3748
3213.735	3742
3215.511	3733
3217.285	3706
3219.06	3687
3220.836	3733
3222.611	3721
3224.384	3726
3226.158	3753
3227.929	3699
3229.702	3745
3231.476	3696
3233.248	3717
3235.018	3674
3236.789	3704
3238.56	3700
3240.33	3669
3242.1	3668
3243.869	3727
3245.637	3662
3247.405	3717
3249.172	3663
3250.941	3736
3252.707	3709
3254.474	3667
3256.24	3736
3258.006	3755
3259.772	3693
3261.537	3742
3263.301	3744
3265.065	3674
3266.828	3722
3268.592	3679
3270.355	3779
3272.117	3683
3273.878	3683
3275.64	3761
3277.401	3748
3279.162	3651
3280.922	3658
3282.682	3732
3284.441	3746
3286.199	3681
3287.959	3729
3289.716	3644
3291.475	3703
3293.232	3687
3294.988	3771
3296.744	3740
3298.501	3815
3300.256	3670
3302.011	3687
3303.766	3702
3305.52	3687
3307.275	3704
3309.028	3774
3310.781	3678
3312.533	3737
3314.285	3679
3316.038	3646
3317.789	3640
3319.54	3585
3321.289	3711
3323.039	3595
3324.789	3657
3326.539	3694
3328.288	3617
3330.035	3675
3331.783	3627
3333.531	3739
3335.28	3638
3337.025	3656
3338.771	3624
3340.518	3614
3342.262	3688
3344.009	3549
3345.753	3664
3347.497	3651
3349.24	3598
3350.983	3698
3352.726	3548
3354.469	3676
3356.212	3641
3357.952	3615
3359.694	3602
3361.434	3574
3363.176	3523
3364.916	3628
3366.654	3591
3368.394	3622
3370.132	3565
3371.871	3631
3373.61	3613
3375.346	3594
3377.083	3526
3378.82	3562
3380.556	3629
3382.292	3507
3384.027	3603
3385.763	3541
3387.497	3511
3389.231	3587
3390.965	3578
3392.698	3518
3394.431	3563
3396.164	3550
3397.896	3590
3399.627	3465
3401.36	3468
3403.09	3533
3404.82	3615
3406.55	3527
3408.279	3526
3410.01	3568
3411.738	3462
3413.467	3495
3415.194	3538
3416.92	3462
3418.647	3519
3420.375	3452
3422.102	3549
3423.827	3494
3425.553	3442
3427.277	3500
3429.003	3435
3430.727	3505
3432.451	3528
3434.173	3421
3435.896	3513
3437.62	3373
3439.343	3491
3441.063	3464
3442.785	3487
3444.505	3432
3446.226	3460
3447.948	3471
3449.666	3442
3451.386	3479
3453.104	3437
3454.823	3524
3456.541	3463
3458.259	3402
3459.976	3416
3461.693	3366
3463.408	3419
3465.125	3408
3466.841	3440
3468.556	3377
3470.271	3399
3471.985	3316
3473.698	3442
3475.414	3360
3477.126	3305
3478.838	3378
3480.55	3416
3482.263	3353
3483.975	3355
3485.686	3366
3487.396	3301
3489.106	3368
3490.817	3373
3492.526	3366
3494.236	3310
3495.944	3290
3497.652	3258
3499.359	3269
3501.066	3248
3502.775	3288
3504.481	3264
3506.187	3308
3507.893	3313
3509.598	3259
3511.304	3276
3513.009	3195
3514.713	3307
3516.417	3355
3518.12	3222
3519.821	3303
3521.525	3212
3523.228	3273
3524.929	3285
3526.631	3246
3528.33	3239
3530.032	3272
3531.733	3258
3533.433	3242
3535.131	3201
3536.83	3248
3538.529	3213
3540.227	3175
3541.925	3300
3543.623	3266
3545.319	3323
3547.016	3259
3548.712	3146
3550.408	3139
3552.103	3204
3553.798	3262
3555.491	3210
3557.188	3186
3558.88	3205
3560.574	3134
3562.266	3248
3563.959	3184
3565.651	3138
3567.343	3278
3569.035	3146
3570.725	3106
3572.415	3150
3574.106	3119
3575.797	3206
3577.485	3164
3579.174	3077
3580.863	3125
3582.551	3135
3584.238	3109
3585.926	3128
3587.613	3205
3589.3	3142
3590.986	3115
3592.671	3210
3594.357	3133
3596.042	3124
3597.726	3070
3599.41	3069
3601.094	3055
3602.778	3090
3604.461	3092
3606.143	3079
3607.825	3152
3609.507	3057
3611.188	3050
3612.87	3013
3614.551	3058
3616.229	3058
3617.909	2998
3619.589	3066
3621.269	3053
3622.948	3047
3624.625	2951
3626.302	3030
3627.98	3026
3629.657	2978
3631.334	3026
3633.01	2963
3634.686	2993
3636.361	2965
3638.036	3026
3639.712	2960
3641.385	2971
3643.06	2905
3644.732	2986
3646.405	2978
3648.08	2901
3649.751	3012
3651.424	2928
3653.094	2958
3654.766	2962
3656.436	3032
3658.106	2936
3659.777	2903
3661.446	3016
3663.115	3036
3664.783	3011
3666.452	2858
3668.121	2959
3669.788	2941
3671.454	2981
3673.121	2987
3674.789	2878
3676.455	2960
3678.12	2921
3679.784	2990
3681.45	2920
3683.114	2885
3684.779	2923
3686.442	2894
3688.105	2881
3689.768	2920
3691.43	2912
3693.093	2837
3694.754	2915
3696.415	2908
3698.076	2946
3699.736	2922
3701.396	2872
3703.057	2910
3704.716	2907
3706.375	2830
3708.034	2916
3709.692	2934
3711.351	2831
3713.008	2905
3714.665	2823
3716.321	2901
3717.977	2830
3719.634	2944
3721.29	2867
3722.945	2907
3724.598	2840
3726.253	2876
3727.907	2803
3729.561	2866
3731.214	2852
3732.867	2845
3734.518	2888
3736.171	2854
3737.824	2873
3739.474	2803
3741.125	2828
3742.775	2894
3744.425	2838
3746.074	2818
3747.725	2856
3749.373	2853
3751.022	2811
3752.669	2815
3754.318	2803
3755.966	2793
3757.612	2873
3759.259	2780
3760.905	2749
3762.55	2787
3764.197	2827
3765.842	2904
3767.486	2806
3769.131	2825
3770.774	2807
3772.417	2839
3774.061	2758
3775.705	2788
3777.347	2712
3778.988	2776
3780.629	2763
3782.271	2766
3783.912	2778
3785.552	2742
3787.192	2821
3788.831	2825
3790.472	2740
3792.112	2809
3793.75	2752
3795.388	2713
3797.024	2759
3798.661	2780
3800.3	2742
3801.936	2763
3803.572	2769
3805.208	2731
3806.844	2762
3808.48	2734
3810.115	2716
3811.748	2667
3813.382	2704
3815.016	2673
3816.649	2728
3818.283	2683
3819.914	2744
3821.547	2744
3823.178	2702
3824.809	2720
3826.441	2715
3828.072	2720
3829.701	2738
3831.331	2681
3832.96	2736
3834.591	2695
3836.219	2704
3837.847	2775
3839.475	2676
3841.102	2762
3842.729	2690
3844.357	2681
3845.984	2600
3847.609	2679
3849.234	2668
3850.86	2695
3852.485	2667
3854.11	2666
3855.734	2638
3857.357	2688
3858.981	2683
3860.603	2640
3862.227	2652
3863.848	2678
3865.471	2646
3867.092	2652
3868.713	2678
3870.334	2676
3871.954	2625
3873.575	2684
3875.194	2544
3876.813	2604
3878.433	2627
3880.051	2641
3881.669	2561
3883.286	2683
3884.904	2571
3886.52	2602
3888.138	2645
3889.754	2564
3891.37	2663
3892.985	2647
3894.6	2591
3896.216	2609
3897.831	2599
3899.444	2605
3901.058	2591
3902.67	2659
3904.283	2638
3905.897	2634
3907.509	2562
3909.121	2606
3910.731	2640
3912.342	2559
3913.954	2615
3915.563	2651
3917.174	2475
3918.783	2604
3920.391	2647
3922.002	2601
3923.611	2549
3925.218	2626
3926.826	2621
3928.432	2689
3930.039	2577
3931.647	2594
3933.253	2556
3934.859	2571
3936.464	2521
3938.068	2550
3939.675	2596
3941.278	2577
3942.883	2623
3944.486	2543
3946.089	2544
3947.692	2559
3949.295	2545
3950.898	2576
3952.499	2548
3954.1	2511
3955.7	2542
3957.303	2559
3958.903	2547
3960.502	2553
3962.101	2565
3963.7	2481
3965.301	2562
3966.899	2598
3968.497	2586
3970.094	2524
3971.691	2450
3973.288	2514
3974.885	2492
3976.481	2503
3978.077	2453
3979.672	2555
3981.267	2544
3982.863	2460
3984.457	2495
3986.051	2474
3987.645	2478
3989.238	2488
3990.831	2485
3992.425	2555
3994.017	2483
3995.607	2428
3997.199	2462
3998.79	2460
4000.382	2462
4001.973	2490
4003.561	2470
4005.151	2474
4006.741	2450
4008.331	2380
4009.918	2431
4011.507	2415
4013.095	2427
4014.681	2405
4016.269	2438
4017.856	2443
4019.443	2424
4021.028	2442
4022.614	2399
4024.199	2365
4025.785	2453
4027.37	2360
4028.953	2477
4030.536	2412
4032.12	2440
4033.704	2406
4035.287	2412
4036.869	2474
4038.45	2471
4040.032	2402
4041.613	2380
4043.195	2401
4044.776	2350
4046.356	2391
4047.935	2359
4049.515	2416
4051.095	2423
4052.674	2385
4054.251	2411
4055.829	2375
4057.406	2384
4058.985	2389
4060.562	2398
4062.139	2380
4063.715	2401
4065.29	2414
4066.865	2388
4068.442	2407
4070.016	2384
4071.59	2284
4073.164	2406
4074.738	2336
4076.312	2343
4077.885	2316
4079.458	2354
4081.03	2368
4082.602	2260
4084.173	2321
4085.745	2354
4087.315	2282
4088.886	2329
4090.456	2309
4092.026	2334
4093.596	2346
4095.165	2309
4096.734	2326
4098.301	2367
4099.869	2292
4101.437	2332
4103.006	2384
4104.572	2283
4106.139	2322
4107.704	2316
4109.27	2288
4110.837	2293
4112.401	2313
4113.966	2270
4115.53	2231
4117.094	2224
4118.659	2273
4120.223	2313
4121.785	2279
4123.347	2285
4124.909	2267
4126.471	2273
4128.034	2317
4129.595	2248
4131.155	2269
4132.716	2322
4134.275	2328
4135.836	2201
4137.395	2263
4138.955	2221
4140.513	2255
4142.071	2262
4143.628	2243
4145.188	2246
4146.745	2270
4148.302	2274
4149.858	2204
4151.414	2270
4152.971	2182
4154.526	2249
4156.081	2215
4157.635	2228
4159.189	2200
4160.745	2236
4162.298	2229
4163.852	2211
4165.405	2219
4166.957	2213
4168.51	2222
4170.063	2200
4171.614	2171
4173.166	2225
4174.717	2220
4176.267	2157
4177.817	2199
4179.368	2227
4180.917	2149
4182.466	2169
4184.016	2196
4185.564	2252
4187.112	2197
4188.66	2185
4190.207	2116
4191.754	2184
4193.301	2195
4194.848	2133
4196.394	2191
4197.94	2157
4199.484	2131
4201.03	2165
4202.575	2182
4204.12	2158
4205.663	2127
4207.207	2095
4208.75	2180
4210.292	2169
4211.836	2151
4213.378	2128
4214.92	2101
4216.46	2125
4218.002	2107
4219.544	2091
4221.083	2125
4222.625	2144
4224.164	2103
4225.703	2128
4227.244	2188
4228.782	2127
4230.32	2092
4231.857	2104
4233.395	2110
4234.933	2070
4236.471	2164
4238.007	2153
4239.542	2149
4241.078	2105
4242.614	2119
4244.15	2111
4245.685	2165
4247.219	2142
4248.753	2138
4250.287	2087
4251.82	2115
4253.354	2100
4254.887	2091
4256.419	2081
4257.951	2121
4259.483	2062
4261.016	2076
4262.547	2090
4264.078	2098
4265.608	2142
4267.137	2094
4268.668	2126
4270.197	2124
4271.727	2074
4273.254	2074
4274.783	2082
4276.311	2059
4277.84	2075
4279.366	2120
4280.894	2082
4282.42	2123
4283.946	2124
4285.473	2031
4286.998	2108
4288.523	2070
4290.047	2047
4291.572	2077
4293.096	2081
4294.622	2060
4296.144	2009
4297.668	2042
4299.19	2015
4300.713	2003
4302.236	2025
4303.758	2018
4305.279	2035
4306.799	2059
4308.321	2064
4309.842	1998
4311.361	2049
4312.882	2018
4314.401	2033
