400.0961	2217
402.6185	2147
405.1424	2193
407.6635	2226
410.1838	2221
412.7035	2242
415.2225	2270
417.7388	2255
420.2585	2300
422.7754	2310
425.2917	2347
427.8072	2371
430.3221	2390
432.8363	2372
435.3498	2446
437.8626	2469
440.3727	2391
442.8841	2393
445.3969	2477
447.907	2333
450.4142	2350
452.9229	2356
455.4289	2409
457.9362	2351
460.4449	2287
462.9488	2361
465.454	2325
467.9566	2399
470.4604	2288
472.9637	2338
475.4662	2330
477.966	2291
480.4671	2361
482.9656	2378
485.4633	2343
487.9645	2354
490.4608	2367
492.9566	2372
495.4536	2365
497.948	2358
500.4437	2351
502.9387	2353
505.431	2369
507.9226	2388
510.4136	2330
512.9079	2362
515.3975	2332
517.8864	2373
520.3746	2401
522.8622	2359
525.3491	2396
527.8394	2371
530.3249	2439
532.8098	2349
535.2939	2333
537.7774	2426
540.2623	2447
542.7444	2385
545.2259	2319
547.7067	2404
550.1868	2369
552.6683	2435
555.147	2374
557.6231	2337
560.1005	2409
562.5773	2445
565.0534	2422
567.5308	2424
570.0056	2453
572.4776	2501
574.951	2490
577.4237	2493
579.8978	2470
582.3671	2530
584.8378	2508
587.3079	2522
589.7773	2489
592.244	2564
594.714	2552
597.1793	2484
599.6461	2533
602.1121	2501
604.5754	2363
607.0421	2444
609.5042	2461
611.9675	2503
614.4282	2495
616.8902	2490
619.3515	2448
621.8122	2526
624.2702	2428
626.7296	2443
629.1863	2433
631.6423	2394
634.1017	2475
636.5563	2509
639.0104	2497
641.4658	2396
643.9185	2504
646.3725	2479
648.8239	2441
651.2766	2528
653.7266	2468
656.176	2448
658.6247	2462
661.0748	2461
663.5242	2415
665.9709	2487
668.417	2476
670.8624	2484
673.3092	2550
675.7533	2495
678.1968	2485
680.6395	2487
683.0817	2479
685.5251	2506
687.9659	2570
690.4061	2513
692.8456	2592
695.2844	2518
697.7226	2497
700.1621	2578
702.599	2520
705.0332	2540
707.4688	2566
709.9036	2563
712.3399	2529
714.7735	2531
717.2044	2556
719.6367	2534
722.0683	2605
724.4993	2584
726.9296	2519
729.3593	2582
731.7883	2555
734.2147	2613
736.6423	2546
739.0714	2684
741.4958	2592
743.9216	2662
746.3447	2586
748.7691	2586
751.1929	2679
753.616	2671
756.0366	2659
758.4584	2664
760.8776	2683
763.2982	2682
765.718	2677
768.1373	2678
770.5539	2607
772.9698	2626
775.3871	2670
777.8038	2662
780.2178	2693
782.6332	2637
785.0459	2701
787.458	2736
789.8714	2628
792.2842	2786
794.6943	2692
797.1038	2689
799.5127	2705
801.9209	2642
804.3324	2676
806.7393	2705
809.1456	2699
811.5513	2722
813.9562	2714
816.3625	2721
818.7663	2772
821.1693	2777
823.5718	2747
825.9735	2757
828.3746	2744
830.7771	2767
833.177	2778
835.5762	2683
837.9747	2768
840.3727	2744
842.772	2747
845.1666	2802
847.5626	2829
849.958	2844
852.3527	2825
854.7488	2869
857.1403	2848
859.5331	2878
861.9253	2860
864.3168	2857
866.7057	2831
869.098	2922
871.4876	2794
873.8746	2770
876.263	2857
878.6487	2799
881.0378	2881
883.4243	2853
885.8081	2844
888.1933	2851
890.5759	2778
892.9598	2864
895.343	2801
897.7256	2823
900.1057	2733
902.4871	2848
904.8659	2822
907.246	2825
909.6254	2815
912.0023	2898
914.3786	2838
916.7562	2895
919.1331	3048
921.5074	3007
923.8831	2983
926.2562	3056
928.6287	2971
931.0005	2980
933.3757	2980
935.7462	2999
938.1162	3036
940.4855	3145
942.8542	3131
945.2242	3213
947.5916	3204
949.9584	3326
952.3266	3479
954.6921	3616
957.0571	3840
959.4233	3915
961.787	3987
964.15	4006
966.5125	3789
968.8742	3627
971.2354	3471
973.5959	3320
975.9559	3175
978.3151	3098
980.6738	3067
983.0338	3011
985.3912	2970
987.7461	2905
990.1022	2868
992.4578	2872
994.8127	2964
997.1689	2891
999.5207	3054
1001.874	2993
1004.226	2972
1006.576	2951
1008.929	2968
1011.28	2978
1013.628	2954
1015.977	2889
1018.324	2957
1020.674	2969
1023.019	2923
1025.366	3023
1027.713	2970
1030.056	3023
1032.399	2966
1034.746	3031
1037.087	2949
1039.431	3009
1041.771	2982
1044.113	3019
1046.454	3004
1048.793	2974
1051.133	3021
1053.471	2967
1055.807	3027
1058.146	3009
1060.483	2957
1062.818	3015
1065.153	3060
1067.489	3024
1069.822	3026
1072.156	3104
1074.488	3099
1076.82	3065
1079.15	3035
1081.48	3034
1083.814	3040
1086.143	3132
1088.471	3020
1090.799	3027
1093.126	2987
1095.452	3001
1097.78	3018
1100.105	3021
1102.43	2963
1104.754	3018
1107.077	2890
1109.4	2983
1111.722	2919
1114.044	3000
1116.365	3004
1118.685	2919
1121.005	3045
1123.324	2955
1125.643	2984
1127.961	3011
1130.278	2967
1132.595	2972
1134.911	3001
1137.226	2968
1139.541	2947
1141.854	2921
1144.167	2971
1146.482	2962
1148.793	2925
1151.105	2901
1153.414	3022
1155.725	2982
1158.033	2957
1160.344	2953
1162.651	3019
1164.959	3067
1167.265	3037
1169.572	3014
1171.878	2997
1174.184	3029
1176.488	2994
1178.79	2969
1181.094	2986
1183.396	2943
1185.699	2957
1188.001	2984
1190.301	3023
1192.6	2969
1194.9	2950
1197.2	2962
1199.497	2984
1201.794	2958
1204.09	2999
1206.387	3014
1208.684	2996
1210.978	3003
1213.272	2995
1215.565	3028
1217.858	2975
1220.15	3022
1222.443	3011
1224.734	2976
1227.024	2983
1229.313	3056
1231.602	3098
1233.892	3065
1236.18	3041
1238.467	3120
1240.754	3163
1243.04	3159
1245.325	3118
1247.612	3171
1249.896	3119
1252.178	3169
1254.461	3096
1256.743	3223
1259.027	3143
1261.308	3141
1263.587	3141
1265.867	3112
1268.146	3164
1270.425	3142
1272.703	3158
1274.981	3097
1277.256	3057
1279.532	3135
1281.808	3153
1284.083	3102
1286.358	3088
1288.63	3064
1290.904	3126
1293.175	3056
1295.449	3085
1297.719	3133
1299.99	3074
1302.259	3123
1304.529	3137
1306.798	3050
1309.065	3068
1311.333	3069
1313.599	3089
1315.866	3083
1318.131	3122
1320.396	3043
1322.66	2981
1324.925	3075
1327.187	3094
1329.448	3067
1331.711	3155
1333.974	3028
1336.234	3151
1338.493	3151
1340.752	3070
1343.01	3061
1345.269	3124
1347.526	3119
1349.784	3111
1352.04	3045
1354.295	3052
1356.552	3097
1358.806	3072
1361.059	3001
1363.312	3011
1365.564	3028
1367.818	3060
1370.069	3108
1372.318	3104
1374.568	3124
1376.817	3072
1379.066	3169
1381.316	3071
1383.564	3124
1385.809	3108
1388.056	3125
1390.301	3126
1392.549	3136
1394.793	3198
1397.036	3166
1399.279	3218
1401.522	3273
1403.763	3185
1406.007	3245
1408.248	3199
1410.487	3196
1412.727	3160
1414.965	3157
1417.205	3186
1419.442	3148
1421.68	3242
1423.915	3197
1426.152	3261
1428.388	3170
1430.623	3214
1432.857	3225
1435.091	3260
1437.323	3401
1439.556	3260
1441.789	3359
1444.019	3240
1446.25	3277
1448.48	3271
1450.708	3275
1452.938	3206
1455.167	3328
1457.394	3276
1459.62	3243
1461.846	3300
1464.073	3366
1466.299	3314
1468.523	3286
1470.746	3248
1472.969	3284
1475.191	3211
1477.415	3159
1479.636	3146
1481.858	3202
1484.078	3183
1486.298	3115
1488.518	3113
1490.736	3136
1492.954	3075
1495.169	3013
1497.386	3046
1499.602	3168
1501.819	3147
1504.034	3086
1506.248	3052
1508.462	3077
1510.675	3056
1512.888	3013
1515.1	3048
1517.311	2992
1519.522	3062
1521.732	3159
1523.942	3059
1526.151	3097
1528.36	3045
1530.566	3025
1532.773	3161
1534.98	3103
1537.187	3068
1539.392	3113
1541.596	3155
1543.801	3129
1546.005	3066
1548.208	3083
1550.411	3144
1552.612	3033
1554.814	3084
1557.013	3153
1559.212	3171
1561.414	3128
1563.612	3112
1565.811	3195
1568.007	3191
1570.203	3175
1572.403	3163
1574.598	3096
1576.792	3126
1578.988	3176
1581.181	3172
1583.376	3131
1585.568	3200
1587.761	3266
1589.952	3190
1592.143	3212
1594.333	3166
1596.524	3228
1598.715	3219
1600.903	3225
1603.091	3213
1605.278	3228
1607.466	3205
1609.652	3178
1611.838	3255
1614.023	3199
1616.207	3240
1618.391	3172
1620.576	3236
1622.759	3258
1624.941	3199
1627.123	3286
1629.304	3224
1631.484	3357
1633.664	3326
1635.844	3271
1638.022	3285
1640.201	3317
1642.38	3277
1644.556	3276
1646.732	3309
1648.908	3336
1651.084	3298
1653.257	3276
1655.433	3288
1657.607	3232
1659.779	3311
1661.951	3282
1664.122	3402
1666.295	3388
1668.467	3386
1670.635	3311
1672.805	3345
1674.973	3324
1677.142	3357
1679.31	3381
1681.478	3317
1683.644	3323
1685.81	3330
1687.975	3251
1690.142	3301
1692.305	3355
1694.468	3205
1696.632	3290
1698.794	3269
1700.957	3254
1703.119	3306
1705.279	3240
1707.439	3229
1709.598	3157
1711.758	3135
1713.917	3221
1716.075	3132
1718.231	3153
1720.388	3229
1722.543	3207
1724.702	3127
1726.856	3165
1729.01	3231
1731.164	3200
1733.317	3182
1735.471	3080
1737.623	3148
1739.774	3234
1741.925	3293
1744.075	3276
1746.225	3205
1748.376	3151
1750.524	3177
1752.672	3122
1754.82	3217
1756.965	3219
1759.113	3196
1761.259	3204
1763.405	3192
1765.549	3155
1767.694	3191
1769.836	3185
1771.981	3208
1774.123	3270
1776.264	3120
1778.405	3263
1780.546	3169
1782.687	3264
1784.827	3222
1786.966	3174
1789.103	3259
1791.242	3224
1793.381	3243
1795.517	3277
1797.653	3146
1799.788	3217
1801.923	3263
1804.057	3283
1806.193	3211
1808.326	3237
1810.457	3164
1812.59	3214
1814.721	3258
1816.855	3161
1818.984	3202
1821.113	3252
1823.244	3234
1825.372	3149
1827.499	3182
1829.63	3258
1831.756	3222
1833.882	3225
1836.007	3217
1838.132	3207
1840.26	3204
1842.384	3187
1844.507	3195
1846.63	3165
1848.752	3196
1850.875	3160
1852.996	3202
1855.118	3159
1857.238	3233
1859.358	3202
1861.477	3184
1863.597	3244
1865.715	3221
1867.832	3214
1869.948	3134
1872.064	3095
1874.181	3203
1876.297	3239
1878.411	3228
1880.526	3267
1882.639	3207
1884.752	3131
1886.865	3184
1888.977	3269
1891.089	3182
1893.2	3213
1895.308	3228
1897.42	3193
1899.53	3185
1901.639	3141
1903.745	3269
1905.853	3306
1907.962	3315
1910.067	3230
1912.174	3224
1914.278	3191
1916.383	3233
1918.486	3287
1920.592	3227
1922.694	3257
1924.797	3286
1926.898	3286
1929	3310
1931.102	3286
1933.203	3284
1935.301	3271
1937.401	3273
1939.499	3250
1941.598	3225
1943.697	3261
1945.793	3297
1947.888	3217
1949.985	3246
1952.08	3263
1954.176	3236
1956.269	3241
1958.364	3253
1960.457	3324
1962.549	3209
1964.642	3249
1966.733	3307
1968.823	3235
1970.913	3154
1973.005	3196
1975.093	3325
1977.184	3215
1979.271	3260
1981.359	3263
1983.446	3205
1985.532	3246
1987.619	3220
1989.705	3241
1991.789	3213
1993.874	3218
1995.956	3237
1998.041	3257
2000.123	3206
2002.206	3226
2004.287	3222
2006.368	3180
2008.449	3236
2010.529	3202
2012.609	3246
2014.688	3215
2016.766	3222
2018.843	3186
2020.922	3169
2022.999	3170
2025.074	3263
2027.15	3190
2029.225	3251
2031.299	3253
2033.375	3290
2035.447	3249
2037.52	3222
2039.592	3205
2041.664	3256
2043.736	3160
2045.807	3236
2047.876	3271
2049.947	3186
2052.015	3209
2054.086	3243
2056.153	3207
2058.221	3262
2060.288	3218
2062.353	3246
2064.42	3252
2066.486	3305
2068.55	3239
2070.614	3193
2072.678	3276
2074.741	3247
2076.805	3322
2078.866	3271
2080.929	3283
2082.99	3149
2085.049	3233
2087.109	3279
2089.17	3280
2091.228	3254
2093.286	3223
2095.344	3330
2097.4	3251
2099.46	3264
2101.516	3259
2103.572	3227
2105.626	3304
2107.679	3263
2109.735	3305
2111.788	3238
2113.841	3226
2115.894	3237
2117.945	3304
2119.997	3236
2122.049	3245
2124.1	3271
2126.148	3102
2128.197	3263
2130.246	3253
2132.296	3221
2134.342	3254
2136.39	3316
2138.437	3219
2140.483	3233
2142.527	3275
2144.574	3222
2146.619	3227
2148.661	3225
2150.705	3223
2152.747	3202
2154.792	3266
2156.832	3248
2158.874	3189
2160.915	3282
2162.954	3232
2164.995	3256
2167.034	3198
2169.072	3151
2171.111	3186
2173.148	3207
2175.186	3164
2177.223	3185
2179.258	3143
2181.294	3257
2183.328	3274
2185.362	3174
2187.398	3088
2189.431	3204
2191.463	3132
2193.495	3186
2195.528	3162
2197.56	3142
2199.59	3231
2201.62	3196
2203.649	3161
2205.678	3217
2207.708	3168
2209.737	3230
2211.764	3148
2213.791	3210
2215.817	3234
2217.843	3198
2219.87	3168
2221.895	3224
2223.919	3208
2225.942	3186
2227.966	3202
2229.988	3126
2232.012	3137
2234.032	3256
2236.054	3144
2238.074	3082
2240.095	3246
2242.116	3147
2244.135	3164
2246.153	3186
2248.171	3166
2250.188	3223
2252.208	3232
2254.223	3104
2256.239	3142
2258.255	3217
2260.269	3265
2262.283	3255
2264.3	3196
2266.312	3184
2268.325	3134
2270.336	3205
2272.349	3187
2274.362	3176
2276.372	3175
2278.383	3199
2280.392	3189
2282.402	3161
2284.409	3188
2286.418	3230
2288.427	3192
2290.433	3142
2292.441	3201
2294.446	3180
2296.453	3139
2298.459	3205
2300.463	3153
2302.466	3224
2304.471	3119
2306.475	3116
2308.477	3121
2310.478	3132
2312.481	3161
2314.481	3123
2316.481	3194
2318.482	3183
2320.482	3136
2322.48	3151
2324.48	3199
2326.478	3180
2328.476	3068
2330.473	3132
2332.469	3122
2334.465	3068
2336.46	3257
2338.454	3210
2340.45	3137
2342.444	3106
2344.437	3110
2346.43	3094
2348.421	3202
2350.414	3153
2352.405	3101
2354.396	3155
2356.386	3115
2358.376	3180
2360.366	3108
2362.355	3130
2364.343	3110
2366.331	3120
2368.317	3113
2370.304	3134
2372.292	3137
2374.278	3199
2376.262	3131
2378.247	3102
2380.23	3118
2382.216	3121
2384.199	3135
2386.181	3074
2388.163	3135
2390.144	3091
2392.127	3085
2394.107	3066
2396.087	3125
2398.066	3073
2400.046	3110
2402.023	3037
2404.004	3102
2405.981	3118
2407.957	3127
2409.934	3112
2411.91	3149
2413.886	3079
2415.862	3110
2417.836	3092
2419.809	3141
2421.784	3050
2423.756	3124
2425.73	3059
2427.701	3055
2429.672	3102
2431.644	3134
2433.615	3040
2435.586	3075
2437.555	3051
2439.523	3095
2441.491	3079
2443.459	3152
2445.428	3010
2447.395	3124
2449.361	3059
2451.327	3104
2453.292	3076
2455.257	3135
2457.223	3055
2459.187	3012
2461.15	3110
2463.113	3039
2465.076	3102
2467.039	3217
2468.999	3073
2470.96	3075
2472.921	3116
2474.881	3122
2476.841	3073
2478.8	3118
2480.759	3083
2482.717	3052
2484.675	3052
2486.63	3095
2488.589	3154
2490.545	3037
2492.5	3061
2494.455	3050
2496.408	2979
2498.364	3039
2500.318	3026
2502.27	2989
2504.223	3016
2506.174	3057
2508.126	2996
2510.078	2998
2512.03	3074
2513.979	3090
2515.927	3053
2517.877	3091
2519.826	3103
2521.775	3074
2523.722	3057
2525.668	3120
2527.616	3059
2529.561	3061
2531.508	3023
2533.452	3060
2535.398	2982
2537.342	3087
2539.284	2991
2541.229	3070
2543.173	2989
2545.114	3016
2547.055	3049
2548.996	3044
2550.938	3028
2552.878	3037
2554.817	3052
2556.756	3034
2558.695	3018
2560.633	3011
2562.572	3090
2564.509	3081
2566.445	3003
2568.382	3071
2570.317	3057
2572.254	3062
2574.189	3048
2576.123	3015
2578.057	3000
2579.99	3028
2581.923	3014
2583.855	3039
2585.788	3066
2587.719	3032
2589.65	2993
2591.579	3038
2593.511	3072
2595.44	2956
2597.37	3032
2599.297	3031
2601.225	3114
2603.153	3036
2605.08	3035
2607.007	3001
2608.932	3090
2610.858	3074
2612.782	3025
2614.709	3057
2616.632	3079
2618.556	3057
2620.478	3147
2622.401	3118
2624.324	3117
2626.247	3060
2628.167	3129
2630.088	3097
2632.008	3043
2633.928	3062
2635.848	3054
2637.766	3075
2639.684	3061
2641.603	3028
2643.519	3115
2645.437	3165
2647.353	3071
2649.27	3046
2651.184	3040
2653.099	3054
2655.014	3093
2656.928	3021
2658.842	3070
2660.755	3063
2662.667	3048
2664.579	3168
2666.491	3094
2668.402	3099
2670.312	3028
2672.222	3052
2674.132	3106
2676.042	3074
2677.951	3043
2679.859	2983
2681.766	3050
2683.674	3046
2685.582	3055
2687.488	3057
2689.392	3095
2691.298	3105
2693.202	3035
2695.107	3042
2697.012	3052
2698.914	3034
2700.817	3011
2702.72	2938
2704.622	3038
2706.524	3101
2708.425	3030
2710.326	3095
2712.225	3007
2714.125	3042
2716.024	3047
2717.923	3051
2719.822	3059
2721.719	2988
2723.616	3077
2725.512	3005
2727.41	3028
2729.305	3107
2731.201	2963
2733.095	3037
2734.99	3008
2736.884	3075
2738.778	3069
2740.67	3143
2742.562	3007
2744.455	3093
2746.346	3013
2748.238	3080
2750.129	3025
2752.018	3052
2753.907	3052
2755.797	3018
2757.687	3005
2759.575	3052
2761.462	3053
2763.349	3045
2765.237	3005
2767.124	3002
2769.009	3067
2770.894	3012
2772.779	3065
2774.663	2984
2776.547	3023
2778.431	3055
2780.314	3038
2782.197	3040
2784.078	2968
2785.96	2990
2787.842	2972
2789.723	2979
2791.603	3004
2793.483	3020
2795.362	2963
2797.241	2994
2799.121	3029
2800.997	3046
2802.874	2948
2804.751	2960
2806.628	2959
2808.506	2994
2810.38	3039
2812.255	3041
2814.13	2996
2816.003	3067
2817.878	3030
2819.752	2906
2821.623	3051
2823.496	2985
2825.368	3029
2827.238	3021
2829.111	3055
2830.98	3111
2832.851	2915
2834.719	3058
2836.589	3008
2838.458	2993
2840.327	3073
2842.193	3037
2844.061	3083
2845.927	3115
2847.794	3055
2849.66	3034
2851.525	3071
2853.39	3097
2855.254	3068
2857.117	3138
2858.983	3093
2860.845	3187
2862.707	3112
2864.569	3182
2866.431	3273
2868.293	3175
2870.154	3230
2872.013	3259
2873.873	3304
2875.733	3496
2877.592	3428
2879.451	3453
2881.309	3437
2883.166	3437
2885.022	3460
2886.879	3556
2888.736	3570
2890.591	3509
2892.446	3590
2894.301	3567
2896.155	3650
2898.009	3567
2899.863	3577
2901.716	3606
2903.568	3540
2905.419	3510
2907.27	3514
2909.123	3446
2910.973	3485
2912.824	3570
2914.673	3599
2916.521	3591
2918.372	3646
2920.22	3631
2922.067	3742
2923.914	3670
2925.761	3718
2927.607	3786
2929.455	3863
2931.301	3951
2933.144	3945
2934.99	3974
2936.833	3928
2938.678	3993
2940.522	4124
2942.364	4112
2944.207	4178
2946.048	4218
2947.891	4335
2949.731	4236
2951.571	4228
2953.412	4189
2955.25	4164
2957.09	4046
2958.93	4052
2960.767	4063
2962.606	4052
2964.443	3994
2966.279	3943
2968.116	3941
2969.953	3791
2971.788	3816
2973.623	3727
2975.457	3662
2977.292	3694
2979.127	3656
2980.959	3657
2982.792	3578
2984.624	3557
2986.455	3560
2988.288	3571
2990.119	3485
2991.949	3446
2993.779	3392
2995.608	3482
2997.439	3388
2999.268	3367
3001.096	3395
3002.923	3246
3004.751	3270
3006.578	3201
3008.406	3168
3010.232	3183
3012.057	3148
3013.883	3073
3015.706	3137
3017.532	3057
3019.356	3071
3021.179	3047
3023.002	3013
3024.823	3001
3026.646	3039
3028.469	2929
3030.289	2948
3032.11	2857
3033.93	2956
3035.749	3053
3037.57	2887
3039.39	2927
3041.207	2954
3043.026	2904
3044.842	2963
3046.661	2956
3048.477	2902
3050.294	2956
3052.109	2901
3053.925	2884
3055.739	2963
3057.555	2947
3059.368	2908
3061.181	2891
3062.995	2908
3064.807	2951
3066.62	2916
3068.433	2889
3070.243	2943
3072.054	2895
3073.865	2914
3075.675	2882
3077.485	2836
3079.293	2908
3081.102	2882
3082.911	2893
3084.719	2881
3086.527	2904
3088.333	2869
3090.139	2856
3091.945	2775
3093.75	2890
3095.557	2825
3097.361	2880
3099.165	2798
3100.969	2868
3102.772	2875
3104.575	2779
3106.379	2881
3108.181	2773
3109.982	2835
3111.783	2839
3113.584	2830
3115.386	2794
3117.186	2748
3118.985	2805
3120.783	2822
3122.582	2828
3124.381	2854
3126.179	2786
3127.975	2793
3129.772	2780
3131.569	2792
3133.365	2685
3135.161	2824
3136.956	2802
3138.751	2747
3140.544	2802
3142.338	2798
3144.132	2772
3145.925	2826
3147.717	2798
3149.509	2841
3151.301	2709
3153.091	2800
3154.884	2742
3156.673	2750
3158.462	2781
3160.252	2821
3162.041	2759
3163.831	2786
3165.618	2743
3167.405	2755
3169.193	2787
3170.979	2738
3172.767	2780
3174.553	2800
3176.338	2781
3178.123	2717
3179.907	2756
3181.692	2710
3183.477	2777
3185.259	2730
3187.042	2789
3188.824	2726
3190.607	2854
3192.389	2804
3194.17	2779
3195.951	2780
3197.73	2721
3199.51	2723
3201.289	2816
3203.07	2786
3204.848	2750
3206.626	2725
3208.403	2803
3210.18	2831
3211.959	2798
3213.735	2762
3215.511	2715
3217.285	2756
3219.06	2838
3220.836	2812
3222.611	2794
3224.384	2748
3226.158	2809
3227.929	2830
3229.702	2763
3231.476	2810
3233.248	2755
3235.018	2746
3236.789	2799
3238.56	2756
3240.33	2720
3242.1	2799
3243.869	2807
3245.637	2734
3247.405	2775
3249.172	2805
3250.941	2730
3252.707	2755
3254.474	2807
3256.24	2798
3258.006	2825
3259.772	2779
3261.537	2746
3263.301	2744
3265.065	2815
3266.828	2827
3268.592	2848
3270.355	2790
3272.117	2790
3273.878	2758
3275.64	2750
3277.401	2777
3279.162	2771
3280.922	2844
3282.682	2771
3284.441	2831
3286.199	2824
3287.959	2807
3289.716	2782
3291.475	2810
3293.232	2832
3294.988	2711
3296.744	2794
3298.501	2782
3300.256	2782
3302.011	2881
3303.766	2778
3305.52	2804
3307.275	2823
3309.028	2812
3310.781	2778
3312.533	2808
3314.285	2766
3316.038	2791
3317.789	2789
3319.54	2839
3321.289	2821
3323.039	2804
3324.789	2790
3326.539	2769
3328.288	2816
3330.035	2774
3331.783	2774
3333.531	2779
3335.28	2745
3337.025	2761
3338.771	2785
3340.518	2813
3342.262	2741
3344.009	2894
3345.753	2838
3347.497	2744
3349.24	2727
3350.983	2845
3352.726	2750
3354.469	2771
3356.212	2761
3357.952	2754
3359.694	2740
3361.434	2808
3363.176	2762
3364.916	2791
3366.654	2774
3368.394	2764
3370.132	2787
3371.871	2748
3373.61	2815
3375.346	2736
3377.083	2744
3378.82	2724
3380.556	2657
3382.292	2718
3384.027	2722
3385.763	2696
3387.497	2728
3389.231	2692
3390.965	2659
3392.698	2710
3394.431	2642
3396.164	2687
3397.896	2751
3399.627	2697
3401.36	2702
3403.09	2687
3404.82	2663
3406.55	2627
3408.279	2681
3410.01	2671
3411.738	2685
3413.467	2653
3415.194	2654
3416.92	2699
3418.647	2718
3420.375	2683
3422.102	2640
3423.827	2631
3425.553	2645
3427.277	2626
3429.003	2623
3430.727	2672
3432.451	2634
3434.173	2664
3435.896	2701
3437.62	2642
3439.343	2616
3441.063	2622
3442.785	2595
3444.505	2633
3446.226	2633
3447.948	2657
3449.666	2621
3451.386	2607
3453.104	2620
3454.823	2645
3456.541	2586
3458.259	2574
3459.976	2612
3461.693	2621
3463.408	2664
3465.125	2559
3466.841	2623
3468.556	2574
3470.271	2567
3471.985	2559
3473.698	2523
3475.414	2588
3477.126	2527
3478.838	2526
3480.55	2602
3482.263	2617
3483.975	2605
3485.686	2562
3487.396	2578
3489.106	2574
3490.817	2630
3492.526	2499
3494.236	2502
3495.944	2535
3497.652	2567
3499.359	2522
3501.066	2494
3502.775	2493
3504.481	2523
3506.187	2563
3507.893	2484
3509.598	2428
3511.304	2482
3513.009	2471
3514.713	2498
3516.417	2483
3518.12	2435
3519.821	2458
3521.525	2448
3523.228	2414
3524.929	2476
3526.631	2447
3528.33	2443
3530.032	2445
3531.733	2477
3533.433	2485
3535.131	2434
3536.83	2443
3538.529	2491
3540.227	2407
3541.925	2436
3543.623	2425
3545.319	2434
3547.016	2457
3548.712	2436
3550.408	2374
3552.103	2418
3553.798	2444
3555.491	2311
3557.188	2385
3558.88	2424
3560.574	2405
3562.266	2440
3563.959	2327
3565.651	2428
3567.343	2362
3569.035	2453
3570.725	2406
3572.415	2413
3574.106	2433
3575.797	2429
3577.485	2389
3579.174	2328
3580.863	2432
3582.551	2404
3584.238	2378
3585.926	2337
3587.613	2330
3589.3	2390
3590.986	2341
3592.671	2389
3594.357	2301
3596.042	2343
3597.726	2320
3599.41	2286
3601.094	2294
3602.778	2327
3604.461	2274
3606.143	2325
3607.825	2312
3609.507	2310
3611.188	2301
3612.87	2332
3614.551	2324
3616.229	2314
3617.909	2205
3619.589	2255
3621.269	2272
3622.948	2249
3624.625	2288
3626.302	2298
3627.98	2290
3629.657	2296
3631.334	2285
3633.01	2286
3634.686	2205
3636.361	2243
3638.036	2268
3639.712	2232
3641.385	2272
3643.06	2218
3644.732	2226
3646.405	2174
3648.08	2231
3649.751	2202
3651.424	2214
3653.094	2168
3654.766	2200
3656.436	2166
3658.106	2245
3659.777	2225
3661.446	2199
3663.115	2242
3664.783	2201
3666.452	2240
3668.121	2266
3669.788	2193
3671.454	2218
3673.121	2136
3674.789	2167
3676.455	2157
3678.12	2233
3679.784	2194
3681.45	2130
3683.114	2148
3684.779	2186
3686.442	2172
3688.105	2198
3689.768	2124
3691.43	2188
3693.093	2184
3694.754	2158
3696.415	2147
3698.076	2173
3699.736	2176
3701.396	2124
3703.057	2127
3704.716	2157
3706.375	2139
3708.034	2137
3709.692	2128
3711.351	2173
3713.008	2155
3714.665	2150
3716.321	2183
3717.977	2105
3719.634	2161
3721.29	2128
3722.945	2119
3724.598	2116
3726.253	2117
3727.907	2179
3729.561	2133
3731.214	2084
3732.867	2149
3734.518	2155
3736.171	2112
3737.824	2118
3739.474	2102
3741.125	2123
3742.775	2152
3744.425	2122
3746.074	2137
3747.725	2151
3749.373	2106
3751.022	2053
3752.669	2124
3754.318	2080
3755.966	2127
3757.612	2079
3759.259	2079
3760.905	2077
3762.55	2169
3764.197	2057
3765.842	2082
3767.486	2083
3769.131	2051
3770.774	2166
3772.417	2102
3774.061	2084
3775.705	2097
3777.347	2113
3778.988	2085
3780.629	2123
3782.271	2099
3783.912	2106
3785.552	2096
3787.192	2090
3788.831	2078
3790.472	2041
3792.112	2087
3793.75	2072
3795.388	2048
3797.024	2069
3798.661	1990
3800.3	2033
3801.936	2087
3803.572	2077
3805.208	2017
3806.844	2047
3808.48	2062
3810.115	2001
3811.748	2047
3813.382	2070
3815.016	2045
3816.649	2032
3818.283	2038
3819.914	2063
3821.547	1979
3823.178	2020
3824.809	2060
3826.441	2070
3828.072	2039
3829.701	2021
3831.331	2015
3832.96	2027
3834.591	1990
3836.219	2013
3837.847	2028
3839.475	1978
3841.102	2008
3842.729	2010
3844.357	2003
3845.984	2030
3847.609	2007
3849.234	2039
3850.86	2020
3852.485	2040
3854.11	1999
3855.734	2052
3857.357	1964
3858.981	1996
3860.603	1955
3862.227	1946
3863.848	2029
3865.471	1947
3867.092	2031
3868.713	1965
3870.334	1976
3871.954	1964
3873.575	1987
3875.194	1953
3876.813	2021
3878.433	1962
3880.051	2015
3881.669	2010
3883.286	1952
3884.904	1979
3886.52	1944
3888.138	1957
3889.754	1962
3891.37	1966
3892.985	1960
3894.6	2001
3896.216	1975
3897.831	1994
3899.444	2025
3901.058	2012
3902.67	1950
3904.283	1965
3905.897	1948
3907.509	2019
3909.121	2019
3910.731	1934
3912.342	2018
3913.954	1968
3915.563	1981
3917.174	1969
3918.783	1938
3920.391	1921
3922.002	1972
3923.611	1979
3925.218	2000
3926.826	1969
3928.432	1935
3930.039	1973
3931.647	1948
3933.253	1980
3934.859	1920
3936.464	1897
3938.068	1980
3939.675	1962
3941.278	1974
3942.883	1862
3944.486	1880
3946.089	1954
3947.692	1940
3949.295	1966
3950.898	1886
3952.499	1973
3954.1	1955
3955.7	1912
3957.303	1900
3958.903	1885
3960.502	1900
3962.101	1951
3963.7	1920
3965.301	1930
3966.899	1889
3968.497	1858
3970.094	1908
3971.691	1918
3973.288	1875
3974.885	1904
3976.481	1891
3978.077	1926
3979.672	1883
3981.267	1884
3982.863	1874
3984.457	1904
3986.051	1908
3987.645	1877
3989.238	1908
3990.831	1870
3992.425	1846
3994.017	1848
3995.607	1884
3997.199	1884
3998.79	1840
4000.382	1806
4001.973	1880
4003.561	1847
4005.151	1902
4006.741	1875
4008.331	1875
4009.918	1877
4011.507	1839
4013.095	1825
4014.681	1900
4016.269	1842
4017.856	1855
4019.443	1857
4021.028	1856
4022.614	1848
4024.199	1848
4025.785	1824
4027.37	1883
4028.953	1810
4030.536	1827
4032.12	1821
4033.704	1826
4035.287	1906
4036.869	1827
4038.45	1838
4040.032	1813
4041.613	1885
4043.195	1765
4044.776	1822
4046.356	1794
4047.935	1840
4049.515	1819
4051.095	1752
4052.674	1785
4054.251	1842
4055.829	1820
4057.406	1752
4058.985	1823
4060.562	1829
4062.139	1853
4063.715	1800
4065.29	1822
4066.865	1764
4068.442	1807
4070.016	1804
4071.59	1808
4073.164	1842
4074.738	1745
4076.312	1772
4077.885	1717
4079.458	1836
4081.03	1818
4082.602	1808
4084.173	1717
4085.745	1758
4087.315	1747
4088.886	1787
4090.456	1735
4092.026	1822
4093.596	1775
4095.165	1732
4096.734	1767
4098.301	1824
4099.869	1794
4101.437	1707
4103.006	1783
4104.572	1770
4106.139	1759
4107.704	1745
4109.27	1736
4110.837	1762
4112.401	1819
4113.966	1752
4115.53	1790
4117.094	1754
4118.659	1796
4120.223	1768
4121.785	1718
4123.347	1772
4124.909	1749
4126.471	1746
4128.034	1749
4129.595	1733
4131.155	1742
4132.716	1700
4134.275	1685
4135.836	1692
4137.395	1733
4138.955	1724
4140.513	1766
4142.071	1758
4143.628	1676
4145.188	1690
4146.745	1670
4148.302	1713
4149.858	1721
4151.414	1671
4152.971	1772
4154.526	1732
4156.081	1683
4157.635	1718
4159.189	1722
4160.745	1708
4162.298	1664
4163.852	1672
4165.405	1690
4166.957	1682
4168.51	1713
4170.063	1678
4171.614	1727
4173.166	1681
4174.717	1664
4176.267	1714
4177.817	1713
4179.368	1680
4180.917	1712
4182.466	1698
4184.016	1686
4185.564	1672
4187.112	1689
4188.66	1636
4190.207	1663
4191.754	1672
4193.301	1690
4194.848	1650
4196.394	1679
4197.94	1629
4199.484	1634
4201.03	1701
4202.575	1683
4204.12	1658
4205.663	1656
4207.207	1616
4208.75	1609
4210.292	1624
4211.836	1651
4213.378	1659
4214.92	1614
4216.46	1654
4218.002	1624
4219.544	1643
4221.083	1705
4222.625	1679
4224.164	1635
4225.703	1665
4227.244	1613
4228.782	1625
4230.32	1615
4231.857	1660
4233.395	1621
4234.933	1625
4236.471	1614
4238.007	1662
4239.542	1607
4241.078	1612
4242.614	1629
4244.15	1578
4245.685	1652
4247.219	1624
4248.753	1619
4250.287	1647
4251.82	1602
4253.354	1621
4254.887	1605
4256.419	1606
4257.951	1590
4259.483	1628
4261.016	1633
4262.547	1602
4264.078	1664
4265.608	1656
4267.137	1610
4268.668	1615
4270.197	1590
4271.727	1614
4273.254	1655
4274.783	1600
4276.311	1595
4277.84	1580
4279.366	1625
4280.894	1570
4282.42	1654
4283.946	1616
4285.473	1591
4286.998	1611
4288.523	1612
4290.047	1561
4291.572	1641
4293.096	1570
4294.622	1625
4296.144	1625
4297.668	1570
4299.19	1596
4300.713	1590
4302.236	1556
4303.758	1547
4305.279	1576
4306.799	1552
4308.321	1574
4309.842	1546
4311.361	1544
4312.882	1610
4314.401	1574
