400.0961	4228
402.6185	4016
405.1424	4166
407.6635	4133
410.1838	4161
412.7035	4174
415.2225	4220
417.7388	4288
420.2585	4286
422.7754	4352
425.2917	4333
427.8072	4362
430.3221	4380
432.8363	4343
435.3498	4414
437.8626	4476
440.3727	4421
442.8841	4331
445.3969	4389
447.907	4388
450.4142	4460
452.9229	4378
455.4289	4524
457.9362	4426
460.4449	4456
462.9488	4465
465.454	4464
467.9566	4506
470.4604	4473
472.9637	4461
475.4662	4490
477.966	4399
480.4671	4441
482.9656	4454
485.4633	4416
487.9645	4485
490.4608	4480
492.9566	4510
495.4536	4590
497.948	4520
500.4437	4545
502.9387	4580
505.431	4496
507.9226	4595
510.4136	4628
512.9079	4531
515.3975	4576
517.8864	4611
520.3746	4633
522.8622	4546
525.3491	4645
527.8394	4615
530.3249	4535
532.8098	4613
535.2939	4556
537.7774	4632
540.2623	4488
542.7444	4733
545.2259	4532
547.7067	4657
550.1868	4606
552.6683	4581
555.147	4697
557.6231	4700
560.1005	4548
562.5773	4736
565.0534	4668
567.5308	4716
570.0056	4627
572.4776	4714
574.951	4719
577.4237	4762
579.8978	4807
582.3671	4776
584.8378	4759
587.3079	4763
589.7773	4738
592.244	4895
594.714	4739
597.1793	4731
599.6461	4788
602.1121	4707
604.5754	4821
607.0421	4771
609.5042	4706
611.9675	4757
614.4282	4807
616.8902	4937
619.3515	4840
621.8122	4777
624.2702	4769
626.7296	4840
629.1863	4916
631.6423	4768
634.1017	4840
636.5563	4714
639.0104	4821
641.4658	4859
643.9185	4869
646.3725	4796
648.8239	4818
651.2766	4796
653.7266	4782
656.176	4944
658.6247	4868
661.0748	4953
663.5242	4768
665.9709	4910
668.417	4938
670.8624	4876
673.3092	5001
675.7533	4889
678.1968	4882
680.6395	4946
683.0817	4978
685.5251	4982
687.9659	5067
690.4061	4966
692.8456	5027
695.2844	4943
697.7226	4954
700.1621	4921
702.599	4924
705.0332	5079
707.4688	4949
709.9036	5051
712.3399	5024
714.7735	5074
717.2044	5030
719.6367	5105
722.0683	4949
724.4993	5076
726.9296	5076
729.3593	5110
731.7883	5063
734.2147	5152
736.6423	5244
739.0714	5202
741.4958	5174
743.9216	5286
746.3447	5115
748.7691	5271
751.1929	5304
753.616	5258
756.0366	5302
758.4584	5236
760.8776	5275
763.2982	5279
765.718	5368
768.1373	5337
770.5539	5332
772.9698	5381
775.3871	5194
777.8038	5344
780.2178	5207
782.6332	5288
785.0459	5368
787.458	5266
789.8714	5381
792.2842	5327
794.6943	5278
797.1038	5258
799.5127	5268
801.9209	5345
804.3324	5256
806.7393	5380
809.1456	5370
811.5513	5374
813.9562	5430
816.3625	5274
818.7663	5439
821.1693	5428
823.5718	5434
825.9735	5427
828.3746	5391
830.7771	5356
833.177	5439
835.5762	5554
837.9747	5389
840.3727	5449
842.772	5347
845.1666	5438
847.5626	5466
849.958	5496
852.3527	5474
854.7488	5522
857.1403	5399
859.5331	5397
861.9253	5422
864.3168	5384
866.7057	5496
869.098	5442
871.4876	5514
873.8746	5491
876.263	5456
878.6487	5532
881.0378	5455
883.4243	5446
885.8081	5486
888.1933	5418
890.5759	5378
892.9598	5417
895.343	5439
897.7256	5451
900.1057	5394
902.4871	5457
904.8659	5473
907.246	5515
909.6254	5577
912.0023	5431
914.3786	5603
916.7562	5655
919.1331	5707
921.5074	5711
923.8831	5692
926.2562	5624
928.6287	5700
931.0005	5590
933.3757	5598
935.7462	5712
938.1162	5707
940.4855	5745
942.8542	5705
945.2242	5740
947.5916	5973
949.9584	5976
952.3266	6042
954.6921	6108
957.0571	6350
959.4233	6500
961.787	6497
964.15	6433
966.5125	6285
968.8742	6285
971.2354	6104
973.5959	5863
975.9559	5732
978.3151	5812
980.6738	5811
983.0338	5748
985.3912	5690
987.7461	5694
990.1022	5504
992.4578	5659
994.8127	5652
997.1689	5654
999.5207	5701
1001.874	5720
1004.226	5613
1006.576	5693
1008.929	5737
1011.28	5667
1013.628	5534
1015.977	5634
1018.324	5732
1020.674	5679
1023.019	5667
1025.366	5729
1027.713	5765
1030.056	5716
1032.399	5803
1034.746	5752
1037.087	5723
1039.431	5751
1041.771	5732
1044.113	5765
1046.454	5824
1048.793	5708
1051.133	5771
1053.471	5776
1055.807	5793
1058.146	5876
1060.483	5798
1062.818	5853
1065.153	5887
1067.489	5895
1069.822	5790
1072.156	5841
1074.488	5865
1076.82	5840
1079.15	5810
1081.48	5715
1083.814	5802
1086.143	5842
1088.471	5873
1090.799	5739
1093.126	5759
1095.452	5825
1097.78	5812
1100.105	5787
1102.43	5853
1104.754	5807
1107.077	5810
1109.4	5876
1111.722	5841
1114.044	5833
1116.365	5783
1118.685	5793
1121.005	5834
1123.324	5915
1125.643	5864
1127.961	5895
1130.278	5889
1132.595	5839
1134.911	5850
1137.226	5824
1139.541	5862
1141.854	5862
1144.167	5816
1146.482	5850
1148.793	5889
1151.105	5865
1153.414	5828
1155.725	5955
1158.033	5836
1160.344	5915
1162.651	5927
1164.959	5789
1167.265	5956
1169.572	5819
1171.878	5809
1174.184	5930
1176.488	5917
1178.79	5824
1181.094	5959
1183.396	6009
1185.699	5813
1188.001	5883
1190.301	5892
1192.6	5910
1194.9	5931
1197.2	5711
1199.497	5956
1201.794	5882
1204.09	5888
1206.387	5913
1208.684	5904
1210.978	5884
1213.272	5857
1215.565	5959
1217.858	5858
1220.15	5954
1222.443	5973
1224.734	5881
1227.024	6028
1229.313	6055
1231.602	5945
1233.892	5984
1236.18	5959
1238.467	6014
1240.754	6065
1243.04	6076
1245.325	6011
1247.612	6178
1249.896	6176
1252.178	6025
1254.461	6059
1256.743	6102
1259.027	6065
1261.308	6096
1263.587	6113
1265.867	6201
1268.146	6073
1270.425	6220
1272.703	6076
1274.981	6152
1277.256	6130
1279.532	6127
1281.808	6134
1284.083	6107
1286.358	6154
1288.63	6138
1290.904	5991
1293.175	6100
1295.449	5956
1297.719	5996
1299.99	5956
1302.259	6157
1304.529	6002
1306.798	5972
1309.065	6050
1311.333	6071
1313.599	5989
1315.866	6011
1318.131	6065
1320.396	6049
1322.66	6103
1324.925	6016
1327.187	6029
1329.448	6038
1331.711	6211
1333.974	6113
1336.234	6019
1338.493	6112
1340.752	6063
1343.01	5972
1345.269	6104
1347.526	6138
1349.784	6103
1352.04	6049
1354.295	5979
1356.552	6017
1358.806	6035
1361.059	6152
1363.312	6057
1365.564	6176
1367.818	6063
1370.069	6186
1372.318	6060
1374.568	6137
1376.817	6149
1379.066	6165
1381.316	6024
1383.564	6124
1385.809	6055
1388.056	6124
1390.301	6115
1392.549	6230
1394.793	6175
1397.036	6230
1399.279	6159
1401.522	6137
1403.763	6289
1406.007	6125
1408.248	6159
1410.487	6233
1412.727	6109
1414.965	6179
1417.205	6185
1419.442	6243
1421.68	6226
1423.915	6191
1426.152	6215
1428.388	6268
1430.623	6306
1432.857	6302
1435.091	6270
1437.323	6348
1439.556	6219
1441.789	6229
1444.019	6366
1446.25	6323
1448.48	6320
1450.708	6403
1452.938	6344
1455.167	6366
1457.394	6330
1459.62	6485
1461.846	6364
1464.073	6422
1466.299	6387
1468.523	6251
1470.746	6280
1472.969	6149
1475.191	6192
1477.415	6179
1479.636	6237
1481.858	6093
1484.078	6241
1486.298	6127
1488.518	6149
1490.736	6188
1492.954	6081
1495.169	6139
1497.386	6109
1499.602	6008
1501.819	6151
1504.034	6061
1506.248	6130
1508.462	6091
1510.675	6023
1512.888	6079
1515.1	5947
1517.311	6018
1519.522	6108
1521.732	6045
1523.942	6057
1526.151	6128
1528.36	5985
1530.566	6084
1532.773	6118
1534.98	6130
1537.187	6048
1539.392	6203
1541.596	6225
1543.801	6134
1546.005	6124
1548.208	6105
1550.411	6237
1552.612	6217
1554.814	6131
1557.013	6118
1559.212	6274
1561.414	6286
1563.612	6226
1565.811	6171
1568.007	6219
1570.203	6239
1572.403	6132
1574.598	6262
1576.792	6248
1578.988	6210
1581.181	6236
1583.376	6352
1585.568	6215
1587.761	6190
1589.952	6129
1592.143	6294
1594.333	6279
1596.524	6288
1598.715	6291
1600.903	6313
1603.091	6329
1605.278	6375
1607.466	6299
1609.652	6411
1611.838	6245
1614.023	6376
1616.207	6340
1618.391	6318
1620.576	6236
1622.759	6349
1624.941	6304
1627.123	6340
1629.304	6362
1631.484	6265
1633.664	6467
1635.844	6405
1638.022	6435
1640.201	6383
1642.38	6468
1644.556	6479
1646.732	6337
1648.908	6384
1651.084	6354
1653.257	6458
1655.433	6396
1657.607	6425
1659.779	6445
1661.951	6473
1664.122	6447
1666.295	6507
1668.467	6481
1670.635	6477
1672.805	6470
1674.973	6357
1677.142	6451
1679.31	6344
1681.478	6408
1683.644	6349
1685.81	6443
1687.975	6499
1690.142	6389
1692.305	6340
1694.468	6423
1696.632	6320
1698.794	6426
1700.957	6252
1703.119	6412
1705.279	6295
1707.439	6331
1709.598	6230
1711.758	6218
1713.917	6435
1716.075	6278
1718.231	6260
1720.388	6280
1722.543	6271
1724.702	6393
1726.856	6214
1729.01	6365
1731.164	6263
1733.317	6354
1735.471	6286
1737.623	6338
1739.774	6279
1741.925	6349
1744.075	6340
1746.225	6293
1748.376	6312
1750.524	6425
1752.672	6394
1754.82	6240
1756.965	6354
1759.113	6400
1761.259	6214
1763.405	6337
1765.549	6334
1767.694	6292
1769.836	6392
1771.981	6388
1774.123	6447
1776.264	6342
1778.405	6404
1780.546	6494
1782.687	6371
1784.827	6350
1786.966	6480
1789.103	6405
1791.242	6400
1793.381	6360
1795.517	6334
1797.653	6385
1799.788	6383
1801.923	6359
1804.057	6474
1806.193	6423
1808.326	6407
1810.457	6256
1812.59	6281
1814.721	6452
1816.855	6411
1818.984	6318
1821.113	6255
1823.244	6346
1825.372	6378
1827.499	6457
1829.63	6375
1831.756	6277
1833.882	6285
1836.007	6311
1838.132	6441
1840.26	6349
1842.384	6402
1844.507	6359
1846.63	6226
1848.752	6224
1850.875	6370
1852.996	6234
1855.118	6305
1857.238	6312
1859.358	6276
1861.477	6410
1863.597	6255
1865.715	6252
1867.832	6316
1869.948	6332
1872.064	6325
1874.181	6334
1876.297	6314
1878.411	6291
1880.526	6363
1882.639	6279
1884.752	6347
1886.865	6315
1888.977	6365
1891.089	6253
1893.2	6429
1895.308	6368
1897.42	6354
1899.53	6378
1901.639	6425
1903.745	6285
1905.853	6391
1907.962	6346
1910.067	6243
1912.174	6373
1914.278	6360
1916.383	6336
1918.486	6449
1920.592	6439
1922.694	6434
1924.797	6350
1926.898	6391
1929	6518
1931.102	6438
1933.203	6349
1935.301	6440
1937.401	6366
1939.499	6335
1941.598	6471
1943.697	6478
1945.793	6428
1947.888	6352
1949.985	6391
1952.08	6395
1954.176	6480
1956.269	6398
1958.364	6368
1960.457	6425
1962.549	6488
1964.642	6278
1966.733	6366
1968.823	6421
1970.913	6267
1973.005	6435
1975.093	6494
1977.184	6376
1979.271	6345
1981.359	6448
1983.446	6390
1985.532	6409
1987.619	6388
1989.705	6416
1991.789	6415
1993.874	6424
1995.956	6482
1998.041	6327
2000.123	6282
2002.206	6336
2004.287	6426
2006.368	6360
2008.449	6269
2010.529	6310
2012.609	6354
2014.688	6381
2016.766	6254
2018.843	6359
2020.922	6293
2022.999	6366
2025.074	6421
2027.15	6359
2029.225	6318
2031.299	6204
2033.375	6298
2035.447	6425
2037.52	6367
2039.592	6380
2041.664	6342
2043.736	6346
2045.807	6314
2047.876	6340
2049.947	6338
2052.015	6305
2054.086	6352
2056.153	6347
2058.221	6289
2060.288	6313
2062.353	6427
2064.42	6409
2066.486	6339
2068.55	6391
2070.614	6390
2072.678	6356
2074.741	6419
2076.805	6350
2078.866	6230
2080.929	6456
2082.99	6351
2085.049	6279
2087.109	6334
2089.17	6391
2091.228	6295
2093.286	6307
2095.344	6422
2097.4	6305
2099.46	6406
2101.516	6482
2103.572	6378
2105.626	6338
2107.679	6309
2109.735	6337
2111.788	6359
2113.841	6329
2115.894	6346
2117.945	6463
2119.997	6373
2122.049	6328
2124.1	6354
2126.148	6388
2128.197	6233
2130.246	6379
2132.296	6234
2134.342	6376
2136.39	6218
2138.437	6299
2140.483	6377
2142.527	6304
2144.574	6303
2146.619	6218
2148.661	6280
2150.705	6408
2152.747	6315
2154.792	6333
2156.832	6333
2158.874	6207
2160.915	6338
2162.954	6250
2164.995	6330
2167.034	6244
2169.072	6326
2171.111	6292
2173.148	6256
2175.186	6191
2177.223	6249
2179.258	6280
2181.294	6318
2183.328	6240
2185.362	6161
2187.398	6210
2189.431	6187
2191.463	6157
2193.495	6114
2195.528	6170
2197.56	6217
2199.59	6210
2201.62	6189
2203.649	6239
2205.678	6239
2207.708	6187
2209.737	6053
2211.764	6142
2213.791	6151
2215.817	6120
2217.843	6139
2219.87	6131
2221.895	6293
2223.919	6189
2225.942	6195
2227.966	6242
2229.988	6149
2232.012	6004
2234.032	6241
2236.054	6126
2238.074	6186
2240.095	6186
2242.116	6096
2244.135	6155
2246.153	6185
2248.171	6130
2250.188	6053
2252.208	6059
2254.223	6113
2256.239	6194
2258.255	6093
2260.269	6013
2262.283	6197
2264.3	6087
2266.312	6147
2268.325	6129
2270.336	6147
2272.349	6183
2274.362	6240
2276.372	6213
2278.383	6043
2280.392	6152
2282.402	6147
2284.409	6262
2286.418	6169
2288.427	6046
2290.433	6211
2292.441	6181
2294.446	6082
2296.453	6241
2298.459	6143
2300.463	6158
2302.466	6257
2304.471	6100
2306.475	6162
2308.477	6143
2310.478	6098
2312.481	6158
2314.481	6129
2316.481	5992
2318.482	6053
2320.482	6043
2322.48	6079
2324.48	6101
2326.478	6050
2328.476	6063
2330.473	6070
2332.469	6134
2334.465	6059
2336.46	6052
2338.454	5998
2340.45	6060
2342.444	6033
2344.437	5924
2346.43	6025
2348.421	5967
2350.414	6046
2352.405	6122
2354.396	5927
2356.386	6014
2358.376	5938
2360.366	5996
2362.355	6012
2364.343	6032
2366.331	5914
2368.317	5983
2370.304	6039
2372.292	6077
2374.278	6023
2376.262	6061
2378.247	5901
2380.23	5955
2382.216	5894
2384.199	5945
2386.181	5941
2388.163	5972
2390.144	5936
2392.127	5950
2394.107	5872
2396.087	5916
2398.066	5924
2400.046	6113
2402.023	5924
2404.004	5995
2405.981	5905
2407.957	5914
2409.934	5852
2411.91	5906
2413.886	5948
2415.862	5961
2417.836	6044
2419.809	5831
2421.784	5897
2423.756	5913
2425.73	5869
2427.701	5915
2429.672	6044
2431.644	5919
2433.615	5909
2435.586	5975
2437.555	5867
2439.523	5874
2441.491	5883
2443.459	6003
2445.428	5898
2447.395	5882
2449.361	5843
2451.327	5877
2453.292	5898
2455.257	5945
2457.223	5954
2459.187	5899
2461.15	5792
2463.113	5943
2465.076	5857
2467.039	5872
2468.999	5916
2470.96	5896
2472.921	5932
2474.881	5909
2476.841	5793
2478.8	5872
2480.759	5994
2482.717	5683
2484.675	5813
2486.63	5838
2488.589	5803
2490.545	5849
2492.5	5813
2494.455	5809
2496.408	5786
2498.364	5743
2500.318	5840
2502.27	5796
2504.223	5810
2506.174	5725
2508.126	5865
2510.078	5788
2512.03	5869
2513.979	5838
2515.927	5821
2517.877	5710
2519.826	5864
2521.775	5790
2523.722	5814
2525.668	5788
2527.616	5767
2529.561	5786
2531.508	5828
2533.452	5807
2535.398	5835
2537.342	5725
2539.284	5790
2541.229	5825
2543.173	5787
2545.114	5831
2547.055	5779
2548.996	5756
2550.938	5748
2552.878	5846
2554.817	5781
2556.756	5787
2558.695	5860
2560.633	5832
2562.572	5803
2564.509	5806
2566.445	5793
2568.382	5794
2570.317	5733
2572.254	5744
2574.189	5771
2576.123	5553
2578.057	5736
2579.99	5842
2581.923	5789
2583.855	5748
2585.788	5770
2587.719	5652
2589.65	5794
2591.579	5809
2593.511	5775
2595.44	5760
2597.37	5753
2599.297	5669
2601.225	5774
2603.153	5798
2605.08	5722
2607.007	5653
2608.932	5835
2610.858	5685
2612.782	5735
2614.709	5688
2616.632	5709
2618.556	5819
2620.478	5778
2622.401	5778
2624.324	5723
2626.247	5770
2628.167	5688
2630.088	5679
2632.008	5719
2633.928	5856
2635.848	5744
2637.766	5838
2639.684	5825
2641.603	5757
2643.519	5737
2645.437	5763
2647.353	5799
2649.27	5711
2651.184	5763
2653.099	5812
2655.014	5732
2656.928	5766
2658.842	5796
2660.755	5727
2662.667	5761
2664.579	5783
2666.491	5688
2668.402	5633
2670.312	5796
2672.222	5784
2674.132	5732
2676.042	5667
2677.951	5760
2679.859	5682
2681.766	5561
2683.674	5709
2685.582	5643
2687.488	5669
2689.392	5695
2691.298	5669
2693.202	5707
2695.107	5615
2697.012	5644
2698.914	5641
2700.817	5670
2702.72	5768
2704.622	5673
2706.524	5727
2708.425	5596
2710.326	5593
2712.225	5634
2714.125	5587
2716.024	5701
2717.923	5735
2719.822	5672
2721.719	5650
2723.616	5615
2725.512	5599
2727.41	5580
2729.305	5616
2731.201	5684
2733.095	5591
2734.99	5659
2736.884	5601
2738.778	5637
2740.67	5577
2742.562	5606
2744.455	5743
2746.346	5539
2748.238	5588
2750.129	5734
2752.018	5621
2753.907	5611
2755.797	5604
2757.687	5541
2759.575	5687
2761.462	5568
2763.349	5657
2765.237	5632
2767.124	5585
2769.009	5608
2770.894	5605
2772.779	5635
2774.663	5647
2776.547	5671
2778.431	5592
2780.314	5396
2782.197	5637
2784.078	5610
2785.96	5454
2787.842	5601
2789.723	5549
2791.603	5577
2793.483	5563
2795.362	5685
2797.241	5531
2799.121	5543
2800.997	5520
2802.874	5559
2804.751	5508
2806.628	5520
2808.506	5561
2810.38	5493
2812.255	5598
2814.13	5581
2816.003	5418
2817.878	5380
2819.752	5521
2821.623	5434
2823.496	5555
2825.368	5556
2827.238	5286
2829.111	5523
2830.98	5562
2832.851	5556
2834.719	5534
2836.589	5549
2838.458	5592
2840.327	5463
2842.193	5479
2844.061	5495
2845.927	5525
2847.794	5518
2849.66	5526
2851.525	5517
2853.39	5595
2855.254	5483
2857.117	5483
2858.983	5569
2860.845	5493
2862.707	5620
2864.569	5628
2866.431	5616
2868.293	5695
2870.154	5580
2872.013	5604
2873.873	5738
2875.733	5650
2877.592	5685
2879.451	5785
2881.309	5707
2883.166	5856
2885.022	5853
2886.879	5851
2888.736	5828
2890.591	5945
2892.446	5792
2894.301	5817
2896.155	5903
2898.009	5825
2899.863	5969
2901.716	5824
2903.568	5775
2905.419	5854
2907.27	5910
2909.123	5739
2910.973	5776
2912.824	5811
2914.673	5817
2916.521	5863
2918.372	5937
2920.22	5830
2922.067	5966
2923.914	5991
2925.761	6017
2927.607	6071
2929.455	6032
2931.301	6269
2933.144	6109
2934.99	6116
2936.833	6249
2938.678	6229
2940.522	6235
2942.364	6337
2944.207	6383
2946.048	6203
2947.891	6327
2949.731	6431
2951.571	6367
2953.412	6297
2955.25	6224
2957.09	6197
2958.93	6259
2960.767	6261
2962.606	6209
2964.443	6067
2966.279	6052
2968.116	6066
2969.953	5957
2971.788	5963
2973.623	5971
2975.457	5901
2977.292	5965
2979.127	5880
2980.959	5863
2982.792	5805
2984.624	5766
2986.455	5716
2988.288	5813
2990.119	5798
2991.949	5614
2993.779	5631
2995.608	5635
2997.439	5630
2999.268	5613
3001.096	5605
3002.923	5579
3004.751	5488
3006.578	5526
3008.406	5496
3010.232	5367
3012.057	5426
3013.883	5434
3015.706	5401
3017.532	5324
3019.356	5376
3021.179	5388
3023.002	5286
3024.823	5166
3026.646	5211
3028.469	5312
3030.289	5293
3032.11	5294
3033.93	5083
3035.749	5280
3037.57	5250
3039.39	5118
3041.207	5222
3043.026	5189
3044.842	5206
3046.661	5191
3048.477	5229
3050.294	5189
3052.109	5241
3053.925	5083
3055.739	5082
3057.555	5255
3059.368	5137
3061.181	5190
3062.995	5095
3064.807	5115
3066.62	5041
3068.433	5098
3070.243	5104
3072.054	5043
3073.865	5114
3075.675	5216
3077.485	5105
3079.293	5026
3081.102	5115
3082.911	5177
3084.719	5013
3086.527	5185
3088.333	5096
3090.139	5005
3091.945	5028
3093.75	4974
3095.557	5152
3097.361	5023
3099.165	4997
3100.969	5030
3102.772	5051
3104.575	4978
3106.379	5060
3108.181	4895
3109.982	5011
3111.783	5061
3113.584	5002
3115.386	4970
3117.186	4931
3118.985	5040
3120.783	4950
3122.582	4958
3124.381	4928
3126.179	4895
3127.975	4874
3129.772	4863
3131.569	4955
3133.365	4878
3135.161	4993
3136.956	5008
3138.751	4988
3140.544	4922
3142.338	4963
3144.132	4901
3145.925	4971
3147.717	4863
3149.509	4839
3151.301	4933
3153.091	4924
3154.884	4885
3156.673	4841
3158.462	4885
3160.252	4842
3162.041	4998
3163.831	4927
3165.618	4895
3167.405	4886
3169.193	4870
3170.979	4837
3172.767	4788
3174.553	4886
3176.338	4805
3178.123	4796
3179.907	4768
3181.692	4765
3183.477	4791
3185.259	4833
3187.042	4866
3188.824	4859
3190.607	4812
3192.389	4801
3194.17	4766
3195.951	4813
3197.73	4732
3199.51	4857
3201.289	4705
3203.07	4823
3204.848	4879
3206.626	4820
3208.403	4774
3210.18	4813
3211.959	4783
3213.735	4779
3215.511	4746
3217.285	4784
3219.06	4851
3220.836	4717
3222.611	4814
3224.384	4732
3226.158	4800
3227.929	4677
3229.702	4760
3231.476	4716
3233.248	4702
3235.018	4754
3236.789	4685
3238.56	4785
3240.33	4750
3242.1	4682
3243.869	4737
3245.637	4717
3247.405	4699
3249.172	4806
3250.941	4827
3252.707	4760
3254.474	4652
3256.24	4803
3258.006	4679
3259.772	4784
3261.537	4734
3263.301	4822
3265.065	4673
3266.828	4720
3268.592	4652
3270.355	4576
3272.117	4697
3273.878	4745
3275.64	4694
3277.401	4789
3279.162	4733
3280.922	4820
3282.682	4649
3284.441	4672
3286.199	4748
3287.959	4692
3289.716	4706
3291.475	4748
3293.232	4701
3294.988	4683
3296.744	4749
3298.501	4736
3300.256	4703
3302.011	4701
3303.766	4713
3305.52	4677
3307.275	4625
3309.028	4679
3310.781	4679
3312.533	4754
3314.285	4644
3316.038	4691
3317.789	4646
3319.54	4725
3321.289	4737
3323.039	4719
3324.789	4751
3326.539	4625
3328.288	4605
3330.035	4774
3331.783	4633
3333.531	4702
3335.28	4664
3337.025	4663
3338.771	4741
3340.518	4659
3342.262	4683
3344.009	4757
3345.753	4700
3347.497	4659
3349.24	4643
3350.983	4674
3352.726	4686
3354.469	4698
3356.212	4665
3357.952	4652
3359.694	4623
3361.434	4615
3363.176	4644
3364.916	4669
3366.654	4518
3368.394	4634
3370.132	4616
3371.871	4586
3373.61	4533
3375.346	4542
3377.083	4551
3378.82	4621
3380.556	4561
3382.292	4517
3384.027	4615
3385.763	4454
3387.497	4620
3389.231	4505
3390.965	4601
3392.698	4487
3394.431	4556
3396.164	4509
3397.896	4542
3399.627	4468
3401.36	4526
3403.09	4452
3404.82	4481
3406.55	4501
3408.279	4570
3410.01	4562
3411.738	4485
3413.467	4509
3415.194	4488
3416.92	4480
3418.647	4480
3420.375	4371
3422.102	4578
3423.827	4506
3425.553	4538
3427.277	4454
3429.003	4478
3430.727	4465
3432.451	4400
3434.173	4402
3435.896	4448
3437.62	4481
3439.343	4426
3441.063	4437
3442.785	4371
3444.505	4399
3446.226	4392
3447.948	4335
3449.666	4407
3451.386	4406
3453.104	4395
3454.823	4331
3456.541	4297
3458.259	4362
3459.976	4275
3461.693	4277
3463.408	4455
3465.125	4363
3466.841	4392
3468.556	4290
3470.271	4323
3471.985	4349
3473.698	4305
3475.414	4306
3477.126	4332
3478.838	4243
3480.55	4271
3482.263	4274
3483.975	4283
3485.686	4268
3487.396	4282
3489.106	4182
3490.817	4205
3492.526	4268
3494.236	4192
3495.944	4240
3497.652	4234
3499.359	4159
3501.066	4206
3502.775	4216
3504.481	4286
3506.187	4205
3507.893	4190
3509.598	4254
3511.304	4204
3513.009	4143
3514.713	4203
3516.417	4194
3518.12	4093
3519.821	4179
3521.525	4159
3523.228	4216
3524.929	4164
3526.631	4136
3528.33	4197
3530.032	4142
3531.733	4082
3533.433	4195
3535.131	4104
3536.83	4079
3538.529	4209
3540.227	4129
3541.925	4126
3543.623	4177
3545.319	4112
3547.016	4106
3548.712	4083
3550.408	4147
3552.103	4083
3553.798	4125
3555.491	4064
3557.188	4083
3558.88	4081
3560.574	4034
3562.266	4050
3563.959	4062
3565.651	4051
3567.343	4052
3569.035	4045
3570.725	4036
3572.415	4065
3574.106	4080
3575.797	4129
3577.485	4074
3579.174	4042
3580.863	3972
3582.551	4072
3584.238	3973
3585.926	3987
3587.613	4081
3589.3	4022
3590.986	4069
3592.671	3944
3594.357	3996
3596.042	3863
3597.726	3968
3599.41	4093
3601.094	3917
3602.778	3918
3604.461	3969
3606.143	3975
3607.825	3960
3609.507	3926
3611.188	3918
3612.87	3929
3614.551	3905
3616.229	3843
3617.909	3926
3619.589	3895
3621.269	3920
3622.948	3934
3624.625	3958
3626.302	3839
3627.98	3856
3629.657	3872
3631.334	3894
3633.01	3859
3634.686	3872
3636.361	3839
3638.036	3844
3639.712	3957
3641.385	3830
3643.06	3830
3644.732	3850
3646.405	3797
3648.08	3709
3649.751	3881
3651.424	3743
3653.094	3825
3654.766	3776
3656.436	3913
3658.106	3781
3659.777	3706
3661.446	3678
3663.115	3764
3664.783	3757
3666.452	3783
3668.121	3890
3669.788	3730
3671.454	3852
3673.121	3814
3674.789	3667
3676.455	3783
3678.12	3621
3679.784	3849
3681.45	3749
3683.114	3730
3684.779	3711
3686.442	3836
3688.105	3783
3689.768	3764
3691.43	3764
3693.093	3715
3694.754	3796
3696.415	3777
3698.076	3727
3699.736	3663
3701.396	3644
3703.057	3751
3704.716	3662
3706.375	3748
3708.034	3663
3709.692	3655
3711.351	3721
3713.008	3674
3714.665	3690
3716.321	3699
3717.977	3681
3719.634	3703
3721.29	3686
3722.945	3753
3724.598	3670
3726.253	3650
3727.907	3690
3729.561	3727
3731.214	3622
3732.867	3649
3734.518	3633
3736.171	3642
3737.824	3715
3739.474	3593
3741.125	3643
3742.775	3638
3744.425	3632
3746.074	3586
3747.725	3647
3749.373	3682
3751.022	3638
3752.669	3604
3754.318	3606
3755.966	3551
3757.612	3609
3759.259	3564
3760.905	3577
3762.55	3567
3764.197	3569
3765.842	3580
3767.486	3658
3769.131	3625
3770.774	3572
3772.417	3557
3774.061	3567
3775.705	3537
3777.347	3615
3778.988	3596
3780.629	3623
3782.271	3523
3783.912	3552
3785.552	3686
3787.192	3563
3788.831	3515
3790.472	3536
3792.112	3558
3793.75	3490
3795.388	3505
3797.024	3455
3798.661	3547
3800.3	3476
3801.936	3492
3803.572	3428
3805.208	3531
3806.844	3500
3808.48	3490
3810.115	3383
3811.748	3460
3813.382	3545
3815.016	3460
3816.649	3435
3818.283	3486
3819.914	3468
3821.547	3457
3823.178	3479
3824.809	3473
3826.441	3518
3828.072	3435
3829.701	3453
3831.331	3445
3832.96	3517
3834.591	3450
3836.219	3422
3837.847	3487
3839.475	3447
3841.102	3467
3842.729	3450
3844.357	3347
3845.984	3406
3847.609	3441
3849.234	3356
3850.86	3411
3852.485	3394
3854.11	3380
3855.734	3376
3857.357	3384
3858.981	3312
3860.603	3411
3862.227	3420
3863.848	3380
3865.471	3386
3867.092	3362
3868.713	3338
3870.334	3334
3871.954	3399
3873.575	3418
3875.194	3369
3876.813	3361
3878.433	3362
3880.051	3419
3881.669	3339
3883.286	3409
3884.904	3328
3886.52	3433
3888.138	3331
3889.754	3307
3891.37	3422
3892.985	3394
3894.6	3318
3896.216	3352
3897.831	3303
3899.444	3336
3901.058	3333
3902.67	3324
3904.283	3369
3905.897	3346
3907.509	3327
3909.121	3333
3910.731	3329
3912.342	3299
3913.954	3391
3915.563	3216
3917.174	3335
3918.783	3293
3920.391	3283
3922.002	3309
3923.611	3252
3925.218	3223
3926.826	3321
3928.432	3222
3930.039	3267
3931.647	3274
3933.253	3270
3934.859	3219
3936.464	3308
3938.068	3256
3939.675	3224
3941.278	3217
3942.883	3288
3944.486	3250
3946.089	3310
3947.692	3294
3949.295	3192
3950.898	3224
3952.499	3270
3954.1	3287
3955.7	3182
3957.303	3189
3958.903	3275
3960.502	3250
3962.101	3124
3963.7	3188
3965.301	3190
3966.899	3218
3968.497	3262
3970.094	3162
3971.691	3182
3973.288	3251
3974.885	3162
3976.481	3184
3978.077	3235
3979.672	3242
3981.267	3187
3982.863	3125
3984.457	3191
3986.051	3174
3987.645	3177
3989.238	3120
3990.831	3060
3992.425	3127
3994.017	3092
3995.607	3043
3997.199	3117
3998.79	3216
4000.382	3126
4001.973	3122
4003.561	3196
4005.151	3155
4006.741	3036
4008.331	3113
4009.918	3059
4011.507	3091
4013.095	3068
4014.681	3138
4016.269	3039
4017.856	3040
4019.443	3106
4021.028	3071
4022.614	3122
4024.199	3049
4025.785	3077
4027.37	3081
4028.953	3086
4030.536	3024
4032.12	3109
4033.704	3054
4035.287	3002
4036.869	3070
4038.45	3030
4040.032	3045
4041.613	3092
4043.195	3016
4044.776	3061
4046.356	3047
4047.935	3059
4049.515	3000
4051.095	2974
4052.674	3026
4054.251	3063
4055.829	2935
4057.406	2961
4058.985	3059
4060.562	2890
4062.139	3036
4063.715	2960
4065.29	3032
4066.865	3001
4068.442	3028
4070.016	3027
4071.59	2997
4073.164	2903
4074.738	3039
4076.312	2933
4077.885	2986
4079.458	2931
4081.03	2874
4082.602	2926
4084.173	2892
4085.745	2953
4087.315	2947
4088.886	2915
4090.456	2966
4092.026	2917
4093.596	2938
4095.165	2986
4096.734	2902
4098.301	2925
4099.869	2938
4101.437	2919
4103.006	2853
4104.572	2926
4106.139	2910
4107.704	2899
4109.27	2868
4110.837	2904
4112.401	2921
4113.966	2960
4115.53	2859
4117.094	2870
4118.659	2933
4120.223	2848
4121.785	2902
4123.347	2847
4124.909	2817
4126.471	2823
4128.034	2848
4129.595	2899
4131.155	2840
4132.716	2800
4134.275	2855
4135.836	2863
4137.395	2837
4138.955	2829
4140.513	2829
4142.071	2843
4143.628	2875
4145.188	2818
4146.745	2829
4148.302	2809
4149.858	2733
4151.414	2863
4152.971	2818
4154.526	2765
4156.081	2850
4157.635	2772
4159.189	2844
4160.745	2731
4162.298	2770
4163.852	2769
4165.405	2772
4166.957	2762
4168.51	2802
4170.063	2732
4171.614	2810
4173.166	2780
4174.717	2816
4176.267	2756
4177.817	2770
4179.368	2745
4180.917	2796
4182.466	2785
4184.016	2723
4185.564	2795
4187.112	2733
4188.66	2693
4190.207	2715
4191.754	2710
4193.301	2753
4194.848	2741
4196.394	2751
4197.94	2712
4199.484	2686
4201.03	2632
4202.575	2775
4204.12	2684
4205.663	2752
4207.207	2688
4208.75	2659
4210.292	2723
4211.836	2738
4213.378	2677
4214.92	2599
4216.46	2648
4218.002	2767
4219.544	2673
4221.083	2653
4222.625	2671
4224.164	2742
4225.703	2617
4227.244	2728
4228.782	2697
4230.32	2665
4231.857	2610
4233.395	2674
4234.933	2700
4236.471	2678
4238.007	2670
4239.542	2674
4241.078	2665
4242.614	2602
4244.15	2578
4245.685	2664
4247.219	2648
4248.753	2633
4250.287	2574
4251.82	2672
4253.354	2651
4254.887	2670
4256.419	2607
4257.951	2600
4259.483	2597
4261.016	2617
4262.547	2627
4264.078	2640
4265.608	2605
4267.137	2643
4268.668	2652
4270.197	2613
4271.727	2581
4273.254	2615
4274.783	2687
4276.311	2563
4277.84	2566
4279.366	2560
4280.894	2556
4282.42	2648
4283.946	2545
4285.473	2597
4286.998	2569
4288.523	2547
4290.047	2627
4291.572	2577
4293.096	2586
4294.622	2570
4296.144	2585
4297.668	2527
4299.19	2577
4300.713	2532
4302.236	2537
4303.758	2585
4305.279	2567
4306.799	2548
4308.321	2513
4309.842	2514
4311.361	2534
4312.882	2579
4314.401	2505
