400.0961	2787
402.6185	2747
405.1424	2720
407.6635	2830
410.1838	2831
412.7035	2811
415.2225	2833
417.7388	2825
420.2585	2884
422.7754	2922
425.2917	2959
427.8072	2961
430.3221	3023
432.8363	2900
435.3498	2983
437.8626	3012
440.3727	2988
442.8841	3002
445.3969	2959
447.907	2961
450.4142	2971
452.9229	3006
455.4289	2943
457.9362	2938
460.4449	3015
462.9488	2906
465.454	2943
467.9566	2944
470.4604	2943
472.9637	2942
475.4662	2924
477.966	2928
480.4671	3015
482.9656	2935
485.4633	2941
487.9645	3009
490.4608	3003
492.9566	2938
495.4536	2918
497.948	2940
500.4437	2996
502.9387	2963
505.431	2954
507.9226	3024
510.4136	3022
512.9079	3046
515.3975	3049
517.8864	3030
520.3746	2993
522.8622	3020
525.3491	3012
527.8394	3085
530.3249	3043
532.8098	3044
535.2939	2994
537.7774	3047
540.2623	3014
542.7444	3000
545.2259	3109
547.7067	3045
550.1868	3054
552.6683	3032
555.147	3082
557.6231	3048
560.1005	3099
562.5773	3138
565.0534	3116
567.5308	3193
570.0056	3092
572.4776	3183
574.951	3164
577.4237	3163
579.8978	3189
582.3671	3281
584.8378	3176
587.3079	3252
589.7773	3081
592.244	3223
594.714	3258
597.1793	3175
599.6461	3175
602.1121	3115
604.5754	3206
607.0421	3199
609.5042	3100
611.9675	3119
614.4282	3170
616.8902	3107
619.3515	3123
621.8122	3157
624.2702	3193
626.7296	3137
629.1863	3141
631.6423	3123
634.1017	3073
636.5563	3173
639.0104	3129
641.4658	3131
643.9185	3144
646.3725	3168
648.8239	3172
651.2766	3186
653.7266	3149
656.176	3129
658.6247	3176
661.0748	3168
663.5242	3088
665.9709	3205
668.417	3176
670.8624	3258
673.3092	3217
675.7533	3284
678.1968	3230
680.6395	3209
683.0817	3231
685.5251	3204
687.9659	3237
690.4061	3266
692.8456	3314
695.2844	3257
697.7226	3202
700.1621	3245
702.599	3223
705.0332	3288
707.4688	3290
709.9036	3254
712.3399	3316
714.7735	3276
717.2044	3295
719.6367	3360
722.0683	3379
724.4993	3264
726.9296	3321
729.3593	3298
731.7883	3326
734.2147	3278
736.6423	3320
739.0714	3390
741.4958	3362
743.9216	3364
746.3447	3367
748.7691	3373
751.1929	3445
753.616	3474
756.0366	3458
758.4584	3533
760.8776	3420
763.2982	3468
765.718	3425
768.1373	3405
770.5539	3432
772.9698	3481
775.3871	3455
777.8038	3403
780.2178	3400
782.6332	3541
785.0459	3406
787.458	3467
789.8714	3499
792.2842	3550
794.6943	3494
797.1038	3433
799.5127	3556
801.9209	3440
804.3324	3507
806.7393	3603
809.1456	3519
811.5513	3465
813.9562	3544
816.3625	3497
818.7663	3505
821.1693	3526
823.5718	3541
825.9735	3545
828.3746	3468
830.7771	3536
833.177	3510
835.5762	3469
837.9747	3566
840.3727	3545
842.772	3479
845.1666	3548
847.5626	3498
849.958	3674
852.3527	3622
854.7488	3533
857.1403	3625
859.5331	3644
861.9253	3664
864.3168	3560
866.7057	3549
869.098	3531
871.4876	3535
873.8746	3598
876.263	3515
878.6487	3580
881.0378	3534
883.4243	3533
885.8081	3543
888.1933	3617
890.5759	3554
892.9598	3556
895.343	3622
897.7256	3583
900.1057	3474
902.4871	3587
904.8659	3659
907.246	3589
909.6254	3619
912.0023	3673
914.3786	3724
916.7562	3694
919.1331	3683
921.5074	3776
923.8831	3657
926.2562	3646
928.6287	3737
931.0005	3782
933.3757	3789
935.7462	3831
938.1162	3729
940.4855	3810
942.8542	3855
945.2242	3978
947.5916	3967
949.9584	4065
952.3266	4211
954.6921	4303
957.0571	4402
959.4233	4659
961.787	4676
964.15	4491
966.5125	4532
968.8742	4256
971.2354	4168
973.5959	4055
975.9559	3843
978.3151	3819
980.6738	3840
983.0338	3752
985.3912	3687
987.7461	3679
990.1022	3700
992.4578	3711
994.8127	3647
997.1689	3800
999.5207	3787
1001.874	3594
1004.226	3739
1006.576	3706
1008.929	3755
1011.28	3764
1013.628	3713
1015.977	3722
1018.324	3756
1020.674	3720
1023.019	3759
1025.366	3802
1027.713	3757
1030.056	3782
1032.399	3731
1034.746	3823
1037.087	3803
1039.431	3799
1041.771	3805
1044.113	3805
1046.454	3798
1048.793	3839
1051.133	3809
1053.471	3806
1055.807	3806
1058.146	3782
1060.483	3883
1062.818	3875
1065.153	3824
1067.489	3940
1069.822	3847
1072.156	3917
1074.488	3910
1076.82	4014
1079.15	3916
1081.48	3835
1083.814	3799
1086.143	3925
1088.471	3876
1090.799	3829
1093.126	3807
1095.452	3790
1097.78	3910
1100.105	3830
1102.43	3914
1104.754	3914
1107.077	3838
1109.4	3855
1111.722	3889
1114.044	3809
1116.365	3800
1118.685	3799
1121.005	3819
1123.324	3802
1125.643	3864
1127.961	3914
1130.278	3846
1132.595	3810
1134.911	3824
1137.226	3790
1139.541	3847
1141.854	3876
1144.167	3866
1146.482	3745
1148.793	3786
1151.105	3778
1153.414	3878
1155.725	3834
1158.033	3792
1160.344	3877
1162.651	3873
1164.959	3879
1167.265	3859
1169.572	3874
1171.878	3852
1174.184	3790
1176.488	3812
1178.79	3887
1181.094	3842
1183.396	3806
1185.699	3794
1188.001	3812
1190.301	3797
1192.6	3845
1194.9	3794
1197.2	3976
1199.497	3898
1201.794	3869
1204.09	3835
1206.387	3840
1208.684	3900
1210.978	3874
1213.272	3931
1215.565	3838
1217.858	3896
1220.15	3924
1222.443	3867
1224.734	3907
1227.024	3858
1229.313	3934
1231.602	3932
1233.892	3894
1236.18	4000
1238.467	4037
1240.754	3957
1243.04	4009
1245.325	4049
1247.612	4007
1249.896	4097
1252.178	3974
1254.461	4114
1256.743	4082
1259.027	4066
1261.308	4041
1263.587	3993
1265.867	4045
1268.146	4035
1270.425	4053
1272.703	4043
1274.981	4019
1277.256	4070
1279.532	4006
1281.808	3976
1284.083	4082
1286.358	3951
1288.63	3990
1290.904	3958
1293.175	3992
1295.449	3974
1297.719	4121
1299.99	3941
1302.259	3921
1304.529	3958
1306.798	3932
1309.065	4003
1311.333	3971
1313.599	3895
1315.866	3950
1318.131	4029
1320.396	4013
1322.66	4033
1324.925	3972
1327.187	4010
1329.448	4013
1331.711	3865
1333.974	4068
1336.234	3994
1338.493	4004
1340.752	4049
1343.01	3986
1345.269	4031
1347.526	3997
1349.784	3959
1352.04	3971
1354.295	3942
1356.552	3975
1358.806	3902
1361.059	3935
1363.312	3994
1365.564	3912
1367.818	4022
1370.069	4008
1372.318	3952
1374.568	3917
1376.817	3971
1379.066	3998
1381.316	4064
1383.564	3994
1385.809	4028
1388.056	3971
1390.301	3994
1392.549	3998
1394.793	4069
1397.036	4030
1399.279	4048
1401.522	4037
1403.763	4113
1406.007	4146
1408.248	4050
1410.487	4087
1412.727	4063
1414.965	4043
1417.205	4071
1419.442	4092
1421.68	4070
1423.915	4046
1426.152	4110
1428.388	4059
1430.623	4062
1432.857	4165
1435.091	4080
1437.323	4166
1439.556	4205
1441.789	4176
1444.019	4156
1446.25	4121
1448.48	4123
1450.708	4186
1452.938	4215
1455.167	4189
1457.394	4210
1459.62	4168
1461.846	4241
1464.073	4183
1466.299	4154
1468.523	4196
1470.746	4131
1472.969	4136
1475.191	4135
1477.415	4166
1479.636	4129
1481.858	4010
1484.078	4031
1486.298	4052
1488.518	3940
1490.736	4016
1492.954	3875
1495.169	3993
1497.386	4044
1499.602	4048
1501.819	3985
1504.034	3994
1506.248	4021
1508.462	3986
1510.675	4018
1512.888	3938
1515.1	4012
1517.311	4106
1519.522	4031
1521.732	4029
1523.942	3970
1526.151	3929
1528.36	3979
1530.566	3918
1532.773	3968
1534.98	4069
1537.187	3954
1539.392	3965
1541.596	4054
1543.801	3925
1546.005	3912
1548.208	3998
1550.411	4045
1552.612	4043
1554.814	4056
1557.013	3962
1559.212	4021
1561.414	4072
1563.612	4115
1565.811	4087
1568.007	4082
1570.203	4179
1572.403	3976
1574.598	4153
1576.792	4033
1578.988	4086
1581.181	4073
1583.376	4123
1585.568	4024
1587.761	4061
1589.952	4135
1592.143	4172
1594.333	4145
1596.524	4115
1598.715	4169
1600.903	4074
1603.091	4086
1605.278	4126
1607.466	4191
1609.652	4125
1611.838	4161
1614.023	4174
1616.207	4138
1618.391	4087
1620.576	4110
1622.759	4166
1624.941	4195
1627.123	4207
1629.304	4184
1631.484	4238
1633.664	4142
1635.844	4234
1638.022	4107
1640.201	4132
1642.38	4146
1644.556	4279
1646.732	4260
1648.908	4170
1651.084	4237
1653.257	4216
1655.433	4292
1657.607	4174
1659.779	4281
1661.951	4216
1664.122	4238
1666.295	4272
1668.467	4298
1670.635	4248
1672.805	4271
1674.973	4159
1677.142	4241
1679.31	4244
1681.478	4219
1683.644	4213
1685.81	4215
1687.975	4245
1690.142	4230
1692.305	4248
1694.468	4199
1696.632	4182
1698.794	4205
1700.957	4182
1703.119	4211
1705.279	4148
1707.439	4191
1709.598	4222
1711.758	4110
1713.917	4077
1716.075	4092
1718.231	4150
1720.388	4139
1722.543	4119
1724.702	4133
1726.856	4186
1729.01	4110
1731.164	4105
1733.317	4056
1735.471	4137
1737.623	4056
1739.774	4081
1741.925	4156
1744.075	4121
1746.225	4130
1748.376	4039
1750.524	4153
1752.672	4138
1754.82	4165
1756.965	4161
1759.113	4154
1761.259	4173
1763.405	4221
1765.549	4180
1767.694	4183
1769.836	4086
1771.981	4161
1774.123	4147
1776.264	4099
1778.405	4224
1780.546	4159
1782.687	4200
1784.827	4192
1786.966	4136
1789.103	4201
1791.242	4249
1793.381	4208
1795.517	4124
1797.653	4222
1799.788	4226
1801.923	4191
1804.057	4189
1806.193	4220
1808.326	4121
1810.457	4177
1812.59	4139
1814.721	4144
1816.855	4201
1818.984	4122
1821.113	4292
1823.244	4108
1825.372	4139
1827.499	4180
1829.63	4272
1831.756	4251
1833.882	4114
1836.007	4129
1838.132	4167
1840.26	4204
1842.384	4046
1844.507	4103
1846.63	4175
1848.752	4165
1850.875	4125
1852.996	4201
1855.118	4146
1857.238	4136
1859.358	4162
1861.477	4167
1863.597	4246
1865.715	4107
1867.832	4181
1869.948	4192
1872.064	4108
1874.181	4214
1876.297	4118
1878.411	4202
1880.526	4145
1882.639	4101
1884.752	4099
1886.865	4108
1888.977	4156
1891.089	4231
1893.2	4224
1895.308	4153
1897.42	4202
1899.53	4110
1901.639	4239
1903.745	4145
1905.853	4230
1907.962	4285
1910.067	4236
1912.174	4172
1914.278	4159
1916.383	4193
1918.486	4145
1920.592	4125
1922.694	4238
1924.797	4171
1926.898	4202
1929	4221
1931.102	4176
1933.203	4295
1935.301	4245
1937.401	4260
1939.499	4213
1941.598	4183
1943.697	4286
1945.793	4239
1947.888	4232
1949.985	4212
1952.08	4264
1954.176	4252
1956.269	4281
1958.364	4196
1960.457	4190
1962.549	4215
1964.642	4193
1966.733	4209
1968.823	4183
1970.913	4209
1973.005	4167
1975.093	4215
1977.184	4205
1979.271	4205
1981.359	4297
1983.446	4172
1985.532	4200
1987.619	4226
1989.705	4176
1991.789	4228
1993.874	4193
1995.956	4166
1998.041	4199
2000.123	4279
2002.206	4222
2004.287	4199
2006.368	4147
2008.449	4203
2010.529	4161
2012.609	4144
2014.688	4211
2016.766	4287
2018.843	4150
2020.922	4083
2022.999	4193
2025.074	4165
2027.15	4164
2029.225	4143
2031.299	4194
2033.375	4151
2035.447	4206
2037.52	4102
2039.592	4206
2041.664	4211
2043.736	4202
2045.807	4185
2047.876	4179
2049.947	4212
2052.015	4197
2054.086	4162
2056.153	4141
2058.221	4217
2060.288	4214
2062.353	4102
2064.42	4079
2066.486	4190
2068.55	4188
2070.614	4172
2072.678	4249
2074.741	4238
2076.805	4228
2078.866	4216
2080.929	4191
2082.99	4153
2085.049	4198
2087.109	4216
2089.17	4124
2091.228	4167
2093.286	4222
2095.344	4174
2097.4	4188
2099.46	4120
2101.516	4258
2103.572	4245
2105.626	4165
2107.679	4129
2109.735	4228
2111.788	4249
2113.841	4236
2115.894	4120
2117.945	4218
2119.997	4169
2122.049	4183
2124.1	4233
2126.148	4250
2128.197	4284
2130.246	4171
2132.296	4205
2134.342	4199
2136.39	4160
2138.437	4200
2140.483	4211
2142.527	4182
2144.574	4269
2146.619	4187
2148.661	4056
2150.705	4194
2152.747	4150
2154.792	4242
2156.832	4122
2158.874	4213
2160.915	4179
2162.954	4212
2164.995	4118
2167.034	4294
2169.072	4190
2171.111	4211
2173.148	4142
2175.186	4192
2177.223	4068
2179.258	4192
2181.294	4136
2183.328	4191
2185.362	4118
2187.398	4079
2189.431	4133
2191.463	4158
2193.495	4152
2195.528	4129
2197.56	4071
2199.59	4149
2201.62	4104
2203.649	4202
2205.678	4108
2207.708	4123
2209.737	4045
2211.764	4079
2213.791	4119
2215.817	4122
2217.843	4096
2219.87	4097
2221.895	4001
2223.919	4095
2225.942	4238
2227.966	4120
2229.988	4006
2232.012	4156
2234.032	4096
2236.054	4117
2238.074	4055
2240.095	4149
2242.116	4026
2244.135	4125
2246.153	4105
2248.171	4014
2250.188	4108
2252.208	4013
2254.223	4170
2256.239	4076
2258.255	4045
2260.269	4084
2262.283	4112
2264.3	4057
2266.312	4124
2268.325	4190
2270.336	4117
2272.349	4042
2274.362	4029
2276.372	4076
2278.383	4025
2280.392	4067
2282.402	4053
2284.409	4184
2286.418	4001
2288.427	4080
2290.433	4079
2292.441	4076
2294.446	4112
2296.453	4014
2298.459	4051
2300.463	4117
2302.466	4091
2304.471	4059
2306.475	4057
2308.477	4137
2310.478	4061
2312.481	3997
2314.481	4016
2316.481	4122
2318.482	4083
2320.482	4080
2322.48	4079
2324.48	4042
2326.478	4034
2328.476	4000
2330.473	4031
2332.469	4077
2334.465	4030
2336.46	4084
2338.454	4048
2340.45	4123
2342.444	4043
2344.437	4018
2346.43	4040
2348.421	4038
2350.414	3949
2352.405	3942
2354.396	3956
2356.386	4017
2358.376	4001
2360.366	4014
2362.355	3935
2364.343	3996
2366.331	4011
2368.317	3958
2370.304	3966
2372.292	4068
2374.278	4016
2376.262	3940
2378.247	3981
2380.23	3984
2382.216	3970
2384.199	4048
2386.181	4011
2388.163	3958
2390.144	3977
2392.127	4040
2394.107	4024
2396.087	3967
2398.066	4003
2400.046	4001
2402.023	3920
2404.004	4024
2405.981	4025
2407.957	3906
2409.934	3915
2411.91	3894
2413.886	3987
2415.862	3963
2417.836	3981
2419.809	3873
2421.784	3974
2423.756	3875
2425.73	4013
2427.701	3911
2429.672	3973
2431.644	3949
2433.615	3929
2435.586	4037
2437.555	3949
2439.523	3952
2441.491	4003
2443.459	3915
2445.428	4069
2447.395	3854
2449.361	3898
2451.327	3987
2453.292	3927
2455.257	3896
2457.223	3968
2459.187	3902
2461.15	3905
2463.113	3886
2465.076	3894
2467.039	3942
2468.999	3902
2470.96	3830
2472.921	3931
2474.881	3988
2476.841	3931
2478.8	3935
2480.759	3875
2482.717	3944
2484.675	3905
2486.63	3895
2488.589	3950
2490.545	3943
2492.5	3829
2494.455	3940
2496.408	3935
2498.364	3840
2500.318	3856
2502.27	3870
2504.223	3887
2506.174	3975
2508.126	3949
2510.078	3960
2512.03	3994
2513.979	3853
2515.927	3828
2517.877	3936
2519.826	3912
2521.775	3971
2523.722	3748
2525.668	3933
2527.616	3832
2529.561	3902
2531.508	3997
2533.452	3969
2535.398	3848
2537.342	3854
2539.284	3872
2541.229	3853
2543.173	3919
2545.114	3941
2547.055	3968
2548.996	3852
2550.938	3841
2552.878	3860
2554.817	3917
2556.756	3945
2558.695	3917
2560.633	3820
2562.572	3943
2564.509	3916
2566.445	3900
2568.382	3852
2570.317	3952
2572.254	3893
2574.189	3925
2576.123	3849
2578.057	3829
2579.99	3964
2581.923	3962
2583.855	3805
2585.788	3935
2587.719	3884
2589.65	3865
2591.579	3858
2593.511	3930
2595.44	3938
2597.37	3892
2599.297	3850
2601.225	3965
2603.153	3957
2605.08	3857
2607.007	3890
2608.932	3889
2610.858	3860
2612.782	3904
2614.709	3953
2616.632	3881
2618.556	3947
2620.478	3957
2622.401	3864
2624.324	3953
2626.247	3845
2628.167	3889
2630.088	3927
2632.008	3884
2633.928	3835
2635.848	3876
2637.766	3868
2639.684	3949
2641.603	3898
2643.519	3805
2645.437	3903
2647.353	3901
2649.27	3843
2651.184	3901
2653.099	3944
2655.014	3836
2656.928	3869
2658.842	3961
2660.755	3864
2662.667	3850
2664.579	3848
2666.491	3875
2668.402	3888
2670.312	3838
2672.222	3883
2674.132	3921
2676.042	3948
2677.951	3797
2679.859	3844
2681.766	3905
2683.674	3843
2685.582	3862
2687.488	3823
2689.392	3855
2691.298	3830
2693.202	3796
2695.107	3836
2697.012	3863
2698.914	3902
2700.817	3800
2702.72	3783
2704.622	3890
2706.524	3833
2708.425	3729
2710.326	3879
2712.225	3906
2714.125	3871
2716.024	3778
2717.923	3739
2719.822	3809
2721.719	3834
2723.616	3831
2725.512	3964
2727.41	3786
2729.305	3874
2731.201	3840
2733.095	3778
2734.99	3857
2736.884	3814
2738.778	3825
2740.67	3848
2742.562	3741
2744.455	3755
2746.346	3830
2748.238	3818
2750.129	3873
2752.018	3794
2753.907	3805
2755.797	3816
2757.687	3729
2759.575	3859
2761.462	3855
2763.349	3733
2765.237	3823
2767.124	3788
2769.009	3771
2770.894	3725
2772.779	3756
2774.663	3745
2776.547	3773
2778.431	3795
2780.314	3775
2782.197	3810
2784.078	3763
2785.96	3823
2787.842	3849
2789.723	3751
2791.603	3740
2793.483	3799
2795.362	3806
2797.241	3785
2799.121	3870
2800.997	3692
2802.874	3816
2804.751	3720
2806.628	3744
2808.506	3756
2810.38	3761
2812.255	3764
2814.13	3798
2816.003	3780
2817.878	3749
2819.752	3744
2821.623	3751
2823.496	3683
2825.368	3834
2827.238	3721
2829.111	3748
2830.98	3805
2832.851	3741
2834.719	3834
2836.589	3775
2838.458	3833
2840.327	3791
2842.193	3795
2844.061	3746
2845.927	3821
2847.794	3716
2849.66	3791
2851.525	3750
2853.39	3812
2855.254	3843
2857.117	3820
2858.983	3950
2860.845	3792
2862.707	3845
2864.569	3965
2866.431	3845
2868.293	4016
2870.154	3938
2872.013	3908
2873.873	3917
2875.733	4006
2877.592	4004
2879.451	3978
2881.309	4081
2883.166	3937
2885.022	4059
2886.879	4038
2888.736	4084
2890.591	4100
2892.446	4042
2894.301	4136
2896.155	4090
2898.009	4071
2899.863	4116
2901.716	4100
2903.568	4070
2905.419	4051
2907.27	4121
2909.123	4052
2910.973	4159
2912.824	4055
2914.673	4134
2916.521	4220
2918.372	4264
2920.22	4221
2922.067	4204
2923.914	4204
2925.761	4300
2927.607	4318
2929.455	4310
2931.301	4351
2933.144	4493
2934.99	4402
2936.833	4413
2938.678	4450
2940.522	4531
2942.364	4565
2944.207	4545
2946.048	4499
2947.891	4572
2949.731	4603
2951.571	4547
2953.412	4458
2955.25	4555
2957.09	4440
2958.93	4476
2960.767	4442
2962.606	4325
2964.443	4394
2966.279	4216
2968.116	4283
2969.953	4311
2971.788	4329
2973.623	4229
2975.457	4210
2977.292	4146
2979.127	4224
2980.959	4171
2982.792	4141
2984.624	4137
2986.455	4153
2988.288	4209
2990.119	4158
2991.949	3999
2993.779	4062
2995.608	4045
2997.439	4055
2999.268	3997
3001.096	3860
3002.923	3822
3004.751	3896
3006.578	3930
3008.406	3813
3010.232	3858
3012.057	3832
3013.883	3871
3015.706	3779
3017.532	3702
3019.356	3686
3021.179	3710
3023.002	3686
3024.823	3663
3026.646	3712
3028.469	3698
3030.289	3626
3032.11	3614
3033.93	3660
3035.749	3698
3037.57	3563
3039.39	3582
3041.207	3612
3043.026	3558
3044.842	3583
3046.661	3562
3048.477	3597
3050.294	3559
3052.109	3617
3053.925	3551
3055.739	3532
3057.555	3563
3059.368	3621
3061.181	3630
3062.995	3581
3064.807	3604
3066.62	3483
3068.433	3586
3070.243	3635
3072.054	3572
3073.865	3547
3075.675	3507
3077.485	3613
3079.293	3539
3081.102	3537
3082.911	3555
3084.719	3497
3086.527	3547
3088.333	3639
3090.139	3573
3091.945	3502
3093.75	3599
3095.557	3467
3097.361	3458
3099.165	3528
3100.969	3437
3102.772	3440
3104.575	3503
3106.379	3463
3108.181	3440
3109.982	3461
3111.783	3463
3113.584	3426
3115.386	3402
3117.186	3455
3118.985	3443
3120.783	3433
3122.582	3440
3124.381	3395
3126.179	3474
3127.975	3390
3129.772	3400
3131.569	3466
3133.365	3415
3135.161	3416
3136.956	3428
3138.751	3442
3140.544	3420
3142.338	3382
3144.132	3473
3145.925	3364
3147.717	3435
3149.509	3399
3151.301	3382
3153.091	3377
3154.884	3421
3156.673	3402
3158.462	3386
3160.252	3445
3162.041	3401
3163.831	3421
3165.618	3493
3167.405	3435
3169.193	3371
3170.979	3370
3172.767	3407
3174.553	3368
3176.338	3357
3178.123	3385
3179.907	3419
3181.692	3322
3183.477	3406
3185.259	3365
3187.042	3303
3188.824	3337
3190.607	3322
3192.389	3366
3194.17	3371
3195.951	3366
3197.73	3367
3199.51	3429
3201.289	3328
3203.07	3316
3204.848	3417
3206.626	3410
3208.403	3372
3210.18	3418
3211.959	3310
3213.735	3341
3215.511	3315
3217.285	3313
3219.06	3423
3220.836	3346
3222.611	3404
3224.384	3358
3226.158	3396
3227.929	3361
3229.702	3293
3231.476	3336
3233.248	3277
3235.018	3268
3236.789	3232
3238.56	3354
3240.33	3365
3242.1	3351
3243.869	3349
3245.637	3402
3247.405	3341
3249.172	3376
3250.941	3341
3252.707	3260
3254.474	3348
3256.24	3384
3258.006	3354
3259.772	3345
3261.537	3369
3263.301	3388
3265.065	3408
3266.828	3338
3268.592	3369
3270.355	3315
3272.117	3352
3273.878	3324
3275.64	3308
3277.401	3362
3279.162	3252
3280.922	3389
3282.682	3363
3284.441	3323
3286.199	3319
3287.959	3350
3289.716	3340
3291.475	3369
3293.232	3378
3294.988	3296
3296.744	3331
3298.501	3387
3300.256	3335
3302.011	3333
3303.766	3350
3305.52	3369
3307.275	3347
3309.028	3269
3310.781	3290
3312.533	3378
3314.285	3349
3316.038	3340
3317.789	3333
3319.54	3352
3321.289	3363
3323.039	3299
3324.789	3303
3326.539	3328
3328.288	3295
3330.035	3422
3331.783	3292
3333.531	3293
3335.28	3300
3337.025	3310
3338.771	3313
3340.518	3375
3342.262	3314
3344.009	3409
3345.753	3281
3347.497	3344
3349.24	3338
3350.983	3309
3352.726	3263
3354.469	3284
3356.212	3324
3357.952	3274
3359.694	3247
3361.434	3234
3363.176	3304
3364.916	3248
3366.654	3206
3368.394	3264
3370.132	3306
3371.871	3267
3373.61	3300
3375.346	3225
3377.083	3262
3378.82	3365
3380.556	3230
3382.292	3245
3384.027	3256
3385.763	3243
3387.497	3221
3389.231	3250
3390.965	3203
3392.698	3205
3394.431	3307
3396.164	3243
3397.896	3183
3399.627	3224
3401.36	3188
3403.09	3211
3404.82	3164
3406.55	3194
3408.279	3191
3410.01	3240
3411.738	3200
3413.467	3189
3415.194	3128
3416.92	3204
3418.647	3233
3420.375	3175
3422.102	3097
3423.827	3136
3425.553	3180
3427.277	3185
3429.003	3225
3430.727	3196
3432.451	3202
3434.173	3178
3435.896	3117
3437.62	3219
3439.343	3095
3441.063	3199
3442.785	3209
3444.505	3077
3446.226	3090
3447.948	3107
3449.666	3140
3451.386	3132
3453.104	3144
3454.823	3136
3456.541	3141
3458.259	3081
3459.976	3087
3461.693	3090
3463.408	3184
3465.125	3107
3466.841	3103
3468.556	3066
3470.271	2988
3471.985	3094
3473.698	3091
3475.414	3049
3477.126	3054
3478.838	3046
3480.55	3075
3482.263	3131
3483.975	3070
3485.686	3010
3487.396	3099
3489.106	3086
3490.817	3025
3492.526	3099
3494.236	3027
3495.944	3008
3497.652	3017
3499.359	3018
3501.066	2927
3502.775	3028
3504.481	3022
3506.187	3029
3507.893	3064
3509.598	2970
3511.304	2987
3513.009	2935
3514.713	2940
3516.417	2992
3518.12	3019
3519.821	2973
3521.525	2956
3523.228	2903
3524.929	2943
3526.631	2924
3528.33	2966
3530.032	2993
3531.733	2966
3533.433	3032
3535.131	2906
3536.83	2915
3538.529	2945
3540.227	2958
3541.925	2900
3543.623	2932
3545.319	2873
3547.016	2940
3548.712	2942
3550.408	2939
3552.103	2927
3553.798	2878
3555.491	2911
3557.188	2917
3558.88	2989
3560.574	2902
3562.266	2883
3563.959	2908
3565.651	2871
3567.343	2879
3569.035	2900
3570.725	2901
3572.415	2870
3574.106	2799
3575.797	2867
3577.485	2890
3579.174	2906
3580.863	2833
3582.551	2842
3584.238	2839
3585.926	2873
3587.613	2856
3589.3	2878
3590.986	2827
3592.671	2820
3594.357	2833
3596.042	2892
3597.726	2867
3599.41	2821
3601.094	2887
3602.778	2742
3604.461	2704
3606.143	2797
3607.825	2772
3609.507	2734
3611.188	2781
3612.87	2874
3614.551	2819
3616.229	2794
3617.909	2792
3619.589	2731
3621.269	2782
3622.948	2764
3624.625	2716
3626.302	2769
3627.98	2797
3629.657	2736
3631.334	2754
3633.01	2718
3634.686	2806
3636.361	2716
3638.036	2731
3639.712	2707
3641.385	2778
3643.06	2753
3644.732	2689
3646.405	2705
3648.08	2708
3649.751	2737
3651.424	2675
3653.094	2681
3654.766	2768
3656.436	2688
3658.106	2683
3659.777	2723
3661.446	2623
3663.115	2708
3664.783	2727
3666.452	2648
3668.121	2706
3669.788	2729
3671.454	2642
3673.121	2635
3674.789	2700
3676.455	2664
3678.12	2687
3679.784	2689
3681.45	2711
3683.114	2677
3684.779	2633
3686.442	2621
3688.105	2689
3689.768	2640
3691.43	2703
3693.093	2682
3694.754	2625
3696.415	2652
3698.076	2680
3699.736	2723
3701.396	2682
3703.057	2647
3704.716	2617
3706.375	2660
3708.034	2679
3709.692	2585
3711.351	2690
3713.008	2615
3714.665	2627
3716.321	2579
3717.977	2655
3719.634	2601
3721.29	2610
3722.945	2669
3724.598	2597
3726.253	2668
3727.907	2621
3729.561	2589
3731.214	2615
3732.867	2618
3734.518	2633
3736.171	2608
3737.824	2601
3739.474	2610
3741.125	2675
3742.775	2674
3744.425	2565
3746.074	2589
3747.725	2604
3749.373	2576
3751.022	2587
3752.669	2574
3754.318	2610
3755.966	2513
3757.612	2574
3759.259	2538
3760.905	2610
3762.55	2568
3764.197	2602
3765.842	2549
3767.486	2618
3769.131	2535
3770.774	2546
3772.417	2594
3774.061	2554
3775.705	2543
3777.347	2534
3778.988	2569
3780.629	2523
3782.271	2592
3783.912	2498
3785.552	2556
3787.192	2530
3788.831	2536
3790.472	2502
3792.112	2464
3793.75	2545
3795.388	2530
3797.024	2492
3798.661	2480
3800.3	2485
3801.936	2526
3803.572	2535
3805.208	2483
3806.844	2499
3808.48	2506
3810.115	2468
3811.748	2534
3813.382	2452
3815.016	2498
3816.649	2545
3818.283	2509
3819.914	2453
3821.547	2413
3823.178	2533
3824.809	2480
3826.441	2519
3828.072	2495
3829.701	2525
3831.331	2500
3832.96	2477
3834.591	2469
3836.219	2386
3837.847	2526
3839.475	2465
3841.102	2457
3842.729	2437
3844.357	2449
3845.984	2440
3847.609	2395
3849.234	2466
3850.86	2400
3852.485	2422
3854.11	2453
3855.734	2415
3857.357	2446
3858.981	2447
3860.603	2366
3862.227	2421
3863.848	2425
3865.471	2423
3867.092	2407
3868.713	2464
3870.334	2433
3871.954	2450
3873.575	2403
3875.194	2386
3876.813	2439
3878.433	2354
3880.051	2401
3881.669	2447
3883.286	2444
3884.904	2358
3886.52	2360
3888.138	2412
3889.754	2383
3891.37	2382
3892.985	2369
3894.6	2433
3896.216	2426
3897.831	2464
3899.444	2356
3901.058	2393
3902.67	2373
3904.283	2413
3905.897	2392
3907.509	2415
3909.121	2391
3910.731	2338
3912.342	2372
3913.954	2421
3915.563	2353
3917.174	2348
3918.783	2377
3920.391	2350
3922.002	2369
3923.611	2316
3925.218	2397
3926.826	2391
3928.432	2373
3930.039	2392
3931.647	2359
3933.253	2409
3934.859	2375
3936.464	2340
3938.068	2383
3939.675	2356
3941.278	2329
3942.883	2355
3944.486	2396
3946.089	2303
3947.692	2348
3949.295	2388
3950.898	2312
3952.499	2292
3954.1	2377
3955.7	2283
3957.303	2291
3958.903	2380
3960.502	2344
3962.101	2346
3963.7	2319
3965.301	2344
3966.899	2334
3968.497	2261
3970.094	2217
3971.691	2304
3973.288	2225
3974.885	2343
3976.481	2330
3978.077	2274
3979.672	2226
3981.267	2313
3982.863	2301
3984.457	2247
3986.051	2242
3987.645	2284
3989.238	2279
3990.831	2251
3992.425	2321
3994.017	2212
3995.607	2270
3997.199	2299
3998.79	2217
4000.382	2281
4001.973	2278
4003.561	2289
4005.151	2250
4006.741	2290
4008.331	2291
4009.918	2270
4011.507	2170
4013.095	2249
4014.681	2204
4016.269	2230
4017.856	2195
4019.443	2214
4021.028	2158
4022.614	2242
4024.199	2207
4025.785	2231
4027.37	2268
4028.953	2174
4030.536	2270
4032.12	2205
4033.704	2169
4035.287	2217
4036.869	2159
4038.45	2163
4040.032	2187
4041.613	2164
4043.195	2243
4044.776	2159
4046.356	2202
4047.935	2215
4049.515	2196
4051.095	2215
4052.674	2249
4054.251	2104
4055.829	2192
4057.406	2171
4058.985	2161
4060.562	2220
4062.139	2172
4063.715	2168
4065.29	2167
4066.865	2128
4068.442	2217
4070.016	2198
4071.59	2159
4073.164	2160
4074.738	2177
4076.312	2142
4077.885	2131
4079.458	2163
4081.03	2161
4082.602	2181
4084.173	2168
4085.745	2084
4087.315	2158
4088.886	2138
4090.456	2124
4092.026	2119
4093.596	2170
4095.165	2173
4096.734	2132
4098.301	2193
4099.869	2086
4101.437	2171
4103.006	2109
4104.572	2147
4106.139	2104
4107.704	2047
4109.27	2109
4110.837	2100
4112.401	2111
4113.966	2129
4115.53	2085
4117.094	2114
4118.659	2134
4120.223	2057
4121.785	2079
4123.347	2126
4124.909	2061
4126.471	2127
4128.034	2103
4129.595	2071
4131.155	2063
4132.716	2088
4134.275	2038
4135.836	2135
4137.395	2081
4138.955	2116
4140.513	2087
4142.071	2027
4143.628	2054
4145.188	2053
4146.745	2137
4148.302	2039
4149.858	2030
4151.414	2064
4152.971	2024
4154.526	1995
4156.081	2067
4157.635	2104
4159.189	2070
4160.745	2030
4162.298	2031
4163.852	2086
4165.405	2088
4166.957	1991
4168.51	2073
4170.063	2011
4171.614	2041
4173.166	1997
4174.717	1992
4176.267	2024
4177.817	2038
4179.368	2050
4180.917	2045
4182.466	2049
4184.016	2041
4185.564	2017
4187.112	2009
4188.66	2007
4190.207	2003
4191.754	2019
4193.301	2014
4194.848	2036
4196.394	2024
4197.94	2008
4199.484	1991
4201.03	1988
4202.575	2021
4204.12	2022
4205.663	1994
4207.207	1982
4208.75	1998
4210.292	1999
4211.836	2034
4213.378	1936
4214.92	1990
4216.46	1917
4218.002	1975
4219.544	1987
4221.083	1987
4222.625	1965
4224.164	1958
4225.703	1985
4227.244	1970
4228.782	1989
4230.32	1944
4231.857	1988
4233.395	2019
4234.933	1986
4236.471	1976
4238.007	1963
4239.542	1910
4241.078	1974
4242.614	1982
4244.15	1903
4245.685	1930
4247.219	1953
4248.753	1939
4250.287	1956
4251.82	1885
4253.354	1959
4254.887	1947
4256.419	1981
4257.951	1956
4259.483	1951
4261.016	1938
4262.547	1956
4264.078	1941
4265.608	1940
4267.137	1897
4268.668	1904
4270.197	1965
4271.727	1931
4273.254	1917
4274.783	1901
4276.311	1965
4277.84	1902
4279.366	1919
4280.894	1911
4282.42	1855
4283.946	1910
4285.473	1911
4286.998	1918
4288.523	1881
4290.047	1897
4291.572	1916
4293.096	1915
4294.622	1914
4296.144	1891
4297.668	1935
4299.19	1889
4300.713	1972
4302.236	1869
4303.758	1869
4305.279	1881
4306.799	1870
4308.321	1865
4309.842	1837
4311.361	1878
4312.882	1903
4314.401	1884
