400.0961	3194
402.6185	3306
405.1424	3330
407.6635	3317
410.1838	3277
412.7035	3330
415.2225	3373
417.7388	3330
420.2585	3439
422.7754	3467
425.2917	3469
427.8072	3559
430.3221	3555
432.8363	3582
435.3498	3601
437.8626	3516
440.3727	3527
442.8841	3482
445.3969	3513
447.907	3566
450.4142	3493
452.9229	3491
455.4289	3499
457.9362	3504
460.4449	3401
462.9488	3442
465.454	3424
467.9566	3531
470.4604	3399
472.9637	3414
475.4662	3459
477.966	3472
480.4671	3398
482.9656	3462
485.4633	3479
487.9645	3473
490.4608	3468
492.9566	3444
495.4536	3529
497.948	3474
500.4437	3488
502.9387	3511
505.431	3530
507.9226	3498
510.4136	3541
512.9079	3497
515.3975	3532
517.8864	3418
520.3746	3578
522.8622	3546
525.3491	3520
527.8394	3554
530.3249	3608
532.8098	3567
535.2939	3629
537.7774	3605
540.2623	3578
542.7444	3509
545.2259	3573
547.7067	3552
550.1868	3565
552.6683	3608
555.147	3590
557.6231	3601
560.1005	3569
562.5773	3511
565.0534	3675
567.5308	3664
570.0056	3637
572.4776	3679
574.951	3650
577.4237	3704
579.8978	3797
582.3671	3779
584.8378	3723
587.3079	3772
589.7773	3757
592.244	3803
594.714	3746
597.1793	3769
599.6461	3808
602.1121	3763
604.5754	3747
607.0421	3694
609.5042	3723
611.9675	3715
614.4282	3715
616.8902	3725
619.3515	3680
621.8122	3745
624.2702	3701
626.7296	3656
629.1863	3630
631.6423	3724
634.1017	3680
636.5563	3645
639.0104	3694
641.4658	3704
643.9185	3613
646.3725	3574
648.8239	3656
651.2766	3693
653.7266	3652
656.176	3657
658.6247	3779
661.0748	3691
663.5242	3680
665.9709	3716
668.417	3747
670.8624	3724
673.3092	3685
675.7533	3770
678.1968	3730
680.6395	3764
683.0817	3694
685.5251	3788
687.9659	3831
690.4061	3788
692.8456	3812
695.2844	3832
697.7226	3718
700.1621	3755
702.599	3833
705.0332	3806
707.4688	3829
709.9036	3798
712.3399	3942
714.7735	3813
717.2044	3964
719.6367	3834
722.0683	3859
724.4993	3854
726.9296	3889
729.3593	3811
731.7883	3906
734.2147	3888
736.6423	3990
739.0714	3847
741.4958	3841
743.9216	3960
746.3447	3965
748.7691	4009
751.1929	3992
753.616	3894
756.0366	3968
758.4584	4043
760.8776	4034
763.2982	4001
765.718	4014
768.1373	4062
770.5539	3972
772.9698	4082
775.3871	4056
777.8038	4048
780.2178	4035
782.6332	4021
785.0459	4091
787.458	4030
789.8714	4031
792.2842	4033
794.6943	3989
797.1038	4090
799.5127	4006
801.9209	4118
804.3324	3996
806.7393	4110
809.1456	4116
811.5513	4159
813.9562	4110
816.3625	4143
818.7663	4147
821.1693	4124
823.5718	4166
825.9735	4138
828.3746	4070
830.7771	4094
833.177	4019
835.5762	4121
837.9747	4101
840.3727	4160
842.772	4208
845.1666	4191
847.5626	4130
849.958	4215
852.3527	4294
854.7488	4348
857.1403	4225
859.5331	4240
861.9253	4283
864.3168	4214
866.7057	4242
869.098	4186
871.4876	4299
873.8746	4251
876.263	4210
878.6487	4172
881.0378	4261
883.4243	4247
885.8081	4170
888.1933	4307
890.5759	4158
892.9598	4155
895.343	4203
897.7256	4183
900.1057	4132
902.4871	4194
904.8659	4166
907.246	4316
909.6254	4276
912.0023	4319
914.3786	4329
916.7562	4468
919.1331	4478
921.5074	4435
923.8831	4608
926.2562	4508
928.6287	4514
931.0005	4531
933.3757	4559
935.7462	4608
938.1162	4567
940.4855	4654
942.8542	4774
945.2242	4780
947.5916	4890
949.9584	5081
952.3266	5222
954.6921	5489
957.0571	5828
959.4233	6087
961.787	6065
964.15	6199
966.5125	5855
968.8742	5497
971.2354	5123
973.5959	4970
975.9559	4787
978.3151	4656
980.6738	4541
983.0338	4533
985.3912	4515
987.7461	4425
990.1022	4412
992.4578	4358
994.8127	4421
997.1689	4301
999.5207	4391
1001.874	4504
1004.226	4469
1006.576	4456
1008.929	4464
1011.28	4320
1013.628	4416
1015.977	4391
1018.324	4412
1020.674	4399
1023.019	4450
1025.366	4439
1027.713	4368
1030.056	4536
1032.399	4432
1034.746	4453
1037.087	4594
1039.431	4569
1041.771	4568
1044.113	4468
1046.454	4561
1048.793	4551
1051.133	4508
1053.471	4467
1055.807	4538
1058.146	4540
1060.483	4640
1062.818	4570
1065.153	4663
1067.489	4630
1069.822	4699
1072.156	4698
1074.488	4654
1076.82	4692
1079.15	4562
1081.48	4559
1083.814	4600
1086.143	4562
1088.471	4545
1090.799	4522
1093.126	4487
1095.452	4484
1097.78	4574
1100.105	4504
1102.43	4451
1104.754	4468
1107.077	4550
1109.4	4560
1111.722	4545
1114.044	4524
1116.365	4495
1118.685	4497
1121.005	4520
1123.324	4535
1125.643	4473
1127.961	4584
1130.278	4547
1132.595	4481
1134.911	4455
1137.226	4451
1139.541	4371
1141.854	4550
1144.167	4428
1146.482	4563
1148.793	4431
1151.105	4499
1153.414	4512
1155.725	4598
1158.033	4535
1160.344	4600
1162.651	4551
1164.959	4557
1167.265	4437
1169.572	4530
1171.878	4469
1174.184	4582
1176.488	4511
1178.79	4463
1181.094	4554
1183.396	4584
1185.699	4548
1188.001	4533
1190.301	4636
1192.6	4560
1194.9	4545
1197.2	4605
1199.497	4572
1201.794	4544
1204.09	4611
1206.387	4555
1208.684	4568
1210.978	4546
1213.272	4573
1215.565	4598
1217.858	4587
1220.15	4498
1222.443	4517
1224.734	4514
1227.024	4666
1229.313	4691
1231.602	4675
1233.892	4734
1236.18	4757
1238.467	4785
1240.754	4740
1243.04	4835
1245.325	4690
1247.612	4697
1249.896	4781
1252.178	4845
1254.461	4788
1256.743	4786
1259.027	4851
1261.308	4694
1263.587	4728
1265.867	4868
1268.146	4841
1270.425	4803
1272.703	4752
1274.981	4676
1277.256	4789
1279.532	4736
1281.808	4778
1284.083	4715
1286.358	4615
1288.63	4648
1290.904	4731
1293.175	4746
1295.449	4742
1297.719	4720
1299.99	4682
1302.259	4657
1304.529	4642
1306.798	4685
1309.065	4703
1311.333	4752
1313.599	4739
1315.866	4767
1318.131	4618
1320.396	4662
1322.66	4655
1324.925	4618
1327.187	4632
1329.448	4711
1331.711	4758
1333.974	4693
1336.234	4699
1338.493	4687
1340.752	4770
1343.01	4707
1345.269	4689
1347.526	4672
1349.784	4754
1352.04	4748
1354.295	4570
1356.552	4719
1358.806	4708
1361.059	4700
1363.312	4638
1365.564	4589
1367.818	4688
1370.069	4729
1372.318	4659
1374.568	4779
1376.817	4793
1379.066	4659
1381.316	4750
1383.564	4860
1385.809	4765
1388.056	4778
1390.301	4813
1392.549	4774
1394.793	4815
1397.036	4887
1399.279	4843
1401.522	4928
1403.763	4861
1406.007	4966
1408.248	4877
1410.487	4918
1412.727	4877
1414.965	4910
1417.205	4927
1419.442	4924
1421.68	4855
1423.915	5018
1426.152	5011
1428.388	4950
1430.623	4857
1432.857	4849
1435.091	4974
1437.323	4961
1439.556	5066
1441.789	4963
1444.019	4980
1446.25	5006
1448.48	5063
1450.708	4947
1452.938	5036
1455.167	5124
1457.394	5019
1459.62	5068
1461.846	4995
1464.073	4991
1466.299	5030
1468.523	4852
1470.746	4942
1472.969	4899
1475.191	4814
1477.415	4804
1479.636	4834
1481.858	4781
1484.078	4778
1486.298	4787
1488.518	4691
1490.736	4693
1492.954	4683
1495.169	4756
1497.386	4759
1499.602	4754
1501.819	4706
1504.034	4799
1506.248	4692
1508.462	4624
1510.675	4589
1512.888	4648
1515.1	4621
1517.311	4763
1519.522	4696
1521.732	4642
1523.942	4621
1526.151	4624
1528.36	4640
1530.566	4704
1532.773	4725
1534.98	4644
1537.187	4665
1539.392	4744
1541.596	4760
1543.801	4688
1546.005	4776
1548.208	4654
1550.411	4748
1552.612	4851
1554.814	4679
1557.013	4826
1559.212	4786
1561.414	4821
1563.612	4779
1565.811	4776
1568.007	4837
1570.203	4753
1572.403	4920
1574.598	4777
1576.792	4844
1578.988	4772
1581.181	4828
1583.376	4862
1585.568	4854
1587.761	4788
1589.952	4828
1592.143	4838
1594.333	4872
1596.524	4818
1598.715	4901
1600.903	4816
1603.091	4825
1605.278	4909
1607.466	4894
1609.652	4848
1611.838	4847
1614.023	4895
1616.207	4962
1618.391	4941
1620.576	4825
1622.759	4994
1624.941	4961
1627.123	4892
1629.304	4949
1631.484	4906
1633.664	4952
1635.844	4980
1638.022	5141
1640.201	5035
1642.38	5013
1644.556	5002
1646.732	5014
1648.908	5045
1651.084	4920
1653.257	4964
1655.433	4907
1657.607	5034
1659.779	5084
1661.951	4937
1664.122	5074
1666.295	5185
1668.467	5013
1670.635	5070
1672.805	5005
1674.973	5105
1677.142	5070
1679.31	5097
1681.478	5091
1683.644	4989
1685.81	5075
1687.975	4973
1690.142	4968
1692.305	4947
1694.468	5065
1696.632	5049
1698.794	4844
1700.957	4824
1703.119	4936
1705.279	4889
1707.439	4840
1709.598	4806
1711.758	4804
1713.917	4887
1716.075	4909
1718.231	4836
1720.388	4922
1722.543	4858
1724.702	4829
1726.856	4835
1729.01	4941
1731.164	4872
1733.317	4886
1735.471	4871
1737.623	4876
1739.774	4866
1741.925	4831
1744.075	4900
1746.225	4868
1748.376	4791
1750.524	4881
1752.672	4891
1754.82	4705
1756.965	4836
1759.113	4889
1761.259	4861
1763.405	4832
1765.549	4920
1767.694	4888
1769.836	5035
1771.981	4959
1774.123	4878
1776.264	4933
1778.405	4959
1780.546	4932
1782.687	4859
1784.827	4944
1786.966	4814
1789.103	4838
1791.242	4971
1793.381	4976
1795.517	4953
1797.653	4913
1799.788	4858
1801.923	4888
1804.057	4903
1806.193	4933
1808.326	4862
1810.457	4819
1812.59	4927
1814.721	4867
1816.855	4950
1818.984	4881
1821.113	4815
1823.244	4885
1825.372	4940
1827.499	4858
1829.63	4895
1831.756	4848
1833.882	4900
1836.007	4868
1838.132	4759
1840.26	5010
1842.384	4774
1844.507	4876
1846.63	4916
1848.752	4872
1850.875	4838
1852.996	5001
1855.118	4819
1857.238	4968
1859.358	4957
1861.477	4839
1863.597	4985
1865.715	4844
1867.832	4898
1869.948	4926
1872.064	4879
1874.181	4905
1876.297	4909
1878.411	4806
1880.526	4946
1882.639	4927
1884.752	4928
1886.865	4997
1888.977	4934
1891.089	4819
1893.2	4936
1895.308	4912
1897.42	4847
1899.53	4835
1901.639	4878
1903.745	4770
1905.853	4892
1907.962	4875
1910.067	4901
1912.174	5020
1914.278	4948
1916.383	4989
1918.486	4892
1920.592	4964
1922.694	4953
1924.797	4986
1926.898	4933
1929	4993
1931.102	5037
1933.203	5019
1935.301	4911
1937.401	4953
1939.499	4950
1941.598	4974
1943.697	4908
1945.793	4896
1947.888	4984
1949.985	4912
1952.08	4936
1954.176	5021
1956.269	5013
1958.364	4930
1960.457	4865
1962.549	4876
1964.642	4917
1966.733	4927
1968.823	4905
1970.913	4850
1973.005	4844
1975.093	4909
1977.184	4911
1979.271	4828
1981.359	4888
1983.446	4881
1985.532	4952
1987.619	4980
1989.705	4876
1991.789	4977
1993.874	4902
1995.956	4959
1998.041	4916
2000.123	4964
2002.206	4981
2004.287	4911
2006.368	4918
2008.449	5008
2010.529	4940
2012.609	4899
2014.688	4909
2016.766	4888
2018.843	4841
2020.922	4899
2022.999	4916
2025.074	4934
2027.15	4945
2029.225	4920
2031.299	4923
2033.375	4838
2035.447	4926
2037.52	4942
2039.592	4919
2041.664	5000
2043.736	4887
2045.807	4878
2047.876	4975
2049.947	4848
2052.015	4905
2054.086	4916
2056.153	4949
2058.221	4950
2060.288	4908
2062.353	4978
2064.42	4936
2066.486	4910
2068.55	4959
2070.614	5028
2072.678	4993
2074.741	4906
2076.805	4935
2078.866	4874
2080.929	4929
2082.99	4980
2085.049	4874
2087.109	4961
2089.17	4879
2091.228	4983
2093.286	5009
2095.344	4999
2097.4	4900
2099.46	4988
2101.516	4878
2103.572	4996
2105.626	4951
2107.679	4888
2109.735	4946
2111.788	4961
2113.841	4980
2115.894	4963
2117.945	4968
2119.997	4960
2122.049	4977
2124.1	5009
2126.148	5011
2128.197	4839
2130.246	4984
2132.296	4982
2134.342	4984
2136.39	5038
2138.437	4966
2140.483	4943
2142.527	4776
2144.574	5012
2146.619	4933
2148.661	4957
2150.705	4922
2152.747	4826
2154.792	4991
2156.832	4956
2158.874	5004
2160.915	4974
2162.954	4804
2164.995	4885
2167.034	4925
2169.072	4872
2171.111	4954
2173.148	4956
2175.186	4985
2177.223	4873
2179.258	4894
2181.294	4987
2183.328	4930
2185.362	4868
2187.398	4819
2189.431	4867
2191.463	4870
2193.495	4798
2195.528	4834
2197.56	4891
2199.59	4865
2201.62	4841
2203.649	4801
2205.678	4879
2207.708	4813
2209.737	4879
2211.764	4845
2213.791	4814
2215.817	4842
2217.843	4889
2219.87	4885
2221.895	4874
2223.919	4875
2225.942	4865
2227.966	4861
2229.988	4859
2232.012	4812
2234.032	4819
2236.054	4778
2238.074	4747
2240.095	4775
2242.116	4877
2244.135	4808
2246.153	4760
2248.171	4864
2250.188	4812
2252.208	4770
2254.223	4918
2256.239	4809
2258.255	4782
2260.269	4857
2262.283	4897
2264.3	4826
2266.312	4890
2268.325	4828
2270.336	4793
2272.349	4860
2274.362	4830
2276.372	4821
2278.383	4901
2280.392	4842
2282.402	4923
2284.409	4898
2286.418	4861
2288.427	4918
2290.433	4839
2292.441	4904
2294.446	4873
2296.453	4783
2298.459	4877
2300.463	4921
2302.466	4832
2304.471	4770
2306.475	4919
2308.477	4783
2310.478	4840
2312.481	4821
2314.481	4822
2316.481	4790
2318.482	4855
2320.482	4800
2322.48	4814
2324.48	4860
2326.478	4786
2328.476	4822
2330.473	4866
2332.469	4798
2334.465	4896
2336.46	4803
2338.454	4834
2340.45	4756
2342.444	4762
2344.437	4914
2346.43	4724
2348.421	4698
2350.414	4710
2352.405	4802
2354.396	4769
2356.386	4765
2358.376	4748
2360.366	4840
2362.355	4789
2364.343	4761
2366.331	4763
2368.317	4740
2370.304	4789
2372.292	4682
2374.278	4773
2376.262	4837
2378.247	4601
2380.23	4697
2382.216	4806
2384.199	4835
2386.181	4713
2388.163	4680
2390.144	4780
2392.127	4723
2394.107	4744
2396.087	4812
2398.066	4703
2400.046	4822
2402.023	4743
2404.004	4687
2405.981	4688
2407.957	4752
2409.934	4707
2411.91	4702
2413.886	4681
2415.862	4707
2417.836	4645
2419.809	4655
2421.784	4726
2423.756	4670
2425.73	4707
2427.701	4660
2429.672	4719
2431.644	4686
2433.615	4680
2435.586	4695
2437.555	4588
2439.523	4740
2441.491	4682
2443.459	4774
2445.428	4730
2447.395	4706
2449.361	4767
2451.327	4768
2453.292	4737
2455.257	4634
2457.223	4610
2459.187	4737
2461.15	4654
2463.113	4636
2465.076	4692
2467.039	4597
2468.999	4687
2470.96	4657
2472.921	4759
2474.881	4614
2476.841	4639
2478.8	4587
2480.759	4662
2482.717	4635
2484.675	4676
2486.63	4627
2488.589	4611
2490.545	4724
2492.5	4680
2494.455	4652
2496.408	4664
2498.364	4564
2500.318	4558
2502.27	4553
2504.223	4581
2506.174	4696
2508.126	4699
2510.078	4682
2512.03	4632
2513.979	4579
2515.927	4588
2517.877	4643
2519.826	4601
2521.775	4554
2523.722	4642
2525.668	4617
2527.616	4669
2529.561	4657
2531.508	4584
2533.452	4548
2535.398	4623
2537.342	4588
2539.284	4634
2541.229	4647
2543.173	4651
2545.114	4559
2547.055	4524
2548.996	4640
2550.938	4737
2552.878	4588
2554.817	4669
2556.756	4565
2558.695	4623
2560.633	4638
2562.572	4622
2564.509	4643
2566.445	4686
2568.382	4661
2570.317	4559
2572.254	4635
2574.189	4710
2576.123	4579
2578.057	4684
2579.99	4617
2581.923	4574
2583.855	4675
2585.788	4633
2587.719	4623
2589.65	4570
2591.579	4612
2593.511	4684
2595.44	4583
2597.37	4655
2599.297	4627
2601.225	4634
2603.153	4681
2605.08	4615
2607.007	4629
2608.932	4634
2610.858	4639
2612.782	4674
2614.709	4668
2616.632	4632
2618.556	4657
2620.478	4611
2622.401	4642
2624.324	4625
2626.247	4660
2628.167	4750
2630.088	4746
2632.008	4670
2633.928	4683
2635.848	4628
2637.766	4599
2639.684	4709
2641.603	4649
2643.519	4751
2645.437	4757
2647.353	4624
2649.27	4578
2651.184	4744
2653.099	4701
2655.014	4737
2656.928	4684
2658.842	4672
2660.755	4688
2662.667	4697
2664.579	4577
2666.491	4631
2668.402	4681
2670.312	4586
2672.222	4699
2674.132	4742
2676.042	4653
2677.951	4620
2679.859	4630
2681.766	4669
2683.674	4661
2685.582	4627
2687.488	4533
2689.392	4594
2691.298	4714
2693.202	4565
2695.107	4592
2697.012	4563
2698.914	4704
2700.817	4686
2702.72	4617
2704.622	4644
2706.524	4543
2708.425	4582
2710.326	4593
2712.225	4576
2714.125	4535
2716.024	4602
2717.923	4538
2719.822	4605
2721.719	4560
2723.616	4556
2725.512	4691
2727.41	4651
2729.305	4569
2731.201	4543
2733.095	4581
2734.99	4603
2736.884	4572
2738.778	4578
2740.67	4609
2742.562	4588
2744.455	4556
2746.346	4551
2748.238	4602
2750.129	4628
2752.018	4687
2753.907	4651
2755.797	4617
2757.687	4555
2759.575	4598
2761.462	4649
2763.349	4612
2765.237	4548
2767.124	4637
2769.009	4570
2770.894	4564
2772.779	4603
2774.663	4531
2776.547	4577
2778.431	4589
2780.314	4574
2782.197	4598
2784.078	4592
2785.96	4591
2787.842	4591
2789.723	4593
2791.603	4479
2793.483	4514
2795.362	4616
2797.241	4595
2799.121	4537
2800.997	4655
2802.874	4606
2804.751	4500
2806.628	4493
2808.506	4555
2810.38	4631
2812.255	4513
2814.13	4606
2816.003	4497
2817.878	4518
2819.752	4465
2821.623	4638
2823.496	4459
2825.368	4566
2827.238	4584
2829.111	4555
2830.98	4614
2832.851	4580
2834.719	4509
2836.589	4580
2838.458	4595
2840.327	4597
2842.193	4635
2844.061	4698
2845.927	4648
2847.794	4583
2849.66	4712
2851.525	4738
2853.39	4719
2855.254	4677
2857.117	4695
2858.983	4658
2860.845	4714
2862.707	4742
2864.569	4700
2866.431	4731
2868.293	4806
2870.154	4861
2872.013	4916
2873.873	4944
2875.733	5101
2877.592	5030
2879.451	4978
2881.309	5161
2883.166	5149
2885.022	5262
2886.879	5205
2888.736	5193
2890.591	5198
2892.446	5322
2894.301	5378
2896.155	5287
2898.009	5298
2899.863	5303
2901.716	5270
2903.568	5247
2905.419	5246
2907.27	5285
2909.123	5197
2910.973	5237
2912.824	5295
2914.673	5382
2916.521	5214
2918.372	5369
2920.22	5438
2922.067	5554
2923.914	5571
2925.761	5529
2927.607	5606
2929.455	5491
2931.301	5838
2933.144	5733
2934.99	5744
2936.833	5873
2938.678	5951
2940.522	5955
2942.364	6056
2944.207	6117
2946.048	6078
2947.891	6150
2949.731	6183
2951.571	6220
2953.412	6136
2955.25	6091
2957.09	6096
2958.93	6115
2960.767	5934
2962.606	5845
2964.443	5893
2966.279	5811
2968.116	5625
2969.953	5581
2971.788	5576
2973.623	5366
2975.457	5568
2977.292	5475
2979.127	5394
2980.959	5411
2982.792	5315
2984.624	5295
2986.455	5237
2988.288	5355
2990.119	5190
2991.949	5146
2993.779	5100
2995.608	5065
2997.439	5074
2999.268	5063
3001.096	5020
3002.923	4857
3004.751	4952
3006.578	4816
3008.406	4746
3010.232	4778
3012.057	4795
3013.883	4703
3015.706	4670
3017.532	4548
3019.356	4550
3021.179	4519
3023.002	4578
3024.823	4561
3026.646	4617
3028.469	4552
3030.289	4452
3032.11	4462
3033.93	4475
3035.749	4425
3037.57	4472
3039.39	4534
3041.207	4407
3043.026	4412
3044.842	4421
3046.661	4503
3048.477	4393
3050.294	4383
3052.109	4424
3053.925	4439
3055.739	4438
3057.555	4521
3059.368	4426
3061.181	4427
3062.995	4415
3064.807	4453
3066.62	4439
3068.433	4452
3070.243	4453
3072.054	4476
3073.865	4378
3075.675	4404
3077.485	4428
3079.293	4286
3081.102	4420
3082.911	4369
3084.719	4354
3086.527	4382
3088.333	4396
3090.139	4394
3091.945	4362
3093.75	4360
3095.557	4335
3097.361	4291
3099.165	4273
3100.969	4324
3102.772	4300
3104.575	4342
3106.379	4292
3108.181	4350
3109.982	4448
3111.783	4251
3113.584	4321
3115.386	4244
3117.186	4332
3118.985	4283
3120.783	4240
3122.582	4214
3124.381	4300
3126.179	4263
3127.975	4286
3129.772	4193
3131.569	4225
3133.365	4246
3135.161	4225
3136.956	4286
3138.751	4264
3140.544	4250
3142.338	4175
3144.132	4215
3145.925	4267
3147.717	4193
3149.509	4272
3151.301	4228
3153.091	4180
3154.884	4174
3156.673	4241
3158.462	4245
3160.252	4206
3162.041	4180
3163.831	4174
3165.618	4218
3167.405	4231
3169.193	4218
3170.979	4170
3172.767	4260
3174.553	4169
3176.338	4143
3178.123	4308
3179.907	4141
3181.692	4163
3183.477	4189
3185.259	4208
3187.042	4268
3188.824	4151
3190.607	4271
3192.389	4211
3194.17	4185
3195.951	4111
3197.73	4167
3199.51	4164
3201.289	4141
3203.07	4201
3204.848	4302
3206.626	4152
3208.403	4121
3210.18	4165
3211.959	4159
3213.735	4162
3215.511	4191
3217.285	4142
3219.06	4160
3220.836	4198
3222.611	4203
3224.384	4184
3226.158	4200
3227.929	4219
3229.702	4180
3231.476	4208
3233.248	4253
3235.018	4241
3236.789	4171
3238.56	4248
3240.33	4215
3242.1	4156
3243.869	4112
3245.637	4141
3247.405	4126
3249.172	4125
3250.941	4204
3252.707	4156
3254.474	4264
3256.24	4104
3258.006	4185
3259.772	4210
3261.537	4200
3263.301	4216
3265.065	4137
3266.828	4141
3268.592	4217
3270.355	4247
3272.117	4208
3273.878	4156
3275.64	4202
3277.401	4205
3279.162	4205
3280.922	4249
3282.682	4213
3284.441	4215
3286.199	4205
3287.959	4268
3289.716	4171
3291.475	4243
3293.232	4259
3294.988	4173
3296.744	4235
3298.501	4235
3300.256	4181
3302.011	4183
3303.766	4255
3305.52	4272
3307.275	4125
3309.028	4242
3310.781	4208
3312.533	4164
3314.285	4280
3316.038	4078
3317.789	4208
3319.54	4256
3321.289	4300
3323.039	4169
3324.789	4234
3326.539	4127
3328.288	4147
3330.035	4180
3331.783	4146
3333.531	4249
3335.28	4183
3337.025	4182
3338.771	4187
3340.518	4174
3342.262	4159
3344.009	4200
3345.753	4227
3347.497	4166
3349.24	4070
3350.983	4196
3352.726	4162
3354.469	4108
3356.212	4206
3357.952	4142
3359.694	4088
3361.434	4135
3363.176	4089
3364.916	4190
3366.654	4126
3368.394	4085
3370.132	4148
3371.871	4103
3373.61	4179
3375.346	4077
3377.083	4169
3378.82	4101
3380.556	4116
3382.292	4024
3384.027	3991
3385.763	4154
3387.497	4093
3389.231	4119
3390.965	4084
3392.698	4002
3394.431	4029
3396.164	4101
3397.896	3957
3399.627	4055
3401.36	3965
3403.09	4019
3404.82	4018
3406.55	4060
3408.279	4005
3410.01	4021
3411.738	4030
3413.467	4001
3415.194	4005
3416.92	3953
3418.647	3989
3420.375	3928
3422.102	3965
3423.827	4007
3425.553	3990
3427.277	4002
3429.003	3987
3430.727	3955
3432.451	4009
3434.173	4000
3435.896	3987
3437.62	3928
3439.343	4010
3441.063	3955
3442.785	3941
3444.505	3904
3446.226	4022
3447.948	3922
3449.666	3857
3451.386	3869
3453.104	3954
3454.823	3883
3456.541	3996
3458.259	3826
3459.976	3791
3461.693	3892
3463.408	3948
3465.125	3935
3466.841	3927
3468.556	3913
3470.271	3793
3471.985	3791
3473.698	3824
3475.414	3817
3477.126	3873
3478.838	3847
3480.55	3870
3482.263	3864
3483.975	3897
3485.686	3803
3487.396	3746
3489.106	3822
3490.817	3830
3492.526	3811
3494.236	3830
3495.944	3698
3497.652	3787
3499.359	3739
3501.066	3747
3502.775	3814
3504.481	3754
3506.187	3816
3507.893	3719
3509.598	3718
3511.304	3783
3513.009	3675
3514.713	3785
3516.417	3736
3518.12	3760
3519.821	3667
3521.525	3741
3523.228	3796
3524.929	3720
3526.631	3667
3528.33	3668
3530.032	3623
3531.733	3660
3533.433	3680
3535.131	3655
3536.83	3695
3538.529	3704
3540.227	3593
3541.925	3713
3543.623	3633
3545.319	3576
3547.016	3673
3548.712	3642
3550.408	3666
3552.103	3619
3553.798	3619
3555.491	3725
3557.188	3593
3558.88	3679
3560.574	3610
3562.266	3616
3563.959	3586
3565.651	3578
3567.343	3619
3569.035	3681
3570.725	3654
3572.415	3630
3574.106	3527
3575.797	3627
3577.485	3567
3579.174	3603
3580.863	3550
3582.551	3618
3584.238	3572
3585.926	3587
3587.613	3548
3589.3	3555
3590.986	3509
3592.671	3508
3594.357	3490
3596.042	3485
3597.726	3440
3599.41	3454
3601.094	3430
3602.778	3482
3604.461	3499
3606.143	3514
3607.825	3428
3609.507	3613
3611.188	3437
3612.87	3449
3614.551	3413
3616.229	3433
3617.909	3413
3619.589	3400
3621.269	3507
3622.948	3447
3624.625	3406
3626.302	3441
3627.98	3424
3629.657	3450
3631.334	3338
3633.01	3410
3634.686	3457
3636.361	3410
3638.036	3329
3639.712	3337
3641.385	3358
3643.06	3418
3644.732	3352
3646.405	3328
3648.08	3430
3649.751	3441
3651.424	3364
3653.094	3267
3654.766	3296
3656.436	3377
3658.106	3337
3659.777	3333
3661.446	3346
3663.115	3280
3664.783	3304
3666.452	3276
3668.121	3305
3669.788	3302
3671.454	3270
3673.121	3328
3674.789	3349
3676.455	3225
3678.12	3294
3679.784	3306
3681.45	3249
3683.114	3345
3684.779	3317
3686.442	3304
3688.105	3238
3689.768	3259
3691.43	3310
3693.093	3264
3694.754	3323
3696.415	3246
3698.076	3296
3699.736	3298
3701.396	3290
3703.057	3272
3704.716	3227
3706.375	3228
3708.034	3227
3709.692	3232
3711.351	3236
3713.008	3311
3714.665	3245
3716.321	3172
3717.977	3215
3719.634	3249
3721.29	3203
3722.945	3124
3724.598	3262
3726.253	3228
3727.907	3213
3729.561	3255
3731.214	3231
3732.867	3252
3734.518	3224
3736.171	3208
3737.824	3228
3739.474	3239
3741.125	3211
3742.775	3225
3744.425	3208
3746.074	3185
3747.725	3116
3749.373	3128
3751.022	3224
3752.669	3152
3754.318	3189
3755.966	3085
3757.612	3216
3759.259	3218
3760.905	3118
3762.55	3118
3764.197	3153
3765.842	3177
3767.486	3129
3769.131	3163
3770.774	3220
3772.417	3108
3774.061	3153
3775.705	3180
3777.347	3129
3778.988	3078
3780.629	3166
3782.271	3155
3783.912	3110
3785.552	3193
3787.192	3106
3788.831	3074
3790.472	3118
3792.112	3162
3793.75	3076
3795.388	3202
3797.024	3174
3798.661	3093
3800.3	3059
3801.936	3044
3803.572	3150
3805.208	3111
3806.844	3133
3808.48	3092
3810.115	3027
3811.748	3120
3813.382	3004
3815.016	3102
3816.649	3072
3818.283	3113
3819.914	3018
3821.547	3061
3823.178	3049
3824.809	3049
3826.441	3111
3828.072	3059
3829.701	3060
3831.331	3046
3832.96	3015
3834.591	3021
3836.219	3002
3837.847	3057
3839.475	3078
3841.102	3046
3842.729	2997
3844.357	3060
3845.984	3011
3847.609	3031
3849.234	3010
3850.86	3026
3852.485	3068
3854.11	3031
3855.734	3069
3857.357	3023
3858.981	2968
3860.603	3011
3862.227	3079
3863.848	3036
3865.471	3000
3867.092	2945
3868.713	2978
3870.334	2992
3871.954	2981
3873.575	3023
3875.194	3009
3876.813	3050
3878.433	2945
3880.051	2957
3881.669	3008
3883.286	2964
3884.904	2965
3886.52	2952
3888.138	2931
3889.754	2941
3891.37	3004
3892.985	2889
3894.6	2986
3896.216	2931
3897.831	2916
3899.444	2907
3901.058	2938
3902.67	2905
3904.283	2922
3905.897	2919
3907.509	2911
3909.121	2974
3910.731	2987
3912.342	2920
3913.954	2874
3915.563	2981
3917.174	2988
3918.783	2938
3920.391	2918
3922.002	2945
3923.611	2939
3925.218	2885
3926.826	3001
3928.432	2954
3930.039	2917
3931.647	2941
3933.253	2933
3934.859	2959
3936.464	2935
3938.068	2937
3939.675	2921
3941.278	2896
3942.883	2927
3944.486	2876
3946.089	2905
3947.692	2890
3949.295	2850
3950.898	2895
3952.499	2873
3954.1	2879
3955.7	2914
3957.303	2811
3958.903	2903
3960.502	2885
3962.101	2880
3963.7	2862
3965.301	2861
3966.899	2875
3968.497	2917
3970.094	2853
3971.691	2852
3973.288	2867
3974.885	2875
3976.481	2845
3978.077	2850
3979.672	2869
3981.267	2788
3982.863	2804
3984.457	2870
3986.051	2803
3987.645	2811
3989.238	2833
3990.831	2833
3992.425	2750
3994.017	2850
3995.607	2728
3997.199	2844
3998.79	2810
4000.382	2818
4001.973	2723
4003.561	2771
4005.151	2832
4006.741	2817
4008.331	2838
4009.918	2798
4011.507	2778
4013.095	2817
4014.681	2803
4016.269	2750
4017.856	2747
4019.443	2716
4021.028	2749
4022.614	2709
4024.199	2742
4025.785	2826
4027.37	2747
4028.953	2746
4030.536	2752
4032.12	2757
4033.704	2749
4035.287	2753
4036.869	2791
4038.45	2683
4040.032	2688
4041.613	2754
4043.195	2676
4044.776	2738
4046.356	2689
4047.935	2696
4049.515	2731
4051.095	2698
4052.674	2677
4054.251	2658
4055.829	2692
4057.406	2742
4058.985	2675
4060.562	2738
4062.139	2651
4063.715	2728
4065.29	2655
4066.865	2697
4068.442	2694
4070.016	2665
4071.59	2716
4073.164	2657
4074.738	2687
4076.312	2697
4077.885	2695
4079.458	2753
4081.03	2669
4082.602	2720
4084.173	2633
4085.745	2626
4087.315	2648
4088.886	2666
4090.456	2753
4092.026	2643
4093.596	2660
4095.165	2662
4096.734	2598
4098.301	2662
4099.869	2654
4101.437	2634
4103.006	2672
4104.572	2645
4106.139	2700
4107.704	2696
4109.27	2580
4110.837	2704
4112.401	2590
4113.966	2632
4115.53	2625
4117.094	2628
4118.659	2685
4120.223	2640
4121.785	2565
4123.347	2554
4124.909	2616
4126.471	2659
4128.034	2560
4129.595	2626
4131.155	2574
4132.716	2616
4134.275	2632
4135.836	2594
4137.395	2526
4138.955	2592
4140.513	2551
4142.071	2630
4143.628	2608
4145.188	2572
4146.745	2577
4148.302	2544
4149.858	2552
4151.414	2544
4152.971	2547
4154.526	2573
4156.081	2595
4157.635	2575
4159.189	2540
4160.745	2552
4162.298	2505
4163.852	2526
4165.405	2567
4166.957	2535
4168.51	2598
4170.063	2515
4171.614	2551
4173.166	2500
4174.717	2469
4176.267	2553
4177.817	2575
4179.368	2485
4180.917	2539
4182.466	2550
4184.016	2484
4185.564	2487
4187.112	2523
4188.66	2506
4190.207	2490
4191.754	2467
4193.301	2477
4194.848	2519
4196.394	2481
4197.94	2384
4199.484	2542
4201.03	2462
4202.575	2453
4204.12	2490
4205.663	2488
4207.207	2467
4208.75	2429
4210.292	2464
4211.836	2437
4213.378	2459
4214.92	2479
4216.46	2467
4218.002	2416
4219.544	2519
4221.083	2407
4222.625	2364
4224.164	2483
4225.703	2325
4227.244	2440
4228.782	2428
4230.32	2446
4231.857	2448
4233.395	2393
4234.933	2426
4236.471	2392
4238.007	2472
4239.542	2422
4241.078	2403
4242.614	2511
4244.15	2417
4245.685	2419
4247.219	2456
4248.753	2445
4250.287	2416
4251.82	2433
4253.354	2411
4254.887	2379
4256.419	2378
4257.951	2438
4259.483	2443
4261.016	2449
4262.547	2401
4264.078	2401
4265.608	2396
4267.137	2385
4268.668	2373
4270.197	2400
4271.727	2337
4273.254	2436
4274.783	2382
4276.311	2364
4277.84	2482
4279.366	2365
4280.894	2383
4282.42	2337
4283.946	2410
4285.473	2392
4286.998	2407
4288.523	2365
4290.047	2375
4291.572	2400
4293.096	2366
4294.622	2387
4296.144	2354
4297.668	2417
4299.19	2413
4300.713	2338
4302.236	2319
4303.758	2369
4305.279	2307
4306.799	2337
4308.321	2313
4309.842	2408
4311.361	2365
4312.882	2366
4314.401	2316
