400.0961	3250
402.6185	3234
405.1424	3153
407.6635	3165
410.1838	3158
412.7035	3143
415.2225	3205
417.7388	3202
420.2585	3278
422.7754	3280
425.2917	3360
427.8072	3237
430.3221	3327
432.8363	3278
435.3498	3345
437.8626	3381
440.3727	3376
442.8841	3418
445.3969	3346
447.907	3382
450.4142	3299
452.9229	3376
455.4289	3344
457.9362	3411
460.4449	3354
462.9488	3328
465.454	3293
467.9566	3262
470.4604	3251
472.9637	3351
475.4662	3334
477.966	3384
480.4671	3344
482.9656	3310
485.4633	3368
487.9645	3331
490.4608	3322
492.9566	3377
495.4536	3415
497.948	3376
500.4437	3431
502.9387	3439
505.431	3399
507.9226	3421
510.4136	3350
512.9079	3398
515.3975	3442
517.8864	3460
520.3746	3451
522.8622	3462
525.3491	3483
527.8394	3428
530.3249	3377
532.8098	3436
535.2939	3487
537.7774	3523
540.2623	3517
542.7444	3475
545.2259	3446
547.7067	3454
550.1868	3532
552.6683	3491
555.147	3428
557.6231	3463
560.1005	3439
562.5773	3449
565.0534	3505
567.5308	3617
570.0056	3565
572.4776	3522
574.951	3599
577.4237	3582
579.8978	3526
582.3671	3564
584.8378	3613
587.3079	3582
589.7773	3616
592.244	3705
594.714	3582
597.1793	3649
599.6461	3561
602.1121	3616
604.5754	3607
607.0421	3601
609.5042	3623
611.9675	3567
614.4282	3560
616.8902	3602
619.3515	3667
621.8122	3531
624.2702	3504
626.7296	3441
629.1863	3525
631.6423	3557
634.1017	3588
636.5563	3593
639.0104	3535
641.4658	3615
643.9185	3586
646.3725	3573
648.8239	3533
651.2766	3551
653.7266	3536
656.176	3651
658.6247	3703
661.0748	3623
663.5242	3584
665.9709	3565
668.417	3577
670.8624	3699
673.3092	3637
675.7533	3530
678.1968	3644
680.6395	3605
683.0817	3608
685.5251	3628
687.9659	3615
690.4061	3708
692.8456	3742
695.2844	3629
697.7226	3705
700.1621	3670
702.599	3733
705.0332	3800
707.4688	3636
709.9036	3719
712.3399	3750
714.7735	3653
717.2044	3704
719.6367	3818
722.0683	3781
724.4993	3846
726.9296	3750
729.3593	3856
731.7883	3839
734.2147	3806
736.6423	3766
739.0714	3823
741.4958	3825
743.9216	3773
746.3447	3841
748.7691	3911
751.1929	3852
753.616	3825
756.0366	3929
758.4584	3944
760.8776	3895
763.2982	3806
765.718	3917
768.1373	3939
770.5539	3858
772.9698	3898
775.3871	3894
777.8038	3882
780.2178	3906
782.6332	3846
785.0459	3958
787.458	3977
789.8714	3872
792.2842	3914
794.6943	3908
797.1038	3944
799.5127	3877
801.9209	3889
804.3324	3930
806.7393	4002
809.1456	3944
811.5513	3905
813.9562	3960
816.3625	4002
818.7663	4001
821.1693	4010
823.5718	3978
825.9735	3986
828.3746	3887
830.7771	4020
833.177	4021
835.5762	3939
837.9747	4094
840.3727	4021
842.772	3990
845.1666	4003
847.5626	4137
849.958	4024
852.3527	4105
854.7488	4131
857.1403	4140
859.5331	4064
861.9253	4132
864.3168	4105
866.7057	4032
869.098	4091
871.4876	4053
873.8746	4072
876.263	4110
878.6487	4047
881.0378	3970
883.4243	4156
885.8081	4101
888.1933	3993
890.5759	4015
892.9598	4050
895.343	4109
897.7256	4064
900.1057	4079
902.4871	4125
904.8659	4081
907.246	4054
909.6254	4141
912.0023	4140
914.3786	4174
916.7562	4269
919.1331	4316
921.5074	4374
923.8831	4410
926.2562	4424
928.6287	4409
931.0005	4440
933.3757	4393
935.7462	4320
938.1162	4303
940.4855	4400
942.8542	4437
945.2242	4400
947.5916	4542
949.9584	4679
952.3266	4602
954.6921	4868
957.0571	5002
959.4233	5181
961.787	5126
964.15	5136
966.5125	5059
968.8742	4866
971.2354	4754
973.5959	4561
975.9559	4374
978.3151	4353
980.6738	4368
983.0338	4366
985.3912	4260
987.7461	4310
990.1022	4249
992.4578	4234
994.8127	4236
997.1689	4197
999.5207	4247
1001.874	4326
1004.226	4221
1006.576	4257
1008.929	4218
1011.28	4295
1013.628	4244
1015.977	4246
1018.324	4181
1020.674	4275
1023.019	4255
1025.366	4274
1027.713	4256
1030.056	4270
1032.399	4281
1034.746	4287
1037.087	4254
1039.431	4255
1041.771	4274
1044.113	4277
1046.454	4269
1048.793	4217
1051.133	4347
1053.471	4284
1055.807	4350
1058.146	4226
1060.483	4262
1062.818	4378
1065.153	4276
1067.489	4397
1069.822	4398
1072.156	4470
1074.488	4439
1076.82	4398
1079.15	4408
1081.48	4383
1083.814	4428
1086.143	4292
1088.471	4326
1090.799	4284
1093.126	4386
1095.452	4369
1097.78	4259
1100.105	4246
1102.43	4296
1104.754	4215
1107.077	4281
1109.4	4354
1111.722	4272
1114.044	4354
1116.365	4295
1118.685	4277
1121.005	4272
1123.324	4371
1125.643	4361
1127.961	4406
1130.278	4313
1132.595	4411
1134.911	4232
1137.226	4332
1139.541	4315
1141.854	4298
1144.167	4275
1146.482	4338
1148.793	4463
1151.105	4346
1153.414	4298
1155.725	4351
1158.033	4327
1160.344	4314
1162.651	4383
1164.959	4358
1167.265	4334
1169.572	4304
1171.878	4299
1174.184	4302
1176.488	4449
1178.79	4308
1181.094	4423
1183.396	4470
1185.699	4348
1188.001	4332
1190.301	4311
1192.6	4333
1194.9	4315
1197.2	4351
1199.497	4470
1201.794	4377
1204.09	4336
1206.387	4276
1208.684	4362
1210.978	4364
1213.272	4314
1215.565	4390
1217.858	4439
1220.15	4345
1222.443	4419
1224.734	4402
1227.024	4359
1229.313	4461
1231.602	4440
1233.892	4497
1236.18	4575
1238.467	4508
1240.754	4581
1243.04	4550
1245.325	4536
1247.612	4598
1249.896	4516
1252.178	4605
1254.461	4712
1256.743	4430
1259.027	4664
1261.308	4556
1263.587	4684
1265.867	4561
1268.146	4637
1270.425	4612
1272.703	4641
1274.981	4597
1277.256	4595
1279.532	4573
1281.808	4613
1284.083	4547
1286.358	4516
1288.63	4560
1290.904	4490
1293.175	4489
1295.449	4524
1297.719	4492
1299.99	4507
1302.259	4468
1304.529	4582
1306.798	4392
1309.065	4501
1311.333	4494
1313.599	4583
1315.866	4525
1318.131	4532
1320.396	4539
1322.66	4498
1324.925	4448
1327.187	4522
1329.448	4504
1331.711	4587
1333.974	4569
1336.234	4583
1338.493	4522
1340.752	4501
1343.01	4454
1345.269	4480
1347.526	4524
1349.784	4463
1352.04	4486
1354.295	4441
1356.552	4528
1358.806	4503
1361.059	4499
1363.312	4500
1365.564	4619
1367.818	4512
1370.069	4518
1372.318	4579
1374.568	4583
1376.817	4529
1379.066	4545
1381.316	4655
1383.564	4587
1385.809	4533
1388.056	4539
1390.301	4635
1392.549	4666
1394.793	4678
1397.036	4720
1399.279	4672
1401.522	4844
1403.763	4793
1406.007	4798
1408.248	4855
1410.487	4803
1412.727	4785
1414.965	4707
1417.205	4793
1419.442	4796
1421.68	4737
1423.915	4746
1426.152	4749
1428.388	4738
1430.623	4735
1432.857	4846
1435.091	4707
1437.323	4683
1439.556	4755
1441.789	4774
1444.019	4840
1446.25	4822
1448.48	4797
1450.708	4766
1452.938	4850
1455.167	4862
1457.394	4936
1459.62	4848
1461.846	4859
1464.073	4776
1466.299	4717
1468.523	4825
1470.746	4777
1472.969	4742
1475.191	4596
1477.415	4738
1479.636	4620
1481.858	4572
1484.078	4643
1486.298	4560
1488.518	4602
1490.736	4473
1492.954	4524
1495.169	4502
1497.386	4570
1499.602	4475
1501.819	4507
1504.034	4446
1506.248	4564
1508.462	4485
1510.675	4513
1512.888	4445
1515.1	4509
1517.311	4477
1519.522	4511
1521.732	4416
1523.942	4539
1526.151	4473
1528.36	4482
1530.566	4474
1532.773	4554
1534.98	4522
1537.187	4572
1539.392	4530
1541.596	4573
1543.801	4519
1546.005	4617
1548.208	4603
1550.411	4532
1552.612	4501
1554.814	4693
1557.013	4563
1559.212	4568
1561.414	4513
1563.612	4678
1565.811	4587
1568.007	4684
1570.203	4625
1572.403	4654
1574.598	4657
1576.792	4539
1578.988	4641
1581.181	4587
1583.376	4700
1585.568	4589
1587.761	4545
1589.952	4609
1592.143	4568
1594.333	4573
1596.524	4667
1598.715	4588
1600.903	4721
1603.091	4645
1605.278	4649
1607.466	4696
1609.652	4764
1611.838	4673
1614.023	4775
1616.207	4707
1618.391	4699
1620.576	4717
1622.759	4639
1624.941	4655
1627.123	4690
1629.304	4823
1631.484	4680
1633.664	4633
1635.844	4671
1638.022	4715
1640.201	4746
1642.38	4725
1644.556	4773
1646.732	4852
1648.908	4743
1651.084	4698
1653.257	4792
1655.433	4809
1657.607	4825
1659.779	4912
1661.951	4840
1664.122	4814
1666.295	4810
1668.467	4826
1670.635	4805
1672.805	4876
1674.973	4792
1677.142	4791
1679.31	4867
1681.478	4773
1683.644	4784
1685.81	4816
1687.975	4753
1690.142	4799
1692.305	4686
1694.468	4735
1696.632	4739
1698.794	4698
1700.957	4758
1703.119	4632
1705.279	4649
1707.439	4646
1709.598	4751
1711.758	4671
1713.917	4646
1716.075	4692
1718.231	4682
1720.388	4600
1722.543	4687
1724.702	4606
1726.856	4711
1729.01	4630
1731.164	4657
1733.317	4666
1735.471	4608
1737.623	4694
1739.774	4610
1741.925	4645
1744.075	4681
1746.225	4635
1748.376	4609
1750.524	4762
1752.672	4684
1754.82	4634
1756.965	4665
1759.113	4601
1761.259	4589
1763.405	4621
1765.549	4621
1767.694	4708
1769.836	4568
1771.981	4675
1774.123	4815
1776.264	4667
1778.405	4726
1780.546	4710
1782.687	4736
1784.827	4724
1786.966	4723
1789.103	4608
1791.242	4692
1793.381	4673
1795.517	4678
1797.653	4708
1799.788	4697
1801.923	4683
1804.057	4778
1806.193	4680
1808.326	4697
1810.457	4621
1812.59	4737
1814.721	4636
1816.855	4682
1818.984	4667
1821.113	4664
1823.244	4759
1825.372	4623
1827.499	4654
1829.63	4671
1831.756	4685
1833.882	4611
1836.007	4699
1838.132	4667
1840.26	4724
1842.384	4692
1844.507	4627
1846.63	4726
1848.752	4652
1850.875	4699
1852.996	4756
1855.118	4663
1857.238	4579
1859.358	4649
1861.477	4614
1863.597	4621
1865.715	4728
1867.832	4678
1869.948	4597
1872.064	4748
1874.181	4664
1876.297	4645
1878.411	4672
1880.526	4575
1882.639	4629
1884.752	4671
1886.865	4671
1888.977	4677
1891.089	4578
1893.2	4768
1895.308	4720
1897.42	4674
1899.53	4660
1901.639	4771
1903.745	4577
1905.853	4711
1907.962	4708
1910.067	4648
1912.174	4735
1914.278	4774
1916.383	4716
1918.486	4754
1920.592	4688
1922.694	4624
1924.797	4812
1926.898	4761
1929	4712
1931.102	4790
1933.203	4758
1935.301	4784
1937.401	4665
1939.499	4700
1941.598	4844
1943.697	4773
1945.793	4819
1947.888	4748
1949.985	4711
1952.08	4704
1954.176	4755
1956.269	4701
1958.364	4723
1960.457	4796
1962.549	4647
1964.642	4779
1966.733	4717
1968.823	4713
1970.913	4729
1973.005	4779
1975.093	4647
1977.184	4662
1979.271	4618
1981.359	4848
1983.446	4759
1985.532	4766
1987.619	4662
1989.705	4705
1991.789	4753
1993.874	4648
1995.956	4681
1998.041	4664
2000.123	4724
2002.206	4703
2004.287	4807
2006.368	4620
2008.449	4730
2010.529	4736
2012.609	4614
2014.688	4593
2016.766	4660
2018.843	4684
2020.922	4715
2022.999	4721
2025.074	4742
2027.15	4792
2029.225	4714
2031.299	4722
2033.375	4610
2035.447	4679
2037.52	4624
2039.592	4730
2041.664	4746
2043.736	4773
2045.807	4681
2047.876	4710
2049.947	4606
2052.015	4783
2054.086	4675
2056.153	4739
2058.221	4661
2060.288	4712
2062.353	4704
2064.42	4721
2066.486	4684
2068.55	4554
2070.614	4640
2072.678	4741
2074.741	4661
2076.805	4667
2078.866	4712
2080.929	4665
2082.99	4684
2085.049	4688
2087.109	4732
2089.17	4750
2091.228	4611
2093.286	4637
2095.344	4725
2097.4	4798
2099.46	4703
2101.516	4705
2103.572	4699
2105.626	4760
2107.679	4694
2109.735	4788
2111.788	4653
2113.841	4784
2115.894	4792
2117.945	4662
2119.997	4651
2122.049	4709
2124.1	4740
2126.148	4681
2128.197	4693
2130.246	4633
2132.296	4554
2134.342	4616
2136.39	4705
2138.437	4681
2140.483	4655
2142.527	4628
2144.574	4677
2146.619	4708
2148.661	4705
2150.705	4703
2152.747	4669
2154.792	4688
2156.832	4584
2158.874	4654
2160.915	4612
2162.954	4673
2164.995	4701
2167.034	4688
2169.072	4679
2171.111	4648
2173.148	4592
2175.186	4679
2177.223	4614
2179.258	4710
2181.294	4710
2183.328	4646
2185.362	4606
2187.398	4661
2189.431	4667
2191.463	4644
2193.495	4695
2195.528	4588
2197.56	4678
2199.59	4617
2201.62	4601
2203.649	4631
2205.678	4604
2207.708	4624
2209.737	4525
2211.764	4581
2213.791	4595
2215.817	4551
2217.843	4574
2219.87	4513
2221.895	4588
2223.919	4494
2225.942	4664
2227.966	4553
2229.988	4615
2232.012	4570
2234.032	4607
2236.054	4553
2238.074	4566
2240.095	4604
2242.116	4518
2244.135	4577
2246.153	4548
2248.171	4591
2250.188	4659
2252.208	4535
2254.223	4520
2256.239	4614
2258.255	4609
2260.269	4595
2262.283	4532
2264.3	4614
2266.312	4494
2268.325	4641
2270.336	4563
2272.349	4544
2274.362	4504
2276.372	4512
2278.383	4541
2280.392	4541
2282.402	4559
2284.409	4467
2286.418	4602
2288.427	4577
2290.433	4514
2292.441	4696
2294.446	4499
2296.453	4572
2298.459	4617
2300.463	4473
2302.466	4541
2304.471	4523
2306.475	4580
2308.477	4599
2310.478	4444
2312.481	4584
2314.481	4553
2316.481	4596
2318.482	4535
2320.482	4503
2322.48	4492
2324.48	4530
2326.478	4598
2328.476	4571
2330.473	4476
2332.469	4525
2334.465	4556
2336.46	4534
2338.454	4541
2340.45	4503
2342.444	4531
2344.437	4571
2346.43	4562
2348.421	4556
2350.414	4508
2352.405	4483
2354.396	4546
2356.386	4456
2358.376	4489
2360.366	4499
2362.355	4512
2364.343	4397
2366.331	4466
2368.317	4433
2370.304	4513
2372.292	4484
2374.278	4411
2376.262	4459
2378.247	4470
2380.23	4436
2382.216	4578
2384.199	4464
2386.181	4390
2388.163	4437
2390.144	4429
2392.127	4459
2394.107	4389
2396.087	4463
2398.066	4469
2400.046	4432
2402.023	4368
2404.004	4532
2405.981	4543
2407.957	4440
2409.934	4466
2411.91	4478
2413.886	4396
2415.862	4431
2417.836	4408
2419.809	4430
2421.784	4495
2423.756	4423
2425.73	4394
2427.701	4405
2429.672	4352
2431.644	4394
2433.615	4394
2435.586	4354
2437.555	4347
2439.523	4366
2441.491	4457
2443.459	4523
2445.428	4438
2447.395	4468
2449.361	4384
2451.327	4394
2453.292	4352
2455.257	4397
2457.223	4491
2459.187	4458
2461.15	4470
2463.113	4435
2465.076	4413
2467.039	4472
2468.999	4423
2470.96	4434
2472.921	4432
2474.881	4406
2476.841	4384
2478.8	4448
2480.759	4464
2482.717	4361
2484.675	4454
2486.63	4442
2488.589	4325
2490.545	4387
2492.5	4330
2494.455	4317
2496.408	4443
2498.364	4392
2500.318	4301
2502.27	4457
2504.223	4323
2506.174	4413
2508.126	4339
2510.078	4314
2512.03	4317
2513.979	4273
2515.927	4326
2517.877	4448
2519.826	4265
2521.775	4400
2523.722	4289
2525.668	4339
2527.616	4319
2529.561	4341
2531.508	4390
2533.452	4268
2535.398	4270
2537.342	4321
2539.284	4287
2541.229	4351
2543.173	4322
2545.114	4381
2547.055	4248
2548.996	4390
2550.938	4323
2552.878	4364
2554.817	4316
2556.756	4399
2558.695	4299
2560.633	4338
2562.572	4301
2564.509	4332
2566.445	4365
2568.382	4333
2570.317	4364
2572.254	4273
2574.189	4309
2576.123	4285
2578.057	4322
2579.99	4384
2581.923	4318
2583.855	4322
2585.788	4315
2587.719	4280
2589.65	4375
2591.579	4429
2593.511	4372
2595.44	4325
2597.37	4241
2599.297	4346
2601.225	4231
2603.153	4314
2605.08	4338
2607.007	4392
2608.932	4305
2610.858	4341
2612.782	4301
2614.709	4414
2616.632	4339
2618.556	4360
2620.478	4290
2622.401	4348
2624.324	4343
2626.247	4193
2628.167	4368
2630.088	4442
2632.008	4361
2633.928	4382
2635.848	4342
2637.766	4278
2639.684	4288
2641.603	4374
2643.519	4371
2645.437	4480
2647.353	4472
2649.27	4369
2651.184	4392
2653.099	4210
2655.014	4327
2656.928	4267
2658.842	4367
2660.755	4279
2662.667	4352
2664.579	4311
2666.491	4399
2668.402	4313
2670.312	4414
2672.222	4331
2674.132	4321
2676.042	4355
2677.951	4447
2679.859	4312
2681.766	4225
2683.674	4340
2685.582	4314
2687.488	4266
2689.392	4348
2691.298	4380
2693.202	4287
2695.107	4368
2697.012	4315
2698.914	4329
2700.817	4294
2702.72	4280
2704.622	4171
2706.524	4241
2708.425	4187
2710.326	4250
2712.225	4318
2714.125	4195
2716.024	4257
2717.923	4329
2719.822	4334
2721.719	4280
2723.616	4305
2725.512	4263
2727.41	4176
2729.305	4277
2731.201	4313
2733.095	4351
2734.99	4331
2736.884	4260
2738.778	4240
2740.67	4327
2742.562	4219
2744.455	4329
2746.346	4222
2748.238	4455
2750.129	4374
2752.018	4251
2753.907	4271
2755.797	4232
2757.687	4243
2759.575	4274
2761.462	4251
2763.349	4244
2765.237	4265
2767.124	4237
2769.009	4296
2770.894	4222
2772.779	4240
2774.663	4279
2776.547	4196
2778.431	4237
2780.314	4307
2782.197	4226
2784.078	4232
2785.96	4233
2787.842	4223
2789.723	4279
2791.603	4190
2793.483	4218
2795.362	4156
2797.241	4281
2799.121	4210
2800.997	4313
2802.874	4185
2804.751	4243
2806.628	4287
2808.506	4253
2810.38	4292
2812.255	4235
2814.13	4227
2816.003	4215
2817.878	4272
2819.752	4144
2821.623	4254
2823.496	4266
2825.368	4264
2827.238	4208
2829.111	4278
2830.98	4239
2832.851	4281
2834.719	4264
2836.589	4258
2838.458	4225
2840.327	4306
2842.193	4218
2844.061	4287
2845.927	4336
2847.794	4331
2849.66	4251
2851.525	4467
2853.39	4375
2855.254	4403
2857.117	4406
2858.983	4397
2860.845	4398
2862.707	4353
2864.569	4479
2866.431	4448
2868.293	4425
2870.154	4526
2872.013	4537
2873.873	4605
2875.733	4651
2877.592	4626
2879.451	4675
2881.309	4722
2883.166	4833
2885.022	4862
2886.879	4863
2888.736	4927
2890.591	4969
2892.446	4969
2894.301	4919
2896.155	4890
2898.009	4964
2899.863	4933
2901.716	4965
2903.568	4978
2905.419	4913
2907.27	4882
2909.123	4871
2910.973	4893
2912.824	5016
2914.673	5087
2916.521	5026
2918.372	5078
2920.22	4979
2922.067	5097
2923.914	5126
2925.761	5212
2927.607	5300
2929.455	5278
2931.301	5260
2933.144	5409
2934.99	5380
2936.833	5467
2938.678	5398
2940.522	5484
2942.364	5639
2944.207	5732
2946.048	5654
2947.891	5836
2949.731	5778
2951.571	5733
2953.412	5727
2955.25	5723
2957.09	5613
2958.93	5563
2960.767	5596
2962.606	5467
2964.443	5560
2966.279	5360
2968.116	5340
2969.953	5222
2971.788	5195
2973.623	5138
2975.457	5135
2977.292	5047
2979.127	5005
2980.959	4967
2982.792	4845
2984.624	4870
2986.455	4826
2988.288	4837
2990.119	4753
2991.949	4794
2993.779	4739
2995.608	4592
2997.439	4590
2999.268	4578
3001.096	4569
3002.923	4433
3004.751	4460
3006.578	4484
3008.406	4470
3010.232	4416
3012.057	4381
3013.883	4350
3015.706	4282
3017.532	4214
3019.356	4232
3021.179	4200
3023.002	4213
3024.823	4235
3026.646	4098
3028.469	4139
3030.289	4168
3032.11	4147
3033.93	4058
3035.749	4187
3037.57	4167
3039.39	4105
3041.207	4051
3043.026	4183
3044.842	4047
3046.661	4110
3048.477	4080
3050.294	4139
3052.109	4036
3053.925	4087
3055.739	4039
3057.555	4060
3059.368	4066
3061.181	4142
3062.995	4066
3064.807	3988
3066.62	3996
3068.433	4093
3070.243	4099
3072.054	4113
3073.865	4138
3075.675	4018
3077.485	4055
3079.293	4051
3081.102	4019
3082.911	4018
3084.719	3982
3086.527	4094
3088.333	4084
3090.139	4032
3091.945	3955
3093.75	3995
3095.557	3911
3097.361	3971
3099.165	3931
3100.969	3948
3102.772	3934
3104.575	3890
3106.379	4030
3108.181	3918
3109.982	3990
3111.783	3935
3113.584	3983
3115.386	3970
3117.186	3961
3118.985	3882
3120.783	3923
3122.582	3947
3124.381	3838
3126.179	3847
3127.975	3893
3129.772	3893
3131.569	3863
3133.365	3918
3135.161	3810
3136.956	3825
3138.751	3848
3140.544	3812
3142.338	3887
3144.132	3845
3145.925	3890
3147.717	3910
3149.509	3825
3151.301	3977
3153.091	3841
3154.884	3874
3156.673	3864
3158.462	3806
3160.252	3813
3162.041	3880
3163.831	3839
3165.618	3930
3167.405	3780
3169.193	3812
3170.979	3804
3172.767	3859
3174.553	3860
3176.338	3828
3178.123	3808
3179.907	3784
3181.692	3814
3183.477	3823
3185.259	3813
3187.042	3795
3188.824	3884
3190.607	3820
3192.389	3775
3194.17	3746
3195.951	3851
3197.73	3756
3199.51	3846
3201.289	3791
3203.07	3829
3204.848	3845
3206.626	3699
3208.403	3835
3210.18	3793
3211.959	3866
3213.735	3830
3215.511	3883
3217.285	3855
3219.06	3826
3220.836	3870
3222.611	3831
3224.384	3801
3226.158	3786
3227.929	3894
3229.702	3788
3231.476	3809
3233.248	3850
3235.018	3816
3236.789	3895
3238.56	3801
3240.33	3800
3242.1	3768
3243.869	3910
3245.637	3816
3247.405	3823
3249.172	3809
3250.941	3837
3252.707	3763
3254.474	3791
3256.24	3838
3258.006	3777
3259.772	3820
3261.537	3755
3263.301	3770
3265.065	3865
3266.828	3718
3268.592	3806
3270.355	3869
3272.117	3815
3273.878	3744
3275.64	3836
3277.401	3901
3279.162	3792
3280.922	3852
3282.682	3758
3284.441	3905
3286.199	3734
3287.959	3792
3289.716	3765
3291.475	3815
3293.232	3848
3294.988	3804
3296.744	3818
3298.501	3806
3300.256	3866
3302.011	3810
3303.766	3805
3305.52	3874
3307.275	3824
3309.028	3859
3310.781	3821
3312.533	3801
3314.285	3801
3316.038	3812
3317.789	3735
3319.54	3835
3321.289	3829
3323.039	3851
3324.789	3807
3326.539	3832
3328.288	3846
3330.035	3777
3331.783	3736
3333.531	3880
3335.28	3841
3337.025	3739
3338.771	3738
3340.518	3756
3342.262	3753
3344.009	3834
3345.753	3696
3347.497	3729
3349.24	3803
3350.983	3746
3352.726	3630
3354.469	3768
3356.212	3739
3357.952	3786
3359.694	3771
3361.434	3704
3363.176	3678
3364.916	3669
3366.654	3717
3368.394	3714
3370.132	3761
3371.871	3677
3373.61	3611
3375.346	3712
3377.083	3663
3378.82	3712
3380.556	3734
3382.292	3622
3384.027	3638
3385.763	3688
3387.497	3643
3389.231	3712
3390.965	3693
3392.698	3636
3394.431	3746
3396.164	3618
3397.896	3613
3399.627	3605
3401.36	3702
3403.09	3638
3404.82	3590
3406.55	3649
3408.279	3581
3410.01	3663
3411.738	3626
3413.467	3712
3415.194	3662
3416.92	3597
3418.647	3600
3420.375	3621
3422.102	3642
3423.827	3596
3425.553	3562
3427.277	3672
3429.003	3597
3430.727	3599
3432.451	3583
3434.173	3568
3435.896	3631
3437.62	3511
3439.343	3524
3441.063	3610
3442.785	3457
3444.505	3455
3446.226	3553
3447.948	3498
3449.666	3534
3451.386	3563
3453.104	3458
3454.823	3566
3456.541	3488
3458.259	3532
3459.976	3458
3461.693	3489
3463.408	3454
3465.125	3552
3466.841	3520
3468.556	3414
3470.271	3547
3471.985	3453
3473.698	3453
3475.414	3474
3477.126	3426
3478.838	3381
3480.55	3372
3482.263	3345
3483.975	3399
3485.686	3440
3487.396	3435
3489.106	3361
3490.817	3334
3492.526	3458
3494.236	3389
3495.944	3389
3497.652	3406
3499.359	3356
3501.066	3374
3502.775	3360
3504.481	3298
3506.187	3351
3507.893	3371
3509.598	3378
3511.304	3374
3513.009	3403
3514.713	3421
3516.417	3331
3518.12	3436
3519.821	3313
3521.525	3296
3523.228	3375
3524.929	3364
3526.631	3259
3528.33	3299
3530.032	3385
3531.733	3292
3533.433	3251
3535.131	3297
3536.83	3327
3538.529	3372
3540.227	3278
3541.925	3291
3543.623	3232
3545.319	3205
3547.016	3261
3548.712	3339
3550.408	3238
3552.103	3264
3553.798	3295
3555.491	3213
3557.188	3237
3558.88	3300
3560.574	3222
3562.266	3311
3563.959	3196
3565.651	3246
3567.343	3204
3569.035	3268
3570.725	3232
3572.415	3170
3574.106	3244
3575.797	3178
3577.485	3264
3579.174	3206
3580.863	3163
3582.551	3240
3584.238	3212
3585.926	3147
3587.613	3224
3589.3	3105
3590.986	3164
3592.671	3117
3594.357	3154
3596.042	3170
3597.726	3175
3599.41	3134
3601.094	3174
3602.778	3020
3604.461	3059
3606.143	3090
3607.825	3176
3609.507	3097
3611.188	3121
3612.87	3048
3614.551	3085
3616.229	3081
3617.909	3052
3619.589	3089
3621.269	3065
3622.948	3057
3624.625	3075
3626.302	3104
3627.98	3177
3629.657	3058
3631.334	3042
3633.01	3041
3634.686	3095
3636.361	3052
3638.036	3033
3639.712	3005
3641.385	3009
3643.06	3076
3644.732	3004
3646.405	3033
3648.08	3040
3649.751	3058
3651.424	2987
3653.094	3000
3654.766	2997
3656.436	3020
3658.106	2941
3659.777	2955
3661.446	2924
3663.115	2923
3664.783	2896
3666.452	3002
3668.121	2937
3669.788	2922
3671.454	3018
3673.121	2967
3674.789	2934
3676.455	2931
3678.12	2958
3679.784	2988
3681.45	2969
3683.114	2870
3684.779	2891
3686.442	2912
3688.105	2981
3689.768	2982
3691.43	2948
3693.093	2928
3694.754	2967
3696.415	2949
3698.076	2913
3699.736	2908
3701.396	2878
3703.057	2923
3704.716	2871
3706.375	2912
3708.034	2855
3709.692	2963
3711.351	2834
3713.008	2865
3714.665	2952
3716.321	2860
3717.977	2852
3719.634	2868
3721.29	2900
3722.945	2912
3724.598	2879
3726.253	2830
3727.907	2913
3729.561	2781
3731.214	2872
3732.867	2914
3734.518	2859
3736.171	2858
3737.824	2834
3739.474	2773
3741.125	2826
3742.775	2886
3744.425	2849
3746.074	2926
3747.725	2764
3749.373	2894
3751.022	2935
3752.669	2806
3754.318	2840
3755.966	2868
3757.612	2808
3759.259	2766
3760.905	2836
3762.55	2847
3764.197	2764
3765.842	2831
3767.486	2788
3769.131	2714
3770.774	2779
3772.417	2831
3774.061	2779
3775.705	2771
3777.347	2775
3778.988	2800
3780.629	2800
3782.271	2777
3783.912	2785
3785.552	2801
3787.192	2828
3788.831	2828
3790.472	2770
3792.112	2772
3793.75	2780
3795.388	2804
3797.024	2811
3798.661	2781
3800.3	2723
3801.936	2792
3803.572	2730
3805.208	2679
3806.844	2747
3808.48	2765
3810.115	2745
3811.748	2733
3813.382	2716
3815.016	2779
3816.649	2798
3818.283	2719
3819.914	2741
3821.547	2724
3823.178	2720
3824.809	2658
3826.441	2711
3828.072	2763
3829.701	2759
3831.331	2764
3832.96	2739
3834.591	2680
3836.219	2667
3837.847	2706
3839.475	2679
3841.102	2694
3842.729	2724
3844.357	2759
3845.984	2666
3847.609	2647
3849.234	2605
3850.86	2719
3852.485	2758
3854.11	2696
3855.734	2644
3857.357	2705
3858.981	2676
3860.603	2651
3862.227	2661
3863.848	2696
3865.471	2668
3867.092	2577
3868.713	2589
3870.334	2613
3871.954	2616
3873.575	2683
3875.194	2675
3876.813	2674
3878.433	2665
3880.051	2663
3881.669	2575
3883.286	2673
3884.904	2616
3886.52	2644
3888.138	2604
3889.754	2699
3891.37	2634
3892.985	2579
3894.6	2612
3896.216	2643
3897.831	2605
3899.444	2661
3901.058	2650
3902.67	2619
3904.283	2585
3905.897	2661
3907.509	2657
3909.121	2637
3910.731	2680
3912.342	2578
3913.954	2606
3915.563	2642
3917.174	2632
3918.783	2570
3920.391	2619
3922.002	2565
3923.611	2630
3925.218	2561
3926.826	2584
3928.432	2611
3930.039	2499
3931.647	2555
3933.253	2537
3934.859	2666
3936.464	2628
3938.068	2640
3939.675	2573
3941.278	2533
3942.883	2577
3944.486	2566
3946.089	2607
3947.692	2594
3949.295	2531
3950.898	2572
3952.499	2584
3954.1	2561
3955.7	2550
3957.303	2561
3958.903	2576
3960.502	2564
3962.101	2583
3963.7	2552
3965.301	2587
3966.899	2547
3968.497	2485
3970.094	2544
3971.691	2533
3973.288	2544
3974.885	2530
3976.481	2546
3978.077	2551
3979.672	2482
3981.267	2475
3982.863	2478
3984.457	2512
3986.051	2464
3987.645	2446
3989.238	2556
3990.831	2427
3992.425	2481
3994.017	2499
3995.607	2449
3997.199	2376
3998.79	2472
4000.382	2465
4001.973	2491
4003.561	2443
4005.151	2476
4006.741	2550
4008.331	2493
4009.918	2534
4011.507	2466
4013.095	2517
4014.681	2467
4016.269	2502
4017.856	2399
4019.443	2474
4021.028	2376
4022.614	2504
4024.199	2442
4025.785	2429
4027.37	2412
4028.953	2406
4030.536	2455
4032.12	2403
4033.704	2425
4035.287	2425
4036.869	2479
4038.45	2432
4040.032	2486
4041.613	2406
4043.195	2356
4044.776	2392
4046.356	2382
4047.935	2406
4049.515	2422
4051.095	2362
4052.674	2319
4054.251	2389
4055.829	2403
4057.406	2316
4058.985	2415
4060.562	2349
4062.139	2382
4063.715	2361
4065.29	2337
4066.865	2474
4068.442	2366
4070.016	2393
4071.59	2407
4073.164	2363
4074.738	2304
4076.312	2368
4077.885	2405
4079.458	2316
4081.03	2283
4082.602	2338
4084.173	2359
4085.745	2351
4087.315	2377
4088.886	2385
4090.456	2329
4092.026	2311
4093.596	2342
4095.165	2338
4096.734	2342
4098.301	2265
4099.869	2365
4101.437	2248
4103.006	2363
4104.572	2398
4106.139	2323
4107.704	2316
4109.27	2304
4110.837	2286
4112.401	2294
4113.966	2292
4115.53	2237
4117.094	2309
4118.659	2333
4120.223	2240
4121.785	2317
4123.347	2308
4124.909	2373
4126.471	2256
4128.034	2249
4129.595	2247
4131.155	2266
4132.716	2338
4134.275	2244
4135.836	2282
4137.395	2287
4138.955	2309
4140.513	2331
4142.071	2297
4143.628	2257
4145.188	2265
4146.745	2240
4148.302	2255
4149.858	2233
4151.414	2272
4152.971	2169
4154.526	2307
4156.081	2226
4157.635	2255
4159.189	2259
4160.745	2245
4162.298	2218
4163.852	2275
4165.405	2267
4166.957	2208
4168.51	2223
4170.063	2232
4171.614	2210
4173.166	2180
4174.717	2185
4176.267	2212
4177.817	2202
4179.368	2189
4180.917	2190
4182.466	2193
4184.016	2174
4185.564	2134
4187.112	2194
4188.66	2199
4190.207	2185
4191.754	2186
4193.301	2149
4194.848	2137
4196.394	2174
4197.94	2177
4199.484	2195
4201.03	2180
4202.575	2148
4204.12	2233
4205.663	2125
4207.207	2177
4208.75	2121
4210.292	2171
4211.836	2175
4213.378	2129
4214.92	2170
4216.46	2118
4218.002	2196
4219.544	2172
4221.083	2185
4222.625	2129
4224.164	2124
4225.703	2155
4227.244	2151
4228.782	2175
4230.32	2169
4231.857	2133
4233.395	2145
4234.933	2110
4236.471	2144
4238.007	2134
4239.542	2160
4241.078	2102
4242.614	2106
4244.15	2187
4245.685	2145
4247.219	2078
4248.753	2105
4250.287	2144
4251.82	2158
4253.354	2114
4254.887	2099
4256.419	2150
4257.951	2123
4259.483	2055
4261.016	2079
4262.547	2069
4264.078	2176
4265.608	2144
4267.137	2104
4268.668	2110
4270.197	2061
4271.727	2115
4273.254	2061
4274.783	2081
4276.311	2163
4277.84	2130
4279.366	2094
4280.894	2079
4282.42	2097
4283.946	2094
4285.473	2089
4286.998	2113
4288.523	2038
4290.047	2082
4291.572	2071
4293.096	2089
4294.622	2103
4296.144	2053
4297.668	2045
4299.19	2120
4300.713	2049
4302.236	2024
4303.758	2025
4305.279	2041
4306.799	2082
4308.321	2027
4309.842	2080
4311.361	2000
4312.882	2090
4314.401	2033
