400.0961	2440
402.6185	2430
405.1424	2389
407.6635	2397
410.1838	2433
412.7035	2405
415.2225	2511
417.7388	2450
420.2585	2514
422.7754	2548
425.2917	2517
427.8072	2604
430.3221	2554
432.8363	2619
435.3498	2582
437.8626	2602
440.3727	2576
442.8841	2625
445.3969	2577
447.907	2534
450.4142	2589
452.9229	2505
455.4289	2550
457.9362	2540
460.4449	2532
462.9488	2591
465.454	2577
467.9566	2536
470.4604	2569
472.9637	2476
475.4662	2508
477.966	2504
480.4671	2539
482.9656	2521
485.4633	2580
487.9645	2498
490.4608	2579
492.9566	2557
495.4536	2524
497.948	2489
500.4437	2565
502.9387	2561
505.431	2542
507.9226	2642
510.4136	2627
512.9079	2656
515.3975	2530
517.8864	2604
520.3746	2616
522.8622	2591
525.3491	2575
527.8394	2613
530.3249	2618
532.8098	2584
535.2939	2619
537.7774	2638
540.2623	2650
542.7444	2617
545.2259	2629
547.7067	2696
550.1868	2630
552.6683	2593
555.147	2584
557.6231	2678
560.1005	2623
562.5773	2719
565.0534	2661
567.5308	2688
570.0056	2689
572.4776	2717
574.951	2642
577.4237	2726
579.8978	2731
582.3671	2713
584.8378	2753
587.3079	2710
589.7773	2732
592.244	2754
594.714	2775
597.1793	2741
599.6461	2747
602.1121	2759
604.5754	2705
607.0421	2752
609.5042	2695
611.9675	2720
614.4282	2686
616.8902	2711
619.3515	2707
621.8122	2689
624.2702	2743
626.7296	2728
629.1863	2682
631.6423	2630
634.1017	2651
636.5563	2705
639.0104	2672
641.4658	2700
643.9185	2711
646.3725	2669
648.8239	2689
651.2766	2679
653.7266	2717
656.176	2691
658.6247	2735
661.0748	2703
663.5242	2774
665.9709	2729
668.417	2774
670.8624	2773
673.3092	2764
675.7533	2726
678.1968	2815
680.6395	2716
683.0817	2836
685.5251	2781
687.9659	2726
690.4061	2760
692.8456	2833
695.2844	2746
697.7226	2774
700.1621	2748
702.599	2774
705.0332	2801
707.4688	2827
709.9036	2768
712.3399	2854
714.7735	2776
717.2044	2772
719.6367	2803
722.0683	2811
724.4993	2858
726.9296	2856
729.3593	2772
731.7883	2909
734.2147	2884
736.6423	2832
739.0714	2853
741.4958	2870
743.9216	2934
746.3447	2905
748.7691	2905
751.1929	2896
753.616	2903
756.0366	2960
758.4584	2929
760.8776	2833
763.2982	2877
765.718	2998
768.1373	2907
770.5539	2914
772.9698	2898
775.3871	2945
777.8038	2974
780.2178	2949
782.6332	2937
785.0459	2960
787.458	2923
789.8714	2951
792.2842	2961
794.6943	2916
797.1038	3006
799.5127	2967
801.9209	2929
804.3324	2893
806.7393	3014
809.1456	2900
811.5513	3017
813.9562	3001
816.3625	3017
818.7663	2981
821.1693	3029
823.5718	2989
825.9735	2917
828.3746	2947
830.7771	2904
833.177	2983
835.5762	2972
837.9747	2962
840.3727	3036
842.772	3084
845.1666	3022
847.5626	3034
849.958	3017
852.3527	3128
854.7488	3027
857.1403	3037
859.5331	3082
861.9253	3128
864.3168	3101
866.7057	3069
869.098	3156
871.4876	3064
873.8746	3035
876.263	3080
878.6487	3071
881.0378	3014
883.4243	3076
885.8081	3037
888.1933	3113
890.5759	3052
892.9598	3043
895.343	3015
897.7256	2983
900.1057	3038
902.4871	3020
904.8659	3114
907.246	3026
909.6254	3101
912.0023	3183
914.3786	3112
916.7562	3144
919.1331	3202
921.5074	3249
923.8831	3292
926.2562	3289
928.6287	3197
931.0005	3132
933.3757	3245
935.7462	3252
938.1162	3288
940.4855	3254
942.8542	3375
945.2242	3380
947.5916	3462
949.9584	3517
952.3266	3705
954.6921	3799
957.0571	3977
959.4233	4033
961.787	4187
964.15	4162
966.5125	4039
968.8742	3869
971.2354	3755
973.5959	3539
975.9559	3465
978.3151	3290
980.6738	3311
983.0338	3236
985.3912	3188
987.7461	3195
990.1022	3169
992.4578	3150
994.8127	3137
997.1689	3179
999.5207	3244
1001.874	3205
1004.226	3245
1006.576	3186
1008.929	3194
1011.28	3214
1013.628	3219
1015.977	3218
1018.324	3213
1020.674	3178
1023.019	3244
1025.366	3206
1027.713	3205
1030.056	3213
1032.399	3211
1034.746	3265
1037.087	3224
1039.431	3336
1041.771	3296
1044.113	3269
1046.454	3261
1048.793	3301
1051.133	3264
1053.471	3254
1055.807	3306
1058.146	3347
1060.483	3335
1062.818	3357
1065.153	3443
1067.489	3293
1069.822	3313
1072.156	3306
1074.488	3360
1076.82	3343
1079.15	3343
1081.48	3326
1083.814	3228
1086.143	3318
1088.471	3300
1090.799	3200
1093.126	3228
1095.452	3223
1097.78	3262
1100.105	3240
1102.43	3321
1104.754	3260
1107.077	3306
1109.4	3236
1111.722	3345
1114.044	3185
1116.365	3263
1118.685	3260
1121.005	3230
1123.324	3310
1125.643	3265
1127.961	3328
1130.278	3326
1132.595	3323
1134.911	3295
1137.226	3293
1139.541	3319
1141.854	3250
1144.167	3198
1146.482	3258
1148.793	3305
1151.105	3261
1153.414	3310
1155.725	3259
1158.033	3239
1160.344	3313
1162.651	3235
1164.959	3253
1167.265	3224
1169.572	3274
1171.878	3270
1174.184	3274
1176.488	3252
1178.79	3273
1181.094	3352
1183.396	3268
1185.699	3208
1188.001	3293
1190.301	3294
1192.6	3299
1194.9	3300
1197.2	3221
1199.497	3278
1201.794	3294
1204.09	3210
1206.387	3280
1208.684	3263
1210.978	3308
1213.272	3283
1215.565	3354
1217.858	3313
1220.15	3290
1222.443	3288
1224.734	3306
1227.024	3353
1229.313	3280
1231.602	3334
1233.892	3388
1236.18	3397
1238.467	3309
1240.754	3448
1243.04	3404
1245.325	3431
1247.612	3440
1249.896	3516
1252.178	3446
1254.461	3443
1256.743	3414
1259.027	3488
1261.308	3409
1263.587	3450
1265.867	3449
1268.146	3437
1270.425	3438
1272.703	3550
1274.981	3444
1277.256	3431
1279.532	3444
1281.808	3420
1284.083	3384
1286.358	3416
1288.63	3442
1290.904	3462
1293.175	3357
1295.449	3412
1297.719	3399
1299.99	3342
1302.259	3393
1304.529	3370
1306.798	3386
1309.065	3329
1311.333	3385
1313.599	3417
1315.866	3419
1318.131	3354
1320.396	3371
1322.66	3303
1324.925	3429
1327.187	3360
1329.448	3390
1331.711	3404
1333.974	3478
1336.234	3440
1338.493	3349
1340.752	3379
1343.01	3402
1345.269	3412
1347.526	3377
1349.784	3347
1352.04	3413
1354.295	3333
1356.552	3318
1358.806	3358
1361.059	3362
1363.312	3397
1365.564	3431
1367.818	3378
1370.069	3431
1372.318	3470
1374.568	3408
1376.817	3426
1379.066	3418
1381.316	3428
1383.564	3488
1385.809	3454
1388.056	3526
1390.301	3511
1392.549	3471
1394.793	3474
1397.036	3547
1399.279	3456
1401.522	3477
1403.763	3555
1406.007	3545
1408.248	3622
1410.487	3543
1412.727	3607
1414.965	3568
1417.205	3471
1419.442	3527
1421.68	3506
1423.915	3476
1426.152	3510
1428.388	3543
1430.623	3502
1432.857	3458
1435.091	3551
1437.323	3531
1439.556	3569
1441.789	3634
1444.019	3591
1446.25	3556
1448.48	3650
1450.708	3587
1452.938	3587
1455.167	3627
1457.394	3651
1459.62	3601
1461.846	3652
1464.073	3616
1466.299	3529
1468.523	3573
1470.746	3568
1472.969	3567
1475.191	3486
1477.415	3522
1479.636	3468
1481.858	3404
1484.078	3413
1486.298	3511
1488.518	3412
1490.736	3346
1492.954	3459
1495.169	3422
1497.386	3365
1499.602	3369
1501.819	3379
1504.034	3377
1506.248	3318
1508.462	3430
1510.675	3402
1512.888	3321
1515.1	3427
1517.311	3364
1519.522	3392
1521.732	3338
1523.942	3351
1526.151	3355
1528.36	3423
1530.566	3372
1532.773	3387
1534.98	3424
1537.187	3331
1539.392	3350
1541.596	3475
1543.801	3403
1546.005	3416
1548.208	3326
1550.411	3372
1552.612	3461
1554.814	3433
1557.013	3476
1559.212	3435
1561.414	3425
1563.612	3415
1565.811	3532
1568.007	3369
1570.203	3568
1572.403	3487
1574.598	3507
1576.792	3549
1578.988	3495
1581.181	3488
1583.376	3524
1585.568	3474
1587.761	3464
1589.952	3498
1592.143	3535
1594.333	3551
1596.524	3571
1598.715	3587
1600.903	3489
1603.091	3504
1605.278	3538
1607.466	3469
1609.652	3540
1611.838	3503
1614.023	3538
1616.207	3524
1618.391	3551
1620.576	3594
1622.759	3593
1624.941	3551
1627.123	3626
1629.304	3599
1631.484	3528
1633.664	3623
1635.844	3636
1638.022	3682
1640.201	3660
1642.38	3646
1644.556	3581
1646.732	3664
1648.908	3579
1651.084	3646
1653.257	3591
1655.433	3640
1657.607	3606
1659.779	3625
1661.951	3540
1664.122	3660
1666.295	3605
1668.467	3674
1670.635	3594
1672.805	3619
1674.973	3718
1677.142	3640
1679.31	3683
1681.478	3604
1683.644	3719
1685.81	3651
1687.975	3595
1690.142	3727
1692.305	3542
1694.468	3609
1696.632	3566
1698.794	3625
1700.957	3500
1703.119	3608
1705.279	3549
1707.439	3531
1709.598	3526
1711.758	3557
1713.917	3557
1716.075	3505
1718.231	3572
1720.388	3473
1722.543	3516
1724.702	3522
1726.856	3481
1729.01	3542
1731.164	3505
1733.317	3416
1735.471	3509
1737.623	3393
1739.774	3466
1741.925	3487
1744.075	3459
1746.225	3471
1748.376	3536
1750.524	3579
1752.672	3437
1754.82	3519
1756.965	3532
1759.113	3623
1761.259	3482
1763.405	3511
1765.549	3543
1767.694	3503
1769.836	3631
1771.981	3600
1774.123	3562
1776.264	3530
1778.405	3541
1780.546	3507
1782.687	3530
1784.827	3565
1786.966	3551
1789.103	3514
1791.242	3621
1793.381	3563
1795.517	3608
1797.653	3577
1799.788	3545
1801.923	3611
1804.057	3652
1806.193	3475
1808.326	3517
1810.457	3653
1812.59	3584
1814.721	3524
1816.855	3553
1818.984	3632
1821.113	3591
1823.244	3549
1825.372	3520
1827.499	3624
1829.63	3584
1831.756	3508
1833.882	3551
1836.007	3563
1838.132	3551
1840.26	3518
1842.384	3539
1844.507	3570
1846.63	3528
1848.752	3514
1850.875	3543
1852.996	3501
1855.118	3584
1857.238	3518
1859.358	3557
1861.477	3519
1863.597	3502
1865.715	3516
1867.832	3442
1869.948	3540
1872.064	3469
1874.181	3548
1876.297	3567
1878.411	3546
1880.526	3590
1882.639	3455
1884.752	3547
1886.865	3509
1888.977	3556
1891.089	3595
1893.2	3522
1895.308	3540
1897.42	3585
1899.53	3634
1901.639	3541
1903.745	3615
1905.853	3550
1907.962	3531
1910.067	3504
1912.174	3534
1914.278	3509
1916.383	3587
1918.486	3628
1920.592	3621
1922.694	3612
1924.797	3620
1926.898	3671
1929	3660
1931.102	3581
1933.203	3521
1935.301	3611
1937.401	3526
1939.499	3514
1941.598	3567
1943.697	3603
1945.793	3521
1947.888	3557
1949.985	3591
1952.08	3603
1954.176	3642
1956.269	3588
1958.364	3634
1960.457	3661
1962.549	3645
1964.642	3651
1966.733	3534
1968.823	3645
1970.913	3557
1973.005	3565
1975.093	3626
1977.184	3586
1979.271	3610
1981.359	3511
1983.446	3613
1985.532	3617
1987.619	3521
1989.705	3600
1991.789	3539
1993.874	3598
1995.956	3592
1998.041	3535
2000.123	3546
2002.206	3600
2004.287	3557
2006.368	3567
2008.449	3510
2010.529	3649
2012.609	3573
2014.688	3566
2016.766	3605
2018.843	3572
2020.922	3516
2022.999	3617
2025.074	3557
2027.15	3566
2029.225	3619
2031.299	3556
2033.375	3602
2035.447	3630
2037.52	3608
2039.592	3646
2041.664	3492
2043.736	3512
2045.807	3579
2047.876	3560
2049.947	3571
2052.015	3622
2054.086	3581
2056.153	3584
2058.221	3578
2060.288	3533
2062.353	3574
2064.42	3613
2066.486	3572
2068.55	3551
2070.614	3586
2072.678	3652
2074.741	3607
2076.805	3555
2078.866	3561
2080.929	3480
2082.99	3585
2085.049	3584
2087.109	3569
2089.17	3667
2091.228	3633
2093.286	3618
2095.344	3578
2097.4	3676
2099.46	3564
2101.516	3619
2103.572	3620
2105.626	3588
2107.679	3566
2109.735	3544
2111.788	3544
2113.841	3612
2115.894	3542
2117.945	3612
2119.997	3647
2122.049	3628
2124.1	3619
2126.148	3583
2128.197	3620
2130.246	3604
2132.296	3682
2134.342	3598
2136.39	3567
2138.437	3513
2140.483	3580
2142.527	3593
2144.574	3570
2146.619	3574
2148.661	3614
2150.705	3551
2152.747	3522
2154.792	3533
2156.832	3527
2158.874	3632
2160.915	3549
2162.954	3636
2164.995	3582
2167.034	3522
2169.072	3516
2171.111	3548
2173.148	3519
2175.186	3594
2177.223	3597
2179.258	3493
2181.294	3519
2183.328	3457
2185.362	3522
2187.398	3599
2189.431	3522
2191.463	3562
2193.495	3577
2195.528	3626
2197.56	3512
2199.59	3509
2201.62	3578
2203.649	3499
2205.678	3515
2207.708	3526
2209.737	3524
2211.764	3468
2213.791	3526
2215.817	3544
2217.843	3562
2219.87	3553
2221.895	3624
2223.919	3545
2225.942	3491
2227.966	3529
2229.988	3534
2232.012	3512
2234.032	3455
2236.054	3435
2238.074	3545
2240.095	3430
2242.116	3442
2244.135	3582
2246.153	3488
2248.171	3543
2250.188	3543
2252.208	3514
2254.223	3559
2256.239	3416
2258.255	3515
2260.269	3497
2262.283	3561
2264.3	3560
2266.312	3537
2268.325	3521
2270.336	3435
2272.349	3522
2274.362	3516
2276.372	3508
2278.383	3614
2280.392	3491
2282.402	3518
2284.409	3505
2286.418	3478
2288.427	3485
2290.433	3511
2292.441	3569
2294.446	3501
2296.453	3522
2298.459	3519
2300.463	3502
2302.466	3554
2304.471	3508
2306.475	3520
2308.477	3525
2310.478	3470
2312.481	3496
2314.481	3519
2316.481	3462
2318.482	3463
2320.482	3519
2322.48	3444
2324.48	3435
2326.478	3514
2328.476	3510
2330.473	3510
2332.469	3464
2334.465	3478
2336.46	3527
2338.454	3469
2340.45	3495
2342.444	3403
2344.437	3422
2346.43	3446
2348.421	3442
2350.414	3445
2352.405	3424
2354.396	3514
2356.386	3491
2358.376	3417
2360.366	3432
2362.355	3362
2364.343	3450
2366.331	3549
2368.317	3498
2370.304	3363
2372.292	3445
2374.278	3487
2376.262	3541
2378.247	3519
2380.23	3414
2382.216	3527
2384.199	3396
2386.181	3457
2388.163	3391
2390.144	3454
2392.127	3416
2394.107	3408
2396.087	3406
2398.066	3421
2400.046	3352
2402.023	3354
2404.004	3422
2405.981	3505
2407.957	3368
2409.934	3393
2411.91	3365
2413.886	3394
2415.862	3392
2417.836	3394
2419.809	3441
2421.784	3424
2423.756	3481
2425.73	3421
2427.701	3417
2429.672	3456
2431.644	3458
2433.615	3373
2435.586	3349
2437.555	3323
2439.523	3498
2441.491	3392
2443.459	3510
2445.428	3423
2447.395	3459
2449.361	3367
2451.327	3321
2453.292	3502
2455.257	3333
2457.223	3467
2459.187	3315
2461.15	3406
2463.113	3368
2465.076	3440
2467.039	3376
2468.999	3411
2470.96	3372
2472.921	3369
2474.881	3396
2476.841	3406
2478.8	3384
2480.759	3432
2482.717	3389
2484.675	3360
2486.63	3362
2488.589	3439
2490.545	3402
2492.5	3366
2494.455	3292
2496.408	3345
2498.364	3370
2500.318	3437
2502.27	3373
2504.223	3372
2506.174	3348
2508.126	3355
2510.078	3338
2512.03	3381
2513.979	3439
2515.927	3303
2517.877	3315
2519.826	3418
2521.775	3395
2523.722	3332
2525.668	3350
2527.616	3339
2529.561	3346
2531.508	3345
2533.452	3380
2535.398	3341
2537.342	3362
2539.284	3347
2541.229	3431
2543.173	3352
2545.114	3293
2547.055	3434
2548.996	3346
2550.938	3425
2552.878	3337
2554.817	3357
2556.756	3314
2558.695	3353
2560.633	3407
2562.572	3431
2564.509	3312
2566.445	3322
2568.382	3382
2570.317	3309
2572.254	3384
2574.189	3348
2576.123	3328
2578.057	3355
2579.99	3316
2581.923	3427
2583.855	3320
2585.788	3346
2587.719	3393
2589.65	3373
2591.579	3405
2593.511	3369
2595.44	3427
2597.37	3392
2599.297	3378
2601.225	3334
2603.153	3361
2605.08	3423
2607.007	3393
2608.932	3445
2610.858	3309
2612.782	3346
2614.709	3424
2616.632	3329
2618.556	3363
2620.478	3414
2622.401	3379
2624.324	3370
2626.247	3408
2628.167	3427
2630.088	3342
2632.008	3348
2633.928	3412
2635.848	3345
2637.766	3501
2639.684	3382
2641.603	3416
2643.519	3408
2645.437	3358
2647.353	3300
2649.27	3282
2651.184	3416
2653.099	3363
2655.014	3372
2656.928	3330
2658.842	3406
2660.755	3393
2662.667	3435
2664.579	3341
2666.491	3416
2668.402	3414
2670.312	3310
2672.222	3337
2674.132	3378
2676.042	3404
2677.951	3373
2679.859	3322
2681.766	3404
2683.674	3348
2685.582	3328
2687.488	3417
2689.392	3358
2691.298	3392
2693.202	3402
2695.107	3373
2697.012	3375
2698.914	3330
2700.817	3374
2702.72	3326
2704.622	3444
2706.524	3364
2708.425	3319
2710.326	3296
2712.225	3310
2714.125	3327
2716.024	3371
2717.923	3319
2719.822	3341
2721.719	3303
2723.616	3340
2725.512	3326
2727.41	3370
2729.305	3357
2731.201	3356
2733.095	3346
2734.99	3383
2736.884	3292
2738.778	3348
2740.67	3309
2742.562	3332
2744.455	3331
2746.346	3283
2748.238	3314
2750.129	3316
2752.018	3359
2753.907	3305
2755.797	3386
2757.687	3301
2759.575	3341
2761.462	3331
2763.349	3263
2765.237	3304
2767.124	3207
2769.009	3315
2770.894	3376
2772.779	3320
2774.663	3235
2776.547	3317
2778.431	3277
2780.314	3341
2782.197	3334
2784.078	3412
2785.96	3350
2787.842	3307
2789.723	3285
2791.603	3290
2793.483	3214
2795.362	3360
2797.241	3321
2799.121	3273
2800.997	3336
2802.874	3275
2804.751	3256
2806.628	3265
2808.506	3274
2810.38	3299
2812.255	3301
2814.13	3245
2816.003	3335
2817.878	3263
2819.752	3209
2821.623	3336
2823.496	3303
2825.368	3300
2827.238	3292
2829.111	3311
2830.98	3221
2832.851	3246
2834.719	3317
2836.589	3294
2838.458	3336
2840.327	3287
2842.193	3237
2844.061	3302
2845.927	3289
2847.794	3302
2849.66	3367
2851.525	3422
2853.39	3334
2855.254	3353
2857.117	3408
2858.983	3397
2860.845	3324
2862.707	3397
2864.569	3440
2866.431	3468
2868.293	3498
2870.154	3513
2872.013	3500
2873.873	3499
2875.733	3669
2877.592	3618
2879.451	3596
2881.309	3711
2883.166	3655
2885.022	3665
2886.879	3713
2888.736	3679
2890.591	3679
2892.446	3785
2894.301	3714
2896.155	3680
2898.009	3719
2899.863	3718
2901.716	3738
2903.568	3728
2905.419	3742
2907.27	3794
2909.123	3761
2910.973	3695
2912.824	3692
2914.673	3760
2916.521	3797
2918.372	3850
2920.22	3906
2922.067	3917
2923.914	3825
2925.761	3978
2927.607	3988
2929.455	3993
2931.301	4046
2933.144	4063
2934.99	4167
2936.833	4263
2938.678	4060
2940.522	4155
2942.364	4237
2944.207	4348
2946.048	4231
2947.891	4333
2949.731	4325
2951.571	4357
2953.412	4383
2955.25	4278
2957.09	4251
2958.93	4166
2960.767	4284
2962.606	4122
2964.443	4083
2966.279	4040
2968.116	3978
2969.953	3970
2971.788	3953
2973.623	3882
2975.457	3782
2977.292	3906
2979.127	3852
2980.959	3868
2982.792	3747
2984.624	3788
2986.455	3693
2988.288	3735
2990.119	3701
2991.949	3654
2993.779	3773
2995.608	3708
2997.439	3606
2999.268	3598
3001.096	3562
3002.923	3579
3004.751	3571
3006.578	3398
3008.406	3445
3010.232	3447
3012.057	3394
3013.883	3371
3015.706	3337
3017.532	3391
3019.356	3314
3021.179	3286
3023.002	3308
3024.823	3278
3026.646	3355
3028.469	3285
3030.289	3280
3032.11	3255
3033.93	3222
3035.749	3222
3037.57	3257
3039.39	3111
3041.207	3200
3043.026	3182
3044.842	3279
3046.661	3136
3048.477	3160
3050.294	3203
3052.109	3198
3053.925	3243
3055.739	3145
3057.555	3205
3059.368	3155
3061.181	3198
3062.995	3189
3064.807	3172
3066.62	3234
3068.433	3198
3070.243	3125
3072.054	3248
3073.865	3204
3075.675	3159
3077.485	3192
3079.293	3151
3081.102	3205
3082.911	3184
3084.719	3072
3086.527	3148
3088.333	3123
3090.139	3159
3091.945	3109
3093.75	3214
3095.557	3130
3097.361	3118
3099.165	3140
3100.969	3109
3102.772	3061
3104.575	3113
3106.379	3035
3108.181	3048
3109.982	3082
3111.783	3149
3113.584	3099
3115.386	3119
3117.186	3145
3118.985	3039
3120.783	3025
3122.582	3041
3124.381	3092
3126.179	3049
3127.975	3156
3129.772	3050
3131.569	3089
3133.365	3029
3135.161	3042
3136.956	3024
3138.751	3027
3140.544	3036
3142.338	3055
3144.132	3033
3145.925	3036
3147.717	3046
3149.509	3047
3151.301	3040
3153.091	3023
3154.884	3043
3156.673	3005
3158.462	3077
3160.252	3074
3162.041	3109
3163.831	3036
3165.618	3002
3167.405	3062
3169.193	3013
3170.979	2983
3172.767	3111
3174.553	3082
3176.338	2975
3178.123	3036
3179.907	2988
3181.692	2965
3183.477	3077
3185.259	3050
3187.042	3081
3188.824	3026
3190.607	3019
3192.389	3035
3194.17	3045
3195.951	2977
3197.73	2972
3199.51	3077
3201.289	3021
3203.07	2965
3204.848	3039
3206.626	2952
3208.403	3013
3210.18	3061
3211.959	2981
3213.735	3063
3215.511	3026
3217.285	3033
3219.06	3086
3220.836	2987
3222.611	2975
3224.384	3051
3226.158	3070
3227.929	2984
3229.702	3103
3231.476	3002
3233.248	3013
3235.018	2985
3236.789	3057
3238.56	2986
3240.33	2983
3242.1	3060
3243.869	3063
3245.637	3087
3247.405	3022
3249.172	2997
3250.941	2954
3252.707	2995
3254.474	3010
3256.24	3033
3258.006	3030
3259.772	2948
3261.537	2993
3263.301	3050
3265.065	3017
3266.828	3075
3268.592	3019
3270.355	3002
3272.117	3036
3273.878	3061
3275.64	3083
3277.401	3058
3279.162	3019
3280.922	3035
3282.682	3014
3284.441	3002
3286.199	3004
3287.959	3025
3289.716	3057
3291.475	3078
3293.232	3002
3294.988	2929
3296.744	3014
3298.501	3096
3300.256	3018
3302.011	2954
3303.766	3039
3305.52	3058
3307.275	3033
3309.028	3028
3310.781	3059
3312.533	3010
3314.285	3054
3316.038	3057
3317.789	3061
3319.54	2958
3321.289	2943
3323.039	3051
3324.789	2987
3326.539	2987
3328.288	3041
3330.035	3043
3331.783	3069
3333.531	3092
3335.28	2985
3337.025	3016
3338.771	2984
3340.518	3051
3342.262	2996
3344.009	2949
3345.753	3043
3347.497	3032
3349.24	2984
3350.983	2990
3352.726	2977
3354.469	2964
3356.212	3097
3357.952	2951
3359.694	2960
3361.434	2968
3363.176	3018
3364.916	2977
3366.654	2889
3368.394	3023
3370.132	2947
3371.871	2936
3373.61	2985
3375.346	2932
3377.083	2980
3378.82	2856
3380.556	2950
3382.292	2992
3384.027	2875
3385.763	2927
3387.497	2894
3389.231	2966
3390.965	2906
3392.698	2916
3394.431	2873
3396.164	2888
3397.896	2952
3399.627	2955
3401.36	2913
3403.09	2897
3404.82	2906
3406.55	3003
3408.279	2904
3410.01	2866
3411.738	2846
3413.467	2917
3415.194	2926
3416.92	2931
3418.647	2890
3420.375	2822
3422.102	2862
3423.827	2891
3425.553	2868
3427.277	2935
3429.003	2909
3430.727	2934
3432.451	2860
3434.173	2910
3435.896	2936
3437.62	2909
3439.343	2862
3441.063	2941
3442.785	2752
3444.505	2792
3446.226	2797
3447.948	2884
3449.666	2762
3451.386	2881
3453.104	2836
3454.823	2929
3456.541	2818
3458.259	2750
3459.976	2813
3461.693	2837
3463.408	2791
3465.125	2846
3466.841	2760
3468.556	2815
3470.271	2795
3471.985	2803
3473.698	2780
3475.414	2831
3477.126	2757
3478.838	2805
3480.55	2767
3482.263	2802
3483.975	2770
3485.686	2755
3487.396	2791
3489.106	2710
3490.817	2702
3492.526	2763
3494.236	2756
3495.944	2710
3497.652	2716
3499.359	2698
3501.066	2695
3502.775	2763
3504.481	2741
3506.187	2692
3507.893	2681
3509.598	2777
3511.304	2719
3513.009	2649
3514.713	2677
3516.417	2725
3518.12	2661
3519.821	2747
3521.525	2733
3523.228	2653
3524.929	2729
3526.631	2668
3528.33	2689
3530.032	2700
3531.733	2687
3533.433	2698
3535.131	2651
3536.83	2633
3538.529	2704
3540.227	2666
3541.925	2654
3543.623	2654
3545.319	2640
3547.016	2689
3548.712	2600
3550.408	2665
3552.103	2638
3553.798	2582
3555.491	2602
3557.188	2607
3558.88	2686
3560.574	2627
3562.266	2596
3563.959	2646
3565.651	2626
3567.343	2579
3569.035	2650
3570.725	2581
3572.415	2626
3574.106	2565
3575.797	2670
3577.485	2630
3579.174	2643
3580.863	2682
3582.551	2596
3584.238	2550
3585.926	2540
3587.613	2588
3589.3	2588
3590.986	2613
3592.671	2604
3594.357	2536
3596.042	2546
3597.726	2583
3599.41	2628
3601.094	2539
3602.778	2506
3604.461	2552
3606.143	2531
3607.825	2565
3609.507	2550
3611.188	2523
3612.87	2562
3614.551	2505
3616.229	2507
3617.909	2447
3619.589	2490
3621.269	2545
3622.948	2454
3624.625	2518
3626.302	2503
3627.98	2519
3629.657	2473
3631.334	2479
3633.01	2415
3634.686	2480
3636.361	2500
3638.036	2379
3639.712	2468
3641.385	2519
3643.06	2482
3644.732	2497
3646.405	2443
3648.08	2401
3649.751	2462
3651.424	2397
3653.094	2483
3654.766	2430
3656.436	2450
3658.106	2418
3659.777	2363
3661.446	2437
3663.115	2459
3664.783	2417
3666.452	2443
3668.121	2456
3669.788	2406
3671.454	2396
3673.121	2403
3674.789	2390
3676.455	2444
3678.12	2371
3679.784	2414
3681.45	2346
3683.114	2346
3684.779	2359
3686.442	2423
3688.105	2391
3689.768	2399
3691.43	2382
3693.093	2347
3694.754	2388
3696.415	2419
3698.076	2391
3699.736	2365
3701.396	2354
3703.057	2420
3704.716	2405
3706.375	2368
3708.034	2293
3709.692	2306
3711.351	2400
3713.008	2389
3714.665	2348
3716.321	2340
3717.977	2283
3719.634	2372
3721.29	2320
3722.945	2349
3724.598	2360
3726.253	2385
3727.907	2374
3729.561	2327
3731.214	2385
3732.867	2301
3734.518	2353
3736.171	2357
3737.824	2356
3739.474	2375
3741.125	2349
3742.775	2303
3744.425	2287
3746.074	2329
3747.725	2313
3749.373	2400
3751.022	2335
3752.669	2343
3754.318	2288
3755.966	2346
3757.612	2246
3759.259	2329
3760.905	2325
3762.55	2342
3764.197	2258
3765.842	2280
3767.486	2352
3769.131	2278
3770.774	2335
3772.417	2275
3774.061	2289
3775.705	2297
3777.347	2346
3778.988	2292
3780.629	2240
3782.271	2264
3783.912	2256
3785.552	2291
3787.192	2270
3788.831	2324
3790.472	2339
3792.112	2293
3793.75	2275
3795.388	2291
3797.024	2299
3798.661	2222
3800.3	2332
3801.936	2271
3803.572	2325
3805.208	2246
3806.844	2269
3808.48	2250
3810.115	2259
3811.748	2259
3813.382	2221
3815.016	2228
3816.649	2210
3818.283	2217
3819.914	2277
3821.547	2236
3823.178	2262
3824.809	2259
3826.441	2215
3828.072	2224
3829.701	2203
3831.331	2224
3832.96	2292
3834.591	2238
3836.219	2241
3837.847	2222
3839.475	2234
3841.102	2236
3842.729	2237
3844.357	2176
3845.984	2167
3847.609	2213
3849.234	2228
3850.86	2199
3852.485	2211
3854.11	2200
3855.734	2247
3857.357	2180
3858.981	2233
3860.603	2239
3862.227	2222
3863.848	2154
3865.471	2209
3867.092	2209
3868.713	2176
3870.334	2112
3871.954	2192
3873.575	2187
3875.194	2143
3876.813	2184
3878.433	2217
3880.051	2190
3881.669	2214
3883.286	2177
3884.904	2199
3886.52	2185
3888.138	2186
3889.754	2185
3891.37	2217
3892.985	2178
3894.6	2195
3896.216	2161
3897.831	2144
3899.444	2185
3901.058	2193
3902.67	2221
3904.283	2182
3905.897	2143
3907.509	2197
3909.121	2178
3910.731	2114
3912.342	2144
3913.954	2212
3915.563	2148
3917.174	2106
3918.783	2145
3920.391	2133
3922.002	2165
3923.611	2163
3925.218	2161
3926.826	2119
3928.432	2144
3930.039	2122
3931.647	2169
3933.253	2133
3934.859	2127
3936.464	2123
3938.068	2125
3939.675	2169
3941.278	2200
3942.883	2105
3944.486	2130
3946.089	2141
3947.692	2182
3949.295	2160
3950.898	2145
3952.499	2108
3954.1	2170
3955.7	2099
3957.303	2119
3958.903	2092
3960.502	2158
3962.101	2074
3963.7	2105
3965.301	2135
3966.899	2071
3968.497	2155
3970.094	2111
3971.691	2103
3973.288	2046
3974.885	2104
3976.481	2089
3978.077	2078
3979.672	2048
3981.267	2060
3982.863	2060
3984.457	2054
3986.051	2069
3987.645	2083
3989.238	2044
3990.831	2090
3992.425	2048
3994.017	2092
3995.607	2085
3997.199	2068
3998.79	2015
4000.382	2064
4001.973	2074
4003.561	2064
4005.151	2086
4006.741	1976
4008.331	2076
4009.918	1989
4011.507	2021
4013.095	2036
4014.681	1971
4016.269	2093
4017.856	2063
4019.443	2094
4021.028	1984
4022.614	1963
4024.199	1979
4025.785	2065
4027.37	2027
4028.953	2053
4030.536	2000
4032.12	2091
4033.704	2049
4035.287	1996
4036.869	2014
4038.45	2034
4040.032	2035
4041.613	1995
4043.195	2007
4044.776	1973
4046.356	2022
4047.935	2008
4049.515	1958
4051.095	2040
4052.674	2022
4054.251	1971
4055.829	2037
4057.406	2048
4058.985	1953
4060.562	1972
4062.139	2018
4063.715	1955
4065.29	1971
4066.865	1973
4068.442	1985
4070.016	1972
4071.59	1997
4073.164	1997
4074.738	1986
4076.312	1968
4077.885	1980
4079.458	1965
4081.03	1956
4082.602	1947
4084.173	1953
4085.745	1930
4087.315	1959
4088.886	1910
4090.456	1949
4092.026	1967
4093.596	2001
4095.165	1968
4096.734	1939
4098.301	1959
4099.869	1980
4101.437	1949
4103.006	1908
4104.572	1983
4106.139	1972
4107.704	1954
4109.27	1929
4110.837	1943
4112.401	1955
4113.966	1978
4115.53	1914
4117.094	1948
4118.659	1910
4120.223	1897
4121.785	1962
4123.347	1913
4124.909	1905
4126.471	1945
4128.034	1945
4129.595	1871
4131.155	1961
4132.716	1863
4134.275	1965
4135.836	1888
4137.395	1896
4138.955	1960
4140.513	1892
4142.071	1900
4143.628	1951
4145.188	1865
4146.745	1869
4148.302	1894
4149.858	1834
4151.414	1904
4152.971	1904
4154.526	1808
4156.081	1903
4157.635	1894
4159.189	1923
4160.745	1871
4162.298	1852
4163.852	1830
4165.405	1809
4166.957	1886
4168.51	1840
4170.063	1889
4171.614	1826
4173.166	1881
4174.717	1855
4176.267	1840
4177.817	1808
4179.368	1860
4180.917	1889
4182.466	1873
4184.016	1838
4185.564	1810
4187.112	1854
4188.66	1851
4190.207	1836
4191.754	1881
4193.301	1830
4194.848	1812
4196.394	1817
4197.94	1817
4199.484	1842
4201.03	1828
4202.575	1809
4204.12	1821
4205.663	1791
4207.207	1869
4208.75	1798
4210.292	1836
4211.836	1832
4213.378	1852
4214.92	1827
4216.46	1810
4218.002	1798
4219.544	1819
4221.083	1793
4222.625	1834
4224.164	1837
4225.703	1836
4227.244	1799
4228.782	1789
4230.32	1775
4231.857	1836
4233.395	1779
4234.933	1870
4236.471	1748
4238.007	1827
4239.542	1829
4241.078	1856
4242.614	1785
4244.15	1815
4245.685	1753
4247.219	1757
4248.753	1786
4250.287	1836
4251.82	1742
4253.354	1778
4254.887	1769
4256.419	1746
4257.951	1817
4259.483	1761
4261.016	1779
4262.547	1817
4264.078	1775
4265.608	1791
4267.137	1817
4268.668	1760
4270.197	1772
4271.727	1773
4273.254	1832
4274.783	1776
4276.311	1808
4277.84	1780
4279.366	1767
4280.894	1765
4282.42	1780
4283.946	1809
4285.473	1736
4286.998	1815
4288.523	1785
4290.047	1751
4291.572	1780
4293.096	1793
4294.622	1767
4296.144	1745
4297.668	1791
4299.19	1765
4300.713	1695
4302.236	1768
4303.758	1709
4305.279	1713
4306.799	1752
4308.321	1723
4309.842	1735
4311.361	1786
4312.882	1709
4314.401	1709
