400.0961	2610
402.6185	2558
405.1424	2600
407.6635	2546
410.1838	2581
412.7035	2640
415.2225	2592
417.7388	2696
420.2585	2642
422.7754	2740
425.2917	2699
427.8072	2694
430.3221	2743
432.8363	2825
435.3498	2854
437.8626	2805
440.3727	2767
442.8841	2822
445.3969	2772
447.907	2825
450.4142	2734
452.9229	2767
455.4289	2754
457.9362	2770
460.4449	2739
462.9488	2687
465.454	2807
467.9566	2774
470.4604	2758
472.9637	2753
475.4662	2712
477.966	2763
480.4671	2724
482.9656	2788
485.4633	2692
487.9645	2766
490.4608	2739
492.9566	2717
495.4536	2843
497.948	2764
500.4437	2769
502.9387	2791
505.431	2817
507.9226	2750
510.4136	2835
512.9079	2831
515.3975	2863
517.8864	2817
520.3746	2861
522.8622	2811
525.3491	2885
527.8394	2782
530.3249	2787
532.8098	2849
535.2939	2845
537.7774	2861
540.2623	2826
542.7444	2807
545.2259	2811
547.7067	2831
550.1868	2863
552.6683	2899
555.147	2809
557.6231	2852
560.1005	2891
562.5773	2908
565.0534	2826
567.5308	2813
570.0056	2902
572.4776	2886
574.951	2894
577.4237	2905
579.8978	2923
582.3671	2957
584.8378	2983
587.3079	2902
589.7773	3039
592.244	3017
594.714	2991
597.1793	2966
599.6461	2943
602.1121	2986
604.5754	2880
607.0421	2934
609.5042	2781
611.9675	2917
614.4282	2957
616.8902	2941
619.3515	2899
621.8122	2964
624.2702	2938
626.7296	2887
629.1863	2895
631.6423	2927
634.1017	2906
636.5563	2833
639.0104	2922
641.4658	2903
643.9185	2901
646.3725	2900
648.8239	2930
651.2766	2956
653.7266	2947
656.176	2996
658.6247	2904
661.0748	2886
663.5242	2976
665.9709	2975
668.417	2970
670.8624	2921
673.3092	2941
675.7533	2898
678.1968	3026
680.6395	2949
683.0817	3006
685.5251	2993
687.9659	3064
690.4061	3042
692.8456	2977
695.2844	2962
697.7226	3006
700.1621	2973
702.599	2953
705.0332	2995
707.4688	3022
709.9036	3079
712.3399	3022
714.7735	3007
717.2044	2980
719.6367	3046
722.0683	3046
724.4993	3046
726.9296	3111
729.3593	3082
731.7883	3111
734.2147	3070
736.6423	3067
739.0714	3154
741.4958	3149
743.9216	3141
746.3447	3115
748.7691	3104
751.1929	3162
753.616	3138
756.0366	3161
758.4584	3174
760.8776	3129
763.2982	3153
765.718	3153
768.1373	3208
770.5539	3242
772.9698	3150
775.3871	3136
777.8038	3153
780.2178	3218
782.6332	3192
785.0459	3201
787.458	3227
789.8714	3288
792.2842	3169
794.6943	3211
797.1038	3091
799.5127	3223
801.9209	3221
804.3324	3243
806.7393	3197
809.1456	3226
811.5513	3259
813.9562	3273
816.3625	3274
818.7663	3267
821.1693	3226
823.5718	3247
825.9735	3237
828.3746	3261
830.7771	3295
833.177	3306
835.5762	3295
837.9747	3263
840.3727	3211
842.772	3265
845.1666	3289
847.5626	3333
849.958	3308
852.3527	3331
854.7488	3309
857.1403	3374
859.5331	3370
861.9253	3395
864.3168	3306
866.7057	3301
869.098	3323
871.4876	3341
873.8746	3257
876.263	3372
878.6487	3295
881.0378	3303
883.4243	3277
885.8081	3292
888.1933	3215
890.5759	3357
892.9598	3286
895.343	3410
897.7256	3331
900.1057	3367
902.4871	3306
904.8659	3333
907.246	3389
909.6254	3285
912.0023	3409
914.3786	3409
916.7562	3478
919.1331	3415
921.5074	3487
923.8831	3554
926.2562	3518
928.6287	3509
931.0005	3540
933.3757	3459
935.7462	3547
938.1162	3461
940.4855	3619
942.8542	3635
945.2242	3650
947.5916	3776
949.9584	3862
952.3266	3971
954.6921	4211
957.0571	4369
959.4233	4520
961.787	4533
964.15	4541
966.5125	4433
968.8742	4211
971.2354	3948
973.5959	3846
975.9559	3745
978.3151	3639
980.6738	3534
983.0338	3487
985.3912	3523
987.7461	3543
990.1022	3483
992.4578	3443
994.8127	3471
997.1689	3461
999.5207	3465
1001.874	3520
1004.226	3532
1006.576	3435
1008.929	3485
1011.28	3498
1013.628	3437
1015.977	3468
1018.324	3495
1020.674	3415
1023.019	3487
1025.366	3531
1027.713	3534
1030.056	3594
1032.399	3545
1034.746	3494
1037.087	3488
1039.431	3482
1041.771	3526
1044.113	3537
1046.454	3607
1048.793	3570
1051.133	3550
1053.471	3483
1055.807	3556
1058.146	3566
1060.483	3604
1062.818	3623
1065.153	3567
1067.489	3589
1069.822	3617
1072.156	3639
1074.488	3573
1076.82	3623
1079.15	3642
1081.48	3557
1083.814	3655
1086.143	3567
1088.471	3559
1090.799	3500
1093.126	3626
1095.452	3548
1097.78	3524
1100.105	3444
1102.43	3544
1104.754	3508
1107.077	3519
1109.4	3588
1111.722	3505
1114.044	3506
1116.365	3553
1118.685	3500
1121.005	3551
1123.324	3581
1125.643	3557
1127.961	3557
1130.278	3541
1132.595	3559
1134.911	3525
1137.226	3574
1139.541	3558
1141.854	3546
1144.167	3588
1146.482	3538
1148.793	3486
1151.105	3511
1153.414	3503
1155.725	3601
1158.033	3518
1160.344	3584
1162.651	3596
1164.959	3461
1167.265	3511
1169.572	3595
1171.878	3567
1174.184	3497
1176.488	3511
1178.79	3556
1181.094	3539
1183.396	3545
1185.699	3600
1188.001	3569
1190.301	3550
1192.6	3606
1194.9	3560
1197.2	3534
1199.497	3553
1201.794	3509
1204.09	3585
1206.387	3562
1208.684	3577
1210.978	3497
1213.272	3657
1215.565	3513
1217.858	3602
1220.15	3577
1222.443	3544
1224.734	3576
1227.024	3636
1229.313	3629
1231.602	3596
1233.892	3661
1236.18	3674
1238.467	3702
1240.754	3672
1243.04	3636
1245.325	3722
1247.612	3701
1249.896	3715
1252.178	3739
1254.461	3729
1256.743	3683
1259.027	3706
1261.308	3748
1263.587	3742
1265.867	3820
1268.146	3700
1270.425	3725
1272.703	3768
1274.981	3740
1277.256	3702
1279.532	3756
1281.808	3709
1284.083	3701
1286.358	3735
1288.63	3675
1290.904	3617
1293.175	3577
1295.449	3655
1297.719	3685
1299.99	3650
1302.259	3661
1304.529	3651
1306.798	3709
1309.065	3660
1311.333	3628
1313.599	3640
1315.866	3686
1318.131	3747
1320.396	3650
1322.66	3656
1324.925	3631
1327.187	3738
1329.448	3657
1331.711	3668
1333.974	3724
1336.234	3666
1338.493	3734
1340.752	3632
1343.01	3649
1345.269	3712
1347.526	3646
1349.784	3587
1352.04	3645
1354.295	3657
1356.552	3704
1358.806	3627
1361.059	3638
1363.312	3543
1365.564	3592
1367.818	3678
1370.069	3671
1372.318	3559
1374.568	3617
1376.817	3682
1379.066	3662
1381.316	3646
1383.564	3686
1385.809	3741
1388.056	3719
1390.301	3761
1392.549	3752
1394.793	3778
1397.036	3816
1399.279	3825
1401.522	3856
1403.763	3850
1406.007	3766
1408.248	3807
1410.487	3836
1412.727	3779
1414.965	3852
1417.205	3809
1419.442	3704
1421.68	3832
1423.915	3777
1426.152	3794
1428.388	3885
1430.623	3813
1432.857	3859
1435.091	3758
1437.323	3890
1439.556	3800
1441.789	3830
1444.019	3807
1446.25	3899
1448.48	3831
1450.708	3826
1452.938	3928
1455.167	4013
1457.394	3924
1459.62	3929
1461.846	3844
1464.073	3897
1466.299	3813
1468.523	3879
1470.746	3806
1472.969	3864
1475.191	3782
1477.415	3754
1479.636	3808
1481.858	3756
1484.078	3687
1486.298	3701
1488.518	3704
1490.736	3690
1492.954	3678
1495.169	3715
1497.386	3628
1499.602	3641
1501.819	3661
1504.034	3670
1506.248	3672
1508.462	3699
1510.675	3626
1512.888	3735
1515.1	3684
1517.311	3674
1519.522	3661
1521.732	3639
1523.942	3745
1526.151	3613
1528.36	3660
1530.566	3671
1532.773	3649
1534.98	3757
1537.187	3701
1539.392	3686
1541.596	3610
1543.801	3665
1546.005	3696
1548.208	3683
1550.411	3782
1552.612	3698
1554.814	3723
1557.013	3675
1559.212	3740
1561.414	3814
1563.612	3840
1565.811	3775
1568.007	3789
1570.203	3837
1572.403	3631
1574.598	3775
1576.792	3737
1578.988	3765
1581.181	3802
1583.376	3821
1585.568	3883
1587.761	3758
1589.952	3691
1592.143	3760
1594.333	3691
1596.524	3712
1598.715	3805
1600.903	3749
1603.091	3796
1605.278	3822
1607.466	3694
1609.652	3792
1611.838	3810
1614.023	3798
1616.207	3835
1618.391	3772
1620.576	3891
1622.759	3833
1624.941	3876
1627.123	3912
1629.304	3859
1631.484	3923
1633.664	3796
1635.844	3876
1638.022	3879
1640.201	3874
1642.38	3906
1644.556	3929
1646.732	3850
1648.908	3876
1651.084	3810
1653.257	3897
1655.433	3804
1657.607	3887
1659.779	3894
1661.951	3876
1664.122	3950
1666.295	3931
1668.467	3915
1670.635	3910
1672.805	3973
1674.973	3890
1677.142	3909
1679.31	3941
1681.478	3957
1683.644	3840
1685.81	3855
1687.975	3934
1690.142	3893
1692.305	3904
1694.468	3817
1696.632	3873
1698.794	3938
1700.957	3875
1703.119	3833
1705.279	3700
1707.439	3808
1709.598	3835
1711.758	3781
1713.917	3834
1716.075	3857
1718.231	3838
1720.388	3719
1722.543	3828
1724.702	3812
1726.856	3836
1729.01	3772
1731.164	3768
1733.317	3853
1735.471	3852
1737.623	3769
1739.774	3867
1741.925	3809
1744.075	3758
1746.225	3778
1748.376	3801
1750.524	3823
1752.672	3892
1754.82	3759
1756.965	3796
1759.113	3720
1761.259	3764
1763.405	3783
1765.549	3863
1767.694	3848
1769.836	3892
1771.981	3859
1774.123	3774
1776.264	3802
1778.405	3825
1780.546	3781
1782.687	3781
1784.827	3878
1786.966	3865
1789.103	3849
1791.242	3803
1793.381	3835
1795.517	3883
1797.653	3745
1799.788	3872
1801.923	3910
1804.057	3864
1806.193	3856
1808.326	3832
1810.457	3904
1812.59	3807
1814.721	3835
1816.855	3775
1818.984	3797
1821.113	3762
1823.244	3866
1825.372	3832
1827.499	3811
1829.63	3835
1831.756	3908
1833.882	3922
1836.007	3889
1838.132	3855
1840.26	3943
1842.384	3810
1844.507	3820
1846.63	3852
1848.752	3959
1850.875	3792
1852.996	3801
1855.118	3871
1857.238	3900
1859.358	3777
1861.477	3806
1863.597	3828
1865.715	3816
1867.832	3856
1869.948	3775
1872.064	3769
1874.181	3765
1876.297	3797
1878.411	3793
1880.526	3767
1882.639	3834
1884.752	3790
1886.865	3812
1888.977	3787
1891.089	3870
1893.2	3796
1895.308	3768
1897.42	3773
1899.53	3854
1901.639	3874
1903.745	3823
1905.853	3839
1907.962	3854
1910.067	3763
1912.174	3848
1914.278	3945
1916.383	3913
1918.486	3862
1920.592	3811
1922.694	3824
1924.797	3852
1926.898	3918
1929	3944
1931.102	3871
1933.203	3833
1935.301	3874
1937.401	3778
1939.499	3809
1941.598	3859
1943.697	3921
1945.793	3873
1947.888	3923
1949.985	3892
1952.08	3955
1954.176	3876
1956.269	3978
1958.364	3878
1960.457	3882
1962.549	3891
1964.642	3906
1966.733	3866
1968.823	3874
1970.913	3897
1973.005	3917
1975.093	3872
1977.184	3775
1979.271	3874
1981.359	3839
1983.446	3808
1985.532	3754
1987.619	3772
1989.705	3889
1991.789	3928
1993.874	3848
1995.956	3925
1998.041	3861
2000.123	3781
2002.206	3854
2004.287	3880
2006.368	3838
2008.449	3864
2010.529	3877
2012.609	3857
2014.688	3834
2016.766	3782
2018.843	3791
2020.922	3827
2022.999	3869
2025.074	3907
2027.15	3896
2029.225	3911
2031.299	3848
2033.375	3955
2035.447	3812
2037.52	3806
2039.592	3840
2041.664	3758
2043.736	3821
2045.807	3896
2047.876	3846
2049.947	3889
2052.015	3822
2054.086	3936
2056.153	3831
2058.221	3813
2060.288	3929
2062.353	3801
2064.42	3844
2066.486	3879
2068.55	3836
2070.614	3864
2072.678	3776
2074.741	3851
2076.805	3844
2078.866	3752
2080.929	3838
2082.99	3868
2085.049	3791
2087.109	3886
2089.17	3884
2091.228	3865
2093.286	3902
2095.344	3844
2097.4	3851
2099.46	3836
2101.516	3820
2103.572	3855
2105.626	3891
2107.679	3813
2109.735	3849
2111.788	3861
2113.841	3906
2115.894	3831
2117.945	3771
2119.997	3805
2122.049	3893
2124.1	3903
2126.148	3781
2128.197	3804
2130.246	3805
2132.296	3870
2134.342	3789
2136.39	3774
2138.437	3802
2140.483	3782
2142.527	3836
2144.574	3859
2146.619	3840
2148.661	3866
2150.705	3828
2152.747	3836
2154.792	3842
2156.832	3890
2158.874	3813
2160.915	3773
2162.954	3812
2164.995	3843
2167.034	3871
2169.072	3769
2171.111	3853
2173.148	3800
2175.186	3822
2177.223	3806
2179.258	3774
2181.294	3844
2183.328	3828
2185.362	3890
2187.398	3805
2189.431	3756
2191.463	3702
2193.495	3767
2195.528	3756
2197.56	3753
2199.59	3785
2201.62	3745
2203.649	3738
2205.678	3758
2207.708	3712
2209.737	3753
2211.764	3690
2213.791	3708
2215.817	3699
2217.843	3812
2219.87	3708
2221.895	3718
2223.919	3796
2225.942	3856
2227.966	3715
2229.988	3825
2232.012	3711
2234.032	3747
2236.054	3711
2238.074	3692
2240.095	3865
2242.116	3696
2244.135	3823
2246.153	3801
2248.171	3697
2250.188	3690
2252.208	3730
2254.223	3808
2256.239	3735
2258.255	3782
2260.269	3718
2262.283	3801
2264.3	3735
2266.312	3726
2268.325	3701
2270.336	3766
2272.349	3814
2274.362	3714
2276.372	3748
2278.383	3794
2280.392	3764
2282.402	3807
2284.409	3739
2286.418	3788
2288.427	3754
2290.433	3742
2292.441	3820
2294.446	3766
2296.453	3747
2298.459	3818
2300.463	3762
2302.466	3787
2304.471	3723
2306.475	3739
2308.477	3761
2310.478	3769
2312.481	3760
2314.481	3783
2316.481	3727
2318.482	3676
2320.482	3726
2322.48	3743
2324.48	3665
2326.478	3745
2328.476	3682
2330.473	3747
2332.469	3699
2334.465	3753
2336.46	3757
2338.454	3676
2340.45	3736
2342.444	3694
2344.437	3698
2346.43	3630
2348.421	3773
2350.414	3665
2352.405	3673
2354.396	3680
2356.386	3644
2358.376	3667
2360.366	3687
2362.355	3693
2364.343	3610
2366.331	3582
2368.317	3673
2370.304	3582
2372.292	3622
2374.278	3699
2376.262	3661
2378.247	3626
2380.23	3684
2382.216	3626
2384.199	3748
2386.181	3721
2388.163	3700
2390.144	3716
2392.127	3672
2394.107	3650
2396.087	3642
2398.066	3644
2400.046	3620
2402.023	3595
2404.004	3612
2405.981	3563
2407.957	3645
2409.934	3631
2411.91	3665
2413.886	3610
2415.862	3641
2417.836	3577
2419.809	3601
2421.784	3635
2423.756	3660
2425.73	3635
2427.701	3703
2429.672	3673
2431.644	3623
2433.615	3684
2435.586	3660
2437.555	3606
2439.523	3644
2441.491	3592
2443.459	3694
2445.428	3656
2447.395	3635
2449.361	3639
2451.327	3547
2453.292	3719
2455.257	3612
2457.223	3703
2459.187	3642
2461.15	3592
2463.113	3639
2465.076	3678
2467.039	3566
2468.999	3587
2470.96	3587
2472.921	3563
2474.881	3608
2476.841	3612
2478.8	3594
2480.759	3601
2482.717	3610
2484.675	3571
2486.63	3543
2488.589	3611
2490.545	3572
2492.5	3618
2494.455	3618
2496.408	3547
2498.364	3612
2500.318	3585
2502.27	3560
2504.223	3509
2506.174	3537
2508.126	3646
2510.078	3536
2512.03	3590
2513.979	3686
2515.927	3543
2517.877	3555
2519.826	3636
2521.775	3611
2523.722	3562
2525.668	3556
2527.616	3561
2529.561	3612
2531.508	3608
2533.452	3516
2535.398	3506
2537.342	3599
2539.284	3559
2541.229	3699
2543.173	3556
2545.114	3515
2547.055	3585
2548.996	3562
2550.938	3532
2552.878	3594
2554.817	3548
2556.756	3543
2558.695	3637
2560.633	3535
2562.572	3592
2564.509	3568
2566.445	3619
2568.382	3602
2570.317	3614
2572.254	3613
2574.189	3565
2576.123	3591
2578.057	3616
2579.99	3600
2581.923	3576
2583.855	3606
2585.788	3543
2587.719	3512
2589.65	3581
2591.579	3560
2593.511	3613
2595.44	3678
2597.37	3463
2599.297	3536
2601.225	3606
2603.153	3555
2605.08	3521
2607.007	3665
2608.932	3603
2610.858	3617
2612.782	3513
2614.709	3687
2616.632	3592
2618.556	3616
2620.478	3545
2622.401	3594
2624.324	3501
2626.247	3579
2628.167	3583
2630.088	3578
2632.008	3645
2633.928	3590
2635.848	3661
2637.766	3634
2639.684	3571
2641.603	3610
2643.519	3575
2645.437	3632
2647.353	3578
2649.27	3588
2651.184	3605
2653.099	3691
2655.014	3511
2656.928	3510
2658.842	3562
2660.755	3646
2662.667	3562
2664.579	3607
2666.491	3645
2668.402	3573
2670.312	3625
2672.222	3559
2674.132	3595
2676.042	3507
2677.951	3524
2679.859	3595
2681.766	3511
2683.674	3550
2685.582	3551
2687.488	3595
2689.392	3538
2691.298	3587
2693.202	3541
2695.107	3645
2697.012	3493
2698.914	3578
2700.817	3627
2702.72	3560
2704.622	3497
2706.524	3558
2708.425	3561
2710.326	3560
2712.225	3524
2714.125	3573
2716.024	3482
2717.923	3496
2719.822	3537
2721.719	3504
2723.616	3480
2725.512	3538
2727.41	3514
2729.305	3548
2731.201	3500
2733.095	3487
2734.99	3567
2736.884	3497
2738.778	3563
2740.67	3478
2742.562	3521
2744.455	3440
2746.346	3526
2748.238	3512
2750.129	3509
2752.018	3536
2753.907	3464
2755.797	3448
2757.687	3466
2759.575	3547
2761.462	3519
2763.349	3433
2765.237	3506
2767.124	3524
2769.009	3431
2770.894	3418
2772.779	3494
2774.663	3451
2776.547	3482
2778.431	3438
2780.314	3563
2782.197	3478
2784.078	3449
2785.96	3479
2787.842	3440
2789.723	3532
2791.603	3495
2793.483	3507
2795.362	3495
2797.241	3509
2799.121	3496
2800.997	3457
2802.874	3484
2804.751	3497
2806.628	3518
2808.506	3544
2810.38	3458
2812.255	3503
2814.13	3443
2816.003	3456
2817.878	3406
2819.752	3445
2821.623	3544
2823.496	3503
2825.368	3511
2827.238	3445
2829.111	3577
2830.98	3563
2832.851	3469
2834.719	3463
2836.589	3490
2838.458	3469
2840.327	3516
2842.193	3485
2844.061	3454
2845.927	3522
2847.794	3488
2849.66	3487
2851.525	3572
2853.39	3576
2855.254	3576
2857.117	3577
2858.983	3566
2860.845	3518
2862.707	3602
2864.569	3596
2866.431	3558
2868.293	3647
2870.154	3591
2872.013	3694
2873.873	3659
2875.733	3628
2877.592	3768
2879.451	3635
2881.309	3854
2883.166	3881
2885.022	3824
2886.879	3831
2888.736	3932
2890.591	3900
2892.446	3867
2894.301	3910
2896.155	3966
2898.009	3894
2899.863	3833
2901.716	3813
2903.568	3929
2905.419	3856
2907.27	3848
2909.123	3886
2910.973	3802
2912.824	3951
2914.673	3936
2916.521	3866
2918.372	3956
2920.22	4043
2922.067	4064
2923.914	4064
2925.761	4095
2927.607	4035
2929.455	4201
2931.301	4217
2933.144	4152
2934.99	4172
2936.833	4199
2938.678	4227
2940.522	4285
2942.364	4421
2944.207	4438
2946.048	4476
2947.891	4503
2949.731	4560
2951.571	4496
2953.412	4492
2955.25	4403
2957.09	4385
2958.93	4287
2960.767	4345
2962.606	4319
2964.443	4235
2966.279	4259
2968.116	4272
2969.953	4122
2971.788	4095
2973.623	3990
2975.457	3915
2977.292	4021
2979.127	3971
2980.959	3900
2982.792	3919
2984.624	3885
2986.455	3825
2988.288	3889
2990.119	3847
2991.949	3778
2993.779	3823
2995.608	3758
2997.439	3667
2999.268	3665
3001.096	3676
3002.923	3585
3004.751	3658
3006.578	3579
3008.406	3603
3010.232	3464
3012.057	3578
3013.883	3459
3015.706	3497
3017.532	3415
3019.356	3408
3021.179	3436
3023.002	3446
3024.823	3418
3026.646	3349
3028.469	3404
3030.289	3454
3032.11	3357
3033.93	3363
3035.749	3381
3037.57	3310
3039.39	3384
3041.207	3388
3043.026	3393
3044.842	3359
3046.661	3332
3048.477	3314
3050.294	3319
3052.109	3371
3053.925	3361
3055.739	3303
3057.555	3379
3059.368	3325
3061.181	3245
3062.995	3267
3064.807	3305
3066.62	3325
3068.433	3364
3070.243	3273
3072.054	3318
3073.865	3258
3075.675	3325
3077.485	3264
3079.293	3307
3081.102	3314
3082.911	3270
3084.719	3308
3086.527	3314
3088.333	3264
3090.139	3271
3091.945	3227
3093.75	3325
3095.557	3253
3097.361	3227
3099.165	3231
3100.969	3229
3102.772	3267
3104.575	3303
3106.379	3214
3108.181	3206
3109.982	3195
3111.783	3161
3113.584	3212
3115.386	3188
3117.186	3187
3118.985	3227
3120.783	3165
3122.582	3243
3124.381	3129
3126.179	3231
3127.975	3225
3129.772	3175
3131.569	3169
3133.365	3259
3135.161	3250
3136.956	3171
3138.751	3202
3140.544	3274
3142.338	3200
3144.132	3224
3145.925	3188
3147.717	3130
3149.509	3144
3151.301	3109
3153.091	3201
3154.884	3150
3156.673	3168
3158.462	3139
3160.252	3187
3162.041	3149
3163.831	3098
3165.618	3142
3167.405	3158
3169.193	3175
3170.979	3183
3172.767	3081
3174.553	3126
3176.338	3166
3178.123	3231
3179.907	3234
3181.692	3108
3183.477	3094
3185.259	3174
3187.042	3134
3188.824	3144
3190.607	3125
3192.389	3113
3194.17	3110
3195.951	3208
3197.73	3106
3199.51	3151
3201.289	3172
3203.07	3203
3204.848	3137
3206.626	3166
3208.403	3101
3210.18	3105
3211.959	3134
3213.735	3086
3215.511	3165
3217.285	3245
3219.06	3078
3220.836	3146
3222.611	3092
3224.384	3123
3226.158	3168
3227.929	3216
3229.702	3104
3231.476	3194
3233.248	3156
3235.018	3126
3236.789	3071
3238.56	3177
3240.33	3114
3242.1	3151
3243.869	3122
3245.637	3097
3247.405	3168
3249.172	3127
3250.941	3134
3252.707	3059
3254.474	3134
3256.24	3162
3258.006	3159
3259.772	3108
3261.537	3085
3263.301	3161
3265.065	3203
3266.828	3059
3268.592	3077
3270.355	3127
3272.117	3095
3273.878	3146
3275.64	3169
3277.401	3135
3279.162	3162
3280.922	3125
3282.682	3105
3284.441	3199
3286.199	3111
3287.959	3183
3289.716	3062
3291.475	3128
3293.232	3071
3294.988	3156
3296.744	3157
3298.501	3204
3300.256	3080
3302.011	3037
3303.766	3092
3305.52	3157
3307.275	3177
3309.028	3123
3310.781	3121
3312.533	3155
3314.285	3103
3316.038	3106
3317.789	3146
3319.54	3089
3321.289	3122
3323.039	3161
3324.789	3239
3326.539	3108
3328.288	3151
3330.035	3109
3331.783	3149
3333.531	3078
3335.28	3167
3337.025	3057
3338.771	3116
3340.518	3100
3342.262	3111
3344.009	3131
3345.753	3122
3347.497	3163
3349.24	3159
3350.983	3046
3352.726	3138
3354.469	3035
3356.212	3083
3357.952	3067
3359.694	3134
3361.434	3054
3363.176	3042
3364.916	3068
3366.654	3043
3368.394	3147
3370.132	3085
3371.871	3025
3373.61	3058
3375.346	3073
3377.083	3068
3378.82	2976
3380.556	3014
3382.292	2977
3384.027	2975
3385.763	3068
3387.497	2986
3389.231	3095
3390.965	3084
3392.698	2987
3394.431	3032
3396.164	2997
3397.896	3050
3399.627	3013
3401.36	3031
3403.09	3011
3404.82	3022
3406.55	2903
3408.279	2956
3410.01	3002
3411.738	2929
3413.467	2950
3415.194	2932
3416.92	2912
3418.647	2928
3420.375	2990
3422.102	2922
3423.827	2989
3425.553	3043
3427.277	2996
3429.003	3008
3430.727	2975
3432.451	2938
3434.173	2903
3435.896	2976
3437.62	2941
3439.343	2996
3441.063	2951
3442.785	2841
3444.505	2945
3446.226	2881
3447.948	2886
3449.666	2953
3451.386	2902
3453.104	2951
3454.823	2885
3456.541	2880
3458.259	2818
3459.976	2898
3461.693	2882
3463.408	2964
3465.125	2844
3466.841	2830
3468.556	2908
3470.271	2903
3471.985	2949
3473.698	2864
3475.414	2883
3477.126	2789
3478.838	2838
3480.55	2834
3482.263	2852
3483.975	2811
3485.686	2847
3487.396	2848
3489.106	2826
3490.817	2748
3492.526	2792
3494.236	2790
3495.944	2775
3497.652	2787
3499.359	2859
3501.066	2812
3502.775	2826
3504.481	2722
3506.187	2742
3507.893	2806
3509.598	2793
3511.304	2835
3513.009	2762
3514.713	2840
3516.417	2721
3518.12	2763
3519.821	2851
3521.525	2796
3523.228	2787
3524.929	2800
3526.631	2739
3528.33	2720
3530.032	2752
3531.733	2710
3533.433	2760
3535.131	2730
3536.83	2786
3538.529	2695
3540.227	2730
3541.925	2731
3543.623	2790
3545.319	2709
3547.016	2718
3548.712	2756
3550.408	2722
3552.103	2735
3553.798	2752
3555.491	2738
3557.188	2701
3558.88	2727
3560.574	2670
3562.266	2718
3563.959	2739
3565.651	2600
3567.343	2630
3569.035	2667
3570.725	2679
3572.415	2704
3574.106	2676
3575.797	2658
3577.485	2649
3579.174	2665
3580.863	2665
3582.551	2713
3584.238	2538
3585.926	2665
3587.613	2631
3589.3	2524
3590.986	2642
3592.671	2638
3594.357	2639
3596.042	2708
3597.726	2593
3599.41	2572
3601.094	2586
3602.778	2593
3604.461	2610
3606.143	2590
3607.825	2607
3609.507	2567
3611.188	2527
3612.87	2535
3614.551	2581
3616.229	2598
3617.909	2520
3619.589	2585
3621.269	2573
3622.948	2564
3624.625	2549
3626.302	2638
3627.98	2511
3629.657	2530
3631.334	2562
3633.01	2544
3634.686	2579
3636.361	2495
3638.036	2526
3639.712	2454
3641.385	2553
3643.06	2498
3644.732	2472
3646.405	2456
3648.08	2514
3649.751	2530
3651.424	2525
3653.094	2435
3654.766	2480
3656.436	2494
3658.106	2484
3659.777	2466
3661.446	2532
3663.115	2475
3664.783	2461
3666.452	2529
3668.121	2528
3669.788	2528
3671.454	2417
3673.121	2460
3674.789	2491
3676.455	2464
3678.12	2456
3679.784	2412
3681.45	2383
3683.114	2484
3684.779	2488
3686.442	2495
3688.105	2508
3689.768	2407
3691.43	2395
3693.093	2406
3694.754	2355
3696.415	2396
3698.076	2456
3699.736	2451
3701.396	2432
3703.057	2384
3704.716	2450
3706.375	2433
3708.034	2453
3709.692	2386
3711.351	2465
3713.008	2445
3714.665	2365
3716.321	2422
3717.977	2510
3719.634	2384
3721.29	2326
3722.945	2367
3724.598	2468
3726.253	2445
3727.907	2362
3729.561	2399
3731.214	2436
3732.867	2346
3734.518	2425
3736.171	2320
3737.824	2423
3739.474	2397
3741.125	2341
3742.775	2369
3744.425	2451
3746.074	2392
3747.725	2345
3749.373	2380
3751.022	2316
3752.669	2318
3754.318	2353
3755.966	2354
3757.612	2382
3759.259	2367
3760.905	2341
3762.55	2351
3764.197	2341
3765.842	2334
3767.486	2364
3769.131	2413
3770.774	2296
3772.417	2398
3774.061	2375
3775.705	2343
3777.347	2340
3778.988	2385
3780.629	2369
3782.271	2319
3783.912	2289
3785.552	2306
3787.192	2341
3788.831	2299
3790.472	2308
3792.112	2314
3793.75	2250
3795.388	2328
3797.024	2327
3798.661	2304
3800.3	2357
3801.936	2365
3803.572	2274
3805.208	2304
3806.844	2282
3808.48	2278
3810.115	2247
3811.748	2288
3813.382	2270
3815.016	2270
3816.649	2233
3818.283	2258
3819.914	2233
3821.547	2268
3823.178	2301
3824.809	2246
3826.441	2285
3828.072	2385
3829.701	2243
3831.331	2296
3832.96	2287
3834.591	2244
3836.219	2236
3837.847	2293
3839.475	2231
3841.102	2237
3842.729	2215
3844.357	2338
3845.984	2261
3847.609	2262
3849.234	2261
3850.86	2284
3852.485	2247
3854.11	2274
3855.734	2210
3857.357	2240
3858.981	2270
3860.603	2296
3862.227	2227
3863.848	2284
3865.471	2210
3867.092	2229
3868.713	2277
3870.334	2204
3871.954	2256
3873.575	2194
3875.194	2157
3876.813	2219
3878.433	2281
3880.051	2223
3881.669	2272
3883.286	2189
3884.904	2221
3886.52	2211
3888.138	2195
3889.754	2229
3891.37	2187
3892.985	2232
3894.6	2193
3896.216	2196
3897.831	2208
3899.444	2213
3901.058	2211
3902.67	2150
3904.283	2200
3905.897	2232
3907.509	2274
3909.121	2251
3910.731	2170
3912.342	2147
3913.954	2171
3915.563	2182
3917.174	2192
3918.783	2192
3920.391	2132
3922.002	2208
3923.611	2168
3925.218	2174
3926.826	2178
3928.432	2194
3930.039	2176
3931.647	2225
3933.253	2221
3934.859	2160
3936.464	2201
3938.068	2151
3939.675	2178
3941.278	2177
3942.883	2149
3944.486	2132
3946.089	2147
3947.692	2176
3949.295	2138
3950.898	2137
3952.499	2134
3954.1	2139
3955.7	2142
3957.303	2174
3958.903	2161
3960.502	2187
3962.101	2106
3963.7	2166
3965.301	2137
3966.899	2175
3968.497	2137
3970.094	2132
3971.691	2097
3973.288	2105
3974.885	2098
3976.481	2160
3978.077	2117
3979.672	2104
3981.267	2124
3982.863	2158
3984.457	2114
3986.051	2198
3987.645	2125
3989.238	2152
3990.831	2099
3992.425	2112
3994.017	2068
3995.607	2051
3997.199	2132
3998.79	2059
4000.382	2096
4001.973	2030
4003.561	2063
4005.151	2065
4006.741	2105
4008.331	2009
4009.918	2091
4011.507	2019
4013.095	2047
4014.681	2056
4016.269	2089
4017.856	2060
4019.443	2083
4021.028	2082
4022.614	2028
4024.199	2074
4025.785	2069
4027.37	2062
4028.953	2021
4030.536	2011
4032.12	2097
4033.704	2057
4035.287	2020
4036.869	2008
4038.45	2025
4040.032	2049
4041.613	2004
4043.195	2042
4044.776	2029
4046.356	2009
4047.935	2035
4049.515	2020
4051.095	1998
4052.674	2042
4054.251	1954
4055.829	1984
4057.406	1999
4058.985	2027
4060.562	2014
4062.139	1997
4063.715	1975
4065.29	2019
4066.865	2039
4068.442	1941
4070.016	1995
4071.59	2011
4073.164	2008
4074.738	1997
4076.312	2021
4077.885	1992
4079.458	1973
4081.03	1948
4082.602	1962
4084.173	1951
4085.745	1938
4087.315	2009
4088.886	2013
4090.456	2027
4092.026	1962
4093.596	2000
4095.165	1965
4096.734	1967
4098.301	1989
4099.869	2018
4101.437	1985
4103.006	1956
4104.572	1984
4106.139	1984
4107.704	1908
4109.27	1958
4110.837	2004
4112.401	1975
4113.966	1911
4115.53	1966
4117.094	1950
4118.659	1916
4120.223	2005
4121.785	2004
4123.347	1971
4124.909	1950
4126.471	1932
4128.034	1926
4129.595	1953
4131.155	1911
4132.716	1961
4134.275	1913
4135.836	1915
4137.395	1924
4138.955	1935
4140.513	1994
4142.071	1949
4143.628	1891
4145.188	1904
4146.745	1973
4148.302	1904
4149.858	1865
4151.414	1881
4152.971	1897
4154.526	1854
4156.081	1955
4157.635	1892
4159.189	1959
4160.745	1897
4162.298	1796
4163.852	1912
4165.405	1902
4166.957	1886
4168.51	1874
4170.063	1883
4171.614	1866
4173.166	1904
4174.717	1852
4176.267	1874
4177.817	1919
4179.368	1825
4180.917	1854
4182.466	1854
4184.016	1868
4185.564	1841
4187.112	1894
4188.66	1801
4190.207	1826
4191.754	1843
4193.301	1854
4194.848	1870
4196.394	1851
4197.94	1880
4199.484	1812
4201.03	1844
4202.575	1795
4204.12	1871
4205.663	1847
4207.207	1839
4208.75	1812
4210.292	1859
4211.836	1839
4213.378	1765
4214.92	1815
4216.46	1818
4218.002	1811
4219.544	1777
4221.083	1827
4222.625	1809
4224.164	1817
4225.703	1829
4227.244	1835
4228.782	1811
4230.32	1809
4231.857	1830
4233.395	1812
4234.933	1851
4236.471	1799
4238.007	1787
4239.542	1783
4241.078	1750
4242.614	1794
4244.15	1795
4245.685	1772
4247.219	1765
4248.753	1824
4250.287	1819
4251.82	1797
4253.354	1790
4254.887	1858
4256.419	1790
4257.951	1780
4259.483	1790
4261.016	1805
4262.547	1786
4264.078	1794
4265.608	1803
4267.137	1800
4268.668	1822
4270.197	1804
4271.727	1783
4273.254	1786
4274.783	1742
4276.311	1774
4277.84	1807
4279.366	1781
4280.894	1742
4282.42	1785
4283.946	1737
4285.473	1698
4286.998	1766
4288.523	1758
4290.047	1800
4291.572	1804
4293.096	1707
4294.622	1729
4296.144	1729
4297.668	1741
4299.19	1731
4300.713	1756
4302.236	1739
4303.758	1723
4305.279	1751
4306.799	1740
4308.321	1789
4309.842	1697
4311.361	1735
4312.882	1711
4314.401	1735
