400.0961	2525
402.6185	2536
405.1424	2574
407.6635	2587
410.1838	2545
412.7035	2582
415.2225	2590
417.7388	2581
420.2585	2668
422.7754	2696
425.2917	2721
427.8072	2706
430.3221	2726
432.8363	2780
435.3498	2815
437.8626	2773
440.3727	2784
442.8841	2745
445.3969	2749
447.907	2699
450.4142	2718
452.9229	2661
455.4289	2740
457.9362	2778
460.4449	2751
462.9488	2675
465.454	2785
467.9566	2625
470.4604	2687
472.9637	2612
475.4662	2723
477.966	2650
480.4671	2681
482.9656	2679
485.4633	2662
487.9645	2659
490.4608	2723
492.9566	2708
495.4536	2719
497.948	2668
500.4437	2706
502.9387	2695
505.431	2767
507.9226	2683
510.4136	2721
512.9079	2753
515.3975	2718
517.8864	2658
520.3746	2732
522.8622	2749
525.3491	2706
527.8394	2724
530.3249	2772
532.8098	2743
535.2939	2820
537.7774	2718
540.2623	2718
542.7444	2767
545.2259	2730
547.7067	2712
550.1868	2753
552.6683	2650
555.147	2799
557.6231	2791
560.1005	2796
562.5773	2835
565.0534	2818
567.5308	2804
570.0056	2813
572.4776	2841
574.951	2936
577.4237	2904
579.8978	2846
582.3671	2901
584.8378	2873
587.3079	3005
589.7773	2949
592.244	2938
594.714	2946
597.1793	2886
599.6461	2881
602.1121	2892
604.5754	2940
607.0421	2814
609.5042	2836
611.9675	2872
614.4282	2823
616.8902	2880
619.3515	2790
621.8122	2826
624.2702	2835
626.7296	2820
629.1863	2789
631.6423	2842
634.1017	2770
636.5563	2751
639.0104	2850
641.4658	2796
643.9185	2785
646.3725	2843
648.8239	2844
651.2766	2707
653.7266	2784
656.176	2832
658.6247	2856
661.0748	2774
663.5242	2817
665.9709	2811
668.417	2837
670.8624	2868
673.3092	2878
675.7533	2925
678.1968	2867
680.6395	2878
683.0817	2868
685.5251	2874
687.9659	2896
690.4061	2904
692.8456	2886
695.2844	2901
697.7226	2902
700.1621	2897
702.599	2955
705.0332	2918
707.4688	2890
709.9036	2937
712.3399	2983
714.7735	2937
717.2044	3017
719.6367	2946
722.0683	3051
724.4993	2963
726.9296	3029
729.3593	2967
731.7883	3015
734.2147	2998
736.6423	3033
739.0714	3031
741.4958	3034
743.9216	3063
746.3447	2982
748.7691	3112
751.1929	3006
753.616	3055
756.0366	3035
758.4584	3135
760.8776	3075
763.2982	3015
765.718	3187
768.1373	3006
770.5539	3083
772.9698	3089
775.3871	3070
777.8038	3069
780.2178	3077
782.6332	3099
785.0459	3031
787.458	3156
789.8714	3157
792.2842	3179
794.6943	3025
797.1038	3116
799.5127	3082
801.9209	3002
804.3324	3083
806.7393	3101
809.1456	3151
811.5513	3077
813.9562	3220
816.3625	3145
818.7663	3221
821.1693	3167
823.5718	3075
825.9735	3117
828.3746	3139
830.7771	3149
833.177	3199
835.5762	3160
837.9747	3125
840.3727	3155
842.772	3106
845.1666	3240
847.5626	3304
849.958	3204
852.3527	3270
854.7488	3284
857.1403	3261
859.5331	3278
861.9253	3249
864.3168	3204
866.7057	3207
869.098	3312
871.4876	3191
873.8746	3232
876.263	3145
878.6487	3235
881.0378	3233
883.4243	3285
885.8081	3248
888.1933	3259
890.5759	3201
892.9598	3298
895.343	3232
897.7256	3221
900.1057	3312
902.4871	3166
904.8659	3215
907.246	3275
909.6254	3278
912.0023	3248
914.3786	3339
916.7562	3310
919.1331	3404
921.5074	3471
923.8831	3492
926.2562	3527
928.6287	3481
931.0005	3464
933.3757	3546
935.7462	3459
938.1162	3494
940.4855	3585
942.8542	3653
945.2242	3640
947.5916	3796
949.9584	3930
952.3266	4024
954.6921	4339
957.0571	4578
959.4233	4738
961.787	4910
964.15	4765
966.5125	4661
968.8742	4364
971.2354	4151
973.5959	3828
975.9559	3747
978.3151	3637
980.6738	3443
983.0338	3463
985.3912	3393
987.7461	3440
990.1022	3481
992.4578	3399
994.8127	3417
997.1689	3432
999.5207	3409
1001.874	3420
1004.226	3413
1006.576	3296
1008.929	3445
1011.28	3398
1013.628	3332
1015.977	3477
1018.324	3398
1020.674	3362
1023.019	3426
1025.366	3398
1027.713	3399
1030.056	3471
1032.399	3411
1034.746	3451
1037.087	3487
1039.431	3536
1041.771	3488
1044.113	3474
1046.454	3490
1048.793	3543
1051.133	3446
1053.471	3467
1055.807	3520
1058.146	3477
1060.483	3447
1062.818	3546
1065.153	3505
1067.489	3508
1069.822	3637
1072.156	3552
1074.488	3663
1076.82	3629
1079.15	3546
1081.48	3580
1083.814	3498
1086.143	3553
1088.471	3519
1090.799	3490
1093.126	3437
1095.452	3513
1097.78	3410
1100.105	3432
1102.43	3441
1104.754	3387
1107.077	3462
1109.4	3447
1111.722	3450
1114.044	3439
1116.365	3448
1118.685	3437
1121.005	3448
1123.324	3354
1125.643	3410
1127.961	3498
1130.278	3398
1132.595	3489
1134.911	3435
1137.226	3390
1139.541	3366
1141.854	3444
1144.167	3409
1146.482	3377
1148.793	3417
1151.105	3420
1153.414	3437
1155.725	3374
1158.033	3395
1160.344	3447
1162.651	3434
1164.959	3428
1167.265	3479
1169.572	3475
1171.878	3520
1174.184	3473
1176.488	3452
1178.79	3464
1181.094	3445
1183.396	3475
1185.699	3467
1188.001	3379
1190.301	3447
1192.6	3443
1194.9	3421
1197.2	3482
1199.497	3437
1201.794	3424
1204.09	3416
1206.387	3491
1208.684	3458
1210.978	3472
1213.272	3481
1215.565	3501
1217.858	3415
1220.15	3512
1222.443	3397
1224.734	3482
1227.024	3599
1229.313	3466
1231.602	3554
1233.892	3539
1236.18	3528
1238.467	3632
1240.754	3571
1243.04	3631
1245.325	3649
1247.612	3613
1249.896	3573
1252.178	3710
1254.461	3703
1256.743	3640
1259.027	3567
1261.308	3571
1263.587	3706
1265.867	3632
1268.146	3557
1270.425	3685
1272.703	3572
1274.981	3632
1277.256	3573
1279.532	3621
1281.808	3583
1284.083	3562
1286.358	3635
1288.63	3631
1290.904	3619
1293.175	3616
1295.449	3611
1297.719	3625
1299.99	3612
1302.259	3553
1304.529	3596
1306.798	3579
1309.065	3614
1311.333	3568
1313.599	3639
1315.866	3570
1318.131	3583
1320.396	3537
1322.66	3542
1324.925	3586
1327.187	3596
1329.448	3624
1331.711	3534
1333.974	3640
1336.234	3586
1338.493	3578
1340.752	3567
1343.01	3512
1345.269	3629
1347.526	3542
1349.784	3590
1352.04	3529
1354.295	3570
1356.552	3469
1358.806	3606
1361.059	3521
1363.312	3498
1365.564	3572
1367.818	3568
1370.069	3674
1372.318	3514
1374.568	3612
1376.817	3535
1379.066	3571
1381.316	3648
1383.564	3584
1385.809	3625
1388.056	3617
1390.301	3706
1392.549	3632
1394.793	3712
1397.036	3726
1399.279	3754
1401.522	3766
1403.763	3707
1406.007	3658
1408.248	3698
1410.487	3676
1412.727	3695
1414.965	3783
1417.205	3731
1419.442	3717
1421.68	3631
1423.915	3846
1426.152	3750
1428.388	3682
1430.623	3661
1432.857	3713
1435.091	3735
1437.323	3810
1439.556	3690
1441.789	3774
1444.019	3787
1446.25	3765
1448.48	3765
1450.708	3858
1452.938	3835
1455.167	3826
1457.394	3849
1459.62	3872
1461.846	3804
1464.073	3830
1466.299	3776
1468.523	3853
1470.746	3677
1472.969	3674
1475.191	3709
1477.415	3713
1479.636	3682
1481.858	3696
1484.078	3651
1486.298	3655
1488.518	3621
1490.736	3591
1492.954	3553
1495.169	3552
1497.386	3520
1499.602	3535
1501.819	3618
1504.034	3524
1506.248	3481
1508.462	3550
1510.675	3539
1512.888	3643
1515.1	3489
1517.311	3569
1519.522	3559
1521.732	3470
1523.942	3617
1526.151	3513
1528.36	3606
1530.566	3504
1532.773	3539
1534.98	3596
1537.187	3600
1539.392	3576
1541.596	3568
1543.801	3609
1546.005	3578
1548.208	3551
1550.411	3578
1552.612	3634
1554.814	3577
1557.013	3617
1559.212	3612
1561.414	3657
1563.612	3618
1565.811	3686
1568.007	3682
1570.203	3719
1572.403	3579
1574.598	3694
1576.792	3623
1578.988	3676
1581.181	3695
1583.376	3612
1585.568	3653
1587.761	3662
1589.952	3666
1592.143	3753
1594.333	3669
1596.524	3660
1598.715	3646
1600.903	3644
1603.091	3651
1605.278	3673
1607.466	3748
1609.652	3641
1611.838	3706
1614.023	3756
1616.207	3724
1618.391	3696
1620.576	3737
1622.759	3651
1624.941	3683
1627.123	3766
1629.304	3789
1631.484	3687
1633.664	3812
1635.844	3903
1638.022	3724
1640.201	3773
1642.38	3835
1644.556	3784
1646.732	3782
1648.908	3720
1651.084	3871
1653.257	3824
1655.433	3779
1657.607	3899
1659.779	3929
1661.951	3814
1664.122	3928
1666.295	3815
1668.467	3848
1670.635	3858
1672.805	3895
1674.973	3805
1677.142	3933
1679.31	3768
1681.478	3815
1683.644	3758
1685.81	3835
1687.975	3846
1690.142	3803
1692.305	3781
1694.468	3784
1696.632	3807
1698.794	3786
1700.957	3723
1703.119	3662
1705.279	3747
1707.439	3611
1709.598	3692
1711.758	3629
1713.917	3752
1716.075	3682
1718.231	3697
1720.388	3721
1722.543	3678
1724.702	3698
1726.856	3647
1729.01	3624
1731.164	3583
1733.317	3613
1735.471	3694
1737.623	3593
1739.774	3696
1741.925	3674
1744.075	3640
1746.225	3686
1748.376	3598
1750.524	3667
1752.672	3719
1754.82	3676
1756.965	3736
1759.113	3779
1761.259	3666
1763.405	3730
1765.549	3701
1767.694	3744
1769.836	3789
1771.981	3733
1774.123	3603
1776.264	3758
1778.405	3670
1780.546	3780
1782.687	3707
1784.827	3665
1786.966	3679
1789.103	3746
1791.242	3806
1793.381	3619
1795.517	3699
1797.653	3726
1799.788	3774
1801.923	3659
1804.057	3715
1806.193	3733
1808.326	3702
1810.457	3738
1812.59	3668
1814.721	3801
1816.855	3735
1818.984	3726
1821.113	3766
1823.244	3649
1825.372	3759
1827.499	3690
1829.63	3769
1831.756	3704
1833.882	3722
1836.007	3610
1838.132	3759
1840.26	3735
1842.384	3671
1844.507	3671
1846.63	3766
1848.752	3680
1850.875	3697
1852.996	3646
1855.118	3717
1857.238	3698
1859.358	3719
1861.477	3718
1863.597	3733
1865.715	3685
1867.832	3691
1869.948	3721
1872.064	3657
1874.181	3644
1876.297	3758
1878.411	3685
1880.526	3660
1882.639	3781
1884.752	3711
1886.865	3666
1888.977	3749
1891.089	3800
1893.2	3753
1895.308	3691
1897.42	3731
1899.53	3811
1901.639	3669
1903.745	3702
1905.853	3761
1907.962	3725
1910.067	3698
1912.174	3844
1914.278	3766
1916.383	3742
1918.486	3736
1920.592	3739
1922.694	3710
1924.797	3715
1926.898	3770
1929	3794
1931.102	3706
1933.203	3753
1935.301	3776
1937.401	3753
1939.499	3728
1941.598	3829
1943.697	3842
1945.793	3673
1947.888	3756
1949.985	3800
1952.08	3826
1954.176	3798
1956.269	3653
1958.364	3744
1960.457	3747
1962.549	3758
1964.642	3723
1966.733	3842
1968.823	3712
1970.913	3732
1973.005	3684
1975.093	3822
1977.184	3803
1979.271	3746
1981.359	3728
1983.446	3693
1985.532	3791
1987.619	3677
1989.705	3750
1991.789	3718
1993.874	3784
1995.956	3695
1998.041	3806
2000.123	3668
2002.206	3787
2004.287	3706
2006.368	3678
2008.449	3635
2010.529	3661
2012.609	3793
2014.688	3782
2016.766	3710
2018.843	3672
2020.922	3788
2022.999	3713
2025.074	3596
2027.15	3673
2029.225	3646
2031.299	3696
2033.375	3723
2035.447	3748
2037.52	3805
2039.592	3668
2041.664	3733
2043.736	3716
2045.807	3655
2047.876	3704
2049.947	3777
2052.015	3706
2054.086	3735
2056.153	3682
2058.221	3755
2060.288	3677
2062.353	3682
2064.42	3799
2066.486	3730
2068.55	3759
2070.614	3758
2072.678	3661
2074.741	3768
2076.805	3798
2078.866	3735
2080.929	3809
2082.99	3758
2085.049	3703
2087.109	3767
2089.17	3706
2091.228	3767
2093.286	3828
2095.344	3824
2097.4	3744
2099.46	3721
2101.516	3835
2103.572	3707
2105.626	3806
2107.679	3765
2109.735	3692
2111.788	3777
2113.841	3733
2115.894	3815
2117.945	3754
2119.997	3649
2122.049	3787
2124.1	3787
2126.148	3797
2128.197	3768
2130.246	3757
2132.296	3655
2134.342	3805
2136.39	3771
2138.437	3667
2140.483	3719
2142.527	3666
2144.574	3692
2146.619	3668
2148.661	3707
2150.705	3662
2152.747	3677
2154.792	3695
2156.832	3714
2158.874	3702
2160.915	3729
2162.954	3766
2164.995	3683
2167.034	3769
2169.072	3677
2171.111	3626
2173.148	3697
2175.186	3711
2177.223	3678
2179.258	3732
2181.294	3648
2183.328	3688
2185.362	3660
2187.398	3646
2189.431	3705
2191.463	3688
2193.495	3738
2195.528	3690
2197.56	3717
2199.59	3688
2201.62	3695
2203.649	3677
2205.678	3670
2207.708	3758
2209.737	3699
2211.764	3744
2213.791	3591
2215.817	3622
2217.843	3696
2219.87	3642
2221.895	3600
2223.919	3665
2225.942	3700
2227.966	3713
2229.988	3681
2232.012	3568
2234.032	3673
2236.054	3665
2238.074	3587
2240.095	3709
2242.116	3659
2244.135	3627
2246.153	3600
2248.171	3624
2250.188	3673
2252.208	3649
2254.223	3720
2256.239	3621
2258.255	3675
2260.269	3665
2262.283	3696
2264.3	3669
2266.312	3733
2268.325	3672
2270.336	3683
2272.349	3740
2274.362	3665
2276.372	3579
2278.383	3611
2280.392	3708
2282.402	3657
2284.409	3600
2286.418	3618
2288.427	3721
2290.433	3646
2292.441	3621
2294.446	3706
2296.453	3588
2298.459	3644
2300.463	3664
2302.466	3635
2304.471	3668
2306.475	3627
2308.477	3677
2310.478	3658
2312.481	3663
2314.481	3744
2316.481	3634
2318.482	3705
2320.482	3687
2322.48	3624
2324.48	3696
2326.478	3658
2328.476	3637
2330.473	3690
2332.469	3661
2334.465	3629
2336.46	3649
2338.454	3588
2340.45	3652
2342.444	3652
2344.437	3655
2346.43	3649
2348.421	3716
2350.414	3555
2352.405	3667
2354.396	3583
2356.386	3594
2358.376	3603
2360.366	3584
2362.355	3588
2364.343	3568
2366.331	3661
2368.317	3565
2370.304	3608
2372.292	3600
2374.278	3613
2376.262	3583
2378.247	3556
2380.23	3584
2382.216	3534
2384.199	3574
2386.181	3559
2388.163	3585
2390.144	3579
2392.127	3647
2394.107	3592
2396.087	3609
2398.066	3538
2400.046	3554
2402.023	3523
2404.004	3598
2405.981	3500
2407.957	3557
2409.934	3592
2411.91	3549
2413.886	3603
2415.862	3569
2417.836	3521
2419.809	3507
2421.784	3576
2423.756	3567
2425.73	3515
2427.701	3556
2429.672	3546
2431.644	3537
2433.615	3601
2435.586	3556
2437.555	3519
2439.523	3625
2441.491	3516
2443.459	3561
2445.428	3536
2447.395	3527
2449.361	3582
2451.327	3527
2453.292	3553
2455.257	3569
2457.223	3632
2459.187	3431
2461.15	3588
2463.113	3565
2465.076	3552
2467.039	3423
2468.999	3486
2470.96	3592
2472.921	3535
2474.881	3563
2476.841	3607
2478.8	3482
2480.759	3438
2482.717	3523
2484.675	3526
2486.63	3498
2488.589	3574
2490.545	3509
2492.5	3494
2494.455	3535
2496.408	3548
2498.364	3530
2500.318	3584
2502.27	3534
2504.223	3429
2506.174	3489
2508.126	3510
2510.078	3549
2512.03	3538
2513.979	3566
2515.927	3425
2517.877	3555
2519.826	3562
2521.775	3488
2523.722	3516
2525.668	3509
2527.616	3462
2529.561	3463
2531.508	3437
2533.452	3579
2535.398	3465
2537.342	3519
2539.284	3491
2541.229	3440
2543.173	3490
2545.114	3504
2547.055	3521
2548.996	3521
2550.938	3405
2552.878	3514
2554.817	3527
2556.756	3508
2558.695	3462
2560.633	3525
2562.572	3487
2564.509	3494
2566.445	3493
2568.382	3525
2570.317	3478
2572.254	3486
2574.189	3452
2576.123	3517
2578.057	3492
2579.99	3475
2581.923	3489
2583.855	3414
2585.788	3470
2587.719	3446
2589.65	3514
2591.579	3493
2593.511	3488
2595.44	3486
2597.37	3408
2599.297	3543
2601.225	3529
2603.153	3497
2605.08	3464
2607.007	3522
2608.932	3465
2610.858	3541
2612.782	3507
2614.709	3521
2616.632	3433
2618.556	3574
2620.478	3561
2622.401	3537
2624.324	3467
2626.247	3480
2628.167	3469
2630.088	3515
2632.008	3494
2633.928	3545
2635.848	3496
2637.766	3547
2639.684	3518
2641.603	3557
2643.519	3568
2645.437	3542
2647.353	3534
2649.27	3535
2651.184	3505
2653.099	3503
2655.014	3506
2656.928	3578
2658.842	3506
2660.755	3493
2662.667	3528
2664.579	3478
2666.491	3517
2668.402	3496
2670.312	3581
2672.222	3486
2674.132	3538
2676.042	3532
2677.951	3515
2679.859	3534
2681.766	3515
2683.674	3489
2685.582	3499
2687.488	3461
2689.392	3532
2691.298	3582
2693.202	3552
2695.107	3479
2697.012	3458
2698.914	3492
2700.817	3485
2702.72	3438
2704.622	3484
2706.524	3461
2708.425	3503
2710.326	3441
2712.225	3459
2714.125	3459
2716.024	3478
2717.923	3428
2719.822	3545
2721.719	3499
2723.616	3444
2725.512	3476
2727.41	3459
2729.305	3495
2731.201	3444
2733.095	3460
2734.99	3500
2736.884	3443
2738.778	3520
2740.67	3502
2742.562	3519
2744.455	3468
2746.346	3480
2748.238	3483
2750.129	3420
2752.018	3359
2753.907	3454
2755.797	3531
2757.687	3483
2759.575	3565
2761.462	3461
2763.349	3466
2765.237	3430
2767.124	3463
2769.009	3401
2770.894	3473
2772.779	3385
2774.663	3487
2776.547	3474
2778.431	3413
2780.314	3429
2782.197	3507
2784.078	3476
2785.96	3433
2787.842	3438
2789.723	3531
2791.603	3353
2793.483	3423
2795.362	3391
2797.241	3474
2799.121	3478
2800.997	3380
2802.874	3413
2804.751	3363
2806.628	3436
2808.506	3462
2810.38	3375
2812.255	3407
2814.13	3408
2816.003	3482
2817.878	3397
2819.752	3419
2821.623	3528
2823.496	3431
2825.368	3453
2827.238	3422
2829.111	3437
2830.98	3502
2832.851	3475
2834.719	3420
2836.589	3467
2838.458	3438
2840.327	3429
2842.193	3475
2844.061	3460
2845.927	3502
2847.794	3436
2849.66	3545
2851.525	3506
2853.39	3551
2855.254	3501
2857.117	3498
2858.983	3545
2860.845	3582
2862.707	3531
2864.569	3653
2866.431	3557
2868.293	3614
2870.154	3682
2872.013	3769
2873.873	3684
2875.733	3749
2877.592	3840
2879.451	3844
2881.309	3849
2883.166	4011
2885.022	3988
2886.879	3934
2888.736	3892
2890.591	3901
2892.446	3972
2894.301	3951
2896.155	3883
2898.009	3935
2899.863	3977
2901.716	3881
2903.568	3873
2905.419	3905
2907.27	3907
2909.123	3956
2910.973	3963
2912.824	4042
2914.673	4042
2916.521	3995
2918.372	4083
2920.22	4090
2922.067	4179
2923.914	4228
2925.761	4193
2927.607	4339
2929.455	4430
2931.301	4406
2933.144	4468
2934.99	4515
2936.833	4517
2938.678	4464
2940.522	4591
2942.364	4659
2944.207	4706
2946.048	4648
2947.891	4686
2949.731	4708
2951.571	4715
2953.412	4696
2955.25	4685
2957.09	4550
2958.93	4611
2960.767	4523
2962.606	4392
2964.443	4323
2966.279	4310
2968.116	4361
2969.953	4304
2971.788	4262
2973.623	4220
2975.457	4156
2977.292	4113
2979.127	4064
2980.959	4064
2982.792	4085
2984.624	4054
2986.455	3965
2988.288	3997
2990.119	3971
2991.949	3952
2993.779	3930
2995.608	3880
2997.439	3858
2999.268	3798
3001.096	3740
3002.923	3784
3004.751	3701
3006.578	3627
3008.406	3636
3010.232	3625
3012.057	3554
3013.883	3541
3015.706	3545
3017.532	3483
3019.356	3523
3021.179	3448
3023.002	3444
3024.823	3483
3026.646	3395
3028.469	3348
3030.289	3373
3032.11	3450
3033.93	3426
3035.749	3360
3037.57	3449
3039.39	3336
3041.207	3353
3043.026	3360
3044.842	3322
3046.661	3321
3048.477	3340
3050.294	3290
3052.109	3359
3053.925	3309
3055.739	3301
3057.555	3388
3059.368	3308
3061.181	3308
3062.995	3322
3064.807	3279
3066.62	3335
3068.433	3339
3070.243	3290
3072.054	3339
3073.865	3338
3075.675	3335
3077.485	3306
3079.293	3308
3081.102	3296
3082.911	3297
3084.719	3286
3086.527	3336
3088.333	3308
3090.139	3244
3091.945	3214
3093.75	3299
3095.557	3276
3097.361	3317
3099.165	3261
3100.969	3198
3102.772	3299
3104.575	3220
3106.379	3277
3108.181	3182
3109.982	3203
3111.783	3161
3113.584	3272
3115.386	3232
3117.186	3193
3118.985	3275
3120.783	3228
3122.582	3212
3124.381	3181
3126.179	3236
3127.975	3288
3129.772	3164
3131.569	3252
3133.365	3188
3135.161	3204
3136.956	3111
3138.751	3179
3140.544	3113
3142.338	3239
3144.132	3205
3145.925	3150
3147.717	3240
3149.509	3204
3151.301	3187
3153.091	3148
3154.884	3128
3156.673	3227
3158.462	3158
3160.252	3226
3162.041	3179
3163.831	3191
3165.618	3181
3167.405	3136
3169.193	3167
3170.979	3179
3172.767	3152
3174.553	3181
3176.338	3185
3178.123	3211
3179.907	3105
3181.692	3129
3183.477	3117
3185.259	3170
3187.042	3112
3188.824	3107
3190.607	3222
3192.389	3169
3194.17	3196
3195.951	3125
3197.73	3209
3199.51	3169
3201.289	3067
3203.07	3136
3204.848	3184
3206.626	3058
3208.403	3239
3210.18	3155
3211.959	3146
3213.735	3176
3215.511	3154
3217.285	3192
3219.06	3089
3220.836	3095
3222.611	3192
3224.384	3199
3226.158	3212
3227.929	3152
3229.702	3185
3231.476	3180
3233.248	3142
3235.018	3197
3236.789	3187
3238.56	3256
3240.33	3135
3242.1	3129
3243.869	3201
3245.637	3131
3247.405	3185
3249.172	3088
3250.941	3141
3252.707	3144
3254.474	3284
3256.24	3211
3258.006	3159
3259.772	3254
3261.537	3203
3263.301	3161
3265.065	3123
3266.828	3203
3268.592	3194
3270.355	3134
3272.117	3181
3273.878	3215
3275.64	3177
3277.401	3101
3279.162	3165
3280.922	3103
3282.682	3172
3284.441	3160
3286.199	3218
3287.959	3208
3289.716	3134
3291.475	3109
3293.232	3216
3294.988	3188
3296.744	3179
3298.501	3102
3300.256	3193
3302.011	3126
3303.766	3194
3305.52	3236
3307.275	3176
3309.028	3259
3310.781	3144
3312.533	3235
3314.285	3147
3316.038	3258
3317.789	3205
3319.54	3250
3321.289	3183
3323.039	3229
3324.789	3220
3326.539	3181
3328.288	3186
3330.035	3191
3331.783	3137
3333.531	3159
3335.28	3131
3337.025	3219
3338.771	3146
3340.518	3187
3342.262	3149
3344.009	3227
3345.753	3125
3347.497	3133
3349.24	3199
3350.983	3134
3352.726	3171
3354.469	3158
3356.212	3107
3357.952	3167
3359.694	3162
3361.434	3153
3363.176	3179
3364.916	3146
3366.654	3094
3368.394	3152
3370.132	3140
3371.871	3108
3373.61	3068
3375.346	3132
3377.083	3101
3378.82	3053
3380.556	3025
3382.292	3002
3384.027	3140
3385.763	3071
3387.497	3057
3389.231	3108
3390.965	3073
3392.698	3000
3394.431	3072
3396.164	3108
3397.896	3118
3399.627	3043
3401.36	3007
3403.09	3025
3404.82	3066
3406.55	3062
3408.279	3051
3410.01	3073
3411.738	3120
3413.467	3064
3415.194	3060
3416.92	3021
3418.647	3029
3420.375	3025
3422.102	2958
3423.827	3074
3425.553	3049
3427.277	3056
3429.003	3026
3430.727	2944
3432.451	2948
3434.173	2952
3435.896	3012
3437.62	2941
3439.343	2962
3441.063	3019
3442.785	3057
3444.505	2978
3446.226	2944
3447.948	3016
3449.666	2860
3451.386	2965
3453.104	2938
3454.823	2977
3456.541	2997
3458.259	2985
3459.976	2880
3461.693	2906
3463.408	2925
3465.125	2880
3466.841	2880
3468.556	2902
3470.271	2884
3471.985	2913
3473.698	2904
3475.414	2916
3477.126	2876
3478.838	2972
3480.55	2931
3482.263	2820
3483.975	2933
3485.686	2893
3487.396	2806
3489.106	2852
3490.817	2816
3492.526	2874
3494.236	2906
3495.944	2797
3497.652	2831
3499.359	2855
3501.066	2787
3502.775	2796
3504.481	2832
3506.187	2925
3507.893	2816
3509.598	2860
3511.304	2745
3513.009	2799
3514.713	2827
3516.417	2787
3518.12	2845
3519.821	2866
3521.525	2762
3523.228	2784
3524.929	2809
3526.631	2766
3528.33	2802
3530.032	2748
3531.733	2787
3533.433	2718
3535.131	2824
3536.83	2796
3538.529	2717
3540.227	2772
3541.925	2784
3543.623	2765
3545.319	2766
3547.016	2802
3548.712	2695
3550.408	2716
3552.103	2770
3553.798	2690
3555.491	2703
3557.188	2721
3558.88	2717
3560.574	2731
3562.266	2702
3563.959	2757
3565.651	2742
3567.343	2672
3569.035	2655
3570.725	2649
3572.415	2660
3574.106	2697
3575.797	2721
3577.485	2707
3579.174	2654
3580.863	2600
3582.551	2708
3584.238	2639
3585.926	2683
3587.613	2608
3589.3	2708
3590.986	2594
3592.671	2635
3594.357	2624
3596.042	2649
3597.726	2598
3599.41	2607
3601.094	2661
3602.778	2593
3604.461	2624
3606.143	2637
3607.825	2622
3609.507	2636
3611.188	2519
3612.87	2581
3614.551	2571
3616.229	2556
3617.909	2538
3619.589	2611
3621.269	2608
3622.948	2541
3624.625	2558
3626.302	2591
3627.98	2545
3629.657	2571
3631.334	2542
3633.01	2485
3634.686	2581
3636.361	2584
3638.036	2562
3639.712	2487
3641.385	2547
3643.06	2505
3644.732	2529
3646.405	2511
3648.08	2537
3649.751	2570
3651.424	2543
3653.094	2475
3654.766	2526
3656.436	2474
3658.106	2471
3659.777	2509
3661.446	2457
3663.115	2451
3664.783	2452
3666.452	2486
3668.121	2528
3669.788	2419
3671.454	2528
3673.121	2477
3674.789	2446
3676.455	2449
3678.12	2441
3679.784	2452
3681.45	2409
3683.114	2475
3684.779	2483
3686.442	2450
3688.105	2474
3689.768	2477
3691.43	2502
3693.093	2416
3694.754	2394
3696.415	2425
3698.076	2463
3699.736	2465
3701.396	2472
3703.057	2448
3704.716	2435
3706.375	2481
3708.034	2408
3709.692	2376
3711.351	2420
3713.008	2361
3714.665	2424
3716.321	2463
3717.977	2471
3719.634	2394
3721.29	2433
3722.945	2426
3724.598	2366
3726.253	2436
3727.907	2387
3729.561	2369
3731.214	2343
3732.867	2349
3734.518	2446
3736.171	2436
3737.824	2415
3739.474	2394
3741.125	2273
3742.775	2365
3744.425	2348
3746.074	2360
3747.725	2351
3749.373	2331
3751.022	2363
3752.669	2382
3754.318	2345
3755.966	2350
3757.612	2394
3759.259	2389
3760.905	2301
3762.55	2339
3764.197	2319
3765.842	2363
3767.486	2357
3769.131	2316
3770.774	2312
3772.417	2344
3774.061	2357
3775.705	2348
3777.347	2400
3778.988	2339
3780.629	2304
3782.271	2368
3783.912	2367
3785.552	2365
3787.192	2279
3788.831	2338
3790.472	2324
3792.112	2316
3793.75	2287
3795.388	2332
3797.024	2248
3798.661	2324
3800.3	2346
3801.936	2285
3803.572	2298
3805.208	2278
3806.844	2263
3808.48	2276
3810.115	2315
3811.748	2262
3813.382	2307
3815.016	2289
3816.649	2227
3818.283	2291
3819.914	2298
3821.547	2259
3823.178	2276
3824.809	2260
3826.441	2296
3828.072	2240
3829.701	2317
3831.331	2274
3832.96	2264
3834.591	2286
3836.219	2276
3837.847	2250
3839.475	2280
3841.102	2277
3842.729	2243
3844.357	2243
3845.984	2255
3847.609	2284
3849.234	2158
3850.86	2236
3852.485	2232
3854.11	2237
3855.734	2251
3857.357	2168
3858.981	2176
3860.603	2230
3862.227	2223
3863.848	2213
3865.471	2245
3867.092	2185
3868.713	2213
3870.334	2224
3871.954	2178
3873.575	2234
3875.194	2252
3876.813	2134
3878.433	2246
3880.051	2206
3881.669	2190
3883.286	2199
3884.904	2209
3886.52	2236
3888.138	2185
3889.754	2140
3891.37	2254
3892.985	2247
3894.6	2228
3896.216	2194
3897.831	2162
3899.444	2218
3901.058	2201
3902.67	2192
3904.283	2180
3905.897	2172
3907.509	2212
3909.121	2159
3910.731	2289
3912.342	2215
3913.954	2206
3915.563	2198
3917.174	2148
3918.783	2168
3920.391	2236
3922.002	2189
3923.611	2229
3925.218	2176
3926.826	2162
3928.432	2156
3930.039	2111
3931.647	2262
3933.253	2167
3934.859	2205
3936.464	2169
3938.068	2163
3939.675	2159
3941.278	2193
3942.883	2149
3944.486	2160
3946.089	2193
3947.692	2155
3949.295	2138
3950.898	2138
3952.499	2158
3954.1	2145
3955.7	2137
3957.303	2105
3958.903	2167
3960.502	2192
3962.101	2161
3963.7	2151
3965.301	2137
3966.899	2091
3968.497	2172
3970.094	2129
3971.691	2122
3973.288	2133
3974.885	2132
3976.481	2163
3978.077	2039
3979.672	2141
3981.267	2089
3982.863	2133
3984.457	2078
3986.051	2189
3987.645	2112
3989.238	2080
3990.831	2049
3992.425	2126
3994.017	2099
3995.607	2121
3997.199	2079
3998.79	2153
4000.382	2107
4001.973	2070
4003.561	2101
4005.151	2054
4006.741	2078
4008.331	2108
4009.918	2083
4011.507	2050
4013.095	2063
4014.681	2025
4016.269	2060
4017.856	2055
4019.443	2089
4021.028	2006
4022.614	2023
4024.199	2081
4025.785	2050
4027.37	2006
4028.953	2042
4030.536	2086
4032.12	2046
4033.704	2067
4035.287	2000
4036.869	2059
4038.45	2097
4040.032	2040
4041.613	2002
4043.195	2018
4044.776	2047
4046.356	2040
4047.935	2016
4049.515	2020
4051.095	2029
4052.674	2008
4054.251	2010
4055.829	2026
4057.406	2005
4058.985	1965
4060.562	2049
4062.139	2016
4063.715	2016
4065.29	2018
4066.865	2028
4068.442	1959
4070.016	1976
4071.59	1974
4073.164	2041
4074.738	2041
4076.312	2004
4077.885	1970
4079.458	2004
4081.03	2004
4082.602	1978
4084.173	1976
4085.745	2072
4087.315	1966
4088.886	1958
4090.456	2013
4092.026	2014
4093.596	1983
4095.165	1998
4096.734	1980
4098.301	1959
4099.869	2010
4101.437	1903
4103.006	1979
4104.572	1948
4106.139	1998
4107.704	1946
4109.27	1970
4110.837	1981
4112.401	1915
4113.966	1925
4115.53	1947
4117.094	1919
4118.659	1937
4120.223	2004
4121.785	1924
4123.347	1977
4124.909	1953
4126.471	1947
4128.034	1929
4129.595	1967
4131.155	1926
4132.716	1949
4134.275	1929
4135.836	1935
4137.395	1871
4138.955	1982
4140.513	1900
4142.071	1918
4143.628	1877
4145.188	1909
4146.745	1924
4148.302	1939
4149.858	1873
4151.414	1882
4152.971	1861
4154.526	1919
4156.081	1844
4157.635	1902
4159.189	1883
4160.745	1893
4162.298	1923
4163.852	1938
4165.405	1915
4166.957	1866
4168.51	1869
4170.063	1841
4171.614	1866
4173.166	1910
4174.717	1830
4176.267	1847
4177.817	1879
4179.368	1878
4180.917	1838
4182.466	1876
4184.016	1889
4185.564	1845
4187.112	1836
4188.66	1794
4190.207	1803
4191.754	1861
4193.301	1824
4194.848	1847
4196.394	1874
4197.94	1867
4199.484	1804
4201.03	1810
4202.575	1871
4204.12	1768
4205.663	1884
4207.207	1849
4208.75	1830
4210.292	1843
4211.836	1799
4213.378	1810
4214.92	1817
4216.46	1826
4218.002	1870
4219.544	1817
4221.083	1865
4222.625	1821
4224.164	1808
4225.703	1792
4227.244	1836
4228.782	1845
4230.32	1800
4231.857	1774
4233.395	1826
4234.933	1890
4236.471	1819
4238.007	1809
4239.542	1818
4241.078	1766
4242.614	1788
4244.15	1806
4245.685	1779
4247.219	1802
4248.753	1780
4250.287	1798
4251.82	1821
4253.354	1778
4254.887	1799
4256.419	1773
4257.951	1773
4259.483	1771
4261.016	1774
4262.547	1791
4264.078	1794
4265.608	1779
4267.137	1768
4268.668	1772
4270.197	1806
4271.727	1796
4273.254	1748
4274.783	1776
4276.311	1761
4277.84	1817
4279.366	1758
4280.894	1726
4282.42	1747
4283.946	1787
4285.473	1734
4286.998	1818
4288.523	1752
4290.047	1811
4291.572	1754
4293.096	1757
4294.622	1787
4296.144	1766
4297.668	1755
4299.19	1801
4300.713	1701
4302.236	1763
4303.758	1781
4305.279	1718
4306.799	1756
4308.321	1758
4309.842	1695
4311.361	1739
4312.882	1764
4314.401	1744
