400.0961	4806
402.6185	4821
405.1424	4814
407.6635	4894
410.1838	4938
412.7035	4936
415.2225	4928
417.7388	4903
420.2585	4980
422.7754	4966
425.2917	4902
427.8072	4892
430.3221	5073
432.8363	5063
435.3498	5156
437.8626	5050
440.3727	5029
442.8841	5081
445.3969	5131
447.907	5112
450.4142	5112
452.9229	5191
455.4289	5145
457.9362	5083
460.4449	5167
462.9488	5046
465.454	5071
467.9566	5097
470.4604	5253
472.9637	5166
475.4662	5282
477.966	5119
480.4671	5170
482.9656	5152
485.4633	5255
487.9645	5330
490.4608	5227
492.9566	5331
495.4536	5300
497.948	5290
500.4437	5349
502.9387	5330
505.431	5384
507.9226	5374
510.4136	5418
512.9079	5374
515.3975	5341
517.8864	5377
520.3746	5360
522.8622	5352
525.3491	5325
527.8394	5457
530.3249	5352
532.8098	5412
535.2939	5338
537.7774	5344
540.2623	5378
542.7444	5420
545.2259	5342
547.7067	5380
550.1868	5332
552.6683	5363
555.147	5452
557.6231	5487
560.1005	5301
562.5773	5461
565.0534	5458
567.5308	5540
570.0056	5471
572.4776	5517
574.951	5434
577.4237	5444
579.8978	5567
582.3671	5646
584.8378	5587
587.3079	5583
589.7773	5611
592.244	5550
594.714	5585
597.1793	5616
599.6461	5618
602.1121	5524
604.5754	5434
607.0421	5590
609.5042	5536
611.9675	5582
614.4282	5650
616.8902	5580
619.3515	5655
621.8122	5566
624.2702	5571
626.7296	5450
629.1863	5597
631.6423	5517
634.1017	5624
636.5563	5620
639.0104	5563
641.4658	5595
643.9185	5529
646.3725	5721
648.8239	5685
651.2766	5557
653.7266	5588
656.176	5673
658.6247	5679
661.0748	5688
663.5242	5720
665.9709	5660
668.417	5777
670.8624	5741
673.3092	5725
675.7533	5702
678.1968	5672
680.6395	5665
683.0817	5742
685.5251	5687
687.9659	5826
690.4061	5816
692.8456	5836
695.2844	5758
697.7226	5783
700.1621	5789
702.599	5746
705.0332	5831
707.4688	5868
709.9036	5768
712.3399	5971
714.7735	5903
717.2044	5810
719.6367	6000
722.0683	5911
724.4993	5866
726.9296	5962
729.3593	5939
731.7883	5892
734.2147	6139
736.6423	6061
739.0714	6087
741.4958	5928
743.9216	6021
746.3447	6060
748.7691	6102
751.1929	6193
753.616	6118
756.0366	6182
758.4584	6130
760.8776	6158
763.2982	6132
765.718	6145
768.1373	6214
770.5539	6180
772.9698	6198
775.3871	6108
777.8038	6265
780.2178	6310
782.6332	6183
785.0459	6145
787.458	6229
789.8714	6199
792.2842	6182
794.6943	6182
797.1038	6114
799.5127	6144
801.9209	6148
804.3324	6208
806.7393	6304
809.1456	6112
811.5513	6219
813.9562	6098
816.3625	6283
818.7663	6337
821.1693	6292
823.5718	6311
825.9735	6339
828.3746	6397
830.7771	6246
833.177	6188
835.5762	6259
837.9747	6321
840.3727	6274
842.772	6323
845.1666	6346
847.5626	6473
849.958	6455
852.3527	6393
854.7488	6468
857.1403	6459
859.5331	6360
861.9253	6192
864.3168	6364
866.7057	6342
869.098	6375
871.4876	6397
873.8746	6294
876.263	6368
878.6487	6404
881.0378	6319
883.4243	6303
885.8081	6414
888.1933	6290
890.5759	6301
892.9598	6384
895.343	6370
897.7256	6439
900.1057	6425
902.4871	6478
904.8659	6320
907.246	6462
909.6254	6508
912.0023	6491
914.3786	6599
916.7562	6598
919.1331	6568
921.5074	6622
923.8831	6684
926.2562	6608
928.6287	6703
931.0005	6716
933.3757	6714
935.7462	6604
938.1162	6601
940.4855	6584
942.8542	6759
945.2242	6716
947.5916	6779
949.9584	6878
952.3266	7043
954.6921	7265
957.0571	7328
959.4233	7456
961.787	7432
964.15	7536
966.5125	7361
968.8742	7061
971.2354	6938
973.5959	6879
975.9559	6678
978.3151	6726
980.6738	6600
983.0338	6702
985.3912	6609
987.7461	6573
990.1022	6736
992.4578	6512
994.8127	6539
997.1689	6583
999.5207	6611
1001.874	6622
1004.226	6633
1006.576	6626
1008.929	6605
1011.28	6694
1013.628	6539
1015.977	6728
1018.324	6638
1020.674	6724
1023.019	6642
1025.366	6688
1027.713	6689
1030.056	6688
1032.399	6772
1034.746	6721
1037.087	6699
1039.431	6811
1041.771	6667
1044.113	6600
1046.454	6790
1048.793	6673
1051.133	6582
1053.471	6768
1055.807	6670
1058.146	6780
1060.483	6776
1062.818	6694
1065.153	6818
1067.489	6885
1069.822	6742
1072.156	6755
1074.488	6811
1076.82	6967
1079.15	6756
1081.48	6739
1083.814	6834
1086.143	6736
1088.471	6715
1090.799	6769
1093.126	6748
1095.452	6756
1097.78	6742
1100.105	6814
1102.43	6843
1104.754	6722
1107.077	6854
1109.4	6755
1111.722	6836
1114.044	6828
1116.365	6891
1118.685	6838
1121.005	6937
1123.324	6839
1125.643	6815
1127.961	6868
1130.278	6777
1132.595	6797
1134.911	6795
1137.226	6868
1139.541	6869
1141.854	6877
1144.167	6780
1146.482	6836
1148.793	6927
1151.105	6873
1153.414	6752
1155.725	6909
1158.033	6794
1160.344	6854
1162.651	6876
1164.959	6835
1167.265	6796
1169.572	6754
1171.878	6875
1174.184	6858
1176.488	6880
1178.79	6827
1181.094	6849
1183.396	6865
1185.699	6772
1188.001	6995
1190.301	6855
1192.6	6939
1194.9	6858
1197.2	6801
1199.497	6787
1201.794	6866
1204.09	6805
1206.387	6912
1208.684	6820
1210.978	6775
1213.272	6977
1215.565	6826
1217.858	6878
1220.15	6978
1222.443	7058
1224.734	6814
1227.024	6995
1229.313	7013
1231.602	6957
1233.892	6949
1236.18	7000
1238.467	7140
1240.754	7158
1243.04	6973
1245.325	7003
1247.612	7105
1249.896	7171
1252.178	7177
1254.461	7073
1256.743	7065
1259.027	7079
1261.308	7039
1263.587	7179
1265.867	7114
1268.146	7166
1270.425	7099
1272.703	7177
1274.981	7077
1277.256	7128
1279.532	7009
1281.808	7176
1284.083	7097
1286.358	7098
1288.63	7097
1290.904	7078
1293.175	7111
1295.449	7158
1297.719	7159
1299.99	7050
1302.259	7000
1304.529	7085
1306.798	7075
1309.065	6996
1311.333	7076
1313.599	6978
1315.866	6982
1318.131	7010
1320.396	7047
1322.66	7096
1324.925	6961
1327.187	7087
1329.448	7128
1331.711	7128
1333.974	7126
1336.234	7054
1338.493	7154
1340.752	7093
1343.01	7073
1345.269	7007
1347.526	7092
1349.784	7088
1352.04	7015
1354.295	7015
1356.552	7285
1358.806	7026
1361.059	7095
1363.312	7093
1365.564	7082
1367.818	7031
1370.069	7106
1372.318	7085
1374.568	7100
1376.817	7192
1379.066	7158
1381.316	7044
1383.564	7047
1385.809	7065
1388.056	7191
1390.301	7145
1392.549	7187
1394.793	7291
1397.036	7242
1399.279	7312
1401.522	7305
1403.763	7283
1406.007	7296
1408.248	7378
1410.487	7245
1412.727	7264
1414.965	7309
1417.205	7346
1419.442	7226
1421.68	7292
1423.915	7203
1426.152	7229
1428.388	7333
1430.623	7280
1432.857	7297
1435.091	7458
1437.323	7313
1439.556	7392
1441.789	7337
1444.019	7409
1446.25	7326
1448.48	7291
1450.708	7337
1452.938	7518
1455.167	7473
1457.394	7424
1459.62	7369
1461.846	7462
1464.073	7343
1466.299	7433
1468.523	7375
1470.746	7455
1472.969	7242
1475.191	7303
1477.415	7205
1479.636	7178
1481.858	7324
1484.078	7171
1486.298	7211
1488.518	7153
1490.736	7218
1492.954	7217
1495.169	7070
1497.386	7144
1499.602	7207
1501.819	7115
1504.034	7084
1506.248	7106
1508.462	7045
1510.675	7098
1512.888	7072
1515.1	7058
1517.311	7135
1519.522	7202
1521.732	7265
1523.942	7066
1526.151	7185
1528.36	7106
1530.566	7041
1532.773	7080
1534.98	7188
1537.187	7204
1539.392	7171
1541.596	6965
1543.801	7179
1546.005	7219
1548.208	7137
1550.411	7156
1552.612	7249
1554.814	7326
1557.013	7156
1559.212	7229
1561.414	7232
1563.612	7242
1565.811	7234
1568.007	7263
1570.203	7378
1572.403	7225
1574.598	7352
1576.792	7246
1578.988	7434
1581.181	7275
1583.376	7291
1585.568	7305
1587.761	7459
1589.952	7330
1592.143	7389
1594.333	7242
1596.524	7269
1598.715	7352
1600.903	7331
1603.091	7396
1605.278	7308
1607.466	7367
1609.652	7422
1611.838	7402
1614.023	7454
1616.207	7413
1618.391	7277
1620.576	7319
1622.759	7422
1624.941	7421
1627.123	7368
1629.304	7350
1631.484	7458
1633.664	7237
1635.844	7411
1638.022	7464
1640.201	7469
1642.38	7339
1644.556	7392
1646.732	7457
1648.908	7424
1651.084	7495
1653.257	7560
1655.433	7396
1657.607	7394
1659.779	7486
1661.951	7376
1664.122	7536
1666.295	7510
1668.467	7553
1670.635	7607
1672.805	7554
1674.973	7604
1677.142	7429
1679.31	7474
1681.478	7589
1683.644	7388
1685.81	7515
1687.975	7468
1690.142	7470
1692.305	7434
1694.468	7392
1696.632	7419
1698.794	7473
1700.957	7388
1703.119	7552
1705.279	7390
1707.439	7239
1709.598	7413
1711.758	7480
1713.917	7417
1716.075	7357
1718.231	7362
1720.388	7375
1722.543	7364
1724.702	7408
1726.856	7368
1729.01	7382
1731.164	7371
1733.317	7384
1735.471	7323
1737.623	7450
1739.774	7324
1741.925	7343
1744.075	7466
1746.225	7410
1748.376	7340
1750.524	7407
1752.672	7335
1754.82	7389
1756.965	7313
1759.113	7312
1761.259	7356
1763.405	7397
1765.549	7338
1767.694	7419
1769.836	7354
1771.981	7494
1774.123	7444
1776.264	7446
1778.405	7501
1780.546	7371
1782.687	7400
1784.827	7411
1786.966	7484
1789.103	7414
1791.242	7486
1793.381	7522
1795.517	7418
1797.653	7357
1799.788	7519
1801.923	7449
1804.057	7522
1806.193	7390
1808.326	7585
1810.457	7382
1812.59	7404
1814.721	7507
1816.855	7332
1818.984	7436
1821.113	7414
1823.244	7502
1825.372	7394
1827.499	7413
1829.63	7416
1831.756	7434
1833.882	7396
1836.007	7411
1838.132	7361
1840.26	7462
1842.384	7395
1844.507	7319
1846.63	7230
1848.752	7351
1850.875	7303
1852.996	7306
1855.118	7391
1857.238	7360
1859.358	7379
1861.477	7349
1863.597	7372
1865.715	7408
1867.832	7386
1869.948	7367
1872.064	7253
1874.181	7373
1876.297	7270
1878.411	7292
1880.526	7502
1882.639	7358
1884.752	7350
1886.865	7475
1888.977	7388
1891.089	7380
1893.2	7431
1895.308	7473
1897.42	7487
1899.53	7397
1901.639	7472
1903.745	7431
1905.853	7456
1907.962	7504
1910.067	7428
1912.174	7529
1914.278	7468
1916.383	7581
1918.486	7401
1920.592	7472
1922.694	7476
1924.797	7521
1926.898	7544
1929	7476
1931.102	7470
1933.203	7473
1935.301	7547
1937.401	7462
1939.499	7459
1941.598	7447
1943.697	7499
1945.793	7441
1947.888	7539
1949.985	7409
1952.08	7507
1954.176	7380
1956.269	7456
1958.364	7407
1960.457	7453
1962.549	7577
1964.642	7393
1966.733	7492
1968.823	7435
1970.913	7482
1973.005	7454
1975.093	7345
1977.184	7466
1979.271	7465
1981.359	7466
1983.446	7434
1985.532	7373
1987.619	7506
1989.705	7316
1991.789	7439
1993.874	7477
1995.956	7285
1998.041	7404
2000.123	7403
2002.206	7503
2004.287	7409
2006.368	7382
2008.449	7515
2010.529	7466
2012.609	7387
2014.688	7307
2016.766	7305
2018.843	7381
2020.922	7400
2022.999	7495
2025.074	7374
2027.15	7359
2029.225	7402
2031.299	7354
2033.375	7367
2035.447	7285
2037.52	7423
2039.592	7482
2041.664	7362
2043.736	7493
2045.807	7393
2047.876	7325
2049.947	7369
2052.015	7349
2054.086	7523
2056.153	7451
2058.221	7400
2060.288	7383
2062.353	7422
2064.42	7289
2066.486	7352
2068.55	7471
2070.614	7478
2072.678	7302
2074.741	7344
2076.805	7362
2078.866	7439
2080.929	7386
2082.99	7262
2085.049	7475
2087.109	7370
2089.17	7334
2091.228	7331
2093.286	7394
2095.344	7274
2097.4	7406
2099.46	7412
2101.516	7360
2103.572	7345
2105.626	7405
2107.679	7425
2109.735	7330
2111.788	7356
2113.841	7253
2115.894	7294
2117.945	7355
2119.997	7226
2122.049	7273
2124.1	7404
2126.148	7405
2128.197	7462
2130.246	7452
2132.296	7368
2134.342	7368
2136.39	7443
2138.437	7436
2140.483	7215
2142.527	7348
2144.574	7309
2146.619	7299
2148.661	7313
2150.705	7201
2152.747	7331
2154.792	7456
2156.832	7205
2158.874	7352
2160.915	7344
2162.954	7269
2164.995	7398
2167.034	7342
2169.072	7312
2171.111	7250
2173.148	7259
2175.186	7370
2177.223	7165
2179.258	7287
2181.294	7251
2183.328	7180
2185.362	7399
2187.398	7185
2189.431	7283
2191.463	7236
2193.495	7247
2195.528	7147
2197.56	7230
2199.59	7263
2201.62	7096
2203.649	7185
2205.678	7253
2207.708	7207
2209.737	7267
2211.764	7152
2213.791	7199
2215.817	7103
2217.843	7176
2219.87	7267
2221.895	7120
2223.919	7207
2225.942	7224
2227.966	7263
2229.988	7078
2232.012	7101
2234.032	7221
2236.054	7104
2238.074	7112
2240.095	7164
2242.116	7128
2244.135	7051
2246.153	7167
2248.171	7146
2250.188	7243
2252.208	7055
2254.223	7232
2256.239	7142
2258.255	7122
2260.269	7167
2262.283	7111
2264.3	7183
2266.312	7005
2268.325	7099
2270.336	7203
2272.349	7111
2274.362	7170
2276.372	7159
2278.383	7183
2280.392	7107
2282.402	7111
2284.409	7126
2286.418	7185
2288.427	7281
2290.433	7084
2292.441	7107
2294.446	7092
2296.453	7042
2298.459	7157
2300.463	7164
2302.466	7054
2304.471	7052
2306.475	7211
2308.477	7221
2310.478	7247
2312.481	7134
2314.481	7085
2316.481	7055
2318.482	7055
2320.482	7133
2322.48	7052
2324.48	7080
2326.478	7082
2328.476	7123
2330.473	7099
2332.469	7114
2334.465	7017
2336.46	7071
2338.454	7106
2340.45	7021
2342.444	7025
2344.437	6967
2346.43	7051
2348.421	7037
2350.414	7113
2352.405	6955
2354.396	7009
2356.386	6927
2358.376	6905
2360.366	6987
2362.355	6988
2364.343	7051
2366.331	6957
2368.317	6993
2370.304	6915
2372.292	6997
2374.278	6944
2376.262	7024
2378.247	6883
2380.23	6959
2382.216	6874
2384.199	6971
2386.181	6908
2388.163	6916
2390.144	6929
2392.127	7026
2394.107	6980
2396.087	6952
2398.066	6835
2400.046	6982
2402.023	6858
2404.004	6810
2405.981	6981
2407.957	6951
2409.934	7002
2411.91	6797
2413.886	6913
2415.862	6850
2417.836	6834
2419.809	6871
2421.784	6776
2423.756	6769
2425.73	6881
2427.701	6838
2429.672	6891
2431.644	6863
2433.615	6819
2435.586	6749
2437.555	6943
2439.523	6774
2441.491	6775
2443.459	6913
2445.428	6797
2447.395	6825
2449.361	6928
2451.327	6768
2453.292	6942
2455.257	6858
2457.223	6803
2459.187	6836
2461.15	6845
2463.113	6846
2465.076	6739
2467.039	6765
2468.999	6752
2470.96	6830
2472.921	6714
2474.881	6803
2476.841	6680
2478.8	6716
2480.759	6754
2482.717	6647
2484.675	6717
2486.63	6796
2488.589	6744
2490.545	6720
2492.5	6737
2494.455	6666
2496.408	6748
2498.364	6739
2500.318	6776
2502.27	6688
2504.223	6774
2506.174	6671
2508.126	6666
2510.078	6829
2512.03	6718
2513.979	6792
2515.927	6682
2517.877	6800
2519.826	6639
2521.775	6618
2523.722	6740
2525.668	6653
2527.616	6604
2529.561	6651
2531.508	6788
2533.452	6706
2535.398	6684
2537.342	6563
2539.284	6628
2541.229	6671
2543.173	6721
2545.114	6762
2547.055	6757
2548.996	6651
2550.938	6660
2552.878	6700
2554.817	6693
2556.756	6648
2558.695	6581
2560.633	6645
2562.572	6693
2564.509	6766
2566.445	6604
2568.382	6719
2570.317	6700
2572.254	6650
2574.189	6714
2576.123	6655
2578.057	6642
2579.99	6726
2581.923	6677
2583.855	6592
2585.788	6613
2587.719	6750
2589.65	6739
2591.579	6644
2593.511	6729
2595.44	6708
2597.37	6669
2599.297	6601
2601.225	6720
2603.153	6583
2605.08	6685
2607.007	6641
2608.932	6637
2610.858	6639
2612.782	6736
2614.709	6596
2616.632	6568
2618.556	6623
2620.478	6705
2622.401	6772
2624.324	6646
2626.247	6610
2628.167	6675
2630.088	6721
2632.008	6690
2633.928	6630
2635.848	6701
2637.766	6690
2639.684	6730
2641.603	6672
2643.519	6642
2645.437	6673
2647.353	6665
2649.27	6839
2651.184	6612
2653.099	6681
2655.014	6590
2656.928	6679
2658.842	6688
2660.755	6585
2662.667	6670
2664.579	6585
2666.491	6603
2668.402	6686
2670.312	6618
2672.222	6762
2674.132	6580
2676.042	6673
2677.951	6673
2679.859	6625
2681.766	6542
2683.674	6546
2685.582	6555
2687.488	6624
2689.392	6637
2691.298	6573
2693.202	6623
2695.107	6635
2697.012	6509
2698.914	6569
2700.817	6591
2702.72	6583
2704.622	6598
2706.524	6555
2708.425	6479
2710.326	6625
2712.225	6539
2714.125	6565
2716.024	6554
2717.923	6557
2719.822	6494
2721.719	6466
2723.616	6475
2725.512	6499
2727.41	6570
2729.305	6546
2731.201	6508
2733.095	6568
2734.99	6572
2736.884	6467
2738.778	6375
2740.67	6539
2742.562	6504
2744.455	6465
2746.346	6499
2748.238	6388
2750.129	6440
2752.018	6449
2753.907	6474
2755.797	6403
2757.687	6575
2759.575	6377
2761.462	6440
2763.349	6411
2765.237	6514
2767.124	6479
2769.009	6527
2770.894	6331
2772.779	6273
2774.663	6513
2776.547	6459
2778.431	6487
2780.314	6496
2782.197	6486
2784.078	6488
2785.96	6374
2787.842	6448
2789.723	6402
2791.603	6393
2793.483	6279
2795.362	6364
2797.241	6431
2799.121	6344
2800.997	6406
2802.874	6407
2804.751	6311
2806.628	6293
2808.506	6385
2810.38	6345
2812.255	6297
2814.13	6481
2816.003	6285
2817.878	6279
2819.752	6333
2821.623	6460
2823.496	6296
2825.368	6383
2827.238	6284
2829.111	6412
2830.98	6396
2832.851	6392
2834.719	6295
2836.589	6307
2838.458	6335
2840.327	6378
2842.193	6349
2844.061	6364
2845.927	6416
2847.794	6430
2849.66	6432
2851.525	6343
2853.39	6427
2855.254	6504
2857.117	6425
2858.983	6357
2860.845	6437
2862.707	6462
2864.569	6566
2866.431	6366
2868.293	6463
2870.154	6492
2872.013	6607
2873.873	6512
2875.733	6549
2877.592	6678
2879.451	6616
2881.309	6727
2883.166	6777
2885.022	6680
2886.879	6735
2888.736	6699
2890.591	6790
2892.446	6731
2894.301	6699
2896.155	6795
2898.009	6781
2899.863	6702
2901.716	6727
2903.568	6685
2905.419	6595
2907.27	6780
2909.123	6839
2910.973	6703
2912.824	6813
2914.673	6664
2916.521	6725
2918.372	6878
2920.22	6831
2922.067	6845
2923.914	6901
2925.761	6962
2927.607	6930
2929.455	6911
2931.301	7020
2933.144	7070
2934.99	6959
2936.833	7089
2938.678	7135
2940.522	7147
2942.364	7212
2944.207	7230
2946.048	7296
2947.891	7262
2949.731	7298
2951.571	7205
2953.412	7272
2955.25	7153
2957.09	7127
2958.93	7189
2960.767	7108
2962.606	7083
2964.443	7078
2966.279	7120
2968.116	7045
2969.953	6907
2971.788	6914
2973.623	6806
2975.457	6903
2977.292	6721
2979.127	6609
2980.959	6820
2982.792	6639
2984.624	6638
2986.455	6522
2988.288	6574
2990.119	6636
2991.949	6604
2993.779	6489
2995.608	6524
2997.439	6405
2999.268	6399
3001.096	6426
3002.923	6458
3004.751	6347
3006.578	6192
3008.406	6361
3010.232	6355
3012.057	6201
3013.883	6297
3015.706	6157
3017.532	6181
3019.356	6149
3021.179	6099
3023.002	6161
3024.823	6110
3026.646	6019
3028.469	6012
3030.289	6028
3032.11	5973
3033.93	5930
3035.749	6050
3037.57	5964
3039.39	5987
3041.207	5959
3043.026	5863
3044.842	6023
3046.661	5901
3048.477	5886
3050.294	5895
3052.109	6005
3053.925	5866
3055.739	5975
3057.555	5896
3059.368	5964
3061.181	5904
3062.995	5921
3064.807	5927
3066.62	5909
3068.433	6006
3070.243	5812
3072.054	5873
3073.865	5922
3075.675	5965
3077.485	5946
3079.293	5868
3081.102	5834
3082.911	5917
3084.719	5726
3086.527	5806
3088.333	5860
3090.139	5843
3091.945	5859
3093.75	5777
3095.557	5744
3097.361	5788
3099.165	5897
3100.969	5818
3102.772	5783
3104.575	5860
3106.379	5686
3108.181	5730
3109.982	5714
3111.783	5778
3113.584	5837
3115.386	5641
3117.186	5806
3118.985	5709
3120.783	5651
3122.582	5665
3124.381	5648
3126.179	5671
3127.975	5633
3129.772	5680
3131.569	5631
3133.365	5617
3135.161	5631
3136.956	5639
3138.751	5678
3140.544	5637
3142.338	5695
3144.132	5626
3145.925	5594
3147.717	5693
3149.509	5549
3151.301	5523
3153.091	5504
3154.884	5638
3156.673	5537
3158.462	5577
3160.252	5531
3162.041	5538
3163.831	5586
3165.618	5526
3167.405	5583
3169.193	5563
3170.979	5560
3172.767	5434
3174.553	5486
3176.338	5528
3178.123	5518
3179.907	5528
3181.692	5550
3183.477	5582
3185.259	5448
3187.042	5591
3188.824	5558
3190.607	5508
3192.389	5520
3194.17	5546
3195.951	5408
3197.73	5449
3199.51	5505
3201.289	5567
3203.07	5571
3204.848	5421
3206.626	5411
3208.403	5455
3210.18	5451
3211.959	5425
3213.735	5532
3215.511	5470
3217.285	5381
3219.06	5523
3220.836	5438
3222.611	5308
3224.384	5527
3226.158	5379
3227.929	5364
3229.702	5418
3231.476	5509
3233.248	5283
3235.018	5462
3236.789	5484
3238.56	5392
3240.33	5424
3242.1	5452
3243.869	5427
3245.637	5503
3247.405	5344
3249.172	5427
3250.941	5429
3252.707	5402
3254.474	5418
3256.24	5451
3258.006	5303
3259.772	5420
3261.537	5354
3263.301	5420
3265.065	5433
3266.828	5415
3268.592	5458
3270.355	5445
3272.117	5397
3273.878	5413
3275.64	5343
3277.401	5469
3279.162	5289
3280.922	5329
3282.682	5346
3284.441	5368
3286.199	5461
3287.959	5392
3289.716	5314
3291.475	5408
3293.232	5390
3294.988	5331
3296.744	5437
3298.501	5360
3300.256	5253
3302.011	5410
3303.766	5318
3305.52	5404
3307.275	5390
3309.028	5430
3310.781	5368
3312.533	5372
3314.285	5291
3316.038	5313
3317.789	5284
3319.54	5361
3321.289	5366
3323.039	5344
3324.789	5338
3326.539	5321
3328.288	5295
3330.035	5312
3331.783	5297
3333.531	5301
3335.28	5374
3337.025	5297
3338.771	5321
3340.518	5344
3342.262	5210
3344.009	5265
3345.753	5240
3347.497	5341
3349.24	5303
3350.983	5206
3352.726	5251
3354.469	5236
3356.212	5196
3357.952	5223
3359.694	5155
3361.434	5241
3363.176	5107
3364.916	5285
3366.654	5244
3368.394	5225
3370.132	5220
3371.871	5170
3373.61	5159
3375.346	5262
3377.083	5185
3378.82	5124
3380.556	5179
3382.292	5085
3384.027	5185
3385.763	5199
3387.497	5122
3389.231	5227
3390.965	5188
3392.698	5105
3394.431	5212
3396.164	5168
3397.896	5048
3399.627	5054
3401.36	5067
3403.09	5125
3404.82	5139
3406.55	5145
3408.279	5154
3410.01	5104
3411.738	5229
3413.467	5144
3415.194	5101
3416.92	5155
3418.647	5026
3420.375	5035
3422.102	5127
3423.827	5038
3425.553	5071
3427.277	5118
3429.003	4992
3430.727	5082
3432.451	5039
3434.173	5085
3435.896	4999
3437.62	5033
3439.343	4979
3441.063	4946
3442.785	5075
3444.505	4939
3446.226	4929
3447.948	4906
3449.666	4998
3451.386	4950
3453.104	4987
3454.823	5002
3456.541	4944
3458.259	4986
3459.976	4960
3461.693	4999
3463.408	5056
3465.125	4872
3466.841	4905
3468.556	4932
3470.271	4930
3471.985	4935
3473.698	4868
3475.414	4888
3477.126	4829
3478.838	4874
3480.55	4908
3482.263	4824
3483.975	4852
3485.686	4847
3487.396	4763
3489.106	4801
3490.817	4875
3492.526	4740
3494.236	4777
3495.944	4721
3497.652	4849
3499.359	4884
3501.066	4833
3502.775	4814
3504.481	4840
3506.187	4743
3507.893	4697
3509.598	4711
3511.304	4810
3513.009	4794
3514.713	4735
3516.417	4726
3518.12	4731
3519.821	4728
3521.525	4705
3523.228	4675
3524.929	4731
3526.631	4689
3528.33	4624
3530.032	4651
3531.733	4703
3533.433	4627
3535.131	4767
3536.83	4670
3538.529	4672
3540.227	4679
3541.925	4697
3543.623	4721
3545.319	4730
3547.016	4685
3548.712	4767
3550.408	4676
3552.103	4668
3553.798	4658
3555.491	4695
3557.188	4640
3558.88	4646
3560.574	4655
3562.266	4749
3563.959	4660
3565.651	4691
3567.343	4612
3569.035	4590
3570.725	4609
3572.415	4624
3574.106	4566
3575.797	4561
3577.485	4554
3579.174	4492
3580.863	4553
3582.551	4605
3584.238	4451
3585.926	4596
3587.613	4615
3589.3	4544
3590.986	4590
3592.671	4480
3594.357	4527
3596.042	4531
3597.726	4329
3599.41	4471
3601.094	4536
3602.778	4546
3604.461	4530
3606.143	4485
3607.825	4521
3609.507	4392
3611.188	4512
3612.87	4441
3614.551	4459
3616.229	4499
3617.909	4455
3619.589	4569
3621.269	4433
3622.948	4494
3624.625	4375
3626.302	4395
3627.98	4475
3629.657	4358
3631.334	4438
3633.01	4433
3634.686	4282
3636.361	4429
3638.036	4367
3639.712	4350
3641.385	4327
3643.06	4357
3644.732	4324
3646.405	4317
3648.08	4289
3649.751	4311
3651.424	4318
3653.094	4268
3654.766	4351
3656.436	4356
3658.106	4297
3659.777	4296
3661.446	4276
3663.115	4330
3664.783	4234
3666.452	4327
3668.121	4242
3669.788	4240
3671.454	4288
3673.121	4279
3674.789	4113
3676.455	4232
3678.12	4267
3679.784	4192
3681.45	4251
3683.114	4226
3684.779	4302
3686.442	4158
3688.105	4189
3689.768	4223
3691.43	4238
3693.093	4144
3694.754	4207
3696.415	4249
3698.076	4185
3699.736	4197
3701.396	4204
3703.057	4207
3704.716	4116
3706.375	4216
3708.034	4273
3709.692	4132
3711.351	4220
3713.008	4133
3714.665	4178
3716.321	4156
3717.977	4141
3719.634	4165
3721.29	4276
3722.945	4158
3724.598	4144
3726.253	4211
3727.907	4176
3729.561	4182
3731.214	4144
3732.867	4151
3734.518	4140
3736.171	4130
3737.824	4135
3739.474	4163
3741.125	4174
3742.775	4071
3744.425	4064
3746.074	4141
3747.725	4090
3749.373	4077
3751.022	4124
3752.669	4117
3754.318	4100
3755.966	4032
3757.612	4012
3759.259	4064
3760.905	4076
3762.55	4134
3764.197	3954
3765.842	4006
3767.486	4052
3769.131	4091
3770.774	4074
3772.417	4010
3774.061	4110
3775.705	4037
3777.347	3992
3778.988	4063
3780.629	4044
3782.271	4148
3783.912	3979
3785.552	4017
3787.192	3959
3788.831	3963
3790.472	3986
3792.112	3959
3793.75	3955
3795.388	3895
3797.024	3914
3798.661	3972
3800.3	3985
3801.936	3966
3803.572	4005
3805.208	4049
3806.844	3961
3808.48	3996
3810.115	3905
3811.748	3969
3813.382	3986
3815.016	3982
3816.649	3968
3818.283	3930
3819.914	3918
3821.547	3894
3823.178	3880
3824.809	3861
3826.441	3855
3828.072	3979
3829.701	3892
3831.331	3872
3832.96	3956
3834.591	3923
3836.219	3943
3837.847	3851
3839.475	3867
3841.102	3831
3842.729	3889
3844.357	3905
3845.984	3869
3847.609	3835
3849.234	3857
3850.86	3704
3852.485	3920
3854.11	3777
3855.734	3797
3857.357	3858
3858.981	3826
3860.603	3800
3862.227	3851
3863.848	3879
3865.471	3814
3867.092	3773
3868.713	3812
3870.334	3849
3871.954	3818
3873.575	3841
3875.194	3844
3876.813	3790
3878.433	3818
3880.051	3755
3881.669	3737
3883.286	3768
3884.904	3811
3886.52	3837
3888.138	3720
3889.754	3822
3891.37	3742
3892.985	3712
3894.6	3677
3896.216	3773
3897.831	3757
3899.444	3749
3901.058	3758
3902.67	3726
3904.283	3739
3905.897	3729
3907.509	3738
3909.121	3729
3910.731	3765
3912.342	3731
3913.954	3717
3915.563	3665
3917.174	3712
3918.783	3718
3920.391	3785
3922.002	3694
3923.611	3681
3925.218	3704
3926.826	3685
3928.432	3672
3930.039	3726
3931.647	3652
3933.253	3690
3934.859	3696
3936.464	3752
3938.068	3682
3939.675	3685
3941.278	3604
3942.883	3671
3944.486	3603
3946.089	3720
3947.692	3670
3949.295	3633
3950.898	3681
3952.499	3682
3954.1	3610
3955.7	3616
3957.303	3619
3958.903	3712
3960.502	3682
3962.101	3573
3963.7	3628
3965.301	3692
3966.899	3621
3968.497	3624
3970.094	3554
3971.691	3670
3973.288	3603
3974.885	3587
3976.481	3523
3978.077	3594
3979.672	3619
3981.267	3531
3982.863	3581
3984.457	3545
3986.051	3529
3987.645	3569
3989.238	3602
3990.831	3600
3992.425	3485
3994.017	3524
3995.607	3532
3997.199	3541
3998.79	3466
4000.382	3599
4001.973	3547
4003.561	3540
4005.151	3471
4006.741	3537
4008.331	3568
4009.918	3522
4011.507	3453
4013.095	3547
4014.681	3452
4016.269	3425
4017.856	3444
4019.443	3466
4021.028	3470
4022.614	3448
4024.199	3434
4025.785	3475
4027.37	3442
4028.953	3547
4030.536	3425
4032.12	3439
4033.704	3434
4035.287	3349
4036.869	3378
4038.45	3413
4040.032	3450
4041.613	3443
4043.195	3323
4044.776	3326
4046.356	3444
4047.935	3405
4049.515	3374
4051.095	3404
4052.674	3335
4054.251	3409
4055.829	3385
4057.406	3392
4058.985	3381
4060.562	3339
4062.139	3428
4063.715	3355
4065.29	3311
4066.865	3352
4068.442	3342
4070.016	3262
4071.59	3328
4073.164	3387
4074.738	3303
4076.312	3333
4077.885	3350
4079.458	3300
4081.03	3268
4082.602	3271
4084.173	3229
4085.745	3311
4087.315	3322
4088.886	3357
4090.456	3364
4092.026	3305
4093.596	3320
4095.165	3281
4096.734	3339
4098.301	3368
4099.869	3269
4101.437	3256
4103.006	3257
4104.572	3227
4106.139	3271
4107.704	3219
4109.27	3230
4110.837	3221
4112.401	3249
4113.966	3297
4115.53	3253
4117.094	3245
4118.659	3226
4120.223	3158
4121.785	3274
4123.347	3306
4124.909	3208
4126.471	3244
4128.034	3137
4129.595	3318
4131.155	3213
4132.716	3219
4134.275	3176
4135.836	3197
4137.395	3214
4138.955	3194
4140.513	3150
4142.071	3177
4143.628	3142
4145.188	3146
4146.745	3139
4148.302	3116
4149.858	3114
4151.414	3125
4152.971	3124
4154.526	3141
4156.081	3198
4157.635	3099
4159.189	3125
4160.745	3113
4162.298	3150
4163.852	3141
4165.405	3229
4166.957	3135
4168.51	3103
4170.063	3081
4171.614	3088
4173.166	3125
4174.717	3180
4176.267	3070
4177.817	3086
4179.368	3034
4180.917	3132
4182.466	3018
4184.016	3022
4185.564	3079
4187.112	3073
4188.66	2991
4190.207	3038
4191.754	3112
4193.301	3066
4194.848	3026
4196.394	3001
4197.94	3047
4199.484	3004
4201.03	3044
4202.575	3038
4204.12	3080
4205.663	3065
4207.207	3001
4208.75	2985
4210.292	3054
4211.836	3026
4213.378	2961
4214.92	3038
4216.46	3006
4218.002	2989
4219.544	3041
4221.083	3008
4222.625	3036
4224.164	2983
4225.703	3034
4227.244	3035
4228.782	2927
4230.32	2990
4231.857	2923
4233.395	2960
4234.933	3013
4236.471	2970
4238.007	2947
4239.542	2988
4241.078	2927
4242.614	2940
4244.15	2947
4245.685	2963
4247.219	2911
4248.753	2987
4250.287	2959
4251.82	3026
4253.354	2962
4254.887	2976
4256.419	2967
4257.951	2950
4259.483	2889
4261.016	2966
4262.547	2944
4264.078	2919
4265.608	2929
4267.137	2983
4268.668	2932
4270.197	2990
4271.727	2927
4273.254	2938
4274.783	2965
4276.311	2893
4277.84	2911
4279.366	2842
4280.894	2865
4282.42	2826
4283.946	2894
4285.473	2930
4286.998	2889
4288.523	2850
4290.047	2975
4291.572	2862
4293.096	2824
4294.622	2879
4296.144	2851
4297.668	2870
4299.19	2838
4300.713	2802
4302.236	2827
4303.758	2882
4305.279	2858
4306.799	2816
4308.321	2903
4309.842	2797
4311.361	2854
4312.882	2832
4314.401	2840
