400.0961	3756
402.6185	3820
405.1424	3780
407.6635	3799
410.1838	3813
412.7035	3856
415.2225	3820
417.7388	3831
420.2585	3918
422.7754	3952
425.2917	4032
427.8072	4004
430.3221	4032
432.8363	4140
435.3498	4054
437.8626	3997
440.3727	4051
442.8841	4099
445.3969	4045
447.907	4018
450.4142	4155
452.9229	4044
455.4289	4066
457.9362	4113
460.4449	3974
462.9488	4048
465.454	4067
467.9566	4037
470.4604	3942
472.9637	4054
475.4662	4098
477.966	3997
480.4671	3981
482.9656	4002
485.4633	4084
487.9645	4050
490.4608	4030
492.9566	4150
495.4536	4017
497.948	4088
500.4437	4116
502.9387	4191
505.431	4070
507.9226	3987
510.4136	4181
512.9079	4115
515.3975	4074
517.8864	4189
520.3746	4101
522.8622	4150
525.3491	4100
527.8394	4253
530.3249	4164
532.8098	4147
535.2939	4145
537.7774	4138
540.2623	4216
542.7444	4124
545.2259	4209
547.7067	4140
550.1868	4183
552.6683	4222
555.147	4230
557.6231	4184
560.1005	4181
562.5773	4341
565.0534	4252
567.5308	4373
570.0056	4250
572.4776	4340
574.951	4335
577.4237	4360
579.8978	4349
582.3671	4381
584.8378	4279
587.3079	4338
589.7773	4382
592.244	4444
594.714	4359
597.1793	4380
599.6461	4366
602.1121	4338
604.5754	4316
607.0421	4254
609.5042	4262
611.9675	4336
614.4282	4317
616.8902	4338
619.3515	4344
621.8122	4350
624.2702	4274
626.7296	4222
629.1863	4322
631.6423	4318
634.1017	4330
636.5563	4330
639.0104	4317
641.4658	4311
643.9185	4316
646.3725	4359
648.8239	4285
651.2766	4356
653.7266	4357
656.176	4284
658.6247	4244
661.0748	4437
663.5242	4455
665.9709	4375
668.417	4397
670.8624	4411
673.3092	4364
675.7533	4487
678.1968	4397
680.6395	4351
683.0817	4461
685.5251	4409
687.9659	4413
690.4061	4452
692.8456	4559
695.2844	4446
697.7226	4560
700.1621	4566
702.599	4394
705.0332	4535
707.4688	4547
709.9036	4585
712.3399	4576
714.7735	4489
717.2044	4505
719.6367	4542
722.0683	4598
724.4993	4517
726.9296	4616
729.3593	4607
731.7883	4647
734.2147	4562
736.6423	4626
739.0714	4613
741.4958	4689
743.9216	4636
746.3447	4679
748.7691	4568
751.1929	4713
753.616	4784
756.0366	4681
758.4584	4649
760.8776	4729
763.2982	4729
765.718	4828
768.1373	4751
770.5539	4750
772.9698	4701
775.3871	4803
777.8038	4815
780.2178	4849
782.6332	4769
785.0459	4765
787.458	4789
789.8714	4771
792.2842	4708
794.6943	4693
797.1038	4792
799.5127	4789
801.9209	4765
804.3324	4825
806.7393	4845
809.1456	4786
811.5513	4813
813.9562	4768
816.3625	4823
818.7663	4831
821.1693	4856
823.5718	4828
825.9735	4735
828.3746	4839
830.7771	4800
833.177	4874
835.5762	4807
837.9747	4880
840.3727	4788
842.772	4872
845.1666	4803
847.5626	4878
849.958	5087
852.3527	5018
854.7488	4915
857.1403	5008
859.5331	4898
861.9253	4952
864.3168	5003
866.7057	4840
869.098	5006
871.4876	4922
873.8746	4948
876.263	4973
878.6487	4869
881.0378	4900
883.4243	4926
885.8081	4945
888.1933	4931
890.5759	4994
892.9598	4826
895.343	4953
897.7256	4854
900.1057	4885
902.4871	4914
904.8659	5006
907.246	5028
909.6254	5007
912.0023	5138
914.3786	5077
916.7562	5056
919.1331	5194
921.5074	5121
923.8831	5202
926.2562	5235
928.6287	5153
931.0005	5155
933.3757	5174
935.7462	5168
938.1162	5195
940.4855	5216
942.8542	5304
945.2242	5283
947.5916	5493
949.9584	5650
952.3266	5742
954.6921	6060
957.0571	6298
959.4233	6452
961.787	6550
964.15	6344
966.5125	6293
968.8742	6016
971.2354	5782
973.5959	5510
975.9559	5325
978.3151	5346
980.6738	5292
983.0338	5135
985.3912	5154
987.7461	5197
990.1022	5121
992.4578	5072
994.8127	5179
997.1689	5139
999.5207	5128
1001.874	5222
1004.226	5253
1006.576	5184
1008.929	5162
1011.28	5163
1013.628	5119
1015.977	5221
1018.324	5152
1020.674	5155
1023.019	5060
1025.366	5241
1027.713	5191
1030.056	5172
1032.399	5220
1034.746	5116
1037.087	5171
1039.431	5199
1041.771	5142
1044.113	5258
1046.454	5231
1048.793	5174
1051.133	5189
1053.471	5293
1055.807	5243
1058.146	5245
1060.483	5217
1062.818	5298
1065.153	5381
1067.489	5353
1069.822	5394
1072.156	5254
1074.488	5408
1076.82	5360
1079.15	5439
1081.48	5351
1083.814	5353
1086.143	5348
1088.471	5336
1090.799	5248
1093.126	5290
1095.452	5274
1097.78	5252
1100.105	5230
1102.43	5368
1104.754	5241
1107.077	5095
1109.4	5262
1111.722	5316
1114.044	5329
1116.365	5222
1118.685	5192
1121.005	5250
1123.324	5323
1125.643	5334
1127.961	5301
1130.278	5288
1132.595	5162
1134.911	5373
1137.226	5184
1139.541	5280
1141.854	5198
1144.167	5295
1146.482	5286
1148.793	5202
1151.105	5331
1153.414	5251
1155.725	5156
1158.033	5158
1160.344	5268
1162.651	5319
1164.959	5221
1167.265	5355
1169.572	5272
1171.878	5159
1174.184	5293
1176.488	5302
1178.79	5280
1181.094	5389
1183.396	5212
1185.699	5152
1188.001	5316
1190.301	5184
1192.6	5248
1194.9	5169
1197.2	5257
1199.497	5314
1201.794	5256
1204.09	5254
1206.387	5266
1208.684	5242
1210.978	5157
1213.272	5256
1215.565	5255
1217.858	5268
1220.15	5283
1222.443	5394
1224.734	5282
1227.024	5330
1229.313	5370
1231.602	5380
1233.892	5383
1236.18	5398
1238.467	5461
1240.754	5481
1243.04	5543
1245.325	5468
1247.612	5447
1249.896	5495
1252.178	5622
1254.461	5563
1256.743	5456
1259.027	5461
1261.308	5452
1263.587	5624
1265.867	5479
1268.146	5573
1270.425	5513
1272.703	5471
1274.981	5564
1277.256	5466
1279.532	5466
1281.808	5449
1284.083	5554
1286.358	5418
1288.63	5410
1290.904	5362
1293.175	5505
1295.449	5370
1297.719	5479
1299.99	5415
1302.259	5386
1304.529	5448
1306.798	5404
1309.065	5387
1311.333	5455
1313.599	5368
1315.866	5379
1318.131	5382
1320.396	5493
1322.66	5529
1324.925	5394
1327.187	5497
1329.448	5410
1331.711	5478
1333.974	5452
1336.234	5462
1338.493	5465
1340.752	5394
1343.01	5453
1345.269	5425
1347.526	5454
1349.784	5398
1352.04	5466
1354.295	5501
1356.552	5462
1358.806	5394
1361.059	5422
1363.312	5439
1365.564	5433
1367.818	5465
1370.069	5440
1372.318	5495
1374.568	5447
1376.817	5555
1379.066	5420
1381.316	5476
1383.564	5567
1385.809	5495
1388.056	5518
1390.301	5621
1392.549	5549
1394.793	5599
1397.036	5523
1399.279	5663
1401.522	5599
1403.763	5673
1406.007	5705
1408.248	5578
1410.487	5549
1412.727	5765
1414.965	5724
1417.205	5627
1419.442	5642
1421.68	5570
1423.915	5680
1426.152	5533
1428.388	5573
1430.623	5597
1432.857	5687
1435.091	5649
1437.323	5691
1439.556	5629
1441.789	5925
1444.019	5811
1446.25	5812
1448.48	5784
1450.708	5719
1452.938	5834
1455.167	5772
1457.394	5872
1459.62	5769
1461.846	5778
1464.073	5757
1466.299	5701
1468.523	5766
1470.746	5688
1472.969	5541
1475.191	5682
1477.415	5612
1479.636	5565
1481.858	5537
1484.078	5520
1486.298	5487
1488.518	5479
1490.736	5444
1492.954	5460
1495.169	5436
1497.386	5535
1499.602	5381
1501.819	5456
1504.034	5268
1506.248	5379
1508.462	5456
1510.675	5468
1512.888	5419
1515.1	5296
1517.311	5431
1519.522	5438
1521.732	5385
1523.942	5435
1526.151	5399
1528.36	5473
1530.566	5431
1532.773	5431
1534.98	5489
1537.187	5454
1539.392	5513
1541.596	5531
1543.801	5532
1546.005	5554
1548.208	5394
1550.411	5428
1552.612	5566
1554.814	5540
1557.013	5562
1559.212	5520
1561.414	5499
1563.612	5578
1565.811	5537
1568.007	5585
1570.203	5512
1572.403	5625
1574.598	5598
1576.792	5529
1578.988	5600
1581.181	5592
1583.376	5459
1585.568	5659
1587.761	5545
1589.952	5530
1592.143	5649
1594.333	5626
1596.524	5609
1598.715	5609
1600.903	5604
1603.091	5708
1605.278	5585
1607.466	5663
1609.652	5551
1611.838	5627
1614.023	5643
1616.207	5671
1618.391	5620
1620.576	5611
1622.759	5664
1624.941	5577
1627.123	5713
1629.304	5768
1631.484	5724
1633.664	5718
1635.844	5749
1638.022	5766
1640.201	5673
1642.38	5853
1644.556	5608
1646.732	5737
1648.908	5750
1651.084	5750
1653.257	5714
1655.433	5698
1657.607	5708
1659.779	5749
1661.951	5858
1664.122	5833
1666.295	5762
1668.467	5767
1670.635	5828
1672.805	5883
1674.973	5896
1677.142	5823
1679.31	5789
1681.478	5804
1683.644	5649
1685.81	5656
1687.975	5739
1690.142	5838
1692.305	5849
1694.468	5778
1696.632	5703
1698.794	5716
1700.957	5627
1703.119	5713
1705.279	5647
1707.439	5705
1709.598	5663
1711.758	5705
1713.917	5613
1716.075	5633
1718.231	5657
1720.388	5615
1722.543	5577
1724.702	5645
1726.856	5625
1729.01	5628
1731.164	5574
1733.317	5619
1735.471	5534
1737.623	5691
1739.774	5696
1741.925	5500
1744.075	5584
1746.225	5653
1748.376	5661
1750.524	5714
1752.672	5621
1754.82	5617
1756.965	5594
1759.113	5702
1761.259	5636
1763.405	5617
1765.549	5678
1767.694	5649
1769.836	5698
1771.981	5686
1774.123	5611
1776.264	5682
1778.405	5689
1780.546	5687
1782.687	5728
1784.827	5726
1786.966	5635
1789.103	5617
1791.242	5616
1793.381	5742
1795.517	5713
1797.653	5555
1799.788	5790
1801.923	5757
1804.057	5697
1806.193	5715
1808.326	5651
1810.457	5684
1812.59	5733
1814.721	5747
1816.855	5799
1818.984	5658
1821.113	5712
1823.244	5672
1825.372	5672
1827.499	5718
1829.63	5728
1831.756	5484
1833.882	5666
1836.007	5670
1838.132	5629
1840.26	5648
1842.384	5691
1844.507	5609
1846.63	5646
1848.752	5571
1850.875	5627
1852.996	5626
1855.118	5673
1857.238	5530
1859.358	5662
1861.477	5661
1863.597	5631
1865.715	5542
1867.832	5618
1869.948	5691
1872.064	5613
1874.181	5602
1876.297	5705
1878.411	5629
1880.526	5664
1882.639	5596
1884.752	5565
1886.865	5638
1888.977	5611
1891.089	5695
1893.2	5666
1895.308	5673
1897.42	5591
1899.53	5655
1901.639	5750
1903.745	5643
1905.853	5599
1907.962	5704
1910.067	5644
1912.174	5590
1914.278	5674
1916.383	5744
1918.486	5642
1920.592	5612
1922.694	5777
1924.797	5694
1926.898	5751
1929	5746
1931.102	5770
1933.203	5738
1935.301	5709
1937.401	5692
1939.499	5738
1941.598	5705
1943.697	5718
1945.793	5684
1947.888	5735
1949.985	5741
1952.08	5744
1954.176	5762
1956.269	5794
1958.364	5615
1960.457	5626
1962.549	5712
1964.642	5718
1966.733	5611
1968.823	5714
1970.913	5660
1973.005	5643
1975.093	5757
1977.184	5661
1979.271	5766
1981.359	5684
1983.446	5648
1985.532	5690
1987.619	5728
1989.705	5580
1991.789	5744
1993.874	5635
1995.956	5655
1998.041	5562
2000.123	5689
2002.206	5586
2004.287	5630
2006.368	5690
2008.449	5625
2010.529	5641
2012.609	5573
2014.688	5639
2016.766	5612
2018.843	5631
2020.922	5564
2022.999	5718
2025.074	5615
2027.15	5478
2029.225	5656
2031.299	5627
2033.375	5563
2035.447	5703
2037.52	5650
2039.592	5624
2041.664	5566
2043.736	5756
2045.807	5628
2047.876	5645
2049.947	5676
2052.015	5608
2054.086	5717
2056.153	5661
2058.221	5601
2060.288	5642
2062.353	5643
2064.42	5502
2066.486	5635
2068.55	5664
2070.614	5743
2072.678	5720
2074.741	5655
2076.805	5615
2078.866	5597
2080.929	5579
2082.99	5594
2085.049	5677
2087.109	5674
2089.17	5725
2091.228	5676
2093.286	5683
2095.344	5704
2097.4	5591
2099.46	5603
2101.516	5698
2103.572	5750
2105.626	5641
2107.679	5696
2109.735	5628
2111.788	5594
2113.841	5675
2115.894	5632
2117.945	5673
2119.997	5758
2122.049	5600
2124.1	5750
2126.148	5662
2128.197	5631
2130.246	5601
2132.296	5629
2134.342	5660
2136.39	5667
2138.437	5658
2140.483	5625
2142.527	5574
2144.574	5690
2146.619	5698
2148.661	5618
2150.705	5501
2152.747	5610
2154.792	5568
2156.832	5604
2158.874	5602
2160.915	5673
2162.954	5598
2164.995	5588
2167.034	5585
2169.072	5542
2171.111	5633
2173.148	5570
2175.186	5538
2177.223	5571
2179.258	5581
2181.294	5590
2183.328	5507
2185.362	5598
2187.398	5514
2189.431	5677
2191.463	5583
2193.495	5598
2195.528	5502
2197.56	5571
2199.59	5455
2201.62	5559
2203.649	5526
2205.678	5455
2207.708	5466
2209.737	5436
2211.764	5584
2213.791	5411
2215.817	5523
2217.843	5493
2219.87	5540
2221.895	5555
2223.919	5534
2225.942	5569
2227.966	5552
2229.988	5511
2232.012	5370
2234.032	5391
2236.054	5526
2238.074	5495
2240.095	5516
2242.116	5471
2244.135	5510
2246.153	5507
2248.171	5558
2250.188	5534
2252.208	5564
2254.223	5580
2256.239	5652
2258.255	5506
2260.269	5353
2262.283	5506
2264.3	5442
2266.312	5365
2268.325	5516
2270.336	5462
2272.349	5478
2274.362	5568
2276.372	5428
2278.383	5531
2280.392	5524
2282.402	5490
2284.409	5555
2286.418	5532
2288.427	5482
2290.433	5439
2292.441	5403
2294.446	5603
2296.453	5488
2298.459	5527
2300.463	5388
2302.466	5552
2304.471	5519
2306.475	5458
2308.477	5420
2310.478	5380
2312.481	5560
2314.481	5488
2316.481	5488
2318.482	5463
2320.482	5428
2322.48	5452
2324.48	5433
2326.478	5490
2328.476	5435
2330.473	5445
2332.469	5354
2334.465	5580
2336.46	5432
2338.454	5471
2340.45	5334
2342.444	5437
2344.437	5418
2346.43	5346
2348.421	5359
2350.414	5345
2352.405	5395
2354.396	5389
2356.386	5345
2358.376	5362
2360.366	5431
2362.355	5335
2364.343	5405
2366.331	5267
2368.317	5410
2370.304	5370
2372.292	5347
2374.278	5271
2376.262	5358
2378.247	5371
2380.23	5334
2382.216	5305
2384.199	5372
2386.181	5312
2388.163	5381
2390.144	5338
2392.127	5256
2394.107	5300
2396.087	5290
2398.066	5396
2400.046	5379
2402.023	5349
2404.004	5306
2405.981	5345
2407.957	5404
2409.934	5173
2411.91	5313
2413.886	5197
2415.862	5317
2417.836	5263
2419.809	5324
2421.784	5330
2423.756	5364
2425.73	5178
2427.701	5171
2429.672	5262
2431.644	5315
2433.615	5345
2435.586	5332
2437.555	5340
2439.523	5309
2441.491	5293
2443.459	5389
2445.428	5326
2447.395	5232
2449.361	5270
2451.327	5253
2453.292	5368
2455.257	5187
2457.223	5322
2459.187	5229
2461.15	5225
2463.113	5302
2465.076	5255
2467.039	5215
2468.999	5221
2470.96	5282
2472.921	5224
2474.881	5261
2476.841	5212
2478.8	5159
2480.759	5221
2482.717	5243
2484.675	5357
2486.63	5176
2488.589	5136
2490.545	5304
2492.5	5218
2494.455	5257
2496.408	5197
2498.364	5248
2500.318	5240
2502.27	5168
2504.223	5136
2506.174	5162
2508.126	5169
2510.078	5124
2512.03	5072
2513.979	5198
2515.927	5200
2517.877	5177
2519.826	5110
2521.775	5171
2523.722	5139
2525.668	5170
2527.616	5096
2529.561	5089
2531.508	5216
2533.452	5255
2535.398	5158
2537.342	5066
2539.284	5090
2541.229	5212
2543.173	5192
2545.114	5063
2547.055	5209
2548.996	5169
2550.938	5192
2552.878	5171
2554.817	5157
2556.756	5270
2558.695	5176
2560.633	5143
2562.572	5136
2564.509	5124
2566.445	5158
2568.382	5175
2570.317	5097
2572.254	5160
2574.189	5170
2576.123	5238
2578.057	5180
2579.99	5204
2581.923	5128
2583.855	5127
2585.788	5186
2587.719	5162
2589.65	5208
2591.579	5231
2593.511	5180
2595.44	5166
2597.37	5096
2599.297	5125
2601.225	5157
2603.153	5122
2605.08	5128
2607.007	5143
2608.932	5186
2610.858	5161
2612.782	5197
2614.709	5236
2616.632	5238
2618.556	5165
2620.478	5148
2622.401	5257
2624.324	5198
2626.247	5264
2628.167	5104
2630.088	5081
2632.008	5186
2633.928	5253
2635.848	5153
2637.766	5170
2639.684	5211
2641.603	5228
2643.519	5064
2645.437	5177
2647.353	5277
2649.27	5168
2651.184	5209
2653.099	5152
2655.014	5181
2656.928	5162
2658.842	5191
2660.755	5112
2662.667	5175
2664.579	5051
2666.491	5224
2668.402	5075
2670.312	5075
2672.222	5165
2674.132	5152
2676.042	5157
2677.951	5137
2679.859	5091
2681.766	5084
2683.674	5181
2685.582	5078
2687.488	5168
2689.392	5142
2691.298	5118
2693.202	5136
2695.107	5126
2697.012	5223
2698.914	5103
2700.817	5067
2702.72	5127
2704.622	5094
2706.524	5069
2708.425	5108
2710.326	5078
2712.225	5116
2714.125	4991
2716.024	5106
2717.923	5135
2719.822	5119
2721.719	5107
2723.616	5128
2725.512	4986
2727.41	5078
2729.305	4970
2731.201	5045
2733.095	5150
2734.99	4919
2736.884	5038
2738.778	5014
2740.67	5091
2742.562	5065
2744.455	5009
2746.346	5072
2748.238	5096
2750.129	5008
2752.018	5107
2753.907	5042
2755.797	4972
2757.687	5065
2759.575	5016
2761.462	5084
2763.349	5108
2765.237	5019
2767.124	5069
2769.009	5031
2770.894	5029
2772.779	5047
2774.663	5101
2776.547	4996
2778.431	5021
2780.314	5010
2782.197	5046
2784.078	5072
2785.96	4993
2787.842	4990
2789.723	5064
2791.603	4975
2793.483	5028
2795.362	4980
2797.241	4903
2799.121	4982
2800.997	4939
2802.874	4973
2804.751	5042
2806.628	4992
2808.506	5026
2810.38	5100
2812.255	4983
2814.13	5004
2816.003	5075
2817.878	5040
2819.752	5056
2821.623	5012
2823.496	4988
2825.368	5013
2827.238	4985
2829.111	5041
2830.98	4961
2832.851	5020
2834.719	5051
2836.589	4989
2838.458	4959
2840.327	4980
2842.193	4970
2844.061	4987
2845.927	5054
2847.794	5028
2849.66	5136
2851.525	5027
2853.39	5046
2855.254	5121
2857.117	5036
2858.983	5111
2860.845	5185
2862.707	5124
2864.569	5152
2866.431	5271
2868.293	5196
2870.154	5239
2872.013	5405
2873.873	5220
2875.733	5339
2877.592	5419
2879.451	5399
2881.309	5491
2883.166	5425
2885.022	5429
2886.879	5485
2888.736	5504
2890.591	5543
2892.446	5621
2894.301	5493
2896.155	5603
2898.009	5519
2899.863	5535
2901.716	5470
2903.568	5449
2905.419	5527
2907.27	5415
2909.123	5542
2910.973	5375
2912.824	5592
2914.673	5549
2916.521	5651
2918.372	5557
2920.22	5694
2922.067	5619
2923.914	5753
2925.761	5812
2927.607	5766
2929.455	5929
2931.301	5975
2933.144	5932
2934.99	5921
2936.833	6075
2938.678	6007
2940.522	5994
2942.364	6207
2944.207	6188
2946.048	6271
2947.891	6276
2949.731	6213
2951.571	6322
2953.412	6203
2955.25	6124
2957.09	5998
2958.93	5995
2960.767	6038
2962.606	6003
2964.443	5935
2966.279	5873
2968.116	5803
2969.953	5770
2971.788	5720
2973.623	5664
2975.457	5656
2977.292	5631
2979.127	5568
2980.959	5500
2982.792	5511
2984.624	5537
2986.455	5384
2988.288	5473
2990.119	5396
2991.949	5354
2993.779	5261
2995.608	5426
2997.439	5290
2999.268	5306
3001.096	5267
3002.923	5167
3004.751	5098
3006.578	5200
3008.406	5028
3010.232	5046
3012.057	5075
3013.883	4930
3015.706	4940
3017.532	4997
3019.356	4995
3021.179	4882
3023.002	4827
3024.823	4831
3026.646	4892
3028.469	4811
3030.289	4880
3032.11	4752
3033.93	4825
3035.749	4791
3037.57	4781
3039.39	4755
3041.207	4770
3043.026	4768
3044.842	4839
3046.661	4802
3048.477	4782
3050.294	4793
3052.109	4804
3053.925	4704
3055.739	4741
3057.555	4683
3059.368	4818
3061.181	4776
3062.995	4653
3064.807	4607
3066.62	4738
3068.433	4737
3070.243	4720
3072.054	4685
3073.865	4592
3075.675	4672
3077.485	4658
3079.293	4629
3081.102	4650
3082.911	4662
3084.719	4529
3086.527	4725
3088.333	4752
3090.139	4539
3091.945	4607
3093.75	4615
3095.557	4609
3097.361	4564
3099.165	4579
3100.969	4616
3102.772	4512
3104.575	4590
3106.379	4537
3108.181	4600
3109.982	4515
3111.783	4656
3113.584	4486
3115.386	4517
3117.186	4508
3118.985	4519
3120.783	4455
3122.582	4569
3124.381	4455
3126.179	4496
3127.975	4520
3129.772	4458
3131.569	4494
3133.365	4457
3135.161	4432
3136.956	4576
3138.751	4403
3140.544	4469
3142.338	4538
3144.132	4373
3145.925	4485
3147.717	4412
3149.509	4418
3151.301	4555
3153.091	4439
3154.884	4388
3156.673	4430
3158.462	4425
3160.252	4522
3162.041	4450
3163.831	4497
3165.618	4501
3167.405	4404
3169.193	4344
3170.979	4409
3172.767	4330
3174.553	4433
3176.338	4393
3178.123	4465
3179.907	4422
3181.692	4385
3183.477	4348
3185.259	4419
3187.042	4287
3188.824	4402
3190.607	4405
3192.389	4407
3194.17	4430
3195.951	4410
3197.73	4398
3199.51	4409
3201.289	4513
3203.07	4355
3204.848	4388
3206.626	4312
3208.403	4387
3210.18	4356
3211.959	4357
3213.735	4362
3215.511	4473
3217.285	4342
3219.06	4384
3220.836	4336
3222.611	4352
3224.384	4390
3226.158	4485
3227.929	4394
3229.702	4434
3231.476	4335
3233.248	4433
3235.018	4327
3236.789	4372
3238.56	4393
3240.33	4370
3242.1	4414
3243.869	4342
3245.637	4425
3247.405	4354
3249.172	4399
3250.941	4378
3252.707	4424
3254.474	4344
3256.24	4337
3258.006	4370
3259.772	4508
3261.537	4417
3263.301	4332
3265.065	4465
3266.828	4341
3268.592	4362
3270.355	4425
3272.117	4341
3273.878	4403
3275.64	4369
3277.401	4354
3279.162	4378
3280.922	4309
3282.682	4297
3284.441	4330
3286.199	4356
3287.959	4367
3289.716	4368
3291.475	4448
3293.232	4313
3294.988	4344
3296.744	4344
3298.501	4359
3300.256	4391
3302.011	4459
3303.766	4386
3305.52	4446
3307.275	4316
3309.028	4351
3310.781	4445
3312.533	4332
3314.285	4381
3316.038	4312
3317.789	4308
3319.54	4467
3321.289	4406
3323.039	4350
3324.789	4386
3326.539	4354
3328.288	4410
3330.035	4378
3331.783	4385
3333.531	4342
3335.28	4376
3337.025	4367
3338.771	4429
3340.518	4247
3342.262	4319
3344.009	4394
3345.753	4342
3347.497	4283
3349.24	4328
3350.983	4210
3352.726	4335
3354.469	4205
3356.212	4299
3357.952	4355
3359.694	4306
3361.434	4302
3363.176	4250
3364.916	4357
3366.654	4222
3368.394	4266
3370.132	4216
3371.871	4227
3373.61	4193
3375.346	4225
3377.083	4352
3378.82	4232
3380.556	4273
3382.292	4329
3384.027	4264
3385.763	4317
3387.497	4204
3389.231	4222
3390.965	4196
3392.698	4198
3394.431	4116
3396.164	4146
3397.896	4268
3399.627	4113
3401.36	4184
3403.09	4169
3404.82	4257
3406.55	4147
3408.279	4162
3410.01	4189
3411.738	4149
3413.467	4097
3415.194	4153
3416.92	4136
3418.647	4153
3420.375	4128
3422.102	4082
3423.827	4169
3425.553	4146
3427.277	4011
3429.003	4098
3430.727	4124
3432.451	4144
3434.173	4143
3435.896	4184
3437.62	4118
3439.343	4098
3441.063	4056
3442.785	4049
3444.505	4113
3446.226	4138
3447.948	4088
3449.666	3955
3451.386	4089
3453.104	3972
3454.823	4030
3456.541	4015
3458.259	4065
3459.976	3914
3461.693	4053
3463.408	4045
3465.125	4086
3466.841	4064
3468.556	3962
3470.271	4078
3471.985	3962
3473.698	4038
3475.414	3993
3477.126	3963
3478.838	4080
3480.55	3939
3482.263	4021
3483.975	3987
3485.686	3968
3487.396	3977
3489.106	3836
3490.817	3953
3492.526	3944
3494.236	3860
3495.944	3962
3497.652	3854
3499.359	3896
3501.066	3863
3502.775	3899
3504.481	3903
3506.187	3796
3507.893	3929
3509.598	3848
3511.304	3816
3513.009	3894
3514.713	3844
3516.417	3790
3518.12	3793
3519.821	3866
3521.525	3821
3523.228	3855
3524.929	3744
3526.631	3785
3528.33	3840
3530.032	3834
3531.733	3740
3533.433	3824
3535.131	3750
3536.83	3755
3538.529	3767
3540.227	3727
3541.925	3689
3543.623	3726
3545.319	3748
3547.016	3804
3548.712	3767
3550.408	3769
3552.103	3767
3553.798	3671
3555.491	3746
3557.188	3672
3558.88	3709
3560.574	3664
3562.266	3765
3563.959	3686
3565.651	3703
3567.343	3657
3569.035	3674
3570.725	3695
3572.415	3713
3574.106	3719
3575.797	3733
3577.485	3703
3579.174	3757
3580.863	3701
3582.551	3592
3584.238	3609
3585.926	3727
3587.613	3678
3589.3	3617
3590.986	3735
3592.671	3635
3594.357	3665
3596.042	3639
3597.726	3596
3599.41	3668
3601.094	3553
3602.778	3624
3604.461	3601
3606.143	3622
3607.825	3618
3609.507	3567
3611.188	3548
3612.87	3639
3614.551	3555
3616.229	3575
3617.909	3601
3619.589	3591
3621.269	3592
3622.948	3533
3624.625	3561
3626.302	3534
3627.98	3533
3629.657	3535
3631.334	3537
3633.01	3509
3634.686	3492
3636.361	3489
3638.036	3498
3639.712	3475
3641.385	3466
3643.06	3469
3644.732	3527
3646.405	3506
3648.08	3420
3649.751	3501
3651.424	3409
3653.094	3488
3654.766	3456
3656.436	3374
3658.106	3445
3659.777	3455
3661.446	3465
3663.115	3385
3664.783	3340
3666.452	3467
3668.121	3427
3669.788	3382
3671.454	3421
3673.121	3443
3674.789	3349
3676.455	3455
3678.12	3391
3679.784	3345
3681.45	3332
3683.114	3403
3684.779	3417
3686.442	3330
3688.105	3447
3689.768	3393
3691.43	3321
3693.093	3383
3694.754	3293
3696.415	3386
3698.076	3357
3699.736	3374
3701.396	3288
3703.057	3426
3704.716	3379
3706.375	3411
3708.034	3313
3709.692	3362
3711.351	3314
3713.008	3325
3714.665	3432
3716.321	3306
3717.977	3327
3719.634	3289
3721.29	3344
3722.945	3327
3724.598	3268
3726.253	3368
3727.907	3316
3729.561	3304
3731.214	3273
3732.867	3319
3734.518	3336
3736.171	3284
3737.824	3323
3739.474	3272
3741.125	3230
3742.775	3281
3744.425	3261
3746.074	3305
3747.725	3274
3749.373	3318
3751.022	3242
3752.669	3208
3754.318	3315
3755.966	3233
3757.612	3304
3759.259	3340
3760.905	3212
3762.55	3246
3764.197	3211
3765.842	3271
3767.486	3300
3769.131	3218
3770.774	3228
3772.417	3266
3774.061	3193
3775.705	3232
3777.347	3209
3778.988	3181
3780.629	3162
3782.271	3178
3783.912	3218
3785.552	3211
3787.192	3252
3788.831	3245
3790.472	3240
3792.112	3106
3793.75	3184
3795.388	3215
3797.024	3157
3798.661	3235
3800.3	3175
3801.936	3166
3803.572	3211
3805.208	3138
3806.844	3206
3808.48	3154
3810.115	3171
3811.748	3146
3813.382	3163
3815.016	3108
3816.649	3093
3818.283	3181
3819.914	3190
3821.547	3168
3823.178	3201
3824.809	3202
3826.441	3068
3828.072	3139
3829.701	3099
3831.331	3165
3832.96	3163
3834.591	3138
3836.219	3115
3837.847	3146
3839.475	3053
3841.102	3120
3842.729	3121
3844.357	3131
3845.984	3070
3847.609	3101
3849.234	3134
3850.86	3079
3852.485	3116
3854.11	3069
3855.734	3153
3857.357	3014
3858.981	3111
3860.603	3048
3862.227	3050
3863.848	3076
3865.471	3083
3867.092	3082
3868.713	3067
3870.334	3029
3871.954	3023
3873.575	3046
3875.194	3039
3876.813	3059
3878.433	3077
3880.051	3001
3881.669	3102
3883.286	3117
3884.904	3022
3886.52	2976
3888.138	2995
3889.754	3045
3891.37	3042
3892.985	2970
3894.6	3084
3896.216	3023
3897.831	3078
3899.444	2997
3901.058	3075
3902.67	3025
3904.283	2980
3905.897	3074
3907.509	2976
3909.121	3046
3910.731	3035
3912.342	2995
3913.954	3047
3915.563	3026
3917.174	2971
3918.783	2988
3920.391	2968
3922.002	2905
3923.611	3038
3925.218	2972
3926.826	2967
3928.432	2994
3930.039	2925
3931.647	2903
3933.253	2958
3934.859	2969
3936.464	2967
3938.068	2881
3939.675	2940
3941.278	2930
3942.883	2945
3944.486	3010
3946.089	2995
3947.692	2938
3949.295	2933
3950.898	2978
3952.499	2965
3954.1	2938
3955.7	2886
3957.303	2915
3958.903	2940
3960.502	2955
3962.101	2926
3963.7	2911
3965.301	2976
3966.899	2866
3968.497	2958
3970.094	2907
3971.691	2931
3973.288	2880
3974.885	2921
3976.481	2878
3978.077	2930
3979.672	2925
3981.267	2811
3982.863	2881
3984.457	2864
3986.051	2863
3987.645	2918
3989.238	2881
3990.831	2865
3992.425	2892
3994.017	2847
3995.607	2844
3997.199	2924
3998.79	2874
4000.382	2855
4001.973	2879
4003.561	2846
4005.151	2801
4006.741	2822
4008.331	2865
4009.918	2828
4011.507	2864
4013.095	2871
4014.681	2818
4016.269	2858
4017.856	2788
4019.443	2847
4021.028	2761
4022.614	2827
4024.199	2784
4025.785	2859
4027.37	2800
4028.953	2763
4030.536	2826
4032.12	2792
4033.704	2773
4035.287	2773
4036.869	2797
4038.45	2713
4040.032	2803
4041.613	2686
4043.195	2732
4044.776	2665
4046.356	2735
4047.935	2760
4049.515	2773
4051.095	2733
4052.674	2709
4054.251	2755
4055.829	2717
4057.406	2673
4058.985	2729
4060.562	2741
4062.139	2709
4063.715	2692
4065.29	2687
4066.865	2696
4068.442	2642
4070.016	2635
4071.59	2670
4073.164	2672
4074.738	2707
4076.312	2689
4077.885	2673
4079.458	2750
4081.03	2631
4082.602	2654
4084.173	2709
4085.745	2727
4087.315	2690
4088.886	2705
4090.456	2677
4092.026	2693
4093.596	2695
4095.165	2638
4096.734	2670
4098.301	2608
4099.869	2631
4101.437	2645
4103.006	2711
4104.572	2700
4106.139	2612
4107.704	2645
4109.27	2594
4110.837	2693
4112.401	2686
4113.966	2629
4115.53	2572
4117.094	2644
4118.659	2618
4120.223	2591
4121.785	2622
4123.347	2622
4124.909	2644
4126.471	2601
4128.034	2613
4129.595	2594
4131.155	2593
4132.716	2595
4134.275	2604
4135.836	2510
4137.395	2624
4138.955	2541
4140.513	2581
4142.071	2563
4143.628	2528
4145.188	2579
4146.745	2571
4148.302	2526
4149.858	2550
4151.414	2567
4152.971	2614
4154.526	2529
4156.081	2624
4157.635	2532
4159.189	2522
4160.745	2567
4162.298	2528
4163.852	2521
4165.405	2456
4166.957	2539
4168.51	2552
4170.063	2526
4171.614	2558
4173.166	2545
4174.717	2553
4176.267	2545
4177.817	2509
4179.368	2478
4180.917	2491
4182.466	2513
4184.016	2484
4185.564	2546
4187.112	2486
4188.66	2484
4190.207	2459
4191.754	2479
4193.301	2471
4194.848	2506
4196.394	2476
4197.94	2494
4199.484	2489
4201.03	2494
4202.575	2457
4204.12	2406
4205.663	2487
4207.207	2444
4208.75	2444
4210.292	2410
4211.836	2388
4213.378	2429
4214.92	2497
4216.46	2509
4218.002	2493
4219.544	2450
4221.083	2392
4222.625	2414
4224.164	2475
4225.703	2435
4227.244	2409
4228.782	2360
4230.32	2349
4231.857	2491
4233.395	2435
4234.933	2392
4236.471	2405
4238.007	2442
4239.542	2450
4241.078	2423
4242.614	2397
4244.15	2421
4245.685	2359
4247.219	2416
4248.753	2384
4250.287	2420
4251.82	2353
4253.354	2404
4254.887	2429
4256.419	2468
4257.951	2414
4259.483	2380
4261.016	2413
4262.547	2431
4264.078	2422
4265.608	2408
4267.137	2390
4268.668	2424
4270.197	2363
4271.727	2381
4273.254	2403
4274.783	2363
4276.311	2423
4277.84	2339
4279.366	2343
4280.894	2382
4282.42	2407
4283.946	2327
4285.473	2333
4286.998	2303
4288.523	2385
4290.047	2358
4291.572	2321
4293.096	2373
4294.622	2337
4296.144	2397
4297.668	2327
4299.19	2364
4300.713	2325
4302.236	2387
4303.758	2267
4305.279	2318
4306.799	2336
4308.321	2338
4309.842	2257
4311.361	2311
4312.882	2313
4314.401	2330
