400.0961	4505
402.6185	4503
405.1424	4464
407.6635	4556
410.1838	4562
412.7035	4524
415.2225	4573
417.7388	4713
420.2585	4563
422.7754	4749
425.2917	4753
427.8072	4842
430.3221	4898
432.8363	4761
435.3498	4859
437.8626	4873
440.3727	4874
442.8841	4830
445.3969	4903
447.907	4829
450.4142	4892
452.9229	4861
455.4289	4793
457.9362	4821
460.4449	4789
462.9488	4884
465.454	4926
467.9566	4850
470.4604	4958
472.9637	4780
475.4662	4935
477.966	4896
480.4671	4877
482.9656	4926
485.4633	4984
487.9645	5015
490.4608	4912
492.9566	4965
495.4536	4940
497.948	4964
500.4437	4950
502.9387	5023
505.431	5044
507.9226	5088
510.4136	5022
512.9079	4923
515.3975	4951
517.8864	4999
520.3746	5030
522.8622	5015
525.3491	4921
527.8394	5055
530.3249	4990
532.8098	5063
535.2939	5008
537.7774	5072
540.2623	5032
542.7444	5015
545.2259	5045
547.7067	5038
550.1868	5102
552.6683	5080
555.147	5083
557.6231	5140
560.1005	5042
562.5773	5098
565.0534	4991
567.5308	5135
570.0056	5169
572.4776	5072
574.951	5162
577.4237	5196
579.8978	5194
582.3671	5180
584.8378	5317
587.3079	5335
589.7773	5266
592.244	5210
594.714	5281
597.1793	5247
599.6461	5239
602.1121	5121
604.5754	5275
607.0421	5306
609.5042	5203
611.9675	5144
614.4282	5270
616.8902	5276
619.3515	5246
621.8122	5251
624.2702	5162
626.7296	5240
629.1863	5163
631.6423	5126
634.1017	5161
636.5563	5208
639.0104	5211
641.4658	5221
643.9185	5236
646.3725	5230
648.8239	5282
651.2766	5248
653.7266	5336
656.176	5233
658.6247	5338
661.0748	5341
663.5242	5303
665.9709	5315
668.417	5352
670.8624	5355
673.3092	5411
675.7533	5322
678.1968	5383
680.6395	5386
683.0817	5418
685.5251	5332
687.9659	5430
690.4061	5359
692.8456	5363
695.2844	5301
697.7226	5349
700.1621	5447
702.599	5405
705.0332	5431
707.4688	5480
709.9036	5395
712.3399	5517
714.7735	5487
717.2044	5454
719.6367	5459
722.0683	5543
724.4993	5445
726.9296	5461
729.3593	5611
731.7883	5610
734.2147	5599
736.6423	5576
739.0714	5652
741.4958	5730
743.9216	5634
746.3447	5693
748.7691	5648
751.1929	5765
753.616	5708
756.0366	5696
758.4584	5675
760.8776	5687
763.2982	5734
765.718	5764
768.1373	5696
770.5539	5690
772.9698	5761
775.3871	5767
777.8038	5785
780.2178	5666
782.6332	5764
785.0459	5717
787.458	5829
789.8714	5803
792.2842	5833
794.6943	5782
797.1038	5680
799.5127	5725
801.9209	5689
804.3324	5771
806.7393	5832
809.1456	5820
811.5513	5744
813.9562	5882
816.3625	5844
818.7663	5749
821.1693	5930
823.5718	5736
825.9735	5783
828.3746	5854
830.7771	5882
833.177	5888
835.5762	5909
837.9747	5887
840.3727	5840
842.772	5847
845.1666	5841
847.5626	5896
849.958	5941
852.3527	6002
854.7488	6149
857.1403	5922
859.5331	6136
861.9253	5952
864.3168	5922
866.7057	5951
869.098	5925
871.4876	6035
873.8746	5983
876.263	6139
878.6487	5926
881.0378	5938
883.4243	5895
885.8081	5979
888.1933	5991
890.5759	5875
892.9598	5941
895.343	5938
897.7256	5930
900.1057	5829
902.4871	5942
904.8659	5981
907.246	5991
909.6254	6048
912.0023	6027
914.3786	6117
916.7562	6166
919.1331	6052
921.5074	6218
923.8831	6250
926.2562	6299
928.6287	6237
931.0005	6168
933.3757	6406
935.7462	6213
938.1162	6296
940.4855	6394
942.8542	6429
945.2242	6582
947.5916	6482
949.9584	6610
952.3266	6931
954.6921	6959
957.0571	7212
959.4233	7352
961.787	7511
964.15	7343
966.5125	7226
968.8742	7004
971.2354	6841
973.5959	6493
975.9559	6449
978.3151	6238
980.6738	6347
983.0338	6204
985.3912	6257
987.7461	6132
990.1022	6237
992.4578	6169
994.8127	6202
997.1689	6234
999.5207	6216
1001.874	6329
1004.226	6219
1006.576	6142
1008.929	6132
1011.28	6085
1013.628	6245
1015.977	6245
1018.324	6193
1020.674	6278
1023.019	6281
1025.366	6222
1027.713	6365
1030.056	6153
1032.399	6253
1034.746	6320
1037.087	6316
1039.431	6367
1041.771	6297
1044.113	6267
1046.454	6364
1048.793	6363
1051.133	6397
1053.471	6287
1055.807	6336
1058.146	6280
1060.483	6296
1062.818	6483
1065.153	6492
1067.489	6405
1069.822	6476
1072.156	6513
1074.488	6574
1076.82	6432
1079.15	6210
1081.48	6417
1083.814	6361
1086.143	6385
1088.471	6383
1090.799	6313
1093.126	6414
1095.452	6318
1097.78	6415
1100.105	6420
1102.43	6360
1104.754	6359
1107.077	6319
1109.4	6382
1111.722	6334
1114.044	6411
1116.365	6428
1118.685	6330
1121.005	6408
1123.324	6363
1125.643	6404
1127.961	6305
1130.278	6398
1132.595	6413
1134.911	6340
1137.226	6413
1139.541	6299
1141.854	6369
1144.167	6329
1146.482	6475
1148.793	6213
1151.105	6429
1153.414	6377
1155.725	6383
1158.033	6489
1160.344	6481
1162.651	6404
1164.959	6359
1167.265	6293
1169.572	6436
1171.878	6404
1174.184	6410
1176.488	6479
1178.79	6460
1181.094	6465
1183.396	6486
1185.699	6365
1188.001	6421
1190.301	6398
1192.6	6469
1194.9	6579
1197.2	6468
1199.497	6390
1201.794	6487
1204.09	6440
1206.387	6399
1208.684	6511
1210.978	6400
1213.272	6404
1215.565	6440
1217.858	6361
1220.15	6588
1222.443	6438
1224.734	6422
1227.024	6589
1229.313	6539
1231.602	6635
1233.892	6511
1236.18	6582
1238.467	6557
1240.754	6636
1243.04	6782
1245.325	6579
1247.612	6701
1249.896	6679
1252.178	6731
1254.461	6665
1256.743	6677
1259.027	6666
1261.308	6609
1263.587	6728
1265.867	6645
1268.146	6733
1270.425	6785
1272.703	6661
1274.981	6777
1277.256	6692
1279.532	6704
1281.808	6698
1284.083	6688
1286.358	6693
1288.63	6632
1290.904	6598
1293.175	6583
1295.449	6550
1297.719	6550
1299.99	6622
1302.259	6516
1304.529	6567
1306.798	6560
1309.065	6572
1311.333	6694
1313.599	6518
1315.866	6580
1318.131	6478
1320.396	6548
1322.66	6658
1324.925	6661
1327.187	6553
1329.448	6632
1331.711	6756
1333.974	6698
1336.234	6597
1338.493	6630
1340.752	6644
1343.01	6697
1345.269	6540
1347.526	6622
1349.784	6629
1352.04	6606
1354.295	6616
1356.552	6557
1358.806	6636
1361.059	6615
1363.312	6624
1365.564	6667
1367.818	6564
1370.069	6662
1372.318	6716
1374.568	6646
1376.817	6682
1379.066	6534
1381.316	6694
1383.564	6706
1385.809	6695
1388.056	6570
1390.301	6716
1392.549	6839
1394.793	6823
1397.036	6848
1399.279	6816
1401.522	6869
1403.763	6798
1406.007	6907
1408.248	6786
1410.487	6849
1412.727	6926
1414.965	6847
1417.205	6812
1419.442	6837
1421.68	6806
1423.915	6644
1426.152	6864
1428.388	6916
1430.623	6803
1432.857	6926
1435.091	6820
1437.323	6970
1439.556	6879
1441.789	6918
1444.019	6866
1446.25	6921
1448.48	6910
1450.708	7029
1452.938	6964
1455.167	7059
1457.394	7026
1459.62	6932
1461.846	7003
1464.073	6867
1466.299	6991
1468.523	6829
1470.746	6779
1472.969	6814
1475.191	6713
1477.415	6697
1479.636	6763
1481.858	6863
1484.078	6741
1486.298	6675
1488.518	6649
1490.736	6784
1492.954	6548
1495.169	6557
1497.386	6620
1499.602	6591
1501.819	6591
1504.034	6684
1506.248	6524
1508.462	6641
1510.675	6661
1512.888	6638
1515.1	6783
1517.311	6555
1519.522	6632
1521.732	6742
1523.942	6639
1526.151	6713
1528.36	6654
1530.566	6654
1532.773	6627
1534.98	6632
1537.187	6642
1539.392	6627
1541.596	6655
1543.801	6619
1546.005	6732
1548.208	6656
1550.411	6741
1552.612	6750
1554.814	6737
1557.013	6716
1559.212	6727
1561.414	6765
1563.612	6780
1565.811	6704
1568.007	6757
1570.203	6791
1572.403	6781
1574.598	6834
1576.792	6760
1578.988	6866
1581.181	6788
1583.376	6777
1585.568	6760
1587.761	6851
1589.952	6881
1592.143	6840
1594.333	6902
1596.524	6781
1598.715	6784
1600.903	6886
1603.091	6880
1605.278	6871
1607.466	6867
1609.652	6910
1611.838	6898
1614.023	6903
1616.207	6838
1618.391	6941
1620.576	6887
1622.759	6967
1624.941	6824
1627.123	6933
1629.304	6918
1631.484	7050
1633.664	7033
1635.844	6853
1638.022	7057
1640.201	6997
1642.38	6878
1644.556	6947
1646.732	7047
1648.908	6938
1651.084	6984
1653.257	7010
1655.433	7068
1657.607	6963
1659.779	7057
1661.951	7003
1664.122	7049
1666.295	7018
1668.467	6938
1670.635	6994
1672.805	6990
1674.973	6983
1677.142	7026
1679.31	6989
1681.478	6976
1683.644	7025
1685.81	7100
1687.975	6995
1690.142	7061
1692.305	6886
1694.468	7003
1696.632	7004
1698.794	6892
1700.957	6805
1703.119	6696
1705.279	6940
1707.439	6912
1709.598	6914
1711.758	6990
1713.917	6929
1716.075	6938
1718.231	6851
1720.388	6856
1722.543	6827
1724.702	6846
1726.856	6771
1729.01	6927
1731.164	6829
1733.317	6843
1735.471	6808
1737.623	6849
1739.774	6887
1741.925	6815
1744.075	6913
1746.225	6848
1748.376	6867
1750.524	6844
1752.672	6881
1754.82	6858
1756.965	6984
1759.113	6835
1761.259	6874
1763.405	6893
1765.549	6791
1767.694	6889
1769.836	6970
1771.981	6991
1774.123	6838
1776.264	6987
1778.405	6859
1780.546	6901
1782.687	6918
1784.827	6972
1786.966	6952
1789.103	6996
1791.242	6997
1793.381	6971
1795.517	7002
1797.653	7067
1799.788	6990
1801.923	6831
1804.057	6973
1806.193	6969
1808.326	6909
1810.457	6967
1812.59	6881
1814.721	6966
1816.855	6787
1818.984	6931
1821.113	6925
1823.244	6903
1825.372	6917
1827.499	6897
1829.63	6877
1831.756	6939
1833.882	6920
1836.007	6875
1838.132	6851
1840.26	6813
1842.384	6785
1844.507	6919
1846.63	6836
1848.752	6832
1850.875	6872
1852.996	6913
1855.118	6785
1857.238	6896
1859.358	6831
1861.477	6770
1863.597	6763
1865.715	6867
1867.832	6922
1869.948	6929
1872.064	6807
1874.181	6923
1876.297	6835
1878.411	6783
1880.526	6782
1882.639	6951
1884.752	6860
1886.865	6804
1888.977	6902
1891.089	6824
1893.2	6992
1895.308	6856
1897.42	7027
1899.53	6887
1901.639	6991
1903.745	6889
1905.853	6914
1907.962	6995
1910.067	6936
1912.174	6884
1914.278	7054
1916.383	6990
1918.486	6984
1920.592	6957
1922.694	6929
1924.797	6944
1926.898	6999
1929	7020
1931.102	6968
1933.203	6978
1935.301	6936
1937.401	6949
1939.499	6930
1941.598	6903
1943.697	6942
1945.793	7042
1947.888	6949
1949.985	6893
1952.08	7013
1954.176	6975
1956.269	6966
1958.364	6901
1960.457	6948
1962.549	6957
1964.642	6968
1966.733	6996
1968.823	6856
1970.913	6973
1973.005	6926
1975.093	7036
1977.184	6985
1979.271	6941
1981.359	6900
1983.446	6963
1985.532	6883
1987.619	6979
1989.705	6825
1991.789	6870
1993.874	6847
1995.956	6902
1998.041	6884
2000.123	6864
2002.206	6836
2004.287	6827
2006.368	6912
2008.449	6943
2010.529	6725
2012.609	6894
2014.688	6922
2016.766	6791
2018.843	6885
2020.922	6872
2022.999	6934
2025.074	6740
2027.15	6853
2029.225	6931
2031.299	6839
2033.375	6985
2035.447	6952
2037.52	6728
2039.592	6789
2041.664	7031
2043.736	6867
2045.807	6791
2047.876	6856
2049.947	6913
2052.015	6867
2054.086	6942
2056.153	6872
2058.221	6883
2060.288	6914
2062.353	6876
2064.42	6859
2066.486	6841
2068.55	6943
2070.614	6879
2072.678	6898
2074.741	6975
2076.805	6771
2078.866	6933
2080.929	6767
2082.99	6996
2085.049	6874
2087.109	6868
2089.17	6900
2091.228	7000
2093.286	6965
2095.344	6869
2097.4	6911
2099.46	6931
2101.516	6865
2103.572	6914
2105.626	6807
2107.679	6855
2109.735	6956
2111.788	6886
2113.841	6884
2115.894	6838
2117.945	6819
2119.997	6811
2122.049	6880
2124.1	6925
2126.148	6764
2128.197	6891
2130.246	6968
2132.296	6844
2134.342	6997
2136.39	6843
2138.437	6847
2140.483	6935
2142.527	6919
2144.574	6795
2146.619	6781
2148.661	6904
2150.705	6851
2152.747	6836
2154.792	6789
2156.832	6786
2158.874	6891
2160.915	6881
2162.954	6821
2164.995	6940
2167.034	6805
2169.072	6854
2171.111	6913
2173.148	6834
2175.186	6899
2177.223	6877
2179.258	6771
2181.294	6947
2183.328	6802
2185.362	6813
2187.398	6788
2189.431	6817
2191.463	6705
2193.495	6668
2195.528	6701
2197.56	6813
2199.59	6744
2201.62	6673
2203.649	6795
2205.678	6838
2207.708	6719
2209.737	6729
2211.764	6774
2213.791	6709
2215.817	6577
2217.843	6732
2219.87	6696
2221.895	6807
2223.919	6602
2225.942	6742
2227.966	6805
2229.988	6560
2232.012	6648
2234.032	6654
2236.054	6725
2238.074	6575
2240.095	6714
2242.116	6632
2244.135	6651
2246.153	6721
2248.171	6739
2250.188	6732
2252.208	6662
2254.223	6637
2256.239	6701
2258.255	6673
2260.269	6674
2262.283	6720
2264.3	6756
2266.312	6679
2268.325	6750
2270.336	6690
2272.349	6673
2274.362	6753
2276.372	6651
2278.383	6699
2280.392	6678
2282.402	6704
2284.409	6711
2286.418	6700
2288.427	6672
2290.433	6632
2292.441	6604
2294.446	6686
2296.453	6635
2298.459	6654
2300.463	6650
2302.466	6718
2304.471	6657
2306.475	6844
2308.477	6679
2310.478	6631
2312.481	6607
2314.481	6574
2316.481	6713
2318.482	6640
2320.482	6644
2322.48	6597
2324.48	6605
2326.478	6646
2328.476	6698
2330.473	6600
2332.469	6466
2334.465	6570
2336.46	6639
2338.454	6598
2340.45	6603
2342.444	6520
2344.437	6560
2346.43	6483
2348.421	6477
2350.414	6643
2352.405	6618
2354.396	6600
2356.386	6496
2358.376	6551
2360.366	6552
2362.355	6551
2364.343	6437
2366.331	6428
2368.317	6553
2370.304	6541
2372.292	6563
2374.278	6342
2376.262	6528
2378.247	6437
2380.23	6453
2382.216	6542
2384.199	6549
2386.181	6464
2388.163	6382
2390.144	6439
2392.127	6478
2394.107	6437
2396.087	6479
2398.066	6497
2400.046	6516
2402.023	6429
2404.004	6441
2405.981	6412
2407.957	6481
2409.934	6600
2411.91	6377
2413.886	6440
2415.862	6304
2417.836	6490
2419.809	6499
2421.784	6353
2423.756	6539
2425.73	6479
2427.701	6422
2429.672	6453
2431.644	6536
2433.615	6393
2435.586	6454
2437.555	6412
2439.523	6401
2441.491	6417
2443.459	6395
2445.428	6418
2447.395	6333
2449.361	6501
2451.327	6314
2453.292	6409
2455.257	6412
2457.223	6389
2459.187	6412
2461.15	6462
2463.113	6245
2465.076	6292
2467.039	6384
2468.999	6417
2470.96	6282
2472.921	6315
2474.881	6420
2476.841	6314
2478.8	6331
2480.759	6312
2482.717	6264
2484.675	6307
2486.63	6299
2488.589	6278
2490.545	6202
2492.5	6370
2494.455	6263
2496.408	6424
2498.364	6278
2500.318	6265
2502.27	6342
2504.223	6291
2506.174	6305
2508.126	6292
2510.078	6250
2512.03	6342
2513.979	6244
2515.927	6228
2517.877	6237
2519.826	6318
2521.775	6200
2523.722	6231
2525.668	6356
2527.616	6342
2529.561	6232
2531.508	6290
2533.452	6373
2535.398	6247
2537.342	6349
2539.284	6326
2541.229	6254
2543.173	6282
2545.114	6217
2547.055	6183
2548.996	6152
2550.938	6260
2552.878	6217
2554.817	6271
2556.756	6320
2558.695	6211
2560.633	6199
2562.572	6293
2564.509	6346
2566.445	6284
2568.382	6240
2570.317	6230
2572.254	6228
2574.189	6275
2576.123	6351
2578.057	6235
2579.99	6225
2581.923	6294
2583.855	6351
2585.788	6222
2587.719	6303
2589.65	6242
2591.579	6214
2593.511	6261
2595.44	6317
2597.37	6289
2599.297	6288
2601.225	6300
2603.153	6206
2605.08	6326
2607.007	6162
2608.932	6344
2610.858	6279
2612.782	6311
2614.709	6285
2616.632	6193
2618.556	6317
2620.478	6326
2622.401	6268
2624.324	6273
2626.247	6328
2628.167	6279
2630.088	6266
2632.008	6249
2633.928	6166
2635.848	6351
2637.766	6263
2639.684	6297
2641.603	6205
2643.519	6276
2645.437	6369
2647.353	6272
2649.27	6218
2651.184	6236
2653.099	6228
2655.014	6180
2656.928	6198
2658.842	6316
2660.755	6205
2662.667	6294
2664.579	6241
2666.491	6308
2668.402	6133
2670.312	6276
2672.222	6179
2674.132	6281
2676.042	6321
2677.951	6214
2679.859	6199
2681.766	6126
2683.674	6226
2685.582	6227
2687.488	6361
2689.392	6206
2691.298	6065
2693.202	6156
2695.107	6214
2697.012	6175
2698.914	6259
2700.817	6161
2702.72	6094
2704.622	6231
2706.524	6139
2708.425	6104
2710.326	6104
2712.225	6210
2714.125	6075
2716.024	6183
2717.923	6078
2719.822	6046
2721.719	6163
2723.616	6109
2725.512	6259
2727.41	6144
2729.305	6267
2731.201	6207
2733.095	6163
2734.99	6087
2736.884	6080
2738.778	6137
2740.67	6210
2742.562	6094
2744.455	6154
2746.346	5971
2748.238	6098
2750.129	6113
2752.018	6023
2753.907	6050
2755.797	6040
2757.687	6108
2759.575	6059
2761.462	6047
2763.349	6031
2765.237	6192
2767.124	6086
2769.009	6220
2770.894	6019
2772.779	6211
2774.663	6064
2776.547	6151
2778.431	6160
2780.314	5981
2782.197	6136
2784.078	6156
2785.96	5974
2787.842	6119
2789.723	6101
2791.603	5934
2793.483	6095
2795.362	5947
2797.241	6109
2799.121	6063
2800.997	5931
2802.874	6074
2804.751	6026
2806.628	6108
2808.506	6001
2810.38	6082
2812.255	6036
2814.13	6122
2816.003	6044
2817.878	6027
2819.752	6031
2821.623	6118
2823.496	6004
2825.368	6059
2827.238	5974
2829.111	5994
2830.98	5995
2832.851	5997
2834.719	5878
2836.589	5991
2838.458	6009
2840.327	6012
2842.193	6098
2844.061	6040
2845.927	6039
2847.794	6070
2849.66	6041
2851.525	6083
2853.39	6099
2855.254	6111
2857.117	6196
2858.983	6151
2860.845	6103
2862.707	6012
2864.569	6188
2866.431	6180
2868.293	6292
2870.154	6323
2872.013	6378
2873.873	6345
2875.733	6265
2877.592	6463
2879.451	6486
2881.309	6525
2883.166	6471
2885.022	6525
2886.879	6528
2888.736	6561
2890.591	6585
2892.446	6623
2894.301	6636
2896.155	6590
2898.009	6707
2899.863	6619
2901.716	6495
2903.568	6587
2905.419	6498
2907.27	6545
2909.123	6549
2910.973	6642
2912.824	6626
2914.673	6509
2916.521	6698
2918.372	6763
2920.22	6758
2922.067	6752
2923.914	6819
2925.761	6799
2927.607	6922
2929.455	7036
2931.301	6904
2933.144	7105
2934.99	7067
2936.833	6998
2938.678	7079
2940.522	7133
2942.364	7268
2944.207	7365
2946.048	7146
2947.891	7329
2949.731	7357
2951.571	7374
2953.412	7329
2955.25	7279
2957.09	7234
2958.93	7117
2960.767	7260
2962.606	7146
2964.443	6975
2966.279	7112
2968.116	6944
2969.953	6811
2971.788	6778
2973.623	6869
2975.457	6697
2977.292	6690
2979.127	6772
2980.959	6637
2982.792	6564
2984.624	6504
2986.455	6526
2988.288	6512
2990.119	6583
2991.949	6466
2993.779	6436
2995.608	6362
2997.439	6288
2999.268	6223
3001.096	6239
3002.923	6179
3004.751	6035
3006.578	6013
3008.406	6144
3010.232	6070
3012.057	6091
3013.883	5992
3015.706	6007
3017.532	5935
3019.356	5891
3021.179	5859
3023.002	5667
3024.823	5897
3026.646	5789
3028.469	5766
3030.289	5750
3032.11	5803
3033.93	5730
3035.749	5698
3037.57	5736
3039.39	5629
3041.207	5717
3043.026	5710
3044.842	5713
3046.661	5715
3048.477	5755
3050.294	5670
3052.109	5566
3053.925	5759
3055.739	5763
3057.555	5698
3059.368	5632
3061.181	5668
3062.995	5607
3064.807	5804
3066.62	5619
3068.433	5695
3070.243	5576
3072.054	5659
3073.865	5615
3075.675	5634
3077.485	5734
3079.293	5632
3081.102	5482
3082.911	5612
3084.719	5600
3086.527	5624
3088.333	5526
3090.139	5623
3091.945	5518
3093.75	5545
3095.557	5461
3097.361	5512
3099.165	5559
3100.969	5540
3102.772	5388
3104.575	5492
3106.379	5604
3108.181	5414
3109.982	5535
3111.783	5425
3113.584	5497
3115.386	5475
3117.186	5538
3118.985	5449
3120.783	5328
3122.582	5490
3124.381	5406
3126.179	5413
3127.975	5315
3129.772	5420
3131.569	5342
3133.365	5458
3135.161	5419
3136.956	5497
3138.751	5413
3140.544	5435
3142.338	5448
3144.132	5362
3145.925	5355
3147.717	5366
3149.509	5378
3151.301	5449
3153.091	5349
3154.884	5339
3156.673	5332
3158.462	5382
3160.252	5373
3162.041	5331
3163.831	5335
3165.618	5301
3167.405	5376
3169.193	5268
3170.979	5237
3172.767	5288
3174.553	5358
3176.338	5298
3178.123	5281
3179.907	5278
3181.692	5345
3183.477	5316
3185.259	5249
3187.042	5229
3188.824	5339
3190.607	5290
3192.389	5158
3194.17	5297
3195.951	5249
3197.73	5338
3199.51	5229
3201.289	5276
3203.07	5376
3204.848	5253
3206.626	5304
3208.403	5225
3210.18	5265
3211.959	5296
3213.735	5275
3215.511	5186
3217.285	5194
3219.06	5250
3220.836	5244
3222.611	5264
3224.384	5273
3226.158	5214
3227.929	5316
3229.702	5154
3231.476	5195
3233.248	5228
3235.018	5214
3236.789	5232
3238.56	5189
3240.33	5245
3242.1	5249
3243.869	5299
3245.637	5225
3247.405	5176
3249.172	5243
3250.941	5244
3252.707	5170
3254.474	5220
3256.24	5217
3258.006	5267
3259.772	5189
3261.537	5217
3263.301	5300
3265.065	5238
3266.828	5181
3268.592	5209
3270.355	5302
3272.117	5223
3273.878	5166
3275.64	5205
3277.401	5180
3279.162	5284
3280.922	5220
3282.682	5221
3284.441	5214
3286.199	5283
3287.959	5251
3289.716	5237
3291.475	5231
3293.232	5211
3294.988	5201
3296.744	5174
3298.501	5221
3300.256	5163
3302.011	5194
3303.766	5161
3305.52	5198
3307.275	5175
3309.028	5227
3310.781	5257
3312.533	5116
3314.285	5198
3316.038	5161
3317.789	5192
3319.54	5302
3321.289	5182
3323.039	5211
3324.789	5223
3326.539	5168
3328.288	5188
3330.035	5273
3331.783	5236
3333.531	5271
3335.28	5144
3337.025	5160
3338.771	5271
3340.518	5139
3342.262	5149
3344.009	5249
3345.753	5128
3347.497	5141
3349.24	5201
3350.983	5105
3352.726	5145
3354.469	5076
3356.212	5138
3357.952	5129
3359.694	5125
3361.434	5118
3363.176	5105
3364.916	5117
3366.654	5011
3368.394	5089
3370.132	5039
3371.871	4978
3373.61	5071
3375.346	5057
3377.083	5093
3378.82	4989
3380.556	4982
3382.292	5103
3384.027	5049
3385.763	4910
3387.497	4960
3389.231	5047
3390.965	4951
3392.698	4907
3394.431	4915
3396.164	4900
3397.896	4972
3399.627	4967
3401.36	4962
3403.09	5009
3404.82	4963
3406.55	4981
3408.279	4967
3410.01	4944
3411.738	4966
3413.467	5023
3415.194	4945
3416.92	4973
3418.647	4948
3420.375	4973
3422.102	4870
3423.827	4936
3425.553	4965
3427.277	4854
3429.003	4812
3430.727	4891
3432.451	4868
3434.173	4826
3435.896	4895
3437.62	4836
3439.343	4866
3441.063	4889
3442.785	4962
3444.505	4758
3446.226	4817
3447.948	4907
3449.666	4908
3451.386	4843
3453.104	4826
3454.823	4834
3456.541	4823
3458.259	4664
3459.976	4826
3461.693	4818
3463.408	4754
3465.125	4754
3466.841	4656
3468.556	4777
3470.271	4689
3471.985	4688
3473.698	4655
3475.414	4676
3477.126	4698
3478.838	4645
3480.55	4715
3482.263	4709
3483.975	4662
3485.686	4768
3487.396	4713
3489.106	4662
3490.817	4612
3492.526	4676
3494.236	4669
3495.944	4666
3497.652	4705
3499.359	4724
3501.066	4540
3502.775	4716
3504.481	4644
3506.187	4594
3507.893	4684
3509.598	4557
3511.304	4556
3513.009	4626
3514.713	4557
3516.417	4652
3518.12	4580
3519.821	4657
3521.525	4553
3523.228	4495
3524.929	4549
3526.631	4631
3528.33	4565
3530.032	4520
3531.733	4525
3533.433	4474
3535.131	4532
3536.83	4586
3538.529	4514
3540.227	4539
3541.925	4508
3543.623	4449
3545.319	4590
3547.016	4503
3548.712	4514
3550.408	4468
3552.103	4409
3553.798	4474
3555.491	4529
3557.188	4540
3558.88	4390
3560.574	4493
3562.266	4513
3563.959	4438
3565.651	4372
3567.343	4508
3569.035	4376
3570.725	4450
3572.415	4449
3574.106	4458
3575.797	4354
3577.485	4391
3579.174	4423
3580.863	4358
3582.551	4453
3584.238	4356
3585.926	4362
3587.613	4377
3589.3	4348
3590.986	4373
3592.671	4440
3594.357	4287
3596.042	4373
3597.726	4312
3599.41	4380
3601.094	4282
3602.778	4293
3604.461	4293
3606.143	4314
3607.825	4384
3609.507	4261
3611.188	4155
3612.87	4287
3614.551	4228
3616.229	4265
3617.909	4263
3619.589	4361
3621.269	4191
3622.948	4205
3624.625	4229
3626.302	4190
3627.98	4168
3629.657	4227
3631.334	4224
3633.01	4207
3634.686	4148
3636.361	4107
3638.036	4179
3639.712	4163
3641.385	4232
3643.06	4181
3644.732	4232
3646.405	4138
3648.08	4119
3649.751	4198
3651.424	4125
3653.094	4103
3654.766	4027
3656.436	4131
3658.106	4079
3659.777	4141
3661.446	4167
3663.115	4195
3664.783	4087
3666.452	4151
3668.121	4121
3669.788	4095
3671.454	4078
3673.121	4059
3674.789	4080
3676.455	4075
3678.12	4057
3679.784	4045
3681.45	4094
3683.114	4066
3684.779	3975
3686.442	4051
3688.105	4028
3689.768	4096
3691.43	4031
3693.093	3993
3694.754	3929
3696.415	3972
3698.076	4047
3699.736	4056
3701.396	4020
3703.057	3905
3704.716	4094
3706.375	3980
3708.034	4102
3709.692	4015
3711.351	3942
3713.008	4010
3714.665	4023
3716.321	4065
3717.977	4071
3719.634	4047
3721.29	3994
3722.945	3945
3724.598	3950
3726.253	4002
3727.907	4087
3729.561	3965
3731.214	3966
3732.867	4017
3734.518	3930
3736.171	3907
3737.824	3929
3739.474	3975
3741.125	3988
3742.775	3930
3744.425	3958
3746.074	3994
3747.725	3949
3749.373	3903
3751.022	3984
3752.669	3961
3754.318	3856
3755.966	3887
3757.612	3933
3759.259	3875
3760.905	3859
3762.55	3884
3764.197	3875
3765.842	3893
3767.486	3864
3769.131	3917
3770.774	3892
3772.417	3829
3774.061	3898
3775.705	3877
3777.347	3886
3778.988	3870
3780.629	3828
3782.271	3897
3783.912	3782
3785.552	3870
3787.192	3777
3788.831	3792
3790.472	3897
3792.112	3812
3793.75	3855
3795.388	3861
3797.024	3796
3798.661	3819
3800.3	3775
3801.936	3759
3803.572	3750
3805.208	3795
3806.844	3780
3808.48	3826
3810.115	3713
3811.748	3702
3813.382	3768
3815.016	3792
3816.649	3766
3818.283	3783
3819.914	3801
3821.547	3777
3823.178	3730
3824.809	3829
3826.441	3705
3828.072	3747
3829.701	3715
3831.331	3790
3832.96	3703
3834.591	3700
3836.219	3710
3837.847	3664
3839.475	3715
3841.102	3753
3842.729	3710
3844.357	3758
3845.984	3704
3847.609	3670
3849.234	3676
3850.86	3703
3852.485	3738
3854.11	3694
3855.734	3620
3857.357	3593
3858.981	3715
3860.603	3628
3862.227	3643
3863.848	3722
3865.471	3663
3867.092	3568
3868.713	3731
3870.334	3607
3871.954	3669
3873.575	3620
3875.194	3628
3876.813	3648
3878.433	3640
3880.051	3602
3881.669	3670
3883.286	3637
3884.904	3611
3886.52	3682
3888.138	3597
3889.754	3619
3891.37	3650
3892.985	3652
3894.6	3601
3896.216	3604
3897.831	3519
3899.444	3588
3901.058	3586
3902.67	3656
3904.283	3581
3905.897	3637
3907.509	3571
3909.121	3608
3910.731	3588
3912.342	3546
3913.954	3602
3915.563	3514
3917.174	3510
3918.783	3466
3920.391	3468
3922.002	3588
3923.611	3560
3925.218	3565
3926.826	3576
3928.432	3599
3930.039	3636
3931.647	3542
3933.253	3589
3934.859	3518
3936.464	3568
3938.068	3533
3939.675	3495
3941.278	3503
3942.883	3526
3944.486	3578
3946.089	3560
3947.692	3452
3949.295	3589
3950.898	3553
3952.499	3506
3954.1	3558
3955.7	3496
3957.303	3535
3958.903	3530
3960.502	3477
3962.101	3459
3963.7	3432
3965.301	3494
3966.899	3431
3968.497	3474
3970.094	3487
3971.691	3511
3973.288	3418
3974.885	3498
3976.481	3544
3978.077	3410
3979.672	3437
3981.267	3391
3982.863	3452
3984.457	3525
3986.051	3526
3987.645	3363
3989.238	3425
3990.831	3431
3992.425	3400
3994.017	3343
3995.607	3389
3997.199	3358
3998.79	3388
4000.382	3339
4001.973	3364
4003.561	3322
4005.151	3316
4006.741	3422
4008.331	3377
4009.918	3316
4011.507	3376
4013.095	3389
4014.681	3364
4016.269	3247
4017.856	3292
4019.443	3322
4021.028	3307
4022.614	3298
4024.199	3293
4025.785	3285
4027.37	3363
4028.953	3329
4030.536	3300
4032.12	3273
4033.704	3269
4035.287	3318
4036.869	3313
4038.45	3271
4040.032	3273
4041.613	3307
4043.195	3291
4044.776	3217
4046.356	3307
4047.935	3267
4049.515	3231
4051.095	3231
4052.674	3223
4054.251	3208
4055.829	3285
4057.406	3202
4058.985	3251
4060.562	3265
4062.139	3267
4063.715	3215
4065.29	3225
4066.865	3230
4068.442	3282
4070.016	3185
4071.59	3109
4073.164	3229
4074.738	3195
4076.312	3185
4077.885	3124
4079.458	3194
4081.03	3155
4082.602	3150
4084.173	3121
4085.745	3238
4087.315	3139
4088.886	3172
4090.456	3178
4092.026	3184
4093.596	3194
4095.165	3218
4096.734	3204
4098.301	3188
4099.869	3164
4101.437	3168
4103.006	3200
4104.572	3176
4106.139	3121
4107.704	3169
4109.27	3158
4110.837	3117
4112.401	3107
4113.966	3131
4115.53	3006
4117.094	3239
4118.659	3159
4120.223	3199
4121.785	3132
4123.347	3128
4124.909	3074
4126.471	3095
4128.034	3065
4129.595	3172
4131.155	3127
4132.716	3149
4134.275	3053
4135.836	3114
4137.395	3085
4138.955	3095
4140.513	3082
4142.071	3054
4143.628	3066
4145.188	3064
4146.745	3048
4148.302	3039
4149.858	2991
4151.414	3083
4152.971	3070
4154.526	3013
4156.081	3067
4157.635	3056
4159.189	3065
4160.745	3021
4162.298	2983
4163.852	2987
4165.405	2954
4166.957	3039
4168.51	2906
4170.063	2922
4171.614	2956
4173.166	3051
4174.717	2996
4176.267	2926
4177.817	2981
4179.368	2977
4180.917	3015
4182.466	2984
4184.016	2958
4185.564	3004
4187.112	3008
4188.66	3023
4190.207	2928
4191.754	2990
4193.301	2981
4194.848	2947
4196.394	2958
4197.94	2944
4199.484	2886
4201.03	2993
4202.575	2916
4204.12	2928
4205.663	2900
4207.207	2965
4208.75	2892
4210.292	2899
4211.836	2903
4213.378	2936
4214.92	2879
4216.46	2937
4218.002	2926
4219.544	2864
4221.083	2874
4222.625	2841
4224.164	2962
4225.703	2900
4227.244	2907
4228.782	2893
4230.32	2892
4231.857	2838
4233.395	2871
4234.933	2865
4236.471	2908
4238.007	2922
4239.542	2909
4241.078	2879
4242.614	2869
4244.15	2902
4245.685	2819
4247.219	2894
4248.753	2861
4250.287	2866
4251.82	2873
4253.354	2860
4254.887	2850
4256.419	2855
4257.951	2826
4259.483	2793
4261.016	2826
4262.547	2823
4264.078	2879
4265.608	2814
4267.137	2761
4268.668	2789
4270.197	2834
4271.727	2770
4273.254	2827
4274.783	2810
4276.311	2801
4277.84	2787
4279.366	2792
4280.894	2745
4282.42	2755
4283.946	2813
4285.473	2758
4286.998	2696
4288.523	2746
4290.047	2747
4291.572	2740
4293.096	2784
4294.622	2841
4296.144	2782
4297.668	2752
4299.19	2741
4300.713	2782
4302.236	2729
4303.758	2801
4305.279	2797
4306.799	2780
4308.321	2722
4309.842	2702
4311.361	2719
4312.882	2759
4314.401	2679
