400.0961	3642
402.6185	3571
405.1424	3630
407.6635	3624
410.1838	3658
412.7035	3709
415.2225	3671
417.7388	3646
420.2585	3728
422.7754	3718
425.2917	3767
427.8072	3761
430.3221	3828
432.8363	3853
435.3498	3811
437.8626	3848
440.3727	3895
442.8841	3814
445.3969	3842
447.907	3862
450.4142	3849
452.9229	3768
455.4289	3879
457.9362	3821
460.4449	3797
462.9488	3829
465.454	3832
467.9566	3965
470.4604	3910
472.9637	3885
475.4662	3885
477.966	3824
480.4671	3807
482.9656	3902
485.4633	3967
487.9645	3867
490.4608	4010
492.9566	3870
495.4536	3908
497.948	3896
500.4437	3921
502.9387	4015
505.431	4073
507.9226	3984
510.4136	3991
512.9079	4075
515.3975	3904
517.8864	4005
520.3746	4003
522.8622	4029
525.3491	4095
527.8394	4009
530.3249	4022
532.8098	3960
535.2939	3977
537.7774	4084
540.2623	4006
542.7444	4011
545.2259	4035
547.7067	4001
550.1868	3994
552.6683	3907
555.147	4010
557.6231	4037
560.1005	4036
562.5773	4062
565.0534	4015
567.5308	3945
570.0056	4114
572.4776	4028
574.951	4108
577.4237	4115
579.8978	4004
582.3671	4131
584.8378	4190
587.3079	4145
589.7773	4055
592.244	4214
594.714	4031
597.1793	4177
599.6461	4130
602.1121	4144
604.5754	4155
607.0421	4119
609.5042	4209
611.9675	4156
614.4282	4119
616.8902	4172
619.3515	4069
621.8122	4079
624.2702	4057
626.7296	4183
629.1863	4218
631.6423	4184
634.1017	4203
636.5563	4205
639.0104	4075
641.4658	4171
643.9185	4192
646.3725	4174
648.8239	4243
651.2766	4181
653.7266	4155
656.176	4227
658.6247	4121
661.0748	4200
663.5242	4280
665.9709	4164
668.417	4200
670.8624	4164
673.3092	4271
675.7533	4242
678.1968	4269
680.6395	4205
683.0817	4263
685.5251	4261
687.9659	4200
690.4061	4267
692.8456	4338
695.2844	4283
697.7226	4282
700.1621	4331
702.599	4372
705.0332	4261
707.4688	4334
709.9036	4322
712.3399	4358
714.7735	4309
717.2044	4285
719.6367	4402
722.0683	4292
724.4993	4431
726.9296	4459
729.3593	4473
731.7883	4449
734.2147	4384
736.6423	4389
739.0714	4507
741.4958	4513
743.9216	4553
746.3447	4384
748.7691	4433
751.1929	4530
753.616	4539
756.0366	4488
758.4584	4538
760.8776	4523
763.2982	4559
765.718	4542
768.1373	4473
770.5539	4635
772.9698	4560
775.3871	4490
777.8038	4612
780.2178	4562
782.6332	4521
785.0459	4576
787.458	4646
789.8714	4655
792.2842	4548
794.6943	4593
797.1038	4527
799.5127	4579
801.9209	4643
804.3324	4565
806.7393	4615
809.1456	4593
811.5513	4561
813.9562	4657
816.3625	4645
818.7663	4656
821.1693	4584
823.5718	4589
825.9735	4620
828.3746	4618
830.7771	4605
833.177	4644
835.5762	4645
837.9747	4722
840.3727	4720
842.772	4682
845.1666	4810
847.5626	4727
849.958	4755
852.3527	4741
854.7488	4663
857.1403	4793
859.5331	4832
861.9253	4799
864.3168	4713
866.7057	4771
869.098	4781
871.4876	4685
873.8746	4707
876.263	4768
878.6487	4747
881.0378	4826
883.4243	4716
885.8081	4827
888.1933	4744
890.5759	4705
892.9598	4667
895.343	4669
897.7256	5826
900.1057	5934
902.4871	5110
904.8659	4756
907.246	4777
909.6254	4719
912.0023	4764
914.3786	4963
916.7562	4846
919.1331	5018
921.5074	4992
923.8831	5096
926.2562	4956
928.6287	4969
931.0005	4953
933.3757	5047
935.7462	5044
938.1162	4950
940.4855	4960
942.8542	4989
945.2242	4998
947.5916	5099
949.9584	5044
952.3266	5239
954.6921	5250
957.0571	5369
959.4233	5462
961.787	5513
964.15	5540
966.5125	5322
968.8742	5221
971.2354	5182
973.5959	5034
975.9559	5072
978.3151	4940
980.6738	4951
983.0338	4931
985.3912	4958
987.7461	4880
990.1022	4768
992.4578	4928
994.8127	4903
997.1689	4883
999.5207	4944
1001.874	5008
1004.226	4959
1006.576	4941
1008.929	4874
1011.28	4927
1013.628	4843
1015.977	4973
1018.324	4977
1020.674	4960
1023.019	4953
1025.366	4912
1027.713	4846
1030.056	4893
1032.399	5030
1034.746	4927
1037.087	4936
1039.431	4944
1041.771	4926
1044.113	4885
1046.454	5012
1048.793	4988
1051.133	4872
1053.471	4978
1055.807	4941
1058.146	4890
1060.483	4983
1062.818	4953
1065.153	5046
1067.489	4969
1069.822	5077
1072.156	5094
1074.488	5050
1076.82	5087
1079.15	4996
1081.48	5124
1083.814	5002
1086.143	5052
1088.471	5014
1090.799	4987
1093.126	4991
1095.452	5029
1097.78	4999
1100.105	5002
1102.43	4958
1104.754	5066
1107.077	5021
1109.4	5145
1111.722	4994
1114.044	5068
1116.365	4989
1118.685	5097
1121.005	5090
1123.324	5117
1125.643	5094
1127.961	5023
1130.278	5082
1132.595	5114
1134.911	5039
1137.226	5057
1139.541	5017
1141.854	5009
1144.167	4983
1146.482	5118
1148.793	4992
1151.105	5130
1153.414	4983
1155.725	5110
1158.033	5030
1160.344	5039
1162.651	5100
1164.959	5132
1167.265	5060
1169.572	5112
1171.878	5060
1174.184	5105
1176.488	5097
1178.79	5092
1181.094	5058
1183.396	5204
1185.699	5023
1188.001	5066
1190.301	5037
1192.6	5053
1194.9	5048
1197.2	5177
1199.497	5094
1201.794	5110
1204.09	5110
1206.387	5116
1208.684	5073
1210.978	5043
1213.272	5070
1215.565	5111
1217.858	5074
1220.15	5124
1222.443	5127
1224.734	5029
1227.024	5149
1229.313	5256
1231.602	5232
1233.892	5214
1236.18	5240
1238.467	5184
1240.754	5374
1243.04	5264
1245.325	5243
1247.612	5314
1249.896	5364
1252.178	5229
1254.461	5348
1256.743	5317
1259.027	5436
1261.308	5282
1263.587	5356
1265.867	5363
1268.146	5348
1270.425	5338
1272.703	5221
1274.981	5362
1277.256	5388
1279.532	5358
1281.808	5219
1284.083	5308
1286.358	5309
1288.63	5345
1290.904	5226
1293.175	5185
1295.449	5230
1297.719	5282
1299.99	5203
1302.259	5212
1304.529	5186
1306.798	5157
1309.065	5254
1311.333	5152
1313.599	5269
1315.866	5177
1318.131	5176
1320.396	5268
1322.66	5239
1324.925	5238
1327.187	5168
1329.448	5219
1331.711	5334
1333.974	5294
1336.234	5332
1338.493	5239
1340.752	5301
1343.01	5138
1345.269	5160
1347.526	5285
1349.784	5159
1352.04	5155
1354.295	5258
1356.552	5227
1358.806	5164
1361.059	5312
1363.312	5136
1365.564	5234
1367.818	5293
1370.069	5245
1372.318	5251
1374.568	5242
1376.817	5335
1379.066	5192
1381.316	5272
1383.564	5431
1385.809	5346
1388.056	5316
1390.301	5508
1392.549	5464
1394.793	5436
1397.036	5465
1399.279	5480
1401.522	5416
1403.763	5444
1406.007	5417
1408.248	5442
1410.487	5462
1412.727	5381
1414.965	5446
1417.205	5419
1419.442	5537
1421.68	5417
1423.915	5489
1426.152	5457
1428.388	5432
1430.623	5371
1432.857	5535
1435.091	5526
1437.323	5499
1439.556	5510
1441.789	5628
1444.019	5446
1446.25	5558
1448.48	5591
1450.708	5647
1452.938	5477
1455.167	5512
1457.394	5630
1459.62	5608
1461.846	5511
1464.073	5506
1466.299	5650
1468.523	5492
1470.746	5481
1472.969	5298
1475.191	5401
1477.415	5450
1479.636	5288
1481.858	5345
1484.078	5336
1486.298	5401
1488.518	5278
1490.736	5314
1492.954	5310
1495.169	5205
1497.386	5312
1499.602	5305
1501.819	5254
1504.034	5231
1506.248	5261
1508.462	5296
1510.675	5247
1512.888	5277
1515.1	5269
1517.311	5291
1519.522	5205
1521.732	5341
1523.942	5368
1526.151	5364
1528.36	5247
1530.566	5209
1532.773	5314
1534.98	5305
1537.187	5274
1539.392	5250
1541.596	5265
1543.801	5366
1546.005	5329
1548.208	5291
1550.411	5330
1552.612	5262
1554.814	5433
1557.013	5287
1559.212	5383
1561.414	5362
1563.612	5381
1565.811	5375
1568.007	5363
1570.203	5356
1572.403	5288
1574.598	5401
1576.792	5418
1578.988	5391
1581.181	5440
1583.376	5378
1585.568	5398
1587.761	5509
1589.952	5519
1592.143	5453
1594.333	5485
1596.524	5441
1598.715	5503
1600.903	5494
1603.091	5344
1605.278	5475
1607.466	5512
1609.652	5500
1611.838	5468
1614.023	5467
1616.207	5488
1618.391	5424
1620.576	5365
1622.759	5444
1624.941	5530
1627.123	5445
1629.304	5476
1631.484	5440
1633.664	5517
1635.844	5556
1638.022	5534
1640.201	5498
1642.38	5558
1644.556	5496
1646.732	5466
1648.908	5597
1651.084	5644
1653.257	5475
1655.433	5491
1657.607	5599
1659.779	5511
1661.951	5507
1664.122	5537
1666.295	5476
1668.467	5554
1670.635	5531
1672.805	5582
1674.973	5568
1677.142	5521
1679.31	5557
1681.478	5511
1683.644	5574
1685.81	5536
1687.975	5561
1690.142	5497
1692.305	5490
1694.468	5508
1696.632	5464
1698.794	5396
1700.957	5457
1703.119	5525
1705.279	5421
1707.439	5438
1709.598	5492
1711.758	5467
1713.917	5434
1716.075	5473
1718.231	5405
1720.388	5426
1722.543	5417
1724.702	5369
1726.856	5476
1729.01	5411
1731.164	5516
1733.317	5473
1735.471	5284
1737.623	5327
1739.774	5315
1741.925	5447
1744.075	5481
1746.225	5504
1748.376	5428
1750.524	5376
1752.672	5445
1754.82	5512
1756.965	5475
1759.113	5295
1761.259	5374
1763.405	5488
1765.549	5463
1767.694	5447
1769.836	5476
1771.981	5538
1774.123	5529
1776.264	5486
1778.405	5539
1780.546	5523
1782.687	5457
1784.827	5512
1786.966	5597
1789.103	5559
1791.242	5469
1793.381	5507
1795.517	5398
1797.653	5471
1799.788	5540
1801.923	5397
1804.057	5423
1806.193	5466
1808.326	5421
1810.457	5507
1812.59	5490
1814.721	5609
1816.855	5485
1818.984	5509
1821.113	5392
1823.244	5476
1825.372	5551
1827.499	5504
1829.63	5474
1831.756	5479
1833.882	5484
1836.007	5558
1838.132	5492
1840.26	5479
1842.384	5434
1844.507	5357
1846.63	5425
1848.752	5522
1850.875	5403
1852.996	5539
1855.118	5388
1857.238	5427
1859.358	5527
1861.477	5448
1863.597	5453
1865.715	5533
1867.832	5422
1869.948	5442
1872.064	5317
1874.181	5438
1876.297	5435
1878.411	5423
1880.526	5386
1882.639	5440
1884.752	5407
1886.865	5444
1888.977	5555
1891.089	5486
1893.2	5436
1895.308	5462
1897.42	5484
1899.53	5505
1901.639	5697
1903.745	5423
1905.853	5454
1907.962	5523
1910.067	5477
1912.174	5450
1914.278	5456
1916.383	5448
1918.486	5477
1920.592	5590
1922.694	5475
1924.797	5568
1926.898	5466
1929	5518
1931.102	5677
1933.203	5600
1935.301	5608
1937.401	5516
1939.499	5550
1941.598	5516
1943.697	5536
1945.793	5481
1947.888	5602
1949.985	5564
1952.08	5484
1954.176	5580
1956.269	5599
1958.364	5625
1960.457	5542
1962.549	5432
1964.642	5485
1966.733	5539
1968.823	5488
1970.913	5445
1973.005	5615
1975.093	5351
1977.184	5580
1979.271	5532
1981.359	5526
1983.446	5568
1985.532	5522
1987.619	5496
1989.705	5474
1991.789	5450
1993.874	5411
1995.956	5446
1998.041	5464
2000.123	5490
2002.206	5551
2004.287	5501
2006.368	5459
2008.449	5416
2010.529	5443
2012.609	5485
2014.688	5445
2016.766	5428
2018.843	5477
2020.922	5483
2022.999	5413
2025.074	5430
2027.15	5543
2029.225	5530
2031.299	5361
2033.375	5344
2035.447	5374
2037.52	5455
2039.592	5526
2041.664	5423
2043.736	5484
2045.807	5462
2047.876	5440
2049.947	5485
2052.015	5491
2054.086	5444
2056.153	5566
2058.221	5485
2060.288	5460
2062.353	5480
2064.42	5441
2066.486	5481
2068.55	5371
2070.614	5527
2072.678	5473
2074.741	5436
2076.805	5467
2078.866	5445
2080.929	5380
2082.99	5481
2085.049	5424
2087.109	5421
2089.17	5522
2091.228	5487
2093.286	5386
2095.344	5391
2097.4	5411
2099.46	5505
2101.516	5453
2103.572	5516
2105.626	5505
2107.679	5511
2109.735	5525
2111.788	5457
2113.841	5408
2115.894	5532
2117.945	5591
2119.997	5396
2122.049	5426
2124.1	5458
2126.148	5407
2128.197	5404
2130.246	5440
2132.296	5455
2134.342	5506
2136.39	5504
2138.437	5468
2140.483	5511
2142.527	5388
2144.574	5451
2146.619	5398
2148.661	5354
2150.705	5413
2152.747	5366
2154.792	5298
2156.832	5439
2158.874	5326
2160.915	5384
2162.954	5358
2164.995	5466
2167.034	5409
2169.072	5362
2171.111	5426
2173.148	5376
2175.186	5550
2177.223	5403
2179.258	5381
2181.294	5449
2183.328	5414
2185.362	5352
2187.398	5283
2189.431	5368
2191.463	5244
2193.495	5426
2195.528	5415
2197.56	5408
2199.59	5297
2201.62	5356
2203.649	5361
2205.678	5278
2207.708	5262
2209.737	5412
2211.764	5335
2213.791	5306
2215.817	5351
2217.843	5320
2219.87	5397
2221.895	5372
2223.919	5340
2225.942	5273
2227.966	5373
2229.988	5211
2232.012	5314
2234.032	5322
2236.054	5352
2238.074	5245
2240.095	5363
2242.116	5322
2244.135	5300
2246.153	5305
2248.171	5207
2250.188	5279
2252.208	5308
2254.223	5313
2256.239	5328
2258.255	5346
2260.269	5376
2262.283	5298
2264.3	5347
2266.312	5345
2268.325	5305
2270.336	5288
2272.349	5327
2274.362	5317
2276.372	5338
2278.383	5321
2280.392	5311
2282.402	5376
2284.409	5221
2286.418	5218
2288.427	5321
2290.433	5326
2292.441	5335
2294.446	5242
2296.453	5252
2298.459	5411
2300.463	5313
2302.466	5319
2304.471	5294
2306.475	5391
2308.477	5228
2310.478	5256
2312.481	5343
2314.481	5321
2316.481	5220
2318.482	5303
2320.482	5243
2322.48	5273
2324.48	5239
2326.478	5334
2328.476	5292
2330.473	5309
2332.469	5261
2334.465	5339
2336.46	5201
2338.454	5311
2340.45	5227
2342.444	5264
2344.437	5144
2346.43	5187
2348.421	5237
2350.414	5185
2352.405	5309
2354.396	5281
2356.386	5214
2358.376	5193
2360.366	5132
2362.355	5180
2364.343	4988
2366.331	5244
2368.317	5227
2370.304	5168
2372.292	5180
2374.278	5194
2376.262	5289
2378.247	5110
2380.23	5227
2382.216	5181
2384.199	5054
2386.181	5121
2388.163	5100
2390.144	5116
2392.127	5281
2394.107	5128
2396.087	5132
2398.066	5172
2400.046	5234
2402.023	5097
2404.004	5116
2405.981	5138
2407.957	5144
2409.934	5110
2411.91	5149
2413.886	5162
2415.862	5172
2417.836	5196
2419.809	5153
2421.784	5129
2423.756	5162
2425.73	5082
2427.701	5197
2429.672	5189
2431.644	5108
2433.615	5085
2435.586	5185
2437.555	5169
2439.523	5172
2441.491	5068
2443.459	5118
2445.428	5141
2447.395	5101
2449.361	5230
2451.327	5060
2453.292	5042
2455.257	5072
2457.223	5120
2459.187	5076
2461.15	5179
2463.113	4977
2465.076	5045
2467.039	5127
2468.999	5097
2470.96	5097
2472.921	5076
2474.881	5027
2476.841	5057
2478.8	5056
2480.759	5103
2482.717	5008
2484.675	5079
2486.63	5096
2488.589	5165
2490.545	5130
2492.5	5077
2494.455	5000
2496.408	5000
2498.364	5013
2500.318	5071
2502.27	4990
2504.223	5030
2506.174	5008
2508.126	5095
2510.078	4984
2512.03	4951
2513.979	5040
2515.927	5117
2517.877	5049
2519.826	4988
2521.775	5027
2523.722	5003
2525.668	5083
2527.616	4949
2529.561	4991
2531.508	5021
2533.452	4952
2535.398	5130
2537.342	4961
2539.284	5038
2541.229	4939
2543.173	4977
2545.114	5067
2547.055	5073
2548.996	4958
2550.938	4953
2552.878	5023
2554.817	4899
2556.756	5010
2558.695	5041
2560.633	5010
2562.572	5028
2564.509	5003
2566.445	4982
2568.382	5043
2570.317	4926
2572.254	4935
2574.189	4943
2576.123	5074
2578.057	4993
2579.99	5112
2581.923	4952
2583.855	4991
2585.788	5067
2587.719	5004
2589.65	5023
2591.579	5019
2593.511	5135
2595.44	4995
2597.37	5014
2599.297	5102
2601.225	4949
2603.153	4891
2605.08	5021
2607.007	5141
2608.932	4982
2610.858	5011
2612.782	5094
2614.709	5088
2616.632	4978
2618.556	5110
2620.478	4941
2622.401	5005
2624.324	5078
2626.247	4928
2628.167	4979
2630.088	5002
2632.008	5071
2633.928	5109
2635.848	5081
2637.766	5078
2639.684	4976
2641.603	5031
2643.519	4964
2645.437	5013
2647.353	4991
2649.27	5019
2651.184	5035
2653.099	5037
2655.014	4983
2656.928	5014
2658.842	5020
2660.755	5053
2662.667	4989
2664.579	4876
2666.491	4986
2668.402	4999
2670.312	5021
2672.222	4990
2674.132	5090
2676.042	5050
2677.951	4903
2679.859	5069
2681.766	5002
2683.674	4924
2685.582	4942
2687.488	4904
2689.392	5037
2691.298	5032
2693.202	4958
2695.107	4894
2697.012	4846
2698.914	4917
2700.817	4994
2702.72	4878
2704.622	4917
2706.524	4963
2708.425	4907
2710.326	4830
2712.225	4908
2714.125	4938
2716.024	5006
2717.923	4933
2719.822	5064
2721.719	4947
2723.616	4956
2725.512	4920
2727.41	4926
2729.305	4916
2731.201	4958
2733.095	4927
2734.99	4973
2736.884	4974
2738.778	4801
2740.67	4854
2742.562	4849
2744.455	4870
2746.346	4952
2748.238	4890
2750.129	4895
2752.018	4908
2753.907	4990
2755.797	4972
2757.687	4862
2759.575	4801
2761.462	4803
2763.349	4911
2765.237	4947
2767.124	4898
2769.009	4907
2770.894	4944
2772.779	4865
2774.663	4877
2776.547	4952
2778.431	4871
2780.314	4725
2782.197	4899
2784.078	4815
2785.96	4908
2787.842	4875
2789.723	4882
2791.603	4753
2793.483	4852
2795.362	4798
2797.241	4883
2799.121	4810
2800.997	4845
2802.874	4778
2804.751	4889
2806.628	4832
2808.506	4791
2810.38	4800
2812.255	4836
2814.13	4882
2816.003	4897
2817.878	4853
2819.752	4833
2821.623	4956
2823.496	4845
2825.368	4899
2827.238	4804
2829.111	4778
2830.98	4881
2832.851	4820
2834.719	4824
2836.589	4913
2838.458	4848
2840.327	4847
2842.193	4888
2844.061	4787
2845.927	4864
2847.794	4821
2849.66	4995
2851.525	4919
2853.39	4827
2855.254	4865
2857.117	4951
2858.983	4953
2860.845	5038
2862.707	4982
2864.569	5030
2866.431	5051
2868.293	5103
2870.154	5120
2872.013	5043
2873.873	5074
2875.733	5233
2877.592	5154
2879.451	5135
2881.309	5311
2883.166	5235
2885.022	5346
2886.879	5275
2888.736	5272
2890.591	5255
2892.446	5313
2894.301	5299
2896.155	5239
2898.009	5374
2899.863	5239
2901.716	5306
2903.568	5178
2905.419	5230
2907.27	5162
2909.123	5283
2910.973	5311
2912.824	5306
2914.673	5355
2916.521	5333
2918.372	5483
2920.22	5429
2922.067	5434
2923.914	5524
2925.761	5470
2927.607	5553
2929.455	5595
2931.301	5599
2933.144	5638
2934.99	5600
2936.833	5734
2938.678	5758
2940.522	5755
2942.364	5870
2944.207	5824
2946.048	5827
2947.891	5979
2949.731	6002
2951.571	5875
2953.412	5968
2955.25	5960
2957.09	5728
2958.93	5798
2960.767	5865
2962.606	5669
2964.443	5789
2966.279	5719
2968.116	5566
2969.953	5529
2971.788	5443
2973.623	5412
2975.457	5353
2977.292	5363
2979.127	5398
2980.959	5290
2982.792	5290
2984.624	5210
2986.455	5259
2988.288	5193
2990.119	5159
2991.949	5103
2993.779	5148
2995.608	5089
2997.439	4855
2999.268	5076
3001.096	5011
3002.923	5018
3004.751	5015
3006.578	4860
3008.406	4887
3010.232	4813
3012.057	4834
3013.883	4784
3015.706	4750
3017.532	4802
3019.356	4738
3021.179	4722
3023.002	4594
3024.823	4609
3026.646	4669
3028.469	4648
3030.289	4545
3032.11	4587
3033.93	4696
3035.749	4655
3037.57	4541
3039.39	4640
3041.207	4548
3043.026	4663
3044.842	4600
3046.661	4562
3048.477	4556
3050.294	4498
3052.109	4501
3053.925	4561
3055.739	4565
3057.555	4488
3059.368	4548
3061.181	4599
3062.995	4573
3064.807	4501
3066.62	4527
3068.433	4471
3070.243	4417
3072.054	4542
3073.865	4617
3075.675	4480
3077.485	4534
3079.293	4537
3081.102	4432
3082.911	4527
3084.719	4460
3086.527	4451
3088.333	4518
3090.139	4498
3091.945	4414
3093.75	4500
3095.557	4397
3097.361	4368
3099.165	4440
3100.969	4499
3102.772	4439
3104.575	4438
3106.379	4470
3108.181	4391
3109.982	4437
3111.783	4376
3113.584	4354
3115.386	4390
3117.186	4417
3118.985	4397
3120.783	4373
3122.582	4347
3124.381	4357
3126.179	4315
3127.975	4342
3129.772	4323
3131.569	4374
3133.365	4354
3135.161	4409
3136.956	4320
3138.751	4336
3140.544	4345
3142.338	4261
3144.132	4388
3145.925	4228
3147.717	4272
3149.509	4300
3151.301	4338
3153.091	4277
3154.884	4348
3156.673	4363
3158.462	4284
3160.252	4254
3162.041	4341
3163.831	4278
3165.618	4299
3167.405	4250
3169.193	4358
3170.979	4234
3172.767	4299
3174.553	4227
3176.338	4234
3178.123	4313
3179.907	4285
3181.692	4230
3183.477	4158
3185.259	4227
3187.042	4212
3188.824	4289
3190.607	4266
3192.389	4239
3194.17	4255
3195.951	4212
3197.73	4295
3199.51	4254
3201.289	4179
3203.07	4257
3204.848	4157
3206.626	4268
3208.403	4257
3210.18	4289
3211.959	4235
3213.735	4162
3215.511	4245
3217.285	4241
3219.06	4217
3220.836	4216
3222.611	4238
3224.384	4172
3226.158	4293
3227.929	4247
3229.702	4296
3231.476	4216
3233.248	4174
3235.018	4254
3236.789	4271
3238.56	4259
3240.33	4199
3242.1	4218
3243.869	4215
3245.637	4245
3247.405	4229
3249.172	4222
3250.941	4292
3252.707	4191
3254.474	4234
3256.24	4184
3258.006	4176
3259.772	4158
3261.537	4255
3263.301	4312
3265.065	4220
3266.828	4223
3268.592	4218
3270.355	4178
3272.117	4124
3273.878	4097
3275.64	4138
3277.401	4155
3279.162	4162
3280.922	4181
3282.682	4172
3284.441	4263
3286.199	4246
3287.959	4183
3289.716	4189
3291.475	4202
3293.232	4148
3294.988	4238
3296.744	4042
3298.501	4189
3300.256	4187
3302.011	4140
3303.766	4078
3305.52	4171
3307.275	4144
3309.028	4132
3310.781	4148
3312.533	4125
3314.285	4159
3316.038	4176
3317.789	4145
3319.54	4112
3321.289	4162
3323.039	4177
3324.789	4186
3326.539	4151
3328.288	4128
3330.035	4127
3331.783	4201
3333.531	4207
3335.28	4112
3337.025	4144
3338.771	4126
3340.518	4068
3342.262	4146
3344.009	4134
3345.753	4127
3347.497	4089
3349.24	4104
3350.983	4065
3352.726	4065
3354.469	4079
3356.212	4110
3357.952	4138
3359.694	4080
3361.434	4023
3363.176	3991
3364.916	4095
3366.654	4038
3368.394	4027
3370.132	4031
3371.871	4060
3373.61	4062
3375.346	3921
3377.083	4019
3378.82	4123
3380.556	3976
3382.292	3942
3384.027	4041
3385.763	4044
3387.497	4024
3389.231	4017
3390.965	3941
3392.698	3960
3394.431	4004
3396.164	3992
3397.896	4028
3399.627	3954
3401.36	4011
3403.09	3980
3404.82	3983
3406.55	3979
3408.279	3976
3410.01	3991
3411.738	3928
3413.467	4066
3415.194	4060
3416.92	3932
3418.647	4037
3420.375	3968
3422.102	4000
3423.827	3914
3425.553	3919
3427.277	3924
3429.003	3846
3430.727	3917
3432.451	3966
3434.173	3861
3435.896	3888
3437.62	4006
3439.343	3794
3441.063	3867
3442.785	3906
3444.505	3887
3446.226	3870
3447.948	3907
3449.666	3923
3451.386	3895
3453.104	3816
3454.823	3888
3456.541	3853
3458.259	3842
3459.976	3846
3461.693	3883
3463.408	3830
3465.125	3896
3466.841	3903
3468.556	3849
3470.271	3798
3471.985	3781
3473.698	3748
3475.414	3821
3477.126	3939
3478.838	3735
3480.55	3721
3482.263	3857
3483.975	3774
3485.686	3764
3487.396	3759
3489.106	3776
3490.817	3709
3492.526	3732
3494.236	3765
3495.944	3739
3497.652	3772
3499.359	3704
3501.066	3775
3502.775	3628
3504.481	3718
3506.187	3665
3507.893	3743
3509.598	3660
3511.304	3615
3513.009	3672
3514.713	3680
3516.417	3688
3518.12	3726
3519.821	3742
3521.525	3617
3523.228	3698
3524.929	3737
3526.631	3665
3528.33	3725
3530.032	3673
3531.733	3683
3533.433	3704
3535.131	3679
3536.83	3664
3538.529	3577
3540.227	3659
3541.925	3611
3543.623	3666
3545.319	3587
3547.016	3688
3548.712	3602
3550.408	3640
3552.103	3604
3553.798	3621
3555.491	3565
3557.188	3581
3558.88	3628
3560.574	3662
3562.266	3524
3563.959	3587
3565.651	3598
3567.343	3602
3569.035	3578
3570.725	3562
3572.415	3594
3574.106	3548
3575.797	3613
3577.485	3496
3579.174	3530
3580.863	3537
3582.551	3514
3584.238	3529
3585.926	3540
3587.613	3606
3589.3	3447
3590.986	3506
3592.671	3516
3594.357	3608
3596.042	3533
3597.726	3545
3599.41	3528
3601.094	3491
3602.778	3468
3604.461	3462
3606.143	3504
3607.825	3503
3609.507	3410
3611.188	3437
3612.87	3431
3614.551	3546
3616.229	3514
3617.909	3413
3619.589	3393
3621.269	3432
3622.948	3426
3624.625	3426
3626.302	3373
3627.98	3401
3629.657	3449
3631.334	3483
3633.01	3397
3634.686	3368
3636.361	3401
3638.036	3403
3639.712	3438
3641.385	3415
3643.06	3331
3644.732	3336
3646.405	3394
3648.08	3342
3649.751	3406
3651.424	3344
3653.094	3296
3654.766	3326
3656.436	3425
3658.106	3321
3659.777	3329
3661.446	3329
3663.115	3309
3664.783	3362
3666.452	3363
3668.121	3367
3669.788	3273
3671.454	3373
3673.121	3248
3674.789	3271
3676.455	3228
3678.12	3385
3679.784	3332
3681.45	3273
3683.114	3283
3684.779	3254
3686.442	3315
3688.105	3237
3689.768	3250
3691.43	3355
3693.093	3275
3694.754	3296
3696.415	3346
3698.076	3288
3699.736	3227
3701.396	3290
3703.057	3280
3704.716	3376
3706.375	3236
3708.034	3315
3709.692	3274
3711.351	3281
3713.008	3313
3714.665	3311
3716.321	3271
3717.977	3276
3719.634	3244
3721.29	3240
3722.945	3255
3724.598	3217
3726.253	3257
3727.907	3264
3729.561	3190
3731.214	3235
3732.867	3221
3734.518	3229
3736.171	3172
3737.824	3176
3739.474	3306
3741.125	3242
3742.775	3239
3744.425	3190
3746.074	3196
3747.725	3258
3749.373	3227
3751.022	3147
3752.669	3125
3754.318	3153
3755.966	3205
3757.612	3191
3759.259	3166
3760.905	3195
3762.55	3213
3764.197	3151
3765.842	3147
3767.486	3188
3769.131	3181
3770.774	3188
3772.417	3137
3774.061	3145
3775.705	3116
3777.347	3126
3778.988	3168
3780.629	3144
3782.271	3119
3783.912	3117
3785.552	3102
3787.192	3125
3788.831	3146
3790.472	3074
3792.112	3120
3793.75	3126
3795.388	3058
3797.024	3098
3798.661	3176
3800.3	3059
3801.936	3061
3803.572	3090
3805.208	3007
3806.844	3051
3808.48	3045
3810.115	3021
3811.748	3051
3813.382	3119
3815.016	3098
3816.649	3024
3818.283	3039
3819.914	3073
3821.547	3086
3823.178	3117
3824.809	3076
3826.441	3034
3828.072	3004
3829.701	2999
3831.331	3016
3832.96	2997
3834.591	3069
3836.219	2986
3837.847	3054
3839.475	3021
3841.102	3001
3842.729	3016
3844.357	3005
3845.984	3017
3847.609	3022
3849.234	3029
3850.86	2975
3852.485	3086
3854.11	2937
3855.734	2954
3857.357	2940
3858.981	2979
3860.603	3030
3862.227	2991
3863.848	3036
3865.471	3001
3867.092	3004
3868.713	2966
3870.334	2998
3871.954	2977
3873.575	2926
3875.194	3015
3876.813	2955
3878.433	2963
3880.051	2892
3881.669	2945
3883.286	2937
3884.904	3023
3886.52	2863
3888.138	2984
3889.754	2956
3891.37	2929
3892.985	2947
3894.6	2978
3896.216	2896
3897.831	2914
3899.444	2932
3901.058	2908
3902.67	2937
3904.283	2870
3905.897	2986
3907.509	2906
3909.121	2920
3910.731	2902
3912.342	2987
3913.954	2907
3915.563	2885
3917.174	2907
3918.783	2924
3920.391	2940
3922.002	2879
3923.611	2846
3925.218	2859
3926.826	2914
3928.432	2970
3930.039	2980
3931.647	2904
3933.253	2918
3934.859	2908
3936.464	2820
3938.068	2888
3939.675	2929
3941.278	2938
3942.883	2910
3944.486	2874
3946.089	2887
3947.692	2832
3949.295	2860
3950.898	2908
3952.499	2808
3954.1	2909
3955.7	2871
3957.303	2813
3958.903	2874
3960.502	2812
3962.101	2837
3963.7	2825
3965.301	2855
3966.899	2862
3968.497	2813
3970.094	2774
3971.691	2804
3973.288	2882
3974.885	2787
3976.481	2780
3978.077	2744
3979.672	2819
3981.267	2756
3982.863	2807
3984.457	2732
3986.051	2836
3987.645	2830
3989.238	2803
3990.831	2809
3992.425	2736
3994.017	2770
3995.607	2724
3997.199	2701
3998.79	2733
4000.382	2793
4001.973	2767
4003.561	2750
4005.151	2731
4006.741	2783
4008.331	2776
4009.918	2779
4011.507	2739
4013.095	2682
4014.681	2734
4016.269	2746
4017.856	2660
4019.443	2722
4021.028	2685
4022.614	2706
4024.199	2744
4025.785	2687
4027.37	2663
4028.953	2624
4030.536	2698
4032.12	2767
4033.704	2718
4035.287	2712
4036.869	2638
4038.45	2643
4040.032	2639
4041.613	2679
4043.195	2734
4044.776	2706
4046.356	2687
4047.935	2706
4049.515	2632
4051.095	2713
4052.674	2623
4054.251	2648
4055.829	2735
4057.406	2588
4058.985	2691
4060.562	2593
4062.139	2636
4063.715	2616
4065.29	2620
4066.865	2664
4068.442	2646
4070.016	2601
4071.59	2638
4073.164	2606
4074.738	2604
4076.312	2605
4077.885	2631
4079.458	2608
4081.03	2577
4082.602	2647
4084.173	2623
4085.745	2681
4087.315	2694
4088.886	2600
4090.456	2550
4092.026	2592
4093.596	2552
4095.165	2600
4096.734	2596
4098.301	2532
4099.869	2591
4101.437	2606
4103.006	2564
4104.572	2576
4106.139	2573
4107.704	2601
4109.27	2610
4110.837	2549
4112.401	2560
4113.966	2579
4115.53	2553
4117.094	2565
4118.659	2593
4120.223	2565
4121.785	2523
4123.347	2532
4124.909	2572
4126.471	2582
4128.034	2550
4129.595	2495
4131.155	2531
4132.716	2498
4134.275	2551
4135.836	2540
4137.395	2549
4138.955	2487
4140.513	2501
4142.071	2514
4143.628	2476
4145.188	2499
4146.745	2519
4148.302	2451
4149.858	2457
4151.414	2498
4152.971	2477
4154.526	2508
4156.081	2458
4157.635	2480
4159.189	2481
4160.745	2490
4162.298	2511
4163.852	2492
4165.405	2427
4166.957	2485
4168.51	2412
4170.063	2503
4171.614	2458
4173.166	2482
4174.717	2459
4176.267	2415
4177.817	2458
4179.368	2463
4180.917	2477
4182.466	2444
4184.016	2406
4185.564	2460
4187.112	2412
4188.66	2467
4190.207	2499
4191.754	2422
4193.301	2435
4194.848	2412
4196.394	2441
4197.94	2422
4199.484	2532
4201.03	2412
4202.575	2406
4204.12	2455
4205.663	2403
4207.207	2343
4208.75	2440
4210.292	2378
4211.836	2369
4213.378	2426
4214.92	2408
4216.46	2337
4218.002	2483
4219.544	2392
4221.083	2356
4222.625	2395
4224.164	2337
4225.703	2373
4227.244	2343
4228.782	2364
4230.32	2433
4231.857	2371
4233.395	2324
4234.933	2429
4236.471	2369
4238.007	2308
4239.542	2371
4241.078	2351
4242.614	2325
4244.15	2355
4245.685	2345
4247.219	2351
4248.753	2286
4250.287	2308
4251.82	2321
4253.354	2277
4254.887	2359
4256.419	2335
4257.951	2326
4259.483	2366
4261.016	2281
4262.547	2337
4264.078	2272
4265.608	2342
4267.137	2368
4268.668	2306
4270.197	2339
4271.727	2315
4273.254	2257
4274.783	2302
4276.311	2309
4277.84	2311
4279.366	2310
4280.894	2290
4282.42	2273
4283.946	2324
4285.473	2302
4286.998	2302
4288.523	2241
4290.047	2266
4291.572	2268
4293.096	2269
4294.622	2278
4296.144	2338
4297.668	2194
4299.19	2337
4300.713	2269
4302.236	2260
4303.758	2283
4305.279	2244
4306.799	2245
4308.321	2259
4309.842	2258
4311.361	2306
4312.882	2258
4314.401	2290
