400.0961	2768
402.6185	2710
405.1424	2737
407.6635	2724
410.1838	2769
412.7035	2694
415.2225	2853
417.7388	2736
420.2585	2851
422.7754	2883
425.2917	2826
427.8072	2959
430.3221	2935
432.8363	3008
435.3498	3007
437.8626	2893
440.3727	2944
442.8841	2970
445.3969	2927
447.907	2926
450.4142	2963
452.9229	3028
455.4289	2942
457.9362	2879
460.4449	2894
462.9488	2922
465.454	2955
467.9566	2867
470.4604	2930
472.9637	2913
475.4662	2892
477.966	2900
480.4671	2866
482.9656	2918
485.4633	2925
487.9645	2953
490.4608	2954
492.9566	2930
495.4536	2881
497.948	2988
500.4437	3017
502.9387	3014
505.431	2910
507.9226	2956
510.4136	2919
512.9079	3006
515.3975	2939
517.8864	2922
520.3746	3044
522.8622	2929
525.3491	2935
527.8394	2973
530.3249	2966
532.8098	2976
535.2939	3067
537.7774	2985
540.2623	2961
542.7444	2967
545.2259	2979
547.7067	3040
550.1868	3054
552.6683	3059
555.147	3020
557.6231	3026
560.1005	3035
562.5773	3032
565.0534	3026
567.5308	3078
570.0056	3058
572.4776	3100
574.951	3149
577.4237	3045
579.8978	3200
582.3671	3192
584.8378	3136
587.3079	3178
589.7773	3254
592.244	3172
594.714	3222
597.1793	3142
599.6461	3144
602.1121	3100
604.5754	3123
607.0421	3190
609.5042	3118
611.9675	3190
614.4282	3066
616.8902	3094
619.3515	3088
621.8122	3100
624.2702	3098
626.7296	2986
629.1863	3119
631.6423	3103
634.1017	3126
636.5563	3099
639.0104	3044
641.4658	3086
643.9185	3094
646.3725	3118
648.8239	3100
651.2766	3097
653.7266	3120
656.176	3175
658.6247	3140
661.0748	3183
663.5242	3093
665.9709	3082
668.417	3091
670.8624	3121
673.3092	3172
675.7533	3192
678.1968	3158
680.6395	3167
683.0817	3133
685.5251	3141
687.9659	3205
690.4061	3235
692.8456	3126
695.2844	3267
697.7226	3179
700.1621	3221
702.599	3177
705.0332	3172
707.4688	3194
709.9036	3193
712.3399	3286
714.7735	3219
717.2044	3186
719.6367	3243
722.0683	3261
724.4993	3242
726.9296	3256
729.3593	3269
731.7883	3278
734.2147	3319
736.6423	3226
739.0714	3395
741.4958	3318
743.9216	3324
746.3447	3357
748.7691	3368
751.1929	3330
753.616	3314
756.0366	3341
758.4584	3376
760.8776	3469
763.2982	3298
765.718	3410
768.1373	3412
770.5539	3375
772.9698	3481
775.3871	3474
777.8038	3431
780.2178	3424
782.6332	3380
785.0459	3386
787.458	3340
789.8714	3358
792.2842	3378
794.6943	3371
797.1038	3358
799.5127	3291
801.9209	3440
804.3324	3409
806.7393	3473
809.1456	3402
811.5513	3505
813.9562	3443
816.3625	3498
818.7663	3509
821.1693	3478
823.5718	3464
825.9735	3417
828.3746	3461
830.7771	3446
833.177	3531
835.5762	3491
837.9747	3496
840.3727	3475
842.772	3516
845.1666	3534
847.5626	3572
849.958	3509
852.3527	3637
854.7488	3596
857.1403	3548
859.5331	3589
861.9253	3572
864.3168	3486
866.7057	3545
869.098	3617
871.4876	3525
873.8746	3534
876.263	3615
878.6487	3514
881.0378	3559
883.4243	3490
885.8081	3547
888.1933	3540
890.5759	3546
892.9598	3528
895.343	3554
897.7256	3584
900.1057	3569
902.4871	3480
904.8659	3514
907.246	3583
909.6254	3631
912.0023	3557
914.3786	3531
916.7562	3640
919.1331	3707
921.5074	3769
923.8831	3759
926.2562	3712
928.6287	3744
931.0005	3689
933.3757	3705
935.7462	3742
938.1162	3813
940.4855	3840
942.8542	3960
945.2242	3923
947.5916	4079
949.9584	4145
952.3266	4356
954.6921	4409
957.0571	4730
959.4233	4857
961.787	4960
964.15	4906
966.5125	4640
968.8742	4419
971.2354	4238
973.5959	4126
975.9559	3952
978.3151	3763
980.6738	3759
983.0338	3746
985.3912	3654
987.7461	3698
990.1022	3690
992.4578	3619
994.8127	3593
997.1689	3733
999.5207	3703
1001.874	3747
1004.226	3686
1006.576	3678
1008.929	3710
1011.28	3576
1013.628	3729
1015.977	3666
1018.324	3688
1020.674	3743
1023.019	3707
1025.366	3686
1027.713	3758
1030.056	3744
1032.399	3718
1034.746	3755
1037.087	3816
1039.431	3730
1041.771	3741
1044.113	3786
1046.454	3731
1048.793	3821
1051.133	3835
1053.471	3739
1055.807	3791
1058.146	3751
1060.483	3817
1062.818	3786
1065.153	3893
1067.489	3901
1069.822	3945
1072.156	3970
1074.488	3870
1076.82	3984
1079.15	3855
1081.48	3877
1083.814	3845
1086.143	3875
1088.471	3823
1090.799	3801
1093.126	3732
1095.452	3845
1097.78	3805
1100.105	3735
1102.43	3708
1104.754	3748
1107.077	3866
1109.4	3737
1111.722	3766
1114.044	3845
1116.365	3794
1118.685	3787
1121.005	3754
1123.324	3730
1125.643	3758
1127.961	3764
1130.278	3682
1132.595	3828
1134.911	3739
1137.226	3778
1139.541	3797
1141.854	3729
1144.167	3808
1146.482	3727
1148.793	3756
1151.105	3726
1153.414	3795
1155.725	3742
1158.033	3755
1160.344	3730
1162.651	3792
1164.959	3795
1167.265	3825
1169.572	3807
1171.878	3782
1174.184	3859
1176.488	3809
1178.79	3752
1181.094	3781
1183.396	3789
1185.699	3896
1188.001	3807
1190.301	3781
1192.6	3832
1194.9	3790
1197.2	3785
1199.497	3694
1201.794	3805
1204.09	3773
1206.387	3781
1208.684	3812
1210.978	3708
1213.272	3820
1215.565	3795
1217.858	3769
1220.15	3785
1222.443	3694
1224.734	3818
1227.024	3889
1229.313	3847
1231.602	3880
1233.892	3858
1236.18	3955
1238.467	3929
1240.754	3942
1243.04	3981
1245.325	4033
1247.612	3847
1249.896	3962
1252.178	3965
1254.461	4000
1256.743	3967
1259.027	3946
1261.308	3940
1263.587	3952
1265.867	3903
1268.146	3873
1270.425	3994
1272.703	3983
1274.981	3855
1277.256	3995
1279.532	3923
1281.808	3957
1284.083	3913
1286.358	3973
1288.63	3879
1290.904	3914
1293.175	3866
1295.449	3861
1297.719	3886
1299.99	3881
1302.259	3995
1304.529	3899
1306.798	3907
1309.065	3893
1311.333	3852
1313.599	3867
1315.866	3827
1318.131	3881
1320.396	3801
1322.66	3881
1324.925	3837
1327.187	3962
1329.448	3864
1331.711	3883
1333.974	3975
1336.234	3811
1338.493	3874
1340.752	3901
1343.01	3934
1345.269	3865
1347.526	3927
1349.784	3919
1352.04	3918
1354.295	3955
1356.552	3898
1358.806	3881
1361.059	3849
1363.312	3846
1365.564	3892
1367.818	3904
1370.069	3979
1372.318	3949
1374.568	3876
1376.817	3897
1379.066	3954
1381.316	4002
1383.564	3995
1385.809	3978
1388.056	4011
1390.301	3957
1392.549	3983
1394.793	4069
1397.036	4073
1399.279	4058
1401.522	4004
1403.763	3963
1406.007	4055
1408.248	4006
1410.487	4024
1412.727	4096
1414.965	3970
1417.205	3988
1419.442	3944
1421.68	4031
1423.915	4056
1426.152	4044
1428.388	4058
1430.623	4045
1432.857	4078
1435.091	4080
1437.323	4028
1439.556	4158
1441.789	4080
1444.019	4038
1446.25	4120
1448.48	4115
1450.708	4053
1452.938	4178
1455.167	4190
1457.394	4247
1459.62	4124
1461.846	4127
1464.073	4186
1466.299	4105
1468.523	4154
1470.746	3993
1472.969	4022
1475.191	4063
1477.415	3979
1479.636	3985
1481.858	3997
1484.078	3923
1486.298	4001
1488.518	3971
1490.736	3978
1492.954	3948
1495.169	3927
1497.386	3957
1499.602	3952
1501.819	3946
1504.034	3907
1506.248	3875
1508.462	3948
1510.675	3897
1512.888	3863
1515.1	3873
1517.311	3810
1519.522	3896
1521.732	3873
1523.942	3843
1526.151	3885
1528.36	3884
1530.566	3891
1532.773	3902
1534.98	3880
1537.187	3928
1539.392	3914
1541.596	3897
1543.801	3912
1546.005	3957
1548.208	3938
1550.411	3947
1552.612	3944
1554.814	3971
1557.013	4011
1559.212	3931
1561.414	4051
1563.612	3932
1565.811	3968
1568.007	3965
1570.203	3999
1572.403	4081
1574.598	3959
1576.792	3990
1578.988	4060
1581.181	3926
1583.376	4075
1585.568	3951
1587.761	4155
1589.952	3944
1592.143	3988
1594.333	4051
1596.524	4022
1598.715	4114
1600.903	4047
1603.091	4009
1605.278	4009
1607.466	3999
1609.652	4087
1611.838	4034
1614.023	4072
1616.207	4100
1618.391	4052
1620.576	4079
1622.759	4097
1624.941	4118
1627.123	4102
1629.304	4155
1631.484	4083
1633.664	4182
1635.844	4222
1638.022	4185
1640.201	4138
1642.38	4158
1644.556	4185
1646.732	4163
1648.908	4126
1651.084	4122
1653.257	4129
1655.433	4211
1657.607	4177
1659.779	4206
1661.951	4258
1664.122	4217
1666.295	4148
1668.467	4282
1670.635	4182
1672.805	4244
1674.973	4219
1677.142	4199
1679.31	4170
1681.478	4227
1683.644	4168
1685.81	4184
1687.975	4192
1690.142	4206
1692.305	4200
1694.468	4181
1696.632	4065
1698.794	4172
1700.957	4061
1703.119	4092
1705.279	4055
1707.439	4051
1709.598	4094
1711.758	4080
1713.917	4018
1716.075	4150
1718.231	4038
1720.388	4097
1722.543	3971
1724.702	4065
1726.856	4031
1729.01	4106
1731.164	4120
1733.317	4053
1735.471	4069
1737.623	4109
1739.774	4066
1741.925	4090
1744.075	4074
1746.225	3993
1748.376	4055
1750.524	4140
1752.672	4084
1754.82	4081
1756.965	4151
1759.113	4030
1761.259	4047
1763.405	4135
1765.549	4000
1767.694	4048
1769.836	4112
1771.981	4051
1774.123	4132
1776.264	4046
1778.405	4179
1780.546	4124
1782.687	4120
1784.827	3997
1786.966	4120
1789.103	4124
1791.242	4163
1793.381	4162
1795.517	4181
1797.653	4101
1799.788	4040
1801.923	4062
1804.057	4032
1806.193	4037
1808.326	4116
1810.457	4075
1812.59	4100
1814.721	4097
1816.855	4083
1818.984	4059
1821.113	4054
1823.244	3985
1825.372	4096
1827.499	4099
1829.63	4123
1831.756	4078
1833.882	4093
1836.007	4095
1838.132	4139
1840.26	4081
1842.384	4077
1844.507	4048
1846.63	4161
1848.752	4064
1850.875	4149
1852.996	4073
1855.118	4062
1857.238	3986
1859.358	4141
1861.477	4084
1863.597	4066
1865.715	4018
1867.832	4121
1869.948	4065
1872.064	4081
1874.181	4072
1876.297	4046
1878.411	4040
1880.526	4032
1882.639	4130
1884.752	4072
1886.865	4091
1888.977	4047
1891.089	4067
1893.2	4030
1895.308	4027
1897.42	4050
1899.53	4080
1901.639	4197
1903.745	4056
1905.853	4087
1907.962	4086
1910.067	4152
1912.174	4071
1914.278	4067
1916.383	4105
1918.486	4118
1920.592	4171
1922.694	4175
1924.797	4137
1926.898	4207
1929	4158
1931.102	4201
1933.203	4134
1935.301	4012
1937.401	4109
1939.499	4220
1941.598	4034
1943.697	4225
1945.793	4185
1947.888	4223
1949.985	4134
1952.08	4102
1954.176	4177
1956.269	4164
1958.364	4097
1960.457	4157
1962.549	4160
1964.642	4094
1966.733	4094
1968.823	4129
1970.913	4184
1973.005	4221
1975.093	4042
1977.184	4093
1979.271	4160
1981.359	4161
1983.446	4063
1985.532	4188
1987.619	4165
1989.705	4017
1991.789	4114
1993.874	4115
1995.956	4105
1998.041	4121
2000.123	4095
2002.206	4079
2004.287	4093
2006.368	4088
2008.449	4084
2010.529	4070
2012.609	4131
2014.688	4026
2016.766	4065
2018.843	4068
2020.922	4142
2022.999	4044
2025.074	4051
2027.15	4129
2029.225	4139
2031.299	4070
2033.375	4074
2035.447	4155
2037.52	4031
2039.592	4129
2041.664	4193
2043.736	4114
2045.807	4140
2047.876	4116
2049.947	4135
2052.015	4143
2054.086	4077
2056.153	4033
2058.221	4135
2060.288	4114
2062.353	4142
2064.42	4116
2066.486	4153
2068.55	4095
2070.614	4293
2072.678	4147
2074.741	4118
2076.805	4096
2078.866	4201
2080.929	4193
2082.99	4125
2085.049	4101
2087.109	4123
2089.17	4127
2091.228	4199
2093.286	4071
2095.344	4114
2097.4	4184
2099.46	4111
2101.516	4135
2103.572	4140
2105.626	4119
2107.679	4197
2109.735	4137
2111.788	4136
2113.841	4039
2115.894	4130
2117.945	4111
2119.997	4124
2122.049	4131
2124.1	4050
2126.148	4049
2128.197	4062
2130.246	4147
2132.296	4096
2134.342	4137
2136.39	4069
2138.437	4217
2140.483	4095
2142.527	4170
2144.574	4164
2146.619	4102
2148.661	4104
2150.705	4183
2152.747	4182
2154.792	4131
2156.832	4106
2158.874	4091
2160.915	4059
2162.954	4022
2164.995	4095
2167.034	4143
2169.072	4086
2171.111	4043
2173.148	4029
2175.186	4024
2177.223	4168
2179.258	4104
2181.294	4088
2183.328	4109
2185.362	4095
2187.398	4057
2189.431	4060
2191.463	4085
2193.495	4045
2195.528	4021
2197.56	3965
2199.59	4074
2201.62	4062
2203.649	4058
2205.678	3982
2207.708	3989
2209.737	4035
2211.764	4043
2213.791	4080
2215.817	4058
2217.843	4126
2219.87	4012
2221.895	4013
2223.919	4036
2225.942	4073
2227.966	3993
2229.988	4060
2232.012	4009
2234.032	4091
2236.054	4140
2238.074	3995
2240.095	4088
2242.116	4018
2244.135	4008
2246.153	3984
2248.171	4006
2250.188	4058
2252.208	4060
2254.223	3958
2256.239	4015
2258.255	4005
2260.269	4002
2262.283	4009
2264.3	4014
2266.312	3995
2268.325	4059
2270.336	4013
2272.349	4047
2274.362	4048
2276.372	4050
2278.383	4047
2280.392	4079
2282.402	4004
2284.409	3948
2286.418	4069
2288.427	4080
2290.433	4069
2292.441	4061
2294.446	3965
2296.453	4037
2298.459	3975
2300.463	3936
2302.466	3959
2304.471	3946
2306.475	4020
2308.477	4018
2310.478	4097
2312.481	3999
2314.481	3986
2316.481	4051
2318.482	4014
2320.482	3987
2322.48	3931
2324.48	4012
2326.478	4035
2328.476	3967
2330.473	4024
2332.469	4002
2334.465	4006
2336.46	3931
2338.454	4069
2340.45	3965
2342.444	4007
2344.437	3924
2346.43	3913
2348.421	3923
2350.414	4012
2352.405	3976
2354.396	4053
2356.386	3936
2358.376	3941
2360.366	4048
2362.355	3931
2364.343	4007
2366.331	3888
2368.317	3992
2370.304	3946
2372.292	3974
2374.278	3946
2376.262	3943
2378.247	3892
2380.23	3946
2382.216	3991
2384.199	3924
2386.181	3949
2388.163	3964
2390.144	3930
2392.127	3983
2394.107	3928
2396.087	3918
2398.066	3891
2400.046	3866
2402.023	3966
2404.004	3906
2405.981	3851
2407.957	3946
2409.934	3895
2411.91	3945
2413.886	3904
2415.862	3905
2417.836	3971
2419.809	3937
2421.784	3862
2423.756	3854
2425.73	3940
2427.701	3962
2429.672	4022
2431.644	3898
2433.615	3847
2435.586	3910
2437.555	3922
2439.523	3842
2441.491	3893
2443.459	3882
2445.428	3911
2447.395	3945
2449.361	3931
2451.327	3920
2453.292	3922
2455.257	3884
2457.223	3822
2459.187	3911
2461.15	3897
2463.113	3962
2465.076	3939
2467.039	3870
2468.999	3932
2470.96	3896
2472.921	3904
2474.881	3849
2476.841	3944
2478.8	3862
2480.759	3954
2482.717	3883
2484.675	3820
2486.63	3832
2488.589	3854
2490.545	3901
2492.5	3857
2494.455	3888
2496.408	3794
2498.364	3881
2500.318	3911
2502.27	3878
2504.223	3857
2506.174	3909
2508.126	3869
2510.078	3818
2512.03	3891
2513.979	3860
2515.927	3772
2517.877	3896
2519.826	3749
2521.775	3825
2523.722	3884
2525.668	3933
2527.616	3871
2529.561	3828
2531.508	3859
2533.452	3867
2535.398	3881
2537.342	3853
2539.284	3797
2541.229	3858
2543.173	3847
2545.114	3760
2547.055	3923
2548.996	3895
2550.938	3854
2552.878	3808
2554.817	3800
2556.756	3778
2558.695	3875
2560.633	3831
2562.572	3821
2564.509	3798
2566.445	3796
2568.382	3842
2570.317	3772
2572.254	3835
2574.189	3820
2576.123	3880
2578.057	3813
2579.99	3916
2581.923	3761
2583.855	3834
2585.788	3848
2587.719	3847
2589.65	3820
2591.579	3837
2593.511	3887
2595.44	3786
2597.37	3747
2599.297	3890
2601.225	3834
2603.153	3778
2605.08	3936
2607.007	3854
2608.932	3844
2610.858	3945
2612.782	3774
2614.709	3833
2616.632	3910
2618.556	3766
2620.478	3921
2622.401	3900
2624.324	3886
2626.247	3777
2628.167	3847
2630.088	3820
2632.008	3808
2633.928	3755
2635.848	3845
2637.766	3894
2639.684	3918
2641.603	3870
2643.519	3803
2645.437	3817
2647.353	3819
2649.27	3880
2651.184	3874
2653.099	3825
2655.014	3867
2656.928	3815
2658.842	3861
2660.755	3874
2662.667	3831
2664.579	3842
2666.491	3860
2668.402	3835
2670.312	3869
2672.222	3827
2674.132	3946
2676.042	3746
2677.951	3811
2679.859	3788
2681.766	3836
2683.674	3849
2685.582	3854
2687.488	3814
2689.392	3825
2691.298	3858
2693.202	3814
2695.107	3844
2697.012	3774
2698.914	3872
2700.817	3730
2702.72	3861
2704.622	3753
2706.524	3810
2708.425	3851
2710.326	3873
2712.225	3906
2714.125	3813
2716.024	3880
2717.923	3756
2719.822	3788
2721.719	3906
2723.616	3859
2725.512	3813
2727.41	3866
2729.305	3818
2731.201	3802
2733.095	3910
2734.99	3830
2736.884	3774
2738.778	3916
2740.67	3752
2742.562	3721
2744.455	3819
2746.346	3725
2748.238	3889
2750.129	3842
2752.018	3794
2753.907	3741
2755.797	3784
2757.687	3739
2759.575	3739
2761.462	3792
2763.349	3822
2765.237	3829
2767.124	3813
2769.009	3687
2770.894	3768
2772.779	3687
2774.663	3781
2776.547	3689
2778.431	3766
2780.314	3816
2782.197	3790
2784.078	3758
2785.96	3737
2787.842	3792
2789.723	3777
2791.603	3769
2793.483	3751
2795.362	3730
2797.241	3681
2799.121	3761
2800.997	3739
2802.874	3835
2804.751	3780
2806.628	3779
2808.506	3808
2810.38	3784
2812.255	3725
2814.13	3700
2816.003	3781
2817.878	3786
2819.752	3771
2821.623	3771
2823.496	3707
2825.368	3729
2827.238	3725
2829.111	3778
2830.98	3783
2832.851	3707
2834.719	3807
2836.589	3738
2838.458	3833
2840.327	3792
2842.193	3767
2844.061	3752
2845.927	3854
2847.794	3771
2849.66	3742
2851.525	3743
2853.39	3869
2855.254	3768
2857.117	3924
2858.983	3847
2860.845	3803
2862.707	3895
2864.569	3937
2866.431	3873
2868.293	3893
2870.154	3994
2872.013	4008
2873.873	4061
2875.733	4067
2877.592	4125
2879.451	4186
2881.309	4217
2883.166	4249
2885.022	4219
2886.879	4169
2888.736	4238
2890.591	4269
2892.446	4250
2894.301	4189
2896.155	4195
2898.009	4147
2899.863	4281
2901.716	4154
2903.568	4276
2905.419	4254
2907.27	4242
2909.123	4189
2910.973	4229
2912.824	4199
2914.673	4419
2916.521	4307
2918.372	4480
2920.22	4309
2922.067	4463
2923.914	4596
2925.761	4596
2927.607	4518
2929.455	4564
2931.301	4537
2933.144	4769
2934.99	4682
2936.833	4700
2938.678	4879
2940.522	4793
2942.364	4886
2944.207	4780
2946.048	4864
2947.891	4912
2949.731	4888
2951.571	4907
2953.412	4826
2955.25	4827
2957.09	4846
2958.93	4807
2960.767	4768
2962.606	4758
2964.443	4653
2966.279	4646
2968.116	4532
2969.953	4462
2971.788	4583
2973.623	4500
2975.457	4336
2977.292	4367
2979.127	4319
2980.959	4347
2982.792	4365
2984.624	4236
2986.455	4262
2988.288	4315
2990.119	4245
2991.949	4173
2993.779	4188
2995.608	4117
2997.439	4177
2999.268	4172
3001.096	3934
3002.923	4037
3004.751	3927
3006.578	3957
3008.406	3929
3010.232	3854
3012.057	3869
3013.883	3877
3015.706	3865
3017.532	3761
3019.356	3745
3021.179	3762
3023.002	3735
3024.823	3654
3026.646	3711
3028.469	3703
3030.289	3703
3032.11	3680
3033.93	3646
3035.749	3655
3037.57	3629
3039.39	3612
3041.207	3678
3043.026	3572
3044.842	3674
3046.661	3648
3048.477	3654
3050.294	3578
3052.109	3550
3053.925	3572
3055.739	3566
3057.555	3608
3059.368	3609
3061.181	3662
3062.995	3525
3064.807	3609
3066.62	3652
3068.433	3597
3070.243	3532
3072.054	3632
3073.865	3626
3075.675	3576
3077.485	3563
3079.293	3473
3081.102	3632
3082.911	3603
3084.719	3509
3086.527	3535
3088.333	3520
3090.139	3632
3091.945	3520
3093.75	3597
3095.557	3548
3097.361	3565
3099.165	3484
3100.969	3538
3102.772	3606
3104.575	3475
3106.379	3463
3108.181	3512
3109.982	3540
3111.783	3422
3113.584	3476
3115.386	3483
3117.186	3478
3118.985	3512
3120.783	3414
3122.582	3504
3124.381	3494
3126.179	3503
3127.975	3428
3129.772	3454
3131.569	3521
3133.365	3457
3135.161	3405
3136.956	3515
3138.751	3465
3140.544	3477
3142.338	3375
3144.132	3448
3145.925	3399
3147.717	3436
3149.509	3421
3151.301	3475
3153.091	3410
3154.884	3410
3156.673	3382
3158.462	3459
3160.252	3415
3162.041	3350
3163.831	3449
3165.618	3471
3167.405	3391
3169.193	3408
3170.979	3471
3172.767	3432
3174.553	3407
3176.338	3480
3178.123	3399
3179.907	3417
3181.692	3472
3183.477	3428
3185.259	3379
3187.042	3413
3188.824	3358
3190.607	3432
3192.389	3438
3194.17	3371
3195.951	3362
3197.73	3351
3199.51	3390
3201.289	3465
3203.07	3490
3204.848	3372
3206.626	3372
3208.403	3504
3210.18	3408
3211.959	3377
3213.735	3402
3215.511	3436
3217.285	3388
3219.06	3362
3220.836	3385
3222.611	3455
3224.384	3443
3226.158	3420
3227.929	3419
3229.702	3469
3231.476	3320
3233.248	3364
3235.018	3432
3236.789	3439
3238.56	3398
3240.33	3400
3242.1	3409
3243.869	3469
3245.637	3348
3247.405	3367
3249.172	3364
3250.941	3405
3252.707	3425
3254.474	3416
3256.24	3386
3258.006	3453
3259.772	3416
3261.537	3426
3263.301	3401
3265.065	3323
3266.828	3367
3268.592	3365
3270.355	3510
3272.117	3470
3273.878	3388
3275.64	3490
3277.401	3417
3279.162	3384
3280.922	3388
3282.682	3413
3284.441	3434
3286.199	3406
3287.959	3462
3289.716	3435
3291.475	3504
3293.232	3432
3294.988	3410
3296.744	3375
3298.501	3447
3300.256	3427
3302.011	3387
3303.766	3401
3305.52	3424
3307.275	3492
3309.028	3478
3310.781	3410
3312.533	3471
3314.285	3451
3316.038	3416
3317.789	3490
3319.54	3451
3321.289	3408
3323.039	3444
3324.789	3338
3326.539	3353
3328.288	3394
3330.035	3497
3331.783	3473
3333.531	3413
3335.28	3371
3337.025	3387
3338.771	3426
3340.518	3413
3342.262	3423
3344.009	3464
3345.753	3411
3347.497	3385
3349.24	3330
3350.983	3380
3352.726	3400
3354.469	3379
3356.212	3373
3357.952	3360
3359.694	3357
3361.434	3343
3363.176	3305
3364.916	3377
3366.654	3293
3368.394	3325
3370.132	3358
3371.871	3320
3373.61	3378
3375.346	3393
3377.083	3255
3378.82	3310
3380.556	3299
3382.292	3429
3384.027	3315
3385.763	3372
3387.497	3222
3389.231	3347
3390.965	3303
3392.698	3321
3394.431	3280
3396.164	3292
3397.896	3358
3399.627	3271
3401.36	3317
3403.09	3240
3404.82	3251
3406.55	3308
3408.279	3253
3410.01	3234
3411.738	3210
3413.467	3349
3415.194	3221
3416.92	3281
3418.647	3342
3420.375	3248
3422.102	3246
3423.827	3271
3425.553	3336
3427.277	3325
3429.003	3147
3430.727	3204
3432.451	3269
3434.173	3219
3435.896	3255
3437.62	3206
3439.343	3185
3441.063	3208
3442.785	3224
3444.505	3204
3446.226	3187
3447.948	3244
3449.666	3175
3451.386	3234
3453.104	3155
3454.823	3227
3456.541	3169
3458.259	3128
3459.976	3201
3461.693	3124
3463.408	3173
3465.125	3190
3466.841	3142
3468.556	3121
3470.271	3132
3471.985	3117
3473.698	3161
3475.414	3178
3477.126	3106
3478.838	3060
3480.55	3161
3482.263	3108
3483.975	3117
3485.686	3185
3487.396	3110
3489.106	3075
3490.817	3116
3492.526	3039
3494.236	3097
3495.944	3004
3497.652	3090
3499.359	3079
3501.066	3001
3502.775	3084
3504.481	3113
3506.187	3070
3507.893	3036
3509.598	2993
3511.304	3033
3513.009	3079
3514.713	3042
3516.417	2980
3518.12	3077
3519.821	3066
3521.525	2995
3523.228	3023
3524.929	3056
3526.631	2992
3528.33	3008
3530.032	3017
3531.733	3068
3533.433	3010
3535.131	3012
3536.83	2959
3538.529	2986
3540.227	2972
3541.925	3031
3543.623	2967
3545.319	2960
3547.016	2946
3548.712	2993
3550.408	2963
3552.103	2933
3553.798	2954
3555.491	2986
3557.188	2927
3558.88	2963
3560.574	2955
3562.266	2934
3563.959	2946
3565.651	2993
3567.343	2944
3569.035	2898
3570.725	2941
3572.415	2947
3574.106	2880
3575.797	2934
3577.485	2944
3579.174	2882
3580.863	2911
3582.551	2943
3584.238	2888
3585.926	2951
3587.613	2871
3589.3	2880
3590.986	2898
3592.671	2831
3594.357	2878
3596.042	2833
3597.726	2828
3599.41	2954
3601.094	2911
3602.778	2874
3604.461	2841
3606.143	2851
3607.825	2821
3609.507	2898
3611.188	2826
3612.87	2811
3614.551	2852
3616.229	2788
3617.909	2846
3619.589	2840
3621.269	2840
3622.948	2733
3624.625	2825
3626.302	2698
3627.98	2765
3629.657	2742
3631.334	2774
3633.01	2721
3634.686	2760
3636.361	2773
3638.036	2736
3639.712	2744
3641.385	2750
3643.06	2721
3644.732	2794
3646.405	2668
3648.08	2738
3649.751	2779
3651.424	2750
3653.094	2718
3654.766	2712
3656.436	2767
3658.106	2773
3659.777	2748
3661.446	2726
3663.115	2676
3664.783	2685
3666.452	2684
3668.121	2679
3669.788	2690
3671.454	2697
3673.121	2660
3674.789	2735
3676.455	2648
3678.12	2652
3679.784	2669
3681.45	2642
3683.114	2717
3684.779	2727
3686.442	2617
3688.105	2710
3689.768	2672
3691.43	2681
3693.093	2652
3694.754	2633
3696.415	2633
3698.076	2620
3699.736	2693
3701.396	2645
3703.057	2605
3704.716	2636
3706.375	2663
3708.034	2642
3709.692	2626
3711.351	2711
3713.008	2612
3714.665	2685
3716.321	2621
3717.977	2636
3719.634	2632
3721.29	2631
3722.945	2683
3724.598	2605
3726.253	2635
3727.907	2543
3729.561	2620
3731.214	2600
3732.867	2546
3734.518	2637
3736.171	2592
3737.824	2640
3739.474	2608
3741.125	2651
3742.775	2577
3744.425	2571
3746.074	2592
3747.725	2587
3749.373	2582
3751.022	2565
3752.669	2574
3754.318	2579
3755.966	2591
3757.612	2645
3759.259	2577
3760.905	2607
3762.55	2580
3764.197	2583
3765.842	2589
3767.486	2600
3769.131	2578
3770.774	2589
3772.417	2570
3774.061	2589
3775.705	2517
3777.347	2522
3778.988	2570
3780.629	2569
3782.271	2510
3783.912	2504
3785.552	2584
3787.192	2554
3788.831	2548
3790.472	2528
3792.112	2559
3793.75	2497
3795.388	2543
3797.024	2531
3798.661	2505
3800.3	2461
3801.936	2533
3803.572	2480
3805.208	2558
3806.844	2522
3808.48	2496
3810.115	2506
3811.748	2519
3813.382	2494
3815.016	2517
3816.649	2515
3818.283	2472
3819.914	2503
3821.547	2483
3823.178	2550
3824.809	2418
3826.441	2478
3828.072	2491
3829.701	2453
3831.331	2479
3832.96	2466
3834.591	2474
3836.219	2444
3837.847	2456
3839.475	2401
3841.102	2436
3842.729	2431
3844.357	2454
3845.984	2484
3847.609	2422
3849.234	2464
3850.86	2502
3852.485	2418
3854.11	2512
3855.734	2464
3857.357	2462
3858.981	2458
3860.603	2457
3862.227	2423
3863.848	2364
3865.471	2416
3867.092	2432
3868.713	2456
3870.334	2463
3871.954	2378
3873.575	2442
3875.194	2429
3876.813	2435
3878.433	2432
3880.051	2391
3881.669	2400
3883.286	2465
3884.904	2417
3886.52	2445
3888.138	2394
3889.754	2433
3891.37	2419
3892.985	2353
3894.6	2418
3896.216	2369
3897.831	2322
3899.444	2438
3901.058	2428
3902.67	2413
3904.283	2406
3905.897	2414
3907.509	2370
3909.121	2370
3910.731	2425
3912.342	2399
3913.954	2400
3915.563	2410
3917.174	2355
3918.783	2399
3920.391	2423
3922.002	2319
3923.611	2369
3925.218	2342
3926.826	2428
3928.432	2351
3930.039	2377
3931.647	2417
3933.253	2368
3934.859	2386
3936.464	2368
3938.068	2428
3939.675	2444
3941.278	2423
3942.883	2361
3944.486	2395
3946.089	2439
3947.692	2366
3949.295	2341
3950.898	2349
3952.499	2338
3954.1	2387
3955.7	2310
3957.303	2268
3958.903	2283
3960.502	2339
3962.101	2302
3963.7	2353
3965.301	2352
3966.899	2336
3968.497	2286
3970.094	2328
3971.691	2287
3973.288	2300
3974.885	2288
3976.481	2309
3978.077	2275
3979.672	2344
3981.267	2330
3982.863	2319
3984.457	2312
3986.051	2291
3987.645	2387
3989.238	2343
3990.831	2318
3992.425	2235
3994.017	2361
3995.607	2256
3997.199	2272
3998.79	2281
4000.382	2278
4001.973	2379
4003.561	2268
4005.151	2289
4006.741	2216
4008.331	2296
4009.918	2269
4011.507	2267
4013.095	2263
4014.681	2258
4016.269	2214
4017.856	2272
4019.443	2289
4021.028	2242
4022.614	2242
4024.199	2234
4025.785	2284
4027.37	2273
4028.953	2226
4030.536	2213
4032.12	2205
4033.704	2232
4035.287	2225
4036.869	2258
4038.45	2198
4040.032	2191
4041.613	2248
4043.195	2188
4044.776	2226
4046.356	2170
4047.935	2222
4049.515	2258
4051.095	2147
4052.674	2231
4054.251	2224
4055.829	2208
4057.406	2199
4058.985	2208
4060.562	2218
4062.139	2209
4063.715	2204
4065.29	2200
4066.865	2170
4068.442	2208
4070.016	2208
4071.59	2184
4073.164	2155
4074.738	2138
4076.312	2208
4077.885	2193
4079.458	2195
4081.03	2179
4082.602	2141
4084.173	2142
4085.745	2145
4087.315	2179
4088.886	2161
4090.456	2229
4092.026	2138
4093.596	2141
4095.165	2190
4096.734	2166
4098.301	2167
4099.869	2101
4101.437	2208
4103.006	2136
4104.572	2095
4106.139	2173
4107.704	2137
4109.27	2130
4110.837	2161
4112.401	2123
4113.966	2213
4115.53	2127
4117.094	2122
4118.659	2176
4120.223	2127
4121.785	2155
4123.347	2163
4124.909	2106
4126.471	2140
4128.034	2111
4129.595	2123
4131.155	2176
4132.716	2155
4134.275	2139
4135.836	2154
4137.395	2137
4138.955	2091
4140.513	2099
4142.071	2124
4143.628	2087
4145.188	2084
4146.745	2113
4148.302	2099
4149.858	2127
4151.414	2076
4152.971	2079
4154.526	2118
4156.081	2148
4157.635	2073
4159.189	2099
4160.745	2112
4162.298	2047
4163.852	2038
4165.405	2048
4166.957	2007
4168.51	2037
4170.063	2057
4171.614	2068
4173.166	2132
4174.717	2090
4176.267	2045
4177.817	2030
4179.368	1974
4180.917	2108
4182.466	2048
4184.016	2114
4185.564	2038
4187.112	2046
4188.66	2049
4190.207	2015
4191.754	2091
4193.301	2019
4194.848	2082
4196.394	2030
4197.94	2072
4199.484	2025
4201.03	1982
4202.575	2032
4204.12	2014
4205.663	2008
4207.207	2077
4208.75	1997
4210.292	2013
4211.836	1991
4213.378	2008
4214.92	2020
4216.46	1982
4218.002	2019
4219.544	1958
4221.083	1957
4222.625	2013
4224.164	2047
4225.703	2021
4227.244	1998
4228.782	2004
4230.32	2009
4231.857	1980
4233.395	2040
4234.933	2008
4236.471	1986
4238.007	1978
4239.542	1977
4241.078	1983
4242.614	1937
4244.15	1948
4245.685	1973
4247.219	2008
4248.753	1943
4250.287	1938
4251.82	1991
4253.354	2012
4254.887	2010
4256.419	1941
4257.951	1977
4259.483	2039
4261.016	1980
4262.547	1940
4264.078	1983
4265.608	1986
4267.137	1864
4268.668	1993
4270.197	1974
4271.727	1926
4273.254	1957
4274.783	1953
4276.311	1939
4277.84	1921
4279.366	1940
4280.894	1940
4282.42	1957
4283.946	1971
4285.473	1944
4286.998	1946
4288.523	1940
4290.047	1892
4291.572	1881
4293.096	1964
4294.622	1966
4296.144	1899
4297.668	1882
4299.19	1907
4300.713	1895
4302.236	1951
4303.758	1920
4305.279	1868
4306.799	1929
4308.321	1904
4309.842	1903
4311.361	1925
4312.882	1911
4314.401	1857
