400.0961	2575
402.6185	2531
405.1424	2526
407.6635	2644
410.1838	2603
412.7035	2573
415.2225	2603
417.7388	2684
420.2585	2609
422.7754	2695
425.2917	2698
427.8072	2774
430.3221	2786
432.8363	2717
435.3498	2768
437.8626	2725
440.3727	2720
442.8841	2751
445.3969	2749
447.907	2722
450.4142	2722
452.9229	2709
455.4289	2745
457.9362	2799
460.4449	2661
462.9488	2650
465.454	2641
467.9566	2701
470.4604	2659
472.9637	2674
475.4662	2634
477.966	2640
480.4671	2641
482.9656	2756
485.4633	2683
487.9645	2711
490.4608	2696
492.9566	2593
495.4536	2718
497.948	2740
500.4437	2681
502.9387	2712
505.431	2700
507.9226	2740
510.4136	2664
512.9079	2698
515.3975	2772
517.8864	2793
520.3746	2645
522.8622	2717
525.3491	2780
527.8394	2768
530.3249	2808
532.8098	2725
535.2939	2818
537.7774	2742
540.2623	2775
542.7444	2750
545.2259	2724
547.7067	2736
550.1868	2816
552.6683	2779
555.147	2710
557.6231	2769
560.1005	2821
562.5773	2823
565.0534	2814
567.5308	2810
570.0056	2849
572.4776	2852
574.951	2913
577.4237	2899
579.8978	2885
582.3671	2898
584.8378	2928
587.3079	2959
589.7773	2872
592.244	2893
594.714	2891
597.1793	2844
599.6461	2890
602.1121	2850
604.5754	2893
607.0421	2891
609.5042	2857
611.9675	2911
614.4282	2884
616.8902	2874
619.3515	2837
621.8122	2864
624.2702	2814
626.7296	2764
629.1863	2747
631.6423	2840
634.1017	2802
636.5563	2767
639.0104	2836
641.4658	2846
643.9185	2763
646.3725	2843
648.8239	2840
651.2766	2859
653.7266	2836
656.176	2818
658.6247	2873
661.0748	2762
663.5242	2866
665.9709	2834
668.417	2795
670.8624	2839
673.3092	2920
675.7533	2913
678.1968	2893
680.6395	2909
683.0817	2932
685.5251	2894
687.9659	2979
690.4061	2901
692.8456	2966
695.2844	2928
697.7226	2898
700.1621	2961
702.599	2847
705.0332	2899
707.4688	2966
709.9036	3011
712.3399	2967
714.7735	2917
717.2044	2932
719.6367	2985
722.0683	2979
724.4993	3007
726.9296	2999
729.3593	2959
731.7883	2982
734.2147	2990
736.6423	2964
739.0714	2995
741.4958	3019
743.9216	3025
746.3447	3079
748.7691	3087
751.1929	3063
753.616	3031
756.0366	3078
758.4584	3060
760.8776	3043
763.2982	3076
765.718	3058
768.1373	3075
770.5539	3093
772.9698	3109
775.3871	3093
777.8038	3054
780.2178	3112
782.6332	3024
785.0459	3091
787.458	3080
789.8714	3075
792.2842	3087
794.6943	3119
797.1038	3085
799.5127	3108
801.9209	3060
804.3324	3072
806.7393	3222
809.1456	3160
811.5513	3070
813.9562	3126
816.3625	3178
818.7663	3145
821.1693	3211
823.5718	3171
825.9735	3213
828.3746	3151
830.7771	3150
833.177	3148
835.5762	3211
837.9747	3112
840.3727	3144
842.772	3207
845.1666	3201
847.5626	3213
849.958	3166
852.3527	3226
854.7488	3299
857.1403	3260
859.5331	3241
861.9253	3272
864.3168	3211
866.7057	3293
869.098	3203
871.4876	3211
873.8746	3282
876.263	3237
878.6487	3288
881.0378	3310
883.4243	3235
885.8081	3205
888.1933	3256
890.5759	3214
892.9598	3237
895.343	3198
897.7256	3283
900.1057	3248
902.4871	3249
904.8659	3226
907.246	3317
909.6254	3252
912.0023	3289
914.3786	3362
916.7562	3283
919.1331	3392
921.5074	3440
923.8831	3424
926.2562	3456
928.6287	3485
931.0005	3424
933.3757	3408
935.7462	3484
938.1162	3482
940.4855	3579
942.8542	3611
945.2242	3670
947.5916	3803
949.9584	3869
952.3266	4158
954.6921	4245
957.0571	4515
959.4233	4721
961.787	4753
964.15	4844
966.5125	4519
968.8742	4388
971.2354	4081
973.5959	3862
975.9559	3642
978.3151	3456
980.6738	3578
983.0338	3432
985.3912	3443
987.7461	3367
990.1022	3313
992.4578	3337
994.8127	3440
997.1689	3378
999.5207	3395
1001.874	3410
1004.226	3361
1006.576	3356
1008.929	3407
1011.28	3460
1013.628	3354
1015.977	3446
1018.324	3388
1020.674	3419
1023.019	3534
1025.366	3475
1027.713	3379
1030.056	3436
1032.399	3452
1034.746	3443
1037.087	3419
1039.431	3461
1041.771	3528
1044.113	3535
1046.454	3525
1048.793	3370
1051.133	3497
1053.471	3463
1055.807	3475
1058.146	3502
1060.483	3469
1062.818	3511
1065.153	3576
1067.489	3498
1069.822	3627
1072.156	3546
1074.488	3720
1076.82	3593
1079.15	3659
1081.48	3574
1083.814	3526
1086.143	3542
1088.471	3491
1090.799	3409
1093.126	3448
1095.452	3482
1097.78	3508
1100.105	3403
1102.43	3512
1104.754	3423
1107.077	3383
1109.4	3408
1111.722	3425
1114.044	3396
1116.365	3360
1118.685	3453
1121.005	3375
1123.324	3402
1125.643	3405
1127.961	3399
1130.278	3451
1132.595	3437
1134.911	3403
1137.226	3396
1139.541	3345
1141.854	3423
1144.167	3417
1146.482	3324
1148.793	3425
1151.105	3409
1153.414	3430
1155.725	3535
1158.033	3408
1160.344	3343
1162.651	3463
1164.959	3492
1167.265	3470
1169.572	3442
1171.878	3444
1174.184	3508
1176.488	3392
1178.79	3371
1181.094	3475
1183.396	3458
1185.699	3419
1188.001	3423
1190.301	3475
1192.6	3393
1194.9	3459
1197.2	3529
1199.497	3458
1201.794	3474
1204.09	3432
1206.387	3421
1208.684	3388
1210.978	3439
1213.272	3492
1215.565	3431
1217.858	3497
1220.15	3462
1222.443	3357
1224.734	3411
1227.024	3520
1229.313	3530
1231.602	3512
1233.892	3615
1236.18	3642
1238.467	3599
1240.754	3566
1243.04	3617
1245.325	3672
1247.612	3621
1249.896	3696
1252.178	3576
1254.461	3675
1256.743	3562
1259.027	3706
1261.308	3661
1263.587	3599
1265.867	3566
1268.146	3658
1270.425	3667
1272.703	3657
1274.981	3706
1277.256	3712
1279.532	3718
1281.808	3532
1284.083	3550
1286.358	3614
1288.63	3625
1290.904	3559
1293.175	3578
1295.449	3564
1297.719	3589
1299.99	3505
1302.259	3510
1304.529	3548
1306.798	3594
1309.065	3576
1311.333	3623
1313.599	3560
1315.866	3597
1318.131	3602
1320.396	3570
1322.66	3504
1324.925	3613
1327.187	3563
1329.448	3554
1331.711	3599
1333.974	3438
1336.234	3596
1338.493	3604
1340.752	3631
1343.01	3546
1345.269	3629
1347.526	3534
1349.784	3481
1352.04	3520
1354.295	3517
1356.552	3511
1358.806	3520
1361.059	3542
1363.312	3564
1365.564	3496
1367.818	3590
1370.069	3594
1372.318	3523
1374.568	3507
1376.817	3549
1379.066	3672
1381.316	3552
1383.564	3524
1385.809	3612
1388.056	3674
1390.301	3570
1392.549	3590
1394.793	3692
1397.036	3669
1399.279	3610
1401.522	3652
1403.763	3670
1406.007	3682
1408.248	3569
1410.487	3739
1412.727	3667
1414.965	3545
1417.205	3705
1419.442	3718
1421.68	3719
1423.915	3702
1426.152	3714
1428.388	3725
1430.623	3684
1432.857	3797
1435.091	3706
1437.323	3682
1439.556	3764
1441.789	3774
1444.019	3705
1446.25	3685
1448.48	3834
1450.708	3851
1452.938	3808
1455.167	3769
1457.394	3886
1459.62	3860
1461.846	3802
1464.073	3742
1466.299	3820
1468.523	3705
1470.746	3675
1472.969	3778
1475.191	3647
1477.415	3661
1479.636	3679
1481.858	3644
1484.078	3699
1486.298	3610
1488.518	3645
1490.736	3622
1492.954	3655
1495.169	3537
1497.386	3619
1499.602	3493
1501.819	3569
1504.034	3555
1506.248	3522
1508.462	3542
1510.675	3463
1512.888	3582
1515.1	3545
1517.311	3507
1519.522	3545
1521.732	3519
1523.942	3643
1526.151	3581
1528.36	3479
1530.566	3527
1532.773	3635
1534.98	3520
1537.187	3520
1539.392	3606
1541.596	3578
1543.801	3513
1546.005	3559
1548.208	3536
1550.411	3568
1552.612	3596
1554.814	3555
1557.013	3628
1559.212	3587
1561.414	3695
1563.612	3581
1565.811	3599
1568.007	3610
1570.203	3589
1572.403	3614
1574.598	3637
1576.792	3556
1578.988	3684
1581.181	3628
1583.376	3642
1585.568	3629
1587.761	3645
1589.952	3693
1592.143	3546
1594.333	3706
1596.524	3667
1598.715	3703
1600.903	3715
1603.091	3638
1605.278	3669
1607.466	3673
1609.652	3591
1611.838	3718
1614.023	3750
1616.207	3604
1618.391	3668
1620.576	3697
1622.759	3772
1624.941	3662
1627.123	3742
1629.304	3772
1631.484	3734
1633.664	3785
1635.844	3777
1638.022	3783
1640.201	3869
1642.38	3847
1644.556	3793
1646.732	3783
1648.908	3820
1651.084	3754
1653.257	3850
1655.433	3840
1657.607	3867
1659.779	3795
1661.951	3852
1664.122	3891
1666.295	3739
1668.467	3824
1670.635	3888
1672.805	3915
1674.973	3883
1677.142	3889
1679.31	3863
1681.478	3823
1683.644	3787
1685.81	3859
1687.975	3779
1690.142	3794
1692.305	3828
1694.468	3766
1696.632	3713
1698.794	3693
1700.957	3579
1703.119	3741
1705.279	3723
1707.439	3721
1709.598	3674
1711.758	3628
1713.917	3649
1716.075	3790
1718.231	3751
1720.388	3669
1722.543	3649
1724.702	3729
1726.856	3628
1729.01	3693
1731.164	3621
1733.317	3637
1735.471	3693
1737.623	3633
1739.774	3632
1741.925	3649
1744.075	3594
1746.225	3686
1748.376	3689
1750.524	3715
1752.672	3784
1754.82	3713
1756.965	3709
1759.113	3639
1761.259	3703
1763.405	3640
1765.549	3629
1767.694	3741
1769.836	3634
1771.981	3623
1774.123	3615
1776.264	3721
1778.405	3757
1780.546	3756
1782.687	3627
1784.827	3706
1786.966	3758
1789.103	3700
1791.242	3771
1793.381	3729
1795.517	3693
1797.653	3649
1799.788	3698
1801.923	3796
1804.057	3735
1806.193	3704
1808.326	3702
1810.457	3602
1812.59	3696
1814.721	3740
1816.855	3649
1818.984	3710
1821.113	3784
1823.244	3654
1825.372	3660
1827.499	3619
1829.63	3700
1831.756	3638
1833.882	3622
1836.007	3695
1838.132	3631
1840.26	3718
1842.384	3732
1844.507	3724
1846.63	3680
1848.752	3692
1850.875	3730
1852.996	3717
1855.118	3727
1857.238	3718
1859.358	3670
1861.477	3741
1863.597	3689
1865.715	3615
1867.832	3761
1869.948	3580
1872.064	3700
1874.181	3696
1876.297	3637
1878.411	3687
1880.526	3685
1882.639	3560
1884.752	3658
1886.865	3702
1888.977	3717
1891.089	3694
1893.2	3698
1895.308	3646
1897.42	3639
1899.53	3665
1901.639	3803
1903.745	3681
1905.853	3740
1907.962	3734
1910.067	3685
1912.174	3702
1914.278	3807
1916.383	3683
1918.486	3716
1920.592	3753
1922.694	3667
1924.797	3678
1926.898	3744
1929	3771
1931.102	3711
1933.203	3808
1935.301	3726
1937.401	3634
1939.499	3683
1941.598	3720
1943.697	3673
1945.793	3693
1947.888	3663
1949.985	3757
1952.08	3751
1954.176	3755
1956.269	3729
1958.364	3692
1960.457	3682
1962.549	3727
1964.642	3762
1966.733	3764
1968.823	3729
1970.913	3800
1973.005	3758
1975.093	3741
1977.184	3645
1979.271	3770
1981.359	3671
1983.446	3720
1985.532	3629
1987.619	3778
1989.705	3715
1991.789	3718
1993.874	3745
1995.956	3696
1998.041	3706
2000.123	3691
2002.206	3717
2004.287	3682
2006.368	3714
2008.449	3680
2010.529	3716
2012.609	3690
2014.688	3743
2016.766	3748
2018.843	3703
2020.922	3666
2022.999	3729
2025.074	3735
2027.15	3743
2029.225	3716
2031.299	3668
2033.375	3723
2035.447	3644
2037.52	3720
2039.592	3709
2041.664	3683
2043.736	3611
2045.807	3700
2047.876	3703
2049.947	3712
2052.015	3685
2054.086	3695
2056.153	3700
2058.221	3688
2060.288	3723
2062.353	3714
2064.42	3770
2066.486	3750
2068.55	3750
2070.614	3728
2072.678	3753
2074.741	3738
2076.805	3708
2078.866	3734
2080.929	3711
2082.99	3708
2085.049	3741
2087.109	3783
2089.17	3628
2091.228	3714
2093.286	3701
2095.344	3755
2097.4	3697
2099.46	3727
2101.516	3685
2103.572	3724
2105.626	3647
2107.679	3658
2109.735	3704
2111.788	3753
2113.841	3797
2115.894	3628
2117.945	3717
2119.997	3825
2122.049	3784
2124.1	3715
2126.148	3772
2128.197	3769
2130.246	3784
2132.296	3752
2134.342	3730
2136.39	3751
2138.437	3694
2140.483	3693
2142.527	3708
2144.574	3679
2146.619	3748
2148.661	3693
2150.705	3687
2152.747	3672
2154.792	3645
2156.832	3742
2158.874	3645
2160.915	3648
2162.954	3613
2164.995	3673
2167.034	3694
2169.072	3644
2171.111	3638
2173.148	3633
2175.186	3713
2177.223	3610
2179.258	3596
2181.294	3628
2183.328	3597
2185.362	3719
2187.398	3672
2189.431	3675
2191.463	3632
2193.495	3643
2195.528	3629
2197.56	3693
2199.59	3662
2201.62	3692
2203.649	3636
2205.678	3656
2207.708	3695
2209.737	3732
2211.764	3703
2213.791	3545
2215.817	3677
2217.843	3613
2219.87	3657
2221.895	3602
2223.919	3629
2225.942	3606
2227.966	3678
2229.988	3655
2232.012	3598
2234.032	3719
2236.054	3544
2238.074	3533
2240.095	3698
2242.116	3621
2244.135	3620
2246.153	3678
2248.171	3661
2250.188	3599
2252.208	3648
2254.223	3638
2256.239	3512
2258.255	3552
2260.269	3636
2262.283	3630
2264.3	3643
2266.312	3637
2268.325	3665
2270.336	3685
2272.349	3589
2274.362	3655
2276.372	3580
2278.383	3602
2280.392	3604
2282.402	3685
2284.409	3589
2286.418	3653
2288.427	3637
2290.433	3651
2292.441	3645
2294.446	3612
2296.453	3607
2298.459	3632
2300.463	3657
2302.466	3609
2304.471	3615
2306.475	3637
2308.477	3633
2310.478	3677
2312.481	3588
2314.481	3535
2316.481	3572
2318.482	3507
2320.482	3683
2322.48	3653
2324.48	3649
2326.478	3543
2328.476	3593
2330.473	3583
2332.469	3632
2334.465	3650
2336.46	3545
2338.454	3585
2340.45	3531
2342.444	3598
2344.437	3654
2346.43	3586
2348.421	3602
2350.414	3606
2352.405	3537
2354.396	3599
2356.386	3576
2358.376	3540
2360.366	3575
2362.355	3557
2364.343	3514
2366.331	3531
2368.317	3492
2370.304	3558
2372.292	3599
2374.278	3557
2376.262	3572
2378.247	3594
2380.23	3522
2382.216	3552
2384.199	3544
2386.181	3492
2388.163	3569
2390.144	3507
2392.127	3502
2394.107	3501
2396.087	3516
2398.066	3590
2400.046	3594
2402.023	3559
2404.004	3584
2405.981	3557
2407.957	3594
2409.934	3580
2411.91	3527
2413.886	3518
2415.862	3523
2417.836	3466
2419.809	3523
2421.784	3541
2423.756	3500
2425.73	3572
2427.701	3496
2429.672	3524
2431.644	3621
2433.615	3576
2435.586	3591
2437.555	3506
2439.523	3524
2441.491	3571
2443.459	3483
2445.428	3525
2447.395	3574
2449.361	3578
2451.327	3543
2453.292	3470
2455.257	3577
2457.223	3546
2459.187	3455
2461.15	3532
2463.113	3532
2465.076	3584
2467.039	3452
2468.999	3553
2470.96	3545
2472.921	3476
2474.881	3476
2476.841	3456
2478.8	3502
2480.759	3574
2482.717	3556
2484.675	3520
2486.63	3415
2488.589	3464
2490.545	3436
2492.5	3499
2494.455	3533
2496.408	3455
2498.364	3488
2500.318	3449
2502.27	3484
2504.223	3452
2506.174	3552
2508.126	3481
2510.078	3492
2512.03	3427
2513.979	3410
2515.927	3426
2517.877	3400
2519.826	3492
2521.775	3492
2523.722	3533
2525.668	3470
2527.616	3355
2529.561	3480
2531.508	3509
2533.452	3486
2535.398	3451
2537.342	3434
2539.284	3407
2541.229	3422
2543.173	3452
2545.114	3382
2547.055	3442
2548.996	3391
2550.938	3447
2552.878	3417
2554.817	3462
2556.756	3441
2558.695	3415
2560.633	3421
2562.572	3444
2564.509	3571
2566.445	3469
2568.382	3481
2570.317	3484
2572.254	3497
2574.189	3444
2576.123	3422
2578.057	3408
2579.99	3518
2581.923	3492
2583.855	3430
2585.788	3500
2587.719	3418
2589.65	3548
2591.579	3464
2593.511	3532
2595.44	3437
2597.37	3417
2599.297	3453
2601.225	3515
2603.153	3377
2605.08	3514
2607.007	3500
2608.932	3474
2610.858	3460
2612.782	3384
2614.709	3450
2616.632	3519
2618.556	3522
2620.478	3494
2622.401	3513
2624.324	3544
2626.247	3553
2628.167	3444
2630.088	3499
2632.008	3422
2633.928	3517
2635.848	3396
2637.766	3445
2639.684	3479
2641.603	3431
2643.519	3426
2645.437	3501
2647.353	3434
2649.27	3466
2651.184	3495
2653.099	3419
2655.014	3468
2656.928	3496
2658.842	3517
2660.755	3527
2662.667	3410
2664.579	3514
2666.491	3471
2668.402	3464
2670.312	3460
2672.222	3478
2674.132	3488
2676.042	3511
2677.951	3446
2679.859	3492
2681.766	3378
2683.674	3453
2685.582	3423
2687.488	3382
2689.392	3430
2691.298	3487
2693.202	3452
2695.107	3394
2697.012	3409
2698.914	3466
2700.817	3402
2702.72	3443
2704.622	3408
2706.524	3439
2708.425	3530
2710.326	3386
2712.225	3435
2714.125	3460
2716.024	3436
2717.923	3457
2719.822	3377
2721.719	3434
2723.616	3389
2725.512	3404
2727.41	3368
2729.305	3428
2731.201	3398
2733.095	3347
2734.99	3406
2736.884	3415
2738.778	3480
2740.67	3366
2742.562	3384
2744.455	3485
2746.346	3373
2748.238	3383
2750.129	3464
2752.018	3336
2753.907	3459
2755.797	3401
2757.687	3385
2759.575	3444
2761.462	3401
2763.349	3395
2765.237	3464
2767.124	3383
2769.009	3348
2770.894	3404
2772.779	3431
2774.663	3432
2776.547	3420
2778.431	3429
2780.314	3417
2782.197	3495
2784.078	3415
2785.96	3361
2787.842	3366
2789.723	3386
2791.603	3419
2793.483	3419
2795.362	3359
2797.241	3436
2799.121	3359
2800.997	3385
2802.874	3403
2804.751	3472
2806.628	3359
2808.506	3460
2810.38	3444
2812.255	3408
2814.13	3330
2816.003	3408
2817.878	3379
2819.752	3316
2821.623	3462
2823.496	3327
2825.368	3464
2827.238	3382
2829.111	3416
2830.98	3362
2832.851	3404
2834.719	3436
2836.589	3455
2838.458	3362
2840.327	3370
2842.193	3387
2844.061	3383
2845.927	3408
2847.794	3304
2849.66	3447
2851.525	3431
2853.39	3441
2855.254	3397
2857.117	3417
2858.983	3550
2860.845	3512
2862.707	3539
2864.569	3489
2866.431	3540
2868.293	3503
2870.154	3572
2872.013	3640
2873.873	3656
2875.733	3691
2877.592	3797
2879.451	3790
2881.309	3853
2883.166	3856
2885.022	3850
2886.879	3804
2888.736	3893
2890.591	3851
2892.446	3858
2894.301	3941
2896.155	3732
2898.009	3826
2899.863	3907
2901.716	3890
2903.568	3867
2905.419	3862
2907.27	3880
2909.123	3955
2910.973	3851
2912.824	3938
2914.673	3992
2916.521	3957
2918.372	4044
2920.22	4078
2922.067	4196
2923.914	4125
2925.761	4287
2927.607	4243
2929.455	4295
2931.301	4391
2933.144	4406
2934.99	4348
2936.833	4499
2938.678	4532
2940.522	4647
2942.364	4618
2944.207	4618
2946.048	4688
2947.891	4629
2949.731	4654
2951.571	4606
2953.412	4702
2955.25	4598
2957.09	4567
2958.93	4473
2960.767	4454
2962.606	4379
2964.443	4325
2966.279	4245
2968.116	4265
2969.953	4235
2971.788	4055
2973.623	4067
2975.457	4157
2977.292	4094
2979.127	4050
2980.959	4071
2982.792	4018
2984.624	4115
2986.455	3983
2988.288	3930
2990.119	3889
2991.949	3895
2993.779	3829
2995.608	3841
2997.439	3803
2999.268	3748
3001.096	3699
3002.923	3709
3004.751	3679
3006.578	3666
3008.406	3592
3010.232	3604
3012.057	3565
3013.883	3603
3015.706	3485
3017.532	3475
3019.356	3454
3021.179	3400
3023.002	3392
3024.823	3330
3026.646	3386
3028.469	3316
3030.289	3361
3032.11	3304
3033.93	3278
3035.749	3340
3037.57	3204
3039.39	3349
3041.207	3235
3043.026	3260
3044.842	3267
3046.661	3263
3048.477	3303
3050.294	3322
3052.109	3313
3053.925	3232
3055.739	3286
3057.555	3299
3059.368	3220
3061.181	3274
3062.995	3289
3064.807	3272
3066.62	3276
3068.433	3355
3070.243	3287
3072.054	3255
3073.865	3224
3075.675	3245
3077.485	3282
3079.293	3224
3081.102	3202
3082.911	3352
3084.719	3228
3086.527	3179
3088.333	3235
3090.139	3242
3091.945	3116
3093.75	3141
3095.557	3271
3097.361	3234
3099.165	3214
3100.969	3171
3102.772	3118
3104.575	3220
3106.379	3138
3108.181	3208
3109.982	3121
3111.783	3131
3113.584	3089
3115.386	3184
3117.186	3120
3118.985	3126
3120.783	3162
3122.582	3154
3124.381	3137
3126.179	3126
3127.975	3255
3129.772	3052
3131.569	3113
3133.365	3059
3135.161	3131
3136.956	3116
3138.751	3089
3140.544	3107
3142.338	3019
3144.132	3044
3145.925	3169
3147.717	3109
3149.509	3081
3151.301	3111
3153.091	3054
3154.884	3118
3156.673	3069
3158.462	3032
3160.252	3165
3162.041	3014
3163.831	3199
3165.618	3101
3167.405	3064
3169.193	3178
3170.979	3092
3172.767	3141
3174.553	3170
3176.338	3115
3178.123	3111
3179.907	3108
3181.692	3130
3183.477	3089
3185.259	3123
3187.042	2995
3188.824	3079
3190.607	3106
3192.389	3106
3194.17	3084
3195.951	3126
3197.73	3018
3199.51	3072
3201.289	3149
3203.07	3223
3204.848	3054
3206.626	3153
3208.403	3086
3210.18	3150
3211.959	3074
3213.735	3171
3215.511	3136
3217.285	3078
3219.06	3084
3220.836	3048
3222.611	3058
3224.384	3029
3226.158	3089
3227.929	3179
3229.702	3104
3231.476	3089
3233.248	3096
3235.018	3107
3236.789	3129
3238.56	3188
3240.33	3206
3242.1	3136
3243.869	3106
3245.637	3115
3247.405	3107
3249.172	3085
3250.941	3160
3252.707	3091
3254.474	3154
3256.24	3167
3258.006	3159
3259.772	3090
3261.537	3062
3263.301	3097
3265.065	3179
3266.828	3031
3268.592	3169
3270.355	3165
3272.117	3132
3273.878	3233
3275.64	3122
3277.401	3144
3279.162	3147
3280.922	3104
3282.682	3156
3284.441	3074
3286.199	3134
3287.959	3132
3289.716	3176
3291.475	3180
3293.232	3222
3294.988	3088
3296.744	3157
3298.501	3160
3300.256	3123
3302.011	3146
3303.766	3056
3305.52	3098
3307.275	3130
3309.028	3138
3310.781	3156
3312.533	3058
3314.285	3106
3316.038	3060
3317.789	3155
3319.54	3098
3321.289	3170
3323.039	3147
3324.789	3075
3326.539	3078
3328.288	3185
3330.035	3112
3331.783	3131
3333.531	3151
3335.28	3094
3337.025	3095
3338.771	3142
3340.518	3133
3342.262	3082
3344.009	3143
3345.753	3111
3347.497	3077
3349.24	3072
3350.983	3052
3352.726	3023
3354.469	3052
3356.212	3096
3357.952	3131
3359.694	3090
3361.434	3146
3363.176	3018
3364.916	3120
3366.654	3064
3368.394	3027
3370.132	3128
3371.871	3106
3373.61	3039
3375.346	3069
3377.083	2986
3378.82	3040
3380.556	3017
3382.292	3037
3384.027	3075
3385.763	3011
3387.497	3013
3389.231	3065
3390.965	2960
3392.698	3016
3394.431	2999
3396.164	2988
3397.896	3013
3399.627	3043
3401.36	2981
3403.09	3034
3404.82	3026
3406.55	2950
3408.279	3047
3410.01	2993
3411.738	3018
3413.467	2979
3415.194	3039
3416.92	2949
3418.647	2957
3420.375	2973
3422.102	2942
3423.827	2976
3425.553	2945
3427.277	3010
3429.003	2932
3430.727	2999
3432.451	3018
3434.173	2982
3435.896	2941
3437.62	2975
3439.343	3007
3441.063	2927
3442.785	2894
3444.505	2932
3446.226	2900
3447.948	3030
3449.666	2864
3451.386	2923
3453.104	2906
3454.823	2906
3456.541	2989
3458.259	2901
3459.976	2948
3461.693	2832
3463.408	2921
3465.125	2914
3466.841	2826
3468.556	2909
3470.271	2829
3471.985	2937
3473.698	2828
3475.414	2860
3477.126	2863
3478.838	2926
3480.55	2784
3482.263	2800
3483.975	2845
3485.686	2868
3487.396	2830
3489.106	2815
3490.817	2723
3492.526	2833
3494.236	2776
3495.944	2764
3497.652	2791
3499.359	2783
3501.066	2779
3502.775	2804
3504.481	2780
3506.187	2825
3507.893	2780
3509.598	2751
3511.304	2798
3513.009	2781
3514.713	2716
3516.417	2773
3518.12	2747
3519.821	2753
3521.525	2727
3523.228	2780
3524.929	2773
3526.631	2658
3528.33	2764
3530.032	2710
3531.733	2682
3533.433	2760
3535.131	2685
3536.83	2690
3538.529	2750
3540.227	2661
3541.925	2675
3543.623	2676
3545.319	2672
3547.016	2753
3548.712	2689
3550.408	2640
3552.103	2716
3553.798	2669
3555.491	2632
3557.188	2666
3558.88	2640
3560.574	2683
3562.266	2703
3563.959	2663
3565.651	2616
3567.343	2638
3569.035	2650
3570.725	2671
3572.415	2627
3574.106	2669
3575.797	2557
3577.485	2684
3579.174	2650
3580.863	2693
3582.551	2602
3584.238	2574
3585.926	2626
3587.613	2588
3589.3	2578
3590.986	2604
3592.671	2585
3594.357	2649
3596.042	2620
3597.726	2593
3599.41	2612
3601.094	2558
3602.778	2465
3604.461	2596
3606.143	2516
3607.825	2582
3609.507	2603
3611.188	2530
3612.87	2567
3614.551	2534
3616.229	2522
3617.909	2518
3619.589	2546
3621.269	2509
3622.948	2513
3624.625	2530
3626.302	2547
3627.98	2468
3629.657	2410
3631.334	2497
3633.01	2439
3634.686	2509
3636.361	2541
3638.036	2436
3639.712	2451
3641.385	2431
3643.06	2465
3644.732	2458
3646.405	2481
3648.08	2488
3649.751	2455
3651.424	2503
3653.094	2457
3654.766	2473
3656.436	2441
3658.106	2414
3659.777	2482
3661.446	2448
3663.115	2434
3664.783	2458
3666.452	2472
3668.121	2393
3669.788	2423
3671.454	2389
3673.121	2423
3674.789	2438
3676.455	2448
3678.12	2486
3679.784	2449
3681.45	2378
3683.114	2473
3684.779	2439
3686.442	2379
3688.105	2377
3689.768	2377
3691.43	2400
3693.093	2435
3694.754	2371
3696.415	2386
3698.076	2389
3699.736	2341
3701.396	2354
3703.057	2338
3704.716	2364
3706.375	2290
3708.034	2379
3709.692	2350
3711.351	2372
3713.008	2371
3714.665	2360
3716.321	2382
3717.977	2330
3719.634	2363
3721.29	2327
3722.945	2235
3724.598	2377
3726.253	2310
3727.907	2372
3729.561	2337
3731.214	2409
3732.867	2330
3734.518	2322
3736.171	2360
3737.824	2325
3739.474	2384
3741.125	2330
3742.775	2330
3744.425	2355
3746.074	2357
3747.725	2347
3749.373	2341
3751.022	2317
3752.669	2309
3754.318	2270
3755.966	2298
3757.612	2305
3759.259	2287
3760.905	2326
3762.55	2282
3764.197	2274
3765.842	2294
3767.486	2309
3769.131	2269
3770.774	2285
3772.417	2254
3774.061	2289
3775.705	2297
3777.347	2231
3778.988	2315
3780.629	2303
3782.271	2293
3783.912	2267
3785.552	2298
3787.192	2292
3788.831	2297
3790.472	2277
3792.112	2311
3793.75	2282
3795.388	2219
3797.024	2221
3798.661	2270
3800.3	2281
3801.936	2230
3803.572	2245
3805.208	2275
3806.844	2231
3808.48	2234
3810.115	2252
3811.748	2250
3813.382	2293
3815.016	2222
3816.649	2180
3818.283	2193
3819.914	2254
3821.547	2243
3823.178	2221
3824.809	2256
3826.441	2233
3828.072	2220
3829.701	2255
3831.331	2221
3832.96	2245
3834.591	2269
3836.219	2215
3837.847	2232
3839.475	2266
3841.102	2238
3842.729	2182
3844.357	2204
3845.984	2215
3847.609	2188
3849.234	2132
3850.86	2281
3852.485	2237
3854.11	2156
3855.734	2205
3857.357	2192
3858.981	2214
3860.603	2200
3862.227	2195
3863.848	2113
3865.471	2185
3867.092	2167
3868.713	2178
3870.334	2122
3871.954	2192
3873.575	2184
3875.194	2160
3876.813	2200
3878.433	2119
3880.051	2106
3881.669	2156
3883.286	2127
3884.904	2134
3886.52	2173
3888.138	2176
3889.754	2145
3891.37	2169
3892.985	2126
3894.6	2212
3896.216	2156
3897.831	2090
3899.444	2146
3901.058	2180
3902.67	2174
3904.283	2133
3905.897	2138
3907.509	2134
3909.121	2148
3910.731	2120
3912.342	2164
3913.954	2101
3915.563	2127
3917.174	2107
3918.783	2161
3920.391	2163
3922.002	2152
3923.611	2145
3925.218	2141
3926.826	2164
3928.432	2150
3930.039	2156
3931.647	2072
3933.253	2112
3934.859	2118
3936.464	2080
3938.068	2137
3939.675	2148
3941.278	2088
3942.883	2118
3944.486	2183
3946.089	2101
3947.692	2115
3949.295	2048
3950.898	2067
3952.499	2079
3954.1	2069
3955.7	2082
3957.303	2093
3958.903	2074
3960.502	2116
3962.101	2024
3963.7	2103
3965.301	2098
3966.899	2100
3968.497	2117
3970.094	2041
3971.691	2112
3973.288	2087
3974.885	2051
3976.481	2061
3978.077	2019
3979.672	2103
3981.267	2034
3982.863	2080
3984.457	2111
3986.051	2063
3987.645	2058
3989.238	2083
3990.831	2045
3992.425	2049
3994.017	2031
3995.607	2094
3997.199	2071
3998.79	2033
4000.382	2021
4001.973	2042
4003.561	2064
4005.151	2059
4006.741	2014
4008.331	2046
4009.918	2050
4011.507	2038
4013.095	2075
4014.681	1988
4016.269	2003
4017.856	2026
4019.443	2035
4021.028	1987
4022.614	2034
4024.199	1981
4025.785	2014
4027.37	2039
4028.953	2025
4030.536	2005
4032.12	1954
4033.704	2051
4035.287	1986
4036.869	1997
4038.45	1978
4040.032	1965
4041.613	1947
4043.195	1970
4044.776	1964
4046.356	2010
4047.935	1952
4049.515	1979
4051.095	1969
4052.674	2023
4054.251	1950
4055.829	1936
4057.406	1951
4058.985	1944
4060.562	1896
4062.139	2004
4063.715	1930
4065.29	1991
4066.865	1971
4068.442	1935
4070.016	1959
4071.59	1960
4073.164	1949
4074.738	1945
4076.312	1927
4077.885	1963
4079.458	1966
4081.03	1904
4082.602	1888
4084.173	1998
4085.745	1900
4087.315	1893
4088.886	1977
4090.456	1926
4092.026	1922
4093.596	1960
4095.165	1926
4096.734	1930
4098.301	1897
4099.869	1934
4101.437	1954
4103.006	1949
4104.572	1920
4106.139	1933
4107.704	1976
4109.27	1944
4110.837	1956
4112.401	1905
4113.966	1956
4115.53	1917
4117.094	1921
4118.659	1884
4120.223	1927
4121.785	1917
4123.347	1893
4124.909	1882
4126.471	1915
4128.034	1916
4129.595	1815
4131.155	1922
4132.716	1858
4134.275	1830
4135.836	1874
4137.395	1894
4138.955	1905
4140.513	1856
4142.071	1864
4143.628	1876
4145.188	1842
4146.745	1924
4148.302	1906
4149.858	1833
4151.414	1850
4152.971	1883
4154.526	1852
4156.081	1821
4157.635	1853
4159.189	1854
4160.745	1842
4162.298	1841
4163.852	1885
4165.405	1861
4166.957	1854
4168.51	1869
4170.063	1845
4171.614	1795
4173.166	1866
4174.717	1826
4176.267	1830
4177.817	1822
4179.368	1832
4180.917	1844
4182.466	1860
4184.016	1795
4185.564	1843
4187.112	1805
4188.66	1840
4190.207	1833
4191.754	1792
4193.301	1821
4194.848	1832
4196.394	1802
4197.94	1843
4199.484	1794
4201.03	1810
4202.575	1793
4204.12	1803
4205.663	1799
4207.207	1750
4208.75	1819
4210.292	1778
4211.836	1792
4213.378	1777
4214.92	1800
4216.46	1801
4218.002	1767
4219.544	1798
4221.083	1752
4222.625	1743
4224.164	1805
4225.703	1757
4227.244	1766
4228.782	1749
4230.32	1778
4231.857	1773
4233.395	1764
4234.933	1778
4236.471	1784
4238.007	1771
4239.542	1796
4241.078	1763
4242.614	1800
4244.15	1779
4245.685	1746
4247.219	1727
4248.753	1759
4250.287	1772
4251.82	1794
4253.354	1779
4254.887	1752
4256.419	1752
4257.951	1736
4259.483	1724
4261.016	1776
4262.547	1791
4264.078	1756
4265.608	1756
4267.137	1739
4268.668	1796
4270.197	1743
4271.727	1717
4273.254	1731
4274.783	1787
4276.311	1771
4277.84	1735
4279.366	1725
4280.894	1737
4282.42	1762
4283.946	1677
4285.473	1715
4286.998	1713
4288.523	1707
4290.047	1722
4291.572	1754
4293.096	1743
4294.622	1696
4296.144	1738
4297.668	1715
4299.19	1762
4300.713	1729
4302.236	1704
4303.758	1744
4305.279	1733
4306.799	1697
4308.321	1769
4309.842	1715
4311.361	1675
4312.882	1679
4314.401	1705
