400.0961	2316
402.6185	2324
405.1424	2367
407.6635	2338
410.1838	2344
412.7035	2352
415.2225	2395
417.7388	2357
420.2585	2434
422.7754	2418
425.2917	2480
427.8072	2463
430.3221	2566
432.8363	2593
435.3498	2481
437.8626	2541
440.3727	2515
442.8841	2520
445.3969	2520
447.907	2430
450.4142	2475
452.9229	2449
455.4289	2543
457.9362	2489
460.4449	2483
462.9488	2477
465.454	2437
467.9566	2464
470.4604	2451
472.9637	2477
475.4662	2512
477.966	2461
480.4671	2406
482.9656	2407
485.4633	2500
487.9645	2503
490.4608	2443
492.9566	2482
495.4536	2487
497.948	2527
500.4437	2402
502.9387	2459
505.431	2524
507.9226	2491
510.4136	2529
512.9079	2525
515.3975	2444
517.8864	2493
520.3746	2506
522.8622	2581
525.3491	2479
527.8394	2563
530.3249	2519
532.8098	2507
535.2939	2558
537.7774	2503
540.2623	2524
542.7444	2470
545.2259	2548
547.7067	2543
550.1868	2528
552.6683	2519
555.147	2514
557.6231	2499
560.1005	2545
562.5773	2613
565.0534	2634
567.5308	2557
570.0056	2606
572.4776	2595
574.951	2673
577.4237	2704
579.8978	2654
582.3671	2683
584.8378	2729
587.3079	2635
589.7773	2655
592.244	2713
594.714	2670
597.1793	2677
599.6461	2664
602.1121	2670
604.5754	2633
607.0421	2689
609.5042	2630
611.9675	2644
614.4282	2579
616.8902	2637
619.3515	2632
621.8122	2632
624.2702	2571
626.7296	2594
629.1863	2599
631.6423	2598
634.1017	2566
636.5563	2606
639.0104	2579
641.4658	2581
643.9185	2622
646.3725	2659
648.8239	2612
651.2766	2668
653.7266	2595
656.176	2605
658.6247	2704
661.0748	2579
663.5242	2568
665.9709	2661
668.417	2692
670.8624	2676
673.3092	2723
675.7533	2700
678.1968	2674
680.6395	2697
683.0817	2646
685.5251	2691
687.9659	2665
690.4061	2703
692.8456	2716
695.2844	2634
697.7226	2630
700.1621	2677
702.599	2656
705.0332	2696
707.4688	2699
709.9036	2690
712.3399	2725
714.7735	2725
717.2044	2728
719.6367	2714
722.0683	2693
724.4993	2768
726.9296	2739
729.3593	2756
731.7883	2776
734.2147	2717
736.6423	2792
739.0714	2780
741.4958	2799
743.9216	2798
746.3447	2789
748.7691	2801
751.1929	2810
753.616	2894
756.0366	2875
758.4584	2819
760.8776	2822
763.2982	2752
765.718	2842
768.1373	2860
770.5539	2848
772.9698	2840
775.3871	2849
777.8038	2826
780.2178	2885
782.6332	2864
785.0459	2753
787.458	2886
789.8714	2902
792.2842	2834
794.6943	2812
797.1038	2908
799.5127	2866
801.9209	2822
804.3324	2800
806.7393	2860
809.1456	2860
811.5513	2906
813.9562	2895
816.3625	2853
818.7663	2897
821.1693	2890
823.5718	2950
825.9735	2902
828.3746	2866
830.7771	2909
833.177	2922
835.5762	2931
837.9747	2933
840.3727	2969
842.772	2873
845.1666	2941
847.5626	2960
849.958	2983
852.3527	2987
854.7488	3021
857.1403	2980
859.5331	2968
861.9253	2947
864.3168	2979
866.7057	3037
869.098	2969
871.4876	2900
873.8746	2948
876.263	2990
878.6487	2967
881.0378	2961
883.4243	2954
885.8081	2945
888.1933	2998
890.5759	2940
892.9598	2909
895.343	2895
897.7256	3009
900.1057	2864
902.4871	2965
904.8659	3027
907.246	2971
909.6254	3004
912.0023	2989
914.3786	3074
916.7562	3061
919.1331	3095
921.5074	3084
923.8831	3101
926.2562	3065
928.6287	3025
931.0005	3135
933.3757	3235
935.7462	3163
938.1162	3156
940.4855	3274
942.8542	3294
945.2242	3331
947.5916	3415
949.9584	3511
952.3266	3680
954.6921	3764
957.0571	4105
959.4233	4324
961.787	4331
964.15	4206
966.5125	4148
968.8742	3968
971.2354	3764
973.5959	3450
975.9559	3298
978.3151	3280
980.6738	3225
983.0338	3192
985.3912	3139
987.7461	3115
990.1022	3107
992.4578	3083
994.8127	3092
997.1689	3099
999.5207	2994
1001.874	3202
1004.226	3169
1006.576	3152
1008.929	3177
1011.28	3130
1013.628	3150
1015.977	3130
1018.324	3122
1020.674	3032
1023.019	3109
1025.366	3186
1027.713	3153
1030.056	3238
1032.399	3169
1034.746	3182
1037.087	3140
1039.431	3155
1041.771	3171
1044.113	3195
1046.454	3126
1048.793	3152
1051.133	3213
1053.471	3180
1055.807	3224
1058.146	3255
1060.483	3180
1062.818	3242
1065.153	3211
1067.489	3248
1069.822	3280
1072.156	3256
1074.488	3267
1076.82	3322
1079.15	3320
1081.48	3314
1083.814	3278
1086.143	3149
1088.471	3181
1090.799	3145
1093.126	3203
1095.452	3246
1097.78	3133
1100.105	3157
1102.43	3252
1104.754	3214
1107.077	3141
1109.4	3211
1111.722	3047
1114.044	3145
1116.365	3123
1118.685	3167
1121.005	3215
1123.324	3179
1125.643	3140
1127.961	3105
1130.278	3152
1132.595	3119
1134.911	3137
1137.226	3170
1139.541	3107
1141.854	3148
1144.167	3144
1146.482	3141
1148.793	3164
1151.105	3120
1153.414	3156
1155.725	3123
1158.033	3122
1160.344	3148
1162.651	3269
1164.959	3129
1167.265	3181
1169.572	3270
1171.878	3226
1174.184	3181
1176.488	3165
1178.79	3206
1181.094	3188
1183.396	3151
1185.699	3167
1188.001	3223
1190.301	3156
1192.6	3183
1194.9	3102
1197.2	3083
1199.497	3195
1201.794	3158
1204.09	3220
1206.387	3168
1208.684	3135
1210.978	3222
1213.272	3133
1215.565	3179
1217.858	3179
1220.15	3139
1222.443	3235
1224.734	3192
1227.024	3209
1229.313	3227
1231.602	3293
1233.892	3283
1236.18	3216
1238.467	3241
1240.754	3216
1243.04	3355
1245.325	3256
1247.612	3329
1249.896	3279
1252.178	3307
1254.461	3325
1256.743	3311
1259.027	3339
1261.308	3312
1263.587	3314
1265.867	3380
1268.146	3385
1270.425	3326
1272.703	3272
1274.981	3333
1277.256	3277
1279.532	3290
1281.808	3356
1284.083	3277
1286.358	3336
1288.63	3254
1290.904	3235
1293.175	3253
1295.449	3205
1297.719	3359
1299.99	3169
1302.259	3272
1304.529	3244
1306.798	3300
1309.065	3301
1311.333	3207
1313.599	3225
1315.866	3232
1318.131	3272
1320.396	3225
1322.66	3315
1324.925	3305
1327.187	3262
1329.448	3243
1331.711	3251
1333.974	3185
1336.234	3260
1338.493	3315
1340.752	3331
1343.01	3250
1345.269	3241
1347.526	3212
1349.784	3338
1352.04	3325
1354.295	3265
1356.552	3290
1358.806	3255
1361.059	3294
1363.312	3262
1365.564	3271
1367.818	3300
1370.069	3249
1372.318	3247
1374.568	3220
1376.817	3313
1379.066	3241
1381.316	3229
1383.564	3294
1385.809	3313
1388.056	3220
1390.301	3356
1392.549	3295
1394.793	3335
1397.036	3267
1399.279	3234
1401.522	3334
1403.763	3331
1406.007	3376
1408.248	3360
1410.487	3386
1412.727	3450
1414.965	3360
1417.205	3390
1419.442	3364
1421.68	3380
1423.915	3397
1426.152	3346
1428.388	3404
1430.623	3404
1432.857	3393
1435.091	3435
1437.323	3398
1439.556	3453
1441.789	3419
1444.019	3496
1446.25	3451
1448.48	3500
1450.708	3473
1452.938	3469
1455.167	3453
1457.394	3449
1459.62	3521
1461.846	3459
1464.073	3562
1466.299	3381
1468.523	3436
1470.746	3430
1472.969	3372
1475.191	3380
1477.415	3373
1479.636	3367
1481.858	3319
1484.078	3358
1486.298	3361
1488.518	3231
1490.736	3278
1492.954	3244
1495.169	3338
1497.386	3336
1499.602	3288
1501.819	3295
1504.034	3266
1506.248	3289
1508.462	3308
1510.675	3268
1512.888	3315
1515.1	3281
1517.311	3276
1519.522	3262
1521.732	3205
1523.942	3318
1526.151	3237
1528.36	3249
1530.566	3268
1532.773	3252
1534.98	3314
1537.187	3354
1539.392	3304
1541.596	3309
1543.801	3331
1546.005	3315
1548.208	3295
1550.411	3329
1552.612	3374
1554.814	3344
1557.013	3370
1559.212	3303
1561.414	3331
1563.612	3346
1565.811	3319
1568.007	3318
1570.203	3388
1572.403	3360
1574.598	3385
1576.792	3359
1578.988	3376
1581.181	3339
1583.376	3427
1585.568	3382
1587.761	3416
1589.952	3451
1592.143	3360
1594.333	3395
1596.524	3417
1598.715	3375
1600.903	3374
1603.091	3391
1605.278	3377
1607.466	3398
1609.652	3462
1611.838	3438
1614.023	3409
1616.207	3463
1618.391	3448
1620.576	3415
1622.759	3430
1624.941	3492
1627.123	3481
1629.304	3457
1631.484	3496
1633.664	3461
1635.844	3390
1638.022	3459
1640.201	3445
1642.38	3547
1644.556	3520
1646.732	3411
1648.908	3479
1651.084	3494
1653.257	3526
1655.433	3401
1657.607	3466
1659.779	3486
1661.951	3493
1664.122	3552
1666.295	3523
1668.467	3535
1670.635	3600
1672.805	3514
1674.973	3435
1677.142	3586
1679.31	3534
1681.478	3552
1683.644	3521
1685.81	3560
1687.975	3548
1690.142	3507
1692.305	3526
1694.468	3397
1696.632	3536
1698.794	3384
1700.957	3507
1703.119	3425
1705.279	3483
1707.439	3488
1709.598	3440
1711.758	3454
1713.917	3382
1716.075	3433
1718.231	3437
1720.388	3512
1722.543	3436
1724.702	3426
1726.856	3511
1729.01	3444
1731.164	3421
1733.317	3429
1735.471	3466
1737.623	3432
1739.774	3412
1741.925	3415
1744.075	3434
1746.225	3441
1748.376	3426
1750.524	3486
1752.672	3473
1754.82	3447
1756.965	3415
1759.113	3479
1761.259	3498
1763.405	3411
1765.549	3474
1767.694	3367
1769.836	3516
1771.981	3469
1774.123	3443
1776.264	3403
1778.405	3495
1780.546	3430
1782.687	3568
1784.827	3501
1786.966	3518
1789.103	3450
1791.242	3508
1793.381	3489
1795.517	3410
1797.653	3436
1799.788	3463
1801.923	3439
1804.057	3550
1806.193	3442
1808.326	3485
1810.457	3489
1812.59	3473
1814.721	3496
1816.855	3465
1818.984	3440
1821.113	3544
1823.244	3471
1825.372	3513
1827.499	3498
1829.63	3544
1831.756	3445
1833.882	3489
1836.007	3417
1838.132	3447
1840.26	3418
1842.384	3516
1844.507	3498
1846.63	3454
1848.752	3478
1850.875	3467
1852.996	3370
1855.118	3380
1857.238	3480
1859.358	3434
1861.477	3534
1863.597	3508
1865.715	3431
1867.832	3427
1869.948	3430
1872.064	3460
1874.181	3471
1876.297	3472
1878.411	3491
1880.526	3409
1882.639	3490
1884.752	3500
1886.865	3490
1888.977	3393
1891.089	3424
1893.2	3532
1895.308	3521
1897.42	3518
1899.53	3537
1901.639	3569
1903.745	3459
1905.853	3537
1907.962	3501
1910.067	3564
1912.174	3539
1914.278	3554
1916.383	3496
1918.486	3551
1920.592	3549
1922.694	3547
1924.797	3542
1926.898	3471
1929	3459
1931.102	3504
1933.203	3486
1935.301	3503
1937.401	3467
1939.499	3494
1941.598	3519
1943.697	3589
1945.793	3422
1947.888	3584
1949.985	3613
1952.08	3557
1954.176	3484
1956.269	3589
1958.364	3552
1960.457	3583
1962.549	3543
1964.642	3552
1966.733	3532
1968.823	3542
1970.913	3533
1973.005	3492
1975.093	3534
1977.184	3514
1979.271	3468
1981.359	3478
1983.446	3543
1985.532	3498
1987.619	3498
1989.705	3529
1991.789	3503
1993.874	3550
1995.956	3457
1998.041	3438
2000.123	3597
2002.206	3478
2004.287	3509
2006.368	3462
2008.449	3484
2010.529	3458
2012.609	3545
2014.688	3457
2016.766	3481
2018.843	3477
2020.922	3500
2022.999	3555
2025.074	3477
2027.15	3418
2029.225	3487
2031.299	3456
2033.375	3424
2035.447	3502
2037.52	3425
2039.592	3610
2041.664	3430
2043.736	3431
2045.807	3449
2047.876	3477
2049.947	3508
2052.015	3500
2054.086	3421
2056.153	3520
2058.221	3474
2060.288	3534
2062.353	3459
2064.42	3480
2066.486	3487
2068.55	3433
2070.614	3488
2072.678	3480
2074.741	3483
2076.805	3516
2078.866	3497
2080.929	3539
2082.99	3554
2085.049	3603
2087.109	3495
2089.17	3520
2091.228	3510
2093.286	3481
2095.344	3524
2097.4	3549
2099.46	3455
2101.516	3449
2103.572	3487
2105.626	3561
2107.679	3477
2109.735	3530
2111.788	3537
2113.841	3468
2115.894	3419
2117.945	3542
2119.997	3527
2122.049	3562
2124.1	3488
2126.148	3488
2128.197	3475
2130.246	3498
2132.296	3499
2134.342	3484
2136.39	3531
2138.437	3596
2140.483	3473
2142.527	3527
2144.574	3517
2146.619	3470
2148.661	3528
2150.705	3487
2152.747	3509
2154.792	3510
2156.832	3503
2158.874	3531
2160.915	3522
2162.954	3539
2164.995	3488
2167.034	3466
2169.072	3404
2171.111	3535
2173.148	3430
2175.186	3495
2177.223	3474
2179.258	3534
2181.294	3423
2183.328	3491
2185.362	3373
2187.398	3419
2189.431	3488
2191.463	3487
2193.495	3453
2195.528	3358
2197.56	3435
2199.59	3386
2201.62	3482
2203.649	3401
2205.678	3459
2207.708	3423
2209.737	3444
2211.764	3428
2213.791	3396
2215.817	3439
2217.843	3446
2219.87	3419
2221.895	3399
2223.919	3458
2225.942	3387
2227.966	3493
2229.988	3430
2232.012	3469
2234.032	3464
2236.054	3360
2238.074	3428
2240.095	3438
2242.116	3415
2244.135	3443
2246.153	3473
2248.171	3438
2250.188	3437
2252.208	3404
2254.223	3440
2256.239	3462
2258.255	3462
2260.269	3458
2262.283	3451
2264.3	3391
2266.312	3400
2268.325	3440
2270.336	3487
2272.349	3448
2274.362	3367
2276.372	3410
2278.383	3444
2280.392	3419
2282.402	3462
2284.409	3427
2286.418	3354
2288.427	3502
2290.433	3365
2292.441	3461
2294.446	3422
2296.453	3480
2298.459	3428
2300.463	3483
2302.466	3462
2304.471	3414
2306.475	3466
2308.477	3413
2310.478	3435
2312.481	3361
2314.481	3334
2316.481	3371
2318.482	3457
2320.482	3356
2322.48	3315
2324.48	3369
2326.478	3467
2328.476	3398
2330.473	3462
2332.469	3374
2334.465	3409
2336.46	3400
2338.454	3422
2340.45	3327
2342.444	3462
2344.437	3333
2346.43	3337
2348.421	3376
2350.414	3358
2352.405	3401
2354.396	3465
2356.386	3469
2358.376	3403
2360.366	3439
2362.355	3421
2364.343	3425
2366.331	3407
2368.317	3388
2370.304	3317
2372.292	3438
2374.278	3330
2376.262	3355
2378.247	3407
2380.23	3360
2382.216	3392
2384.199	3372
2386.181	3440
2388.163	3367
2390.144	3274
2392.127	3373
2394.107	3317
2396.087	3354
2398.066	3255
2400.046	3350
2402.023	3320
2404.004	3342
2405.981	3378
2407.957	3292
2409.934	3350
2411.91	3337
2413.886	3339
2415.862	3302
2417.836	3354
2419.809	3400
2421.784	3326
2423.756	3334
2425.73	3429
2427.701	3393
2429.672	3338
2431.644	3365
2433.615	3282
2435.586	3338
2437.555	3340
2439.523	3339
2441.491	3301
2443.459	3379
2445.428	3418
2447.395	3280
2449.361	3365
2451.327	3369
2453.292	3320
2455.257	3256
2457.223	3365
2459.187	3301
2461.15	3323
2463.113	3321
2465.076	3205
2467.039	3317
2468.999	3361
2470.96	3323
2472.921	3339
2474.881	3401
2476.841	3275
2478.8	3340
2480.759	3314
2482.717	3261
2484.675	3324
2486.63	3289
2488.589	3273
2490.545	3333
2492.5	3297
2494.455	3383
2496.408	3354
2498.364	3277
2500.318	3318
2502.27	3263
2504.223	3357
2506.174	3331
2508.126	3342
2510.078	3312
2512.03	3384
2513.979	3351
2515.927	3220
2517.877	3313
2519.826	3327
2521.775	3340
2523.722	3347
2525.668	3268
2527.616	3344
2529.561	3296
2531.508	3275
2533.452	3303
2535.398	3361
2537.342	3275
2539.284	3261
2541.229	3335
2543.173	3383
2545.114	3334
2547.055	3299
2548.996	3202
2550.938	3272
2552.878	3289
2554.817	3275
2556.756	3325
2558.695	3270
2560.633	3303
2562.572	3234
2564.509	3311
2566.445	3281
2568.382	3232
2570.317	3321
2572.254	3318
2574.189	3288
2576.123	3289
2578.057	3310
2579.99	3267
2581.923	3297
2583.855	3293
2585.788	3304
2587.719	3306
2589.65	3337
2591.579	3288
2593.511	3250
2595.44	3330
2597.37	3292
2599.297	3382
2601.225	3310
2603.153	3381
2605.08	3339
2607.007	3305
2608.932	3285
2610.858	3300
2612.782	3374
2614.709	3334
2616.632	3281
2618.556	3288
2620.478	3346
2622.401	3269
2624.324	3289
2626.247	3317
2628.167	3327
2630.088	3356
2632.008	3317
2633.928	3365
2635.848	3393
2637.766	3307
2639.684	3366
2641.603	3298
2643.519	3326
2645.437	3357
2647.353	3324
2649.27	3292
2651.184	3305
2653.099	3281
2655.014	3331
2656.928	3368
2658.842	3374
2660.755	3293
2662.667	3320
2664.579	3300
2666.491	3307
2668.402	3351
2670.312	3348
2672.222	3391
2674.132	3323
2676.042	3296
2677.951	3262
2679.859	3304
2681.766	3337
2683.674	3331
2685.582	3336
2687.488	3315
2689.392	3284
2691.298	3326
2693.202	3217
2695.107	3277
2697.012	3267
2698.914	3322
2700.817	3329
2702.72	3287
2704.622	3323
2706.524	3373
2708.425	3204
2710.326	3275
2712.225	3274
2714.125	3304
2716.024	3303
2717.923	3296
2719.822	3245
2721.719	3355
2723.616	3300
2725.512	3318
2727.41	3241
2729.305	3216
2731.201	3289
2733.095	3310
2734.99	3298
2736.884	3309
2738.778	3260
2740.67	3282
2742.562	3359
2744.455	3289
2746.346	3258
2748.238	3259
2750.129	3277
2752.018	3278
2753.907	3258
2755.797	3256
2757.687	3281
2759.575	3298
2761.462	3241
2763.349	3188
2765.237	3295
2767.124	3276
2769.009	3254
2770.894	3288
2772.779	3333
2774.663	3249
2776.547	3320
2778.431	3339
2780.314	3267
2782.197	3357
2784.078	3244
2785.96	3226
2787.842	3268
2789.723	3264
2791.603	3228
2793.483	3240
2795.362	3244
2797.241	3260
2799.121	3217
2800.997	3266
2802.874	3269
2804.751	3280
2806.628	3275
2808.506	3214
2810.38	3287
2812.255	3250
2814.13	3268
2816.003	3214
2817.878	3212
2819.752	3254
2821.623	3286
2823.496	3221
2825.368	3225
2827.238	3301
2829.111	3357
2830.98	3257
2832.851	3285
2834.719	3268
2836.589	3304
2838.458	3336
2840.327	3264
2842.193	3260
2844.061	3260
2845.927	3286
2847.794	3212
2849.66	3238
2851.525	3294
2853.39	3304
2855.254	3322
2857.117	3238
2858.983	3307
2860.845	3297
2862.707	3347
2864.569	3376
2866.431	3308
2868.293	3342
2870.154	3397
2872.013	3398
2873.873	3431
2875.733	3483
2877.592	3458
2879.451	3438
2881.309	3525
2883.166	3524
2885.022	3533
2886.879	3661
2888.736	3575
2890.591	3610
2892.446	3533
2894.301	3554
2896.155	3480
2898.009	3568
2899.863	3556
2901.716	3577
2903.568	3477
2905.419	3555
2907.27	3592
2909.123	3546
2910.973	3606
2912.824	3580
2914.673	3547
2916.521	3644
2918.372	3813
2920.22	3750
2922.067	3713
2923.914	3775
2925.761	3846
2927.607	3895
2929.455	3904
2931.301	3873
2933.144	3986
2934.99	3947
2936.833	4027
2938.678	4022
2940.522	4133
2942.364	4098
2944.207	4175
2946.048	4121
2947.891	4129
2949.731	4153
2951.571	4104
2953.412	4046
2955.25	4036
2957.09	4074
2958.93	3940
2960.767	3947
2962.606	3964
2964.443	3845
2966.279	3938
2968.116	3829
2969.953	3782
2971.788	3828
2973.623	3772
2975.457	3714
2977.292	3769
2979.127	3717
2980.959	3698
2982.792	3656
2984.624	3747
2986.455	3692
2988.288	3716
2990.119	3611
2991.949	3649
2993.779	3626
2995.608	3663
2997.439	3501
2999.268	3539
3001.096	3483
3002.923	3625
3004.751	3563
3006.578	3444
3008.406	3414
3010.232	3442
3012.057	3286
3013.883	3347
3015.706	3321
3017.532	3309
3019.356	3370
3021.179	3274
3023.002	3240
3024.823	3236
3026.646	3251
3028.469	3233
3030.289	3291
3032.11	3177
3033.93	3267
3035.749	3335
3037.57	3254
3039.39	3166
3041.207	3171
3043.026	3199
3044.842	3191
3046.661	3226
3048.477	3266
3050.294	3271
3052.109	3100
3053.925	3204
3055.739	3215
3057.555	3225
3059.368	3171
3061.181	3154
3062.995	3242
3064.807	3181
3066.62	3178
3068.433	3161
3070.243	3256
3072.054	3172
3073.865	3205
3075.675	3203
3077.485	3239
3079.293	3106
3081.102	3316
3082.911	3189
3084.719	3157
3086.527	3195
3088.333	3162
3090.139	3262
3091.945	3123
3093.75	3233
3095.557	3135
3097.361	3175
3099.165	3189
3100.969	3227
3102.772	3120
3104.575	3117
3106.379	3134
3108.181	3127
3109.982	3075
3111.783	3251
3113.584	3128
3115.386	3114
3117.186	3176
3118.985	3153
3120.783	3179
3122.582	3145
3124.381	3135
3126.179	3102
3127.975	3155
3129.772	3153
3131.569	3111
3133.365	3099
3135.161	3086
3136.956	3106
3138.751	3223
3140.544	3130
3142.338	3133
3144.132	3191
3145.925	3134
3147.717	3157
3149.509	3146
3151.301	3111
3153.091	3149
3154.884	3065
3156.673	3031
3158.462	3167
3160.252	3125
3162.041	3189
3163.831	3106
3165.618	3113
3167.405	3147
3169.193	3128
3170.979	3095
3172.767	3071
3174.553	3062
3176.338	3130
3178.123	3115
3179.907	3118
3181.692	3127
3183.477	3093
3185.259	3075
3187.042	3119
3188.824	3110
3190.607	3107
3192.389	3067
3194.17	3125
3195.951	3174
3197.73	3065
3199.51	3060
3201.289	3125
3203.07	3144
3204.848	3139
3206.626	3089
3208.403	3089
3210.18	3147
3211.959	3086
3213.735	3084
3215.511	3072
3217.285	3126
3219.06	3134
3220.836	3169
3222.611	3109
3224.384	3123
3226.158	3198
3227.929	3112
3229.702	3178
3231.476	3126
3233.248	3088
3235.018	3074
3236.789	3087
3238.56	3055
3240.33	3077
3242.1	3171
3243.869	3114
3245.637	3174
3247.405	3126
3249.172	3142
3250.941	3016
3252.707	3185
3254.474	3082
3256.24	3084
3258.006	3172
3259.772	3137
3261.537	3134
3263.301	3144
3265.065	3156
3266.828	3142
3268.592	3151
3270.355	3163
3272.117	3151
3273.878	3162
3275.64	3163
3277.401	3179
3279.162	3159
3280.922	3150
3282.682	3200
3284.441	3162
3286.199	3150
3287.959	3208
3289.716	3124
3291.475	3113
3293.232	3188
3294.988	3210
3296.744	3127
3298.501	3187
3300.256	3217
3302.011	3220
3303.766	3181
3305.52	3198
3307.275	3170
3309.028	3159
3310.781	3189
3312.533	3220
3314.285	3184
3316.038	3156
3317.789	3301
3319.54	3115
3321.289	3187
3323.039	3255
3324.789	3155
3326.539	3180
3328.288	3202
3330.035	3194
3331.783	3228
3333.531	3220
3335.28	3171
3337.025	3107
3338.771	3202
3340.518	3229
3342.262	3185
3344.009	3218
3345.753	3169
3347.497	3239
3349.24	3149
3350.983	3167
3352.726	3178
3354.469	3184
3356.212	3146
3357.952	3179
3359.694	3177
3361.434	3220
3363.176	3134
3364.916	3172
3366.654	3144
3368.394	3144
3370.132	3157
3371.871	3199
3373.61	3175
3375.346	3240
3377.083	3133
3378.82	3046
3380.556	3126
3382.292	3089
3384.027	3067
3385.763	3151
3387.497	3059
3389.231	3222
3390.965	3174
3392.698	3165
3394.431	3081
3396.164	3129
3397.896	3166
3399.627	3167
3401.36	3180
3403.09	3062
3404.82	3140
3406.55	3113
3408.279	3128
3410.01	3139
3411.738	3145
3413.467	3083
3415.194	3196
3416.92	3131
3418.647	3140
3420.375	3103
3422.102	3079
3423.827	3128
3425.553	3144
3427.277	3178
3429.003	3130
3430.727	3109
3432.451	3114
3434.173	3101
3435.896	3128
3437.62	3158
3439.343	3148
3441.063	3102
3442.785	3115
3444.505	3003
3446.226	3115
3447.948	3075
3449.666	3089
3451.386	3054
3453.104	3085
3454.823	3113
3456.541	3074
3458.259	3136
3459.976	3037
3461.693	3027
3463.408	3051
3465.125	3157
3466.841	3078
3468.556	3157
3470.271	3050
3471.985	3038
3473.698	3023
3475.414	3060
3477.126	3015
3478.838	3034
3480.55	3015
3482.263	3014
3483.975	3019
3485.686	3027
3487.396	3010
3489.106	2964
3490.817	3043
3492.526	3063
3494.236	2930
3495.944	3031
3497.652	2966
3499.359	3045
3501.066	2981
3502.775	3043
3504.481	3010
3506.187	3010
3507.893	2969
3509.598	3049
3511.304	3006
3513.009	3012
3514.713	2965
3516.417	3032
3518.12	2993
3519.821	2988
3521.525	3040
3523.228	3028
3524.929	3045
3526.631	3075
3528.33	2991
3530.032	3024
3531.733	3032
3533.433	2965
3535.131	2939
3536.83	2930
3538.529	2950
3540.227	2988
3541.925	2907
3543.623	2941
3545.319	2947
3547.016	3007
3548.712	3039
3550.408	2965
3552.103	2954
3553.798	2963
3555.491	2928
3557.188	3003
3558.88	2926
3560.574	2982
3562.266	2985
3563.959	2959
3565.651	2867
3567.343	2998
3569.035	2957
3570.725	2994
3572.415	2958
3574.106	2928
3575.797	2944
3577.485	2979
3579.174	2997
3580.863	2934
3582.551	3012
3584.238	2909
3585.926	2908
3587.613	2884
3589.3	2964
3590.986	2980
3592.671	2902
3594.357	2918
3596.042	2889
3597.726	2946
3599.41	2949
3601.094	2873
3602.778	2866
3604.461	2853
3606.143	2844
3607.825	2857
3609.507	2928
3611.188	2909
3612.87	2861
3614.551	2872
3616.229	2861
3617.909	2873
3619.589	2895
3621.269	2911
3622.948	2842
3624.625	2935
3626.302	2898
3627.98	2858
3629.657	2896
3631.334	2813
3633.01	2858
3634.686	2834
3636.361	2776
3638.036	2862
3639.712	2884
3641.385	2818
3643.06	2895
3644.732	2868
3646.405	2836
3648.08	2927
3649.751	2796
3651.424	2837
3653.094	2745
3654.766	2920
3656.436	2796
3658.106	2822
3659.777	2829
3661.446	2826
3663.115	2771
3664.783	2831
3666.452	2766
3668.121	2768
3669.788	2844
3671.454	2761
3673.121	2897
3674.789	2821
3676.455	2813
3678.12	2773
3679.784	2823
3681.45	2836
3683.114	2802
3684.779	2715
3686.442	2802
3688.105	2829
3689.768	2806
3691.43	2860
3693.093	2825
3694.754	2863
3696.415	2757
3698.076	2820
3699.736	2796
3701.396	2830
3703.057	2787
3704.716	2787
3706.375	2782
3708.034	2827
3709.692	2772
3711.351	2867
3713.008	2846
3714.665	2821
3716.321	2736
3717.977	2866
3719.634	2756
3721.29	2779
3722.945	2842
3724.598	2839
3726.253	2852
3727.907	2805
3729.561	2774
3731.214	2849
3732.867	2776
3734.518	2879
3736.171	2837
3737.824	2802
3739.474	2833
3741.125	2806
3742.775	2775
3744.425	2872
3746.074	2757
3747.725	2931
3749.373	2796
3751.022	2856
3752.669	2794
3754.318	2796
3755.966	2796
3757.612	2801
3759.259	2807
3760.905	2841
3762.55	2747
3764.197	2847
3765.842	2779
3767.486	2782
3769.131	2789
3770.774	2838
3772.417	2836
3774.061	2738
3775.705	2732
3777.347	2771
3778.988	2881
3780.629	2808
3782.271	2741
3783.912	2793
3785.552	2853
3787.192	2810
3788.831	2771
3790.472	2804
3792.112	2729
3793.75	2769
3795.388	2826
3797.024	2778
3798.661	2795
3800.3	2768
3801.936	2760
3803.572	2796
3805.208	2809
3806.844	2778
3808.48	2810
3810.115	2780
3811.748	2763
3813.382	2756
3815.016	2773
3816.649	2788
3818.283	2836
3819.914	2834
3821.547	2787
3823.178	2781
3824.809	2833
3826.441	2763
3828.072	2798
3829.701	2804
3831.331	2858
3832.96	2776
3834.591	2726
3836.219	2766
3837.847	2790
3839.475	2746
3841.102	2793
3842.729	2791
3844.357	2809
3845.984	2766
3847.609	2738
3849.234	2716
3850.86	2732
3852.485	2801
3854.11	2704
3855.734	2801
3857.357	2790
3858.981	2776
3860.603	2787
3862.227	2732
3863.848	2776
3865.471	2803
3867.092	2799
3868.713	2769
3870.334	2777
3871.954	2811
3873.575	2828
3875.194	2702
3876.813	2740
3878.433	2803
3880.051	2796
3881.669	2800
3883.286	2789
3884.904	2816
3886.52	2682
3888.138	2774
3889.754	2751
3891.37	2784
3892.985	2727
3894.6	2730
3896.216	2819
3897.831	2725
3899.444	2805
3901.058	2773
3902.67	2724
3904.283	2748
3905.897	2801
3907.509	2775
3909.121	2842
3910.731	2776
3912.342	2790
3913.954	2776
3915.563	2743
3917.174	2710
3918.783	2687
3920.391	2826
3922.002	2819
3923.611	2769
3925.218	2793
3926.826	2787
3928.432	2733
3930.039	2771
3931.647	2820
3933.253	2887
3934.859	2849
3936.464	2785
3938.068	2822
3939.675	2734
3941.278	2745
3942.883	2761
3944.486	2869
3946.089	2788
3947.692	2746
3949.295	2744
3950.898	2667
3952.499	2782
3954.1	2787
3955.7	2821
3957.303	2735
3958.903	2801
3960.502	2767
3962.101	2778
3963.7	2764
3965.301	2808
3966.899	2812
3968.497	2693
3970.094	2669
3971.691	2812
3973.288	2702
3974.885	2803
3976.481	2717
3978.077	2827
3979.672	2808
3981.267	2795
3982.863	2771
3984.457	2767
3986.051	2757
3987.645	2732
3989.238	2786
3990.831	2722
3992.425	2756
3994.017	2775
3995.607	2738
3997.199	2704
3998.79	2710
4000.382	2744
4001.973	2772
4003.561	2775
4005.151	2719
4006.741	2708
4008.331	2719
4009.918	2804
4011.507	2750
4013.095	2711
4014.681	2726
4016.269	2723
4017.856	2740
4019.443	2735
4021.028	2755
4022.614	2779
4024.199	2717
4025.785	2721
4027.37	2741
4028.953	2712
4030.536	2744
4032.12	2703
4033.704	2703
4035.287	2751
4036.869	2755
4038.45	2713
4040.032	2696
4041.613	2696
4043.195	2647
4044.776	2707
4046.356	2694
4047.935	2698
4049.515	2745
4051.095	2690
4052.674	2748
4054.251	2732
4055.829	2692
4057.406	2652
4058.985	2722
4060.562	2750
4062.139	2743
4063.715	2764
4065.29	2802
4066.865	2718
4068.442	2723
4070.016	2748
4071.59	2737
4073.164	2686
4074.738	2699
4076.312	2736
4077.885	2668
4079.458	2767
4081.03	2715
4082.602	2705
4084.173	2744
4085.745	2718
4087.315	2688
4088.886	2655
4090.456	2715
4092.026	2711
4093.596	2706
4095.165	2690
4096.734	2685
4098.301	2727
4099.869	2707
4101.437	2705
4103.006	2780
4104.572	2723
4106.139	2760
4107.704	2717
4109.27	2760
4110.837	2786
4112.401	2713
4113.966	2697
4115.53	2662
4117.094	2695
4118.659	2690
4120.223	2751
4121.785	2616
4123.347	2757
4124.909	2737
4126.471	2696
4128.034	2673
4129.595	2745
4131.155	2683
4132.716	2688
4134.275	2751
4135.836	2790
4137.395	2762
4138.955	2743
4140.513	2703
4142.071	2719
4143.628	2719
4145.188	2623
4146.745	2706
4148.302	2709
4149.858	2592
4151.414	2746
4152.971	2706
4154.526	2722
4156.081	2685
4157.635	2692
4159.189	2724
4160.745	2642
4162.298	2720
4163.852	2658
4165.405	2644
4166.957	2647
4168.51	2580
4170.063	2647
4171.614	2716
4173.166	2734
4174.717	2709
4176.267	2677
4177.817	2662
4179.368	2597
4180.917	2659
4182.466	2691
4184.016	2712
4185.564	2653
4187.112	2671
4188.66	2682
4190.207	2686
4191.754	2666
4193.301	2705
4194.848	2754
4196.394	2671
4197.94	2664
4199.484	2666
4201.03	2643
4202.575	2699
4204.12	2731
4205.663	2640
4207.207	2680
4208.75	2659
4210.292	2647
4211.836	2647
4213.378	2695
4214.92	2691
4216.46	2651
4218.002	2699
4219.544	2718
4221.083	2645
4222.625	2626
4224.164	2721
4225.703	2683
4227.244	2670
4228.782	2653
4230.32	2689
4231.857	2686
4233.395	2689
4234.933	2749
4236.471	2660
4238.007	2650
4239.542	2665
4241.078	2681
4242.614	2613
4244.15	2698
4245.685	2674
4247.219	2683
4248.753	2646
4250.287	2657
4251.82	2706
4253.354	2703
4254.887	2719
4256.419	2727
4257.951	2674
4259.483	2701
4261.016	2732
4262.547	2722
4264.078	2668
4265.608	2648
4267.137	2680
4268.668	2770
4270.197	2706
4271.727	2747
4273.254	2631
4274.783	2719
4276.311	2683
4277.84	2658
4279.366	2641
4280.894	2781
4282.42	2726
4283.946	2719
4285.473	2698
4286.998	2701
4288.523	2723
4290.047	2680
4291.572	2696
4293.096	2729
4294.622	2648
4296.144	2625
4297.668	2594
4299.19	2640
4300.713	2690
4302.236	2741
4303.758	2703
4305.279	2664
4306.799	2691
4308.321	2724
4309.842	2628
4311.361	2673
4312.882	2714
4314.401	2708
