400.0961	2417
402.6185	2423
405.1424	2441
407.6635	2417
410.1838	2475
412.7035	2465
415.2225	2490
417.7388	2528
420.2585	2565
422.7754	2575
425.2917	2511
427.8072	2574
430.3221	2578
432.8363	2627
435.3498	2699
437.8626	2663
440.3727	2552
442.8841	2613
445.3969	2638
447.907	2527
450.4142	2578
452.9229	2581
455.4289	2613
457.9362	2640
460.4449	2575
462.9488	2618
465.454	2536
467.9566	2598
470.4604	2592
472.9637	2543
475.4662	2602
477.966	2594
480.4671	2623
482.9656	2589
485.4633	2583
487.9645	2577
490.4608	2623
492.9566	2601
495.4536	2588
497.948	2592
500.4437	2661
502.9387	2612
505.431	2633
507.9226	2634
510.4136	2655
512.9079	2605
515.3975	2638
517.8864	2649
520.3746	2627
522.8622	2680
525.3491	2740
527.8394	2581
530.3249	2633
532.8098	2611
535.2939	2625
537.7774	2685
540.2623	2737
542.7444	2653
545.2259	2610
547.7067	2718
550.1868	2674
552.6683	2666
555.147	2638
557.6231	2643
560.1005	2772
562.5773	2749
565.0534	2709
567.5308	2805
570.0056	2718
572.4776	2746
574.951	2741
577.4237	2684
579.8978	2776
582.3671	2726
584.8378	2823
587.3079	2718
589.7773	2826
592.244	2826
594.714	2780
597.1793	2771
599.6461	2802
602.1121	2777
604.5754	2726
607.0421	2767
609.5042	2769
611.9675	2791
614.4282	2731
616.8902	2711
619.3515	2747
621.8122	2786
624.2702	2738
626.7296	2767
629.1863	2706
631.6423	2716
634.1017	2754
636.5563	2689
639.0104	2702
641.4658	2739
643.9185	2756
646.3725	2754
648.8239	2750
651.2766	2821
653.7266	2762
656.176	2758
658.6247	2778
661.0748	2791
663.5242	2802
665.9709	2791
668.417	2826
670.8624	2748
673.3092	2897
675.7533	2847
678.1968	2799
680.6395	2893
683.0817	2755
685.5251	2839
687.9659	2771
690.4061	2818
692.8456	2774
695.2844	2778
697.7226	2879
700.1621	2821
702.599	2861
705.0332	2852
707.4688	2842
709.9036	2824
712.3399	2857
714.7735	2852
717.2044	2902
719.6367	2856
722.0683	2922
724.4993	2889
726.9296	2919
729.3593	2923
731.7883	2969
734.2147	2913
736.6423	2888
739.0714	2921
741.4958	2937
743.9216	3042
746.3447	2941
748.7691	2941
751.1929	2916
753.616	2978
756.0366	3031
758.4584	2993
760.8776	2972
763.2982	2966
765.718	3014
768.1373	3099
770.5539	2963
772.9698	3061
775.3871	3034
777.8038	3064
780.2178	3010
782.6332	3066
785.0459	2995
787.458	2924
789.8714	2981
792.2842	3033
794.6943	3017
797.1038	2964
799.5127	3083
801.9209	2995
804.3324	3080
806.7393	3010
809.1456	2989
811.5513	3076
813.9562	3085
816.3625	3045
818.7663	2986
821.1693	3041
823.5718	3025
825.9735	3140
828.3746	3105
830.7771	3000
833.177	3041
835.5762	3064
837.9747	3008
840.3727	3048
842.772	3039
845.1666	3076
847.5626	3102
849.958	3111
852.3527	3148
854.7488	3225
857.1403	3158
859.5331	3159
861.9253	3181
864.3168	3118
866.7057	3147
869.098	3076
871.4876	3080
873.8746	3112
876.263	3070
878.6487	3134
881.0378	3151
883.4243	3130
885.8081	3094
888.1933	3170
890.5759	3147
892.9598	3106
895.343	3117
897.7256	3093
900.1057	3108
902.4871	3205
904.8659	3141
907.246	3110
909.6254	3116
912.0023	3187
914.3786	3182
916.7562	3209
919.1331	3184
921.5074	3268
923.8831	3290
926.2562	3314
928.6287	3296
931.0005	3285
933.3757	3288
935.7462	3308
938.1162	3361
940.4855	3332
942.8542	3322
945.2242	3480
947.5916	3517
949.9584	3555
952.3266	3690
954.6921	3783
957.0571	3924
959.4233	4155
961.787	4195
964.15	4156
966.5125	4081
968.8742	3917
971.2354	3709
973.5959	3532
975.9559	3450
978.3151	3349
980.6738	3309
983.0338	3347
985.3912	3297
987.7461	3302
990.1022	3300
992.4578	3246
994.8127	3163
997.1689	3274
999.5207	3236
1001.874	3258
1004.226	3318
1006.576	3232
1008.929	3324
1011.28	3255
1013.628	3279
1015.977	3242
1018.324	3238
1020.674	3274
1023.019	3359
1025.366	3364
1027.713	3352
1030.056	3305
1032.399	3295
1034.746	3356
1037.087	3305
1039.431	3322
1041.771	3344
1044.113	3325
1046.454	3349
1048.793	3322
1051.133	3352
1053.471	3406
1055.807	3346
1058.146	3368
1060.483	3422
1062.818	3396
1065.153	3348
1067.489	3378
1069.822	3437
1072.156	3432
1074.488	3389
1076.82	3451
1079.15	3408
1081.48	3420
1083.814	3349
1086.143	3465
1088.471	3394
1090.799	3330
1093.126	3339
1095.452	3317
1097.78	3368
1100.105	3407
1102.43	3403
1104.754	3331
1107.077	3381
1109.4	3347
1111.722	3369
1114.044	3319
1116.365	3404
1118.685	3431
1121.005	3346
1123.324	3322
1125.643	3434
1127.961	3435
1130.278	3331
1132.595	3342
1134.911	3331
1137.226	3290
1139.541	3429
1141.854	3304
1144.167	3417
1146.482	3417
1148.793	3348
1151.105	3315
1153.414	3286
1155.725	3399
1158.033	3409
1160.344	3426
1162.651	3432
1164.959	3350
1167.265	3378
1169.572	3395
1171.878	3415
1174.184	3314
1176.488	3438
1178.79	3344
1181.094	3362
1183.396	3387
1185.699	3430
1188.001	3387
1190.301	3402
1192.6	3443
1194.9	3324
1197.2	3393
1199.497	3416
1201.794	3416
1204.09	3403
1206.387	3449
1208.684	3442
1210.978	3406
1213.272	3416
1215.565	3386
1217.858	3455
1220.15	3424
1222.443	3461
1224.734	3438
1227.024	3458
1229.313	3405
1231.602	3542
1233.892	3507
1236.18	3507
1238.467	3521
1240.754	3579
1243.04	3551
1245.325	3544
1247.612	3449
1249.896	3573
1252.178	3585
1254.461	3593
1256.743	3579
1259.027	3592
1261.308	3533
1263.587	3629
1265.867	3586
1268.146	3569
1270.425	3526
1272.703	3597
1274.981	3555
1277.256	3603
1279.532	3593
1281.808	3533
1284.083	3530
1286.358	3494
1288.63	3562
1290.904	3493
1293.175	3488
1295.449	3504
1297.719	3482
1299.99	3420
1302.259	3499
1304.529	3458
1306.798	3568
1309.065	3539
1311.333	3594
1313.599	3496
1315.866	3522
1318.131	3533
1320.396	3482
1322.66	3543
1324.925	3510
1327.187	3458
1329.448	3540
1331.711	3542
1333.974	3541
1336.234	3487
1338.493	3521
1340.752	3522
1343.01	3453
1345.269	3533
1347.526	3563
1349.784	3544
1352.04	3545
1354.295	3494
1356.552	3520
1358.806	3504
1361.059	3477
1363.312	3511
1365.564	3565
1367.818	3630
1370.069	3629
1372.318	3628
1374.568	3537
1376.817	3593
1379.066	3579
1381.316	3627
1383.564	3633
1385.809	3596
1388.056	3463
1390.301	3642
1392.549	3570
1394.793	3656
1397.036	3644
1399.279	3540
1401.522	3707
1403.763	3669
1406.007	3635
1408.248	3635
1410.487	3668
1412.727	3597
1414.965	3689
1417.205	3703
1419.442	3595
1421.68	3591
1423.915	3676
1426.152	3590
1428.388	3704
1430.623	3531
1432.857	3706
1435.091	3644
1437.323	3668
1439.556	3737
1441.789	3713
1444.019	3754
1446.25	3689
1448.48	3732
1450.708	3775
1452.938	3741
1455.167	3718
1457.394	3767
1459.62	3780
1461.846	3790
1464.073	3708
1466.299	3706
1468.523	3695
1470.746	3678
1472.969	3667
1475.191	3672
1477.415	3647
1479.636	3617
1481.858	3564
1484.078	3629
1486.298	3700
1488.518	3545
1490.736	3639
1492.954	3658
1495.169	3635
1497.386	3629
1499.602	3603
1501.819	3600
1504.034	3637
1506.248	3580
1508.462	3551
1510.675	3574
1512.888	3607
1515.1	3637
1517.311	3538
1519.522	3566
1521.732	3544
1523.942	3516
1526.151	3617
1528.36	3538
1530.566	3561
1532.773	3562
1534.98	3595
1537.187	3644
1539.392	3575
1541.596	3625
1543.801	3560
1546.005	3570
1548.208	3598
1550.411	3590
1552.612	3643
1554.814	3652
1557.013	3598
1559.212	3640
1561.414	3648
1563.612	3664
1565.811	3637
1568.007	3632
1570.203	3721
1572.403	3715
1574.598	3698
1576.792	3691
1578.988	3664
1581.181	3691
1583.376	3682
1585.568	3685
1587.761	3708
1589.952	3675
1592.143	3609
1594.333	3700
1596.524	3682
1598.715	3713
1600.903	3755
1603.091	3671
1605.278	3630
1607.466	3720
1609.652	3711
1611.838	3724
1614.023	3714
1616.207	3752
1618.391	3706
1620.576	3676
1622.759	3732
1624.941	3672
1627.123	3736
1629.304	3769
1631.484	3714
1633.664	3677
1635.844	3765
1638.022	3749
1640.201	3765
1642.38	3804
1644.556	3722
1646.732	3703
1648.908	3742
1651.084	3830
1653.257	3699
1655.433	3796
1657.607	3885
1659.779	3768
1661.951	3840
1664.122	3773
1666.295	3797
1668.467	3797
1670.635	3817
1672.805	3790
1674.973	3866
1677.142	3766
1679.31	3801
1681.478	3815
1683.644	3840
1685.81	3765
1687.975	3839
1690.142	3839
1692.305	3771
1694.468	3778
1696.632	3696
1698.794	3726
1700.957	3753
1703.119	3684
1705.279	3688
1707.439	3775
1709.598	3718
1711.758	3644
1713.917	3722
1716.075	3677
1718.231	3674
1720.388	3699
1722.543	3747
1724.702	3611
1726.856	3677
1729.01	3667
1731.164	3647
1733.317	3709
1735.471	3685
1737.623	3646
1739.774	3679
1741.925	3653
1744.075	3750
1746.225	3777
1748.376	3696
1750.524	3708
1752.672	3640
1754.82	3712
1756.965	3680
1759.113	3714
1761.259	3764
1763.405	3723
1765.549	3714
1767.694	3699
1769.836	3717
1771.981	3692
1774.123	3746
1776.264	3765
1778.405	3699
1780.546	3718
1782.687	3744
1784.827	3840
1786.966	3739
1789.103	3683
1791.242	3698
1793.381	3740
1795.517	3756
1797.653	3767
1799.788	3625
1801.923	3762
1804.057	3789
1806.193	3716
1808.326	3674
1810.457	3732
1812.59	3757
1814.721	3678
1816.855	3686
1818.984	3791
1821.113	3750
1823.244	3718
1825.372	3697
1827.499	3798
1829.63	3695
1831.756	3748
1833.882	3738
1836.007	3740
1838.132	3616
1840.26	3713
1842.384	3717
1844.507	3665
1846.63	3725
1848.752	3768
1850.875	3707
1852.996	3690
1855.118	3808
1857.238	3677
1859.358	3697
1861.477	3691
1863.597	3735
1865.715	3722
1867.832	3765
1869.948	3719
1872.064	3715
1874.181	3722
1876.297	3672
1878.411	3699
1880.526	3676
1882.639	3704
1884.752	3677
1886.865	3743
1888.977	3740
1891.089	3766
1893.2	3716
1895.308	3708
1897.42	3749
1899.53	3660
1901.639	3743
1903.745	3746
1905.853	3743
1907.962	3795
1910.067	3768
1912.174	3741
1914.278	3789
1916.383	3742
1918.486	3803
1920.592	3710
1922.694	3710
1924.797	3749
1926.898	3725
1929	3803
1931.102	3745
1933.203	3833
1935.301	3851
1937.401	3801
1939.499	3808
1941.598	3803
1943.697	3804
1945.793	3769
1947.888	3763
1949.985	3872
1952.08	3843
1954.176	3763
1956.269	3830
1958.364	3697
1960.457	3742
1962.549	3764
1964.642	3794
1966.733	3697
1968.823	3729
1970.913	3774
1973.005	3674
1975.093	3734
1977.184	3775
1979.271	3702
1981.359	3661
1983.446	3744
1985.532	3728
1987.619	3721
1989.705	3674
1991.789	3742
1993.874	3745
1995.956	3701
1998.041	3715
2000.123	3714
2002.206	3696
2004.287	3768
2006.368	3676
2008.449	3705
2010.529	3691
2012.609	3736
2014.688	3681
2016.766	3676
2018.843	3799
2020.922	3716
2022.999	3706
2025.074	3693
2027.15	3830
2029.225	3690
2031.299	3693
2033.375	3699
2035.447	3734
2037.52	3699
2039.592	3742
2041.664	3734
2043.736	3758
2045.807	3732
2047.876	3745
2049.947	3780
2052.015	3670
2054.086	3732
2056.153	3710
2058.221	3706
2060.288	3753
2062.353	3770
2064.42	3708
2066.486	3705
2068.55	3618
2070.614	3742
2072.678	3773
2074.741	3766
2076.805	3670
2078.866	3698
2080.929	3702
2082.99	3731
2085.049	3718
2087.109	3805
2089.17	3733
2091.228	3808
2093.286	3716
2095.344	3709
2097.4	3754
2099.46	3684
2101.516	3706
2103.572	3711
2105.626	3744
2107.679	3702
2109.735	3746
2111.788	3737
2113.841	3709
2115.894	3737
2117.945	3699
2119.997	3734
2122.049	3758
2124.1	3770
2126.148	3774
2128.197	3778
2130.246	3713
2132.296	3731
2134.342	3738
2136.39	3599
2138.437	3755
2140.483	3788
2142.527	3672
2144.574	3776
2146.619	3684
2148.661	3786
2150.705	3673
2152.747	3743
2154.792	3717
2156.832	3726
2158.874	3741
2160.915	3625
2162.954	3720
2164.995	3689
2167.034	3768
2169.072	3683
2171.111	3705
2173.148	3694
2175.186	3714
2177.223	3713
2179.258	3716
2181.294	3765
2183.328	3674
2185.362	3628
2187.398	3713
2189.431	3688
2191.463	3664
2193.495	3686
2195.528	3641
2197.56	3699
2199.59	3628
2201.62	3619
2203.649	3659
2205.678	3662
2207.708	3628
2209.737	3710
2211.764	3561
2213.791	3689
2215.817	3690
2217.843	3573
2219.87	3725
2221.895	3631
2223.919	3681
2225.942	3649
2227.966	3642
2229.988	3606
2232.012	3634
2234.032	3675
2236.054	3680
2238.074	3680
2240.095	3644
2242.116	3682
2244.135	3609
2246.153	3601
2248.171	3587
2250.188	3709
2252.208	3583
2254.223	3630
2256.239	3738
2258.255	3638
2260.269	3677
2262.283	3669
2264.3	3660
2266.312	3605
2268.325	3693
2270.336	3592
2272.349	3708
2274.362	3584
2276.372	3650
2278.383	3668
2280.392	3684
2282.402	3654
2284.409	3577
2286.418	3647
2288.427	3582
2290.433	3707
2292.441	3661
2294.446	3645
2296.453	3649
2298.459	3709
2300.463	3637
2302.466	3668
2304.471	3587
2306.475	3637
2308.477	3579
2310.478	3591
2312.481	3704
2314.481	3611
2316.481	3600
2318.482	3613
2320.482	3621
2322.48	3578
2324.48	3654
2326.478	3609
2328.476	3653
2330.473	3629
2332.469	3604
2334.465	3641
2336.46	3575
2338.454	3586
2340.45	3588
2342.444	3668
2344.437	3574
2346.43	3687
2348.421	3580
2350.414	3579
2352.405	3595
2354.396	3538
2356.386	3661
2358.376	3602
2360.366	3594
2362.355	3611
2364.343	3590
2366.331	3564
2368.317	3627
2370.304	3562
2372.292	3615
2374.278	3541
2376.262	3613
2378.247	3660
2380.23	3523
2382.216	3580
2384.199	3576
2386.181	3546
2388.163	3587
2390.144	3535
2392.127	3475
2394.107	3600
2396.087	3529
2398.066	3554
2400.046	3570
2402.023	3621
2404.004	3424
2405.981	3511
2407.957	3546
2409.934	3522
2411.91	3520
2413.886	3576
2415.862	3512
2417.836	3403
2419.809	3594
2421.784	3402
2423.756	3538
2425.73	3594
2427.701	3494
2429.672	3616
2431.644	3541
2433.615	3495
2435.586	3510
2437.555	3599
2439.523	3528
2441.491	3525
2443.459	3552
2445.428	3525
2447.395	3485
2449.361	3463
2451.327	3556
2453.292	3499
2455.257	3525
2457.223	3510
2459.187	3568
2461.15	3528
2463.113	3490
2465.076	3488
2467.039	3594
2468.999	3442
2470.96	3501
2472.921	3553
2474.881	3498
2476.841	3515
2478.8	3504
2480.759	3494
2482.717	3518
2484.675	3570
2486.63	3558
2488.589	3479
2490.545	3483
2492.5	3501
2494.455	3461
2496.408	3456
2498.364	3467
2500.318	3539
2502.27	3557
2504.223	3471
2506.174	3515
2508.126	3494
2510.078	3538
2512.03	3439
2513.979	3408
2515.927	3536
2517.877	3486
2519.826	3438
2521.775	3426
2523.722	3500
2525.668	3420
2527.616	3492
2529.561	3441
2531.508	3440
2533.452	3439
2535.398	3441
2537.342	3456
2539.284	3434
2541.229	3523
2543.173	3520
2545.114	3514
2547.055	3429
2548.996	3483
2550.938	3470
2552.878	3400
2554.817	3519
2556.756	3480
2558.695	3522
2560.633	3450
2562.572	3390
2564.509	3448
2566.445	3482
2568.382	3489
2570.317	3420
2572.254	3527
2574.189	3486
2576.123	3508
2578.057	3463
2579.99	3486
2581.923	3424
2583.855	3459
2585.788	3520
2587.719	3503
2589.65	3470
2591.579	3469
2593.511	3468
2595.44	3515
2597.37	3492
2599.297	3469
2601.225	3532
2603.153	3488
2605.08	3491
2607.007	3488
2608.932	3451
2610.858	3500
2612.782	3552
2614.709	3592
2616.632	3501
2618.556	3557
2620.478	3409
2622.401	3468
2624.324	3463
2626.247	3450
2628.167	3494
2630.088	3530
2632.008	3479
2633.928	3546
2635.848	3536
2637.766	3541
2639.684	3500
2641.603	3526
2643.519	3457
2645.437	3501
2647.353	3532
2649.27	3486
2651.184	3499
2653.099	3558
2655.014	3535
2656.928	3455
2658.842	3516
2660.755	3482
2662.667	3585
2664.579	3535
2666.491	3447
2668.402	3472
2670.312	3507
2672.222	3492
2674.132	3479
2676.042	3470
2677.951	3480
2679.859	3597
2681.766	3461
2683.674	3472
2685.582	3522
2687.488	3568
2689.392	3434
2691.298	3430
2693.202	3484
2695.107	3403
2697.012	3405
2698.914	3451
2700.817	3463
2702.72	3459
2704.622	3468
2706.524	3502
2708.425	3442
2710.326	3481
2712.225	3462
2714.125	3399
2716.024	3453
2717.923	3407
2719.822	3369
2721.719	3516
2723.616	3434
2725.512	3489
2727.41	3492
2729.305	3417
2731.201	3427
2733.095	3454
2734.99	3457
2736.884	3453
2738.778	3456
2740.67	3416
2742.562	3389
2744.455	3475
2746.346	3455
2748.238	3448
2750.129	3445
2752.018	3406
2753.907	3391
2755.797	3470
2757.687	3411
2759.575	3483
2761.462	3402
2763.349	3421
2765.237	3428
2767.124	3519
2769.009	3483
2770.894	3427
2772.779	3399
2774.663	3416
2776.547	3436
2778.431	3366
2780.314	3436
2782.197	3458
2784.078	3397
2785.96	3386
2787.842	3416
2789.723	3398
2791.603	3410
2793.483	3441
2795.362	3397
2797.241	3494
2799.121	3439
2800.997	3490
2802.874	3440
2804.751	3459
2806.628	3388
2808.506	3471
2810.38	3443
2812.255	3352
2814.13	3475
2816.003	3398
2817.878	3443
2819.752	3441
2821.623	3444
2823.496	3443
2825.368	3455
2827.238	3425
2829.111	3452
2830.98	3405
2832.851	3421
2834.719	3413
2836.589	3408
2838.458	3510
2840.327	3400
2842.193	3498
2844.061	3444
2845.927	3457
2847.794	3429
2849.66	3442
2851.525	3519
2853.39	3415
2855.254	3447
2857.117	3487
2858.983	3486
2860.845	3486
2862.707	3480
2864.569	3536
2866.431	3590
2868.293	3550
2870.154	3663
2872.013	3570
2873.873	3617
2875.733	3597
2877.592	3584
2879.451	3698
2881.309	3568
2883.166	3747
2885.022	3719
2886.879	3771
2888.736	3721
2890.591	3790
2892.446	3739
2894.301	3729
2896.155	3660
2898.009	3719
2899.863	3677
2901.716	3681
2903.568	3662
2905.419	3717
2907.27	3687
2909.123	3766
2910.973	3701
2912.824	3774
2914.673	3665
2916.521	3862
2918.372	3795
2920.22	3845
2922.067	3920
2923.914	3906
2925.761	3966
2927.607	3913
2929.455	3882
2931.301	3993
2933.144	4032
2934.99	4014
2936.833	4047
2938.678	4014
2940.522	4155
2942.364	4218
2944.207	4154
2946.048	4157
2947.891	4212
2949.731	4269
2951.571	4177
2953.412	4224
2955.25	4200
2957.09	4097
2958.93	4075
2960.767	4111
2962.606	4041
2964.443	3962
2966.279	3961
2968.116	4008
2969.953	3861
2971.788	3939
2973.623	3897
2975.457	3843
2977.292	3775
2979.127	3751
2980.959	3790
2982.792	3746
2984.624	3781
2986.455	3736
2988.288	3786
2990.119	3643
2991.949	3689
2993.779	3710
2995.608	3672
2997.439	3657
2999.268	3611
3001.096	3474
3002.923	3611
3004.751	3524
3006.578	3469
3008.406	3514
3010.232	3496
3012.057	3475
3013.883	3402
3015.706	3317
3017.532	3364
3019.356	3450
3021.179	3406
3023.002	3479
3024.823	3340
3026.646	3396
3028.469	3294
3030.289	3266
3032.11	3306
3033.93	3300
3035.749	3348
3037.57	3286
3039.39	3270
3041.207	3277
3043.026	3355
3044.842	3256
3046.661	3267
3048.477	3266
3050.294	3276
3052.109	3221
3053.925	3306
3055.739	3251
3057.555	3277
3059.368	3343
3061.181	3287
3062.995	3216
3064.807	3304
3066.62	3256
3068.433	3302
3070.243	3285
3072.054	3318
3073.865	3261
3075.675	3198
3077.485	3259
3079.293	3213
3081.102	3222
3082.911	3249
3084.719	3209
3086.527	3172
3088.333	3212
3090.139	3244
3091.945	3197
3093.75	3227
3095.557	3164
3097.361	3212
3099.165	3100
3100.969	3092
3102.772	3186
3104.575	3209
3106.379	3204
3108.181	3133
3109.982	3162
3111.783	3155
3113.584	3204
3115.386	3116
3117.186	3087
3118.985	3165
3120.783	3132
3122.582	3145
3124.381	3111
3126.179	3135
3127.975	3166
3129.772	3249
3131.569	3154
3133.365	3093
3135.161	3064
3136.956	3037
3138.751	3138
3140.544	3086
3142.338	3145
3144.132	3133
3145.925	3126
3147.717	2980
3149.509	3128
3151.301	3110
3153.091	3114
3154.884	3089
3156.673	3086
3158.462	3007
3160.252	3070
3162.041	3157
3163.831	3078
3165.618	3087
3167.405	3070
3169.193	3077
3170.979	3092
3172.767	3078
3174.553	3068
3176.338	3070
3178.123	3118
3179.907	3078
3181.692	3103
3183.477	3101
3185.259	3062
3187.042	2977
3188.824	3012
3190.607	3055
3192.389	3064
3194.17	2983
3195.951	3046
3197.73	3086
3199.51	3082
3201.289	3072
3203.07	3061
3204.848	2988
3206.626	3122
3208.403	3064
3210.18	3099
3211.959	3057
3213.735	3027
3215.511	3091
3217.285	3107
3219.06	3077
3220.836	3125
3222.611	3060
3224.384	3065
3226.158	3073
3227.929	3092
3229.702	2945
3231.476	3089
3233.248	3010
3235.018	3101
3236.789	3117
3238.56	3133
3240.33	3046
3242.1	3141
3243.869	3107
3245.637	3020
3247.405	3011
3249.172	3036
3250.941	2993
3252.707	3094
3254.474	3100
3256.24	3001
3258.006	3050
3259.772	3037
3261.537	3057
3263.301	2984
3265.065	3143
3266.828	2953
3268.592	3102
3270.355	3042
3272.117	3115
3273.878	3054
3275.64	3028
3277.401	3067
3279.162	3074
3280.922	3048
3282.682	2966
3284.441	3002
3286.199	3024
3287.959	3010
3289.716	3099
3291.475	3063
3293.232	3065
3294.988	3054
3296.744	3045
3298.501	3064
3300.256	3050
3302.011	3115
3303.766	3076
3305.52	3041
3307.275	2982
3309.028	3095
3310.781	3007
3312.533	3078
3314.285	3043
3316.038	3109
3317.789	3063
3319.54	3015
3321.289	3124
3323.039	3101
3324.789	3118
3326.539	3116
3328.288	2939
3330.035	3087
3331.783	3036
3333.531	3095
3335.28	3134
3337.025	3035
3338.771	3045
3340.518	2973
3342.262	3006
3344.009	3003
3345.753	3094
3347.497	2989
3349.24	2944
3350.983	2993
3352.726	2972
3354.469	3014
3356.212	3005
3357.952	2998
3359.694	2998
3361.434	2968
3363.176	3040
3364.916	3038
3366.654	3000
3368.394	3041
3370.132	3028
3371.871	3008
3373.61	2889
3375.346	2995
3377.083	2904
3378.82	2888
3380.556	2971
3382.292	2956
3384.027	3011
3385.763	2916
3387.497	2914
3389.231	2994
3390.965	2984
3392.698	2896
3394.431	2893
3396.164	2973
3397.896	3010
3399.627	2942
3401.36	2941
3403.09	2928
3404.82	2885
3406.55	3021
3408.279	2882
3410.01	2893
3411.738	2918
3413.467	2896
3415.194	2939
3416.92	2898
3418.647	2946
3420.375	2868
3422.102	2914
3423.827	2912
3425.553	2893
3427.277	2869
3429.003	2967
3430.727	2933
3432.451	2807
3434.173	2960
3435.896	2974
3437.62	2883
3439.343	2900
3441.063	2861
3442.785	2809
3444.505	2852
3446.226	2866
3447.948	2843
3449.666	2902
3451.386	2823
3453.104	2839
3454.823	2920
3456.541	2866
3458.259	2881
3459.976	2812
3461.693	2915
3463.408	2859
3465.125	2823
3466.841	2809
3468.556	2841
3470.271	2798
3471.985	2822
3473.698	2821
3475.414	2808
3477.126	2778
3478.838	2717
3480.55	2825
3482.263	2767
3483.975	2831
3485.686	2793
3487.396	2713
3489.106	2871
3490.817	2807
3492.526	2784
3494.236	2740
3495.944	2768
3497.652	2771
3499.359	2751
3501.066	2713
3502.775	2773
3504.481	2800
3506.187	2772
3507.893	2736
3509.598	2734
3511.304	2779
3513.009	2677
3514.713	2718
3516.417	2713
3518.12	2738
3519.821	2738
3521.525	2691
3523.228	2713
3524.929	2740
3526.631	2695
3528.33	2694
3530.032	2768
3531.733	2679
3533.433	2658
3535.131	2595
3536.83	2673
3538.529	2678
3540.227	2699
3541.925	2723
3543.623	2683
3545.319	2674
3547.016	2665
3548.712	2693
3550.408	2693
3552.103	2649
3553.798	2671
3555.491	2665
3557.188	2642
3558.88	2719
3560.574	2666
3562.266	2636
3563.959	2686
3565.651	2626
3567.343	2650
3569.035	2688
3570.725	2684
3572.415	2627
3574.106	2609
3575.797	2607
3577.485	2703
3579.174	2634
3580.863	2632
3582.551	2659
3584.238	2569
3585.926	2607
3587.613	2591
3589.3	2613
3590.986	2613
3592.671	2611
3594.357	2654
3596.042	2492
3597.726	2522
3599.41	2570
3601.094	2577
3602.778	2590
3604.461	2594
3606.143	2595
3607.825	2518
3609.507	2553
3611.188	2514
3612.87	2556
3614.551	2529
3616.229	2511
3617.909	2500
3619.589	2600
3621.269	2593
3622.948	2483
3624.625	2537
3626.302	2517
3627.98	2497
3629.657	2523
3631.334	2489
3633.01	2512
3634.686	2537
3636.361	2485
3638.036	2506
3639.712	2445
3641.385	2487
3643.06	2505
3644.732	2567
3646.405	2489
3648.08	2500
3649.751	2520
3651.424	2504
3653.094	2463
3654.766	2409
3656.436	2438
3658.106	2476
3659.777	2452
3661.446	2501
3663.115	2482
3664.783	2427
3666.452	2434
3668.121	2386
3669.788	2417
3671.454	2481
3673.121	2466
3674.789	2452
3676.455	2440
3678.12	2442
3679.784	2473
3681.45	2462
3683.114	2402
3684.779	2408
3686.442	2459
3688.105	2400
3689.768	2368
3691.43	2486
3693.093	2423
3694.754	2406
3696.415	2363
3698.076	2444
3699.736	2496
3701.396	2412
3703.057	2420
3704.716	2370
3706.375	2343
3708.034	2424
3709.692	2372
3711.351	2388
3713.008	2407
3714.665	2434
3716.321	2366
3717.977	2381
3719.634	2416
3721.29	2377
3722.945	2369
3724.598	2416
3726.253	2354
3727.907	2355
3729.561	2397
3731.214	2373
3732.867	2369
3734.518	2353
3736.171	2405
3737.824	2345
3739.474	2369
3741.125	2324
3742.775	2399
3744.425	2309
3746.074	2330
3747.725	2381
3749.373	2289
3751.022	2371
3752.669	2351
3754.318	2377
3755.966	2368
3757.612	2383
3759.259	2387
3760.905	2367
3762.55	2355
3764.197	2383
3765.842	2326
3767.486	2361
3769.131	2367
3770.774	2342
3772.417	2293
3774.061	2279
3775.705	2328
3777.347	2302
3778.988	2328
3780.629	2320
3782.271	2369
3783.912	2288
3785.552	2265
3787.192	2344
3788.831	2230
3790.472	2324
3792.112	2375
3793.75	2243
3795.388	2286
3797.024	2290
3798.661	2287
3800.3	2264
3801.936	2316
3803.572	2299
3805.208	2334
3806.844	2307
3808.48	2285
3810.115	2221
3811.748	2324
3813.382	2314
3815.016	2284
3816.649	2240
3818.283	2251
3819.914	2272
3821.547	2308
3823.178	2253
3824.809	2273
3826.441	2255
3828.072	2303
3829.701	2212
3831.331	2229
3832.96	2251
3834.591	2232
3836.219	2198
3837.847	2298
3839.475	2258
3841.102	2260
3842.729	2254
3844.357	2286
3845.984	2226
3847.609	2240
3849.234	2223
3850.86	2261
3852.485	2249
3854.11	2218
3855.734	2260
3857.357	2192
3858.981	2185
3860.603	2249
3862.227	2270
3863.848	2180
3865.471	2185
3867.092	2240
3868.713	2177
3870.334	2170
3871.954	2233
3873.575	2246
3875.194	2187
3876.813	2201
3878.433	2194
3880.051	2272
3881.669	2169
3883.286	2181
3884.904	2130
3886.52	2221
3888.138	2203
3889.754	2209
3891.37	2210
3892.985	2246
3894.6	2196
3896.216	2137
3897.831	2202
3899.444	2235
3901.058	2261
3902.67	2150
3904.283	2218
3905.897	2162
3907.509	2205
3909.121	2163
3910.731	2195
3912.342	2141
3913.954	2187
3915.563	2213
3917.174	2218
3918.783	2181
3920.391	2136
3922.002	2219
3923.611	2161
3925.218	2138
3926.826	2176
3928.432	2185
3930.039	2160
3931.647	2138
3933.253	2195
3934.859	2161
3936.464	2141
3938.068	2133
3939.675	2158
3941.278	2164
3942.883	2158
3944.486	2111
3946.089	2125
3947.692	2162
3949.295	2174
3950.898	2148
3952.499	2131
3954.1	2166
3955.7	2164
3957.303	2182
3958.903	2104
3960.502	2196
3962.101	2114
3963.7	2142
3965.301	2090
3966.899	2139
3968.497	2121
3970.094	2102
3971.691	2155
3973.288	2159
3974.885	2088
3976.481	2179
3978.077	2123
3979.672	2076
3981.267	2113
3982.863	2116
3984.457	2108
3986.051	2099
3987.645	2109
3989.238	2061
3990.831	2121
3992.425	1983
3994.017	2096
3995.607	2072
3997.199	2020
3998.79	2079
4000.382	2074
4001.973	2068
4003.561	2138
4005.151	2049
4006.741	2062
4008.331	2078
4009.918	2076
4011.507	2055
4013.095	2015
4014.681	2093
4016.269	2060
4017.856	2079
4019.443	2064
4021.028	2026
4022.614	2036
4024.199	2141
4025.785	2024
4027.37	2041
4028.953	2109
4030.536	2022
4032.12	2070
4033.704	2057
4035.287	2075
4036.869	2060
4038.45	2022
4040.032	2056
4041.613	2049
4043.195	1996
4044.776	2009
4046.356	1990
4047.935	2012
4049.515	1998
4051.095	2099
4052.674	2040
4054.251	1996
4055.829	2028
4057.406	2037
4058.985	1960
4060.562	2036
4062.139	1955
4063.715	1960
4065.29	1996
4066.865	2036
4068.442	1982
4070.016	2022
4071.59	2009
4073.164	2012
4074.738	1946
4076.312	1997
4077.885	1946
4079.458	1930
4081.03	1981
4082.602	1975
4084.173	1986
4085.745	1965
4087.315	2021
4088.886	1922
4090.456	1961
4092.026	1976
4093.596	1969
4095.165	1926
4096.734	1945
4098.301	1920
4099.869	1966
4101.437	1958
4103.006	1915
4104.572	1916
4106.139	1993
4107.704	2025
4109.27	1953
4110.837	1962
4112.401	1979
4113.966	1954
4115.53	1909
4117.094	1957
4118.659	1987
4120.223	1887
4121.785	1902
4123.347	1931
4124.909	1881
4126.471	1936
4128.034	1920
4129.595	1911
4131.155	1925
4132.716	1941
4134.275	1953
4135.836	1891
4137.395	1942
4138.955	1924
4140.513	1959
4142.071	1883
4143.628	1922
4145.188	1865
4146.745	1915
4148.302	1912
4149.858	1893
4151.414	1882
4152.971	1930
4154.526	1872
4156.081	1906
4157.635	1879
4159.189	1925
4160.745	1875
4162.298	1816
4163.852	1839
4165.405	1865
4166.957	1915
4168.51	1901
4170.063	1811
4171.614	1884
4173.166	1909
4174.717	1845
4176.267	1869
4177.817	1855
4179.368	1896
4180.917	1832
4182.466	1898
4184.016	1845
4185.564	1885
4187.112	1876
4188.66	1803
4190.207	1889
4191.754	1805
4193.301	1817
4194.848	1860
4196.394	1861
4197.94	1867
4199.484	1866
4201.03	1853
4202.575	1884
4204.12	1834
4205.663	1851
4207.207	1870
4208.75	1833
4210.292	1763
4211.836	1849
4213.378	1832
4214.92	1829
4216.46	1836
4218.002	1759
4219.544	1831
4221.083	1811
4222.625	1795
4224.164	1828
4225.703	1831
4227.244	1791
4228.782	1797
4230.32	1815
4231.857	1843
4233.395	1838
4234.933	1807
4236.471	1848
4238.007	1815
4239.542	1819
4241.078	1806
4242.614	1818
4244.15	1822
4245.685	1790
4247.219	1772
4248.753	1783
4250.287	1802
4251.82	1748
4253.354	1774
4254.887	1855
4256.419	1762
4257.951	1824
4259.483	1728
4261.016	1789
4262.547	1751
4264.078	1779
4265.608	1827
4267.137	1797
4268.668	1761
4270.197	1824
4271.727	1811
4273.254	1816
4274.783	1790
4276.311	1744
4277.84	1772
4279.366	1730
4280.894	1797
4282.42	1763
4283.946	1806
4285.473	1755
4286.998	1774
4288.523	1775
4290.047	1784
4291.572	1728
4293.096	1716
4294.622	1767
4296.144	1775
4297.668	1765
4299.19	1792
4300.713	1815
4302.236	1722
4303.758	1763
4305.279	1760
4306.799	1789
4308.321	1706
4309.842	1766
4311.361	1673
4312.882	1721
4314.401	1727
