400.0961	3433
402.6185	3478
405.1424	3540
407.6635	3490
410.1838	3521
412.7035	3567
415.2225	3502
417.7388	3521
420.2585	3566
422.7754	3637
425.2917	3706
427.8072	3659
430.3221	3732
432.8363	3747
435.3498	3706
437.8626	3717
440.3727	3689
442.8841	3731
445.3969	3670
447.907	3726
450.4142	3788
452.9229	3651
455.4289	3720
457.9362	3776
460.4449	3681
462.9488	3732
465.454	3739
467.9566	3669
470.4604	3721
472.9637	3722
475.4662	3700
477.966	3677
480.4671	3659
482.9656	3751
485.4633	3789
487.9645	3783
490.4608	3722
492.9566	3659
495.4536	3710
497.948	3682
500.4437	3815
502.9387	3765
505.431	3755
507.9226	3812
510.4136	3810
512.9079	3796
515.3975	3748
517.8864	3813
520.3746	3789
522.8622	3835
525.3491	3797
527.8394	3817
530.3249	3840
532.8098	3852
535.2939	3861
537.7774	3832
540.2623	3914
542.7444	3768
545.2259	3823
547.7067	3876
550.1868	3894
552.6683	3803
555.147	3888
557.6231	3838
560.1005	3855
562.5773	3876
565.0534	3934
567.5308	3892
570.0056	3909
572.4776	3954
574.951	3968
577.4237	3976
579.8978	3928
582.3671	4011
584.8378	3992
587.3079	4010
589.7773	4029
592.244	4073
594.714	4011
597.1793	4005
599.6461	3998
602.1121	3962
604.5754	3946
607.0421	3982
609.5042	4017
611.9675	4000
614.4282	4002
616.8902	3961
619.3515	3905
621.8122	3918
624.2702	3974
626.7296	3909
629.1863	3935
631.6423	3929
634.1017	3957
636.5563	3908
639.0104	4005
641.4658	3954
643.9185	3896
646.3725	3982
648.8239	3987
651.2766	3977
653.7266	3976
656.176	3983
658.6247	4042
661.0748	3966
663.5242	4057
665.9709	4046
668.417	3991
670.8624	4077
673.3092	3951
675.7533	4083
678.1968	4111
680.6395	4048
683.0817	4097
685.5251	4048
687.9659	3991
690.4061	4004
692.8456	4048
695.2844	4122
697.7226	4175
700.1621	4079
702.599	4164
705.0332	4106
707.4688	4216
709.9036	4147
712.3399	4232
714.7735	4074
717.2044	4113
719.6367	4276
722.0683	4075
724.4993	4178
726.9296	4146
729.3593	4246
731.7883	4211
734.2147	4233
736.6423	4186
739.0714	4235
741.4958	4233
743.9216	4291
746.3447	4300
748.7691	4376
751.1929	4407
753.616	4363
756.0366	4274
758.4584	4358
760.8776	4292
763.2982	4306
765.718	4373
768.1373	4406
770.5539	4354
772.9698	4370
775.3871	4312
777.8038	4419
780.2178	4354
782.6332	4356
785.0459	4360
787.458	4394
789.8714	4390
792.2842	4362
794.6943	4356
797.1038	4374
799.5127	4279
801.9209	4341
804.3324	4352
806.7393	4455
809.1456	4410
811.5513	4438
813.9562	4421
816.3625	4408
818.7663	4451
821.1693	4487
823.5718	4516
825.9735	4383
828.3746	4415
830.7771	4353
833.177	4419
835.5762	4477
837.9747	4434
840.3727	4468
842.772	4433
845.1666	4516
847.5626	4541
849.958	4515
852.3527	4552
854.7488	4549
857.1403	4575
859.5331	4593
861.9253	4551
864.3168	4499
866.7057	4469
869.098	4489
871.4876	4444
873.8746	4485
876.263	4495
878.6487	4570
881.0378	4495
883.4243	4537
885.8081	4562
888.1933	4457
890.5759	4560
892.9598	4510
895.343	4487
897.7256	4495
900.1057	4564
902.4871	4512
904.8659	4584
907.246	4550
909.6254	4546
912.0023	4611
914.3786	4707
916.7562	4756
919.1331	4756
921.5074	4790
923.8831	4883
926.2562	4779
928.6287	4751
931.0005	4682
933.3757	4881
935.7462	4744
938.1162	4730
940.4855	4891
942.8542	4867
945.2242	4933
947.5916	4968
949.9584	5043
952.3266	5135
954.6921	5378
957.0571	5439
959.4233	5664
961.787	5757
964.15	5698
966.5125	5721
968.8742	5324
971.2354	5165
973.5959	5053
975.9559	4946
978.3151	4843
980.6738	4743
983.0338	4596
985.3912	4683
987.7461	4805
990.1022	4727
992.4578	4631
994.8127	4695
997.1689	4692
999.5207	4709
1001.874	4766
1004.226	4770
1006.576	4669
1008.929	4706
1011.28	4703
1013.628	4652
1015.977	4736
1018.324	4706
1020.674	4627
1023.019	4634
1025.366	4836
1027.713	4823
1030.056	4819
1032.399	4779
1034.746	4870
1037.087	4839
1039.431	4754
1041.771	4826
1044.113	4804
1046.454	4836
1048.793	4759
1051.133	4831
1053.471	4768
1055.807	4774
1058.146	4834
1060.483	4779
1062.818	4825
1065.153	4853
1067.489	4889
1069.822	4843
1072.156	4937
1074.488	4779
1076.82	4862
1079.15	4895
1081.48	4803
1083.814	4762
1086.143	4816
1088.471	4800
1090.799	4805
1093.126	4775
1095.452	4816
1097.78	4748
1100.105	4817
1102.43	4807
1104.754	4791
1107.077	4757
1109.4	4786
1111.722	4889
1114.044	4851
1116.365	4808
1118.685	4832
1121.005	4779
1123.324	4802
1125.643	4973
1127.961	4843
1130.278	4731
1132.595	4907
1134.911	4834
1137.226	4825
1139.541	4840
1141.854	4784
1144.167	4781
1146.482	4817
1148.793	4870
1151.105	4838
1153.414	4760
1155.725	4810
1158.033	4741
1160.344	4733
1162.651	4792
1164.959	4872
1167.265	4884
1169.572	4879
1171.878	4745
1174.184	4845
1176.488	4850
1178.79	4766
1181.094	4862
1183.396	4889
1185.699	4853
1188.001	4843
1190.301	4743
1192.6	4932
1194.9	4821
1197.2	4915
1199.497	4871
1201.794	4904
1204.09	4862
1206.387	4871
1208.684	4842
1210.978	4878
1213.272	4905
1215.565	4848
1217.858	4841
1220.15	4912
1222.443	4844
1224.734	4900
1227.024	4849
1229.313	4976
1231.602	4990
1233.892	4922
1236.18	5014
1238.467	4995
1240.754	5062
1243.04	5015
1245.325	5067
1247.612	5042
1249.896	5014
1252.178	5080
1254.461	5149
1256.743	5055
1259.027	5088
1261.308	5050
1263.587	5032
1265.867	5088
1268.146	5087
1270.425	5083
1272.703	5084
1274.981	4967
1277.256	5030
1279.532	5054
1281.808	5082
1284.083	4997
1286.358	5042
1288.63	4971
1290.904	5072
1293.175	5038
1295.449	4980
1297.719	4965
1299.99	4907
1302.259	5001
1304.529	5001
1306.798	4975
1309.065	4904
1311.333	5038
1313.599	5039
1315.866	4993
1318.131	4953
1320.396	4936
1322.66	4982
1324.925	4931
1327.187	5042
1329.448	4970
1331.711	5095
1333.974	5081
1336.234	4906
1338.493	5052
1340.752	5096
1343.01	5036
1345.269	5031
1347.526	4967
1349.784	5059
1352.04	5013
1354.295	4906
1356.552	5036
1358.806	4990
1361.059	4995
1363.312	4969
1365.564	4829
1367.818	4972
1370.069	5017
1372.318	5189
1374.568	4927
1376.817	5030
1379.066	5079
1381.316	5041
1383.564	5020
1385.809	5041
1388.056	5056
1390.301	5191
1392.549	5156
1394.793	5184
1397.036	5152
1399.279	5161
1401.522	5275
1403.763	5214
1406.007	5279
1408.248	5147
1410.487	5200
1412.727	5261
1414.965	5167
1417.205	5159
1419.442	5188
1421.68	5206
1423.915	5159
1426.152	5148
1428.388	5188
1430.623	5256
1432.857	5231
1435.091	5149
1437.323	5212
1439.556	5232
1441.789	5270
1444.019	5320
1446.25	5237
1448.48	5268
1450.708	5246
1452.938	5272
1455.167	5297
1457.394	5335
1459.62	5349
1461.846	5287
1464.073	5301
1466.299	5267
1468.523	5153
1470.746	5164
1472.969	5217
1475.191	5119
1477.415	5090
1479.636	5180
1481.858	5121
1484.078	5115
1486.298	4940
1488.518	5081
1490.736	5061
1492.954	5072
1495.169	4970
1497.386	5024
1499.602	5003
1501.819	5049
1504.034	4978
1506.248	5045
1508.462	5006
1510.675	5034
1512.888	4839
1515.1	5022
1517.311	4979
1519.522	5026
1521.732	4937
1523.942	4966
1526.151	5057
1528.36	5054
1530.566	5085
1532.773	4972
1534.98	5017
1537.187	5082
1539.392	5119
1541.596	5117
1543.801	4935
1546.005	4996
1548.208	4994
1550.411	5033
1552.612	5086
1554.814	5098
1557.013	5121
1559.212	4983
1561.414	5093
1563.612	5176
1565.811	5009
1568.007	5170
1570.203	5101
1572.403	5091
1574.598	5147
1576.792	5086
1578.988	5150
1581.181	5140
1583.376	5148
1585.568	5255
1587.761	5237
1589.952	5158
1592.143	5100
1594.333	5137
1596.524	5118
1598.715	5107
1600.903	5106
1603.091	5285
1605.278	5278
1607.466	5160
1609.652	5076
1611.838	5166
1614.023	5285
1616.207	5233
1618.391	5185
1620.576	5271
1622.759	5236
1624.941	5196
1627.123	5245
1629.304	5327
1631.484	5219
1633.664	5295
1635.844	5198
1638.022	5360
1640.201	5237
1642.38	5293
1644.556	5297
1646.732	5278
1648.908	5289
1651.084	5300
1653.257	5245
1655.433	5271
1657.607	5265
1659.779	5268
1661.951	5295
1664.122	5328
1666.295	5295
1668.467	5341
1670.635	5431
1672.805	5324
1674.973	5330
1677.142	5260
1679.31	5332
1681.478	5281
1683.644	5276
1685.81	5373
1687.975	5375
1690.142	5259
1692.305	5275
1694.468	5286
1696.632	5232
1698.794	5142
1700.957	5155
1703.119	5257
1705.279	5185
1707.439	5242
1709.598	5140
1711.758	5242
1713.917	5146
1716.075	5171
1718.231	5198
1720.388	5099
1722.543	5161
1724.702	5142
1726.856	5172
1729.01	5167
1731.164	5187
1733.317	5118
1735.471	5154
1737.623	5190
1739.774	5125
1741.925	5259
1744.075	5228
1746.225	5260
1748.376	5054
1750.524	5163
1752.672	5202
1754.82	5190
1756.965	5218
1759.113	5222
1761.259	5206
1763.405	5102
1765.549	5309
1767.694	5200
1769.836	5297
1771.981	5217
1774.123	5229
1776.264	5155
1778.405	5255
1780.546	5182
1782.687	5187
1784.827	5249
1786.966	5239
1789.103	5205
1791.242	5357
1793.381	5159
1795.517	5215
1797.653	5275
1799.788	5253
1801.923	5250
1804.057	5328
1806.193	5175
1808.326	5197
1810.457	5282
1812.59	5171
1814.721	5240
1816.855	5162
1818.984	5200
1821.113	5225
1823.244	5266
1825.372	5205
1827.499	5265
1829.63	5236
1831.756	5305
1833.882	5255
1836.007	5184
1838.132	5173
1840.26	5105
1842.384	5213
1844.507	5115
1846.63	5187
1848.752	5209
1850.875	5229
1852.996	5205
1855.118	5191
1857.238	5226
1859.358	5120
1861.477	5202
1863.597	5097
1865.715	5043
1867.832	5062
1869.948	5160
1872.064	5153
1874.181	5165
1876.297	5245
1878.411	5242
1880.526	5229
1882.639	5237
1884.752	5168
1886.865	5309
1888.977	5202
1891.089	5170
1893.2	5160
1895.308	5168
1897.42	5218
1899.53	5218
1901.639	5097
1903.745	5187
1905.853	5318
1907.962	5212
1910.067	5176
1912.174	5325
1914.278	5248
1916.383	5272
1918.486	5306
1920.592	5253
1922.694	5292
1924.797	5269
1926.898	5210
1929	5228
1931.102	5226
1933.203	5322
1935.301	5295
1937.401	5227
1939.499	5269
1941.598	5283
1943.697	5332
1945.793	5294
1947.888	5233
1949.985	5283
1952.08	5190
1954.176	5220
1956.269	5221
1958.364	5294
1960.457	5116
1962.549	5245
1964.642	5346
1966.733	5199
1968.823	5257
1970.913	5182
1973.005	5168
1975.093	5263
1977.184	5303
1979.271	5170
1981.359	5146
1983.446	5132
1985.532	5222
1987.619	5220
1989.705	5163
1991.789	5193
1993.874	5197
1995.956	5215
1998.041	5282
2000.123	5111
2002.206	5229
2004.287	5209
2006.368	5123
2008.449	5111
2010.529	5218
2012.609	5190
2014.688	5187
2016.766	5162
2018.843	5197
2020.922	5210
2022.999	5153
2025.074	5119
2027.15	5251
2029.225	5195
2031.299	5137
2033.375	5228
2035.447	5231
2037.52	5229
2039.592	5091
2041.664	5260
2043.736	5264
2045.807	5233
2047.876	5136
2049.947	5232
2052.015	5116
2054.086	5200
2056.153	5198
2058.221	5314
2060.288	5129
2062.353	5199
2064.42	5147
2066.486	5219
2068.55	5147
2070.614	5214
2072.678	5182
2074.741	5180
2076.805	5253
2078.866	5204
2080.929	5079
2082.99	5180
2085.049	5243
2087.109	5203
2089.17	5160
2091.228	5274
2093.286	5191
2095.344	5222
2097.4	5213
2099.46	5189
2101.516	5258
2103.572	5264
2105.626	5198
2107.679	5191
2109.735	5232
2111.788	5259
2113.841	5189
2115.894	5161
2117.945	5274
2119.997	5250
2122.049	5162
2124.1	5282
2126.148	5116
2128.197	5187
2130.246	5112
2132.296	5170
2134.342	5134
2136.39	5132
2138.437	5194
2140.483	5158
2142.527	5176
2144.574	5196
2146.619	5182
2148.661	5113
2150.705	5205
2152.747	5188
2154.792	5089
2156.832	5136
2158.874	5195
2160.915	5111
2162.954	5136
2164.995	5142
2167.034	5205
2169.072	5191
2171.111	5240
2173.148	5179
2175.186	5020
2177.223	5151
2179.258	5147
2181.294	5113
2183.328	5148
2185.362	5133
2187.398	5168
2189.431	5061
2191.463	5062
2193.495	5109
2195.528	5050
2197.56	5001
2199.59	5090
2201.62	5036
2203.649	5136
2205.678	5091
2207.708	5141
2209.737	5055
2211.764	5164
2213.791	5047
2215.817	5093
2217.843	5110
2219.87	5051
2221.895	5035
2223.919	5038
2225.942	5043
2227.966	5011
2229.988	5141
2232.012	4942
2234.032	5023
2236.054	4961
2238.074	4948
2240.095	5116
2242.116	5019
2244.135	5039
2246.153	5023
2248.171	5023
2250.188	5129
2252.208	4981
2254.223	5030
2256.239	5061
2258.255	5004
2260.269	5045
2262.283	5051
2264.3	4964
2266.312	5054
2268.325	5053
2270.336	5094
2272.349	5016
2274.362	5153
2276.372	5006
2278.383	5072
2280.392	4880
2282.402	4976
2284.409	5061
2286.418	5132
2288.427	5041
2290.433	5086
2292.441	5013
2294.446	4948
2296.453	5010
2298.459	5014
2300.463	4980
2302.466	4979
2304.471	5037
2306.475	5094
2308.477	5011
2310.478	5027
2312.481	4977
2314.481	5114
2316.481	5030
2318.482	4994
2320.482	4941
2322.48	5000
2324.48	5047
2326.478	4897
2328.476	4959
2330.473	4999
2332.469	5049
2334.465	5069
2336.46	5013
2338.454	4866
2340.45	4988
2342.444	4980
2344.437	4896
2346.43	4949
2348.421	4967
2350.414	4892
2352.405	4927
2354.396	4983
2356.386	4874
2358.376	4922
2360.366	4998
2362.355	4902
2364.343	4912
2366.331	5033
2368.317	5014
2370.304	4866
2372.292	4941
2374.278	4923
2376.262	4911
2378.247	4969
2380.23	4927
2382.216	4842
2384.199	4893
2386.181	4844
2388.163	4921
2390.144	4978
2392.127	4885
2394.107	4861
2396.087	4902
2398.066	4886
2400.046	4831
2402.023	4779
2404.004	4847
2405.981	4791
2407.957	4845
2409.934	4872
2411.91	4910
2413.886	4948
2415.862	4916
2417.836	4816
2419.809	4901
2421.784	4859
2423.756	4906
2425.73	4769
2427.701	4842
2429.672	4905
2431.644	4815
2433.615	4900
2435.586	4865
2437.555	4832
2439.523	4802
2441.491	4772
2443.459	4912
2445.428	4896
2447.395	4777
2449.361	4717
2451.327	4847
2453.292	4861
2455.257	4828
2457.223	4885
2459.187	4786
2461.15	4799
2463.113	4896
2465.076	4802
2467.039	4792
2468.999	4833
2470.96	4791
2472.921	4797
2474.881	4770
2476.841	4772
2478.8	4831
2480.759	4877
2482.717	4821
2484.675	4865
2486.63	4835
2488.589	4689
2490.545	4718
2492.5	4764
2494.455	4899
2496.408	4858
2498.364	4816
2500.318	4693
2502.27	4769
2504.223	4660
2506.174	4854
2508.126	4812
2510.078	4702
2512.03	4679
2513.979	4778
2515.927	4749
2517.877	4727
2519.826	4741
2521.775	4701
2523.722	4715
2525.668	4712
2527.616	4820
2529.561	4764
2531.508	4722
2533.452	4757
2535.398	4781
2537.342	4697
2539.284	4740
2541.229	4827
2543.173	4784
2545.114	4771
2547.055	4802
2548.996	4735
2550.938	4785
2552.878	4691
2554.817	4741
2556.756	4701
2558.695	4821
2560.633	4782
2562.572	4683
2564.509	4756
2566.445	4750
2568.382	4727
2570.317	4737
2572.254	4784
2574.189	4717
2576.123	4808
2578.057	4667
2579.99	4731
2581.923	4733
2583.855	4758
2585.788	4754
2587.719	4741
2589.65	4777
2591.579	4777
2593.511	4780
2595.44	4722
2597.37	4663
2599.297	4804
2601.225	4715
2603.153	4749
2605.08	4663
2607.007	4710
2608.932	4770
2610.858	4789
2612.782	4679
2614.709	4759
2616.632	4756
2618.556	4689
2620.478	4749
2622.401	4818
2624.324	4810
2626.247	4767
2628.167	4790
2630.088	4779
2632.008	4824
2633.928	4710
2635.848	4716
2637.766	4790
2639.684	4710
2641.603	4816
2643.519	4681
2645.437	4644
2647.353	4754
2649.27	4680
2651.184	4730
2653.099	4738
2655.014	4712
2656.928	4755
2658.842	4717
2660.755	4786
2662.667	4761
2664.579	4693
2666.491	4711
2668.402	4700
2670.312	4786
2672.222	4736
2674.132	4706
2676.042	4723
2677.951	4606
2679.859	4700
2681.766	4673
2683.674	4696
2685.582	4689
2687.488	4743
2689.392	4634
2691.298	4631
2693.202	4588
2695.107	4612
2697.012	4730
2698.914	4692
2700.817	4676
2702.72	4658
2704.622	4679
2706.524	4644
2708.425	4561
2710.326	4655
2712.225	4737
2714.125	4687
2716.024	4721
2717.923	4735
2719.822	4542
2721.719	4591
2723.616	4542
2725.512	4705
2727.41	4754
2729.305	4604
2731.201	4603
2733.095	4620
2734.99	4714
2736.884	4669
2738.778	4627
2740.67	4687
2742.562	4584
2744.455	4625
2746.346	4597
2748.238	4696
2750.129	4734
2752.018	4557
2753.907	4578
2755.797	4743
2757.687	4683
2759.575	4647
2761.462	4584
2763.349	4525
2765.237	4605
2767.124	4559
2769.009	4621
2770.894	4578
2772.779	4599
2774.663	4621
2776.547	4635
2778.431	4515
2780.314	4637
2782.197	4711
2784.078	4610
2785.96	4549
2787.842	4701
2789.723	4497
2791.603	4536
2793.483	4591
2795.362	4566
2797.241	4507
2799.121	4611
2800.997	4579
2802.874	4553
2804.751	4533
2806.628	4497
2808.506	4515
2810.38	4576
2812.255	4610
2814.13	4487
2816.003	4609
2817.878	4535
2819.752	4598
2821.623	4608
2823.496	4489
2825.368	4664
2827.238	4617
2829.111	4618
2830.98	4486
2832.851	4638
2834.719	4630
2836.589	4513
2838.458	4537
2840.327	4578
2842.193	4576
2844.061	4618
2845.927	4568
2847.794	4509
2849.66	4621
2851.525	4530
2853.39	4521
2855.254	4605
2857.117	4565
2858.983	4722
2860.845	4679
2862.707	4715
2864.569	4684
2866.431	4746
2868.293	4726
2870.154	4804
2872.013	4799
2873.873	4865
2875.733	4884
2877.592	4915
2879.451	4841
2881.309	4884
2883.166	4979
2885.022	4967
2886.879	5079
2888.736	4957
2890.591	5001
2892.446	5033
2894.301	5056
2896.155	5129
2898.009	5032
2899.863	5065
2901.716	4979
2903.568	4910
2905.419	4962
2907.27	5047
2909.123	4968
2910.973	5079
2912.824	5068
2914.673	5043
2916.521	5043
2918.372	5166
2920.22	5189
2922.067	5183
2923.914	5277
2925.761	5365
2927.607	5208
2929.455	5306
2931.301	5253
2933.144	5270
2934.99	5519
2936.833	5538
2938.678	5525
2940.522	5489
2942.364	5641
2944.207	5685
2946.048	5744
2947.891	5750
2949.731	5783
2951.571	5704
2953.412	5729
2955.25	5552
2957.09	5635
2958.93	5519
2960.767	5596
2962.606	5531
2964.443	5459
2966.279	5398
2968.116	5360
2969.953	5248
2971.788	5256
2973.623	5222
2975.457	5136
2977.292	5135
2979.127	5104
2980.959	5121
2982.792	4978
2984.624	4934
2986.455	4979
2988.288	4994
2990.119	4991
2991.949	5018
2993.779	4870
2995.608	4833
2997.439	4832
2999.268	4832
3001.096	4807
3002.923	4748
3004.751	4823
3006.578	4594
3008.406	4652
3010.232	4602
3012.057	4463
3013.883	4634
3015.706	4493
3017.532	4467
3019.356	4530
3021.179	4461
3023.002	4380
3024.823	4420
3026.646	4449
3028.469	4449
3030.289	4459
3032.11	4370
3033.93	4385
3035.749	4435
3037.57	4395
3039.39	4313
3041.207	4342
3043.026	4311
3044.842	4459
3046.661	4393
3048.477	4393
3050.294	4343
3052.109	4356
3053.925	4339
3055.739	4334
3057.555	4302
3059.368	4281
3061.181	4300
3062.995	4290
3064.807	4306
3066.62	4283
3068.433	4291
3070.243	4330
3072.054	4287
3073.865	4319
3075.675	4280
3077.485	4314
3079.293	4286
3081.102	4223
3082.911	4208
3084.719	4199
3086.527	4239
3088.333	4234
3090.139	4232
3091.945	4228
3093.75	4255
3095.557	4179
3097.361	4209
3099.165	4303
3100.969	4229
3102.772	4181
3104.575	4189
3106.379	4141
3108.181	4123
3109.982	4248
3111.783	4123
3113.584	4272
3115.386	4114
3117.186	4139
3118.985	4175
3120.783	4180
3122.582	4123
3124.381	4094
3126.179	4182
3127.975	4110
3129.772	4090
3131.569	4200
3133.365	4072
3135.161	4118
3136.956	4108
3138.751	4154
3140.544	4043
3142.338	4171
3144.132	4061
3145.925	4131
3147.717	4022
3149.509	4078
3151.301	4140
3153.091	4008
3154.884	4083
3156.673	4089
3158.462	4038
3160.252	4143
3162.041	4108
3163.831	4064
3165.618	4018
3167.405	4109
3169.193	4044
3170.979	4044
3172.767	4089
3174.553	4055
3176.338	4097
3178.123	4082
3179.907	4043
3181.692	4008
3183.477	4092
3185.259	4100
3187.042	4072
3188.824	4085
3190.607	4033
3192.389	3961
3194.17	4033
3195.951	4015
3197.73	3968
3199.51	4066
3201.289	4027
3203.07	4039
3204.848	4022
3206.626	4054
3208.403	3973
3210.18	4039
3211.959	4036
3213.735	4025
3215.511	4015
3217.285	4058
3219.06	4056
3220.836	4005
3222.611	3904
3224.384	4066
3226.158	4026
3227.929	4053
3229.702	4045
3231.476	4031
3233.248	3912
3235.018	3934
3236.789	4120
3238.56	4054
3240.33	3947
3242.1	3965
3243.869	3962
3245.637	3983
3247.405	3957
3249.172	3997
3250.941	3935
3252.707	3973
3254.474	3992
3256.24	4067
3258.006	4010
3259.772	3971
3261.537	3955
3263.301	3985
3265.065	4012
3266.828	3982
3268.592	3911
3270.355	4000
3272.117	3974
3273.878	4026
3275.64	4031
3277.401	4010
3279.162	4049
3280.922	3952
3282.682	3973
3284.441	4000
3286.199	4023
3287.959	3974
3289.716	3904
3291.475	3888
3293.232	3947
3294.988	4013
3296.744	4033
3298.501	4078
3300.256	4042
3302.011	3965
3303.766	3941
3305.52	3977
3307.275	3942
3309.028	4035
3310.781	4045
3312.533	4054
3314.285	4060
3316.038	3997
3317.789	4010
3319.54	3891
3321.289	3997
3323.039	3965
3324.789	4027
3326.539	3957
3328.288	3943
3330.035	3947
3331.783	3903
3333.531	3955
3335.28	3918
3337.025	3962
3338.771	3919
3340.518	3970
3342.262	3940
3344.009	3972
3345.753	4029
3347.497	3937
3349.24	3973
3350.983	3896
3352.726	3882
3354.469	3910
3356.212	3888
3357.952	3882
3359.694	3881
3361.434	3907
3363.176	3966
3364.916	3895
3366.654	3876
3368.394	3949
3370.132	3868
3371.871	3888
3373.61	3820
3375.346	3791
3377.083	3836
3378.82	3910
3380.556	3725
3382.292	3871
3384.027	3793
3385.763	3833
3387.497	3851
3389.231	3883
3390.965	3851
3392.698	3867
3394.431	3847
3396.164	3829
3397.896	3801
3399.627	3770
3401.36	3734
3403.09	3767
3404.82	3817
3406.55	3831
3408.279	3769
3410.01	3807
3411.738	3877
3413.467	3787
3415.194	3943
3416.92	3817
3418.647	3812
3420.375	3737
3422.102	3660
3423.827	3815
3425.553	3861
3427.277	3758
3429.003	3766
3430.727	3787
3432.451	3774
3434.173	3755
3435.896	3753
3437.62	3678
3439.343	3696
3441.063	3699
3442.785	3757
3444.505	3682
3446.226	3700
3447.948	3758
3449.666	3668
3451.386	3734
3453.104	3675
3454.823	3654
3456.541	3706
3458.259	3716
3459.976	3700
3461.693	3623
3463.408	3622
3465.125	3566
3466.841	3582
3468.556	3597
3470.271	3594
3471.985	3620
3473.698	3541
3475.414	3653
3477.126	3572
3478.838	3650
3480.55	3635
3482.263	3620
3483.975	3652
3485.686	3572
3487.396	3618
3489.106	3593
3490.817	3486
3492.526	3625
3494.236	3559
3495.944	3581
3497.652	3568
3499.359	3552
3501.066	3576
3502.775	3586
3504.481	3558
3506.187	3558
3507.893	3603
3509.598	3557
3511.304	3614
3513.009	3506
3514.713	3534
3516.417	3484
3518.12	3496
3519.821	3489
3521.525	3470
3523.228	3459
3524.929	3499
3526.631	3435
3528.33	3363
3530.032	3484
3531.733	3527
3533.433	3476
3535.131	3438
3536.83	3590
3538.529	3467
3540.227	3463
3541.925	3505
3543.623	3365
3545.319	3435
3547.016	3506
3548.712	3408
3550.408	3402
3552.103	3408
3553.798	3403
3555.491	3373
3557.188	3369
3558.88	3324
3560.574	3313
3562.266	3398
3563.959	3354
3565.651	3394
3567.343	3384
3569.035	3420
3570.725	3365
3572.415	3359
3574.106	3417
3575.797	3354
3577.485	3409
3579.174	3391
3580.863	3341
3582.551	3382
3584.238	3384
3585.926	3413
3587.613	3404
3589.3	3275
3590.986	3357
3592.671	3286
3594.357	3354
3596.042	3269
3597.726	3271
3599.41	3326
3601.094	3320
3602.778	3232
3604.461	3259
3606.143	3223
3607.825	3301
3609.507	3225
3611.188	3288
3612.87	3293
3614.551	3306
3616.229	3234
3617.909	3268
3619.589	3277
3621.269	3272
3622.948	3241
3624.625	3251
3626.302	3228
3627.98	3193
3629.657	3249
3631.334	3246
3633.01	3266
3634.686	3189
3636.361	3209
3638.036	3142
3639.712	3168
3641.385	3264
3643.06	3182
3644.732	3155
3646.405	3166
3648.08	3172
3649.751	3192
3651.424	3126
3653.094	3153
3654.766	3196
3656.436	3135
3658.106	3135
3659.777	3175
3661.446	3234
3663.115	3113
3664.783	3120
3666.452	3129
3668.121	3148
3669.788	3128
3671.454	3158
3673.121	3085
3674.789	3144
3676.455	3130
3678.12	3168
3679.784	3073
3681.45	3134
3683.114	3121
3684.779	3071
3686.442	3175
3688.105	2978
3689.768	3127
3691.43	3064
3693.093	3111
3694.754	3078
3696.415	3090
3698.076	3141
3699.736	3061
3701.396	3069
3703.057	3051
3704.716	3014
3706.375	3085
3708.034	3061
3709.692	3025
3711.351	3041
3713.008	3073
3714.665	3019
3716.321	3033
3717.977	2897
3719.634	3066
3721.29	3034
3722.945	3017
3724.598	3032
3726.253	3035
3727.907	3074
3729.561	2993
3731.214	3008
3732.867	2986
3734.518	2948
3736.171	3067
3737.824	3018
3739.474	2968
3741.125	3016
3742.775	3010
3744.425	3014
3746.074	3091
3747.725	2979
3749.373	2998
3751.022	2971
3752.669	2974
3754.318	2960
3755.966	2959
3757.612	2987
3759.259	2955
3760.905	3019
3762.55	2958
3764.197	2879
3765.842	3008
3767.486	2933
3769.131	2952
3770.774	2909
3772.417	2871
3774.061	2977
3775.705	2991
3777.347	2930
3778.988	2945
3780.629	2905
3782.271	2959
3783.912	2963
3785.552	2936
3787.192	2912
3788.831	2867
3790.472	2855
3792.112	2890
3793.75	2973
3795.388	2928
3797.024	2941
3798.661	2906
3800.3	2945
3801.936	2865
3803.572	2862
3805.208	2853
3806.844	2871
3808.48	2879
3810.115	2871
3811.748	2927
3813.382	2891
3815.016	2813
3816.649	2819
3818.283	2886
3819.914	2851
3821.547	2825
3823.178	2823
3824.809	2817
3826.441	2834
3828.072	2825
3829.701	2863
3831.331	2863
3832.96	2874
3834.591	2850
3836.219	2836
3837.847	2843
3839.475	2885
3841.102	2860
3842.729	2758
3844.357	2818
3845.984	2863
3847.609	2835
3849.234	2820
3850.86	2910
3852.485	2806
3854.11	2781
3855.734	2819
3857.357	2827
3858.981	2778
3860.603	2842
3862.227	2803
3863.848	2824
3865.471	2722
3867.092	2804
3868.713	2779
3870.334	2871
3871.954	2854
3873.575	2785
3875.194	2828
3876.813	2797
3878.433	2802
3880.051	2778
3881.669	2830
3883.286	2805
3884.904	2801
3886.52	2726
3888.138	2749
3889.754	2892
3891.37	2717
3892.985	2750
3894.6	2816
3896.216	2770
3897.831	2782
3899.444	2805
3901.058	2786
3902.67	2738
3904.283	2737
3905.897	2688
3907.509	2694
3909.121	2753
3910.731	2681
3912.342	2712
3913.954	2750
3915.563	2717
3917.174	2776
3918.783	2793
3920.391	2721
3922.002	2743
3923.611	2701
3925.218	2791
3926.826	2747
3928.432	2762
3930.039	2706
3931.647	2718
3933.253	2757
3934.859	2728
3936.464	2723
3938.068	2701
3939.675	2730
3941.278	2694
3942.883	2744
3944.486	2674
3946.089	2691
3947.692	2725
3949.295	2738
3950.898	2672
3952.499	2721
3954.1	2665
3955.7	2669
3957.303	2647
3958.903	2676
3960.502	2640
3962.101	2710
3963.7	2734
3965.301	2684
3966.899	2679
3968.497	2665
3970.094	2678
3971.691	2669
3973.288	2633
3974.885	2615
3976.481	2634
3978.077	2613
3979.672	2607
3981.267	2647
3982.863	2692
3984.457	2633
3986.051	2592
3987.645	2669
3989.238	2616
3990.831	2643
3992.425	2565
3994.017	2703
3995.607	2590
3997.199	2626
3998.79	2503
4000.382	2596
4001.973	2634
4003.561	2608
4005.151	2579
4006.741	2565
4008.331	2589
4009.918	2555
4011.507	2567
4013.095	2537
4014.681	2586
4016.269	2550
4017.856	2538
4019.443	2592
4021.028	2596
4022.614	2517
4024.199	2625
4025.785	2594
4027.37	2538
4028.953	2525
4030.536	2562
4032.12	2543
4033.704	2551
4035.287	2554
4036.869	2485
4038.45	2493
4040.032	2434
4041.613	2503
4043.195	2491
4044.776	2560
4046.356	2484
4047.935	2469
4049.515	2531
4051.095	2527
4052.674	2476
4054.251	2492
4055.829	2585
4057.406	2481
4058.985	2427
4060.562	2556
4062.139	2497
4063.715	2438
4065.29	2496
4066.865	2470
4068.442	2447
4070.016	2445
4071.59	2478
4073.164	2461
4074.738	2491
4076.312	2492
4077.885	2516
4079.458	2426
4081.03	2427
4082.602	2509
4084.173	2447
4085.745	2461
4087.315	2443
4088.886	2404
4090.456	2374
4092.026	2479
4093.596	2454
4095.165	2462
4096.734	2423
4098.301	2429
4099.869	2376
4101.437	2376
4103.006	2348
4104.572	2470
4106.139	2383
4107.704	2446
4109.27	2411
4110.837	2448
4112.401	2450
4113.966	2392
4115.53	2349
4117.094	2369
4118.659	2390
4120.223	2403
4121.785	2387
4123.347	2437
4124.909	2376
4126.471	2341
4128.034	2367
4129.595	2366
4131.155	2370
4132.716	2354
4134.275	2375
4135.836	2346
4137.395	2310
4138.955	2352
4140.513	2370
4142.071	2366
4143.628	2328
4145.188	2408
4146.745	2351
4148.302	2308
4149.858	2329
4151.414	2325
4152.971	2412
4154.526	2330
4156.081	2299
4157.635	2333
4159.189	2344
4160.745	2361
4162.298	2362
4163.852	2391
4165.405	2267
4166.957	2281
4168.51	2302
4170.063	2273
4171.614	2312
4173.166	2328
4174.717	2281
4176.267	2291
4177.817	2292
4179.368	2248
4180.917	2304
4182.466	2267
4184.016	2306
4185.564	2221
4187.112	2317
4188.66	2206
4190.207	2248
4191.754	2260
4193.301	2290
4194.848	2239
4196.394	2253
4197.94	2211
4199.484	2291
4201.03	2347
4202.575	2247
4204.12	2229
4205.663	2301
4207.207	2294
4208.75	2254
4210.292	2222
4211.836	2275
4213.378	2242
4214.92	2218
4216.46	2190
4218.002	2193
4219.544	2204
4221.083	2255
4222.625	2232
4224.164	2225
4225.703	2209
4227.244	2198
4228.782	2240
4230.32	2242
4231.857	2205
4233.395	2194
4234.933	2265
4236.471	2186
4238.007	2229
4239.542	2179
4241.078	2239
4242.614	2233
4244.15	2218
4245.685	2215
4247.219	2234
4248.753	2198
4250.287	2185
4251.82	2219
4253.354	2154
4254.887	2192
4256.419	2192
4257.951	2139
4259.483	2137
4261.016	2200
4262.547	2181
4264.078	2208
4265.608	2213
4267.137	2197
4268.668	2247
4270.197	2187
4271.727	2160
4273.254	2213
4274.783	2115
4276.311	2135
4277.84	2170
4279.366	2206
4280.894	2186
4282.42	2189
4283.946	2210
4285.473	2231
4286.998	2160
4288.523	2209
4290.047	2160
4291.572	2074
4293.096	2159
4294.622	2160
4296.144	2120
4297.668	2126
4299.19	2133
4300.713	2169
4302.236	2179
4303.758	2164
4305.279	2119
4306.799	2112
4308.321	2119
4309.842	2121
4311.361	2123
4312.882	2138
4314.401	2087
