400.0961	4564
402.6185	4655
405.1424	4617
407.6635	4634
410.1838	4661
412.7035	4665
415.2225	4690
417.7388	4821
420.2585	4835
422.7754	4836
425.2917	4877
427.8072	4966
430.3221	4925
432.8363	5066
435.3498	5014
437.8626	5009
440.3727	4920
442.8841	4946
445.3969	5003
447.907	4983
450.4142	4903
452.9229	4939
455.4289	4948
457.9362	4916
460.4449	4814
462.9488	4950
465.454	4985
467.9566	4904
470.4604	4842
472.9637	4913
475.4662	4882
477.966	5003
480.4671	4881
482.9656	4983
485.4633	4948
487.9645	4932
490.4608	5051
492.9566	4980
495.4536	5040
497.948	5134
500.4437	5042
502.9387	5018
505.431	5079
507.9226	5011
510.4136	5053
512.9079	5076
515.3975	5088
517.8864	5093
520.3746	5071
522.8622	5033
525.3491	5030
527.8394	5182
530.3249	5148
532.8098	5078
535.2939	5170
537.7774	5075
540.2623	5108
542.7444	5052
545.2259	5055
547.7067	5118
550.1868	5160
552.6683	5145
555.147	5153
557.6231	5198
560.1005	5181
562.5773	5197
565.0534	5264
567.5308	5227
570.0056	5133
572.4776	5282
574.951	5298
577.4237	5266
579.8978	5345
582.3671	5385
584.8378	5369
587.3079	5287
589.7773	5300
592.244	5376
594.714	5422
597.1793	5407
599.6461	5294
602.1121	5271
604.5754	5292
607.0421	5339
609.5042	5299
611.9675	5316
614.4282	5376
616.8902	5404
619.3515	5261
621.8122	5384
624.2702	5399
626.7296	5268
629.1863	5173
631.6423	5262
634.1017	5209
636.5563	5382
639.0104	5323
641.4658	5260
643.9185	5228
646.3725	5377
648.8239	5331
651.2766	5417
653.7266	5347
656.176	5353
658.6247	5305
661.0748	5407
663.5242	5354
665.9709	5355
668.417	5446
670.8624	5424
673.3092	5394
675.7533	5340
678.1968	5422
680.6395	5537
683.0817	5453
685.5251	5348
687.9659	5507
690.4061	5432
692.8456	5483
695.2844	5382
697.7226	5621
700.1621	5532
702.599	5513
705.0332	5518
707.4688	5466
709.9036	5557
712.3399	5537
714.7735	5555
717.2044	5610
719.6367	5671
722.0683	5701
724.4993	5658
726.9296	5658
729.3593	5744
731.7883	5583
734.2147	5669
736.6423	5752
739.0714	5645
741.4958	5765
743.9216	5823
746.3447	5704
748.7691	5703
751.1929	5815
753.616	5798
756.0366	5758
758.4584	5836
760.8776	5806
763.2982	5915
765.718	5829
768.1373	5828
770.5539	5786
772.9698	5803
775.3871	5940
777.8038	5915
780.2178	5929
782.6332	5813
785.0459	5925
787.458	5874
789.8714	5862
792.2842	5838
794.6943	5868
797.1038	5864
799.5127	5886
801.9209	5946
804.3324	5881
806.7393	5919
809.1456	5949
811.5513	5971
813.9562	5919
816.3625	5901
818.7663	6024
821.1693	5955
823.5718	5937
825.9735	5972
828.3746	5989
830.7771	6038
833.177	5928
835.5762	5937
837.9747	5925
840.3727	6004
842.772	6082
845.1666	6114
847.5626	5918
849.958	5999
852.3527	6241
854.7488	6294
857.1403	6141
859.5331	6170
861.9253	6055
864.3168	6023
866.7057	6126
869.098	6108
871.4876	5989
873.8746	6040
876.263	6047
878.6487	6089
881.0378	6072
883.4243	6077
885.8081	5977
888.1933	6081
890.5759	6030
892.9598	6013
895.343	5977
897.7256	6016
900.1057	6097
902.4871	6085
904.8659	6146
907.246	6136
909.6254	6194
912.0023	6127
914.3786	6169
916.7562	6205
919.1331	6399
921.5074	6257
923.8831	6437
926.2562	6508
928.6287	6323
931.0005	6452
933.3757	6342
935.7462	6456
938.1162	6408
940.4855	6528
942.8542	6589
945.2242	6684
947.5916	6852
949.9584	6879
952.3266	7233
954.6921	7412
957.0571	7697
959.4233	7991
961.787	8194
964.15	8155
966.5125	7918
968.8742	7633
971.2354	7221
973.5959	6881
975.9559	6605
978.3151	6569
980.6738	6503
983.0338	6308
985.3912	6320
987.7461	6397
990.1022	6227
992.4578	6393
994.8127	6343
997.1689	6368
999.5207	6232
1001.874	6284
1004.226	6275
1006.576	6388
1008.929	6360
1011.28	6274
1013.628	6359
1015.977	6326
1018.324	6422
1020.674	6304
1023.019	6380
1025.366	6463
1027.713	6442
1030.056	6360
1032.399	6424
1034.746	6570
1037.087	6436
1039.431	6471
1041.771	6409
1044.113	6452
1046.454	6466
1048.793	6498
1051.133	6549
1053.471	6491
1055.807	6611
1058.146	6485
1060.483	6503
1062.818	6428
1065.153	6554
1067.489	6645
1069.822	6665
1072.156	6636
1074.488	6571
1076.82	6773
1079.15	6684
1081.48	6602
1083.814	6661
1086.143	6548
1088.471	6470
1090.799	6394
1093.126	6508
1095.452	6473
1097.78	6507
1100.105	6518
1102.43	6570
1104.754	6543
1107.077	6499
1109.4	6474
1111.722	6427
1114.044	6543
1116.365	6546
1118.685	6493
1121.005	6612
1123.324	6449
1125.643	6534
1127.961	6452
1130.278	6466
1132.595	6546
1134.911	6457
1137.226	6393
1139.541	6388
1141.854	6482
1144.167	6499
1146.482	6506
1148.793	6580
1151.105	6524
1153.414	6451
1155.725	6525
1158.033	6373
1160.344	6474
1162.651	6422
1164.959	6411
1167.265	6461
1169.572	6577
1171.878	6429
1174.184	6559
1176.488	6616
1178.79	6519
1181.094	6579
1183.396	6539
1185.699	6494
1188.001	6493
1190.301	6448
1192.6	6515
1194.9	6541
1197.2	6553
1199.497	6538
1201.794	6560
1204.09	6548
1206.387	6538
1208.684	6475
1210.978	6431
1213.272	6535
1215.565	6420
1217.858	6481
1220.15	6440
1222.443	6592
1224.734	6619
1227.024	6462
1229.313	6702
1231.602	6736
1233.892	6719
1236.18	6761
1238.467	6779
1240.754	6685
1243.04	6807
1245.325	6627
1247.612	6822
1249.896	6786
1252.178	6868
1254.461	6803
1256.743	6796
1259.027	6733
1261.308	6800
1263.587	6871
1265.867	6747
1268.146	6836
1270.425	6865
1272.703	6764
1274.981	6909
1277.256	6834
1279.532	6764
1281.808	6671
1284.083	6879
1286.358	6799
1288.63	6802
1290.904	6721
1293.175	6693
1295.449	6747
1297.719	6732
1299.99	6648
1302.259	6701
1304.529	6698
1306.798	6595
1309.065	6712
1311.333	6718
1313.599	6646
1315.866	6672
1318.131	6761
1320.396	6762
1322.66	6676
1324.925	6707
1327.187	6695
1329.448	6676
1331.711	6730
1333.974	6681
1336.234	6628
1338.493	6696
1340.752	6661
1343.01	6731
1345.269	6661
1347.526	6682
1349.784	6671
1352.04	6728
1354.295	6750
1356.552	6744
1358.806	6841
1361.059	6732
1363.312	6722
1365.564	6742
1367.818	6697
1370.069	6794
1372.318	6713
1374.568	6704
1376.817	6925
1379.066	6754
1381.316	6793
1383.564	6671
1385.809	6751
1388.056	6808
1390.301	6774
1392.549	6887
1394.793	6910
1397.036	6850
1399.279	6917
1401.522	6827
1403.763	6849
1406.007	6883
1408.248	6945
1410.487	6839
1412.727	6818
1414.965	6909
1417.205	6976
1419.442	6766
1421.68	6856
1423.915	7031
1426.152	6886
1428.388	6986
1430.623	6956
1432.857	6904
1435.091	6923
1437.323	7066
1439.556	7087
1441.789	7038
1444.019	6882
1446.25	7010
1448.48	7010
1450.708	6965
1452.938	7000
1455.167	7133
1457.394	7132
1459.62	7066
1461.846	7010
1464.073	7025
1466.299	7015
1468.523	7005
1470.746	7026
1472.969	6985
1475.191	6984
1477.415	6878
1479.636	6701
1481.858	6773
1484.078	6875
1486.298	6901
1488.518	6856
1490.736	6708
1492.954	6876
1495.169	6890
1497.386	6786
1499.602	6827
1501.819	6771
1504.034	6668
1506.248	6688
1508.462	6733
1510.675	6747
1512.888	6718
1515.1	6737
1517.311	6713
1519.522	6577
1521.732	6584
1523.942	6773
1526.151	6708
1528.36	6732
1530.566	6652
1532.773	6684
1534.98	6734
1537.187	6790
1539.392	6765
1541.596	6629
1543.801	6780
1546.005	6706
1548.208	6694
1550.411	6790
1552.612	6685
1554.814	6828
1557.013	6858
1559.212	6677
1561.414	6858
1563.612	6829
1565.811	6843
1568.007	6840
1570.203	6845
1572.403	6856
1574.598	6916
1576.792	6844
1578.988	7061
1581.181	6812
1583.376	6898
1585.568	6940
1587.761	6853
1589.952	7059
1592.143	6932
1594.333	6908
1596.524	6896
1598.715	6969
1600.903	7062
1603.091	6923
1605.278	6973
1607.466	6980
1609.652	6960
1611.838	7001
1614.023	6941
1616.207	6980
1618.391	6975
1620.576	6969
1622.759	7062
1624.941	7036
1627.123	6962
1629.304	7058
1631.484	7006
1633.664	7011
1635.844	7031
1638.022	7119
1640.201	7034
1642.38	7079
1644.556	7147
1646.732	7061
1648.908	6976
1651.084	7123
1653.257	7121
1655.433	7145
1657.607	7053
1659.779	7212
1661.951	6985
1664.122	7232
1666.295	7105
1668.467	7099
1670.635	7170
1672.805	7296
1674.973	7077
1677.142	7187
1679.31	7109
1681.478	7156
1683.644	7077
1685.81	7107
1687.975	7176
1690.142	7126
1692.305	7069
1694.468	7009
1696.632	7063
1698.794	7051
1700.957	6924
1703.119	6968
1705.279	6990
1707.439	6954
1709.598	6952
1711.758	6961
1713.917	6970
1716.075	6974
1718.231	6971
1720.388	6886
1722.543	6915
1724.702	6985
1726.856	6944
1729.01	6856
1731.164	6973
1733.317	6944
1735.471	6887
1737.623	6960
1739.774	6988
1741.925	6952
1744.075	7010
1746.225	6971
1748.376	6914
1750.524	6825
1752.672	6955
1754.82	6984
1756.965	6973
1759.113	6967
1761.259	6936
1763.405	6968
1765.549	6990
1767.694	7008
1769.836	6905
1771.981	6984
1774.123	7065
1776.264	6932
1778.405	6910
1780.546	7057
1782.687	6978
1784.827	7006
1786.966	7064
1789.103	6942
1791.242	6946
1793.381	6965
1795.517	7016
1797.653	7034
1799.788	7089
1801.923	6986
1804.057	7052
1806.193	7006
1808.326	6997
1810.457	6988
1812.59	6998
1814.721	7036
1816.855	6991
1818.984	7018
1821.113	6937
1823.244	6908
1825.372	7053
1827.499	6932
1829.63	6951
1831.756	6959
1833.882	6932
1836.007	6947
1838.132	6913
1840.26	6947
1842.384	7021
1844.507	7024
1846.63	6860
1848.752	6827
1850.875	6922
1852.996	6978
1855.118	6933
1857.238	6854
1859.358	6774
1861.477	6862
1863.597	6940
1865.715	6932
1867.832	6936
1869.948	6937
1872.064	6860
1874.181	6869
1876.297	6936
1878.411	6856
1880.526	6845
1882.639	6957
1884.752	6952
1886.865	7016
1888.977	6891
1891.089	6974
1893.2	6935
1895.308	6917
1897.42	6865
1899.53	6956
1901.639	6966
1903.745	6856
1905.853	7099
1907.962	7047
1910.067	6912
1912.174	7105
1914.278	6933
1916.383	7092
1918.486	6973
1920.592	6987
1922.694	6947
1924.797	6900
1926.898	7046
1929	7049
1931.102	6910
1933.203	7055
1935.301	7107
1937.401	7045
1939.499	7058
1941.598	7160
1943.697	6989
1945.793	7117
1947.888	7007
1949.985	6929
1952.08	7054
1954.176	7016
1956.269	6955
1958.364	7049
1960.457	7087
1962.549	7064
1964.642	6958
1966.733	6917
1968.823	6959
1970.913	7003
1973.005	7005
1975.093	6911
1977.184	6958
1979.271	7082
1981.359	6907
1983.446	6925
1985.532	6964
1987.619	7038
1989.705	6862
1991.789	7015
1993.874	7032
1995.956	6887
1998.041	6985
2000.123	6893
2002.206	7003
2004.287	6974
2006.368	6978
2008.449	6757
2010.529	7006
2012.609	6990
2014.688	6888
2016.766	6913
2018.843	6967
2020.922	6910
2022.999	6875
2025.074	6972
2027.15	6923
2029.225	6955
2031.299	6953
2033.375	7013
2035.447	6949
2037.52	7002
2039.592	6895
2041.664	7007
2043.736	6936
2045.807	6923
2047.876	6863
2049.947	6930
2052.015	6802
2054.086	6946
2056.153	6985
2058.221	7021
2060.288	6949
2062.353	6965
2064.42	6931
2066.486	6932
2068.55	6892
2070.614	6974
2072.678	6945
2074.741	6941
2076.805	6952
2078.866	6996
2080.929	6943
2082.99	6866
2085.049	6887
2087.109	6912
2089.17	6938
2091.228	6889
2093.286	6965
2095.344	6948
2097.4	6905
2099.46	6952
2101.516	6879
2103.572	6935
2105.626	6864
2107.679	6864
2109.735	6931
2111.788	6919
2113.841	6830
2115.894	6861
2117.945	6742
2119.997	6868
2122.049	6867
2124.1	7035
2126.148	7072
2128.197	6906
2130.246	6982
2132.296	6932
2134.342	6891
2136.39	6860
2138.437	6857
2140.483	6933
2142.527	6853
2144.574	6914
2146.619	6926
2148.661	7013
2150.705	6957
2152.747	6812
2154.792	6897
2156.832	6786
2158.874	6745
2160.915	6746
2162.954	6815
2164.995	6921
2167.034	6817
2169.072	6845
2171.111	6877
2173.148	6892
2175.186	6859
2177.223	6821
2179.258	6832
2181.294	6845
2183.328	6764
2185.362	6861
2187.398	6803
2189.431	6839
2191.463	6849
2193.495	6813
2195.528	6801
2197.56	6837
2199.59	6699
2201.62	6752
2203.649	6826
2205.678	6743
2207.708	6615
2209.737	6807
2211.764	6714
2213.791	6826
2215.817	6697
2217.843	6743
2219.87	6794
2221.895	6691
2223.919	6785
2225.942	6619
2227.966	6750
2229.988	6781
2232.012	6694
2234.032	6661
2236.054	6735
2238.074	6647
2240.095	6753
2242.116	6697
2244.135	6621
2246.153	6708
2248.171	6768
2250.188	6739
2252.208	6601
2254.223	6669
2256.239	6733
2258.255	6767
2260.269	6839
2262.283	6851
2264.3	6717
2266.312	6678
2268.325	6677
2270.336	6744
2272.349	6644
2274.362	6650
2276.372	6711
2278.383	6669
2280.392	6676
2282.402	6793
2284.409	6702
2286.418	6819
2288.427	6635
2290.433	6739
2292.441	6835
2294.446	6747
2296.453	6665
2298.459	6665
2300.463	6594
2302.466	6663
2304.471	6717
2306.475	6824
2308.477	6587
2310.478	6608
2312.481	6641
2314.481	6668
2316.481	6649
2318.482	6758
2320.482	6580
2322.48	6602
2324.48	6615
2326.478	6618
2328.476	6703
2330.473	6699
2332.469	6558
2334.465	6576
2336.46	6570
2338.454	6636
2340.45	6624
2342.444	6633
2344.437	6504
2346.43	6674
2348.421	6482
2350.414	6593
2352.405	6620
2354.396	6540
2356.386	6582
2358.376	6752
2360.366	6480
2362.355	6582
2364.343	6562
2366.331	6441
2368.317	6523
2370.304	6551
2372.292	6461
2374.278	6581
2376.262	6501
2378.247	6513
2380.23	6574
2382.216	6579
2384.199	6425
2386.181	6571
2388.163	6457
2390.144	6472
2392.127	6474
2394.107	6505
2396.087	6354
2398.066	6472
2400.046	6583
2402.023	6364
2404.004	6434
2405.981	6471
2407.957	6374
2409.934	6541
2411.91	6456
2413.886	6525
2415.862	6434
2417.836	6437
2419.809	6525
2421.784	6410
2423.756	6461
2425.73	6465
2427.701	6493
2429.672	6451
2431.644	6478
2433.615	6404
2435.586	6494
2437.555	6384
2439.523	6566
2441.491	6442
2443.459	6500
2445.428	6422
2447.395	6362
2449.361	6420
2451.327	6357
2453.292	6367
2455.257	6414
2457.223	6507
2459.187	6379
2461.15	6480
2463.113	6416
2465.076	6346
2467.039	6306
2468.999	6379
2470.96	6390
2472.921	6280
2474.881	6505
2476.841	6231
2478.8	6316
2480.759	6361
2482.717	6343
2484.675	6419
2486.63	6458
2488.589	6340
2490.545	6373
2492.5	6307
2494.455	6339
2496.408	6514
2498.364	6385
2500.318	6315
2502.27	6383
2504.223	6313
2506.174	6291
2508.126	6293
2510.078	6168
2512.03	6267
2513.979	6256
2515.927	6305
2517.877	6254
2519.826	6269
2521.775	6304
2523.722	6303
2525.668	6245
2527.616	6357
2529.561	6266
2531.508	6334
2533.452	6312
2535.398	6343
2537.342	6324
2539.284	6319
2541.229	6395
2543.173	6306
2545.114	6284
2547.055	6202
2548.996	6319
2550.938	6359
2552.878	6349
2554.817	6201
2556.756	6347
2558.695	6320
2560.633	6289
2562.572	6214
2564.509	6347
2566.445	6347
2568.382	6354
2570.317	6333
2572.254	6268
2574.189	6343
2576.123	6234
2578.057	6348
2579.99	6173
2581.923	6242
2583.855	6219
2585.788	6381
2587.719	6272
2589.65	6339
2591.579	6325
2593.511	6286
2595.44	6325
2597.37	6279
2599.297	6340
2601.225	6284
2603.153	6210
2605.08	6298
2607.007	6311
2608.932	6303
2610.858	6255
2612.782	6305
2614.709	6307
2616.632	6290
2618.556	6222
2620.478	6292
2622.401	6211
2624.324	6295
2626.247	6213
2628.167	6186
2630.088	6354
2632.008	6247
2633.928	6262
2635.848	6255
2637.766	6290
2639.684	6254
2641.603	6179
2643.519	6166
2645.437	6404
2647.353	6298
2649.27	6261
2651.184	6264
2653.099	6339
2655.014	6316
2656.928	6167
2658.842	6203
2660.755	6271
2662.667	6201
2664.579	6314
2666.491	6249
2668.402	6250
2670.312	6214
2672.222	6205
2674.132	6425
2676.042	6253
2677.951	6143
2679.859	6137
2681.766	6124
2683.674	6216
2685.582	6148
2687.488	6186
2689.392	6206
2691.298	6116
2693.202	6080
2695.107	6224
2697.012	6255
2698.914	6160
2700.817	6161
2702.72	6205
2704.622	6182
2706.524	6123
2708.425	6134
2710.326	6220
2712.225	6233
2714.125	6163
2716.024	6039
2717.923	6171
2719.822	6190
2721.719	6214
2723.616	6158
2725.512	6139
2727.41	6057
2729.305	6182
2731.201	6147
2733.095	6041
2734.99	6098
2736.884	6183
2738.778	6062
2740.67	6180
2742.562	6074
2744.455	6154
2746.346	6141
2748.238	6134
2750.129	6097
2752.018	5998
2753.907	6275
2755.797	6028
2757.687	6057
2759.575	6063
2761.462	6093
2763.349	6064
2765.237	6042
2767.124	6028
2769.009	6134
2770.894	6119
2772.779	6098
2774.663	6064
2776.547	6030
2778.431	6007
2780.314	6120
2782.197	5971
2784.078	6079
2785.96	6011
2787.842	6143
2789.723	6107
2791.603	6083
2793.483	5987
2795.362	6074
2797.241	5991
2799.121	6063
2800.997	6080
2802.874	6075
2804.751	6057
2806.628	5929
2808.506	6077
2810.38	6029
2812.255	6052
2814.13	5970
2816.003	5984
2817.878	5975
2819.752	6007
2821.623	5993
2823.496	6081
2825.368	6077
2827.238	6039
2829.111	6064
2830.98	5954
2832.851	5929
2834.719	5943
2836.589	5902
2838.458	6103
2840.327	5917
2842.193	6009
2844.061	6018
2845.927	6113
2847.794	6077
2849.66	6021
2851.525	6148
2853.39	6136
2855.254	6129
2857.117	6073
2858.983	6001
2860.845	6142
2862.707	6136
2864.569	6130
2866.431	6264
2868.293	6199
2870.154	6208
2872.013	6326
2873.873	6333
2875.733	6316
2877.592	6424
2879.451	6436
2881.309	6447
2883.166	6554
2885.022	6596
2886.879	6581
2888.736	6555
2890.591	6690
2892.446	6794
2894.301	6627
2896.155	6584
2898.009	6471
2899.863	6599
2901.716	6572
2903.568	6572
2905.419	6536
2907.27	6532
2909.123	6645
2910.973	6518
2912.824	6688
2914.673	6678
2916.521	6611
2918.372	6807
2920.22	6809
2922.067	6882
2923.914	6890
2925.761	6888
2927.607	6931
2929.455	7003
2931.301	6965
2933.144	7040
2934.99	7291
2936.833	7257
2938.678	7301
2940.522	7345
2942.364	7409
2944.207	7555
2946.048	7422
2947.891	7461
2949.731	7464
2951.571	7414
2953.412	7476
2955.25	7363
2957.09	7304
2958.93	7256
2960.767	7228
2962.606	6979
2964.443	7026
2966.279	7116
2968.116	6980
2969.953	6836
2971.788	6933
2973.623	6706
2975.457	6749
2977.292	6782
2979.127	6805
2980.959	6621
2982.792	6623
2984.624	6590
2986.455	6540
2988.288	6456
2990.119	6527
2991.949	6585
2993.779	6417
2995.608	6484
2997.439	6206
2999.268	6412
3001.096	6237
3002.923	6381
3004.751	6221
3006.578	6240
3008.406	6291
3010.232	6000
3012.057	6094
3013.883	5989
3015.706	5998
3017.532	5932
3019.356	5857
3021.179	5884
3023.002	5829
3024.823	5795
3026.646	5767
3028.469	5749
3030.289	5627
3032.11	5810
3033.93	5737
3035.749	5667
3037.57	5699
3039.39	5667
3041.207	5634
3043.026	5708
3044.842	5652
3046.661	5594
3048.477	5621
3050.294	5713
3052.109	5702
3053.925	5597
3055.739	5717
3057.555	5701
3059.368	5701
3061.181	5528
3062.995	5704
3064.807	5730
3066.62	5666
3068.433	5732
3070.243	5678
3072.054	5669
3073.865	5511
3075.675	5567
3077.485	5644
3079.293	5579
3081.102	5561
3082.911	5592
3084.719	5398
3086.527	5711
3088.333	5575
3090.139	5471
3091.945	5519
3093.75	5590
3095.557	5580
3097.361	5486
3099.165	5544
3100.969	5573
3102.772	5432
3104.575	5553
3106.379	5461
3108.181	5501
3109.982	5449
3111.783	5449
3113.584	5387
3115.386	5473
3117.186	5447
3118.985	5393
3120.783	5330
3122.582	5465
3124.381	5431
3126.179	5336
3127.975	5469
3129.772	5398
3131.569	5354
3133.365	5425
3135.161	5486
3136.956	5492
3138.751	5390
3140.544	5354
3142.338	5360
3144.132	5341
3145.925	5336
3147.717	5261
3149.509	5317
3151.301	5304
3153.091	5310
3154.884	5296
3156.673	5328
3158.462	5393
3160.252	5312
3162.041	5317
3163.831	5257
3165.618	5381
3167.405	5340
3169.193	5264
3170.979	5283
3172.767	5268
3174.553	5323
3176.338	5310
3178.123	5320
3179.907	5275
3181.692	5264
3183.477	5305
3185.259	5119
3187.042	5292
3188.824	5253
3190.607	5273
3192.389	5246
3194.17	5253
3195.951	5363
3197.73	5279
3199.51	5234
3201.289	5323
3203.07	5258
3204.848	5244
3206.626	5277
3208.403	5337
3210.18	5278
3211.959	5215
3213.735	5234
3215.511	5287
3217.285	5303
3219.06	5282
3220.836	5258
3222.611	5212
3224.384	5224
3226.158	5272
3227.929	5215
3229.702	5212
3231.476	5264
3233.248	5321
3235.018	5092
3236.789	5232
3238.56	5277
3240.33	5137
3242.1	5293
3243.869	5078
3245.637	5287
3247.405	5240
3249.172	5272
3250.941	5356
3252.707	5242
3254.474	5176
3256.24	5186
3258.006	5206
3259.772	5260
3261.537	5230
3263.301	5216
3265.065	5227
3266.828	5118
3268.592	5163
3270.355	5335
3272.117	5199
3273.878	5204
3275.64	5187
3277.401	5234
3279.162	5176
3280.922	5329
3282.682	5111
3284.441	5241
3286.199	5181
3287.959	5193
3289.716	5219
3291.475	5278
3293.232	5341
3294.988	5283
3296.744	5249
3298.501	5165
3300.256	5230
3302.011	5314
3303.766	5201
3305.52	5284
3307.275	5215
3309.028	5188
3310.781	5312
3312.533	5232
3314.285	5290
3316.038	5319
3317.789	5146
3319.54	5302
3321.289	5124
3323.039	5145
3324.789	5171
3326.539	5264
3328.288	5245
3330.035	5209
3331.783	5189
3333.531	5202
3335.28	5187
3337.025	5132
3338.771	5191
3340.518	5166
3342.262	5148
3344.009	5211
3345.753	5240
3347.497	5242
3349.24	5164
3350.983	5167
3352.726	5042
3354.469	5192
3356.212	5081
3357.952	5176
3359.694	4971
3361.434	5160
3363.176	5154
3364.916	5038
3366.654	5099
3368.394	5115
3370.132	5058
3371.871	4978
3373.61	5126
3375.346	5080
3377.083	5081
3378.82	5092
3380.556	5118
3382.292	4940
3384.027	5078
3385.763	4988
3387.497	5019
3389.231	5018
3390.965	5107
3392.698	4927
3394.431	4956
3396.164	4992
3397.896	4956
3399.627	5056
3401.36	5010
3403.09	5021
3404.82	4934
3406.55	4959
3408.279	4970
3410.01	4917
3411.738	4899
3413.467	5006
3415.194	4967
3416.92	5069
3418.647	4905
3420.375	4899
3422.102	5046
3423.827	4923
3425.553	5034
3427.277	4982
3429.003	5007
3430.727	4901
3432.451	4905
3434.173	4891
3435.896	4946
3437.62	4938
3439.343	4884
3441.063	4894
3442.785	4877
3444.505	4820
3446.226	4828
3447.948	4914
3449.666	4927
3451.386	4862
3453.104	4814
3454.823	4783
3456.541	4756
3458.259	4904
3459.976	4834
3461.693	4775
3463.408	4793
3465.125	4763
3466.841	4641
3468.556	4692
3470.271	4734
3471.985	4761
3473.698	4727
3475.414	4748
3477.126	4695
3478.838	4668
3480.55	4661
3482.263	4747
3483.975	4583
3485.686	4660
3487.396	4621
3489.106	4799
3490.817	4600
3492.526	4757
3494.236	4634
3495.944	4669
3497.652	4600
3499.359	4640
3501.066	4594
3502.775	4670
3504.481	4620
3506.187	4553
3507.893	4555
3509.598	4525
3511.304	4577
3513.009	4607
3514.713	4598
3516.417	4535
3518.12	4513
3519.821	4660
3521.525	4612
3523.228	4553
3524.929	4572
3526.631	4590
3528.33	4544
3530.032	4557
3531.733	4445
3533.433	4614
3535.131	4537
3536.83	4552
3538.529	4484
3540.227	4548
3541.925	4569
3543.623	4463
3545.319	4502
3547.016	4457
3548.712	4479
3550.408	4387
3552.103	4491
3553.798	4446
3555.491	4477
3557.188	4425
3558.88	4406
3560.574	4483
3562.266	4371
3563.959	4420
3565.651	4355
3567.343	4384
3569.035	4421
3570.725	4437
3572.415	4309
3574.106	4417
3575.797	4408
3577.485	4451
3579.174	4386
3580.863	4311
3582.551	4455
3584.238	4365
3585.926	4272
3587.613	4379
3589.3	4346
3590.986	4352
3592.671	4332
3594.357	4333
3596.042	4455
3597.726	4207
3599.41	4313
3601.094	4178
3602.778	4274
3604.461	4296
3606.143	4327
3607.825	4264
3609.507	4198
3611.188	4307
3612.87	4132
3614.551	4274
3616.229	4304
3617.909	4224
3619.589	4260
3621.269	4219
3622.948	4263
3624.625	4224
3626.302	4174
3627.98	4144
3629.657	4208
3631.334	4292
3633.01	4211
3634.686	4198
3636.361	4153
3638.036	4135
3639.712	4133
3641.385	4123
3643.06	4159
3644.732	4168
3646.405	4007
3648.08	4166
3649.751	4098
3651.424	4109
3653.094	4112
3654.766	4105
3656.436	4097
3658.106	3978
3659.777	4013
3661.446	4046
3663.115	4124
3664.783	4065
3666.452	4195
3668.121	4170
3669.788	4114
3671.454	4053
3673.121	3960
3674.789	4008
3676.455	4121
3678.12	4054
3679.784	4026
3681.45	4011
3683.114	4003
3684.779	4008
3686.442	3956
3688.105	3935
3689.768	4051
3691.43	4092
3693.093	3917
3694.754	4013
3696.415	4013
3698.076	4076
3699.736	3987
3701.396	3993
3703.057	3940
3704.716	3946
3706.375	4041
3708.034	4084
3709.692	4036
3711.351	3974
3713.008	3987
3714.665	3991
3716.321	3911
3717.977	3931
3719.634	3872
3721.29	3956
3722.945	3928
3724.598	3880
3726.253	3959
3727.907	3909
3729.561	3904
3731.214	3972
3732.867	3872
3734.518	3909
3736.171	3861
3737.824	3976
3739.474	3903
3741.125	3901
3742.775	3837
3744.425	3976
3746.074	3968
3747.725	3845
3749.373	3836
3751.022	3947
3752.669	3908
3754.318	3843
3755.966	3897
3757.612	3917
3759.259	3848
3760.905	3843
3762.55	3955
3764.197	3819
3765.842	3908
3767.486	3821
3769.131	3873
3770.774	3841
3772.417	3813
3774.061	3938
3775.705	3801
3777.347	3843
3778.988	3854
3780.629	3810
3782.271	3837
3783.912	3818
3785.552	3767
3787.192	3817
3788.831	3849
3790.472	3711
3792.112	3781
3793.75	3747
3795.388	3761
3797.024	3848
3798.661	3734
3800.3	3638
3801.936	3811
3803.572	3838
3805.208	3766
3806.844	3753
3808.48	3686
3810.115	3738
3811.748	3787
3813.382	3823
3815.016	3706
3816.649	3700
3818.283	3669
3819.914	3671
3821.547	3664
3823.178	3666
3824.809	3696
3826.441	3670
3828.072	3683
3829.701	3673
3831.331	3688
3832.96	3704
3834.591	3685
3836.219	3723
3837.847	3627
3839.475	3699
3841.102	3655
3842.729	3704
3844.357	3644
3845.984	3684
3847.609	3656
3849.234	3663
3850.86	3598
3852.485	3708
3854.11	3709
3855.734	3601
3857.357	3685
3858.981	3644
3860.603	3671
3862.227	3676
3863.848	3646
3865.471	3583
3867.092	3563
3868.713	3601
3870.334	3594
3871.954	3518
3873.575	3520
3875.194	3552
3876.813	3541
3878.433	3575
3880.051	3635
3881.669	3639
3883.286	3653
3884.904	3626
3886.52	3569
3888.138	3558
3889.754	3593
3891.37	3563
3892.985	3547
3894.6	3579
3896.216	3549
3897.831	3549
3899.444	3547
3901.058	3608
3902.67	3561
3904.283	3569
3905.897	3493
3907.509	3564
3909.121	3442
3910.731	3537
3912.342	3499
3913.954	3483
3915.563	3466
3917.174	3511
3918.783	3528
3920.391	3457
3922.002	3492
3923.611	3548
3925.218	3531
3926.826	3467
3928.432	3550
3930.039	3469
3931.647	3467
3933.253	3512
3934.859	3458
3936.464	3494
3938.068	3491
3939.675	3483
3941.278	3465
3942.883	3479
3944.486	3483
3946.089	3443
3947.692	3500
3949.295	3462
3950.898	3464
3952.499	3513
3954.1	3528
3955.7	3464
3957.303	3443
3958.903	3577
3960.502	3489
3962.101	3431
3963.7	3419
3965.301	3427
3966.899	3475
3968.497	3419
3970.094	3384
3971.691	3432
3973.288	3332
3974.885	3422
3976.481	3439
3978.077	3410
3979.672	3408
3981.267	3412
3982.863	3501
3984.457	3403
3986.051	3344
3987.645	3359
3989.238	3317
3990.831	3344
3992.425	3342
3994.017	3336
3995.607	3320
3997.199	3356
3998.79	3390
4000.382	3377
4001.973	3334
4003.561	3298
4005.151	3283
4006.741	3339
4008.331	3310
4009.918	3347
4011.507	3291
4013.095	3350
4014.681	3243
4016.269	3342
4017.856	3323
4019.443	3309
4021.028	3342
4022.614	3311
4024.199	3329
4025.785	3277
4027.37	3243
4028.953	3195
4030.536	3305
4032.12	3266
4033.704	3182
4035.287	3248
4036.869	3326
4038.45	3246
4040.032	3195
4041.613	3174
4043.195	3170
4044.776	3197
4046.356	3238
4047.935	3229
4049.515	3322
4051.095	3257
4052.674	3270
4054.251	3162
4055.829	3239
4057.406	3162
4058.985	3170
4060.562	3242
4062.139	3208
4063.715	3138
4065.29	3206
4066.865	3161
4068.442	3170
4070.016	3189
4071.59	3177
4073.164	3163
4074.738	3223
4076.312	3294
4077.885	3139
4079.458	3142
4081.03	3140
4082.602	3130
4084.173	3100
4085.745	3181
4087.315	3119
4088.886	3191
4090.456	3115
4092.026	3174
4093.596	3131
4095.165	3089
4096.734	3130
4098.301	3114
4099.869	3148
4101.437	3117
4103.006	3109
4104.572	3087
4106.139	3094
4107.704	3131
4109.27	3114
4110.837	3152
4112.401	3119
4113.966	3052
4115.53	3039
4117.094	3100
4118.659	3108
4120.223	3117
4121.785	3064
4123.347	3149
4124.909	3106
4126.471	3030
4128.034	3034
4129.595	2982
4131.155	3007
4132.716	2984
4134.275	3028
4135.836	2998
4137.395	3002
4138.955	3010
4140.513	3011
4142.071	3075
4143.628	3026
4145.188	2933
4146.745	2990
4148.302	2976
4149.858	3064
4151.414	2969
4152.971	2990
4154.526	3029
4156.081	2957
4157.635	2964
4159.189	2951
4160.745	2959
4162.298	2961
4163.852	2897
4165.405	3003
4166.957	3013
4168.51	2911
4170.063	2993
4171.614	2978
4173.166	2972
4174.717	2943
4176.267	2996
4177.817	2969
4179.368	2887
4180.917	2921
4182.466	2867
4184.016	2873
4185.564	2890
4187.112	2931
4188.66	2866
4190.207	2966
4191.754	2873
4193.301	2945
4194.848	2903
4196.394	2818
4197.94	2872
4199.484	2869
4201.03	2819
4202.575	2877
4204.12	2897
4205.663	2836
4207.207	2899
4208.75	2847
4210.292	2824
4211.836	2935
4213.378	2881
4214.92	2825
4216.46	2919
4218.002	2874
4219.544	2804
4221.083	2928
4222.625	2838
4224.164	2887
4225.703	2842
4227.244	2921
4228.782	2836
4230.32	2858
4231.857	2878
4233.395	2804
4234.933	2820
4236.471	2863
4238.007	2853
4239.542	2843
4241.078	2877
4242.614	2822
4244.15	2839
4245.685	2778
4247.219	2811
4248.753	2810
4250.287	2775
4251.82	2822
4253.354	2843
4254.887	2778
4256.419	2755
4257.951	2802
4259.483	2792
4261.016	2818
4262.547	2769
4264.078	2842
4265.608	2740
4267.137	2762
4268.668	2776
4270.197	2759
4271.727	2694
4273.254	2846
4274.783	2735
4276.311	2719
4277.84	2799
4279.366	2824
4280.894	2756
4282.42	2729
4283.946	2737
4285.473	2741
4286.998	2700
4288.523	2710
4290.047	2746
4291.572	2754
4293.096	2755
4294.622	2749
4296.144	2735
4297.668	2758
4299.19	2724
4300.713	2697
4302.236	2739
4303.758	2677
4305.279	2764
4306.799	2651
4308.321	2672
4309.842	2620
4311.361	2658
4312.882	2704
4314.401	2663
