400.0961	2595
402.6185	2569
405.1424	2537
407.6635	2604
410.1838	2601
412.7035	2607
415.2225	2595
417.7388	2705
420.2585	2651
422.7754	2672
425.2917	2755
427.8072	2691
430.3221	2686
432.8363	2799
435.3498	2799
437.8626	2835
440.3727	2730
442.8841	2768
445.3969	2731
447.907	2730
450.4142	2805
452.9229	2783
455.4289	2712
457.9362	2812
460.4449	2769
462.9488	2742
465.454	2692
467.9566	2723
470.4604	2692
472.9637	2641
475.4662	2706
477.966	2788
480.4671	2735
482.9656	2767
485.4633	2758
487.9645	2692
490.4608	2796
492.9566	2732
495.4536	2697
497.948	2757
500.4437	2804
502.9387	2821
505.431	2799
507.9226	2801
510.4136	2804
512.9079	2823
515.3975	2820
517.8864	2707
520.3746	2806
522.8622	2783
525.3491	2832
527.8394	2765
530.3249	2835
532.8098	2788
535.2939	2790
537.7774	2855
540.2623	2820
542.7444	2824
545.2259	2862
547.7067	2864
550.1868	2907
552.6683	2838
555.147	2789
557.6231	2874
560.1005	2794
562.5773	2841
565.0534	2930
567.5308	2840
570.0056	2815
572.4776	2946
574.951	2874
577.4237	2909
579.8978	2898
582.3671	2998
584.8378	2969
587.3079	2960
589.7773	2934
592.244	2940
594.714	2880
597.1793	2911
599.6461	2895
602.1121	3014
604.5754	2868
607.0421	2923
609.5042	2907
611.9675	2885
614.4282	2862
616.8902	2961
619.3515	2922
621.8122	2875
624.2702	2875
626.7296	2818
629.1863	2856
631.6423	2849
634.1017	2910
636.5563	2894
639.0104	2947
641.4658	2949
643.9185	2854
646.3725	2958
648.8239	2855
651.2766	2930
653.7266	2923
656.176	2868
658.6247	2917
661.0748	2881
663.5242	2930
665.9709	2907
668.417	2916
670.8624	2985
673.3092	2926
675.7533	2948
678.1968	2926
680.6395	3004
683.0817	2958
685.5251	2890
687.9659	2983
690.4061	2968
692.8456	2956
695.2844	2899
697.7226	2980
700.1621	3002
702.599	2979
705.0332	3033
707.4688	3037
709.9036	3012
712.3399	2998
714.7735	3110
717.2044	2957
719.6367	3026
722.0683	3043
724.4993	3038
726.9296	3000
729.3593	3061
731.7883	2994
734.2147	3072
736.6423	3066
739.0714	3104
741.4958	3090
743.9216	3057
746.3447	3087
748.7691	3052
751.1929	3204
753.616	3140
756.0366	3082
758.4584	3170
760.8776	3160
763.2982	3169
765.718	3184
768.1373	3184
770.5539	3228
772.9698	3251
775.3871	3114
777.8038	3214
780.2178	3214
782.6332	3212
785.0459	3174
787.458	3245
789.8714	3207
792.2842	3159
794.6943	3156
797.1038	3121
799.5127	3162
801.9209	3177
804.3324	3221
806.7393	3180
809.1456	3262
811.5513	3224
813.9562	3166
816.3625	3253
818.7663	3273
821.1693	3218
823.5718	3233
825.9735	3182
828.3746	3262
830.7771	3222
833.177	3293
835.5762	3250
837.9747	3285
840.3727	3303
842.772	3321
845.1666	3291
847.5626	3252
849.958	3234
852.3527	3352
854.7488	3293
857.1403	3299
859.5331	3343
861.9253	3355
864.3168	3271
866.7057	3275
869.098	3333
871.4876	3283
873.8746	3337
876.263	3326
878.6487	3297
881.0378	3327
883.4243	3371
885.8081	3344
888.1933	3271
890.5759	3257
892.9598	3349
895.343	3285
897.7256	3226
900.1057	3277
902.4871	3294
904.8659	3299
907.246	3311
909.6254	3378
912.0023	3287
914.3786	3363
916.7562	3400
919.1331	3481
921.5074	3483
923.8831	3394
926.2562	3563
928.6287	3419
931.0005	3432
933.3757	3570
935.7462	3523
938.1162	3504
940.4855	3549
942.8542	3567
945.2242	3633
947.5916	3794
949.9584	3862
952.3266	3904
954.6921	4159
957.0571	4396
959.4233	4540
961.787	4462
964.15	4419
966.5125	4317
968.8742	4123
971.2354	3830
973.5959	3761
975.9559	3604
978.3151	3591
980.6738	3496
983.0338	3476
985.3912	3380
987.7461	3449
990.1022	3477
992.4578	3458
994.8127	3428
997.1689	3396
999.5207	3442
1001.874	3513
1004.226	3478
1006.576	3444
1008.929	3408
1011.28	3466
1013.628	3416
1015.977	3437
1018.324	3487
1020.674	3497
1023.019	3426
1025.366	3476
1027.713	3520
1030.056	3558
1032.399	3552
1034.746	3526
1037.087	3527
1039.431	3526
1041.771	3549
1044.113	3574
1046.454	3479
1048.793	3574
1051.133	3496
1053.471	3518
1055.807	3527
1058.146	3539
1060.483	3520
1062.818	3472
1065.153	3608
1067.489	3602
1069.822	3636
1072.156	3617
1074.488	3650
1076.82	3724
1079.15	3576
1081.48	3573
1083.814	3620
1086.143	3559
1088.471	3554
1090.799	3533
1093.126	3510
1095.452	3489
1097.78	3521
1100.105	3561
1102.43	3542
1104.754	3555
1107.077	3502
1109.4	3491
1111.722	3481
1114.044	3555
1116.365	3485
1118.685	3459
1121.005	3608
1123.324	3497
1125.643	3629
1127.961	3472
1130.278	3580
1132.595	3552
1134.911	3583
1137.226	3539
1139.541	3454
1141.854	3540
1144.167	3445
1146.482	3493
1148.793	3440
1151.105	3519
1153.414	3553
1155.725	3496
1158.033	3481
1160.344	3475
1162.651	3500
1164.959	3525
1167.265	3502
1169.572	3555
1171.878	3577
1174.184	3551
1176.488	3531
1178.79	3496
1181.094	3488
1183.396	3581
1185.699	3520
1188.001	3487
1190.301	3448
1192.6	3484
1194.9	3511
1197.2	3491
1199.497	3513
1201.794	3466
1204.09	3502
1206.387	3602
1208.684	3617
1210.978	3531
1213.272	3546
1215.565	3535
1217.858	3511
1220.15	3523
1222.443	3496
1224.734	3570
1227.024	3607
1229.313	3615
1231.602	3556
1233.892	3631
1236.18	3684
1238.467	3601
1240.754	3619
1243.04	3619
1245.325	3700
1247.612	3724
1249.896	3675
1252.178	3667
1254.461	3698
1256.743	3703
1259.027	3655
1261.308	3777
1263.587	3686
1265.867	3628
1268.146	3817
1270.425	3781
1272.703	3723
1274.981	3744
1277.256	3686
1279.532	3700
1281.808	3651
1284.083	3663
1286.358	3681
1288.63	3657
1290.904	3628
1293.175	3586
1295.449	3671
1297.719	3561
1299.99	3627
1302.259	3666
1304.529	3632
1306.798	3715
1309.065	3567
1311.333	3609
1313.599	3678
1315.866	3688
1318.131	3612
1320.396	3725
1322.66	3590
1324.925	3676
1327.187	3624
1329.448	3634
1331.711	3686
1333.974	3700
1336.234	3663
1338.493	3665
1340.752	3650
1343.01	3653
1345.269	3623
1347.526	3640
1349.784	3681
1352.04	3663
1354.295	3678
1356.552	3700
1358.806	3677
1361.059	3657
1363.312	3672
1365.564	3626
1367.818	3606
1370.069	3688
1372.318	3628
1374.568	3707
1376.817	3586
1379.066	3676
1381.316	3723
1383.564	3653
1385.809	3627
1388.056	3747
1390.301	3729
1392.549	3685
1394.793	3834
1397.036	3787
1399.279	3766
1401.522	3755
1403.763	3776
1406.007	3832
1408.248	3748
1410.487	3726
1412.727	3785
1414.965	3779
1417.205	3843
1419.442	3705
1421.68	3738
1423.915	3744
1426.152	3776
1428.388	3780
1430.623	3745
1432.857	3721
1435.091	3833
1437.323	3811
1439.556	3899
1441.789	3924
1444.019	3799
1446.25	3817
1448.48	3878
1450.708	3820
1452.938	3809
1455.167	3895
1457.394	3874
1459.62	3924
1461.846	3913
1464.073	3890
1466.299	3919
1468.523	3861
1470.746	3798
1472.969	3786
1475.191	3760
1477.415	3725
1479.636	3737
1481.858	3776
1484.078	3744
1486.298	3777
1488.518	3692
1490.736	3700
1492.954	3668
1495.169	3687
1497.386	3660
1499.602	3650
1501.819	3646
1504.034	3634
1506.248	3699
1508.462	3667
1510.675	3667
1512.888	3628
1515.1	3564
1517.311	3614
1519.522	3707
1521.732	3631
1523.942	3717
1526.151	3641
1528.36	3647
1530.566	3621
1532.773	3685
1534.98	3702
1537.187	3664
1539.392	3702
1541.596	3604
1543.801	3686
1546.005	3649
1548.208	3708
1550.411	3696
1552.612	3655
1554.814	3635
1557.013	3677
1559.212	3757
1561.414	3726
1563.612	3686
1565.811	3775
1568.007	3818
1570.203	3722
1572.403	3741
1574.598	3733
1576.792	3729
1578.988	3809
1581.181	3725
1583.376	3749
1585.568	3712
1587.761	3723
1589.952	3762
1592.143	3726
1594.333	3798
1596.524	3764
1598.715	3767
1600.903	3792
1603.091	3833
1605.278	3845
1607.466	3769
1609.652	3802
1611.838	3830
1614.023	3842
1616.207	3746
1618.391	3823
1620.576	3877
1622.759	3826
1624.941	3745
1627.123	3848
1629.304	3889
1631.484	3795
1633.664	3848
1635.844	3872
1638.022	3911
1640.201	3825
1642.38	3809
1644.556	3899
1646.732	3943
1648.908	3887
1651.084	3927
1653.257	3858
1655.433	3842
1657.607	3883
1659.779	3883
1661.951	3879
1664.122	3977
1666.295	3910
1668.467	3886
1670.635	3845
1672.805	3898
1674.973	3927
1677.142	3921
1679.31	3966
1681.478	3891
1683.644	3936
1685.81	3901
1687.975	3924
1690.142	3927
1692.305	3876
1694.468	3854
1696.632	3848
1698.794	3817
1700.957	3827
1703.119	3886
1705.279	3821
1707.439	3821
1709.598	3779
1711.758	3774
1713.917	3760
1716.075	3741
1718.231	3841
1720.388	3799
1722.543	3733
1724.702	3788
1726.856	3783
1729.01	3767
1731.164	3758
1733.317	3733
1735.471	3851
1737.623	3895
1739.774	3789
1741.925	3738
1744.075	3726
1746.225	3800
1748.376	3829
1750.524	3778
1752.672	3817
1754.82	3831
1756.965	3853
1759.113	3763
1761.259	3847
1763.405	3828
1765.549	3911
1767.694	3794
1769.836	3771
1771.981	3835
1774.123	3814
1776.264	3788
1778.405	3845
1780.546	3768
1782.687	3888
1784.827	3806
1786.966	3891
1789.103	3895
1791.242	3843
1793.381	3851
1795.517	3914
1797.653	3847
1799.788	3843
1801.923	3845
1804.057	3781
1806.193	3858
1808.326	3789
1810.457	3887
1812.59	3856
1814.721	3880
1816.855	3847
1818.984	3911
1821.113	3815
1823.244	3800
1825.372	3885
1827.499	3825
1829.63	3853
1831.756	3800
1833.882	3832
1836.007	3887
1838.132	3813
1840.26	3853
1842.384	3736
1844.507	3789
1846.63	3844
1848.752	3830
1850.875	3765
1852.996	3897
1855.118	3749
1857.238	3759
1859.358	3791
1861.477	3807
1863.597	3790
1865.715	3838
1867.832	3724
1869.948	3836
1872.064	3799
1874.181	3830
1876.297	3762
1878.411	3845
1880.526	3765
1882.639	3905
1884.752	3853
1886.865	3834
1888.977	3772
1891.089	3828
1893.2	3757
1895.308	3825
1897.42	3798
1899.53	3786
1901.639	3844
1903.745	3792
1905.853	3830
1907.962	3765
1910.067	3795
1912.174	3870
1914.278	3928
1916.383	3876
1918.486	3807
1920.592	3816
1922.694	3871
1924.797	3851
1926.898	3906
1929	3861
1931.102	3863
1933.203	3799
1935.301	3893
1937.401	3833
1939.499	3955
1941.598	3846
1943.697	3983
1945.793	3823
1947.888	3863
1949.985	3874
1952.08	3914
1954.176	3791
1956.269	3910
1958.364	3851
1960.457	3926
1962.549	3863
1964.642	3818
1966.733	3872
1968.823	3811
1970.913	3874
1973.005	3838
1975.093	3869
1977.184	3929
1979.271	3805
1981.359	3864
1983.446	3875
1985.532	3883
1987.619	3837
1989.705	3887
1991.789	3775
1993.874	3832
1995.956	3855
1998.041	3873
2000.123	3748
2002.206	3896
2004.287	3869
2006.368	3796
2008.449	3752
2010.529	3802
2012.609	3832
2014.688	3808
2016.766	3744
2018.843	3854
2020.922	3876
2022.999	3916
2025.074	3934
2027.15	3753
2029.225	3833
2031.299	3869
2033.375	3884
2035.447	3865
2037.52	3814
2039.592	3818
2041.664	3887
2043.736	3795
2045.807	3913
2047.876	3845
2049.947	3865
2052.015	3840
2054.086	3925
2056.153	3888
2058.221	3837
2060.288	3879
2062.353	3879
2064.42	3871
2066.486	3764
2068.55	3784
2070.614	3855
2072.678	3834
2074.741	3807
2076.805	3792
2078.866	3893
2080.929	3852
2082.99	3816
2085.049	3901
2087.109	3796
2089.17	3807
2091.228	3869
2093.286	3837
2095.344	3903
2097.4	3827
2099.46	3890
2101.516	3830
2103.572	3791
2105.626	3814
2107.679	3895
2109.735	3870
2111.788	3870
2113.841	3845
2115.894	3882
2117.945	3877
2119.997	3816
2122.049	3805
2124.1	3938
2126.148	3815
2128.197	3824
2130.246	3876
2132.296	3918
2134.342	3730
2136.39	3775
2138.437	3859
2140.483	3863
2142.527	3781
2144.574	3813
2146.619	3829
2148.661	3774
2150.705	3875
2152.747	3821
2154.792	3804
2156.832	3809
2158.874	3784
2160.915	3873
2162.954	3762
2164.995	3918
2167.034	3795
2169.072	3782
2171.111	3832
2173.148	3755
2175.186	3832
2177.223	3780
2179.258	3817
2181.294	3770
2183.328	3818
2185.362	3774
2187.398	3778
2189.431	3812
2191.463	3667
2193.495	3790
2195.528	3743
2197.56	3802
2199.59	3795
2201.62	3721
2203.649	3878
2205.678	3760
2207.708	3714
2209.737	3806
2211.764	3827
2213.791	3748
2215.817	3778
2217.843	3642
2219.87	3698
2221.895	3842
2223.919	3846
2225.942	3669
2227.966	3749
2229.988	3717
2232.012	3797
2234.032	3748
2236.054	3826
2238.074	3756
2240.095	3736
2242.116	3768
2244.135	3793
2246.153	3693
2248.171	3741
2250.188	3824
2252.208	3722
2254.223	3758
2256.239	3825
2258.255	3818
2260.269	3750
2262.283	3847
2264.3	3761
2266.312	3708
2268.325	3726
2270.336	3800
2272.349	3805
2274.362	3753
2276.372	3778
2278.383	3786
2280.392	3774
2282.402	3768
2284.409	3733
2286.418	3733
2288.427	3781
2290.433	3760
2292.441	3765
2294.446	3755
2296.453	3826
2298.459	3760
2300.463	3739
2302.466	3730
2304.471	3725
2306.475	3739
2308.477	3729
2310.478	3783
2312.481	3792
2314.481	3714
2316.481	3739
2318.482	3722
2320.482	3797
2322.48	3709
2324.48	3706
2326.478	3728
2328.476	3706
2330.473	3835
2332.469	3738
2334.465	3708
2336.46	3734
2338.454	3777
2340.45	3674
2342.444	3664
2344.437	3663
2346.43	3661
2348.421	3753
2350.414	3692
2352.405	3584
2354.396	3749
2356.386	3705
2358.376	3703
2360.366	3735
2362.355	3701
2364.343	3693
2366.331	3743
2368.317	3618
2370.304	3653
2372.292	3652
2374.278	3714
2376.262	3681
2378.247	3677
2380.23	3753
2382.216	3619
2384.199	3706
2386.181	3697
2388.163	3627
2390.144	3608
2392.127	3716
2394.107	3680
2396.087	3687
2398.066	3665
2400.046	3696
2402.023	3739
2404.004	3658
2405.981	3616
2407.957	3692
2409.934	3639
2411.91	3586
2413.886	3657
2415.862	3577
2417.836	3623
2419.809	3661
2421.784	3609
2423.756	3633
2425.73	3640
2427.701	3707
2429.672	3625
2431.644	3634
2433.615	3597
2435.586	3647
2437.555	3679
2439.523	3692
2441.491	3673
2443.459	3713
2445.428	3612
2447.395	3618
2449.361	3648
2451.327	3586
2453.292	3694
2455.257	3611
2457.223	3618
2459.187	3692
2461.15	3621
2463.113	3614
2465.076	3555
2467.039	3634
2468.999	3664
2470.96	3626
2472.921	3608
2474.881	3682
2476.841	3592
2478.8	3648
2480.759	3574
2482.717	3624
2484.675	3604
2486.63	3580
2488.589	3571
2490.545	3622
2492.5	3641
2494.455	3627
2496.408	3501
2498.364	3550
2500.318	3583
2502.27	3615
2504.223	3561
2506.174	3585
2508.126	3581
2510.078	3644
2512.03	3593
2513.979	3620
2515.927	3636
2517.877	3620
2519.826	3575
2521.775	3597
2523.722	3561
2525.668	3555
2527.616	3534
2529.561	3660
2531.508	3546
2533.452	3647
2535.398	3563
2537.342	3594
2539.284	3553
2541.229	3631
2543.173	3595
2545.114	3573
2547.055	3693
2548.996	3504
2550.938	3590
2552.878	3580
2554.817	3553
2556.756	3610
2558.695	3569
2560.633	3595
2562.572	3541
2564.509	3565
2566.445	3569
2568.382	3676
2570.317	3548
2572.254	3522
2574.189	3525
2576.123	3587
2578.057	3546
2579.99	3629
2581.923	3540
2583.855	3584
2585.788	3622
2587.719	3555
2589.65	3548
2591.579	3623
2593.511	3559
2595.44	3565
2597.37	3619
2599.297	3547
2601.225	3591
2603.153	3585
2605.08	3615
2607.007	3597
2608.932	3558
2610.858	3584
2612.782	3651
2614.709	3523
2616.632	3538
2618.556	3572
2620.478	3537
2622.401	3557
2624.324	3625
2626.247	3511
2628.167	3638
2630.088	3658
2632.008	3473
2633.928	3583
2635.848	3643
2637.766	3614
2639.684	3590
2641.603	3589
2643.519	3600
2645.437	3574
2647.353	3562
2649.27	3657
2651.184	3594
2653.099	3553
2655.014	3526
2656.928	3614
2658.842	3587
2660.755	3571
2662.667	3621
2664.579	3577
2666.491	3647
2668.402	3562
2670.312	3547
2672.222	3597
2674.132	3554
2676.042	3612
2677.951	3608
2679.859	3636
2681.766	3592
2683.674	3571
2685.582	3524
2687.488	3562
2689.392	3479
2691.298	3526
2693.202	3645
2695.107	3576
2697.012	3520
2698.914	3536
2700.817	3548
2702.72	3538
2704.622	3533
2706.524	3614
2708.425	3542
2710.326	3495
2712.225	3530
2714.125	3559
2716.024	3530
2717.923	3557
2719.822	3511
2721.719	3530
2723.616	3550
2725.512	3541
2727.41	3473
2729.305	3495
2731.201	3596
2733.095	3536
2734.99	3530
2736.884	3476
2738.778	3582
2740.67	3496
2742.562	3561
2744.455	3494
2746.346	3562
2748.238	3589
2750.129	3522
2752.018	3546
2753.907	3562
2755.797	3465
2757.687	3555
2759.575	3458
2761.462	3563
2763.349	3519
2765.237	3577
2767.124	3453
2769.009	3535
2770.894	3486
2772.779	3505
2774.663	3503
2776.547	3531
2778.431	3480
2780.314	3527
2782.197	3486
2784.078	3509
2785.96	3539
2787.842	3476
2789.723	3551
2791.603	3459
2793.483	3510
2795.362	3464
2797.241	3616
2799.121	3472
2800.997	3487
2802.874	3474
2804.751	3436
2806.628	3447
2808.506	3471
2810.38	3459
2812.255	3558
2814.13	3529
2816.003	3428
2817.878	3471
2819.752	3465
2821.623	3546
2823.496	3477
2825.368	3493
2827.238	3465
2829.111	3538
2830.98	3401
2832.851	3515
2834.719	3454
2836.589	3423
2838.458	3416
2840.327	3407
2842.193	3536
2844.061	3454
2845.927	3549
2847.794	3462
2849.66	3463
2851.525	3496
2853.39	3486
2855.254	3518
2857.117	3502
2858.983	3557
2860.845	3663
2862.707	3596
2864.569	3585
2866.431	3535
2868.293	3658
2870.154	3624
2872.013	3713
2873.873	3689
2875.733	3700
2877.592	3753
2879.451	3712
2881.309	3854
2883.166	3813
2885.022	3843
2886.879	3834
2888.736	3808
2890.591	3903
2892.446	3795
2894.301	3851
2896.155	3841
2898.009	3855
2899.863	3824
2901.716	3828
2903.568	3859
2905.419	3860
2907.27	3898
2909.123	3841
2910.973	3811
2912.824	3953
2914.673	3962
2916.521	3880
2918.372	3988
2920.22	3955
2922.067	4043
2923.914	4008
2925.761	4049
2927.607	4146
2929.455	4159
2931.301	4274
2933.144	4261
2934.99	4166
2936.833	4309
2938.678	4263
2940.522	4270
2942.364	4296
2944.207	4386
2946.048	4442
2947.891	4496
2949.731	4337
2951.571	4440
2953.412	4573
2955.25	4305
2957.09	4322
2958.93	4386
2960.767	4252
2962.606	4120
2964.443	4194
2966.279	4269
2968.116	4095
2969.953	4112
2971.788	4045
2973.623	4014
2975.457	3964
2977.292	3942
2979.127	3929
2980.959	3974
2982.792	3870
2984.624	3892
2986.455	3864
2988.288	3907
2990.119	3866
2991.949	3894
2993.779	3831
2995.608	3763
2997.439	3698
2999.268	3823
3001.096	3733
3002.923	3716
3004.751	3675
3006.578	3582
3008.406	3577
3010.232	3557
3012.057	3474
3013.883	3409
3015.706	3572
3017.532	3441
3019.356	3447
3021.179	3469
3023.002	3387
3024.823	3445
3026.646	3452
3028.469	3400
3030.289	3367
3032.11	3371
3033.93	3367
3035.749	3402
3037.57	3355
3039.39	3356
3041.207	3284
3043.026	3322
3044.842	3367
3046.661	3329
3048.477	3394
3050.294	3299
3052.109	3345
3053.925	3379
3055.739	3335
3057.555	3416
3059.368	3341
3061.181	3275
3062.995	3224
3064.807	3427
3066.62	3297
3068.433	3327
3070.243	3352
3072.054	3386
3073.865	3345
3075.675	3265
3077.485	3323
3079.293	3249
3081.102	3335
3082.911	3334
3084.719	3271
3086.527	3262
3088.333	3260
3090.139	3322
3091.945	3191
3093.75	3231
3095.557	3253
3097.361	3261
3099.165	3254
3100.969	3225
3102.772	3216
3104.575	3261
3106.379	3250
3108.181	3288
3109.982	3263
3111.783	3295
3113.584	3233
3115.386	3261
3117.186	3259
3118.985	3220
3120.783	3198
3122.582	3291
3124.381	3182
3126.179	3187
3127.975	3251
3129.772	3182
3131.569	3277
3133.365	3037
3135.161	3184
3136.956	3243
3138.751	3186
3140.544	3166
3142.338	3112
3144.132	3162
3145.925	3208
3147.717	3208
3149.509	3141
3151.301	3212
3153.091	3240
3154.884	3117
3156.673	3127
3158.462	3120
3160.252	3206
3162.041	3147
3163.831	3198
3165.618	3133
3167.405	3184
3169.193	3166
3170.979	3095
3172.767	3167
3174.553	3113
3176.338	3181
3178.123	3140
3179.907	3171
3181.692	3178
3183.477	3220
3185.259	3151
3187.042	3146
3188.824	3087
3190.607	3196
3192.389	3200
3194.17	3136
3195.951	3216
3197.73	3105
3199.51	3179
3201.289	3095
3203.07	3129
3204.848	3177
3206.626	3204
3208.403	3242
3210.18	3145
3211.959	3119
3213.735	3131
3215.511	3164
3217.285	3126
3219.06	3176
3220.836	3129
3222.611	3077
3224.384	3148
3226.158	3116
3227.929	3150
3229.702	3150
3231.476	3168
3233.248	3171
3235.018	3178
3236.789	3166
3238.56	3183
3240.33	3135
3242.1	3143
3243.869	3148
3245.637	3094
3247.405	3146
3249.172	3154
3250.941	3115
3252.707	3176
3254.474	3166
3256.24	3136
3258.006	3149
3259.772	3173
3261.537	3179
3263.301	3148
3265.065	3140
3266.828	3091
3268.592	3152
3270.355	3235
3272.117	3124
3273.878	3084
3275.64	3113
3277.401	3145
3279.162	3143
3280.922	3138
3282.682	3124
3284.441	3232
3286.199	3187
3287.959	3158
3289.716	3134
3291.475	3127
3293.232	3139
3294.988	3205
3296.744	3129
3298.501	3175
3300.256	3190
3302.011	3137
3303.766	3189
3305.52	3191
3307.275	3117
3309.028	3124
3310.781	3220
3312.533	3171
3314.285	3108
3316.038	3139
3317.789	3168
3319.54	3137
3321.289	3154
3323.039	3113
3324.789	3114
3326.539	3164
3328.288	3189
3330.035	3188
3331.783	3145
3333.531	3115
3335.28	3145
3337.025	3066
3338.771	3148
3340.518	3105
3342.262	3152
3344.009	3133
3345.753	3151
3347.497	3061
3349.24	3179
3350.983	3059
3352.726	3098
3354.469	3095
3356.212	3101
3357.952	3176
3359.694	3059
3361.434	3071
3363.176	3025
3364.916	3153
3366.654	3052
3368.394	3054
3370.132	3110
3371.871	3113
3373.61	3134
3375.346	3036
3377.083	3083
3378.82	3092
3380.556	3049
3382.292	2976
3384.027	3049
3385.763	3060
3387.497	3032
3389.231	3024
3390.965	3130
3392.698	3038
3394.431	3040
3396.164	2987
3397.896	3070
3399.627	2971
3401.36	3046
3403.09	2999
3404.82	3029
3406.55	2996
3408.279	2985
3410.01	2919
3411.738	3023
3413.467	3012
3415.194	3050
3416.92	3012
3418.647	3021
3420.375	2983
3422.102	2926
3423.827	2980
3425.553	3064
3427.277	3006
3429.003	3026
3430.727	2996
3432.451	3038
3434.173	3036
3435.896	2917
3437.62	2957
3439.343	2953
3441.063	2983
3442.785	2983
3444.505	2900
3446.226	2904
3447.948	2921
3449.666	2935
3451.386	2888
3453.104	2992
3454.823	2989
3456.541	2906
3458.259	2972
3459.976	2953
3461.693	2905
3463.408	2966
3465.125	2984
3466.841	2877
3468.556	2825
3470.271	2972
3471.985	2932
3473.698	2875
3475.414	2851
3477.126	2854
3478.838	2881
3480.55	2907
3482.263	2852
3483.975	2863
3485.686	2825
3487.396	2926
3489.106	2866
3490.817	2888
3492.526	2805
3494.236	2885
3495.944	2895
3497.652	2872
3499.359	2874
3501.066	2827
3502.775	2834
3504.481	2832
3506.187	2877
3507.893	2888
3509.598	2876
3511.304	2764
3513.009	2830
3514.713	2840
3516.417	2846
3518.12	2805
3519.821	2852
3521.525	2746
3523.228	2831
3524.929	2809
3526.631	2809
3528.33	2754
3530.032	2800
3531.733	2811
3533.433	2753
3535.131	2779
3536.83	2786
3538.529	2727
3540.227	2788
3541.925	2777
3543.623	2748
3545.319	2738
3547.016	2807
3548.712	2792
3550.408	2729
3552.103	2762
3553.798	2640
3555.491	2743
3557.188	2664
3558.88	2705
3560.574	2697
3562.266	2762
3563.959	2626
3565.651	2741
3567.343	2734
3569.035	2640
3570.725	2663
3572.415	2653
3574.106	2703
3575.797	2688
3577.485	2721
3579.174	2699
3580.863	2702
3582.551	2699
3584.238	2713
3585.926	2661
3587.613	2735
3589.3	2689
3590.986	2647
3592.671	2709
3594.357	2656
3596.042	2674
3597.726	2684
3599.41	2641
3601.094	2690
3602.778	2617
3604.461	2672
3606.143	2638
3607.825	2658
3609.507	2607
3611.188	2609
3612.87	2562
3614.551	2671
3616.229	2607
3617.909	2549
3619.589	2635
3621.269	2665
3622.948	2574
3624.625	2631
3626.302	2656
3627.98	2620
3629.657	2600
3631.334	2640
3633.01	2578
3634.686	2587
3636.361	2508
3638.036	2637
3639.712	2529
3641.385	2569
3643.06	2569
3644.732	2551
3646.405	2542
3648.08	2526
3649.751	2556
3651.424	2499
3653.094	2615
3654.766	2470
3656.436	2538
3658.106	2447
3659.777	2484
3661.446	2557
3663.115	2495
3664.783	2535
3666.452	2548
3668.121	2490
3669.788	2526
3671.454	2475
3673.121	2467
3674.789	2458
3676.455	2440
3678.12	2452
3679.784	2464
3681.45	2442
3683.114	2443
3684.779	2516
3686.442	2503
3688.105	2415
3689.768	4670
3691.43	2890
3693.093	2474
3694.754	2438
3696.415	2431
3698.076	2475
3699.736	2443
3701.396	2516
3703.057	2444
3704.716	2487
3706.375	2474
3708.034	2572
3709.692	2436
3711.351	2427
3713.008	2480
3714.665	2445
3716.321	2448
3717.977	2426
3719.634	2398
3721.29	2482
3722.945	2495
3724.598	2471
3726.253	2408
3727.907	2425
3729.561	2407
3731.214	2431
3732.867	2441
3734.518	2428
3736.171	2423
3737.824	2397
3739.474	2413
3741.125	2460
3742.775	2361
3744.425	2377
3746.074	2459
3747.725	2421
3749.373	2429
3751.022	2449
3752.669	2464
3754.318	2357
3755.966	2369
3757.612	2368
3759.259	2452
3760.905	2381
3762.55	2387
3764.197	2404
3765.842	2439
3767.486	2408
3769.131	2439
3770.774	2319
3772.417	2373
3774.061	2406
3775.705	2384
3777.347	2360
3778.988	2344
3780.629	2459
3782.271	2357
3783.912	2395
3785.552	2370
3787.192	2322
3788.831	2397
3790.472	2346
3792.112	2407
3793.75	2376
3795.388	2352
3797.024	2346
3798.661	2343
3800.3	2345
3801.936	2322
3803.572	2377
3805.208	2331
3806.844	2309
3808.48	2416
3810.115	2275
3811.748	2324
3813.382	2354
3815.016	2354
3816.649	2279
3818.283	2292
3819.914	2264
3821.547	2328
3823.178	2277
3824.809	2310
3826.441	2302
3828.072	2317
3829.701	2313
3831.331	2321
3832.96	2293
3834.591	2244
3836.219	2286
3837.847	2344
3839.475	2330
3841.102	2333
3842.729	2284
3844.357	2257
3845.984	2281
3847.609	2283
3849.234	2252
3850.86	2282
3852.485	2273
3854.11	2206
3855.734	2201
3857.357	2321
3858.981	2262
3860.603	2281
3862.227	2325
3863.848	2235
3865.471	2271
3867.092	2292
3868.713	2242
3870.334	2231
3871.954	2338
3873.575	2237
3875.194	2212
3876.813	2210
3878.433	2238
3880.051	2264
3881.669	2213
3883.286	2276
3884.904	2287
3886.52	2197
3888.138	2248
3889.754	2193
3891.37	2246
3892.985	2275
3894.6	2217
3896.216	2265
3897.831	2232
3899.444	2211
3901.058	2259
3902.67	2224
3904.283	2228
3905.897	2278
3907.509	2247
3909.121	2179
3910.731	2222
3912.342	2219
3913.954	2232
3915.563	2222
3917.174	2272
3918.783	2219
3920.391	2225
3922.002	2281
3923.611	2146
3925.218	2231
3926.826	2227
3928.432	2214
3930.039	2282
3931.647	2192
3933.253	2196
3934.859	2126
3936.464	2249
3938.068	2229
3939.675	2263
3941.278	2170
3942.883	2234
3944.486	2202
3946.089	2198
3947.692	2168
3949.295	2248
3950.898	2183
3952.499	2160
3954.1	2212
3955.7	2185
3957.303	2187
3958.903	2200
3960.502	2202
3962.101	2210
3963.7	2167
3965.301	2162
3966.899	2158
3968.497	2169
3970.094	2136
3971.691	2153
3973.288	2180
3974.885	2168
3976.481	2105
3978.077	2174
3979.672	2140
3981.267	2139
3982.863	2128
3984.457	2195
3986.051	2094
3987.645	2142
3989.238	2145
3990.831	2159
3992.425	2130
3994.017	2170
3995.607	2087
3997.199	2078
3998.79	2146
4000.382	2097
4001.973	2083
4003.561	2100
4005.151	2147
4006.741	2092
4008.331	2084
4009.918	2084
4011.507	2086
4013.095	2071
4014.681	2057
4016.269	2111
4017.856	2099
4019.443	2097
4021.028	2047
4022.614	2119
4024.199	2092
4025.785	2014
4027.37	2116
4028.953	2120
4030.536	2030
4032.12	2128
4033.704	2070
4035.287	2078
4036.869	2060
4038.45	2047
4040.032	2077
4041.613	2058
4043.195	1999
4044.776	2111
4046.356	2078
4047.935	2071
4049.515	2008
4051.095	2033
4052.674	2032
4054.251	2000
4055.829	2004
4057.406	2026
4058.985	2019
4060.562	2069
4062.139	2010
4063.715	2029
4065.29	2057
4066.865	2053
4068.442	1968
4070.016	2026
4071.59	2058
4073.164	2052
4074.738	2073
4076.312	2022
4077.885	2027
4079.458	1989
4081.03	2052
4082.602	2016
4084.173	1992
4085.745	2024
4087.315	1998
4088.886	2013
4090.456	1981
4092.026	2015
4093.596	1980
4095.165	1980
4096.734	1982
4098.301	1967
4099.869	1983
4101.437	2028
4103.006	1966
4104.572	1947
4106.139	1986
4107.704	2014
4109.27	1963
4110.837	1973
4112.401	2000
4113.966	2002
4115.53	2013
4117.094	1983
4118.659	1953
4120.223	1948
4121.785	1987
4123.347	1990
4124.909	1989
4126.471	1974
4128.034	1964
4129.595	1975
4131.155	1989
4132.716	1963
4134.275	1970
4135.836	1945
4137.395	1939
4138.955	1890
4140.513	2014
4142.071	1947
4143.628	1934
4145.188	1960
4146.745	1889
4148.302	1977
4149.858	1936
4151.414	1884
4152.971	1950
4154.526	1949
4156.081	1888
4157.635	1944
4159.189	1907
4160.745	1926
4162.298	1898
4163.852	1879
4165.405	1922
4166.957	1984
4168.51	1904
4170.063	1901
4171.614	1873
4173.166	1898
4174.717	1935
4176.267	1895
4177.817	1846
4179.368	1915
4180.917	1892
4182.466	1848
4184.016	1903
4185.564	1949
4187.112	1836
4188.66	1890
4190.207	1872
4191.754	1857
4193.301	1906
4194.848	1882
4196.394	1830
4197.94	1859
4199.484	1877
4201.03	1825
4202.575	1860
4204.12	1857
4205.663	1847
4207.207	1827
4208.75	1892
4210.292	1876
4211.836	1862
4213.378	1787
4214.92	1909
4216.46	1804
4218.002	1842
4219.544	1839
4221.083	1805
4222.625	1902
4224.164	1850
4225.703	1866
4227.244	1832
4228.782	1850
4230.32	1890
4231.857	1889
4233.395	1817
4234.933	1874
4236.471	1853
4238.007	1825
4239.542	1795
4241.078	1808
4242.614	1876
4244.15	1873
4245.685	1829
4247.219	1830
4248.753	1784
4250.287	1805
4251.82	1848
4253.354	1806
4254.887	1786
4256.419	1852
4257.951	1799
4259.483	1848
4261.016	1780
4262.547	1854
4264.078	1801
4265.608	1810
4267.137	1830
4268.668	1803
4270.197	1831
4271.727	1850
4273.254	1817
4274.783	1831
4276.311	1813
4277.84	1825
4279.366	1770
4280.894	1789
4282.42	1814
4283.946	1699
4285.473	1788
4286.998	1844
4288.523	1783
4290.047	1743
4291.572	1809
4293.096	1792
4294.622	1775
4296.144	1794
4297.668	1777
4299.19	1744
4300.713	1790
4302.236	1799
4303.758	1780
4305.279	1792
4306.799	1823
4308.321	1808
4309.842	1764
4311.361	1810
4312.882	1763
4314.401	1789
