400.0961	6518
402.6185	6513
405.1424	6616
407.6635	6663
410.1838	6623
412.7035	6609
415.2225	6694
417.7388	6771
420.2585	6662
422.7754	6787
425.2917	6814
427.8072	6854
430.3221	6928
432.8363	7037
435.3498	7006
437.8626	7040
440.3727	7009
442.8841	7040
445.3969	7049
447.907	7170
450.4142	7040
452.9229	7055
455.4289	6911
457.9362	7180
460.4449	7043
462.9488	7069
465.454	7138
467.9566	7047
470.4604	7005
472.9637	7066
475.4662	7121
477.966	7141
480.4671	7137
482.9656	7210
485.4633	7039
487.9645	7223
490.4608	7261
492.9566	7263
495.4536	7119
497.948	7352
500.4437	7142
502.9387	7293
505.431	7321
507.9226	7356
510.4136	7236
512.9079	7362
515.3975	7386
517.8864	7320
520.3746	7325
522.8622	7329
525.3491	7374
527.8394	7377
530.3249	7417
532.8098	7341
535.2939	7393
537.7774	7434
540.2623	7453
542.7444	7466
545.2259	7302
547.7067	7398
550.1868	7438
552.6683	7559
555.147	7425
557.6231	7420
560.1005	7472
562.5773	7467
565.0534	7407
567.5308	7490
570.0056	7616
572.4776	7562
574.951	7528
577.4237	7609
579.8978	7624
582.3671	7766
584.8378	7729
587.3079	7647
589.7773	7670
592.244	7681
594.714	7744
597.1793	7695
599.6461	7653
602.1121	7579
604.5754	7612
607.0421	7598
609.5042	7574
611.9675	7623
614.4282	7627
616.8902	7619
619.3515	7613
621.8122	7684
624.2702	7772
626.7296	7605
629.1863	7540
631.6423	7683
634.1017	7544
636.5563	7742
639.0104	7613
641.4658	7694
643.9185	7704
646.3725	7653
648.8239	7651
651.2766	7824
653.7266	7790
656.176	7847
658.6247	7744
661.0748	7674
663.5242	7844
665.9709	7889
668.417	7820
670.8624	7817
673.3092	7838
675.7533	7816
678.1968	7804
680.6395	7787
683.0817	7706
685.5251	7985
687.9659	7960
690.4061	7960
692.8456	7887
695.2844	7876
697.7226	7941
700.1621	7894
702.599	8060
705.0332	8024
707.4688	7935
709.9036	7980
712.3399	7934
714.7735	8018
717.2044	8153
719.6367	8212
722.0683	8234
724.4993	8072
726.9296	8178
729.3593	8205
731.7883	8225
734.2147	8196
736.6423	8347
739.0714	8281
741.4958	8225
743.9216	8334
746.3447	8392
748.7691	8484
751.1929	8363
753.616	8474
756.0366	8451
758.4584	8430
760.8776	8532
763.2982	8424
765.718	8510
768.1373	8490
770.5539	8482
772.9698	8509
775.3871	8505
777.8038	8468
780.2178	8637
782.6332	8418
785.0459	8445
787.458	8612
789.8714	8526
792.2842	8478
794.6943	8465
797.1038	8536
799.5127	8460
801.9209	8584
804.3324	8475
806.7393	8670
809.1456	8514
811.5513	8577
813.9562	8621
816.3625	8542
818.7663	8626
821.1693	8626
823.5718	8480
825.9735	8645
828.3746	8634
830.7771	8535
833.177	8549
835.5762	8626
837.9747	8638
840.3727	8794
842.772	8629
845.1666	8724
847.5626	8606
849.958	8795
852.3527	8833
854.7488	8737
857.1403	8794
859.5331	8778
861.9253	8792
864.3168	8783
866.7057	8661
869.098	8784
871.4876	8746
873.8746	8683
876.263	8721
878.6487	8665
881.0378	8821
883.4243	8551
885.8081	8749
888.1933	8773
890.5759	8696
892.9598	8672
895.343	8748
897.7256	8646
900.1057	8791
902.4871	8817
904.8659	8835
907.246	8837
909.6254	8923
912.0023	8778
914.3786	8944
916.7562	9041
919.1331	9057
921.5074	9055
923.8831	9087
926.2562	9081
928.6287	9152
931.0005	9187
933.3757	8999
935.7462	9145
938.1162	9135
940.4855	9241
942.8542	9289
945.2242	9282
947.5916	9422
949.9584	9595
952.3266	9717
954.6921	10041
957.0571	10203
959.4233	10488
961.787	10336
964.15	10312
966.5125	10163
968.8742	9808
971.2354	9501
973.5959	9409
975.9559	9322
978.3151	9148
980.6738	9230
983.0338	8966
985.3912	9145
987.7461	9167
990.1022	9006
992.4578	9126
994.8127	9135
997.1689	9095
999.5207	9177
1001.874	9216
1004.226	9187
1006.576	9086
1008.929	9126
1011.28	9045
1013.628	8966
1015.977	9178
1018.324	9084
1020.674	9226
1023.019	9074
1025.366	9219
1027.713	9023
1030.056	9074
1032.399	9336
1034.746	9185
1037.087	9150
1039.431	9113
1041.771	9129
1044.113	9212
1046.454	9176
1048.793	9276
1051.133	9326
1053.471	9267
1055.807	9121
1058.146	9317
1060.483	9170
1062.818	9178
1065.153	9259
1067.489	9344
1069.822	9196
1072.156	9210
1074.488	9224
1076.82	9322
1079.15	9264
1081.48	9130
1083.814	9397
1086.143	9305
1088.471	9363
1090.799	9210
1093.126	9227
1095.452	9304
1097.78	9297
1100.105	9296
1102.43	9333
1104.754	9189
1107.077	9248
1109.4	9420
1111.722	9265
1114.044	9385
1116.365	9297
1118.685	9331
1121.005	9326
1123.324	9244
1125.643	9347
1127.961	9332
1130.278	9396
1132.595	9377
1134.911	9351
1137.226	9380
1139.541	9411
1141.854	9546
1144.167	9436
1146.482	9335
1148.793	9469
1151.105	9477
1153.414	9516
1155.725	9499
1158.033	9510
1160.344	9390
1162.651	9265
1164.959	9437
1167.265	9433
1169.572	9357
1171.878	9338
1174.184	9347
1176.488	9335
1178.79	9446
1181.094	9439
1183.396	9384
1185.699	9404
1188.001	9340
1190.301	9384
1192.6	9430
1194.9	9441
1197.2	9298
1199.497	9369
1201.794	9525
1204.09	9313
1206.387	9403
1208.684	9453
1210.978	9481
1213.272	9512
1215.565	9387
1217.858	9353
1220.15	9565
1222.443	9509
1224.734	9482
1227.024	9436
1229.313	9364
1231.602	9650
1233.892	9629
1236.18	9615
1238.467	9625
1240.754	9722
1243.04	9653
1245.325	9736
1247.612	9799
1249.896	9815
1252.178	9685
1254.461	9792
1256.743	9807
1259.027	9644
1261.308	9667
1263.587	9749
1265.867	9708
1268.146	9710
1270.425	9913
1272.703	9643
1274.981	9770
1277.256	9795
1279.532	9698
1281.808	9706
1284.083	9596
1286.358	9748
1288.63	9672
1290.904	9656
1293.175	9839
1295.449	9598
1297.719	9613
1299.99	9541
1302.259	9553
1304.529	9531
1306.798	9639
1309.065	9592
1311.333	9574
1313.599	9550
1315.866	9473
1318.131	9615
1320.396	9799
1322.66	9630
1324.925	9642
1327.187	9770
1329.448	9681
1331.711	9805
1333.974	9613
1336.234	9675
1338.493	9648
1340.752	9666
1343.01	9422
1345.269	9581
1347.526	9736
1349.784	9609
1352.04	9656
1354.295	9634
1356.552	9721
1358.806	9619
1361.059	9804
1363.312	9618
1365.564	9645
1367.818	9694
1370.069	9731
1372.318	9568
1374.568	9679
1376.817	9753
1379.066	9700
1381.316	9639
1383.564	9903
1385.809	9704
1388.056	9606
1390.301	9792
1392.549	9740
1394.793	9862
1397.036	9901
1399.279	9997
1401.522	9929
1403.763	9858
1406.007	9860
1408.248	9791
1410.487	9846
1412.727	9774
1414.965	9919
1417.205	9915
1419.442	10045
1421.68	9774
1423.915	10006
1426.152	9898
1428.388	10005
1430.623	9941
1432.857	9982
1435.091	9974
1437.323	10068
1439.556	10202
1441.789	10019
1444.019	10019
1446.25	9969
1448.48	10062
1450.708	10031
1452.938	10228
1455.167	10197
1457.394	9990
1459.62	10095
1461.846	10197
1464.073	10137
1466.299	10152
1468.523	10131
1470.746	10104
1472.969	9841
1475.191	9923
1477.415	9902
1479.636	9957
1481.858	9845
1484.078	9884
1486.298	9756
1488.518	9823
1490.736	9870
1492.954	9881
1495.169	9757
1497.386	9758
1499.602	9786
1501.819	9599
1504.034	9589
1506.248	9929
1508.462	9592
1510.675	9666
1512.888	9657
1515.1	9692
1517.311	9736
1519.522	9689
1521.732	9561
1523.942	9733
1526.151	9771
1528.36	9631
1530.566	9614
1532.773	9966
1534.98	9835
1537.187	9755
1539.392	9824
1541.596	9898
1543.801	9648
1546.005	9789
1548.208	9701
1550.411	9901
1552.612	9927
1554.814	9819
1557.013	9923
1559.212	9919
1561.414	9972
1563.612	9924
1565.811	9819
1568.007	9872
1570.203	9923
1572.403	9874
1574.598	10042
1576.792	9971
1578.988	9923
1581.181	9902
1583.376	9989
1585.568	10032
1587.761	9888
1589.952	10134
1592.143	9842
1594.333	10052
1596.524	10041
1598.715	10024
1600.903	10026
1603.091	10049
1605.278	10076
1607.466	10106
1609.652	10072
1611.838	10013
1614.023	10081
1616.207	9972
1618.391	9994
1620.576	9888
1622.759	10147
1624.941	10057
1627.123	10133
1629.304	9966
1631.484	10043
1633.664	10092
1635.844	10115
1638.022	10119
1640.201	10131
1642.38	10157
1644.556	10099
1646.732	10141
1648.908	10112
1651.084	10222
1653.257	10158
1655.433	10266
1657.607	10146
1659.779	10095
1661.951	10288
1664.122	10294
1666.295	9990
1668.467	10187
1670.635	10105
1672.805	10104
1674.973	9987
1677.142	10213
1679.31	10163
1681.478	10041
1683.644	10095
1685.81	10145
1687.975	10051
1690.142	10108
1692.305	10081
1694.468	9994
1696.632	10147
1698.794	10073
1700.957	9942
1703.119	10027
1705.279	9953
1707.439	10030
1709.598	10098
1711.758	10091
1713.917	10022
1716.075	9963
1718.231	9972
1720.388	10005
1722.543	10060
1724.702	10033
1726.856	9993
1729.01	9979
1731.164	9945
1733.317	10046
1735.471	10037
1737.623	10113
1739.774	9908
1741.925	10042
1744.075	9989
1746.225	10062
1748.376	9921
1750.524	10048
1752.672	10024
1754.82	9977
1756.965	10049
1759.113	10044
1761.259	10183
1763.405	10108
1765.549	10125
1767.694	10077
1769.836	10081
1771.981	10053
1774.123	10106
1776.264	10080
1778.405	10076
1780.546	10029
1782.687	10089
1784.827	10032
1786.966	9993
1789.103	10004
1791.242	10114
1793.381	10281
1795.517	10042
1797.653	10091
1799.788	10131
1801.923	10196
1804.057	10055
1806.193	10159
1808.326	10118
1810.457	10173
1812.59	9995
1814.721	10208
1816.855	10072
1818.984	10139
1821.113	10170
1823.244	9959
1825.372	10114
1827.499	10084
1829.63	10047
1831.756	10029
1833.882	9943
1836.007	10156
1838.132	9837
1840.26	10175
1842.384	10033
1844.507	9983
1846.63	9997
1848.752	10027
1850.875	10040
1852.996	9912
1855.118	9939
1857.238	9998
1859.358	10054
1861.477	9983
1863.597	9963
1865.715	9943
1867.832	10040
1869.948	9851
1872.064	9855
1874.181	9902
1876.297	10125
1878.411	9891
1880.526	10000
1882.639	10111
1884.752	9984
1886.865	10182
1888.977	9928
1891.089	10098
1893.2	10026
1895.308	10022
1897.42	10019
1899.53	9980
1901.639	10111
1903.745	10111
1905.853	10094
1907.962	10096
1910.067	9979
1912.174	9922
1914.278	10050
1916.383	9946
1918.486	10184
1920.592	10018
1922.694	10172
1924.797	10158
1926.898	10055
1929	10172
1931.102	10106
1933.203	10090
1935.301	10053
1937.401	10072
1939.499	10089
1941.598	10158
1943.697	10030
1945.793	10219
1947.888	10188
1949.985	10173
1952.08	10149
1954.176	10171
1956.269	10118
1958.364	10027
1960.457	10107
1962.549	10145
1964.642	10121
1966.733	10034
1968.823	10075
1970.913	10008
1973.005	9997
1975.093	10175
1977.184	10024
1979.271	10035
1981.359	10014
1983.446	10045
1985.532	10097
1987.619	10032
1989.705	10069
1991.789	10099
1993.874	9917
1995.956	9968
1998.041	9941
2000.123	10083
2002.206	9925
2004.287	9859
2006.368	9972
2008.449	10045
2010.529	9952
2012.609	9954
2014.688	10008
2016.766	9869
2018.843	10070
2020.922	9883
2022.999	10013
2025.074	9890
2027.15	10006
2029.225	10056
2031.299	9827
2033.375	9981
2035.447	9942
2037.52	9968
2039.592	9975
2041.664	9954
2043.736	10057
2045.807	9901
2047.876	9918
2049.947	9973
2052.015	9880
2054.086	9959
2056.153	9913
2058.221	9973
2060.288	9815
2062.353	10051
2064.42	9959
2066.486	9923
2068.55	9933
2070.614	9961
2072.678	9959
2074.741	10009
2076.805	9926
2078.866	10088
2080.929	9954
2082.99	9982
2085.049	9961
2087.109	10108
2089.17	9825
2091.228	9966
2093.286	9994
2095.344	9981
2097.4	9943
2099.46	9817
2101.516	9869
2103.572	10015
2105.626	9929
2107.679	9999
2109.735	10013
2111.788	9889
2113.841	10016
2115.894	9836
2117.945	9982
2119.997	9935
2122.049	9885
2124.1	10003
2126.148	9906
2128.197	9856
2130.246	9943
2132.296	9844
2134.342	9960
2136.39	9834
2138.437	9813
2140.483	9926
2142.527	9991
2144.574	9882
2146.619	9828
2148.661	9907
2150.705	9732
2152.747	9957
2154.792	9851
2156.832	9967
2158.874	9936
2160.915	9801
2162.954	9879
2164.995	9847
2167.034	9844
2169.072	9759
2171.111	9990
2173.148	9733
2175.186	9718
2177.223	9688
2179.258	9637
2181.294	9890
2183.328	9686
2185.362	9813
2187.398	9679
2189.431	9744
2191.463	9782
2193.495	9865
2195.528	9782
2197.56	9810
2199.59	9757
2201.62	9725
2203.649	9581
2205.678	9666
2207.708	9757
2209.737	9610
2211.764	9680
2213.791	9698
2215.817	9695
2217.843	9624
2219.87	9654
2221.895	9656
2223.919	9626
2225.942	9644
2227.966	9635
2229.988	9544
2232.012	9552
2234.032	9621
2236.054	9685
2238.074	9591
2240.095	9465
2242.116	9603
2244.135	9606
2246.153	9626
2248.171	9669
2250.188	9674
2252.208	9577
2254.223	9677
2256.239	9664
2258.255	9775
2260.269	9544
2262.283	9462
2264.3	9652
2266.312	9564
2268.325	9644
2270.336	9511
2272.349	9607
2274.362	9511
2276.372	9630
2278.383	9656
2280.392	9533
2282.402	9525
2284.409	9624
2286.418	9577
2288.427	9517
2290.433	9421
2292.441	9734
2294.446	9541
2296.453	9636
2298.459	9720
2300.463	9571
2302.466	9579
2304.471	9648
2306.475	9717
2308.477	9661
2310.478	9547
2312.481	9556
2314.481	9581
2316.481	9518
2318.482	9510
2320.482	9556
2322.48	9548
2324.48	9548
2326.478	9514
2328.476	9433
2330.473	9521
2332.469	9429
2334.465	9565
2336.46	9526
2338.454	9429
2340.45	9515
2342.444	9454
2344.437	9436
2346.43	9392
2348.421	9319
2350.414	9301
2352.405	9232
2354.396	9368
2356.386	9295
2358.376	9336
2360.366	9328
2362.355	9370
2364.343	9273
2366.331	9283
2368.317	9376
2370.304	9408
2372.292	9361
2374.278	9280
2376.262	9325
2378.247	9312
2380.23	9260
2382.216	9285
2384.199	9339
2386.181	9227
2388.163	9263
2390.144	9181
2392.127	9142
2394.107	9234
2396.087	9218
2398.066	9102
2400.046	9481
2402.023	9285
2404.004	9160
2405.981	9246
2407.957	9172
2409.934	9232
2411.91	9226
2413.886	9175
2415.862	9204
2417.836	9167
2419.809	9121
2421.784	9232
2423.756	9125
2425.73	9187
2427.701	9225
2429.672	9149
2431.644	9171
2433.615	9171
2435.586	9178
2437.555	9221
2439.523	9093
2441.491	9180
2443.459	9183
2445.428	9176
2447.395	9229
2449.361	9309
2451.327	9068
2453.292	9215
2455.257	9135
2457.223	9154
2459.187	9114
2461.15	9139
2463.113	9068
2465.076	9159
2467.039	9106
2468.999	9115
2470.96	9063
2472.921	9038
2474.881	9070
2476.841	8996
2478.8	9071
2480.759	9156
2482.717	9074
2484.675	8966
2486.63	8976
2488.589	9110
2490.545	9152
2492.5	9087
2494.455	9194
2496.408	9058
2498.364	9048
2500.318	9020
2502.27	9018
2504.223	8888
2506.174	9017
2508.126	9107
2510.078	9030
2512.03	8868
2513.979	9043
2515.927	8883
2517.877	8890
2519.826	9011
2521.775	8967
2523.722	9000
2525.668	8974
2527.616	8957
2529.561	8809
2531.508	8986
2533.452	8963
2535.398	9010
2537.342	8968
2539.284	8892
2541.229	8998
2543.173	8974
2545.114	8819
2547.055	9016
2548.996	8918
2550.938	8851
2552.878	8897
2554.817	8967
2556.756	8866
2558.695	8887
2560.633	9167
2562.572	8873
2564.509	8996
2566.445	8939
2568.382	8891
2570.317	8906
2572.254	8823
2574.189	8854
2576.123	8886
2578.057	8836
2579.99	8961
2581.923	8726
2583.855	8946
2585.788	9001
2587.719	8892
2589.65	8983
2591.579	8900
2593.511	8878
2595.44	8912
2597.37	8830
2599.297	9012
2601.225	8864
2603.153	8884
2605.08	8944
2607.007	8842
2608.932	8755
2610.858	8927
2612.782	9008
2614.709	9020
2616.632	8926
2618.556	8765
2620.478	8924
2622.401	8933
2624.324	9005
2626.247	8877
2628.167	8943
2630.088	8898
2632.008	8814
2633.928	8884
2635.848	8862
2637.766	8799
2639.684	9054
2641.603	8900
2643.519	8789
2645.437	8957
2647.353	8958
2649.27	8799
2651.184	8928
2653.099	8999
2655.014	8883
2656.928	8818
2658.842	8962
2660.755	8847
2662.667	8886
2664.579	8909
2666.491	8966
2668.402	8822
2670.312	8826
2672.222	8735
2674.132	8773
2676.042	8865
2677.951	8803
2679.859	8802
2681.766	8734
2683.674	8760
2685.582	8675
2687.488	8772
2689.392	8839
2691.298	8830
2693.202	8669
2695.107	8656
2697.012	8718
2698.914	8799
2700.817	8793
2702.72	8746
2704.622	8741
2706.524	8777
2708.425	8569
2710.326	8724
2712.225	8762
2714.125	8628
2716.024	8583
2717.923	8666
2719.822	8770
2721.719	8572
2723.616	8677
2725.512	8874
2727.41	8621
2729.305	8663
2731.201	8671
2733.095	8564
2734.99	8774
2736.884	8565
2738.778	8597
2740.67	8623
2742.562	8565
2744.455	8693
2746.346	8714
2748.238	8527
2750.129	8693
2752.018	8669
2753.907	8566
2755.797	8523
2757.687	8604
2759.575	8809
2761.462	8526
2763.349	8612
2765.237	8583
2767.124	8494
2769.009	8612
2770.894	8544
2772.779	8568
2774.663	8516
2776.547	8581
2778.431	8574
2780.314	8577
2782.197	8491
2784.078	8522
2785.96	8448
2787.842	8445
2789.723	8515
2791.603	8528
2793.483	8484
2795.362	8404
2797.241	8442
2799.121	8566
2800.997	8348
2802.874	8433
2804.751	8514
2806.628	8544
2808.506	8500
2810.38	8464
2812.255	8308
2814.13	8394
2816.003	8496
2817.878	8502
2819.752	8366
2821.623	8605
2823.496	8419
2825.368	8595
2827.238	8356
2829.111	8455
2830.98	8401
2832.851	8440
2834.719	8339
2836.589	8365
2838.458	8475
2840.327	8449
2842.193	8428
2844.061	8418
2845.927	8451
2847.794	8518
2849.66	8449
2851.525	8496
2853.39	8366
2855.254	8496
2857.117	8544
2858.983	8598
2860.845	8577
2862.707	8391
2864.569	8588
2866.431	8433
2868.293	8497
2870.154	8640
2872.013	8643
2873.873	8816
2875.733	8701
2877.592	8737
2879.451	8796
2881.309	8832
2883.166	8844
2885.022	8935
2886.879	8774
2888.736	8911
2890.591	8913
2892.446	8931
2894.301	8954
2896.155	8834
2898.009	8872
2899.863	8924
2901.716	8800
2903.568	8865
2905.419	8774
2907.27	8751
2909.123	8747
2910.973	8773
2912.824	8945
2914.673	8883
2916.521	8917
2918.372	9054
2920.22	9108
2922.067	8973
2923.914	9071
2925.761	9022
2927.607	9189
2929.455	9218
2931.301	9154
2933.144	9269
2934.99	9266
2936.833	9435
2938.678	9227
2940.522	9402
2942.364	9461
2944.207	9650
2946.048	9658
2947.891	9524
2949.731	9491
2951.571	9540
2953.412	9709
2955.25	9408
2957.09	9323
2958.93	9328
2960.767	9360
2962.606	9261
2964.443	9171
2966.279	9093
2968.116	9155
2969.953	9113
2971.788	8919
2973.623	8714
2975.457	8888
2977.292	8837
2979.127	8931
2980.959	8924
2982.792	8873
2984.624	8812
2986.455	8716
2988.288	8628
2990.119	8704
2991.949	8721
2993.779	8481
2995.608	8539
2997.439	8517
2999.268	8508
3001.096	8428
3002.923	8384
3004.751	8210
3006.578	8365
3008.406	8313
3010.232	8136
3012.057	8315
3013.883	8173
3015.706	8051
3017.532	8011
3019.356	8096
3021.179	8119
3023.002	8104
3024.823	7934
3026.646	8018
3028.469	7933
3030.289	7940
3032.11	7904
3033.93	7888
3035.749	7860
3037.57	7888
3039.39	7888
3041.207	7806
3043.026	7815
3044.842	7939
3046.661	7960
3048.477	7841
3050.294	7880
3052.109	7898
3053.925	7822
3055.739	7700
3057.555	7741
3059.368	7707
3061.181	7974
3062.995	7667
3064.807	7849
3066.62	7836
3068.433	7829
3070.243	7750
3072.054	7756
3073.865	7758
3075.675	7709
3077.485	7717
3079.293	7642
3081.102	7753
3082.911	7742
3084.719	7603
3086.527	7746
3088.333	7502
3090.139	7803
3091.945	7572
3093.75	7768
3095.557	7511
3097.361	7608
3099.165	7788
3100.969	7513
3102.772	7549
3104.575	7579
3106.379	7550
3108.181	7456
3109.982	7521
3111.783	7513
3113.584	7410
3115.386	7483
3117.186	7389
3118.985	7533
3120.783	7430
3122.582	7532
3124.381	7558
3126.179	7400
3127.975	7536
3129.772	7430
3131.569	7577
3133.365	7328
3135.161	7396
3136.956	7393
3138.751	7400
3140.544	7381
3142.338	7349
3144.132	7509
3145.925	7341
3147.717	7334
3149.509	7366
3151.301	7303
3153.091	7414
3154.884	7468
3156.673	7344
3158.462	7331
3160.252	7339
3162.041	7163
3163.831	7401
3165.618	7228
3167.405	7402
3169.193	7320
3170.979	7341
3172.767	7341
3174.553	7143
3176.338	7281
3178.123	7224
3179.907	7223
3181.692	7281
3183.477	7325
3185.259	7252
3187.042	7139
3188.824	7363
3190.607	7271
3192.389	7151
3194.17	7271
3195.951	7246
3197.73	7053
3199.51	7161
3201.289	7210
3203.07	7217
3204.848	7229
3206.626	7087
3208.403	7217
3210.18	7277
3211.959	7206
3213.735	7171
3215.511	7194
3217.285	7118
3219.06	7144
3220.836	7164
3222.611	7178
3224.384	7200
3226.158	7262
3227.929	7118
3229.702	7076
3231.476	7117
3233.248	7106
3235.018	6945
3236.789	7242
3238.56	7228
3240.33	7010
3242.1	7102
3243.869	7167
3245.637	7122
3247.405	7018
3249.172	7200
3250.941	7083
3252.707	7046
3254.474	7067
3256.24	7019
3258.006	7036
3259.772	7165
3261.537	7119
3263.301	7087
3265.065	7126
3266.828	7168
3268.592	7015
3270.355	7025
3272.117	7030
3273.878	7002
3275.64	7134
3277.401	7087
3279.162	7114
3280.922	7071
3282.682	6997
3284.441	7143
3286.199	6939
3287.959	7007
3289.716	7033
3291.475	7052
3293.232	7057
3294.988	7150
3296.744	7027
3298.501	6986
3300.256	7046
3302.011	6977
3303.766	6967
3305.52	7021
3307.275	7034
3309.028	6949
3310.781	6990
3312.533	7117
3314.285	7094
3316.038	7011
3317.789	7052
3319.54	6959
3321.289	6970
3323.039	6885
3324.789	6992
3326.539	6968
3328.288	6958
3330.035	7067
3331.783	6931
3333.531	6974
3335.28	6917
3337.025	6797
3338.771	6928
3340.518	6937
3342.262	6850
3344.009	6961
3345.753	6900
3347.497	6828
3349.24	6949
3350.983	6816
3352.726	7095
3354.469	6829
3356.212	6885
3357.952	6788
3359.694	6908
3361.434	6823
3363.176	6887
3364.916	6832
3366.654	6808
3368.394	6927
3370.132	6906
3371.871	6719
3373.61	6730
3375.346	6742
3377.083	6782
3378.82	6692
3380.556	6789
3382.292	6750
3384.027	6851
3385.763	6727
3387.497	6718
3389.231	6743
3390.965	6692
3392.698	6610
3394.431	6605
3396.164	6669
3397.896	6730
3399.627	6553
3401.36	6686
3403.09	6791
3404.82	6738
3406.55	6710
3408.279	6554
3410.01	6691
3411.738	6667
3413.467	6731
3415.194	6676
3416.92	6713
3418.647	6657
3420.375	6678
3422.102	6761
3423.827	6618
3425.553	6588
3427.277	6595
3429.003	6565
3430.727	6671
3432.451	6555
3434.173	6559
3435.896	6585
3437.62	6545
3439.343	6654
3441.063	6542
3442.785	6532
3444.505	6513
3446.226	6577
3447.948	6424
3449.666	6457
3451.386	6515
3453.104	6454
3454.823	6490
3456.541	6367
3458.259	6380
3459.976	6413
3461.693	6448
3463.408	6446
3465.125	6421
3466.841	6420
3468.556	6331
3470.271	6405
3471.985	6324
3473.698	6296
3475.414	6441
3477.126	6359
3478.838	6343
3480.55	6347
3482.263	6341
3483.975	6291
3485.686	6372
3487.396	6327
3489.106	6372
3490.817	6225
3492.526	6329
3494.236	6255
3495.944	6358
3497.652	6365
3499.359	6260
3501.066	6338
3502.775	6307
3504.481	6250
3506.187	6195
3507.893	6222
3509.598	6176
3511.304	6155
3513.009	6183
3514.713	6131
3516.417	6186
3518.12	6212
3519.821	6105
3521.525	6158
3523.228	6099
3524.929	6178
3526.631	6085
3528.33	6100
3530.032	6127
3531.733	6166
3533.433	6174
3535.131	5984
3536.83	6137
3538.529	6006
3540.227	6091
3541.925	6093
3543.623	6072
3545.319	6091
3547.016	6086
3548.712	6087
3550.408	5957
3552.103	6065
3553.798	5983
3555.491	6031
3557.188	6034
3558.88	5975
3560.574	5952
3562.266	5990
3563.959	5978
3565.651	5941
3567.343	5998
3569.035	5915
3570.725	5873
3572.415	5949
3574.106	5861
3575.797	5978
3577.485	5972
3579.174	5946
3580.863	5936
3582.551	5920
3584.238	5898
3585.926	5860
3587.613	5775
3589.3	5829
3590.986	5885
3592.671	5830
3594.357	5942
3596.042	5847
3597.726	5779
3599.41	5887
3601.094	5863
3602.778	5816
3604.461	5731
3606.143	5826
3607.825	5684
3609.507	5829
3611.188	5741
3612.87	5738
3614.551	5780
3616.229	5710
3617.909	5727
3619.589	5738
3621.269	5780
3622.948	5717
3624.625	5644
3626.302	5706
3627.98	5658
3629.657	5631
3631.334	5700
3633.01	5638
3634.686	5628
3636.361	5502
3638.036	5641
3639.712	5589
3641.385	5683
3643.06	5640
3644.732	5666
3646.405	5572
3648.08	5626
3649.751	5680
3651.424	5645
3653.094	5675
3654.766	5519
3656.436	5555
3658.106	5593
3659.777	5601
3661.446	5582
3663.115	5475
3664.783	5558
3666.452	5531
3668.121	5565
3669.788	5497
3671.454	5529
3673.121	5588
3674.789	5527
3676.455	5559
3678.12	5541
3679.784	5503
3681.45	5475
3683.114	5528
3684.779	5485
3686.442	5495
3688.105	5491
3689.768	5495
3691.43	5411
3693.093	5496
3694.754	5483
3696.415	5468
3698.076	5422
3699.736	5517
3701.396	5330
3703.057	5440
3704.716	5419
3706.375	5355
3708.034	5404
3709.692	5365
3711.351	5440
3713.008	5345
3714.665	5444
3716.321	5450
3717.977	5443
3719.634	5379
3721.29	5430
3722.945	5370
3724.598	5392
3726.253	5402
3727.907	5379
3729.561	5288
3731.214	5262
3732.867	5431
3734.518	5398
3736.171	5342
3737.824	5223
3739.474	5322
3741.125	5338
3742.775	5381
3744.425	5285
3746.074	5359
3747.725	5280
3749.373	5299
3751.022	5392
3752.669	5271
3754.318	5283
3755.966	5224
3757.612	5337
3759.259	5313
3760.905	5225
3762.55	5274
3764.197	5269
3765.842	5249
3767.486	5254
3769.131	5164
3770.774	5207
3772.417	5144
3774.061	5204
3775.705	5163
3777.347	5213
3778.988	5155
3780.629	5193
3782.271	5098
3783.912	5168
3785.552	5107
3787.192	5149
3788.831	5145
3790.472	5223
3792.112	5125
3793.75	5160
3795.388	5155
3797.024	5088
3798.661	5095
3800.3	5144
3801.936	5004
3803.572	5178
3805.208	5119
3806.844	5138
3808.48	5163
3810.115	5083
3811.748	4970
3813.382	5251
3815.016	5114
3816.649	5133
3818.283	5097
3819.914	5106
3821.547	5052
3823.178	4996
3824.809	5097
3826.441	5114
3828.072	4978
3829.701	4990
3831.331	4861
3832.96	4991
3834.591	5079
3836.219	4983
3837.847	4961
3839.475	4889
3841.102	4949
3842.729	4937
3844.357	5028
3845.984	4940
3847.609	4998
3849.234	4956
3850.86	4904
3852.485	4893
3854.11	4989
3855.734	4935
3857.357	4869
3858.981	4941
3860.603	5052
3862.227	5059
3863.848	4849
3865.471	4824
3867.092	4863
3868.713	4898
3870.334	4844
3871.954	4894
3873.575	4875
3875.194	4900
3876.813	4882
3878.433	4863
3880.051	4797
3881.669	4791
3883.286	4804
3884.904	4958
3886.52	4873
3888.138	4905
3889.754	4748
3891.37	4885
3892.985	4959
3894.6	4835
3896.216	4860
3897.831	4725
3899.444	4824
3901.058	4811
3902.67	4748
3904.283	4790
3905.897	4786
3907.509	4860
3909.121	4807
3910.731	4782
3912.342	4758
3913.954	4878
3915.563	4799
3917.174	4721
3918.783	4774
3920.391	4743
3922.002	4789
3923.611	4797
3925.218	4844
3926.826	4797
3928.432	4707
3930.039	4721
3931.647	4801
3933.253	4691
3934.859	4720
3936.464	4757
3938.068	4836
3939.675	4716
3941.278	4774
3942.883	4749
3944.486	4732
3946.089	4703
3947.692	4657
3949.295	4649
3950.898	4737
3952.499	4817
3954.1	4669
3955.7	4581
3957.303	4681
3958.903	4761
3960.502	4629
3962.101	4662
3963.7	4606
3965.301	4684
3966.899	4679
3968.497	4580
3970.094	4468
3971.691	4554
3973.288	4671
3974.885	4713
3976.481	4702
3978.077	4641
3979.672	4618
3981.267	4525
3982.863	4678
3984.457	4526
3986.051	4572
3987.645	4588
3989.238	4631
3990.831	4491
3992.425	4469
3994.017	4487
3995.607	4544
3997.199	4561
3998.79	4391
4000.382	4597
4001.973	4475
4003.561	4495
4005.151	4413
4006.741	4522
4008.331	4378
4009.918	4390
4011.507	4371
4013.095	4459
4014.681	4495
4016.269	4413
4017.856	4433
4019.443	4368
4021.028	4399
4022.614	4322
4024.199	4522
4025.785	4476
4027.37	4449
4028.953	4415
4030.536	4418
4032.12	4406
4033.704	4312
4035.287	4436
4036.869	4429
4038.45	4365
4040.032	4288
4041.613	4360
4043.195	4292
4044.776	4348
4046.356	4268
4047.935	4391
4049.515	4338
4051.095	4363
4052.674	4380
4054.251	4245
4055.829	4351
4057.406	4314
4058.985	4278
4060.562	4346
4062.139	4268
4063.715	4375
4065.29	4202
4066.865	4320
4068.442	4231
4070.016	4231
4071.59	4280
4073.164	4238
4074.738	4226
4076.312	4288
4077.885	4211
4079.458	4193
4081.03	4163
4082.602	4183
4084.173	4267
4085.745	4193
4087.315	4165
4088.886	4154
4090.456	4321
4092.026	4206
4093.596	4297
4095.165	4261
4096.734	4186
4098.301	4180
4099.869	4133
4101.437	4175
4103.006	4199
4104.572	4129
4106.139	4134
4107.704	4140
4109.27	4070
4110.837	4142
4112.401	4124
4113.966	4154
4115.53	4132
4117.094	4123
4118.659	4107
4120.223	4152
4121.785	4132
4123.347	4110
4124.909	4050
4126.471	4100
4128.034	4027
4129.595	4070
4131.155	4017
4132.716	4082
4134.275	4026
4135.836	4050
4137.395	4052
4138.955	4001
4140.513	4081
4142.071	4071
4143.628	4036
4145.188	3997
4146.745	4036
4148.302	4064
4149.858	3927
4151.414	4052
4152.971	3989
4154.526	4044
4156.081	3997
4157.635	4002
4159.189	3967
4160.745	4028
4162.298	3943
4163.852	3950
4165.405	3905
4166.957	3935
4168.51	3982
4170.063	3894
4171.614	3928
4173.166	3931
4174.717	3952
4176.267	3949
4177.817	3955
4179.368	3905
4180.917	3912
4182.466	3946
4184.016	3920
4185.564	3828
4187.112	3936
4188.66	3851
4190.207	3784
4191.754	3813
4193.301	3957
4194.848	3863
4196.394	3801
4197.94	3870
4199.484	3895
4201.03	3861
4202.575	3825
4204.12	3827
4205.663	3826
4207.207	3883
4208.75	3833
4210.292	3835
4211.836	3808
4213.378	3794
4214.92	3808
4216.46	3775
4218.002	3799
4219.544	3737
4221.083	3702
4222.625	3834
4224.164	3800
4225.703	3761
4227.244	3855
4228.782	3806
4230.32	3807
4231.857	3770
4233.395	3785
4234.933	3859
4236.471	3767
4238.007	3785
4239.542	3666
4241.078	3762
4242.614	3733
4244.15	3807
4245.685	3727
4247.219	3711
4248.753	3815
4250.287	3773
4251.82	3683
4253.354	3705
4254.887	3664
4256.419	3732
4257.951	3631
4259.483	3677
4261.016	3710
4262.547	3730
4264.078	3635
4265.608	3708
4267.137	3817
4268.668	3677
4270.197	3803
4271.727	3671
4273.254	3696
4274.783	3693
4276.311	3692
4277.84	3609
4279.366	3610
4280.894	3637
4282.42	3669
4283.946	3641
4285.473	3693
4286.998	3596
4288.523	3587
4290.047	3673
4291.572	3659
4293.096	3595
4294.622	3594
4296.144	3577
4297.668	3658
4299.19	3625
4300.713	3664
4302.236	3519
4303.758	3556
4305.279	3560
4306.799	3552
4308.321	3503
4309.842	3626
4311.361	3616
4312.882	3580
4314.401	3569
