400.0961	3131
402.6185	3108
405.1424	3062
407.6635	3176
410.1838	3221
412.7035	3165
415.2225	3212
417.7388	3233
420.2585	3171
422.7754	3224
425.2917	3353
427.8072	3311
430.3221	3441
432.8363	3477
435.3498	3299
437.8626	3358
440.3727	3343
442.8841	3383
445.3969	3380
447.907	3379
450.4142	3379
452.9229	3417
455.4289	3315
457.9362	3401
460.4449	3311
462.9488	3360
465.454	3274
467.9566	3394
470.4604	3349
472.9637	3295
475.4662	3296
477.966	3320
480.4671	3291
482.9656	3361
485.4633	3309
487.9645	3349
490.4608	3364
492.9566	3395
495.4536	3366
497.948	3361
500.4437	3364
502.9387	3350
505.431	3348
507.9226	3426
510.4136	3441
512.9079	3413
515.3975	3470
517.8864	3413
520.3746	3437
522.8622	3457
525.3491	3395
527.8394	3454
530.3249	3387
532.8098	3401
535.2939	3468
537.7774	3403
540.2623	3427
542.7444	3421
545.2259	3442
547.7067	3407
550.1868	3455
552.6683	3422
555.147	3491
557.6231	3485
560.1005	3467
562.5773	3500
565.0534	3476
567.5308	3500
570.0056	3484
572.4776	3472
574.951	3581
577.4237	3596
579.8978	3581
582.3671	3620
584.8378	3643
587.3079	3638
589.7773	3566
592.244	3671
594.714	3607
597.1793	3677
599.6461	3626
602.1121	3558
604.5754	3582
607.0421	3544
609.5042	3575
611.9675	3549
614.4282	3600
616.8902	3468
619.3515	3566
621.8122	3539
624.2702	3579
626.7296	3599
629.1863	3508
631.6423	3460
634.1017	3541
636.5563	3581
639.0104	3516
641.4658	3550
643.9185	3523
646.3725	3503
648.8239	3520
651.2766	3515
653.7266	3580
656.176	3635
658.6247	3653
661.0748	3619
663.5242	3551
665.9709	3628
668.417	3617
670.8624	3524
673.3092	3613
675.7533	3633
678.1968	3638
680.6395	3674
683.0817	3655
685.5251	3681
687.9659	3618
690.4061	3688
692.8456	3643
695.2844	3671
697.7226	3623
700.1621	3715
702.599	3694
705.0332	3668
707.4688	3674
709.9036	3665
712.3399	3653
714.7735	3751
717.2044	3694
719.6367	3703
722.0683	3703
724.4993	3755
726.9296	3806
729.3593	3778
731.7883	3723
734.2147	3824
736.6423	3828
739.0714	3820
741.4958	3826
743.9216	3840
746.3447	3740
748.7691	3844
751.1929	3845
753.616	3809
756.0366	3817
758.4584	3847
760.8776	3939
763.2982	3825
765.718	3845
768.1373	3889
770.5539	3865
772.9698	3961
775.3871	3893
777.8038	4021
780.2178	3892
782.6332	3840
785.0459	3911
787.458	3863
789.8714	4025
792.2842	3907
794.6943	3794
797.1038	3864
799.5127	3895
801.9209	3965
804.3324	3959
806.7393	3880
809.1456	3890
811.5513	3960
813.9562	4003
816.3625	3901
818.7663	3936
821.1693	4056
823.5718	3873
825.9735	3954
828.3746	3916
830.7771	4024
833.177	3965
835.5762	3960
837.9747	4043
840.3727	4104
842.772	4057
845.1666	3943
847.5626	4095
849.958	4085
852.3527	4095
854.7488	4103
857.1403	4007
859.5331	4129
861.9253	4054
864.3168	4025
866.7057	4060
869.098	4031
871.4876	4097
873.8746	4069
876.263	4004
878.6487	4020
881.0378	4055
883.4243	4060
885.8081	4076
888.1933	4092
890.5759	3999
892.9598	4005
895.343	4072
897.7256	4088
900.1057	4107
902.4871	4157
904.8659	4095
907.246	4075
909.6254	4046
912.0023	4158
914.3786	4190
916.7562	4132
919.1331	4305
921.5074	4367
923.8831	4374
926.2562	4313
928.6287	4352
931.0005	4271
933.3757	4363
935.7462	4365
938.1162	4286
940.4855	4455
942.8542	4534
945.2242	4423
947.5916	4600
949.9584	4737
952.3266	4945
954.6921	5121
957.0571	5344
959.4233	5503
961.787	5621
964.15	5452
966.5125	5359
968.8742	5104
971.2354	4958
973.5959	4622
975.9559	4541
978.3151	4410
980.6738	4300
983.0338	4275
985.3912	4260
987.7461	4200
990.1022	4239
992.4578	4214
994.8127	4303
997.1689	4200
999.5207	4234
1001.874	4272
1004.226	4253
1006.576	4314
1008.929	4300
1011.28	4226
1013.628	4208
1015.977	4223
1018.324	4264
1020.674	4193
1023.019	4346
1025.366	4300
1027.713	4231
1030.056	4406
1032.399	4345
1034.746	4307
1037.087	4287
1039.431	4377
1041.771	4244
1044.113	4408
1046.454	4386
1048.793	4304
1051.133	4329
1053.471	4361
1055.807	4329
1058.146	4336
1060.483	4384
1062.818	4347
1065.153	4354
1067.489	4452
1069.822	4420
1072.156	4427
1074.488	4546
1076.82	4523
1079.15	4444
1081.48	4460
1083.814	4407
1086.143	4414
1088.471	4375
1090.799	4355
1093.126	4258
1095.452	4410
1097.78	4355
1100.105	4319
1102.43	4327
1104.754	4320
1107.077	4449
1109.4	4340
1111.722	4308
1114.044	4406
1116.365	4354
1118.685	4253
1121.005	4326
1123.324	4416
1125.643	4266
1127.961	4275
1130.278	4375
1132.595	4212
1134.911	4229
1137.226	4262
1139.541	4342
1141.854	4292
1144.167	4326
1146.482	4314
1148.793	4326
1151.105	4342
1153.414	4378
1155.725	4358
1158.033	4342
1160.344	4207
1162.651	4404
1164.959	4317
1167.265	4431
1169.572	4396
1171.878	4279
1174.184	4391
1176.488	4377
1178.79	4433
1181.094	4386
1183.396	4357
1185.699	4363
1188.001	4336
1190.301	4406
1192.6	4379
1194.9	4456
1197.2	4306
1199.497	4403
1201.794	4430
1204.09	4348
1206.387	4366
1208.684	4408
1210.978	4413
1213.272	4362
1215.565	4374
1217.858	4435
1220.15	4325
1222.443	4402
1224.734	4331
1227.024	4472
1229.313	4397
1231.602	4469
1233.892	4415
1236.18	4518
1238.467	4445
1240.754	4515
1243.04	4558
1245.325	4541
1247.612	4519
1249.896	4508
1252.178	4492
1254.461	4631
1256.743	4585
1259.027	4532
1261.308	4568
1263.587	4633
1265.867	4578
1268.146	4578
1270.425	4563
1272.703	4594
1274.981	4668
1277.256	4649
1279.532	4554
1281.808	4538
1284.083	4563
1286.358	4527
1288.63	4526
1290.904	4520
1293.175	4520
1295.449	4570
1297.719	4531
1299.99	4487
1302.259	4585
1304.529	4534
1306.798	4478
1309.065	4518
1311.333	4431
1313.599	4480
1315.866	4527
1318.131	4565
1320.396	4532
1322.66	4483
1324.925	4451
1327.187	4575
1329.448	4501
1331.711	4579
1333.974	4611
1336.234	4605
1338.493	4574
1340.752	4520
1343.01	4490
1345.269	4498
1347.526	4520
1349.784	4530
1352.04	4521
1354.295	4469
1356.552	4525
1358.806	4494
1361.059	4537
1363.312	4446
1365.564	4485
1367.818	4555
1370.069	4509
1372.318	4542
1374.568	4511
1376.817	4507
1379.066	4558
1381.316	4492
1383.564	4638
1385.809	4537
1388.056	4682
1390.301	4674
1392.549	4649
1394.793	4631
1397.036	4704
1399.279	4759
1401.522	4672
1403.763	4603
1406.007	4788
1408.248	4721
1410.487	4724
1412.727	4726
1414.965	4788
1417.205	4691
1419.442	4753
1421.68	4696
1423.915	4677
1426.152	4791
1428.388	4706
1430.623	4646
1432.857	4700
1435.091	4762
1437.323	4801
1439.556	4726
1441.789	4797
1444.019	4742
1446.25	4812
1448.48	4890
1450.708	4706
1452.938	4809
1455.167	4798
1457.394	4871
1459.62	4877
1461.846	4816
1464.073	4653
1466.299	4799
1468.523	4776
1470.746	4676
1472.969	4630
1475.191	4686
1477.415	4654
1479.636	4571
1481.858	4563
1484.078	4614
1486.298	4592
1488.518	4542
1490.736	4639
1492.954	4652
1495.169	4663
1497.386	4523
1499.602	4531
1501.819	4694
1504.034	4545
1506.248	4561
1508.462	4512
1510.675	4525
1512.888	4554
1515.1	4585
1517.311	4554
1519.522	4488
1521.732	4581
1523.942	4581
1526.151	4538
1528.36	4508
1530.566	4671
1532.773	4570
1534.98	4514
1537.187	4487
1539.392	4621
1541.596	4628
1543.801	4484
1546.005	4647
1548.208	4482
1550.411	4545
1552.612	4569
1554.814	4611
1557.013	4624
1559.212	4641
1561.414	4596
1563.612	4660
1565.811	4668
1568.007	4658
1570.203	4624
1572.403	4638
1574.598	4592
1576.792	4632
1578.988	4633
1581.181	4643
1583.376	4721
1585.568	4722
1587.761	4656
1589.952	4740
1592.143	4681
1594.333	4671
1596.524	4786
1598.715	4734
1600.903	4731
1603.091	4765
1605.278	4695
1607.466	4631
1609.652	4686
1611.838	4784
1614.023	4805
1616.207	4758
1618.391	4589
1620.576	4717
1622.759	4773
1624.941	4703
1627.123	4751
1629.304	4720
1631.484	4720
1633.664	4820
1635.844	4659
1638.022	4803
1640.201	4797
1642.38	4822
1644.556	4734
1646.732	4871
1648.908	4762
1651.084	4775
1653.257	4870
1655.433	4776
1657.607	4709
1659.779	4814
1661.951	4832
1664.122	4830
1666.295	4926
1668.467	4847
1670.635	4958
1672.805	5008
1674.973	4809
1677.142	4842
1679.31	4821
1681.478	4864
1683.644	4791
1685.81	4810
1687.975	4788
1690.142	4798
1692.305	4886
1694.468	4650
1696.632	4760
1698.794	4821
1700.957	4751
1703.119	4789
1705.279	4835
1707.439	4731
1709.598	4604
1711.758	4713
1713.917	4668
1716.075	4807
1718.231	4730
1720.388	4717
1722.543	4652
1724.702	4674
1726.856	4605
1729.01	4748
1731.164	4682
1733.317	4651
1735.471	4682
1737.623	4675
1739.774	4631
1741.925	4735
1744.075	4685
1746.225	4786
1748.376	4732
1750.524	4719
1752.672	4671
1754.82	4692
1756.965	4609
1759.113	4665
1761.259	4790
1763.405	4692
1765.549	4770
1767.694	4736
1769.836	4677
1771.981	4759
1774.123	4764
1776.264	4733
1778.405	4778
1780.546	4772
1782.687	4696
1784.827	4831
1786.966	4716
1789.103	4691
1791.242	4765
1793.381	4784
1795.517	4731
1797.653	4768
1799.788	4773
1801.923	4630
1804.057	4641
1806.193	4782
1808.326	4803
1810.457	4734
1812.59	4853
1814.721	4814
1816.855	4744
1818.984	4758
1821.113	4831
1823.244	4744
1825.372	4775
1827.499	4694
1829.63	4687
1831.756	4842
1833.882	4737
1836.007	4703
1838.132	4726
1840.26	4704
1842.384	4646
1844.507	4684
1846.63	4660
1848.752	4677
1850.875	4699
1852.996	4722
1855.118	4666
1857.238	4853
1859.358	4664
1861.477	4708
1863.597	4690
1865.715	4772
1867.832	4804
1869.948	4824
1872.064	4716
1874.181	4782
1876.297	4729
1878.411	4661
1880.526	4790
1882.639	4710
1884.752	4743
1886.865	4746
1888.977	4766
1891.089	4780
1893.2	4749
1895.308	4734
1897.42	4639
1899.53	4718
1901.639	4811
1903.745	4698
1905.853	4762
1907.962	4782
1910.067	4653
1912.174	4757
1914.278	4893
1916.383	4616
1918.486	4825
1920.592	4675
1922.694	4780
1924.797	4817
1926.898	4858
1929	4930
1931.102	4806
1933.203	4815
1935.301	4768
1937.401	4807
1939.499	4770
1941.598	4814
1943.697	4824
1945.793	4836
1947.888	4784
1949.985	4848
1952.08	4768
1954.176	4803
1956.269	4838
1958.364	4807
1960.457	4830
1962.549	4896
1964.642	4851
1966.733	4724
1968.823	4930
1970.913	4808
1973.005	4798
1975.093	4670
1977.184	4826
1979.271	4816
1981.359	4670
1983.446	4799
1985.532	4738
1987.619	4739
1989.705	4771
1991.789	4874
1993.874	4808
1995.956	4748
1998.041	4727
2000.123	4768
2002.206	4705
2004.287	4785
2006.368	4765
2008.449	4737
2010.529	4794
2012.609	4692
2014.688	4726
2016.766	4709
2018.843	4894
2020.922	4660
2022.999	4700
2025.074	4733
2027.15	4699
2029.225	4841
2031.299	4746
2033.375	4748
2035.447	4768
2037.52	4733
2039.592	4829
2041.664	4762
2043.736	4826
2045.807	4790
2047.876	4727
2049.947	4780
2052.015	4884
2054.086	4669
2056.153	4741
2058.221	4905
2060.288	4807
2062.353	4759
2064.42	4711
2066.486	4762
2068.55	4855
2070.614	4879
2072.678	4810
2074.741	4728
2076.805	4728
2078.866	4836
2080.929	4724
2082.99	4746
2085.049	4804
2087.109	4850
2089.17	4751
2091.228	4756
2093.286	4798
2095.344	4906
2097.4	4841
2099.46	4816
2101.516	4767
2103.572	4778
2105.626	4844
2107.679	4716
2109.735	4734
2111.788	4805
2113.841	4737
2115.894	4773
2117.945	4820
2119.997	4795
2122.049	4792
2124.1	4806
2126.148	4729
2128.197	4881
2130.246	4759
2132.296	4702
2134.342	4753
2136.39	4725
2138.437	4825
2140.483	4726
2142.527	4747
2144.574	4716
2146.619	4701
2148.661	4799
2150.705	4798
2152.747	4760
2154.792	4798
2156.832	4818
2158.874	4849
2160.915	4765
2162.954	4819
2164.995	4720
2167.034	4849
2169.072	4665
2171.111	4695
2173.148	4782
2175.186	4752
2177.223	4683
2179.258	4753
2181.294	4740
2183.328	4743
2185.362	4713
2187.398	4707
2189.431	4775
2191.463	4788
2193.495	4778
2195.528	4665
2197.56	4687
2199.59	4784
2201.62	4658
2203.649	4728
2205.678	4700
2207.708	4742
2209.737	4736
2211.764	4754
2213.791	4611
2215.817	4683
2217.843	4584
2219.87	4690
2221.895	4686
2223.919	4675
2225.942	4665
2227.966	4625
2229.988	4736
2232.012	4657
2234.032	4740
2236.054	4684
2238.074	4647
2240.095	4783
2242.116	4642
2244.135	4653
2246.153	4692
2248.171	4703
2250.188	4627
2252.208	4691
2254.223	4620
2256.239	4642
2258.255	4601
2260.269	4598
2262.283	4727
2264.3	4641
2266.312	4679
2268.325	4599
2270.336	4602
2272.349	4678
2274.362	4665
2276.372	4664
2278.383	4659
2280.392	4783
2282.402	4611
2284.409	4682
2286.418	4616
2288.427	4661
2290.433	4622
2292.441	4722
2294.446	4651
2296.453	4690
2298.459	4667
2300.463	4599
2302.466	4722
2304.471	4644
2306.475	4693
2308.477	4632
2310.478	4597
2312.481	4629
2314.481	4594
2316.481	4663
2318.482	4674
2320.482	4632
2322.48	4674
2324.48	4594
2326.478	4595
2328.476	4664
2330.473	4686
2332.469	4783
2334.465	4697
2336.46	4574
2338.454	4694
2340.45	4666
2342.444	4632
2344.437	4628
2346.43	4662
2348.421	4545
2350.414	4596
2352.405	4674
2354.396	4607
2356.386	4597
2358.376	4575
2360.366	4637
2362.355	4583
2364.343	4590
2366.331	4655
2368.317	4586
2370.304	4543
2372.292	4639
2374.278	4548
2376.262	4574
2378.247	4687
2380.23	4559
2382.216	4545
2384.199	4603
2386.181	4512
2388.163	4633
2390.144	4590
2392.127	4658
2394.107	4499
2396.087	4560
2398.066	4561
2400.046	4702
2402.023	4608
2404.004	4524
2405.981	4573
2407.957	4547
2409.934	4591
2411.91	4511
2413.886	4558
2415.862	4569
2417.836	4621
2419.809	4550
2421.784	4580
2423.756	4484
2425.73	4550
2427.701	4468
2429.672	4636
2431.644	4504
2433.615	4524
2435.586	4485
2437.555	4492
2439.523	4581
2441.491	4490
2443.459	4603
2445.428	4563
2447.395	4516
2449.361	4567
2451.327	4500
2453.292	4507
2455.257	4579
2457.223	4582
2459.187	4526
2461.15	4562
2463.113	4466
2465.076	4477
2467.039	4520
2468.999	4490
2470.96	4565
2472.921	4520
2474.881	4523
2476.841	4492
2478.8	4526
2480.759	4497
2482.717	4505
2484.675	4602
2486.63	4534
2488.589	4465
2490.545	4501
2492.5	4517
2494.455	4569
2496.408	4563
2498.364	4514
2500.318	4584
2502.27	4511
2504.223	4467
2506.174	4484
2508.126	4522
2510.078	4408
2512.03	4484
2513.979	4510
2515.927	4576
2517.877	4527
2519.826	4473
2521.775	4468
2523.722	4418
2525.668	4528
2527.616	4302
2529.561	4568
2531.508	4509
2533.452	4430
2535.398	4384
2537.342	4517
2539.284	4471
2541.229	4464
2543.173	4466
2545.114	4488
2547.055	4463
2548.996	4444
2550.938	4463
2552.878	4450
2554.817	4453
2556.756	4545
2558.695	4429
2560.633	4468
2562.572	4564
2564.509	4553
2566.445	4442
2568.382	4457
2570.317	4398
2572.254	4480
2574.189	4504
2576.123	4409
2578.057	4439
2579.99	4536
2581.923	4543
2583.855	4480
2585.788	4504
2587.719	4489
2589.65	4463
2591.579	4409
2593.511	4432
2595.44	4466
2597.37	4447
2599.297	4589
2601.225	4467
2603.153	4437
2605.08	4482
2607.007	4470
2608.932	4430
2610.858	4525
2612.782	4416
2614.709	4535
2616.632	4620
2618.556	4390
2620.478	4416
2622.401	4507
2624.324	4571
2626.247	4463
2628.167	4481
2630.088	4474
2632.008	4582
2633.928	4469
2635.848	4468
2637.766	4541
2639.684	4497
2641.603	4516
2643.519	4428
2645.437	4516
2647.353	4466
2649.27	4480
2651.184	4385
2653.099	4526
2655.014	4551
2656.928	4456
2658.842	4474
2660.755	4551
2662.667	4511
2664.579	4490
2666.491	4529
2668.402	4522
2670.312	4497
2672.222	4448
2674.132	4581
2676.042	4455
2677.951	4423
2679.859	4413
2681.766	4579
2683.674	4455
2685.582	4452
2687.488	4505
2689.392	4454
2691.298	4420
2693.202	4520
2695.107	4466
2697.012	4488
2698.914	4434
2700.817	4430
2702.72	4445
2704.622	4409
2706.524	4389
2708.425	4353
2710.326	4410
2712.225	4441
2714.125	4460
2716.024	4473
2717.923	4447
2719.822	4541
2721.719	4372
2723.616	4460
2725.512	4350
2727.41	4453
2729.305	4423
2731.201	4415
2733.095	4452
2734.99	4369
2736.884	4398
2738.778	4434
2740.67	4380
2742.562	4409
2744.455	4486
2746.346	4356
2748.238	4387
2750.129	4405
2752.018	4489
2753.907	4437
2755.797	4439
2757.687	4393
2759.575	4349
2761.462	4467
2763.349	4317
2765.237	4447
2767.124	4390
2769.009	4413
2770.894	4416
2772.779	4379
2774.663	4353
2776.547	4413
2778.431	4351
2780.314	4519
2782.197	4405
2784.078	4368
2785.96	4362
2787.842	4405
2789.723	4393
2791.603	4381
2793.483	4404
2795.362	4318
2797.241	4362
2799.121	4429
2800.997	4333
2802.874	4431
2804.751	4275
2806.628	4394
2808.506	4290
2810.38	4411
2812.255	4366
2814.13	4358
2816.003	4462
2817.878	4353
2819.752	4375
2821.623	4465
2823.496	4322
2825.368	4394
2827.238	4317
2829.111	4390
2830.98	4401
2832.851	4347
2834.719	4271
2836.589	4457
2838.458	4363
2840.327	4423
2842.193	4509
2844.061	4389
2845.927	4396
2847.794	4417
2849.66	4559
2851.525	4474
2853.39	4479
2855.254	4391
2857.117	4447
2858.983	4527
2860.845	4471
2862.707	4459
2864.569	4520
2866.431	4618
2868.293	4586
2870.154	4571
2872.013	4664
2873.873	4659
2875.733	4685
2877.592	4733
2879.451	4771
2881.309	4844
2883.166	4904
2885.022	4873
2886.879	4903
2888.736	4853
2890.591	4915
2892.446	4875
2894.301	4849
2896.155	5036
2898.009	5020
2899.863	4900
2901.716	4794
2903.568	4958
2905.419	4879
2907.27	4880
2909.123	4808
2910.973	4800
2912.824	4948
2914.673	4962
2916.521	4991
2918.372	5070
2920.22	5097
2922.067	5189
2923.914	5132
2925.761	5068
2927.607	5433
2929.455	5265
2931.301	5263
2933.144	5258
2934.99	5363
2936.833	5356
2938.678	5399
2940.522	5439
2942.364	5561
2944.207	5597
2946.048	5595
2947.891	5626
2949.731	5815
2951.571	5579
2953.412	5643
2955.25	5480
2957.09	5551
2958.93	5403
2960.767	5414
2962.606	5342
2964.443	5312
2966.279	5298
2968.116	5205
2969.953	5198
2971.788	5059
2973.623	4976
2975.457	5025
2977.292	5011
2979.127	5038
2980.959	4973
2982.792	4917
2984.624	4907
2986.455	4827
2988.288	4962
2990.119	4780
2991.949	4760
2993.779	4794
2995.608	4749
2997.439	4696
2999.268	4721
3001.096	4697
3002.923	4614
3004.751	4621
3006.578	4626
3008.406	4559
3010.232	4475
3012.057	4433
3013.883	4538
3015.706	4436
3017.532	4436
3019.356	4383
3021.179	4379
3023.002	4335
3024.823	4278
3026.646	4223
3028.469	4169
3030.289	4294
3032.11	4225
3033.93	4252
3035.749	4262
3037.57	4273
3039.39	4309
3041.207	4252
3043.026	4325
3044.842	4112
3046.661	4228
3048.477	4234
3050.294	4256
3052.109	4269
3053.925	4262
3055.739	4158
3057.555	4176
3059.368	4169
3061.181	4301
3062.995	4178
3064.807	4209
3066.62	4269
3068.433	4238
3070.243	4211
3072.054	4142
3073.865	4089
3075.675	4179
3077.485	4189
3079.293	4230
3081.102	4267
3082.911	4129
3084.719	4205
3086.527	4216
3088.333	4178
3090.139	4183
3091.945	4040
3093.75	4171
3095.557	4144
3097.361	4143
3099.165	4077
3100.969	4178
3102.772	4077
3104.575	4070
3106.379	4013
3108.181	4125
3109.982	4081
3111.783	4047
3113.584	4102
3115.386	4104
3117.186	4022
3118.985	4094
3120.783	4052
3122.582	4139
3124.381	4079
3126.179	3996
3127.975	4044
3129.772	4023
3131.569	4069
3133.365	4045
3135.161	4086
3136.956	4016
3138.751	4001
3140.544	4037
3142.338	4028
3144.132	3958
3145.925	3966
3147.717	4063
3149.509	4079
3151.301	3979
3153.091	4046
3154.884	4036
3156.673	3911
3158.462	4098
3160.252	3972
3162.041	3999
3163.831	4068
3165.618	3938
3167.405	4101
3169.193	4062
3170.979	4026
3172.767	4028
3174.553	3990
3176.338	4008
3178.123	3975
3179.907	3970
3181.692	3961
3183.477	3910
3185.259	3974
3187.042	3996
3188.824	4051
3190.607	4055
3192.389	3935
3194.17	3934
3195.951	4006
3197.73	3926
3199.51	3988
3201.289	3897
3203.07	4002
3204.848	3916
3206.626	3940
3208.403	3935
3210.18	3922
3211.959	3922
3213.735	3972
3215.511	3902
3217.285	3871
3219.06	3891
3220.836	4012
3222.611	3944
3224.384	3969
3226.158	4071
3227.929	3941
3229.702	3951
3231.476	3928
3233.248	4007
3235.018	3952
3236.789	4047
3238.56	3996
3240.33	3994
3242.1	4041
3243.869	4059
3245.637	3964
3247.405	3970
3249.172	3970
3250.941	3998
3252.707	3951
3254.474	3934
3256.24	3962
3258.006	3888
3259.772	3928
3261.537	3935
3263.301	3969
3265.065	3908
3266.828	3983
3268.592	3932
3270.355	3990
3272.117	3956
3273.878	3906
3275.64	3924
3277.401	4051
3279.162	4000
3280.922	4018
3282.682	4015
3284.441	3891
3286.199	3950
3287.959	4011
3289.716	3861
3291.475	4015
3293.232	3955
3294.988	3981
3296.744	3980
3298.501	3975
3300.256	3928
3302.011	3960
3303.766	3879
3305.52	4036
3307.275	3966
3309.028	4045
3310.781	4050
3312.533	3989
3314.285	3980
3316.038	3990
3317.789	3990
3319.54	3939
3321.289	3950
3323.039	4018
3324.789	3902
3326.539	3990
3328.288	3915
3330.035	4033
3331.783	3914
3333.531	3995
3335.28	4000
3337.025	3871
3338.771	3930
3340.518	3960
3342.262	4044
3344.009	3923
3345.753	3936
3347.497	3892
3349.24	3863
3350.983	3959
3352.726	3923
3354.469	3834
3356.212	3802
3357.952	3911
3359.694	3976
3361.434	3829
3363.176	3843
3364.916	3856
3366.654	3869
3368.394	3867
3370.132	3942
3371.871	3810
3373.61	3792
3375.346	3833
3377.083	3874
3378.82	3841
3380.556	3917
3382.292	3811
3384.027	3718
3385.763	3885
3387.497	3796
3389.231	3840
3390.965	3868
3392.698	3756
3394.431	3810
3396.164	3860
3397.896	3827
3399.627	3858
3401.36	3915
3403.09	3817
3404.82	3840
3406.55	3827
3408.279	3814
3410.01	3883
3411.738	3754
3413.467	3793
3415.194	3712
3416.92	3853
3418.647	3677
3420.375	3723
3422.102	3850
3423.827	3759
3425.553	3662
3427.277	3735
3429.003	3768
3430.727	3775
3432.451	3769
3434.173	3697
3435.896	3742
3437.62	3728
3439.343	3751
3441.063	3676
3442.785	3766
3444.505	3700
3446.226	3746
3447.948	3766
3449.666	3696
3451.386	3753
3453.104	3711
3454.823	3729
3456.541	3746
3458.259	3688
3459.976	3693
3461.693	3664
3463.408	3692
3465.125	3684
3466.841	3593
3468.556	3657
3470.271	3643
3471.985	3661
3473.698	3645
3475.414	3528
3477.126	3585
3478.838	3572
3480.55	3621
3482.263	3628
3483.975	3620
3485.686	3609
3487.396	3601
3489.106	3577
3490.817	3567
3492.526	3582
3494.236	3586
3495.944	3558
3497.652	3624
3499.359	3535
3501.066	3531
3502.775	3645
3504.481	3584
3506.187	3536
3507.893	3558
3509.598	3527
3511.304	3586
3513.009	3585
3514.713	3552
3516.417	3591
3518.12	3581
3519.821	3473
3521.525	3511
3523.228	3460
3524.929	3575
3526.631	3457
3528.33	3420
3530.032	3506
3531.733	3517
3533.433	3554
3535.131	3453
3536.83	3497
3538.529	3514
3540.227	3491
3541.925	3508
3543.623	3518
3545.319	3460
3547.016	3445
3548.712	3529
3550.408	3488
3552.103	3425
3553.798	3384
3555.491	3468
3557.188	3435
3558.88	3497
3560.574	3411
3562.266	3378
3563.959	3447
3565.651	3415
3567.343	3388
3569.035	3418
3570.725	3424
3572.415	3418
3574.106	3403
3575.797	3443
3577.485	3427
3579.174	3347
3580.863	3319
3582.551	3365
3584.238	3388
3585.926	3427
3587.613	3324
3589.3	3405
3590.986	3327
3592.671	3366
3594.357	3360
3596.042	3334
3597.726	3280
3599.41	3326
3601.094	3333
3602.778	3294
3604.461	3389
3606.143	3283
3607.825	3275
3609.507	3298
3611.188	3276
3612.87	3297
3614.551	3275
3616.229	3311
3617.909	3324
3619.589	3220
3621.269	3300
3622.948	3255
3624.625	3258
3626.302	3223
3627.98	3251
3629.657	3137
3631.334	3216
3633.01	3273
3634.686	3218
3636.361	3181
3638.036	3221
3639.712	3202
3641.385	3211
3643.06	3199
3644.732	3158
3646.405	3168
3648.08	3208
3649.751	3271
3651.424	3114
3653.094	3214
3654.766	3157
3656.436	3171
3658.106	3212
3659.777	3163
3661.446	3125
3663.115	3191
3664.783	3150
3666.452	3180
3668.121	3149
3669.788	3151
3671.454	3125
3673.121	3147
3674.789	3180
3676.455	3031
3678.12	3126
3679.784	3159
3681.45	3128
3683.114	3142
3684.779	3059
3686.442	3099
3688.105	3179
3689.768	3069
3691.43	3143
3693.093	3145
3694.754	3155
3696.415	3128
3698.076	3104
3699.736	3131
3701.396	3120
3703.057	3059
3704.716	3162
3706.375	3098
3708.034	3129
3709.692	3075
3711.351	3143
3713.008	3099
3714.665	3069
3716.321	3129
3717.977	3068
3719.634	3086
3721.29	3096
3722.945	3099
3724.598	3041
3726.253	3142
3727.907	3056
3729.561	3026
3731.214	3052
3732.867	3074
3734.518	3037
3736.171	3034
3737.824	3069
3739.474	3070
3741.125	3066
3742.775	3052
3744.425	3022
3746.074	3061
3747.725	3135
3749.373	3010
3751.022	2983
3752.669	3010
3754.318	3141
3755.966	3090
3757.612	3000
3759.259	3049
3760.905	2983
3762.55	3011
3764.197	2976
3765.842	3050
3767.486	2993
3769.131	3060
3770.774	2942
3772.417	2976
3774.061	3010
3775.705	3025
3777.347	2981
3778.988	2942
3780.629	2987
3782.271	3047
3783.912	2991
3785.552	2944
3787.192	3064
3788.831	2949
3790.472	2967
3792.112	3006
3793.75	2926
3795.388	2955
3797.024	2958
3798.661	2972
3800.3	3031
3801.936	2943
3803.572	2964
3805.208	2939
3806.844	3007
3808.48	2959
3810.115	2972
3811.748	2936
3813.382	2909
3815.016	2952
3816.649	2900
3818.283	2936
3819.914	2995
3821.547	2859
3823.178	2874
3824.809	2906
3826.441	2873
3828.072	2903
3829.701	2921
3831.331	2956
3832.96	2875
3834.591	2867
3836.219	2946
3837.847	2891
3839.475	2961
3841.102	2904
3842.729	2891
3844.357	2922
3845.984	2901
3847.609	2889
3849.234	2919
3850.86	2887
3852.485	2943
3854.11	2874
3855.734	2890
3857.357	2883
3858.981	2938
3860.603	2859
3862.227	2920
3863.848	2841
3865.471	2848
3867.092	2795
3868.713	2862
3870.334	2795
3871.954	2832
3873.575	2858
3875.194	2831
3876.813	2896
3878.433	2876
3880.051	2821
3881.669	2838
3883.286	2869
3884.904	2803
3886.52	2841
3888.138	2839
3889.754	2806
3891.37	2879
3892.985	2862
3894.6	2810
3896.216	2788
3897.831	2829
3899.444	2833
3901.058	2800
3902.67	2804
3904.283	2849
3905.897	2752
3907.509	2880
3909.121	2807
3910.731	2776
3912.342	2785
3913.954	2819
3915.563	2839
3917.174	2810
3918.783	2742
3920.391	2779
3922.002	2828
3923.611	2764
3925.218	2755
3926.826	2748
3928.432	2787
3930.039	2774
3931.647	2826
3933.253	2806
3934.859	2836
3936.464	2755
3938.068	2738
3939.675	2807
3941.278	2787
3942.883	2805
3944.486	2782
3946.089	2765
3947.692	2785
3949.295	2692
3950.898	2764
3952.499	2728
3954.1	2727
3955.7	2748
3957.303	2785
3958.903	2739
3960.502	2704
3962.101	2739
3963.7	2742
3965.301	2736
3966.899	2759
3968.497	2746
3970.094	2790
3971.691	2727
3973.288	2755
3974.885	2715
3976.481	2753
3978.077	2698
3979.672	2681
3981.267	2771
3982.863	2715
3984.457	2718
3986.051	2711
3987.645	2708
3989.238	2681
3990.831	2719
3992.425	2782
3994.017	2715
3995.607	2628
3997.199	2676
3998.79	2663
4000.382	2614
4001.973	2665
4003.561	2622
4005.151	2683
4006.741	2672
4008.331	2681
4009.918	2607
4011.507	2707
4013.095	2624
4014.681	2647
4016.269	2623
4017.856	2624
4019.443	2688
4021.028	2676
4022.614	2536
4024.199	2610
4025.785	2620
4027.37	2640
4028.953	2647
4030.536	2616
4032.12	2552
4033.704	2573
4035.287	2653
4036.869	2608
4038.45	2623
4040.032	2604
4041.613	2611
4043.195	2546
4044.776	2548
4046.356	2576
4047.935	2612
4049.515	2585
4051.095	2566
4052.674	2609
4054.251	2577
4055.829	2607
4057.406	2599
4058.985	2545
4060.562	2563
4062.139	2581
4063.715	2541
4065.29	2547
4066.865	2570
4068.442	2586
4070.016	2535
4071.59	2564
4073.164	2556
4074.738	2573
4076.312	2540
4077.885	2483
4079.458	2515
4081.03	2479
4082.602	2518
4084.173	2514
4085.745	2522
4087.315	2600
4088.886	2505
4090.456	2520
4092.026	2508
4093.596	2548
4095.165	2461
4096.734	2526
4098.301	2540
4099.869	2545
4101.437	2552
4103.006	2492
4104.572	2527
4106.139	2552
4107.704	2569
4109.27	2537
4110.837	2510
4112.401	2549
4113.966	2511
4115.53	2494
4117.094	2477
4118.659	2525
4120.223	2443
4121.785	2555
4123.347	2498
4124.909	2501
4126.471	2458
4128.034	2477
4129.595	2494
4131.155	2432
4132.716	2483
4134.275	2422
4135.836	2489
4137.395	2411
4138.955	2437
4140.513	2401
4142.071	2429
4143.628	2517
4145.188	2474
4146.745	2428
4148.302	2415
4149.858	2365
4151.414	2479
4152.971	2461
4154.526	2421
4156.081	2429
4157.635	2437
4159.189	2498
4160.745	2394
4162.298	2406
4163.852	2392
4165.405	2402
4166.957	2397
4168.51	2418
4170.063	2414
4171.614	2430
4173.166	2384
4174.717	2396
4176.267	2365
4177.817	2336
4179.368	2438
4180.917	2418
4182.466	2383
4184.016	2328
4185.564	2418
4187.112	2386
4188.66	2382
4190.207	2366
4191.754	2409
4193.301	2372
4194.848	2406
4196.394	2344
4197.94	2404
4199.484	2391
4201.03	2394
4202.575	2381
4204.12	2359
4205.663	2342
4207.207	2284
4208.75	2339
4210.292	2343
4211.836	2365
4213.378	2346
4214.92	2281
4216.46	2275
4218.002	2392
4219.544	2347
4221.083	2340
4222.625	2382
4224.164	2329
4225.703	2412
4227.244	2293
4228.782	2344
4230.32	2331
4231.857	2255
4233.395	2252
4234.933	2303
4236.471	2305
4238.007	2268
4239.542	2334
4241.078	2280
4242.614	2356
4244.15	2346
4245.685	2310
4247.219	2369
4248.753	2313
4250.287	2332
4251.82	2300
4253.354	2327
4254.887	2294
4256.419	2338
4257.951	2298
4259.483	2304
4261.016	2167
4262.547	2307
4264.078	2289
4265.608	2371
4267.137	2231
4268.668	2370
4270.197	2234
4271.727	2278
4273.254	2250
4274.783	2268
4276.311	2255
4277.84	2288
4279.366	2180
4280.894	2254
4282.42	2248
4283.946	2248
4285.473	2307
4286.998	2300
4288.523	2278
4290.047	2313
4291.572	2277
4293.096	2244
4294.622	2278
4296.144	2281
4297.668	2241
4299.19	2238
4300.713	2238
4302.236	2208
4303.758	2298
4305.279	2291
4306.799	2278
4308.321	2196
4309.842	2272
4311.361	2221
4312.882	2267
4314.401	2189
