400.0961	3226
402.6185	3284
405.1424	3217
407.6635	3202
410.1838	3301
412.7035	3235
415.2225	3183
417.7388	3328
420.2585	3302
422.7754	3325
425.2917	3347
427.8072	3458
430.3221	3446
432.8363	3489
435.3498	3512
437.8626	3491
440.3727	3434
442.8841	3528
445.3969	3456
447.907	3480
450.4142	3397
452.9229	3461
455.4289	3385
457.9362	3448
460.4449	3496
462.9488	3444
465.454	3396
467.9566	3399
470.4604	3320
472.9637	3462
475.4662	3372
477.966	3388
480.4671	3403
482.9656	3438
485.4633	3496
487.9645	3393
490.4608	3405
492.9566	3437
495.4536	3417
497.948	3398
500.4437	3473
502.9387	3472
505.431	3514
507.9226	3553
510.4136	3536
512.9079	3545
515.3975	3475
517.8864	3463
520.3746	3450
522.8622	3513
525.3491	3585
527.8394	3464
530.3249	3501
532.8098	3504
535.2939	3625
537.7774	3592
540.2623	3490
542.7444	3550
545.2259	3496
547.7067	3511
550.1868	3582
552.6683	3550
555.147	3509
557.6231	3626
560.1005	3565
562.5773	3484
565.0534	3624
567.5308	3605
570.0056	3584
572.4776	3548
574.951	3692
577.4237	3667
579.8978	3642
582.3671	3649
584.8378	3694
587.3079	3664
589.7773	3724
592.244	3716
594.714	3696
597.1793	3748
599.6461	3657
602.1121	3732
604.5754	3703
607.0421	3665
609.5042	3673
611.9675	3602
614.4282	3647
616.8902	3655
619.3515	3669
621.8122	3709
624.2702	3663
626.7296	3617
629.1863	3642
631.6423	3553
634.1017	3620
636.5563	3653
639.0104	3667
641.4658	3686
643.9185	3695
646.3725	3725
648.8239	3726
651.2766	3630
653.7266	3700
656.176	3678
658.6247	3627
661.0748	3751
663.5242	3634
665.9709	3735
668.417	3725
670.8624	3681
673.3092	3700
675.7533	3725
678.1968	3678
680.6395	3661
683.0817	3673
685.5251	3726
687.9659	3803
690.4061	3707
692.8456	3765
695.2844	3741
697.7226	3794
700.1621	3773
702.599	3811
705.0332	3838
707.4688	3814
709.9036	3769
712.3399	3776
714.7735	3797
717.2044	3849
719.6367	3841
722.0683	3769
724.4993	3999
726.9296	3843
729.3593	3899
731.7883	3957
734.2147	3887
736.6423	3913
739.0714	3939
741.4958	3919
743.9216	3941
746.3447	3956
748.7691	3927
751.1929	3963
753.616	3995
756.0366	4000
758.4584	3992
760.8776	3949
763.2982	4039
765.718	3936
768.1373	4046
770.5539	3911
772.9698	4047
775.3871	4029
777.8038	4045
780.2178	4017
782.6332	4050
785.0459	3989
787.458	3981
789.8714	4021
792.2842	3995
794.6943	3928
797.1038	4027
799.5127	3981
801.9209	4024
804.3324	4073
806.7393	4027
809.1456	3951
811.5513	4087
813.9562	4086
816.3625	4025
818.7663	4104
821.1693	4082
823.5718	4041
825.9735	4117
828.3746	3964
830.7771	4045
833.177	4002
835.5762	3983
837.9747	4137
840.3727	4072
842.772	4074
845.1666	4104
847.5626	4128
849.958	4269
852.3527	4250
854.7488	4197
857.1403	4220
859.5331	4107
861.9253	4114
864.3168	4082
866.7057	4133
869.098	4213
871.4876	4147
873.8746	4092
876.263	4241
878.6487	4175
881.0378	4206
883.4243	4150
885.8081	4228
888.1933	4126
890.5759	4157
892.9598	4093
895.343	4142
897.7256	4195
900.1057	4074
902.4871	4150
904.8659	4167
907.246	4125
909.6254	4221
912.0023	4339
914.3786	4334
916.7562	4352
919.1331	4550
921.5074	4549
923.8831	4530
926.2562	4597
928.6287	4489
931.0005	4507
933.3757	4520
935.7462	4368
938.1162	4399
940.4855	4438
942.8542	4479
945.2242	4456
947.5916	4495
949.9584	4698
952.3266	4786
954.6921	4928
957.0571	5135
959.4233	5254
961.787	5163
964.15	5318
966.5125	5112
968.8742	4978
971.2354	4695
973.5959	4616
975.9559	4547
978.3151	4415
980.6738	4498
983.0338	4293
985.3912	4316
987.7461	4310
990.1022	4267
992.4578	4283
994.8127	4302
997.1689	4260
999.5207	4380
1001.874	4384
1004.226	4232
1006.576	4304
1008.929	4282
1011.28	4261
1013.628	4341
1015.977	4338
1018.324	4320
1020.674	4321
1023.019	4346
1025.366	4326
1027.713	4339
1030.056	4402
1032.399	4400
1034.746	4346
1037.087	4394
1039.431	4385
1041.771	4354
1044.113	4351
1046.454	4429
1048.793	4375
1051.133	4353
1053.471	4392
1055.807	4373
1058.146	4443
1060.483	4365
1062.818	4420
1065.153	4416
1067.489	4402
1069.822	4430
1072.156	4504
1074.488	4498
1076.82	4477
1079.15	4505
1081.48	4507
1083.814	4361
1086.143	4431
1088.471	4318
1090.799	4402
1093.126	4449
1095.452	4539
1097.78	4370
1100.105	4462
1102.43	4480
1104.754	4360
1107.077	4368
1109.4	4468
1111.722	4366
1114.044	4484
1116.365	4379
1118.685	4428
1121.005	4440
1123.324	4523
1125.643	4447
1127.961	4532
1130.278	4431
1132.595	4387
1134.911	4407
1137.226	4340
1139.541	4361
1141.854	4410
1144.167	4418
1146.482	4354
1148.793	4385
1151.105	4411
1153.414	4423
1155.725	4502
1158.033	4430
1160.344	4412
1162.651	4436
1164.959	4413
1167.265	4497
1169.572	4454
1171.878	4470
1174.184	4467
1176.488	4414
1178.79	4376
1181.094	4507
1183.396	4498
1185.699	4445
1188.001	4488
1190.301	4387
1192.6	4416
1194.9	4397
1197.2	4382
1199.497	4436
1201.794	4319
1204.09	4481
1206.387	4494
1208.684	4512
1210.978	4470
1213.272	4447
1215.565	4452
1217.858	4401
1220.15	4494
1222.443	4441
1224.734	4505
1227.024	4434
1229.313	4534
1231.602	4556
1233.892	4499
1236.18	4539
1238.467	4617
1240.754	4577
1243.04	4607
1245.325	4621
1247.612	4646
1249.896	4704
1252.178	4765
1254.461	4733
1256.743	4710
1259.027	4647
1261.308	4693
1263.587	4642
1265.867	4623
1268.146	4712
1270.425	4544
1272.703	4736
1274.981	4728
1277.256	4658
1279.532	4668
1281.808	4612
1284.083	4625
1286.358	4624
1288.63	4656
1290.904	4618
1293.175	4449
1295.449	4650
1297.719	4574
1299.99	4538
1302.259	4617
1304.529	4533
1306.798	4578
1309.065	4533
1311.333	4674
1313.599	4622
1315.866	4624
1318.131	4544
1320.396	4570
1322.66	4519
1324.925	4637
1327.187	4681
1329.448	4684
1331.711	4653
1333.974	4658
1336.234	4730
1338.493	4553
1340.752	4610
1343.01	4553
1345.269	4654
1347.526	4564
1349.784	4567
1352.04	4640
1354.295	4578
1356.552	4610
1358.806	4628
1361.059	4571
1363.312	4613
1365.564	4621
1367.818	4577
1370.069	4575
1372.318	4591
1374.568	4647
1376.817	4714
1379.066	4635
1381.316	4677
1383.564	4655
1385.809	4719
1388.056	4748
1390.301	4790
1392.549	4860
1394.793	4981
1397.036	4860
1399.279	5026
1401.522	4917
1403.763	4916
1406.007	4742
1408.248	4821
1410.487	4918
1412.727	4838
1414.965	4794
1417.205	4885
1419.442	4816
1421.68	4743
1423.915	4811
1426.152	4872
1428.388	4991
1430.623	4876
1432.857	4903
1435.091	4859
1437.323	4928
1439.556	4920
1441.789	4920
1444.019	4905
1446.25	4917
1448.48	4892
1450.708	4845
1452.938	4932
1455.167	4938
1457.394	5033
1459.62	5018
1461.846	4871
1464.073	4845
1466.299	4892
1468.523	4849
1470.746	4848
1472.969	4811
1475.191	4710
1477.415	4754
1479.636	4649
1481.858	4634
1484.078	4717
1486.298	4719
1488.518	4666
1490.736	4604
1492.954	4655
1495.169	4519
1497.386	4655
1499.602	4683
1501.819	4573
1504.034	4657
1506.248	4600
1508.462	4605
1510.675	4588
1512.888	4575
1515.1	4614
1517.311	4654
1519.522	4578
1521.732	4603
1523.942	4602
1526.151	4586
1528.36	4646
1530.566	4494
1532.773	4581
1534.98	4614
1537.187	4646
1539.392	4642
1541.596	4626
1543.801	4614
1546.005	4704
1548.208	4624
1550.411	4593
1552.612	4733
1554.814	4688
1557.013	4568
1559.212	4612
1561.414	4732
1563.612	4690
1565.811	4642
1568.007	4672
1570.203	4713
1572.403	4612
1574.598	4807
1576.792	4601
1578.988	4689
1581.181	4744
1583.376	4766
1585.568	4678
1587.761	4817
1589.952	4762
1592.143	4751
1594.333	4710
1596.524	4782
1598.715	4741
1600.903	4752
1603.091	4804
1605.278	4735
1607.466	4761
1609.652	4749
1611.838	4753
1614.023	4884
1616.207	4876
1618.391	4823
1620.576	4778
1622.759	4802
1624.941	4793
1627.123	4896
1629.304	4799
1631.484	4760
1633.664	4794
1635.844	4826
1638.022	4770
1640.201	4820
1642.38	4866
1644.556	4920
1646.732	4844
1648.908	4778
1651.084	4798
1653.257	4871
1655.433	4803
1657.607	4839
1659.779	4890
1661.951	4838
1664.122	4872
1666.295	4923
1668.467	4807
1670.635	4927
1672.805	4949
1674.973	4856
1677.142	4874
1679.31	4926
1681.478	4792
1683.644	4946
1685.81	4827
1687.975	4915
1690.142	4794
1692.305	4897
1694.468	4879
1696.632	4794
1698.794	4850
1700.957	4752
1703.119	4873
1705.279	4760
1707.439	4700
1709.598	4743
1711.758	4764
1713.917	4767
1716.075	4714
1718.231	4752
1720.388	4727
1722.543	4733
1724.702	4714
1726.856	4669
1729.01	4763
1731.164	4629
1733.317	4734
1735.471	4713
1737.623	4766
1739.774	4745
1741.925	4747
1744.075	4780
1746.225	4712
1748.376	4711
1750.524	4787
1752.672	4741
1754.82	4730
1756.965	4783
1759.113	4700
1761.259	4779
1763.405	4762
1765.549	4765
1767.694	4831
1769.836	4794
1771.981	4746
1774.123	4756
1776.264	4751
1778.405	4787
1780.546	4795
1782.687	4837
1784.827	4926
1786.966	4766
1789.103	4786
1791.242	4848
1793.381	4736
1795.517	4834
1797.653	4737
1799.788	4801
1801.923	4789
1804.057	4828
1806.193	4831
1808.326	4895
1810.457	4821
1812.59	4768
1814.721	4811
1816.855	4821
1818.984	4816
1821.113	4727
1823.244	4802
1825.372	4769
1827.499	4715
1829.63	4763
1831.756	4821
1833.882	4779
1836.007	4798
1838.132	4707
1840.26	4724
1842.384	4756
1844.507	4704
1846.63	4742
1848.752	4818
1850.875	4662
1852.996	4741
1855.118	4777
1857.238	4763
1859.358	4758
1861.477	4623
1863.597	4781
1865.715	4742
1867.832	4645
1869.948	4698
1872.064	4839
1874.181	4813
1876.297	4794
1878.411	4689
1880.526	4791
1882.639	4802
1884.752	4687
1886.865	4865
1888.977	4785
1891.089	4763
1893.2	4747
1895.308	4815
1897.42	4883
1899.53	4851
1901.639	4853
1903.745	4822
1905.853	4837
1907.962	4779
1910.067	4832
1912.174	4892
1914.278	4865
1916.383	4798
1918.486	4827
1920.592	4888
1922.694	4762
1924.797	4851
1926.898	4925
1929	4797
1931.102	4879
1933.203	4945
1935.301	4856
1937.401	4763
1939.499	4830
1941.598	4822
1943.697	4922
1945.793	4801
1947.888	4863
1949.985	4863
1952.08	4842
1954.176	4821
1956.269	4844
1958.364	4860
1960.457	4798
1962.549	4814
1964.642	4900
1966.733	4843
1968.823	4813
1970.913	4775
1973.005	4873
1975.093	4821
1977.184	4837
1979.271	4843
1981.359	4825
1983.446	4794
1985.532	4853
1987.619	4817
1989.705	4672
1991.789	4881
1993.874	4814
1995.956	4844
1998.041	4817
2000.123	4751
2002.206	4839
2004.287	4762
2006.368	4803
2008.449	4801
2010.529	4722
2012.609	4860
2014.688	4800
2016.766	4800
2018.843	4754
2020.922	4774
2022.999	4805
2025.074	4732
2027.15	4805
2029.225	4826
2031.299	4819
2033.375	4816
2035.447	4822
2037.52	4683
2039.592	4842
2041.664	4865
2043.736	4730
2045.807	4719
2047.876	4735
2049.947	4728
2052.015	4829
2054.086	4873
2056.153	4861
2058.221	4868
2060.288	4746
2062.353	4839
2064.42	4827
2066.486	4846
2068.55	4811
2070.614	4821
2072.678	4859
2074.741	4800
2076.805	4713
2078.866	4719
2080.929	4812
2082.99	4801
2085.049	4755
2087.109	4904
2089.17	4728
2091.228	4817
2093.286	4759
2095.344	4865
2097.4	4785
2099.46	4788
2101.516	4792
2103.572	4783
2105.626	4826
2107.679	4905
2109.735	4769
2111.788	4804
2113.841	4874
2115.894	4821
2117.945	4705
2119.997	4766
2122.049	4745
2124.1	4900
2126.148	4761
2128.197	4814
2130.246	4774
2132.296	4668
2134.342	4822
2136.39	4723
2138.437	4749
2140.483	4849
2142.527	4824
2144.574	4735
2146.619	4857
2148.661	4829
2150.705	4727
2152.747	4806
2154.792	4765
2156.832	4842
2158.874	4720
2160.915	4886
2162.954	4878
2164.995	4761
2167.034	4702
2169.072	4749
2171.111	4768
2173.148	4825
2175.186	4821
2177.223	4740
2179.258	4744
2181.294	4779
2183.328	4790
2185.362	4668
2187.398	4748
2189.431	4767
2191.463	4689
2193.495	4757
2195.528	4713
2197.56	4711
2199.59	4700
2201.62	4743
2203.649	4711
2205.678	4615
2207.708	4707
2209.737	4723
2211.764	4614
2213.791	4838
2215.817	4762
2217.843	4720
2219.87	4644
2221.895	4653
2223.919	4638
2225.942	4606
2227.966	4716
2229.988	4681
2232.012	4721
2234.032	4706
2236.054	4720
2238.074	4641
2240.095	4755
2242.116	4739
2244.135	4661
2246.153	4655
2248.171	4647
2250.188	4745
2252.208	4640
2254.223	4656
2256.239	4721
2258.255	4628
2260.269	4675
2262.283	4630
2264.3	4746
2266.312	4665
2268.325	4592
2270.336	4741
2272.349	4653
2274.362	4719
2276.372	4786
2278.383	4655
2280.392	4729
2282.402	4768
2284.409	4629
2286.418	4705
2288.427	4735
2290.433	4708
2292.441	4656
2294.446	4674
2296.453	4699
2298.459	4704
2300.463	4667
2302.466	4695
2304.471	4677
2306.475	4699
2308.477	4639
2310.478	4597
2312.481	4640
2314.481	4626
2316.481	4718
2318.482	4710
2320.482	4575
2322.48	4672
2324.48	4732
2326.478	4556
2328.476	4673
2330.473	4585
2332.469	4581
2334.465	4625
2336.46	4658
2338.454	4642
2340.45	4621
2342.444	4554
2344.437	4622
2346.43	4568
2348.421	4677
2350.414	4535
2352.405	4620
2354.396	4513
2356.386	4562
2358.376	4526
2360.366	4616
2362.355	4603
2364.343	4584
2366.331	4677
2368.317	4581
2370.304	4450
2372.292	4512
2374.278	4598
2376.262	4606
2378.247	4536
2380.23	4575
2382.216	4678
2384.199	4528
2386.181	4596
2388.163	4569
2390.144	4537
2392.127	4503
2394.107	4503
2396.087	4522
2398.066	4544
2400.046	4595
2402.023	4434
2404.004	4581
2405.981	4518
2407.957	4555
2409.934	4630
2411.91	4475
2413.886	4485
2415.862	4525
2417.836	4482
2419.809	4504
2421.784	4553
2423.756	4561
2425.73	4568
2427.701	4506
2429.672	4607
2431.644	4499
2433.615	4534
2435.586	4522
2437.555	4558
2439.523	4548
2441.491	4501
2443.459	4604
2445.428	4484
2447.395	4454
2449.361	4551
2451.327	4439
2453.292	4441
2455.257	4475
2457.223	4603
2459.187	4554
2461.15	4533
2463.113	4435
2465.076	4500
2467.039	4490
2468.999	4502
2470.96	4437
2472.921	4542
2474.881	4611
2476.841	4524
2478.8	4522
2480.759	4502
2482.717	4579
2484.675	4461
2486.63	4482
2488.589	4446
2490.545	4502
2492.5	4463
2494.455	4459
2496.408	4466
2498.364	4441
2500.318	4509
2502.27	4551
2504.223	4473
2506.174	4376
2508.126	4558
2510.078	4532
2512.03	4461
2513.979	4520
2515.927	4419
2517.877	4512
2519.826	4449
2521.775	4429
2523.722	4412
2525.668	4517
2527.616	4379
2529.561	4403
2531.508	4440
2533.452	4393
2535.398	4450
2537.342	4423
2539.284	4446
2541.229	4549
2543.173	4534
2545.114	4420
2547.055	4474
2548.996	4464
2550.938	4437
2552.878	4422
2554.817	4478
2556.756	4438
2558.695	4514
2560.633	4433
2562.572	4474
2564.509	4471
2566.445	4462
2568.382	4506
2570.317	4401
2572.254	4486
2574.189	4376
2576.123	4440
2578.057	4408
2579.99	4494
2581.923	4433
2583.855	4410
2585.788	4463
2587.719	4452
2589.65	4469
2591.579	4434
2593.511	4560
2595.44	4429
2597.37	4412
2599.297	4424
2601.225	4416
2603.153	4450
2605.08	4411
2607.007	4463
2608.932	4441
2610.858	4458
2612.782	4498
2614.709	4500
2616.632	4428
2618.556	4445
2620.478	4497
2622.401	4481
2624.324	4440
2626.247	4502
2628.167	4416
2630.088	4419
2632.008	4502
2633.928	4493
2635.848	4470
2637.766	4560
2639.684	4463
2641.603	4418
2643.519	4398
2645.437	4532
2647.353	4513
2649.27	4377
2651.184	4495
2653.099	4474
2655.014	4558
2656.928	4478
2658.842	4487
2660.755	4346
2662.667	4404
2664.579	4352
2666.491	4501
2668.402	4440
2670.312	4530
2672.222	4420
2674.132	4408
2676.042	4447
2677.951	4351
2679.859	4515
2681.766	4408
2683.674	4402
2685.582	4415
2687.488	4438
2689.392	4496
2691.298	4415
2693.202	4409
2695.107	4358
2697.012	4464
2698.914	4387
2700.817	4357
2702.72	4447
2704.622	4349
2706.524	4421
2708.425	4393
2710.326	4375
2712.225	4316
2714.125	4371
2716.024	4400
2717.923	4404
2719.822	4428
2721.719	4351
2723.616	4397
2725.512	4410
2727.41	4378
2729.305	4300
2731.201	4343
2733.095	4360
2734.99	4490
2736.884	4316
2738.778	4301
2740.67	4396
2742.562	4306
2744.455	4444
2746.346	4405
2748.238	4311
2750.129	4324
2752.018	4382
2753.907	4340
2755.797	4449
2757.687	4344
2759.575	4399
2761.462	4403
2763.349	4408
2765.237	4360
2767.124	4302
2769.009	4374
2770.894	4359
2772.779	4343
2774.663	4414
2776.547	4403
2778.431	4349
2780.314	4375
2782.197	4349
2784.078	4400
2785.96	4318
2787.842	4343
2789.723	4430
2791.603	4378
2793.483	4347
2795.362	4287
2797.241	4331
2799.121	4328
2800.997	4342
2802.874	4379
2804.751	4306
2806.628	4352
2808.506	4285
2810.38	4340
2812.255	4319
2814.13	4287
2816.003	4355
2817.878	4354
2819.752	4419
2821.623	4361
2823.496	4280
2825.368	4408
2827.238	4304
2829.111	4342
2830.98	4356
2832.851	4300
2834.719	4305
2836.589	4334
2838.458	4316
2840.327	4384
2842.193	4337
2844.061	4435
2845.927	4388
2847.794	4366
2849.66	4474
2851.525	4432
2853.39	4446
2855.254	4576
2857.117	4511
2858.983	4546
2860.845	4567
2862.707	4593
2864.569	4534
2866.431	4718
2868.293	4667
2870.154	4639
2872.013	4670
2873.873	4658
2875.733	4703
2877.592	4803
2879.451	4700
2881.309	4879
2883.166	4831
2885.022	5035
2886.879	5023
2888.736	4998
2890.591	5074
2892.446	5151
2894.301	5122
2896.155	5192
2898.009	5026
2899.863	5034
2901.716	4982
2903.568	4950
2905.419	5055
2907.27	4999
2909.123	4997
2910.973	4876
2912.824	5090
2914.673	4934
2916.521	5031
2918.372	5051
2920.22	5163
2922.067	5107
2923.914	5241
2925.761	5289
2927.607	5125
2929.455	5282
2931.301	5234
2933.144	5315
2934.99	5300
2936.833	5339
2938.678	5410
2940.522	5480
2942.364	5486
2944.207	5540
2946.048	5710
2947.891	5749
2949.731	5823
2951.571	5761
2953.412	5912
2955.25	5661
2957.09	5717
2958.93	5706
2960.767	5697
2962.606	5654
2964.443	5708
2966.279	5585
2968.116	5373
2969.953	5351
2971.788	5176
2973.623	5128
2975.457	5054
2977.292	5052
2979.127	4996
2980.959	4958
2982.792	4884
2984.624	4790
2986.455	4824
2988.288	4835
2990.119	4763
2991.949	4732
2993.779	4643
2995.608	4660
2997.439	4569
2999.268	4608
3001.096	4529
3002.923	4509
3004.751	4581
3006.578	4468
3008.406	4438
3010.232	4452
3012.057	4400
3013.883	4353
3015.706	4409
3017.532	4368
3019.356	4329
3021.179	4324
3023.002	4322
3024.823	4174
3026.646	4230
3028.469	4359
3030.289	4223
3032.11	4240
3033.93	4203
3035.749	4236
3037.57	4186
3039.39	4180
3041.207	4168
3043.026	4162
3044.842	4191
3046.661	4143
3048.477	4097
3050.294	4153
3052.109	4131
3053.925	4210
3055.739	4184
3057.555	4225
3059.368	4171
3061.181	4157
3062.995	4200
3064.807	4146
3066.62	4111
3068.433	4142
3070.243	4194
3072.054	4105
3073.865	4086
3075.675	4113
3077.485	4220
3079.293	4150
3081.102	4100
3082.911	4082
3084.719	4088
3086.527	4156
3088.333	4176
3090.139	4116
3091.945	4064
3093.75	4065
3095.557	4030
3097.361	4044
3099.165	4000
3100.969	4013
3102.772	4126
3104.575	4010
3106.379	3997
3108.181	3966
3109.982	4029
3111.783	4012
3113.584	4135
3115.386	4036
3117.186	4039
3118.985	4071
3120.783	4042
3122.582	3955
3124.381	3909
3126.179	4059
3127.975	3916
3129.772	4040
3131.569	3923
3133.365	3923
3135.161	4031
3136.956	3995
3138.751	3962
3140.544	3897
3142.338	3967
3144.132	3947
3145.925	3970
3147.717	3944
3149.509	3941
3151.301	3933
3153.091	3917
3154.884	4012
3156.673	3998
3158.462	3984
3160.252	3922
3162.041	4022
3163.831	3898
3165.618	3877
3167.405	4040
3169.193	3967
3170.979	3904
3172.767	4028
3174.553	3881
3176.338	3942
3178.123	3902
3179.907	3977
3181.692	3913
3183.477	3895
3185.259	3934
3187.042	3919
3188.824	3966
3190.607	3853
3192.389	3898
3194.17	3856
3195.951	3899
3197.73	3957
3199.51	3971
3201.289	3965
3203.07	3901
3204.848	3889
3206.626	3946
3208.403	3939
3210.18	3876
3211.959	3969
3213.735	4041
3215.511	3876
3217.285	3861
3219.06	3907
3220.836	3863
3222.611	3905
3224.384	3932
3226.158	3882
3227.929	3884
3229.702	3835
3231.476	3905
3233.248	3898
3235.018	3862
3236.789	3931
3238.56	3858
3240.33	3837
3242.1	3865
3243.869	3931
3245.637	3859
3247.405	3860
3249.172	3863
3250.941	3891
3252.707	3933
3254.474	3905
3256.24	3829
3258.006	3956
3259.772	3926
3261.537	3837
3263.301	3922
3265.065	3977
3266.828	3834
3268.592	3819
3270.355	3965
3272.117	3855
3273.878	3921
3275.64	3938
3277.401	3922
3279.162	3900
3280.922	3911
3282.682	3870
3284.441	3864
3286.199	3866
3287.959	3864
3289.716	3924
3291.475	3999
3293.232	3926
3294.988	3852
3296.744	3776
3298.501	3852
3300.256	3864
3302.011	3867
3303.766	3813
3305.52	3938
3307.275	3832
3309.028	3887
3310.781	3862
3312.533	3829
3314.285	3800
3316.038	3844
3317.789	3872
3319.54	3811
3321.289	3883
3323.039	3940
3324.789	3831
3326.539	3890
3328.288	3839
3330.035	3868
3331.783	3836
3333.531	3824
3335.28	3738
3337.025	3889
3338.771	3893
3340.518	3844
3342.262	3857
3344.009	3865
3345.753	3805
3347.497	3795
3349.24	3870
3350.983	3796
3352.726	3793
3354.469	3778
3356.212	3748
3357.952	3754
3359.694	3822
3361.434	3836
3363.176	3792
3364.916	3846
3366.654	3737
3368.394	3690
3370.132	3762
3371.871	3760
3373.61	3693
3375.346	3767
3377.083	3757
3378.82	3668
3380.556	3732
3382.292	3725
3384.027	3773
3385.763	3677
3387.497	3786
3389.231	3797
3390.965	3648
3392.698	3686
3394.431	3776
3396.164	3745
3397.896	3711
3399.627	3688
3401.36	3707
3403.09	3727
3404.82	3763
3406.55	3741
3408.279	3596
3410.01	3655
3411.738	3664
3413.467	3637
3415.194	3722
3416.92	3669
3418.647	3667
3420.375	3748
3422.102	3647
3423.827	3687
3425.553	3693
3427.277	3669
3429.003	3609
3430.727	3583
3432.451	3714
3434.173	3582
3435.896	3554
3437.62	3648
3439.343	3674
3441.063	3631
3442.785	3562
3444.505	3670
3446.226	3583
3447.948	3559
3449.666	3583
3451.386	3542
3453.104	3588
3454.823	3591
3456.541	3567
3458.259	3547
3459.976	3611
3461.693	3583
3463.408	3592
3465.125	3468
3466.841	3588
3468.556	3586
3470.271	3513
3471.985	3436
3473.698	3545
3475.414	3568
3477.126	3468
3478.838	3495
3480.55	3464
3482.263	3518
3483.975	3502
3485.686	3520
3487.396	3465
3489.106	3518
3490.817	3442
3492.526	3449
3494.236	3553
3495.944	3484
3497.652	3541
3499.359	3412
3501.066	3441
3502.775	3477
3504.481	3485
3506.187	3420
3507.893	3433
3509.598	3378
3511.304	3423
3513.009	3420
3514.713	3391
3516.417	3361
3518.12	3371
3519.821	3375
3521.525	3360
3523.228	3414
3524.929	3341
3526.631	3357
3528.33	3323
3530.032	3490
3531.733	3395
3533.433	3377
3535.131	3284
3536.83	3287
3538.529	3405
3540.227	3288
3541.925	3410
3543.623	3391
3545.319	3335
3547.016	3280
3548.712	3274
3550.408	3323
3552.103	3380
3553.798	3213
3555.491	3262
3557.188	3305
3558.88	3347
3560.574	3284
3562.266	3268
3563.959	3290
3565.651	3207
3567.343	3323
3569.035	3306
3570.725	3298
3572.415	3288
3574.106	3267
3575.797	3317
3577.485	3190
3579.174	3242
3580.863	3219
3582.551	3256
3584.238	3279
3585.926	3340
3587.613	3200
3589.3	3219
3590.986	3209
3592.671	3210
3594.357	3216
3596.042	3195
3597.726	3183
3599.41	3284
3601.094	3220
3602.778	3182
3604.461	3186
3606.143	3206
3607.825	3215
3609.507	3113
3611.188	3141
3612.87	3219
3614.551	3145
3616.229	3192
3617.909	3084
3619.589	3150
3621.269	3158
3622.948	3088
3624.625	3202
3626.302	3146
3627.98	3139
3629.657	3144
3631.334	3101
3633.01	3096
3634.686	3076
3636.361	3075
3638.036	3109
3639.712	3110
3641.385	3089
3643.06	3165
3644.732	3006
3646.405	3047
3648.08	3042
3649.751	3013
3651.424	3039
3653.094	3123
3654.766	3058
3656.436	3047
3658.106	3066
3659.777	3006
3661.446	3095
3663.115	3026
3664.783	3062
3666.452	3043
3668.121	2976
3669.788	3087
3671.454	3030
3673.121	3051
3674.789	3012
3676.455	3021
3678.12	3065
3679.784	3011
3681.45	2969
3683.114	2996
3684.779	2967
3686.442	2963
3688.105	3022
3689.768	2937
3691.43	2977
3693.093	2901
3694.754	2966
3696.415	2993
3698.076	3022
3699.736	3028
3701.396	2961
3703.057	2975
3704.716	2997
3706.375	3033
3708.034	3004
3709.692	2989
3711.351	2947
3713.008	2967
3714.665	2977
3716.321	2986
3717.977	2958
3719.634	2972
3721.29	2942
3722.945	2954
3724.598	2927
3726.253	2939
3727.907	2987
3729.561	2934
3731.214	2911
3732.867	2902
3734.518	2910
3736.171	3003
3737.824	3023
3739.474	2918
3741.125	2887
3742.775	2951
3744.425	2996
3746.074	2946
3747.725	2878
3749.373	2906
3751.022	2881
3752.669	2864
3754.318	2885
3755.966	2835
3757.612	2885
3759.259	2838
3760.905	2874
3762.55	2927
3764.197	2873
3765.842	2856
3767.486	2866
3769.131	2895
3770.774	2876
3772.417	2861
3774.061	2826
3775.705	2843
3777.347	2897
3778.988	2764
3780.629	2799
3782.271	2832
3783.912	2858
3785.552	2865
3787.192	2859
3788.831	2871
3790.472	2894
3792.112	2825
3793.75	2794
3795.388	2852
3797.024	2848
3798.661	2853
3800.3	2851
3801.936	2791
3803.572	2843
3805.208	2824
3806.844	2836
3808.48	2856
3810.115	2788
3811.748	2738
3813.382	2785
3815.016	2749
3816.649	2743
3818.283	2899
3819.914	2730
3821.547	2865
3823.178	2790
3824.809	2802
3826.441	2777
3828.072	2808
3829.701	2764
3831.331	2756
3832.96	2754
3834.591	2738
3836.219	2810
3837.847	2817
3839.475	2788
3841.102	2879
3842.729	2756
3844.357	2735
3845.984	2751
3847.609	2743
3849.234	2752
3850.86	2753
3852.485	2763
3854.11	2766
3855.734	2706
3857.357	2700
3858.981	2765
3860.603	2707
3862.227	2742
3863.848	2833
3865.471	2750
3867.092	2709
3868.713	2704
3870.334	2747
3871.954	2731
3873.575	2692
3875.194	2664
3876.813	2689
3878.433	2695
3880.051	2658
3881.669	2750
3883.286	2706
3884.904	2719
3886.52	2721
3888.138	2716
3889.754	2637
3891.37	2757
3892.985	2729
3894.6	2807
3896.216	2697
3897.831	2690
3899.444	2664
3901.058	2707
3902.67	2618
3904.283	2673
3905.897	2684
3907.509	2625
3909.121	2664
3910.731	2710
3912.342	2629
3913.954	2656
3915.563	2686
3917.174	2668
3918.783	2615
3920.391	2642
3922.002	2636
3923.611	2679
3925.218	2681
3926.826	2632
3928.432	2699
3930.039	2626
3931.647	2647
3933.253	2701
3934.859	2702
3936.464	2625
3938.068	2598
3939.675	2651
3941.278	2623
3942.883	2634
3944.486	2631
3946.089	2657
3947.692	2593
3949.295	2654
3950.898	2660
3952.499	2591
3954.1	2590
3955.7	2612
3957.303	2560
3958.903	2662
3960.502	2613
3962.101	2639
3963.7	2660
3965.301	2580
3966.899	2611
3968.497	2555
3970.094	2525
3971.691	2606
3973.288	2636
3974.885	2591
3976.481	2511
3978.077	2585
3979.672	2592
3981.267	2567
3982.863	2596
3984.457	2619
3986.051	2520
3987.645	2546
3989.238	2612
3990.831	2599
3992.425	2550
3994.017	2502
3995.607	2567
3997.199	2543
3998.79	2508
4000.382	2462
4001.973	2520
4003.561	2496
4005.151	2530
4006.741	2554
4008.331	2520
4009.918	2583
4011.507	2551
4013.095	2492
4014.681	2489
4016.269	2477
4017.856	2471
4019.443	2548
4021.028	2529
4022.614	2522
4024.199	2522
4025.785	2454
4027.37	2501
4028.953	2544
4030.536	2474
4032.12	2446
4033.704	2484
4035.287	2469
4036.869	2488
4038.45	2470
4040.032	2475
4041.613	2480
4043.195	2452
4044.776	2470
4046.356	2501
4047.935	2424
4049.515	2504
4051.095	2435
4052.674	2431
4054.251	2394
4055.829	2438
4057.406	2473
4058.985	2443
4060.562	2458
4062.139	2483
4063.715	2443
4065.29	2405
4066.865	2484
4068.442	2465
4070.016	2489
4071.59	2415
4073.164	2433
4074.738	2442
4076.312	2369
4077.885	2390
4079.458	2417
4081.03	2431
4082.602	2444
4084.173	2464
4085.745	2405
4087.315	2352
4088.886	2401
4090.456	2458
4092.026	2372
4093.596	2364
4095.165	2361
4096.734	2442
4098.301	2374
4099.869	2422
4101.437	2384
4103.006	2332
4104.572	2383
4106.139	2402
4107.704	2433
4109.27	2391
4110.837	2343
4112.401	2309
4113.966	2365
4115.53	2335
4117.094	2395
4118.659	2407
4120.223	2375
4121.785	2364
4123.347	2349
4124.909	2344
4126.471	2341
4128.034	2416
4129.595	2359
4131.155	2339
4132.716	2307
4134.275	2371
4135.836	2284
4137.395	2298
4138.955	2365
4140.513	2336
4142.071	2338
4143.628	2369
4145.188	2294
4146.745	2287
4148.302	2340
4149.858	2272
4151.414	2320
4152.971	2228
4154.526	2313
4156.081	2328
4157.635	2319
4159.189	2353
4160.745	2286
4162.298	2288
4163.852	2267
4165.405	2311
4166.957	2297
4168.51	2295
4170.063	2283
4171.614	2290
4173.166	2316
4174.717	2292
4176.267	2253
4177.817	2284
4179.368	2263
4180.917	2296
4182.466	2268
4184.016	2241
4185.564	2223
4187.112	2206
4188.66	2291
4190.207	2222
4191.754	2261
4193.301	2222
4194.848	2270
4196.394	2194
4197.94	2251
4199.484	2228
4201.03	2192
4202.575	2212
4204.12	2235
4205.663	2215
4207.207	2214
4208.75	2272
4210.292	2202
4211.836	2193
4213.378	2206
4214.92	2282
4216.46	2221
4218.002	2193
4219.544	2183
4221.083	2171
4222.625	2160
4224.164	2212
4225.703	2230
4227.244	2234
4228.782	2212
4230.32	2252
4231.857	2161
4233.395	2209
4234.933	2285
4236.471	2130
4238.007	2223
4239.542	2220
4241.078	2246
4242.614	2206
4244.15	2204
4245.685	2144
4247.219	2185
4248.753	2233
4250.287	2203
4251.82	2174
4253.354	2178
4254.887	2181
4256.419	2218
4257.951	2127
4259.483	2196
4261.016	2123
4262.547	2181
4264.078	2203
4265.608	2131
4267.137	2152
4268.668	2121
4270.197	2100
4271.727	2142
4273.254	2147
4274.783	2148
4276.311	2179
4277.84	2176
4279.366	2149
4280.894	2164
4282.42	2079
4283.946	2089
4285.473	2115
4286.998	2077
4288.523	2123
4290.047	2200
4291.572	2139
4293.096	2102
4294.622	2080
4296.144	2114
4297.668	2120
4299.19	2128
4300.713	2084
4302.236	2154
4303.758	2119
4305.279	2107
4306.799	2114
4308.321	2110
4309.842	2095
4311.361	2129
4312.882	2106
4314.401	2125
