400.0961	3588
402.6185	3648
405.1424	3658
407.6635	3680
410.1838	3736
412.7035	3683
415.2225	3649
417.7388	3669
420.2585	3781
422.7754	3783
425.2917	3896
427.8072	3909
430.3221	3919
432.8363	4018
435.3498	3959
437.8626	4039
440.3727	3933
442.8841	3911
445.3969	3840
447.907	3960
450.4142	3940
452.9229	3870
455.4289	3912
457.9362	3989
460.4449	3873
462.9488	3756
465.454	3838
467.9566	3861
470.4604	3867
472.9637	3862
475.4662	3842
477.966	3767
480.4671	3872
482.9656	3856
485.4633	3837
487.9645	3825
490.4608	3907
492.9566	3941
495.4536	3935
497.948	3893
500.4437	3872
502.9387	3915
505.431	3949
507.9226	3905
510.4136	3837
512.9079	3867
515.3975	3934
517.8864	3998
520.3746	3952
522.8622	3842
525.3491	3942
527.8394	3943
530.3249	4013
532.8098	3997
535.2939	4012
537.7774	3999
540.2623	3940
542.7444	3970
545.2259	3987
547.7067	3990
550.1868	3986
552.6683	3955
555.147	4023
557.6231	3969
560.1005	3972
562.5773	4074
565.0534	4016
567.5308	4039
570.0056	4051
572.4776	4067
574.951	4208
577.4237	4189
579.8978	4199
582.3671	4165
584.8378	4206
587.3079	4247
589.7773	4222
592.244	4258
594.714	4244
597.1793	4147
599.6461	4080
602.1121	4116
604.5754	4134
607.0421	4118
609.5042	4128
611.9675	4170
614.4282	4148
616.8902	4084
619.3515	4097
621.8122	4053
624.2702	4124
626.7296	4062
629.1863	4051
631.6423	4081
634.1017	4067
636.5563	4020
639.0104	4033
641.4658	4163
643.9185	3994
646.3725	4152
648.8239	4120
651.2766	4114
653.7266	4149
656.176	4064
658.6247	4118
661.0748	4098
663.5242	4148
665.9709	4147
668.417	4140
670.8624	4247
673.3092	4076
675.7533	4241
678.1968	4085
680.6395	4155
683.0817	4181
685.5251	4201
687.9659	4250
690.4061	4183
692.8456	4199
695.2844	4212
697.7226	4212
700.1621	4195
702.599	4267
705.0332	4283
707.4688	4248
709.9036	4172
712.3399	4305
714.7735	4251
717.2044	4291
719.6367	4293
722.0683	4295
724.4993	4332
726.9296	4408
729.3593	4319
731.7883	4292
734.2147	4310
736.6423	4271
739.0714	4430
741.4958	4270
743.9216	4509
746.3447	4368
748.7691	4396
751.1929	4472
753.616	4498
756.0366	4478
758.4584	4465
760.8776	4443
763.2982	4473
765.718	4412
768.1373	4495
770.5539	4545
772.9698	4453
775.3871	4386
777.8038	4591
780.2178	4464
782.6332	4486
785.0459	4415
787.458	4556
789.8714	4468
792.2842	4495
794.6943	4525
797.1038	4448
799.5127	4560
801.9209	4556
804.3324	4432
806.7393	4549
809.1456	4542
811.5513	4599
813.9562	4551
816.3625	4574
818.7663	4574
821.1693	4510
823.5718	4567
825.9735	4527
828.3746	4642
830.7771	4526
833.177	4578
835.5762	4557
837.9747	4553
840.3727	4620
842.772	4641
845.1666	4595
847.5626	4656
849.958	4662
852.3527	4767
854.7488	4735
857.1403	4702
859.5331	4718
861.9253	4774
864.3168	4646
866.7057	4679
869.098	4649
871.4876	4687
873.8746	4667
876.263	4726
878.6487	4712
881.0378	4663
883.4243	4638
885.8081	4666
888.1933	4808
890.5759	4643
892.9598	4733
895.343	4671
897.7256	4609
900.1057	4673
902.4871	4655
904.8659	4737
907.246	4729
909.6254	4782
912.0023	4697
914.3786	4845
916.7562	4960
919.1331	4907
921.5074	4987
923.8831	5041
926.2562	5029
928.6287	5005
931.0005	4953
933.3757	5001
935.7462	5005
938.1162	5096
940.4855	5196
942.8542	5151
945.2242	5260
947.5916	5431
949.9584	5582
952.3266	5874
954.6921	6110
957.0571	6522
959.4233	6755
961.787	6842
964.15	6801
966.5125	6538
968.8742	6086
971.2354	5793
973.5959	5495
975.9559	5313
978.3151	5155
980.6738	5013
983.0338	5045
985.3912	4951
987.7461	4951
990.1022	4950
992.4578	4920
994.8127	4876
997.1689	4799
999.5207	4876
1001.874	5012
1004.226	4925
1006.576	4915
1008.929	4952
1011.28	4915
1013.628	4965
1015.977	4914
1018.324	4943
1020.674	4968
1023.019	4939
1025.366	4992
1027.713	4981
1030.056	5009
1032.399	5022
1034.746	5027
1037.087	5059
1039.431	4992
1041.771	5139
1044.113	5094
1046.454	4979
1048.793	5041
1051.133	5058
1053.471	4995
1055.807	5075
1058.146	5046
1060.483	5149
1062.818	5189
1065.153	5120
1067.489	5172
1069.822	5150
1072.156	5200
1074.488	5265
1076.82	5145
1079.15	5132
1081.48	5015
1083.814	5174
1086.143	5022
1088.471	5031
1090.799	5107
1093.126	5021
1095.452	4954
1097.78	4973
1100.105	4921
1102.43	5000
1104.754	5017
1107.077	5004
1109.4	5011
1111.722	4949
1114.044	5065
1116.365	4911
1118.685	5034
1121.005	4943
1123.324	5020
1125.643	4989
1127.961	4986
1130.278	4873
1132.595	4938
1134.911	5076
1137.226	4929
1139.541	4923
1141.854	4919
1144.167	4951
1146.482	4859
1148.793	4958
1151.105	4988
1153.414	4944
1155.725	4954
1158.033	4920
1160.344	4936
1162.651	5033
1164.959	4997
1167.265	5036
1169.572	5057
1171.878	4998
1174.184	4984
1176.488	5027
1178.79	4938
1181.094	4995
1183.396	5036
1185.699	4897
1188.001	4964
1190.301	4933
1192.6	5015
1194.9	4938
1197.2	4911
1199.497	5062
1201.794	5068
1204.09	4978
1206.387	4939
1208.684	4989
1210.978	4972
1213.272	5044
1215.565	5021
1217.858	4985
1220.15	4964
1222.443	5067
1224.734	5102
1227.024	5086
1229.313	5078
1231.602	5142
1233.892	5158
1236.18	5084
1238.467	5228
1240.754	5234
1243.04	5274
1245.325	5167
1247.612	5246
1249.896	5207
1252.178	5297
1254.461	5327
1256.743	5296
1259.027	5272
1261.308	5374
1263.587	5249
1265.867	5204
1268.146	5299
1270.425	5244
1272.703	5258
1274.981	5308
1277.256	5292
1279.532	5230
1281.808	5182
1284.083	5226
1286.358	5209
1288.63	5255
1290.904	5210
1293.175	5214
1295.449	5156
1297.719	5118
1299.99	5137
1302.259	5114
1304.529	5143
1306.798	5255
1309.065	5143
1311.333	5169
1313.599	5117
1315.866	5100
1318.131	5123
1320.396	5190
1322.66	5156
1324.925	5157
1327.187	5093
1329.448	5163
1331.711	5280
1333.974	5186
1336.234	5229
1338.493	5208
1340.752	5182
1343.01	5117
1345.269	5153
1347.526	5147
1349.784	5088
1352.04	5096
1354.295	5155
1356.552	5190
1358.806	5079
1361.059	5074
1363.312	5058
1365.564	5111
1367.818	5126
1370.069	5126
1372.318	5200
1374.568	5285
1376.817	5230
1379.066	5162
1381.316	5150
1383.564	5128
1385.809	5218
1388.056	5148
1390.301	5310
1392.549	5310
1394.793	5347
1397.036	5357
1399.279	5391
1401.522	5446
1403.763	5448
1406.007	5387
1408.248	5341
1410.487	5442
1412.727	5361
1414.965	5428
1417.205	5336
1419.442	5382
1421.68	5349
1423.915	5330
1426.152	5445
1428.388	5291
1430.623	5377
1432.857	5425
1435.091	5406
1437.323	5485
1439.556	5394
1441.789	5545
1444.019	5415
1446.25	5513
1448.48	5572
1450.708	5485
1452.938	5454
1455.167	5597
1457.394	5507
1459.62	5615
1461.846	5532
1464.073	5451
1466.299	5398
1468.523	5445
1470.746	5372
1472.969	5461
1475.191	5264
1477.415	5325
1479.636	5323
1481.858	5234
1484.078	5392
1486.298	5313
1488.518	5177
1490.736	5221
1492.954	5232
1495.169	5178
1497.386	5128
1499.602	5183
1501.819	5042
1504.034	5147
1506.248	4975
1508.462	5111
1510.675	5066
1512.888	5183
1515.1	5125
1517.311	5071
1519.522	5119
1521.732	5142
1523.942	5144
1526.151	5132
1528.36	5052
1530.566	5189
1532.773	5137
1534.98	5127
1537.187	5211
1539.392	5215
1541.596	5111
1543.801	5251
1546.005	5108
1548.208	5191
1550.411	5242
1552.612	5070
1554.814	5169
1557.013	5227
1559.212	5200
1561.414	5179
1563.612	5220
1565.811	5231
1568.007	5272
1570.203	5312
1572.403	5242
1574.598	5272
1576.792	5203
1578.988	5297
1581.181	5257
1583.376	5322
1585.568	5268
1587.761	5377
1589.952	5296
1592.143	5362
1594.333	5267
1596.524	5356
1598.715	5250
1600.903	5396
1603.091	5299
1605.278	5299
1607.466	5311
1609.652	5313
1611.838	5321
1614.023	5316
1616.207	5355
1618.391	5398
1620.576	5348
1622.759	5367
1624.941	5381
1627.123	5307
1629.304	5446
1631.484	5395
1633.664	5467
1635.844	5458
1638.022	5442
1640.201	5419
1642.38	5518
1644.556	5482
1646.732	5512
1648.908	5470
1651.084	5464
1653.257	5407
1655.433	5540
1657.607	5504
1659.779	5643
1661.951	5515
1664.122	5537
1666.295	5482
1668.467	5524
1670.635	5552
1672.805	5536
1674.973	5577
1677.142	5535
1679.31	5516
1681.478	5594
1683.644	5436
1685.81	5348
1687.975	5365
1690.142	5471
1692.305	5419
1694.468	5390
1696.632	5381
1698.794	5410
1700.957	5336
1703.119	5255
1705.279	5377
1707.439	5293
1709.598	5331
1711.758	5396
1713.917	5317
1716.075	5225
1718.231	5342
1720.388	5234
1722.543	5277
1724.702	5322
1726.856	5272
1729.01	5317
1731.164	5295
1733.317	5278
1735.471	5315
1737.623	5262
1739.774	5313
1741.925	5215
1744.075	5269
1746.225	5262
1748.376	5247
1750.524	5235
1752.672	5313
1754.82	5292
1756.965	5363
1759.113	5265
1761.259	5300
1763.405	5334
1765.549	5391
1767.694	5311
1769.836	5385
1771.981	5461
1774.123	5354
1776.264	5349
1778.405	5346
1780.546	5305
1782.687	5409
1784.827	5279
1786.966	5352
1789.103	5417
1791.242	5342
1793.381	5314
1795.517	5298
1797.653	5293
1799.788	5423
1801.923	5320
1804.057	5280
1806.193	5254
1808.326	5423
1810.457	5421
1812.59	5338
1814.721	5400
1816.855	5356
1818.984	5439
1821.113	5383
1823.244	5342
1825.372	5296
1827.499	5364
1829.63	5413
1831.756	5179
1833.882	5391
1836.007	5265
1838.132	5271
1840.26	5349
1842.384	5333
1844.507	5242
1846.63	5298
1848.752	5285
1850.875	5313
1852.996	5281
1855.118	5303
1857.238	5273
1859.358	5325
1861.477	5246
1863.597	5321
1865.715	5283
1867.832	5287
1869.948	5343
1872.064	5285
1874.181	5308
1876.297	5325
1878.411	5353
1880.526	5372
1882.639	5345
1884.752	5304
1886.865	5343
1888.977	5313
1891.089	5300
1893.2	5311
1895.308	5343
1897.42	5258
1899.53	5231
1901.639	5352
1903.745	5457
1905.853	5364
1907.962	5396
1910.067	5302
1912.174	5354
1914.278	5363
1916.383	5208
1918.486	5324
1920.592	5437
1922.694	5408
1924.797	5389
1926.898	5414
1929	5374
1931.102	5254
1933.203	5474
1935.301	5297
1937.401	5360
1939.499	5377
1941.598	5359
1943.697	5408
1945.793	5439
1947.888	5292
1949.985	5326
1952.08	5339
1954.176	5251
1956.269	5407
1958.364	5501
1960.457	5413
1962.549	5383
1964.642	5343
1966.733	5440
1968.823	5244
1970.913	5459
1973.005	5304
1975.093	5352
1977.184	5372
1979.271	5316
1981.359	5429
1983.446	5426
1985.532	5338
1987.619	5242
1989.705	5316
1991.789	5279
1993.874	5390
1995.956	5321
1998.041	5337
2000.123	5394
2002.206	5317
2004.287	5296
2006.368	5287
2008.449	5278
2010.529	5351
2012.609	5226
2014.688	5299
2016.766	5355
2018.843	5342
2020.922	5337
2022.999	5330
2025.074	5338
2027.15	5362
2029.225	5237
2031.299	5274
2033.375	5345
2035.447	5345
2037.52	5317
2039.592	5338
2041.664	5241
2043.736	5220
2045.807	5225
2047.876	5321
2049.947	5313
2052.015	5301
2054.086	5362
2056.153	5288
2058.221	5269
2060.288	5368
2062.353	5408
2064.42	5276
2066.486	5290
2068.55	5461
2070.614	5326
2072.678	5407
2074.741	5347
2076.805	5345
2078.866	5326
2080.929	5256
2082.99	5317
2085.049	5290
2087.109	5432
2089.17	5280
2091.228	5306
2093.286	5339
2095.344	5243
2097.4	5380
2099.46	5325
2101.516	5309
2103.572	5395
2105.626	5304
2107.679	5362
2109.735	5385
2111.788	5261
2113.841	5440
2115.894	5331
2117.945	5344
2119.997	5405
2122.049	5331
2124.1	5434
2126.148	5403
2128.197	5215
2130.246	5399
2132.296	5406
2134.342	5365
2136.39	5322
2138.437	5346
2140.483	5353
2142.527	5379
2144.574	5347
2146.619	5225
2148.661	5438
2150.705	5281
2152.747	5402
2154.792	5318
2156.832	5290
2158.874	5234
2160.915	5367
2162.954	5433
2164.995	5336
2167.034	5254
2169.072	5241
2171.111	5264
2173.148	5226
2175.186	5269
2177.223	5223
2179.258	5262
2181.294	5347
2183.328	5243
2185.362	5227
2187.398	5283
2189.431	5093
2191.463	5236
2193.495	5242
2195.528	5206
2197.56	5286
2199.59	5176
2201.62	5183
2203.649	5191
2205.678	5145
2207.708	5254
2209.737	5216
2211.764	5219
2213.791	5209
2215.817	5190
2217.843	5126
2219.87	5195
2221.895	5247
2223.919	5174
2225.942	5263
2227.966	5175
2229.988	5152
2232.012	5091
2234.032	5217
2236.054	5151
2238.074	5060
2240.095	5155
2242.116	5223
2244.135	5214
2246.153	5280
2248.171	5120
2250.188	5275
2252.208	5163
2254.223	5157
2256.239	5215
2258.255	5284
2260.269	5105
2262.283	5110
2264.3	5233
2266.312	5207
2268.325	5291
2270.336	5193
2272.349	5200
2274.362	5183
2276.372	5199
2278.383	5135
2280.392	5159
2282.402	5229
2284.409	5138
2286.418	5150
2288.427	5159
2290.433	5097
2292.441	5257
2294.446	5217
2296.453	5188
2298.459	5133
2300.463	5162
2302.466	5188
2304.471	5107
2306.475	5147
2308.477	5138
2310.478	5153
2312.481	5140
2314.481	5128
2316.481	5221
2318.482	5112
2320.482	5142
2322.48	5124
2324.48	5169
2326.478	5188
2328.476	5235
2330.473	5073
2332.469	5075
2334.465	5181
2336.46	5055
2338.454	5146
2340.45	5087
2342.444	5118
2344.437	5134
2346.43	5046
2348.421	5132
2350.414	5107
2352.405	5052
2354.396	5155
2356.386	4972
2358.376	5032
2360.366	5126
2362.355	5022
2364.343	5031
2366.331	5060
2368.317	5076
2370.304	5086
2372.292	5016
2374.278	5001
2376.262	5021
2378.247	5065
2380.23	4970
2382.216	5055
2384.199	4970
2386.181	4957
2388.163	4987
2390.144	5080
2392.127	5030
2394.107	5076
2396.087	4913
2398.066	5011
2400.046	4996
2402.023	4931
2404.004	4982
2405.981	5053
2407.957	5062
2409.934	4971
2411.91	4995
2413.886	4998
2415.862	4985
2417.836	4991
2419.809	4968
2421.784	4909
2423.756	5062
2425.73	4998
2427.701	5076
2429.672	4978
2431.644	4944
2433.615	5070
2435.586	4982
2437.555	5011
2439.523	4966
2441.491	5090
2443.459	4924
2445.428	5042
2447.395	4940
2449.361	5077
2451.327	4973
2453.292	4998
2455.257	5096
2457.223	4967
2459.187	4957
2461.15	4936
2463.113	4911
2465.076	4985
2467.039	5002
2468.999	4995
2470.96	5027
2472.921	5042
2474.881	5037
2476.841	4946
2478.8	4986
2480.759	4954
2482.717	4941
2484.675	5088
2486.63	4965
2488.589	4889
2490.545	5028
2492.5	4891
2494.455	4925
2496.408	4902
2498.364	4879
2500.318	4916
2502.27	5021
2504.223	4931
2506.174	4965
2508.126	4953
2510.078	4878
2512.03	4985
2513.979	4866
2515.927	4952
2517.877	4829
2519.826	4987
2521.775	4898
2523.722	5009
2525.668	4889
2527.616	4897
2529.561	4951
2531.508	4970
2533.452	4920
2535.398	4948
2537.342	4848
2539.284	4927
2541.229	5003
2543.173	4897
2545.114	4867
2547.055	4846
2548.996	5010
2550.938	4912
2552.878	4961
2554.817	4871
2556.756	4871
2558.695	4937
2560.633	4814
2562.572	4922
2564.509	4816
2566.445	4945
2568.382	4940
2570.317	4919
2572.254	4883
2574.189	4924
2576.123	4921
2578.057	4880
2579.99	4954
2581.923	4934
2583.855	4950
2585.788	5022
2587.719	4787
2589.65	4944
2591.579	4830
2593.511	4879
2595.44	4948
2597.37	5006
2599.297	5000
2601.225	4890
2603.153	4895
2605.08	4935
2607.007	4829
2608.932	4953
2610.858	4870
2612.782	4857
2614.709	4878
2616.632	4878
2618.556	4911
2620.478	4985
2622.401	4939
2624.324	5021
2626.247	4983
2628.167	4902
2630.088	4984
2632.008	4900
2633.928	4988
2635.848	4943
2637.766	5016
2639.684	4979
2641.603	4892
2643.519	4915
2645.437	4974
2647.353	5036
2649.27	4882
2651.184	4878
2653.099	4951
2655.014	4871
2656.928	4911
2658.842	4844
2660.755	4940
2662.667	4947
2664.579	5004
2666.491	4881
2668.402	4866
2670.312	4908
2672.222	4864
2674.132	4903
2676.042	4889
2677.951	4908
2679.859	4882
2681.766	4868
2683.674	4895
2685.582	4960
2687.488	4944
2689.392	4905
2691.298	4823
2693.202	4851
2695.107	4889
2697.012	4911
2698.914	4780
2700.817	4872
2702.72	4923
2704.622	4859
2706.524	4834
2708.425	4840
2710.326	4814
2712.225	4834
2714.125	4760
2716.024	4942
2717.923	4856
2719.822	4855
2721.719	4812
2723.616	4848
2725.512	4839
2727.41	4865
2729.305	4829
2731.201	4803
2733.095	4893
2734.99	4795
2736.884	4819
2738.778	4894
2740.67	4927
2742.562	4926
2744.455	4831
2746.346	4923
2748.238	4944
2750.129	4806
2752.018	4831
2753.907	4860
2755.797	4810
2757.687	4810
2759.575	4826
2761.462	4902
2763.349	4821
2765.237	4849
2767.124	4804
2769.009	4803
2770.894	4877
2772.779	4798
2774.663	4825
2776.547	4750
2778.431	4738
2780.314	4834
2782.197	4843
2784.078	4793
2785.96	4851
2787.842	4814
2789.723	4886
2791.603	4868
2793.483	4885
2795.362	4808
2797.241	4734
2799.121	4765
2800.997	4799
2802.874	4755
2804.751	4847
2806.628	4765
2808.506	4876
2810.38	4714
2812.255	4834
2814.13	4721
2816.003	4769
2817.878	4739
2819.752	4757
2821.623	4783
2823.496	4716
2825.368	4869
2827.238	4770
2829.111	4867
2830.98	4672
2832.851	4812
2834.719	4807
2836.589	4751
2838.458	4873
2840.327	4874
2842.193	4881
2844.061	4800
2845.927	4762
2847.794	4860
2849.66	4877
2851.525	4862
2853.39	4879
2855.254	4842
2857.117	4888
2858.983	4915
2860.845	4952
2862.707	4956
2864.569	4998
2866.431	5154
2868.293	5030
2870.154	5134
2872.013	5191
2873.873	5187
2875.733	5193
2877.592	5247
2879.451	5311
2881.309	5391
2883.166	5392
2885.022	5522
2886.879	5465
2888.736	5509
2890.591	5521
2892.446	5444
2894.301	5461
2896.155	5487
2898.009	5503
2899.863	5407
2901.716	5356
2903.568	5537
2905.419	5387
2907.27	5470
2909.123	5579
2910.973	5467
2912.824	5425
2914.673	5661
2916.521	5642
2918.372	5641
2920.22	5790
2922.067	5805
2923.914	5887
2925.761	5958
2927.607	5995
2929.455	5978
2931.301	6154
2933.144	6072
2934.99	6233
2936.833	6335
2938.678	6297
2940.522	6340
2942.364	6541
2944.207	6577
2946.048	6576
2947.891	6614
2949.731	6562
2951.571	6596
2953.412	6531
2955.25	6491
2957.09	6373
2958.93	6251
2960.767	6158
2962.606	6140
2964.443	6181
2966.279	5982
2968.116	6008
2969.953	5947
2971.788	5869
2973.623	5764
2975.457	5799
2977.292	5744
2979.127	5719
2980.959	5780
2982.792	5558
2984.624	5546
2986.455	5496
2988.288	5596
2990.119	5522
2991.949	5409
2993.779	5412
2995.608	5376
2997.439	5368
2999.268	5271
3001.096	5214
3002.923	5151
3004.751	5158
3006.578	5086
3008.406	5120
3010.232	4940
3012.057	4896
3013.883	4952
3015.706	4910
3017.532	4800
3019.356	4892
3021.179	4743
3023.002	4834
3024.823	4737
3026.646	4774
3028.469	4702
3030.289	4665
3032.11	4651
3033.93	4736
3035.749	4630
3037.57	4598
3039.39	4617
3041.207	4548
3043.026	4506
3044.842	4615
3046.661	4533
3048.477	4638
3050.294	4586
3052.109	4613
3053.925	4566
3055.739	4597
3057.555	4566
3059.368	4590
3061.181	4509
3062.995	4514
3064.807	4610
3066.62	4653
3068.433	4548
3070.243	4518
3072.054	4627
3073.865	4567
3075.675	4526
3077.485	4492
3079.293	4572
3081.102	4582
3082.911	4573
3084.719	4535
3086.527	4527
3088.333	4465
3090.139	4512
3091.945	4457
3093.75	4379
3095.557	4430
3097.361	4423
3099.165	4426
3100.969	4492
3102.772	4459
3104.575	4424
3106.379	4415
3108.181	4431
3109.982	4395
3111.783	4427
3113.584	4431
3115.386	4445
3117.186	4480
3118.985	4424
3120.783	4301
3122.582	4404
3124.381	4399
3126.179	4394
3127.975	4342
3129.772	4369
3131.569	4361
3133.365	4305
3135.161	4404
3136.956	4344
3138.751	4380
3140.544	4428
3142.338	4274
3144.132	4452
3145.925	4280
3147.717	4380
3149.509	4433
3151.301	4355
3153.091	4310
3154.884	4253
3156.673	4414
3158.462	4329
3160.252	4336
3162.041	4344
3163.831	4392
3165.618	4270
3167.405	4317
3169.193	4340
3170.979	4317
3172.767	4348
3174.553	4288
3176.338	4341
3178.123	4280
3179.907	4321
3181.692	4314
3183.477	4310
3185.259	4415
3187.042	4248
3188.824	4289
3190.607	4303
3192.389	4250
3194.17	4435
3195.951	4330
3197.73	4381
3199.51	4235
3201.289	4343
3203.07	4309
3204.848	4439
3206.626	4296
3208.403	4311
3210.18	4264
3211.959	4327
3213.735	4352
3215.511	4283
3217.285	4248
3219.06	4331
3220.836	4338
3222.611	4340
3224.384	4287
3226.158	4299
3227.929	4289
3229.702	4341
3231.476	4317
3233.248	4266
3235.018	4219
3236.789	4285
3238.56	4338
3240.33	4305
3242.1	4370
3243.869	4285
3245.637	4325
3247.405	4269
3249.172	4341
3250.941	4363
3252.707	4277
3254.474	4275
3256.24	4309
3258.006	4325
3259.772	4348
3261.537	4336
3263.301	4361
3265.065	4353
3266.828	4316
3268.592	4245
3270.355	4351
3272.117	4445
3273.878	4235
3275.64	4407
3277.401	4383
3279.162	4367
3280.922	4382
3282.682	4296
3284.441	4401
3286.199	4383
3287.959	4307
3289.716	4403
3291.475	4358
3293.232	4384
3294.988	4394
3296.744	4389
3298.501	4270
3300.256	4376
3302.011	4384
3303.766	4379
3305.52	4420
3307.275	4340
3309.028	4286
3310.781	4373
3312.533	4307
3314.285	4431
3316.038	4333
3317.789	4300
3319.54	4342
3321.289	4382
3323.039	4413
3324.789	4350
3326.539	4379
3328.288	4281
3330.035	4420
3331.783	4347
3333.531	4238
3335.28	4382
3337.025	4357
3338.771	4320
3340.518	4365
3342.262	4281
3344.009	4295
3345.753	4355
3347.497	4285
3349.24	4260
3350.983	4253
3352.726	4183
3354.469	4271
3356.212	4272
3357.952	4299
3359.694	4233
3361.434	4194
3363.176	4258
3364.916	4127
3366.654	4215
3368.394	4231
3370.132	4271
3371.871	4077
3373.61	4233
3375.346	4208
3377.083	4243
3378.82	4206
3380.556	4237
3382.292	4202
3384.027	4110
3385.763	4192
3387.497	4205
3389.231	4102
3390.965	4196
3392.698	4193
3394.431	4184
3396.164	4172
3397.896	4241
3399.627	4154
3401.36	4176
3403.09	4127
3404.82	4172
3406.55	4244
3408.279	4017
3410.01	4215
3411.738	4069
3413.467	4082
3415.194	4082
3416.92	4118
3418.647	4058
3420.375	4037
3422.102	4218
3423.827	4118
3425.553	4155
3427.277	4045
3429.003	4100
3430.727	4086
3432.451	4114
3434.173	4018
3435.896	4021
3437.62	4043
3439.343	4145
3441.063	4015
3442.785	4100
3444.505	4038
3446.226	4073
3447.948	4108
3449.666	4021
3451.386	3972
3453.104	3978
3454.823	3993
3456.541	4028
3458.259	3936
3459.976	3977
3461.693	4004
3463.408	3999
3465.125	4010
3466.841	4066
3468.556	3981
3470.271	4006
3471.985	3852
3473.698	3966
3475.414	3917
3477.126	3918
3478.838	3913
3480.55	3966
3482.263	3945
3483.975	3945
3485.686	3941
3487.396	3975
3489.106	3884
3490.817	3907
3492.526	3755
3494.236	3889
3495.944	3846
3497.652	3845
3499.359	3813
3501.066	3882
3502.775	3837
3504.481	3867
3506.187	3797
3507.893	3912
3509.598	3740
3511.304	3860
3513.009	3771
3514.713	3750
3516.417	3765
3518.12	3821
3519.821	3749
3521.525	3753
3523.228	3828
3524.929	3737
3526.631	3730
3528.33	3724
3530.032	3747
3531.733	3796
3533.433	3741
3535.131	3686
3536.83	3761
3538.529	3745
3540.227	3750
3541.925	3687
3543.623	3815
3545.319	3729
3547.016	3684
3548.712	3675
3550.408	3670
3552.103	3679
3553.798	3658
3555.491	3674
3557.188	3657
3558.88	3656
3560.574	3674
3562.266	3705
3563.959	3701
3565.651	3587
3567.343	3646
3569.035	3646
3570.725	3617
3572.415	3707
3574.106	3582
3575.797	3669
3577.485	3734
3579.174	3632
3580.863	3628
3582.551	3585
3584.238	3600
3585.926	3562
3587.613	3660
3589.3	3583
3590.986	3645
3592.671	3563
3594.357	3573
3596.042	3479
3597.726	3472
3599.41	3559
3601.094	3522
3602.778	3519
3604.461	3470
3606.143	3500
3607.825	3469
3609.507	3479
3611.188	3492
3612.87	3464
3614.551	3534
3616.229	3393
3617.909	3422
3619.589	3485
3621.269	3450
3622.948	3439
3624.625	3368
3626.302	3444
3627.98	3521
3629.657	3415
3631.334	3469
3633.01	3412
3634.686	3397
3636.361	3347
3638.036	3466
3639.712	3412
3641.385	3422
3643.06	3401
3644.732	3350
3646.405	3380
3648.08	3400
3649.751	3341
3651.424	3288
3653.094	3391
3654.766	3247
3656.436	3344
3658.106	3371
3659.777	3308
3661.446	3378
3663.115	3403
3664.783	3346
3666.452	3375
3668.121	3355
3669.788	3316
3671.454	3311
3673.121	3295
3674.789	3316
3676.455	3362
3678.12	3301
3679.784	3299
3681.45	3235
3683.114	3285
3684.779	3194
3686.442	3204
3688.105	3349
3689.768	3356
3691.43	3279
3693.093	3290
3694.754	3257
3696.415	3326
3698.076	3286
3699.736	3243
3701.396	3250
3703.057	3285
3704.716	3293
3706.375	3312
3708.034	3228
3709.692	3231
3711.351	3199
3713.008	3221
3714.665	3200
3716.321	3285
3717.977	3225
3719.634	3205
3721.29	3225
3722.945	3218
3724.598	3230
3726.253	3195
3727.907	3183
3729.561	3221
3731.214	3173
3732.867	3274
3734.518	3219
3736.171	3185
3737.824	3206
3739.474	3226
3741.125	3156
3742.775	3126
3744.425	3152
3746.074	3209
3747.725	3160
3749.373	3147
3751.022	3195
3752.669	3165
3754.318	3228
3755.966	3069
3757.612	3166
3759.259	3194
3760.905	3224
3762.55	3194
3764.197	3148
3765.842	3130
3767.486	3211
3769.131	3084
3770.774	3093
3772.417	3160
3774.061	3144
3775.705	3205
3777.347	3082
3778.988	3080
3780.629	3073
3782.271	3064
3783.912	3077
3785.552	3085
3787.192	3180
3788.831	3125
3790.472	3071
3792.112	3076
3793.75	3063
3795.388	3167
3797.024	3032
3798.661	3093
3800.3	3113
3801.936	3096
3803.572	3076
3805.208	3119
3806.844	3098
3808.48	3073
3810.115	3089
3811.748	3101
3813.382	3000
3815.016	3079
3816.649	3071
3818.283	3034
3819.914	3013
3821.547	3022
3823.178	3106
3824.809	3018
3826.441	3054
3828.072	2971
3829.701	3017
3831.331	3034
3832.96	2996
3834.591	2979
3836.219	3018
3837.847	3037
3839.475	2981
3841.102	3042
3842.729	3036
3844.357	2968
3845.984	3038
3847.609	3097
3849.234	3019
3850.86	3048
3852.485	3052
3854.11	2957
3855.734	2984
3857.357	3006
3858.981	2972
3860.603	2961
3862.227	3013
3863.848	2986
3865.471	2992
3867.092	2948
3868.713	2949
3870.334	2941
3871.954	3039
3873.575	2984
3875.194	2957
3876.813	2992
3878.433	2993
3880.051	2950
3881.669	2927
3883.286	2931
3884.904	2949
3886.52	2913
3888.138	2918
3889.754	2925
3891.37	2971
3892.985	2938
3894.6	2901
3896.216	3034
3897.831	2931
3899.444	2900
3901.058	2894
3902.67	2931
3904.283	2910
3905.897	2953
3907.509	2847
3909.121	2884
3910.731	2955
3912.342	2964
3913.954	2866
3915.563	2875
3917.174	2864
3918.783	2868
3920.391	2933
3922.002	2867
3923.611	2936
3925.218	2858
3926.826	2922
3928.432	2888
3930.039	2884
3931.647	2844
3933.253	2920
3934.859	2894
3936.464	2924
3938.068	2905
3939.675	2795
3941.278	2872
3942.883	2906
3944.486	2883
3946.089	2791
3947.692	2892
3949.295	2812
3950.898	2866
3952.499	2882
3954.1	2884
3955.7	2864
3957.303	2860
3958.903	2798
3960.502	2877
3962.101	2817
3963.7	2857
3965.301	2880
3966.899	2905
3968.497	2861
3970.094	2873
3971.691	2830
3973.288	2840
3974.885	2789
3976.481	2837
3978.077	2825
3979.672	2794
3981.267	2781
3982.863	2820
3984.457	2852
3986.051	2721
3987.645	2796
3989.238	2756
3990.831	2770
3992.425	2791
3994.017	2798
3995.607	2789
3997.199	2766
3998.79	2738
4000.382	2754
4001.973	2741
4003.561	2715
4005.151	2805
4006.741	2761
4008.331	2745
4009.918	2694
4011.507	2716
4013.095	2807
4014.681	2720
4016.269	2705
4017.856	2681
4019.443	2747
4021.028	2666
4022.614	2689
4024.199	2709
4025.785	2646
4027.37	2685
4028.953	2710
4030.536	2711
4032.12	2688
4033.704	2714
4035.287	2670
4036.869	2731
4038.45	2684
4040.032	2600
4041.613	2621
4043.195	2612
4044.776	2604
4046.356	2621
4047.935	2664
4049.515	2759
4051.095	2650
4052.674	2624
4054.251	2698
4055.829	2611
4057.406	2607
4058.985	2659
4060.562	2626
4062.139	2633
4063.715	2657
4065.29	2659
4066.865	2654
4068.442	2625
4070.016	2632
4071.59	2595
4073.164	2710
4074.738	2688
4076.312	2653
4077.885	2527
4079.458	2673
4081.03	2579
4082.602	2615
4084.173	2591
4085.745	2547
4087.315	2623
4088.886	2711
4090.456	2600
4092.026	2604
4093.596	2576
4095.165	2587
4096.734	2651
4098.301	2592
4099.869	2625
4101.437	2628
4103.006	2575
4104.572	2566
4106.139	2532
4107.704	2624
4109.27	2680
4110.837	2613
4112.401	2543
4113.966	2577
4115.53	2548
4117.094	2530
4118.659	2512
4120.223	2555
4121.785	2560
4123.347	2531
4124.909	2543
4126.471	2638
4128.034	2538
4129.595	2565
4131.155	2551
4132.716	2553
4134.275	2545
4135.836	2519
4137.395	2551
4138.955	2481
4140.513	2531
4142.071	2474
4143.628	2490
4145.188	2525
4146.745	2481
4148.302	2533
4149.858	2489
4151.414	2498
4152.971	2545
4154.526	2529
4156.081	2476
4157.635	2489
4159.189	2586
4160.745	2480
4162.298	2488
4163.852	2506
4165.405	2479
4166.957	2530
4168.51	2459
4170.063	2449
4171.614	2471
4173.166	2425
4174.717	2441
4176.267	2499
4177.817	2440
4179.368	2447
4180.917	2397
4182.466	2477
4184.016	2456
4185.564	2421
4187.112	2443
4188.66	2435
4190.207	2454
4191.754	2452
4193.301	2417
4194.848	2384
4196.394	2427
4197.94	2389
4199.484	2421
4201.03	2423
4202.575	2394
4204.12	2392
4205.663	2413
4207.207	2402
4208.75	2442
4210.292	2438
4211.836	2416
4213.378	2391
4214.92	2405
4216.46	2385
4218.002	2415
4219.544	2334
4221.083	2386
4222.625	2372
4224.164	2339
4225.703	2380
4227.244	2403
4228.782	2292
4230.32	2364
4231.857	2361
4233.395	2358
4234.933	2393
4236.471	2344
4238.007	2363
4239.542	2360
4241.078	2355
4242.614	2379
4244.15	2397
4245.685	2377
4247.219	2342
4248.753	2383
4250.287	2332
4251.82	2348
4253.354	2349
4254.887	2345
4256.419	2279
4257.951	2369
4259.483	2318
4261.016	2306
4262.547	2316
4264.078	2322
4265.608	2293
4267.137	2364
4268.668	2334
4270.197	2275
4271.727	2289
4273.254	2321
4274.783	2361
4276.311	2329
4277.84	2366
4279.366	2328
4280.894	2319
4282.42	2289
4283.946	2343
4285.473	2314
4286.998	2346
4288.523	2310
4290.047	2320
4291.572	2331
4293.096	2316
4294.622	2319
4296.144	2245
4297.668	2315
4299.19	2250
4300.713	2306
4302.236	2297
4303.758	2259
4305.279	2261
4306.799	2232
4308.321	2287
4309.842	2310
4311.361	2253
4312.882	2258
4314.401	2174
