400.0961	2505
402.6185	2533
405.1424	2458
407.6635	2493
410.1838	2516
412.7035	2444
415.2225	2508
417.7388	2462
420.2585	2550
422.7754	2550
425.2917	2559
427.8072	2600
430.3221	2582
432.8363	2613
435.3498	2561
437.8626	2638
440.3727	2620
442.8841	2658
445.3969	2615
447.907	2598
450.4142	2585
452.9229	2573
455.4289	2632
457.9362	2619
460.4449	2531
462.9488	2567
465.454	2560
467.9566	2551
470.4604	2568
472.9637	2558
475.4662	2626
477.966	2590
480.4671	2634
482.9656	2567
485.4633	2669
487.9645	2655
490.4608	2589
492.9566	2611
495.4536	2705
497.948	2623
500.4437	2634
502.9387	2685
505.431	2617
507.9226	2653
510.4136	2599
512.9079	2687
515.3975	2669
517.8864	2661
520.3746	2655
522.8622	2656
525.3491	2647
527.8394	2659
530.3249	2630
532.8098	2678
535.2939	2699
537.7774	2671
540.2623	2689
542.7444	2703
545.2259	2633
547.7067	2642
550.1868	2691
552.6683	2639
555.147	2678
557.6231	2702
560.1005	2678
562.5773	2665
565.0534	2645
567.5308	2739
570.0056	2698
572.4776	2752
574.951	2789
577.4237	2747
579.8978	2755
582.3671	2794
584.8378	2798
587.3079	2824
589.7773	2879
592.244	2805
594.714	2772
597.1793	2724
599.6461	2834
602.1121	2741
604.5754	2733
607.0421	2860
609.5042	2750
611.9675	2806
614.4282	2741
616.8902	2696
619.3515	2734
621.8122	2739
624.2702	2697
626.7296	2772
629.1863	2693
631.6423	2721
634.1017	2742
636.5563	2766
639.0104	2748
641.4658	2744
643.9185	2714
646.3725	2744
648.8239	2731
651.2766	2805
653.7266	2780
656.176	2759
658.6247	2745
661.0748	2776
663.5242	2817
665.9709	2791
668.417	2874
670.8624	2803
673.3092	2833
675.7533	2809
678.1968	2813
680.6395	2803
683.0817	2776
685.5251	2843
687.9659	2796
690.4061	2769
692.8456	2788
695.2844	2844
697.7226	2817
700.1621	2812
702.599	2826
705.0332	2864
707.4688	2794
709.9036	2917
712.3399	2923
714.7735	2863
717.2044	2825
719.6367	2864
722.0683	2861
724.4993	2890
726.9296	2935
729.3593	2958
731.7883	2884
734.2147	2891
736.6423	2853
739.0714	2950
741.4958	2917
743.9216	2956
746.3447	2986
748.7691	2935
751.1929	2960
753.616	3020
756.0366	2972
758.4584	2966
760.8776	2977
763.2982	2931
765.718	3001
768.1373	3022
770.5539	2949
772.9698	3031
775.3871	2987
777.8038	2883
780.2178	2937
782.6332	3105
785.0459	3034
787.458	3060
789.8714	3065
792.2842	2955
794.6943	2984
797.1038	3030
799.5127	2943
801.9209	3091
804.3324	3014
806.7393	2997
809.1456	3085
811.5513	3073
813.9562	3025
816.3625	3054
818.7663	3091
821.1693	3063
823.5718	3048
825.9735	3022
828.3746	3077
830.7771	2941
833.177	3042
835.5762	2970
837.9747	3103
840.3727	3075
842.772	3089
845.1666	3143
847.5626	3093
849.958	3093
852.3527	3063
854.7488	3204
857.1403	3154
859.5331	3116
861.9253	3118
864.3168	3123
866.7057	3091
869.098	3123
871.4876	3148
873.8746	3112
876.263	3087
878.6487	3117
881.0378	3068
883.4243	3109
885.8081	3117
888.1933	3095
890.5759	3009
892.9598	3076
895.343	3074
897.7256	3128
900.1057	3119
902.4871	3118
904.8659	3154
907.246	3188
909.6254	3182
912.0023	3209
914.3786	3236
916.7562	3338
919.1331	3294
921.5074	3292
923.8831	3387
926.2562	3367
928.6287	3404
931.0005	3300
933.3757	3347
935.7462	3317
938.1162	3335
940.4855	3323
942.8542	3499
945.2242	3428
947.5916	3464
949.9584	3590
952.3266	3693
954.6921	3850
957.0571	3989
959.4233	4110
961.787	4155
964.15	4074
966.5125	3971
968.8742	3762
971.2354	3757
973.5959	3526
975.9559	3414
978.3151	3399
980.6738	3345
983.0338	3300
985.3912	3285
987.7461	3343
990.1022	3258
992.4578	3281
994.8127	3210
997.1689	3254
999.5207	3215
1001.874	3256
1004.226	3202
1006.576	3243
1008.929	3291
1011.28	3283
1013.628	3210
1015.977	3263
1018.324	3225
1020.674	3292
1023.019	3290
1025.366	3277
1027.713	3262
1030.056	3288
1032.399	3275
1034.746	3287
1037.087	3256
1039.431	3335
1041.771	3350
1044.113	3356
1046.454	3311
1048.793	3288
1051.133	3319
1053.471	3299
1055.807	3340
1058.146	3354
1060.483	3407
1062.818	3374
1065.153	3333
1067.489	3416
1069.822	3321
1072.156	3404
1074.488	3430
1076.82	3389
1079.15	3364
1081.48	3399
1083.814	3417
1086.143	3402
1088.471	3298
1090.799	3411
1093.126	3246
1095.452	3336
1097.78	3405
1100.105	3321
1102.43	3358
1104.754	3394
1107.077	3407
1109.4	3336
1111.722	3361
1114.044	3332
1116.365	3337
1118.685	3312
1121.005	3339
1123.324	3331
1125.643	3345
1127.961	3350
1130.278	3341
1132.595	3433
1134.911	3340
1137.226	3415
1139.541	3333
1141.854	3338
1144.167	3365
1146.482	3352
1148.793	3364
1151.105	3354
1153.414	3360
1155.725	3370
1158.033	3378
1160.344	3411
1162.651	3357
1164.959	3366
1167.265	3368
1169.572	3331
1171.878	3353
1174.184	3360
1176.488	3412
1178.79	3419
1181.094	3415
1183.396	3372
1185.699	3387
1188.001	3352
1190.301	3340
1192.6	3371
1194.9	3315
1197.2	3418
1199.497	3368
1201.794	3407
1204.09	3355
1206.387	3374
1208.684	3444
1210.978	3401
1213.272	3398
1215.565	3408
1217.858	3484
1220.15	3378
1222.443	3343
1224.734	3402
1227.024	3452
1229.313	3404
1231.602	3468
1233.892	3507
1236.18	3532
1238.467	3514
1240.754	3510
1243.04	3520
1245.325	3560
1247.612	3464
1249.896	3487
1252.178	3535
1254.461	3560
1256.743	3460
1259.027	3499
1261.308	3509
1263.587	3519
1265.867	3513
1268.146	3599
1270.425	3526
1272.703	3573
1274.981	3527
1277.256	3608
1279.532	3604
1281.808	3529
1284.083	3479
1286.358	3523
1288.63	3454
1290.904	3518
1293.175	3403
1295.449	3480
1297.719	3425
1299.99	3526
1302.259	3494
1304.529	3450
1306.798	3597
1309.065	3515
1311.333	3568
1313.599	3482
1315.866	3474
1318.131	3527
1320.396	3500
1322.66	3450
1324.925	3441
1327.187	3496
1329.448	3556
1331.711	3582
1333.974	3497
1336.234	3523
1338.493	3613
1340.752	3485
1343.01	3543
1345.269	3418
1347.526	3497
1349.784	3486
1352.04	3489
1354.295	3553
1356.552	3483
1358.806	3466
1361.059	3520
1363.312	3578
1365.564	3548
1367.818	3526
1370.069	3566
1372.318	3546
1374.568	3474
1376.817	3615
1379.066	3590
1381.316	3564
1383.564	3553
1385.809	3637
1388.056	3580
1390.301	3647
1392.549	3627
1394.793	3691
1397.036	3711
1399.279	3739
1401.522	3782
1403.763	3696
1406.007	3779
1408.248	3740
1410.487	3736
1412.727	3709
1414.965	3747
1417.205	3766
1419.442	3720
1421.68	3636
1423.915	3741
1426.152	3655
1428.388	3620
1430.623	3678
1432.857	3742
1435.091	3714
1437.323	3745
1439.556	3734
1441.789	3781
1444.019	3742
1446.25	3764
1448.48	3791
1450.708	3773
1452.938	3774
1455.167	3826
1457.394	3789
1459.62	3739
1461.846	3727
1464.073	3852
1466.299	3699
1468.523	3701
1470.746	3694
1472.969	3601
1475.191	3712
1477.415	3671
1479.636	3754
1481.858	3662
1484.078	3663
1486.298	3556
1488.518	3643
1490.736	3521
1492.954	3503
1495.169	3528
1497.386	3587
1499.602	3600
1501.819	3526
1504.034	3521
1506.248	3528
1508.462	3504
1510.675	3528
1512.888	3557
1515.1	3614
1517.311	3484
1519.522	3509
1521.732	3566
1523.942	3513
1526.151	3596
1528.36	3550
1530.566	3519
1532.773	3561
1534.98	3552
1537.187	3567
1539.392	3552
1541.596	3625
1543.801	3613
1546.005	3516
1548.208	3612
1550.411	3660
1552.612	3617
1554.814	3567
1557.013	3570
1559.212	3627
1561.414	3643
1563.612	3649
1565.811	3718
1568.007	3661
1570.203	3640
1572.403	3654
1574.598	3689
1576.792	3640
1578.988	3694
1581.181	3717
1583.376	3634
1585.568	3582
1587.761	3566
1589.952	3728
1592.143	3746
1594.333	3753
1596.524	3610
1598.715	3686
1600.903	3725
1603.091	3626
1605.278	3746
1607.466	3655
1609.652	3666
1611.838	3715
1614.023	3681
1616.207	3697
1618.391	3745
1620.576	3654
1622.759	3652
1624.941	3751
1627.123	3709
1629.304	3775
1631.484	3742
1633.664	3700
1635.844	3746
1638.022	3728
1640.201	3710
1642.38	3713
1644.556	3742
1646.732	3792
1648.908	3765
1651.084	3812
1653.257	3693
1655.433	3802
1657.607	3803
1659.779	3756
1661.951	3767
1664.122	3764
1666.295	3811
1668.467	3808
1670.635	3836
1672.805	3789
1674.973	3686
1677.142	3810
1679.31	3822
1681.478	3747
1683.644	3717
1685.81	3790
1687.975	3681
1690.142	3799
1692.305	3730
1694.468	3748
1696.632	3788
1698.794	3778
1700.957	3652
1703.119	3703
1705.279	3718
1707.439	3720
1709.598	3730
1711.758	3708
1713.917	3724
1716.075	3737
1718.231	3795
1720.388	3725
1722.543	3671
1724.702	3760
1726.856	3691
1729.01	3698
1731.164	3747
1733.317	3631
1735.471	3751
1737.623	3668
1739.774	3725
1741.925	3717
1744.075	3628
1746.225	3665
1748.376	3695
1750.524	3705
1752.672	3730
1754.82	3696
1756.965	3663
1759.113	3668
1761.259	3686
1763.405	3758
1765.549	3653
1767.694	3749
1769.836	3710
1771.981	3716
1774.123	3761
1776.264	3704
1778.405	3753
1780.546	3708
1782.687	3727
1784.827	3770
1786.966	3754
1789.103	3758
1791.242	3707
1793.381	3735
1795.517	3798
1797.653	3754
1799.788	3780
1801.923	3675
1804.057	3713
1806.193	3667
1808.326	3778
1810.457	3836
1812.59	3787
1814.721	3736
1816.855	3704
1818.984	3728
1821.113	3739
1823.244	3730
1825.372	3642
1827.499	3701
1829.63	3763
1831.756	3664
1833.882	3724
1836.007	3691
1838.132	3707
1840.26	3709
1842.384	3763
1844.507	3698
1846.63	3742
1848.752	3624
1850.875	3640
1852.996	3800
1855.118	3713
1857.238	3704
1859.358	3771
1861.477	3746
1863.597	3653
1865.715	3623
1867.832	3693
1869.948	3745
1872.064	3743
1874.181	3749
1876.297	3745
1878.411	3703
1880.526	3752
1882.639	3637
1884.752	3755
1886.865	3793
1888.977	3764
1891.089	3862
1893.2	3760
1895.308	3711
1897.42	3758
1899.53	3827
1901.639	3717
1903.745	3783
1905.853	3747
1907.962	3716
1910.067	3776
1912.174	3810
1914.278	3852
1916.383	3768
1918.486	3838
1920.592	3800
1922.694	3785
1924.797	3791
1926.898	3815
1929	3778
1931.102	3792
1933.203	3796
1935.301	3771
1937.401	3711
1939.499	3815
1941.598	3821
1943.697	3864
1945.793	3796
1947.888	3782
1949.985	3851
1952.08	3823
1954.176	3816
1956.269	3833
1958.364	3858
1960.457	3789
1962.549	3760
1964.642	3731
1966.733	3813
1968.823	3763
1970.913	3867
1973.005	3806
1975.093	3726
1977.184	3820
1979.271	3716
1981.359	3783
1983.446	3766
1985.532	3820
1987.619	3817
1989.705	3855
1991.789	3824
1993.874	3837
1995.956	3804
1998.041	3793
2000.123	3768
2002.206	3872
2004.287	3805
2006.368	3796
2008.449	3826
2010.529	3775
2012.609	3786
2014.688	3677
2016.766	3853
2018.843	3942
2020.922	3777
2022.999	3839
2025.074	3737
2027.15	3846
2029.225	3838
2031.299	3798
2033.375	3782
2035.447	3818
2037.52	3807
2039.592	3850
2041.664	3772
2043.736	3801
2045.807	3795
2047.876	3758
2049.947	3792
2052.015	3789
2054.086	3775
2056.153	3789
2058.221	3821
2060.288	3805
2062.353	3762
2064.42	3925
2066.486	3844
2068.55	3785
2070.614	3800
2072.678	3871
2074.741	3819
2076.805	3749
2078.866	3872
2080.929	3860
2082.99	3816
2085.049	3874
2087.109	3854
2089.17	3938
2091.228	3803
2093.286	3847
2095.344	3755
2097.4	3909
2099.46	3853
2101.516	3887
2103.572	3790
2105.626	3861
2107.679	3877
2109.735	3852
2111.788	3779
2113.841	3851
2115.894	3775
2117.945	3908
2119.997	3810
2122.049	3823
2124.1	3782
2126.148	3829
2128.197	3788
2130.246	3758
2132.296	3849
2134.342	3878
2136.39	3824
2138.437	3849
2140.483	3830
2142.527	3813
2144.574	3837
2146.619	3914
2148.661	3883
2150.705	3745
2152.747	3879
2154.792	3818
2156.832	3820
2158.874	3811
2160.915	3790
2162.954	3807
2164.995	3845
2167.034	3804
2169.072	3808
2171.111	3762
2173.148	3900
2175.186	3892
2177.223	3845
2179.258	3773
2181.294	3818
2183.328	3793
2185.362	3856
2187.398	3807
2189.431	3847
2191.463	3740
2193.495	3779
2195.528	3779
2197.56	3805
2199.59	3806
2201.62	3730
2203.649	3764
2205.678	3791
2207.708	3810
2209.737	3724
2211.764	3819
2213.791	3805
2215.817	3776
2217.843	3767
2219.87	3745
2221.895	3874
2223.919	3728
2225.942	3749
2227.966	3762
2229.988	3825
2232.012	3761
2234.032	3812
2236.054	3814
2238.074	3809
2240.095	3839
2242.116	3817
2244.135	3816
2246.153	3792
2248.171	3855
2250.188	3768
2252.208	3749
2254.223	3773
2256.239	3788
2258.255	3722
2260.269	3834
2262.283	3787
2264.3	3727
2266.312	3791
2268.325	3761
2270.336	3806
2272.349	3759
2274.362	3861
2276.372	3838
2278.383	3783
2280.392	3817
2282.402	3785
2284.409	3794
2286.418	3788
2288.427	3833
2290.433	3775
2292.441	3898
2294.446	3777
2296.453	3807
2298.459	3757
2300.463	3845
2302.466	3852
2304.471	3733
2306.475	3765
2308.477	3775
2310.478	3777
2312.481	3788
2314.481	3749
2316.481	3758
2318.482	3765
2320.482	3753
2322.48	3781
2324.48	3818
2326.478	3794
2328.476	3753
2330.473	3875
2332.469	3727
2334.465	3736
2336.46	3786
2338.454	3653
2340.45	3858
2342.444	3773
2344.437	3807
2346.43	3764
2348.421	3819
2350.414	3691
2352.405	3727
2354.396	3770
2356.386	3739
2358.376	3761
2360.366	3634
2362.355	3758
2364.343	3808
2366.331	3700
2368.317	3764
2370.304	3787
2372.292	3765
2374.278	3664
2376.262	3779
2378.247	3731
2380.23	3741
2382.216	3658
2384.199	3617
2386.181	3670
2388.163	3747
2390.144	3702
2392.127	3694
2394.107	3711
2396.087	3698
2398.066	3590
2400.046	3659
2402.023	3695
2404.004	3669
2405.981	3705
2407.957	3634
2409.934	3703
2411.91	3709
2413.886	3674
2415.862	3660
2417.836	3698
2419.809	3785
2421.784	3645
2423.756	3611
2425.73	3647
2427.701	3721
2429.672	3668
2431.644	3656
2433.615	3740
2435.586	3597
2437.555	3687
2439.523	3736
2441.491	3730
2443.459	3704
2445.428	3740
2447.395	3647
2449.361	3726
2451.327	3672
2453.292	3703
2455.257	3670
2457.223	3669
2459.187	3666
2461.15	3590
2463.113	3608
2465.076	3688
2467.039	3666
2468.999	3636
2470.96	3717
2472.921	3707
2474.881	3705
2476.841	3672
2478.8	3631
2480.759	3596
2482.717	3593
2484.675	3715
2486.63	3586
2488.589	3606
2490.545	3664
2492.5	3612
2494.455	3699
2496.408	3657
2498.364	3625
2500.318	3560
2502.27	3712
2504.223	3587
2506.174	3574
2508.126	3634
2510.078	3583
2512.03	3645
2513.979	3611
2515.927	3641
2517.877	3618
2519.826	3610
2521.775	3646
2523.722	3637
2525.668	3661
2527.616	3621
2529.561	3553
2531.508	3649
2533.452	3689
2535.398	3485
2537.342	3612
2539.284	3548
2541.229	3569
2543.173	3615
2545.114	3509
2547.055	3659
2548.996	3691
2550.938	3635
2552.878	3690
2554.817	3565
2556.756	3591
2558.695	3700
2560.633	3668
2562.572	3572
2564.509	3680
2566.445	3625
2568.382	3507
2570.317	3630
2572.254	3658
2574.189	3630
2576.123	3621
2578.057	3577
2579.99	3622
2581.923	3535
2583.855	3734
2585.788	3645
2587.719	3669
2589.65	3654
2591.579	3635
2593.511	3669
2595.44	3678
2597.37	3621
2599.297	3705
2601.225	3641
2603.153	3586
2605.08	3641
2607.007	3717
2608.932	3633
2610.858	3522
2612.782	3638
2614.709	3702
2616.632	3641
2618.556	3625
2620.478	3618
2622.401	3640
2624.324	3649
2626.247	3612
2628.167	3606
2630.088	3661
2632.008	3674
2633.928	3731
2635.848	3685
2637.766	3673
2639.684	3745
2641.603	3655
2643.519	3675
2645.437	3652
2647.353	3665
2649.27	3600
2651.184	3585
2653.099	3682
2655.014	3603
2656.928	3630
2658.842	3656
2660.755	3631
2662.667	3624
2664.579	3612
2666.491	3664
2668.402	3660
2670.312	3695
2672.222	3605
2674.132	3643
2676.042	3598
2677.951	3629
2679.859	3617
2681.766	3593
2683.674	3652
2685.582	3609
2687.488	3618
2689.392	3589
2691.298	3590
2693.202	3558
2695.107	3671
2697.012	3655
2698.914	3677
2700.817	3590
2702.72	3596
2704.622	3592
2706.524	3559
2708.425	3617
2710.326	3566
2712.225	3562
2714.125	3624
2716.024	3593
2717.923	3629
2719.822	3574
2721.719	3629
2723.616	3567
2725.512	3629
2727.41	3581
2729.305	3612
2731.201	3621
2733.095	3577
2734.99	3647
2736.884	3548
2738.778	3596
2740.67	3565
2742.562	3556
2744.455	3595
2746.346	3565
2748.238	3655
2750.129	3572
2752.018	3628
2753.907	3554
2755.797	3612
2757.687	3595
2759.575	3519
2761.462	3577
2763.349	3541
2765.237	3622
2767.124	3542
2769.009	3687
2770.894	3522
2772.779	3519
2774.663	3572
2776.547	3561
2778.431	3549
2780.314	3583
2782.197	3548
2784.078	3682
2785.96	3534
2787.842	3560
2789.723	3502
2791.603	3614
2793.483	3459
2795.362	3566
2797.241	3553
2799.121	3613
2800.997	3533
2802.874	3639
2804.751	3570
2806.628	3592
2808.506	3602
2810.38	3536
2812.255	3539
2814.13	3460
2816.003	3611
2817.878	3499
2819.752	3563
2821.623	3566
2823.496	3544
2825.368	3584
2827.238	3541
2829.111	3545
2830.98	3567
2832.851	3599
2834.719	3556
2836.589	3590
2838.458	3509
2840.327	3595
2842.193	3634
2844.061	3586
2845.927	3581
2847.794	3600
2849.66	3559
2851.525	3685
2853.39	3613
2855.254	3558
2857.117	3682
2858.983	3693
2860.845	3583
2862.707	3666
2864.569	3686
2866.431	3767
2868.293	3703
2870.154	3741
2872.013	3823
2873.873	3823
2875.733	3829
2877.592	3875
2879.451	3860
2881.309	3894
2883.166	3926
2885.022	3824
2886.879	3940
2888.736	4006
2890.591	4033
2892.446	3998
2894.301	4042
2896.155	4031
2898.009	3990
2899.863	3967
2901.716	3942
2903.568	4000
2905.419	4005
2907.27	3934
2909.123	4040
2910.973	4048
2912.824	4072
2914.673	4043
2916.521	4039
2918.372	4131
2920.22	4031
2922.067	4070
2923.914	4158
2925.761	4220
2927.607	4247
2929.455	4144
2931.301	4285
2933.144	4198
2934.99	4228
2936.833	4309
2938.678	4326
2940.522	4302
2942.364	4419
2944.207	4422
2946.048	4527
2947.891	4682
2949.731	4606
2951.571	4616
2953.412	4700
2955.25	4596
2957.09	4574
2958.93	4431
2960.767	4427
2962.606	4419
2964.443	4428
2966.279	4400
2968.116	4353
2969.953	4294
2971.788	4141
2973.623	4180
2975.457	4063
2977.292	4059
2979.127	4041
2980.959	4059
2982.792	3932
2984.624	4009
2986.455	3954
2988.288	3903
2990.119	3812
2991.949	3901
2993.779	3833
2995.608	3833
2997.439	3790
2999.268	3789
3001.096	3745
3002.923	3718
3004.751	3713
3006.578	3714
3008.406	3590
3010.232	3648
3012.057	3665
3013.883	3561
3015.706	3669
3017.532	3606
3019.356	3592
3021.179	3548
3023.002	3539
3024.823	3574
3026.646	3478
3028.469	3481
3030.289	3596
3032.11	3507
3033.93	3529
3035.749	3491
3037.57	3392
3039.39	3386
3041.207	3503
3043.026	3502
3044.842	3448
3046.661	3440
3048.477	3488
3050.294	3531
3052.109	3477
3053.925	3397
3055.739	3416
3057.555	3428
3059.368	3378
3061.181	3407
3062.995	3517
3064.807	3469
3066.62	3417
3068.433	3509
3070.243	3380
3072.054	3465
3073.865	3414
3075.675	3424
3077.485	3399
3079.293	3442
3081.102	3406
3082.911	3429
3084.719	3392
3086.527	3348
3088.333	3428
3090.139	3416
3091.945	3313
3093.75	3344
3095.557	3346
3097.361	3365
3099.165	3391
3100.969	3400
3102.772	3375
3104.575	3353
3106.379	3312
3108.181	3407
3109.982	3431
3111.783	3279
3113.584	3335
3115.386	3332
3117.186	3339
3118.985	3347
3120.783	3298
3122.582	3317
3124.381	3371
3126.179	3288
3127.975	3276
3129.772	3301
3131.569	3320
3133.365	3324
3135.161	3392
3136.956	3298
3138.751	3336
3140.544	3259
3142.338	3295
3144.132	3330
3145.925	3301
3147.717	3234
3149.509	3361
3151.301	3330
3153.091	3225
3154.884	3244
3156.673	3246
3158.462	3306
3160.252	3214
3162.041	3274
3163.831	3331
3165.618	3376
3167.405	3233
3169.193	3245
3170.979	3232
3172.767	3282
3174.553	3333
3176.338	3316
3178.123	3232
3179.907	3243
3181.692	3280
3183.477	3259
3185.259	3198
3187.042	3260
3188.824	3299
3190.607	3223
3192.389	3210
3194.17	3294
3195.951	3241
3197.73	3266
3199.51	3260
3201.289	3185
3203.07	3257
3204.848	3181
3206.626	3289
3208.403	3290
3210.18	3256
3211.959	3257
3213.735	3281
3215.511	3217
3217.285	3224
3219.06	3291
3220.836	3247
3222.611	3197
3224.384	3201
3226.158	3243
3227.929	3155
3229.702	3285
3231.476	3214
3233.248	3238
3235.018	3264
3236.789	3238
3238.56	3280
3240.33	3220
3242.1	3252
3243.869	3285
3245.637	3356
3247.405	3292
3249.172	3184
3250.941	3235
3252.707	3272
3254.474	3278
3256.24	3169
3258.006	3261
3259.772	3265
3261.537	3274
3263.301	3271
3265.065	3155
3266.828	3286
3268.592	3217
3270.355	3269
3272.117	3279
3273.878	3209
3275.64	3193
3277.401	3186
3279.162	3240
3280.922	3235
3282.682	3237
3284.441	3304
3286.199	3264
3287.959	3314
3289.716	3197
3291.475	3296
3293.232	3256
3294.988	3240
3296.744	3275
3298.501	3244
3300.256	3198
3302.011	3289
3303.766	3219
3305.52	3167
3307.275	3216
3309.028	3189
3310.781	3190
3312.533	3268
3314.285	3251
3316.038	3148
3317.789	3239
3319.54	3286
3321.289	3172
3323.039	3181
3324.789	3289
3326.539	3276
3328.288	3285
3330.035	3241
3331.783	3249
3333.531	3241
3335.28	3264
3337.025	3148
3338.771	3123
3340.518	3208
3342.262	3213
3344.009	3206
3345.753	3169
3347.497	3259
3349.24	3177
3350.983	3175
3352.726	3148
3354.469	3243
3356.212	3147
3357.952	3163
3359.694	3158
3361.434	3203
3363.176	3090
3364.916	3159
3366.654	3201
3368.394	3127
3370.132	3113
3371.871	3209
3373.61	3167
3375.346	3089
3377.083	3205
3378.82	3182
3380.556	3141
3382.292	3135
3384.027	3183
3385.763	3129
3387.497	3116
3389.231	3184
3390.965	3101
3392.698	3166
3394.431	3129
3396.164	3136
3397.896	3125
3399.627	3119
3401.36	3162
3403.09	3077
3404.82	3103
3406.55	3077
3408.279	3138
3410.01	3113
3411.738	3148
3413.467	3129
3415.194	3102
3416.92	3155
3418.647	3177
3420.375	3001
3422.102	3124
3423.827	3103
3425.553	3103
3427.277	3105
3429.003	3197
3430.727	3119
3432.451	3103
3434.173	3078
3435.896	3170
3437.62	3077
3439.343	3041
3441.063	3119
3442.785	2988
3444.505	3028
3446.226	3071
3447.948	3012
3449.666	3017
3451.386	3023
3453.104	2995
3454.823	3072
3456.541	2980
3458.259	3083
3459.976	2994
3461.693	2967
3463.408	3047
3465.125	2967
3466.841	3035
3468.556	2964
3470.271	3034
3471.985	3004
3473.698	2928
3475.414	2956
3477.126	2978
3478.838	2978
3480.55	3024
3482.263	2970
3483.975	2946
3485.686	2974
3487.396	3004
3489.106	2973
3490.817	2934
3492.526	2982
3494.236	2930
3495.944	2878
3497.652	2925
3499.359	2947
3501.066	2952
3502.775	2963
3504.481	2919
3506.187	2895
3507.893	2983
3509.598	2964
3511.304	2911
3513.009	2895
3514.713	2884
3516.417	2937
3518.12	2888
3519.821	2956
3521.525	2904
3523.228	2860
3524.929	2938
3526.631	2822
3528.33	2878
3530.032	2849
3531.733	2948
3533.433	2964
3535.131	2883
3536.83	2891
3538.529	2932
3540.227	2887
3541.925	2906
3543.623	2856
3545.319	2860
3547.016	2804
3548.712	2870
3550.408	2828
3552.103	2905
3553.798	2829
3555.491	2897
3557.188	2814
3558.88	2786
3560.574	2868
3562.266	2850
3563.959	2889
3565.651	2852
3567.343	2833
3569.035	2744
3570.725	2775
3572.415	2843
3574.106	2849
3575.797	2781
3577.485	2830
3579.174	2873
3580.863	2732
3582.551	2794
3584.238	2796
3585.926	2810
3587.613	2815
3589.3	2747
3590.986	2784
3592.671	2733
3594.357	2814
3596.042	2799
3597.726	2803
3599.41	2800
3601.094	2818
3602.778	2766
3604.461	2717
3606.143	2760
3607.825	2730
3609.507	2775
3611.188	2715
3612.87	2748
3614.551	2767
3616.229	2758
3617.909	2795
3619.589	2747
3621.269	2693
3622.948	2705
3624.625	2779
3626.302	2651
3627.98	2706
3629.657	2701
3631.334	2733
3633.01	2704
3634.686	2662
3636.361	2609
3638.036	2688
3639.712	2713
3641.385	2582
3643.06	2625
3644.732	2656
3646.405	2704
3648.08	2682
3649.751	2674
3651.424	2645
3653.094	2593
3654.766	2698
3656.436	2654
3658.106	2680
3659.777	2680
3661.446	2617
3663.115	2647
3664.783	2588
3666.452	2592
3668.121	2648
3669.788	2587
3671.454	2660
3673.121	2594
3674.789	2611
3676.455	2613
3678.12	2670
3679.784	2610
3681.45	2664
3683.114	2633
3684.779	2598
3686.442	2582
3688.105	2589
3689.768	2691
3691.43	2642
3693.093	2634
3694.754	2638
3696.415	2579
3698.076	2630
3699.736	2641
3701.396	2539
3703.057	2626
3704.716	2617
3706.375	2612
3708.034	2618
3709.692	2585
3711.351	2594
3713.008	2601
3714.665	2587
3716.321	2589
3717.977	2579
3719.634	2638
3721.29	2542
3722.945	2596
3724.598	2581
3726.253	2554
3727.907	2552
3729.561	2522
3731.214	2536
3732.867	2553
3734.518	2494
3736.171	2584
3737.824	2591
3739.474	2545
3741.125	2586
3742.775	2590
3744.425	2601
3746.074	2616
3747.725	2542
3749.373	2520
3751.022	2503
3752.669	2551
3754.318	2550
3755.966	2545
3757.612	2541
3759.259	2433
3760.905	2581
3762.55	2501
3764.197	2533
3765.842	2529
3767.486	2509
3769.131	2496
3770.774	2515
3772.417	2506
3774.061	2524
3775.705	2472
3777.347	2522
3778.988	2477
3780.629	2493
3782.271	2525
3783.912	2470
3785.552	2530
3787.192	2523
3788.831	2538
3790.472	2488
3792.112	2552
3793.75	2527
3795.388	2450
3797.024	2504
3798.661	2527
3800.3	2496
3801.936	2523
3803.572	2486
3805.208	2468
3806.844	2519
3808.48	2504
3810.115	2523
3811.748	2438
3813.382	2436
3815.016	2399
3816.649	2460
3818.283	2444
3819.914	2514
3821.547	2450
3823.178	2431
3824.809	2460
3826.441	2400
3828.072	2477
3829.701	2402
3831.331	2424
3832.96	2472
3834.591	2507
3836.219	2419
3837.847	2503
3839.475	2382
3841.102	2425
3842.729	2461
3844.357	2347
3845.984	2458
3847.609	2467
3849.234	2404
3850.86	2424
3852.485	2397
3854.11	2399
3855.734	2404
3857.357	2416
3858.981	2409
3860.603	2302
3862.227	2507
3863.848	2413
3865.471	2402
3867.092	2386
3868.713	2369
3870.334	2417
3871.954	2335
3873.575	2364
3875.194	2428
3876.813	2406
3878.433	2345
3880.051	2387
3881.669	2322
3883.286	2350
3884.904	2356
3886.52	2365
3888.138	2357
3889.754	2364
3891.37	2349
3892.985	2310
3894.6	2392
3896.216	2425
3897.831	2372
3899.444	2361
3901.058	2406
3902.67	2390
3904.283	2282
3905.897	2338
3907.509	2366
3909.121	2341
3910.731	2399
3912.342	2349
3913.954	2322
3915.563	2402
3917.174	2368
3918.783	2309
3920.391	2350
3922.002	2368
3923.611	2345
3925.218	2313
3926.826	2301
3928.432	2297
3930.039	2389
3931.647	2332
3933.253	2341
3934.859	2381
3936.464	2380
3938.068	2282
3939.675	2354
3941.278	2290
3942.883	2351
3944.486	2327
3946.089	2322
3947.692	2305
3949.295	2334
3950.898	2354
3952.499	2354
3954.1	2360
3955.7	2346
3957.303	2289
3958.903	2297
3960.502	2296
3962.101	2344
3963.7	2322
3965.301	2261
3966.899	2215
3968.497	2248
3970.094	2277
3971.691	2315
3973.288	2282
3974.885	2289
3976.481	2284
3978.077	2300
3979.672	2261
3981.267	2285
3982.863	2286
3984.457	2247
3986.051	2281
3987.645	2274
3989.238	2267
3990.831	2270
3992.425	2255
3994.017	2225
3995.607	2241
3997.199	2297
3998.79	2253
4000.382	2223
4001.973	2224
4003.561	2199
4005.151	2221
4006.741	2217
4008.331	2159
4009.918	2249
4011.507	2229
4013.095	2212
4014.681	2183
4016.269	2239
4017.856	2194
4019.443	2209
4021.028	2263
4022.614	2200
4024.199	2140
4025.785	2168
4027.37	2180
4028.953	2173
4030.536	2195
4032.12	2193
4033.704	2206
4035.287	2208
4036.869	2174
4038.45	2131
4040.032	2259
4041.613	2155
4043.195	2195
4044.776	2200
4046.356	2158
4047.935	2213
4049.515	2154
4051.095	2212
4052.674	2161
4054.251	2218
4055.829	2117
4057.406	2169
4058.985	2221
4060.562	2158
4062.139	2122
4063.715	2143
4065.29	2165
4066.865	2217
4068.442	2107
4070.016	2155
4071.59	2137
4073.164	2146
4074.738	2091
4076.312	2180
4077.885	2200
4079.458	2164
4081.03	2150
4082.602	2102
4084.173	2115
4085.745	2169
4087.315	2166
4088.886	2163
4090.456	2112
4092.026	2125
4093.596	2160
4095.165	2143
4096.734	2156
4098.301	2146
4099.869	2111
4101.437	2167
4103.006	2124
4104.572	2125
4106.139	2113
4107.704	2104
4109.27	2118
4110.837	2150
4112.401	2093
4113.966	2114
4115.53	2117
4117.094	2063
4118.659	2060
4120.223	2130
4121.785	2121
4123.347	2099
4124.909	2072
4126.471	2061
4128.034	2122
4129.595	2079
4131.155	2093
4132.716	2113
4134.275	2048
4135.836	2065
4137.395	2105
4138.955	2042
4140.513	2067
4142.071	2071
4143.628	2062
4145.188	2052
4146.745	2069
4148.302	2122
4149.858	2080
4151.414	2050
4152.971	2064
4154.526	1987
4156.081	2015
4157.635	2026
4159.189	2047
4160.745	2038
4162.298	2033
4163.852	2066
4165.405	1966
4166.957	2013
4168.51	2041
4170.063	2021
4171.614	2041
4173.166	1999
4174.717	2016
4176.267	2045
4177.817	1970
4179.368	2005
4180.917	2051
4182.466	2042
4184.016	2034
4185.564	2048
4187.112	2013
4188.66	2021
4190.207	1995
4191.754	1971
4193.301	2044
4194.848	1945
4196.394	2022
4197.94	2026
4199.484	2003
4201.03	2013
4202.575	1942
4204.12	2044
4205.663	2016
4207.207	1974
4208.75	1996
4210.292	1997
4211.836	1980
4213.378	2006
4214.92	1986
4216.46	2018
4218.002	1960
4219.544	2001
4221.083	1986
4222.625	1999
4224.164	1963
4225.703	1982
4227.244	1998
4228.782	1996
4230.32	1984
4231.857	1986
4233.395	1933
4234.933	1953
4236.471	2006
4238.007	1930
4239.542	1970
4241.078	1977
4242.614	1977
4244.15	1965
4245.685	1973
4247.219	2033
4248.753	1980
4250.287	1908
4251.82	1922
4253.354	1951
4254.887	1962
4256.419	1946
4257.951	1923
4259.483	2007
4261.016	1907
4262.547	1954
4264.078	1949
4265.608	1950
4267.137	1917
4268.668	1958
4270.197	1971
4271.727	1942
4273.254	1940
4274.783	1887
4276.311	1971
4277.84	1961
4279.366	1928
4280.894	1920
4282.42	1864
4283.946	1921
4285.473	1945
4286.998	1872
4288.523	1888
4290.047	1906
4291.572	1921
4293.096	1890
4294.622	1877
4296.144	1956
4297.668	1894
4299.19	1918
4300.713	1872
4302.236	1919
4303.758	1875
4305.279	1926
4306.799	1938
4308.321	1910
4309.842	1891
4311.361	1904
4312.882	1955
4314.401	1878
