400.0961	4574
402.6185	4608
405.1424	4589
407.6635	4605
410.1838	4648
412.7035	4710
415.2225	4777
417.7388	4708
420.2585	4838
422.7754	4881
425.2917	4846
427.8072	4888
430.3221	4896
432.8363	5116
435.3498	4897
437.8626	4984
440.3727	4971
442.8841	4956
445.3969	4988
447.907	5019
450.4142	4920
452.9229	4987
455.4289	4931
457.9362	4960
460.4449	4986
462.9488	4933
465.454	4918
467.9566	4886
470.4604	4917
472.9637	4963
475.4662	4923
477.966	4951
480.4671	4886
482.9656	4960
485.4633	4884
487.9645	4907
490.4608	5019
492.9566	4972
495.4536	4978
497.948	5009
500.4437	5125
502.9387	4998
505.431	5030
507.9226	5026
510.4136	5028
512.9079	4996
515.3975	4988
517.8864	5081
520.3746	4976
522.8622	5074
525.3491	5090
527.8394	5061
530.3249	5054
532.8098	5177
535.2939	5060
537.7774	5119
540.2623	5137
542.7444	5175
545.2259	5054
547.7067	5097
550.1868	5040
552.6683	5167
555.147	5128
557.6231	5103
560.1005	5115
562.5773	5163
565.0534	5223
567.5308	5153
570.0056	5156
572.4776	5235
574.951	5267
577.4237	5333
579.8978	5389
582.3671	5392
584.8378	5338
587.3079	5282
589.7773	5284
592.244	5387
594.714	5338
597.1793	5278
599.6461	5290
602.1121	5144
604.5754	5201
607.0421	5355
609.5042	5277
611.9675	5334
614.4282	5353
616.8902	5269
619.3515	5291
621.8122	5127
624.2702	5253
626.7296	5209
629.1863	5229
631.6423	5170
634.1017	5188
636.5563	5172
639.0104	5229
641.4658	5250
643.9185	5264
646.3725	5309
648.8239	5282
651.2766	5318
653.7266	5216
656.176	5334
658.6247	5370
661.0748	5430
663.5242	5310
665.9709	5274
668.417	5331
670.8624	5333
673.3092	5293
675.7533	5292
678.1968	5294
680.6395	5349
683.0817	5305
685.5251	5439
687.9659	5414
690.4061	5443
692.8456	5392
695.2844	5436
697.7226	5366
700.1621	5520
702.599	5488
705.0332	5501
707.4688	5519
709.9036	5515
712.3399	5442
714.7735	5456
717.2044	5594
719.6367	5512
722.0683	5378
724.4993	5628
726.9296	5477
729.3593	5559
731.7883	5509
734.2147	5516
736.6423	5562
739.0714	5709
741.4958	5626
743.9216	5675
746.3447	5613
748.7691	5700
751.1929	5713
753.616	5711
756.0366	5711
758.4584	5784
760.8776	5835
763.2982	5788
765.718	5806
768.1373	5683
770.5539	5710
772.9698	5849
775.3871	5810
777.8038	5835
780.2178	5836
782.6332	5793
785.0459	5742
787.458	5833
789.8714	5719
792.2842	5861
794.6943	5790
797.1038	5762
799.5127	5748
801.9209	5810
804.3324	5859
806.7393	5817
809.1456	5866
811.5513	5910
813.9562	5919
816.3625	5877
818.7663	5942
821.1693	5918
823.5718	6064
825.9735	5819
828.3746	5861
830.7771	5826
833.177	5934
835.5762	5965
837.9747	5997
840.3727	5924
842.772	6027
845.1666	5902
847.5626	6012
849.958	6144
852.3527	6097
854.7488	6152
857.1403	6031
859.5331	6076
861.9253	6111
864.3168	6052
866.7057	6031
869.098	6052
871.4876	6013
873.8746	6142
876.263	5928
878.6487	6202
881.0378	5928
883.4243	6065
885.8081	6054
888.1933	6029
890.5759	5984
892.9598	6047
895.343	6067
897.7256	6199
900.1057	5904
902.4871	5966
904.8659	6067
907.246	6071
909.6254	6082
912.0023	6130
914.3786	6171
916.7562	6284
919.1331	6382
921.5074	6280
923.8831	6398
926.2562	6432
928.6287	6327
931.0005	6363
933.3757	6367
935.7462	6337
938.1162	6469
940.4855	6548
942.8542	6626
945.2242	6768
947.5916	6833
949.9584	7063
952.3266	7286
954.6921	7629
957.0571	7875
959.4233	8297
961.787	8368
964.15	8164
966.5125	7978
968.8742	7637
971.2354	7389
973.5959	6947
975.9559	6654
978.3151	6542
980.6738	6488
983.0338	6322
985.3912	6331
987.7461	6428
990.1022	6181
992.4578	6290
994.8127	6267
997.1689	6335
999.5207	6317
1001.874	6428
1004.226	6268
1006.576	6338
1008.929	6415
1011.28	6445
1013.628	6339
1015.977	6347
1018.324	6189
1020.674	6385
1023.019	6450
1025.366	6408
1027.713	6450
1030.056	6383
1032.399	6444
1034.746	6546
1037.087	6390
1039.431	6465
1041.771	6415
1044.113	6467
1046.454	6468
1048.793	6456
1051.133	6520
1053.471	6390
1055.807	6369
1058.146	6531
1060.483	6594
1062.818	6540
1065.153	6500
1067.489	6501
1069.822	6595
1072.156	6588
1074.488	6542
1076.82	6565
1079.15	6630
1081.48	6653
1083.814	6528
1086.143	6471
1088.471	6389
1090.799	6381
1093.126	6513
1095.452	6409
1097.78	6519
1100.105	6442
1102.43	6510
1104.754	6471
1107.077	6511
1109.4	6456
1111.722	6441
1114.044	6470
1116.365	6435
1118.685	6455
1121.005	6409
1123.324	6492
1125.643	6463
1127.961	6550
1130.278	6385
1132.595	6385
1134.911	6385
1137.226	6301
1139.541	6355
1141.854	6412
1144.167	6512
1146.482	6394
1148.793	6486
1151.105	6463
1153.414	6465
1155.725	6549
1158.033	6484
1160.344	6453
1162.651	6624
1164.959	6449
1167.265	6586
1169.572	6465
1171.878	6406
1174.184	6541
1176.488	6512
1178.79	6496
1181.094	6442
1183.396	6560
1185.699	6451
1188.001	6548
1190.301	6415
1192.6	6499
1194.9	6527
1197.2	6521
1199.497	6443
1201.794	6427
1204.09	6488
1206.387	6428
1208.684	6519
1210.978	6505
1213.272	6451
1215.565	6542
1217.858	6520
1220.15	6562
1222.443	6557
1224.734	6454
1227.024	6733
1229.313	6690
1231.602	6657
1233.892	6701
1236.18	6818
1238.467	6804
1240.754	6814
1243.04	6862
1245.325	6844
1247.612	6865
1249.896	6877
1252.178	6772
1254.461	6804
1256.743	6928
1259.027	6771
1261.308	6726
1263.587	6835
1265.867	6894
1268.146	6836
1270.425	6779
1272.703	6844
1274.981	6785
1277.256	6820
1279.532	6759
1281.808	6758
1284.083	6880
1286.358	6803
1288.63	6755
1290.904	6737
1293.175	6759
1295.449	6800
1297.719	6783
1299.99	6792
1302.259	6569
1304.529	6750
1306.798	6667
1309.065	6682
1311.333	6669
1313.599	6675
1315.866	6637
1318.131	6685
1320.396	6718
1322.66	6640
1324.925	6734
1327.187	6711
1329.448	6851
1331.711	6668
1333.974	6743
1336.234	6539
1338.493	6694
1340.752	6710
1343.01	6785
1345.269	6690
1347.526	6712
1349.784	6855
1352.04	6855
1354.295	6704
1356.552	6704
1358.806	6658
1361.059	6666
1363.312	6655
1365.564	6812
1367.818	6677
1370.069	6787
1372.318	6881
1374.568	6738
1376.817	6676
1379.066	6709
1381.316	6750
1383.564	6770
1385.809	6752
1388.056	6780
1390.301	6781
1392.549	6812
1394.793	6980
1397.036	6899
1399.279	6924
1401.522	6917
1403.763	6984
1406.007	7032
1408.248	7016
1410.487	6831
1412.727	6888
1414.965	6817
1417.205	6846
1419.442	6836
1421.68	6908
1423.915	6961
1426.152	6904
1428.388	6828
1430.623	6916
1432.857	6895
1435.091	7003
1437.323	6942
1439.556	6986
1441.789	6998
1444.019	7008
1446.25	7036
1448.48	6973
1450.708	7093
1452.938	7090
1455.167	7058
1457.394	7199
1459.62	7109
1461.846	7096
1464.073	7061
1466.299	7080
1468.523	7074
1470.746	7014
1472.969	6890
1475.191	6899
1477.415	6978
1479.636	6839
1481.858	6788
1484.078	6731
1486.298	6699
1488.518	6744
1490.736	6791
1492.954	6773
1495.169	6813
1497.386	6675
1499.602	6746
1501.819	6770
1504.034	6668
1506.248	6702
1508.462	6715
1510.675	6596
1512.888	6719
1515.1	6693
1517.311	6703
1519.522	6555
1521.732	6706
1523.942	6605
1526.151	6641
1528.36	6709
1530.566	6644
1532.773	6730
1534.98	6659
1537.187	6707
1539.392	6760
1541.596	6739
1543.801	6750
1546.005	6804
1548.208	6670
1550.411	6781
1552.612	6863
1554.814	6714
1557.013	6681
1559.212	6931
1561.414	6792
1563.612	6862
1565.811	6846
1568.007	6880
1570.203	6954
1572.403	6881
1574.598	6896
1576.792	6825
1578.988	6800
1581.181	6853
1583.376	6934
1585.568	6898
1587.761	6968
1589.952	6886
1592.143	6847
1594.333	6951
1596.524	6991
1598.715	6900
1600.903	6850
1603.091	6942
1605.278	7047
1607.466	6885
1609.652	7005
1611.838	7001
1614.023	6912
1616.207	6916
1618.391	6865
1620.576	6934
1622.759	6951
1624.941	7130
1627.123	7049
1629.304	7016
1631.484	7122
1633.664	6996
1635.844	7167
1638.022	7065
1640.201	7093
1642.38	7214
1644.556	6976
1646.732	7076
1648.908	7009
1651.084	7126
1653.257	7117
1655.433	7152
1657.607	7072
1659.779	7098
1661.951	7198
1664.122	7114
1666.295	7232
1668.467	7082
1670.635	7217
1672.805	7147
1674.973	7012
1677.142	7172
1679.31	7156
1681.478	7030
1683.644	7105
1685.81	7093
1687.975	7027
1690.142	7051
1692.305	7096
1694.468	7003
1696.632	6934
1698.794	7031
1700.957	6940
1703.119	6932
1705.279	6894
1707.439	6990
1709.598	6919
1711.758	6948
1713.917	6955
1716.075	6952
1718.231	6946
1720.388	6870
1722.543	6900
1724.702	6954
1726.856	7014
1729.01	6938
1731.164	6906
1733.317	6948
1735.471	6860
1737.623	6926
1739.774	6961
1741.925	6905
1744.075	6906
1746.225	6882
1748.376	6863
1750.524	6968
1752.672	6975
1754.82	6910
1756.965	6865
1759.113	6909
1761.259	6916
1763.405	7018
1765.549	6966
1767.694	6916
1769.836	7051
1771.981	6998
1774.123	6960
1776.264	7078
1778.405	6945
1780.546	6969
1782.687	6999
1784.827	6839
1786.966	6995
1789.103	7008
1791.242	7065
1793.381	7033
1795.517	6885
1797.653	6904
1799.788	6943
1801.923	7053
1804.057	6974
1806.193	6914
1808.326	7006
1810.457	6976
1812.59	7031
1814.721	6997
1816.855	6872
1818.984	7064
1821.113	6918
1823.244	7091
1825.372	7023
1827.499	6935
1829.63	6867
1831.756	6995
1833.882	6945
1836.007	6969
1838.132	7031
1840.26	6943
1842.384	6942
1844.507	6957
1846.63	6931
1848.752	6881
1850.875	6995
1852.996	6921
1855.118	6811
1857.238	6922
1859.358	6933
1861.477	6909
1863.597	6941
1865.715	6858
1867.832	6956
1869.948	6852
1872.064	6889
1874.181	6861
1876.297	6928
1878.411	6904
1880.526	6883
1882.639	6908
1884.752	6833
1886.865	6914
1888.977	6827
1891.089	6887
1893.2	6935
1895.308	7011
1897.42	6996
1899.53	7090
1901.639	6935
1903.745	6988
1905.853	7042
1907.962	6922
1910.067	6984
1912.174	7011
1914.278	7077
1916.383	7128
1918.486	7077
1920.592	7056
1922.694	7068
1924.797	7051
1926.898	7033
1929	7026
1931.102	7132
1933.203	7112
1935.301	7062
1937.401	6954
1939.499	7042
1941.598	6991
1943.697	7061
1945.793	7011
1947.888	7011
1949.985	6986
1952.08	7037
1954.176	6961
1956.269	7094
1958.364	6976
1960.457	7106
1962.549	7099
1964.642	6967
1966.733	7021
1968.823	7065
1970.913	6885
1973.005	7028
1975.093	6942
1977.184	6953
1979.271	6941
1981.359	6968
1983.446	6971
1985.532	7020
1987.619	7094
1989.705	7018
1991.789	6961
1993.874	7067
1995.956	6992
1998.041	6927
2000.123	7059
2002.206	7089
2004.287	7031
2006.368	7118
2008.449	6973
2010.529	6873
2012.609	7032
2014.688	6904
2016.766	6821
2018.843	6910
2020.922	6875
2022.999	7008
2025.074	6938
2027.15	6978
2029.225	6940
2031.299	6940
2033.375	6765
2035.447	7164
2037.52	6914
2039.592	6932
2041.664	6724
2043.736	6939
2045.807	7035
2047.876	6980
2049.947	6955
2052.015	6961
2054.086	6940
2056.153	6874
2058.221	6971
2060.288	6918
2062.353	7008
2064.42	6916
2066.486	6967
2068.55	6985
2070.614	6933
2072.678	6935
2074.741	7002
2076.805	6878
2078.866	7029
2080.929	7040
2082.99	6979
2085.049	7045
2087.109	6941
2089.17	6953
2091.228	6987
2093.286	7046
2095.344	7112
2097.4	7007
2099.46	6909
2101.516	6940
2103.572	6931
2105.626	6867
2107.679	7063
2109.735	7004
2111.788	6985
2113.841	6890
2115.894	6985
2117.945	6998
2119.997	6939
2122.049	6956
2124.1	6931
2126.148	7029
2128.197	6939
2130.246	6960
2132.296	6836
2134.342	6873
2136.39	6921
2138.437	7017
2140.483	6952
2142.527	6927
2144.574	7000
2146.619	6973
2148.661	6993
2150.705	6926
2152.747	6975
2154.792	6979
2156.832	6924
2158.874	7022
2160.915	6942
2162.954	6874
2164.995	6800
2167.034	6864
2169.072	6967
2171.111	6881
2173.148	6931
2175.186	6893
2177.223	6913
2179.258	6863
2181.294	6769
2183.328	6783
2185.362	6765
2187.398	6807
2189.431	6873
2191.463	6830
2193.495	6763
2195.528	6771
2197.56	6852
2199.59	6780
2201.62	6897
2203.649	6749
2205.678	6942
2207.708	6796
2209.737	6782
2211.764	6839
2213.791	6899
2215.817	6780
2217.843	6795
2219.87	6827
2221.895	6837
2223.919	6800
2225.942	6930
2227.966	6859
2229.988	6707
2232.012	6747
2234.032	6782
2236.054	6755
2238.074	6777
2240.095	6786
2242.116	6788
2244.135	6777
2246.153	6797
2248.171	6739
2250.188	6802
2252.208	6734
2254.223	6658
2256.239	6815
2258.255	6809
2260.269	6808
2262.283	6748
2264.3	6820
2266.312	6790
2268.325	6787
2270.336	6746
2272.349	6801
2274.362	6846
2276.372	6776
2278.383	6756
2280.392	6762
2282.402	6772
2284.409	6829
2286.418	6922
2288.427	6741
2290.433	6736
2292.441	6868
2294.446	6799
2296.453	6752
2298.459	6819
2300.463	6691
2302.466	6691
2304.471	6763
2306.475	6846
2308.477	6707
2310.478	6709
2312.481	6672
2314.481	6695
2316.481	6636
2318.482	6735
2320.482	6750
2322.48	6618
2324.48	6802
2326.478	6826
2328.476	6725
2330.473	6593
2332.469	6736
2334.465	6746
2336.46	6698
2338.454	6607
2340.45	6714
2342.444	6682
2344.437	6615
2346.43	6717
2348.421	6673
2350.414	6629
2352.405	6623
2354.396	6719
2356.386	6712
2358.376	6700
2360.366	6614
2362.355	6576
2364.343	6666
2366.331	6720
2368.317	6591
2370.304	6605
2372.292	6655
2374.278	6645
2376.262	6591
2378.247	6571
2380.23	6598
2382.216	6599
2384.199	6432
2386.181	6583
2388.163	6652
2390.144	6535
2392.127	6527
2394.107	6512
2396.087	6426
2398.066	6447
2400.046	6499
2402.023	6586
2404.004	6494
2405.981	6565
2407.957	6519
2409.934	6538
2411.91	6602
2413.886	6592
2415.862	6556
2417.836	6518
2419.809	6538
2421.784	6469
2423.756	6377
2425.73	6644
2427.701	6377
2429.672	6472
2431.644	6389
2433.615	6495
2435.586	6477
2437.555	6577
2439.523	6707
2441.491	6494
2443.459	6386
2445.428	6564
2447.395	6557
2449.361	6456
2451.327	6524
2453.292	6582
2455.257	6470
2457.223	6518
2459.187	6448
2461.15	6479
2463.113	6436
2465.076	6458
2467.039	6429
2468.999	6573
2470.96	6536
2472.921	6379
2474.881	6482
2476.841	6524
2478.8	6487
2480.759	6485
2482.717	6376
2484.675	6448
2486.63	6421
2488.589	6453
2490.545	6361
2492.5	6478
2494.455	6429
2496.408	6440
2498.364	6517
2500.318	6499
2502.27	6500
2504.223	6309
2506.174	6354
2508.126	6429
2510.078	6477
2512.03	6527
2513.979	6441
2515.927	6466
2517.877	6509
2519.826	6502
2521.775	6399
2523.722	6381
2525.668	6383
2527.616	6255
2529.561	6376
2531.508	6325
2533.452	6327
2535.398	6385
2537.342	6435
2539.284	6445
2541.229	6441
2543.173	6367
2545.114	6345
2547.055	6443
2548.996	6400
2550.938	6400
2552.878	6420
2554.817	6354
2556.756	6465
2558.695	6384
2560.633	6359
2562.572	6241
2564.509	6400
2566.445	6410
2568.382	6458
2570.317	6357
2572.254	6369
2574.189	6399
2576.123	6331
2578.057	6377
2579.99	6350
2581.923	6432
2583.855	6335
2585.788	6440
2587.719	6329
2589.65	6343
2591.579	6277
2593.511	6470
2595.44	6459
2597.37	6265
2599.297	6328
2601.225	6411
2603.153	6358
2605.08	6283
2607.007	6303
2608.932	6337
2610.858	6332
2612.782	6311
2614.709	6285
2616.632	6420
2618.556	6418
2620.478	6409
2622.401	6421
2624.324	6311
2626.247	6405
2628.167	6374
2630.088	6407
2632.008	6464
2633.928	6419
2635.848	6379
2637.766	6457
2639.684	6378
2641.603	6410
2643.519	6417
2645.437	6345
2647.353	6411
2649.27	6325
2651.184	6451
2653.099	6317
2655.014	6261
2656.928	6368
2658.842	6503
2660.755	6294
2662.667	6355
2664.579	6444
2666.491	6285
2668.402	6286
2670.312	6311
2672.222	6363
2674.132	6343
2676.042	6433
2677.951	6346
2679.859	6320
2681.766	6280
2683.674	6286
2685.582	6361
2687.488	6256
2689.392	6413
2691.298	6325
2693.202	6373
2695.107	6350
2697.012	6369
2698.914	6380
2700.817	6287
2702.72	6303
2704.622	6196
2706.524	6246
2708.425	6257
2710.326	6267
2712.225	6315
2714.125	6389
2716.024	6310
2717.923	6260
2719.822	6291
2721.719	6280
2723.616	6311
2725.512	6338
2727.41	6302
2729.305	6201
2731.201	6238
2733.095	6220
2734.99	6269
2736.884	6184
2738.778	6311
2740.67	6221
2742.562	6204
2744.455	6281
2746.346	6243
2748.238	6286
2750.129	6320
2752.018	6150
2753.907	6207
2755.797	6274
2757.687	6273
2759.575	6212
2761.462	6205
2763.349	6276
2765.237	6288
2767.124	6246
2769.009	6151
2770.894	6170
2772.779	6221
2774.663	6221
2776.547	6140
2778.431	6236
2780.314	6185
2782.197	6182
2784.078	6150
2785.96	6052
2787.842	6237
2789.723	6090
2791.603	6125
2793.483	6136
2795.362	6208
2797.241	6198
2799.121	6085
2800.997	6246
2802.874	6194
2804.751	6151
2806.628	6101
2808.506	6127
2810.38	6134
2812.255	6256
2814.13	6220
2816.003	6195
2817.878	6118
2819.752	6092
2821.623	6219
2823.496	6150
2825.368	6198
2827.238	6085
2829.111	6205
2830.98	6137
2832.851	6135
2834.719	6122
2836.589	6118
2838.458	6175
2840.327	6202
2842.193	6209
2844.061	6166
2845.927	6167
2847.794	6174
2849.66	6241
2851.525	6248
2853.39	6259
2855.254	6234
2857.117	6183
2858.983	6306
2860.845	6352
2862.707	6376
2864.569	6440
2866.431	6335
2868.293	6418
2870.154	6512
2872.013	6523
2873.873	6560
2875.733	6622
2877.592	6655
2879.451	6665
2881.309	6785
2883.166	6690
2885.022	6776
2886.879	6796
2888.736	6814
2890.591	6996
2892.446	6807
2894.301	6790
2896.155	6754
2898.009	6742
2899.863	6798
2901.716	6753
2903.568	6769
2905.419	6877
2907.27	6855
2909.123	6793
2910.973	6740
2912.824	6869
2914.673	6884
2916.521	6870
2918.372	6965
2920.22	7001
2922.067	7094
2923.914	7178
2925.761	7200
2927.607	7281
2929.455	7327
2931.301	7387
2933.144	7409
2934.99	7442
2936.833	7546
2938.678	7556
2940.522	7696
2942.364	7807
2944.207	7866
2946.048	7615
2947.891	7955
2949.731	7835
2951.571	7812
2953.412	7846
2955.25	7692
2957.09	7597
2958.93	7470
2960.767	7506
2962.606	7391
2964.443	7341
2966.279	7300
2968.116	7224
2969.953	7264
2971.788	7141
2973.623	7000
2975.457	6948
2977.292	7107
2979.127	7013
2980.959	6913
2982.792	6823
2984.624	6816
2986.455	6884
2988.288	6754
2990.119	6874
2991.949	6761
2993.779	6736
2995.608	6729
2997.439	6555
2999.268	6603
3001.096	6378
3002.923	6503
3004.751	6348
3006.578	6410
3008.406	6379
3010.232	6327
3012.057	6163
3013.883	6164
3015.706	6103
3017.532	6149
3019.356	5982
3021.179	6065
3023.002	6058
3024.823	5930
3026.646	5897
3028.469	5954
3030.289	5928
3032.11	5961
3033.93	5867
3035.749	5894
3037.57	5925
3039.39	5982
3041.207	5785
3043.026	5888
3044.842	5934
3046.661	5768
3048.477	5892
3050.294	5832
3052.109	5818
3053.925	5833
3055.739	5823
3057.555	5753
3059.368	5856
3061.181	5839
3062.995	5862
3064.807	5893
3066.62	5829
3068.433	5849
3070.243	5900
3072.054	5745
3073.865	5785
3075.675	5733
3077.485	5671
3079.293	5831
3081.102	5794
3082.911	5806
3084.719	5746
3086.527	5744
3088.333	5710
3090.139	5764
3091.945	5751
3093.75	5760
3095.557	5725
3097.361	5739
3099.165	5794
3100.969	5554
3102.772	5644
3104.575	5730
3106.379	5759
3108.181	5668
3109.982	5587
3111.783	5510
3113.584	5548
3115.386	5587
3117.186	5526
3118.985	5600
3120.783	5624
3122.582	5619
3124.381	5522
3126.179	5613
3127.975	5711
3129.772	5656
3131.569	5611
3133.365	5485
3135.161	5556
3136.956	5584
3138.751	5521
3140.544	5597
3142.338	5586
3144.132	5692
3145.925	5574
3147.717	5508
3149.509	5572
3151.301	5468
3153.091	5509
3154.884	5531
3156.673	5524
3158.462	5505
3160.252	5407
3162.041	5501
3163.831	5577
3165.618	5531
3167.405	5596
3169.193	5554
3170.979	5588
3172.767	5513
3174.553	5579
3176.338	5487
3178.123	5524
3179.907	5526
3181.692	5599
3183.477	5412
3185.259	5459
3187.042	5528
3188.824	5460
3190.607	5495
3192.389	5491
3194.17	5433
3195.951	5453
3197.73	5511
3199.51	5451
3201.289	5430
3203.07	5519
3204.848	5466
3206.626	5439
3208.403	5335
3210.18	5471
3211.959	5410
3213.735	5398
3215.511	5532
3217.285	5536
3219.06	5464
3220.836	5464
3222.611	5469
3224.384	5468
3226.158	5499
3227.929	5334
3229.702	5561
3231.476	5465
3233.248	5419
3235.018	5361
3236.789	5478
3238.56	5398
3240.33	5431
3242.1	5359
3243.869	5434
3245.637	5532
3247.405	5366
3249.172	5503
3250.941	5364
3252.707	5327
3254.474	5361
3256.24	5458
3258.006	5371
3259.772	5445
3261.537	5357
3263.301	5524
3265.065	5319
3266.828	5472
3268.592	5361
3270.355	5377
3272.117	5517
3273.878	5422
3275.64	5429
3277.401	5373
3279.162	5414
3280.922	5474
3282.682	5370
3284.441	5454
3286.199	5474
3287.959	5431
3289.716	5461
3291.475	5465
3293.232	5407
3294.988	5416
3296.744	5408
3298.501	5484
3300.256	5420
3302.011	5598
3303.766	5524
3305.52	5459
3307.275	5414
3309.028	5351
3310.781	5420
3312.533	5573
3314.285	5506
3316.038	5588
3317.789	5364
3319.54	5442
3321.289	5402
3323.039	5524
3324.789	5453
3326.539	5420
3328.288	5378
3330.035	5431
3331.783	5476
3333.531	5398
3335.28	5358
3337.025	5311
3338.771	5481
3340.518	5423
3342.262	5285
3344.009	5337
3345.753	5408
3347.497	5337
3349.24	5396
3350.983	5333
3352.726	5337
3354.469	5274
3356.212	5359
3357.952	5405
3359.694	5301
3361.434	5262
3363.176	5353
3364.916	5378
3366.654	5187
3368.394	5237
3370.132	5287
3371.871	5371
3373.61	5270
3375.346	5230
3377.083	5189
3378.82	5268
3380.556	5288
3382.292	5258
3384.027	5283
3385.763	5236
3387.497	5232
3389.231	5308
3390.965	5226
3392.698	5257
3394.431	5204
3396.164	5230
3397.896	5160
3399.627	5254
3401.36	5269
3403.09	5206
3404.82	5207
3406.55	5201
3408.279	5243
3410.01	5170
3411.738	5175
3413.467	5189
3415.194	5158
3416.92	5167
3418.647	5254
3420.375	5168
3422.102	5166
3423.827	5253
3425.553	5171
3427.277	5190
3429.003	5077
3430.727	5153
3432.451	5228
3434.173	5045
3435.896	5109
3437.62	5069
3439.343	5091
3441.063	5052
3442.785	5086
3444.505	5010
3446.226	5104
3447.948	5128
3449.666	5074
3451.386	4964
3453.104	4956
3454.823	5042
3456.541	5053
3458.259	5050
3459.976	5021
3461.693	4975
3463.408	5123
3465.125	5027
3466.841	4890
3468.556	4957
3470.271	5032
3471.985	5086
3473.698	4962
3475.414	4963
3477.126	4864
3478.838	4921
3480.55	5008
3482.263	4889
3483.975	4853
3485.686	4916
3487.396	4858
3489.106	4910
3490.817	4885
3492.526	4845
3494.236	4863
3495.944	4892
3497.652	4866
3499.359	4827
3501.066	4844
3502.775	4844
3504.481	4862
3506.187	4848
3507.893	4788
3509.598	4784
3511.304	4908
3513.009	4868
3514.713	4793
3516.417	4844
3518.12	4832
3519.821	4799
3521.525	4816
3523.228	4708
3524.929	4816
3526.631	4700
3528.33	4780
3530.032	4744
3531.733	4823
3533.433	4683
3535.131	4760
3536.83	4667
3538.529	4801
3540.227	4696
3541.925	4637
3543.623	4778
3545.319	4731
3547.016	4747
3548.712	4669
3550.408	4719
3552.103	4701
3553.798	4679
3555.491	4705
3557.188	4576
3558.88	4715
3560.574	4709
3562.266	4681
3563.959	4611
3565.651	4613
3567.343	4618
3569.035	4580
3570.725	4577
3572.415	4599
3574.106	4598
3575.797	4553
3577.485	4610
3579.174	4623
3580.863	4586
3582.551	4641
3584.238	4725
3585.926	4603
3587.613	4716
3589.3	4555
3590.986	4539
3592.671	4558
3594.357	4606
3596.042	4558
3597.726	4556
3599.41	4509
3601.094	4596
3602.778	4612
3604.461	4456
3606.143	4563
3607.825	4483
3609.507	4527
3611.188	4486
3612.87	4486
3614.551	4564
3616.229	4475
3617.909	4423
3619.589	4420
3621.269	4519
3622.948	4476
3624.625	4520
3626.302	4390
3627.98	4379
3629.657	4494
3631.334	4396
3633.01	4495
3634.686	4400
3636.361	4498
3638.036	4411
3639.712	4423
3641.385	4450
3643.06	4432
3644.732	4400
3646.405	4377
3648.08	4352
3649.751	4285
3651.424	4371
3653.094	4303
3654.766	4252
3656.436	4274
3658.106	4295
3659.777	4324
3661.446	4395
3663.115	4298
3664.783	4328
3666.452	4299
3668.121	4308
3669.788	4173
3671.454	4231
3673.121	4295
3674.789	4260
3676.455	4159
3678.12	4328
3679.784	4252
3681.45	4238
3683.114	4210
3684.779	4283
3686.442	4228
3688.105	4184
3689.768	4199
3691.43	4268
3693.093	4264
3694.754	4215
3696.415	4282
3698.076	4255
3699.736	4163
3701.396	4186
3703.057	4170
3704.716	4193
3706.375	4247
3708.034	4131
3709.692	4203
3711.351	4110
3713.008	4226
3714.665	4113
3716.321	4075
3717.977	4153
3719.634	4215
3721.29	4211
3722.945	4122
3724.598	4177
3726.253	4147
3727.907	4084
3729.561	4219
3731.214	4121
3732.867	4206
3734.518	4085
3736.171	4134
3737.824	4134
3739.474	4168
3741.125	4082
3742.775	4043
3744.425	4054
3746.074	4215
3747.725	4150
3749.373	4088
3751.022	4097
3752.669	4153
3754.318	4137
3755.966	4094
3757.612	4010
3759.259	4046
3760.905	4105
3762.55	4007
3764.197	4137
3765.842	4062
3767.486	4045
3769.131	4058
3770.774	4130
3772.417	4038
3774.061	4040
3775.705	4067
3777.347	4093
3778.988	4003
3780.629	4054
3782.271	4024
3783.912	3973
3785.552	3902
3787.192	3974
3788.831	4032
3790.472	3999
3792.112	4005
3793.75	3919
3795.388	3914
3797.024	4048
3798.661	3974
3800.3	4029
3801.936	3851
3803.572	3952
3805.208	3892
3806.844	3905
3808.48	4026
3810.115	3967
3811.748	3978
3813.382	3919
3815.016	3900
3816.649	3982
3818.283	4025
3819.914	3877
3821.547	3942
3823.178	3969
3824.809	3899
3826.441	3917
3828.072	3934
3829.701	3868
3831.331	3999
3832.96	3953
3834.591	3765
3836.219	3844
3837.847	3949
3839.475	3874
3841.102	3859
3842.729	3890
3844.357	3876
3845.984	3905
3847.609	3793
3849.234	3861
3850.86	3855
3852.485	3815
3854.11	3850
3855.734	3926
3857.357	3784
3858.981	3892
3860.603	3919
3862.227	3855
3863.848	3890
3865.471	3808
3867.092	3824
3868.713	3861
3870.334	3850
3871.954	3879
3873.575	3820
3875.194	3885
3876.813	3760
3878.433	3805
3880.051	3765
3881.669	3885
3883.286	3780
3884.904	3781
3886.52	3756
3888.138	3819
3889.754	3821
3891.37	3845
3892.985	3758
3894.6	3835
3896.216	3742
3897.831	3813
3899.444	3747
3901.058	3782
3902.67	3774
3904.283	3749
3905.897	3807
3907.509	3781
3909.121	3729
3910.731	3782
3912.342	3769
3913.954	3763
3915.563	3713
3917.174	3714
3918.783	3757
3920.391	3742
3922.002	3729
3923.611	3771
3925.218	3766
3926.826	3714
3928.432	3689
3930.039	3712
3931.647	3747
3933.253	3754
3934.859	3773
3936.464	3706
3938.068	3731
3939.675	3714
3941.278	3753
3942.883	3803
3944.486	3732
3946.089	3780
3947.692	3721
3949.295	3705
3950.898	3675
3952.499	3677
3954.1	3770
3955.7	3736
3957.303	3708
3958.903	3622
3960.502	3639
3962.101	3683
3963.7	3661
3965.301	3664
3966.899	3641
3968.497	3676
3970.094	3724
3971.691	3639
3973.288	3594
3974.885	3653
3976.481	3794
3978.077	3591
3979.672	3567
3981.267	3611
3982.863	3610
3984.457	3602
3986.051	3557
3987.645	3518
3989.238	3637
3990.831	3538
3992.425	3588
3994.017	3572
3995.607	3587
3997.199	3687
3998.79	3592
4000.382	3566
4001.973	3531
4003.561	3522
4005.151	3493
4006.741	3534
4008.331	3505
4009.918	3617
4011.507	3554
4013.095	3537
4014.681	3592
4016.269	3534
4017.856	3611
4019.443	3553
4021.028	3524
4022.614	3571
4024.199	3598
4025.785	3445
4027.37	3479
4028.953	3577
4030.536	3550
4032.12	3430
4033.704	3507
4035.287	3593
4036.869	3488
4038.45	3483
4040.032	3464
4041.613	3513
4043.195	3401
4044.776	3457
4046.356	3498
4047.935	3415
4049.515	3512
4051.095	3429
4052.674	3382
4054.251	3437
4055.829	3436
4057.406	3407
4058.985	3361
4060.562	3459
4062.139	3399
4063.715	3395
4065.29	3400
4066.865	3456
4068.442	3497
4070.016	3341
4071.59	3392
4073.164	3380
4074.738	3462
4076.312	3387
4077.885	3432
4079.458	3412
4081.03	3444
4082.602	3339
4084.173	3352
4085.745	3372
4087.315	3376
4088.886	3313
4090.456	3447
4092.026	3420
4093.596	3328
4095.165	3366
4096.734	3393
4098.301	3395
4099.869	3388
4101.437	3349
4103.006	3384
4104.572	3283
4106.139	3319
4107.704	3321
4109.27	3302
4110.837	3375
4112.401	3347
4113.966	3353
4115.53	3358
4117.094	3378
4118.659	3324
4120.223	3376
4121.785	3312
4123.347	3325
4124.909	3234
4126.471	3305
4128.034	3307
4129.595	3294
4131.155	3256
4132.716	3273
4134.275	3292
4135.836	3282
4137.395	3291
4138.955	3276
4140.513	3219
4142.071	3357
4143.628	3255
4145.188	3334
4146.745	3224
4148.302	3325
4149.858	3228
4151.414	3309
4152.971	3243
4154.526	3227
4156.081	3204
4157.635	3258
4159.189	3230
4160.745	3211
4162.298	3194
4163.852	3208
4165.405	3150
4166.957	3195
4168.51	3187
4170.063	3124
4171.614	3198
4173.166	3218
4174.717	3168
4176.267	3244
4177.817	3191
4179.368	3120
4180.917	3182
4182.466	3207
4184.016	3183
4185.564	3167
4187.112	3158
4188.66	3152
4190.207	3137
4191.754	3122
4193.301	3136
4194.848	3178
4196.394	3120
4197.94	3077
4199.484	3169
4201.03	3160
4202.575	3168
4204.12	3063
4205.663	3238
4207.207	3123
4208.75	3097
4210.292	3139
4211.836	3146
4213.378	3053
4214.92	3095
4216.46	3205
4218.002	3018
4219.544	3118
4221.083	3151
4222.625	3113
4224.164	3115
4225.703	3045
4227.244	2978
4228.782	3037
4230.32	3096
4231.857	2998
4233.395	3049
4234.933	3089
4236.471	3096
4238.007	3010
4239.542	3065
4241.078	3078
4242.614	3057
4244.15	3016
4245.685	3020
4247.219	3070
4248.753	3076
4250.287	3006
4251.82	3019
4253.354	3036
4254.887	3056
4256.419	3037
4257.951	2973
4259.483	2998
4261.016	3098
4262.547	3030
4264.078	2989
4265.608	3022
4267.137	3032
4268.668	3066
4270.197	3006
4271.727	2970
4273.254	3022
4274.783	2955
4276.311	3020
4277.84	2989
4279.366	3119
4280.894	3040
4282.42	3069
4283.946	3040
4285.473	2892
4286.998	2984
4288.523	3027
4290.047	2963
4291.572	2935
4293.096	2940
4294.622	2968
4296.144	3042
4297.668	2976
4299.19	2908
4300.713	2966
4302.236	2965
4303.758	3035
4305.279	2943
4306.799	2877
4308.321	2890
4309.842	2955
4311.361	2870
4312.882	2896
4314.401	2931
