400.0961	2577
402.6185	2613
405.1424	2603
407.6635	2648
410.1838	2669
412.7035	2666
415.2225	2719
417.7388	2698
420.2585	2729
422.7754	2767
425.2917	2799
427.8072	2844
430.3221	2782
432.8363	2869
435.3498	2868
437.8626	2862
440.3727	2867
442.8841	2816
445.3969	2816
447.907	2888
450.4142	2740
452.9229	2815
455.4289	2803
457.9362	2800
460.4449	2834
462.9488	2781
465.454	2754
467.9566	2767
470.4604	2762
472.9637	2731
475.4662	2725
477.966	2727
480.4671	2837
482.9656	2787
485.4633	2835
487.9645	2810
490.4608	2803
492.9566	2837
495.4536	2787
497.948	2820
500.4437	2845
502.9387	2811
505.431	2860
507.9226	2856
510.4136	2856
512.9079	2816
515.3975	2760
517.8864	2869
520.3746	2785
522.8622	2873
525.3491	2859
527.8394	2864
530.3249	2868
532.8098	2877
535.2939	2865
537.7774	2863
540.2623	2848
542.7444	2851
545.2259	2916
547.7067	2849
550.1868	2878
552.6683	2920
555.147	2889
557.6231	2887
560.1005	2859
562.5773	2848
565.0534	2916
567.5308	2969
570.0056	2953
572.4776	2884
574.951	2999
577.4237	2971
579.8978	3037
582.3671	2977
584.8378	2996
587.3079	3018
589.7773	3088
592.244	2980
594.714	2984
597.1793	2969
599.6461	2965
602.1121	2997
604.5754	3015
607.0421	2904
609.5042	2971
611.9675	2980
614.4282	2885
616.8902	2963
619.3515	2982
621.8122	2951
624.2702	2969
626.7296	2923
629.1863	2934
631.6423	2928
634.1017	2901
636.5563	2897
639.0104	2948
641.4658	2928
643.9185	2922
646.3725	3017
648.8239	3059
651.2766	2969
653.7266	2917
656.176	2970
658.6247	2904
661.0748	2992
663.5242	3021
665.9709	3015
668.417	3006
670.8624	3091
673.3092	3010
675.7533	3066
678.1968	3000
680.6395	3004
683.0817	3022
685.5251	3136
687.9659	3076
690.4061	2981
692.8456	3080
695.2844	3038
697.7226	3072
700.1621	3070
702.599	3028
705.0332	3119
707.4688	3008
709.9036	3055
712.3399	3170
714.7735	3130
717.2044	3095
719.6367	3133
722.0683	3074
724.4993	3144
726.9296	3159
729.3593	3085
731.7883	3136
734.2147	3129
736.6423	3169
739.0714	3129
741.4958	3159
743.9216	3185
746.3447	3183
748.7691	3247
751.1929	3254
753.616	3204
756.0366	3178
758.4584	3213
760.8776	3217
763.2982	3344
765.718	3239
768.1373	3222
770.5539	3230
772.9698	3176
775.3871	3259
777.8038	3222
780.2178	3205
782.6332	3242
785.0459	3230
787.458	3324
789.8714	3263
792.2842	3300
794.6943	3266
797.1038	3174
799.5127	3202
801.9209	3211
804.3324	3263
806.7393	3203
809.1456	3179
811.5513	3222
813.9562	3314
816.3625	3264
818.7663	3273
821.1693	3307
823.5718	3321
825.9735	3281
828.3746	3236
830.7771	3289
833.177	3286
835.5762	3316
837.9747	3324
840.3727	3342
842.772	3297
845.1666	3380
847.5626	3325
849.958	3391
852.3527	3395
854.7488	3375
857.1403	3372
859.5331	3362
861.9253	3305
864.3168	3412
866.7057	3454
869.098	3370
871.4876	3347
873.8746	3376
876.263	3350
878.6487	3389
881.0378	3351
883.4243	3385
885.8081	3336
888.1933	3380
890.5759	3341
892.9598	3383
895.343	3373
897.7256	3385
900.1057	3363
902.4871	3432
904.8659	3373
907.246	3316
909.6254	3414
912.0023	3477
914.3786	3382
916.7562	3515
919.1331	3485
921.5074	3558
923.8831	3575
926.2562	3580
928.6287	3541
931.0005	3544
933.3757	3603
935.7462	3568
938.1162	3614
940.4855	3711
942.8542	3684
945.2242	3766
947.5916	3868
949.9584	3830
952.3266	4041
954.6921	4198
957.0571	4409
959.4233	4569
961.787	4695
964.15	4622
966.5125	4515
968.8742	4280
971.2354	4059
973.5959	3922
975.9559	3732
978.3151	3630
980.6738	3544
983.0338	3606
985.3912	3532
987.7461	3457
990.1022	3484
992.4578	3502
994.8127	3473
997.1689	3507
999.5207	3536
1001.874	3582
1004.226	3507
1006.576	3469
1008.929	3515
1011.28	3545
1013.628	3552
1015.977	3508
1018.324	3617
1020.674	3588
1023.019	3564
1025.366	3625
1027.713	3504
1030.056	3605
1032.399	3568
1034.746	3618
1037.087	3540
1039.431	3509
1041.771	3571
1044.113	3692
1046.454	3609
1048.793	3626
1051.133	3603
1053.471	3604
1055.807	3667
1058.146	3617
1060.483	3639
1062.818	3660
1065.153	3716
1067.489	3691
1069.822	3762
1072.156	3631
1074.488	3659
1076.82	3720
1079.15	3625
1081.48	3646
1083.814	3651
1086.143	3595
1088.471	3595
1090.799	3595
1093.126	3582
1095.452	3602
1097.78	3607
1100.105	3583
1102.43	3591
1104.754	3592
1107.077	3620
1109.4	3566
1111.722	3565
1114.044	3486
1116.365	3601
1118.685	3528
1121.005	3582
1123.324	3559
1125.643	3644
1127.961	3592
1130.278	3661
1132.595	3593
1134.911	3594
1137.226	3601
1139.541	3544
1141.854	3525
1144.167	3546
1146.482	3655
1148.793	3628
1151.105	3515
1153.414	3644
1155.725	3595
1158.033	3566
1160.344	3493
1162.651	3662
1164.959	3600
1167.265	3584
1169.572	3568
1171.878	3627
1174.184	3723
1176.488	3579
1178.79	3620
1181.094	3624
1183.396	3591
1185.699	3636
1188.001	3578
1190.301	3593
1192.6	3629
1194.9	3592
1197.2	3542
1199.497	3598
1201.794	3602
1204.09	3634
1206.387	3630
1208.684	3649
1210.978	3602
1213.272	3616
1215.565	3593
1217.858	3700
1220.15	3650
1222.443	3568
1224.734	3633
1227.024	3698
1229.313	3629
1231.602	3704
1233.892	3695
1236.18	3703
1238.467	3720
1240.754	3694
1243.04	3733
1245.325	3743
1247.612	3743
1249.896	3833
1252.178	3761
1254.461	3815
1256.743	3706
1259.027	3728
1261.308	3854
1263.587	3708
1265.867	3806
1268.146	3799
1270.425	3727
1272.703	3766
1274.981	3790
1277.256	3731
1279.532	3717
1281.808	3722
1284.083	3771
1286.358	3776
1288.63	3744
1290.904	3745
1293.175	3721
1295.449	3709
1297.719	3719
1299.99	3773
1302.259	3726
1304.529	3691
1306.798	3655
1309.065	3676
1311.333	3698
1313.599	3695
1315.866	3730
1318.131	3714
1320.396	3717
1322.66	3637
1324.925	3726
1327.187	3755
1329.448	3759
1331.711	3710
1333.974	3748
1336.234	3735
1338.493	3710
1340.752	3729
1343.01	3684
1345.269	3690
1347.526	3722
1349.784	3765
1352.04	3619
1354.295	3710
1356.552	3752
1358.806	3802
1361.059	3736
1363.312	3656
1365.564	3705
1367.818	3660
1370.069	3673
1372.318	3811
1374.568	3752
1376.817	3707
1379.066	3726
1381.316	3821
1383.564	3754
1385.809	3843
1388.056	3771
1390.301	3762
1392.549	3749
1394.793	3871
1397.036	3862
1399.279	3849
1401.522	3889
1403.763	3813
1406.007	3806
1408.248	3871
1410.487	3992
1412.727	3876
1414.965	3799
1417.205	3919
1419.442	3885
1421.68	3827
1423.915	3904
1426.152	3908
1428.388	3805
1430.623	3800
1432.857	3885
1435.091	3849
1437.323	3930
1439.556	3927
1441.789	3908
1444.019	3954
1446.25	3913
1448.48	4017
1450.708	3929
1452.938	3940
1455.167	3922
1457.394	3977
1459.62	3920
1461.846	3905
1464.073	3879
1466.299	3923
1468.523	3891
1470.746	3926
1472.969	3855
1475.191	3847
1477.415	3804
1479.636	3751
1481.858	3811
1484.078	3807
1486.298	3715
1488.518	3720
1490.736	3806
1492.954	3713
1495.169	3789
1497.386	3712
1499.602	3756
1501.819	3767
1504.034	3742
1506.248	3710
1508.462	3744
1510.675	3757
1512.888	3705
1515.1	3713
1517.311	3792
1519.522	3712
1521.732	3684
1523.942	3677
1526.151	3797
1528.36	3713
1530.566	3762
1532.773	3732
1534.98	3708
1537.187	3689
1539.392	3732
1541.596	3777
1543.801	3758
1546.005	3767
1548.208	3769
1550.411	3907
1552.612	3737
1554.814	3819
1557.013	3817
1559.212	3740
1561.414	3767
1563.612	3759
1565.811	3839
1568.007	3760
1570.203	3714
1572.403	3824
1574.598	3799
1576.792	3888
1578.988	3839
1581.181	3841
1583.376	3871
1585.568	3787
1587.761	3795
1589.952	3813
1592.143	3838
1594.333	3831
1596.524	3887
1598.715	3765
1600.903	3818
1603.091	3857
1605.278	3901
1607.466	3832
1609.652	3932
1611.838	3874
1614.023	3834
1616.207	3923
1618.391	3898
1620.576	3807
1622.759	3935
1624.941	3890
1627.123	3844
1629.304	3844
1631.484	3944
1633.664	3917
1635.844	3879
1638.022	3973
1640.201	3905
1642.38	3937
1644.556	3894
1646.732	4022
1648.908	3914
1651.084	3978
1653.257	4013
1655.433	3953
1657.607	3944
1659.779	3954
1661.951	4042
1664.122	3984
1666.295	4068
1668.467	3979
1670.635	3952
1672.805	3987
1674.973	4018
1677.142	4033
1679.31	3940
1681.478	3995
1683.644	3954
1685.81	3964
1687.975	4004
1690.142	3975
1692.305	4078
1694.468	3935
1696.632	3921
1698.794	3916
1700.957	3907
1703.119	3945
1705.279	3846
1707.439	3856
1709.598	3833
1711.758	3804
1713.917	3847
1716.075	3872
1718.231	3904
1720.388	3885
1722.543	3811
1724.702	3877
1726.856	3863
1729.01	3818
1731.164	3859
1733.317	3863
1735.471	3844
1737.623	3868
1739.774	3871
1741.925	3836
1744.075	3941
1746.225	3935
1748.376	3809
1750.524	3900
1752.672	3879
1754.82	3885
1756.965	3894
1759.113	3850
1761.259	3897
1763.405	3849
1765.549	3891
1767.694	3841
1769.836	3896
1771.981	3909
1774.123	3854
1776.264	3877
1778.405	3919
1780.546	3757
1782.687	3874
1784.827	3918
1786.966	3844
1789.103	3921
1791.242	3911
1793.381	3852
1795.517	3886
1797.653	3918
1799.788	3969
1801.923	3975
1804.057	3894
1806.193	3885
1808.326	3904
1810.457	3817
1812.59	3897
1814.721	3928
1816.855	3888
1818.984	3960
1821.113	3885
1823.244	3799
1825.372	3929
1827.499	3868
1829.63	3819
1831.756	3905
1833.882	3827
1836.007	3866
1838.132	3780
1840.26	3988
1842.384	3864
1844.507	3904
1846.63	3905
1848.752	3799
1850.875	3800
1852.996	3782
1855.118	3873
1857.238	3786
1859.358	3915
1861.477	3834
1863.597	3890
1865.715	3883
1867.832	3842
1869.948	3922
1872.064	3953
1874.181	3849
1876.297	3799
1878.411	3848
1880.526	3978
1882.639	3862
1884.752	3977
1886.865	3895
1888.977	3918
1891.089	3890
1893.2	3849
1895.308	3839
1897.42	3887
1899.53	3944
1901.639	3860
1903.745	3873
1905.853	3880
1907.962	3829
1910.067	3891
1912.174	3843
1914.278	3949
1916.383	4003
1918.486	3946
1920.592	3997
1922.694	3920
1924.797	3981
1926.898	3917
1929	3968
1931.102	3916
1933.203	3961
1935.301	3962
1937.401	3963
1939.499	3955
1941.598	3946
1943.697	3857
1945.793	3934
1947.888	3962
1949.985	3928
1952.08	3964
1954.176	3949
1956.269	3939
1958.364	3937
1960.457	3895
1962.549	3962
1964.642	3878
1966.733	3954
1968.823	3861
1970.913	3907
1973.005	3906
1975.093	3873
1977.184	3944
1979.271	3914
1981.359	3946
1983.446	3954
1985.532	3870
1987.619	3940
1989.705	3823
1991.789	3877
1993.874	3893
1995.956	3982
1998.041	3854
2000.123	3945
2002.206	3972
2004.287	3971
2006.368	3896
2008.449	3894
2010.529	3951
2012.609	3811
2014.688	3889
2016.766	3830
2018.843	3909
2020.922	3914
2022.999	3910
2025.074	3920
2027.15	3944
2029.225	3911
2031.299	3896
2033.375	3966
2035.447	3969
2037.52	3957
2039.592	3929
2041.664	3945
2043.736	3897
2045.807	3879
2047.876	3891
2049.947	3919
2052.015	3884
2054.086	3934
2056.153	3966
2058.221	3960
2060.288	3963
2062.353	3864
2064.42	3961
2066.486	4040
2068.55	3910
2070.614	3975
2072.678	3842
2074.741	3827
2076.805	3912
2078.866	3948
2080.929	3966
2082.99	3829
2085.049	3890
2087.109	3961
2089.17	3907
2091.228	3912
2093.286	3931
2095.344	3947
2097.4	3970
2099.46	3950
2101.516	3881
2103.572	3865
2105.626	3900
2107.679	3972
2109.735	3923
2111.788	3849
2113.841	3936
2115.894	3995
2117.945	3945
2119.997	3836
2122.049	3829
2124.1	3986
2126.148	3944
2128.197	3924
2130.246	3976
2132.296	3896
2134.342	3978
2136.39	3918
2138.437	3918
2140.483	3920
2142.527	3865
2144.574	3965
2146.619	3889
2148.661	3870
2150.705	3881
2152.747	3932
2154.792	3934
2156.832	3929
2158.874	3865
2160.915	3907
2162.954	3923
2164.995	3990
2167.034	3926
2169.072	3890
2171.111	3878
2173.148	3872
2175.186	3943
2177.223	3839
2179.258	3864
2181.294	3850
2183.328	3910
2185.362	3904
2187.398	3862
2189.431	3908
2191.463	3893
2193.495	3862
2195.528	3792
2197.56	3851
2199.59	3827
2201.62	3835
2203.649	3852
2205.678	3801
2207.708	3878
2209.737	3816
2211.764	3875
2213.791	3745
2215.817	3837
2217.843	3852
2219.87	3844
2221.895	3856
2223.919	3770
2225.942	3801
2227.966	3883
2229.988	3858
2232.012	3801
2234.032	3867
2236.054	3926
2238.074	3827
2240.095	3842
2242.116	3884
2244.135	3804
2246.153	3850
2248.171	3788
2250.188	3816
2252.208	3839
2254.223	3863
2256.239	3886
2258.255	3834
2260.269	3813
2262.283	3896
2264.3	3693
2266.312	3866
2268.325	3773
2270.336	3834
2272.349	3864
2274.362	3898
2276.372	3818
2278.383	3822
2280.392	3789
2282.402	3802
2284.409	3796
2286.418	3851
2288.427	3850
2290.433	3827
2292.441	3859
2294.446	3857
2296.453	3824
2298.459	3799
2300.463	3984
2302.466	3855
2304.471	3839
2306.475	3825
2308.477	3774
2310.478	3804
2312.481	3853
2314.481	3768
2316.481	3804
2318.482	3796
2320.482	3801
2322.48	3808
2324.48	3831
2326.478	3836
2328.476	3749
2330.473	3858
2332.469	3797
2334.465	3841
2336.46	3810
2338.454	3709
2340.45	3778
2342.444	3805
2344.437	3883
2346.43	3806
2348.421	3749
2350.414	3737
2352.405	3761
2354.396	3734
2356.386	3754
2358.376	3756
2360.366	3805
2362.355	3862
2364.343	3843
2366.331	3747
2368.317	3717
2370.304	3754
2372.292	3828
2374.278	3749
2376.262	3684
2378.247	3715
2380.23	3694
2382.216	3763
2384.199	3787
2386.181	3730
2388.163	3717
2390.144	3754
2392.127	3705
2394.107	3674
2396.087	3761
2398.066	3733
2400.046	3742
2402.023	3670
2404.004	3775
2405.981	3759
2407.957	3712
2409.934	3743
2411.91	3704
2413.886	3724
2415.862	3717
2417.836	3769
2419.809	3707
2421.784	3649
2423.756	3733
2425.73	3644
2427.701	3691
2429.672	3822
2431.644	3718
2433.615	3745
2435.586	3720
2437.555	3777
2439.523	3714
2441.491	3637
2443.459	3741
2445.428	3750
2447.395	3611
2449.361	3732
2451.327	3703
2453.292	3734
2455.257	3679
2457.223	3619
2459.187	3704
2461.15	3591
2463.113	3778
2465.076	3670
2467.039	3684
2468.999	3694
2470.96	3665
2472.921	3683
2474.881	3681
2476.841	3724
2478.8	3559
2480.759	3654
2482.717	3691
2484.675	3707
2486.63	3708
2488.589	3655
2490.545	3691
2492.5	3643
2494.455	3614
2496.408	3655
2498.364	3618
2500.318	3646
2502.27	3683
2504.223	3637
2506.174	3613
2508.126	3688
2510.078	3685
2512.03	3661
2513.979	3674
2515.927	3673
2517.877	3637
2519.826	3668
2521.775	3703
2523.722	3673
2525.668	3673
2527.616	3639
2529.561	3600
2531.508	3610
2533.452	3613
2535.398	3623
2537.342	3571
2539.284	3653
2541.229	3656
2543.173	3717
2545.114	3534
2547.055	3689
2548.996	3638
2550.938	3636
2552.878	3720
2554.817	3741
2556.756	3633
2558.695	3630
2560.633	3563
2562.572	3573
2564.509	3736
2566.445	3709
2568.382	3622
2570.317	3561
2572.254	3659
2574.189	3663
2576.123	3682
2578.057	3727
2579.99	3595
2581.923	3618
2583.855	3583
2585.788	3661
2587.719	3658
2589.65	3709
2591.579	3646
2593.511	3698
2595.44	3629
2597.37	3682
2599.297	3715
2601.225	3610
2603.153	3683
2605.08	3656
2607.007	3716
2608.932	3618
2610.858	3617
2612.782	3625
2614.709	3609
2616.632	3681
2618.556	3678
2620.478	3696
2622.401	3644
2624.324	3683
2626.247	3634
2628.167	3625
2630.088	3698
2632.008	3645
2633.928	3662
2635.848	3631
2637.766	3659
2639.684	3624
2641.603	3598
2643.519	3672
2645.437	3678
2647.353	3523
2649.27	3637
2651.184	3599
2653.099	3662
2655.014	3631
2656.928	3672
2658.842	3678
2660.755	3610
2662.667	3672
2664.579	3548
2666.491	3683
2668.402	3664
2670.312	3572
2672.222	3579
2674.132	3645
2676.042	3652
2677.951	3686
2679.859	3612
2681.766	3578
2683.674	3670
2685.582	3697
2687.488	3575
2689.392	3663
2691.298	3591
2693.202	3629
2695.107	3669
2697.012	3585
2698.914	3641
2700.817	3617
2702.72	3688
2704.622	3589
2706.524	3584
2708.425	3592
2710.326	3610
2712.225	3596
2714.125	3532
2716.024	3594
2717.923	3685
2719.822	3573
2721.719	3588
2723.616	3621
2725.512	3661
2727.41	3641
2729.305	3567
2731.201	3668
2733.095	3558
2734.99	3603
2736.884	3531
2738.778	3617
2740.67	3642
2742.562	3609
2744.455	3549
2746.346	3571
2748.238	3644
2750.129	3600
2752.018	3610
2753.907	3548
2755.797	3599
2757.687	3606
2759.575	3594
2761.462	3568
2763.349	3621
2765.237	3564
2767.124	3540
2769.009	3641
2770.894	3613
2772.779	3561
2774.663	3656
2776.547	3555
2778.431	3572
2780.314	3568
2782.197	3622
2784.078	3597
2785.96	3586
2787.842	3530
2789.723	3565
2791.603	3561
2793.483	3519
2795.362	3577
2797.241	3598
2799.121	3559
2800.997	3588
2802.874	3510
2804.751	3541
2806.628	3580
2808.506	3567
2810.38	3491
2812.255	3566
2814.13	3478
2816.003	3529
2817.878	3586
2819.752	3527
2821.623	3563
2823.496	3621
2825.368	3545
2827.238	3504
2829.111	3514
2830.98	3573
2832.851	3618
2834.719	3494
2836.589	3538
2838.458	3582
2840.327	3528
2842.193	3491
2844.061	3611
2845.927	3584
2847.794	3541
2849.66	3563
2851.525	3616
2853.39	3558
2855.254	3591
2857.117	3548
2858.983	3612
2860.845	3616
2862.707	3689
2864.569	3661
2866.431	3625
2868.293	3653
2870.154	3726
2872.013	3728
2873.873	3744
2875.733	3693
2877.592	3815
2879.451	3887
2881.309	3799
2883.166	3862
2885.022	3949
2886.879	4036
2888.736	3899
2890.591	3856
2892.446	3816
2894.301	3907
2896.155	3882
2898.009	4030
2899.863	3912
2901.716	3877
2903.568	3884
2905.419	3966
2907.27	3837
2909.123	3898
2910.973	3942
2912.824	3945
2914.673	3961
2916.521	3949
2918.372	4042
2920.22	3969
2922.067	4050
2923.914	4062
2925.761	4263
2927.607	4274
2929.455	4206
2931.301	4203
2933.144	4269
2934.99	4295
2936.833	4297
2938.678	4392
2940.522	4299
2942.364	4429
2944.207	4353
2946.048	4357
2947.891	4437
2949.731	4528
2951.571	4436
2953.412	4549
2955.25	4401
2957.09	4413
2958.93	4368
2960.767	4320
2962.606	4290
2964.443	4268
2966.279	4317
2968.116	4220
2969.953	4138
2971.788	4066
2973.623	4151
2975.457	4013
2977.292	4097
2979.127	4032
2980.959	3980
2982.792	3969
2984.624	4000
2986.455	3970
2988.288	3874
2990.119	3873
2991.949	3923
2993.779	3815
2995.608	3895
2997.439	3845
2999.268	3765
3001.096	3778
3002.923	3777
3004.751	3780
3006.578	3699
3008.406	3621
3010.232	3583
3012.057	3643
3013.883	3589
3015.706	3662
3017.532	3608
3019.356	3477
3021.179	3496
3023.002	3455
3024.823	3498
3026.646	3547
3028.469	3489
3030.289	3503
3032.11	3430
3033.93	3404
3035.749	3450
3037.57	3472
3039.39	3394
3041.207	3406
3043.026	3434
3044.842	3439
3046.661	3438
3048.477	3411
3050.294	3389
3052.109	3407
3053.925	3442
3055.739	3432
3057.555	3438
3059.368	3369
3061.181	3378
3062.995	3430
3064.807	3407
3066.62	3332
3068.433	3408
3070.243	3392
3072.054	3416
3073.865	3351
3075.675	3437
3077.485	3389
3079.293	3349
3081.102	3395
3082.911	3317
3084.719	3253
3086.527	3343
3088.333	3294
3090.139	3390
3091.945	3297
3093.75	3289
3095.557	3223
3097.361	3278
3099.165	3294
3100.969	3345
3102.772	3261
3104.575	3292
3106.379	3324
3108.181	3293
3109.982	3335
3111.783	3266
3113.584	3332
3115.386	3310
3117.186	3283
3118.985	3206
3120.783	3293
3122.582	3264
3124.381	3312
3126.179	3286
3127.975	3252
3129.772	3181
3131.569	3237
3133.365	3159
3135.161	3213
3136.956	3242
3138.751	3256
3140.544	3221
3142.338	3250
3144.132	3247
3145.925	3226
3147.717	3260
3149.509	3288
3151.301	3247
3153.091	3156
3154.884	3163
3156.673	3169
3158.462	3238
3160.252	3195
3162.041	3258
3163.831	3228
3165.618	3180
3167.405	3235
3169.193	3189
3170.979	3210
3172.767	3247
3174.553	3242
3176.338	3196
3178.123	3220
3179.907	3214
3181.692	3273
3183.477	3211
3185.259	3177
3187.042	3142
3188.824	3147
3190.607	3183
3192.389	3236
3194.17	3161
3195.951	3166
3197.73	3140
3199.51	3208
3201.289	3158
3203.07	3190
3204.848	3180
3206.626	3199
3208.403	3236
3210.18	3166
3211.959	3177
3213.735	3240
3215.511	3167
3217.285	3201
3219.06	3250
3220.836	3171
3222.611	3219
3224.384	3153
3226.158	3186
3227.929	3124
3229.702	3251
3231.476	3159
3233.248	3223
3235.018	3236
3236.789	3200
3238.56	3203
3240.33	3136
3242.1	3285
3243.869	3205
3245.637	3151
3247.405	3147
3249.172	3057
3250.941	3151
3252.707	3163
3254.474	3173
3256.24	3151
3258.006	3164
3259.772	3176
3261.537	3192
3263.301	3177
3265.065	3182
3266.828	3197
3268.592	3160
3270.355	3173
3272.117	3185
3273.878	3182
3275.64	3142
3277.401	3235
3279.162	3149
3280.922	3196
3282.682	3153
3284.441	3270
3286.199	3209
3287.959	3174
3289.716	3243
3291.475	3205
3293.232	3239
3294.988	3168
3296.744	3218
3298.501	3177
3300.256	3169
3302.011	3196
3303.766	3159
3305.52	3179
3307.275	3212
3309.028	3177
3310.781	3215
3312.533	3213
3314.285	3198
3316.038	3143
3317.789	3207
3319.54	3094
3321.289	3213
3323.039	3134
3324.789	3092
3326.539	3302
3328.288	3195
3330.035	3119
3331.783	3109
3333.531	3166
3335.28	3213
3337.025	3162
3338.771	3152
3340.518	3136
3342.262	3134
3344.009	3184
3345.753	3175
3347.497	3178
3349.24	3069
3350.983	3124
3352.726	3129
3354.469	3126
3356.212	3160
3357.952	3188
3359.694	3156
3361.434	3055
3363.176	3085
3364.916	3133
3366.654	3100
3368.394	3149
3370.132	3138
3371.871	3173
3373.61	3088
3375.346	3065
3377.083	3153
3378.82	3030
3380.556	3056
3382.292	3096
3384.027	3131
3385.763	3169
3387.497	3101
3389.231	3070
3390.965	3162
3392.698	3133
3394.431	3091
3396.164	3120
3397.896	3086
3399.627	3117
3401.36	3047
3403.09	3088
3404.82	3001
3406.55	3055
3408.279	3145
3410.01	3081
3411.738	3027
3413.467	3056
3415.194	3001
3416.92	3048
3418.647	3037
3420.375	2999
3422.102	3034
3423.827	3064
3425.553	3025
3427.277	2986
3429.003	2996
3430.727	3000
3432.451	3097
3434.173	2980
3435.896	2985
3437.62	2984
3439.343	2994
3441.063	3057
3442.785	3011
3444.505	3000
3446.226	3002
3447.948	2936
3449.666	2931
3451.386	2986
3453.104	2966
3454.823	2955
3456.541	3028
3458.259	3013
3459.976	2944
3461.693	2913
3463.408	2928
3465.125	2927
3466.841	2996
3468.556	2977
3470.271	2982
3471.985	2913
3473.698	2893
3475.414	2926
3477.126	2883
3478.838	2891
3480.55	2901
3482.263	2882
3483.975	2930
3485.686	2901
3487.396	2883
3489.106	2869
3490.817	2796
3492.526	2880
3494.236	2876
3495.944	2825
3497.652	2822
3499.359	2832
3501.066	2839
3502.775	2869
3504.481	2874
3506.187	2905
3507.893	2913
3509.598	2826
3511.304	2849
3513.009	2851
3514.713	2806
3516.417	2839
3518.12	2857
3519.821	2809
3521.525	2855
3523.228	2845
3524.929	2811
3526.631	2841
3528.33	2834
3530.032	2785
3531.733	2794
3533.433	2834
3535.131	2813
3536.83	2780
3538.529	2768
3540.227	2772
3541.925	2724
3543.623	2852
3545.319	2753
3547.016	2822
3548.712	2751
3550.408	2767
3552.103	2785
3553.798	2780
3555.491	2798
3557.188	2739
3558.88	2721
3560.574	2747
3562.266	2824
3563.959	2759
3565.651	2784
3567.343	2720
3569.035	2718
3570.725	2750
3572.415	2709
3574.106	2683
3575.797	2741
3577.485	2766
3579.174	2770
3580.863	2794
3582.551	2717
3584.238	2771
3585.926	2769
3587.613	2686
3589.3	2724
3590.986	2636
3592.671	2720
3594.357	2630
3596.042	2664
3597.726	2692
3599.41	2648
3601.094	2676
3602.778	2671
3604.461	2647
3606.143	2664
3607.825	2684
3609.507	2668
3611.188	2658
3612.87	2694
3614.551	2638
3616.229	2662
3617.909	2628
3619.589	2643
3621.269	2676
3622.948	2602
3624.625	2619
3626.302	2614
3627.98	2566
3629.657	2607
3631.334	2619
3633.01	2589
3634.686	2595
3636.361	2571
3638.036	2577
3639.712	2551
3641.385	2563
3643.06	2617
3644.732	2586
3646.405	2633
3648.08	2524
3649.751	2566
3651.424	2540
3653.094	2633
3654.766	2506
3656.436	2598
3658.106	2543
3659.777	2577
3661.446	2589
3663.115	2481
3664.783	2568
3666.452	2512
3668.121	2529
3669.788	2555
3671.454	2529
3673.121	2514
3674.789	2569
3676.455	2503
3678.12	2557
3679.784	2562
3681.45	2487
3683.114	2583
3684.779	2502
3686.442	2536
3688.105	2536
3689.768	2477
3691.43	2618
3693.093	2511
3694.754	2532
3696.415	2520
3698.076	2522
3699.736	2487
3701.396	2467
3703.057	2512
3704.716	2471
3706.375	2509
3708.034	2584
3709.692	2417
3711.351	2505
3713.008	2467
3714.665	2416
3716.321	2447
3717.977	2477
3719.634	2476
3721.29	2456
3722.945	2445
3724.598	2493
3726.253	2449
3727.907	2422
3729.561	2457
3731.214	2480
3732.867	2436
3734.518	2467
3736.171	2477
3737.824	2442
3739.474	2471
3741.125	2440
3742.775	2395
3744.425	2394
3746.074	2455
3747.725	2442
3749.373	2461
3751.022	2357
3752.669	2416
3754.318	2421
3755.966	2397
3757.612	2454
3759.259	2425
3760.905	2449
3762.55	2436
3764.197	2430
3765.842	2408
3767.486	2385
3769.131	2454
3770.774	2393
3772.417	2389
3774.061	2468
3775.705	2391
3777.347	2444
3778.988	2396
3780.629	2374
3782.271	2376
3783.912	2412
3785.552	2432
3787.192	2388
3788.831	2353
3790.472	2404
3792.112	2368
3793.75	2354
3795.388	2388
3797.024	2377
3798.661	2380
3800.3	2360
3801.936	2333
3803.572	2336
3805.208	2381
3806.844	2353
3808.48	2400
3810.115	2344
3811.748	2338
3813.382	2344
3815.016	2321
3816.649	2347
3818.283	2319
3819.914	2333
3821.547	2317
3823.178	2307
3824.809	2344
3826.441	2359
3828.072	2377
3829.701	2292
3831.331	2327
3832.96	2389
3834.591	2324
3836.219	2326
3837.847	2266
3839.475	2356
3841.102	2284
3842.729	2324
3844.357	2349
3845.984	2278
3847.609	2295
3849.234	2375
3850.86	2307
3852.485	2306
3854.11	2233
3855.734	2326
3857.357	2246
3858.981	2288
3860.603	2291
3862.227	2307
3863.848	2348
3865.471	2260
3867.092	2395
3868.713	2267
3870.334	2301
3871.954	2325
3873.575	2262
3875.194	2343
3876.813	2346
3878.433	2266
3880.051	2310
3881.669	2234
3883.286	2287
3884.904	2288
3886.52	2314
3888.138	2256
3889.754	2186
3891.37	2273
3892.985	2231
3894.6	2233
3896.216	2264
3897.831	2295
3899.444	2235
3901.058	2173
3902.67	2291
3904.283	2299
3905.897	2221
3907.509	2184
3909.121	2295
3910.731	2273
3912.342	2190
3913.954	2284
3915.563	2286
3917.174	2216
3918.783	2258
3920.391	2244
3922.002	2246
3923.611	2204
3925.218	2229
3926.826	2239
3928.432	2241
3930.039	2192
3931.647	2289
3933.253	2191
3934.859	2203
3936.464	2242
3938.068	2206
3939.675	2247
3941.278	2180
3942.883	2279
3944.486	2226
3946.089	2235
3947.692	2214
3949.295	2211
3950.898	2158
3952.499	2219
3954.1	2201
3955.7	2163
3957.303	2189
3958.903	2277
3960.502	2116
3962.101	2149
3963.7	2175
3965.301	2196
3966.899	2197
3968.497	2238
3970.094	2131
3971.691	2198
3973.288	2170
3974.885	2170
3976.481	2170
3978.077	2191
3979.672	2160
3981.267	2230
3982.863	2235
3984.457	2179
3986.051	2191
3987.645	2142
3989.238	2114
3990.831	2153
3992.425	2100
3994.017	2104
3995.607	2131
3997.199	2110
3998.79	2131
4000.382	2167
4001.973	2114
4003.561	2125
4005.151	2133
4006.741	2115
4008.331	2142
4009.918	2119
4011.507	2061
4013.095	2119
4014.681	2075
4016.269	2057
4017.856	2085
4019.443	2083
4021.028	2118
4022.614	2081
4024.199	2089
4025.785	2050
4027.37	2110
4028.953	2103
4030.536	2112
4032.12	2054
4033.704	2103
4035.287	2068
4036.869	2072
4038.45	2129
4040.032	2049
4041.613	2099
4043.195	2057
4044.776	2030
4046.356	2085
4047.935	2091
4049.515	2058
4051.095	2062
4052.674	2078
4054.251	2054
4055.829	2056
4057.406	2066
4058.985	2091
4060.562	2082
4062.139	2067
4063.715	2023
4065.29	2007
4066.865	2057
4068.442	2049
4070.016	2033
4071.59	2071
4073.164	1999
4074.738	2032
4076.312	2108
4077.885	2068
4079.458	2026
4081.03	2032
4082.602	2094
4084.173	2066
4085.745	2039
4087.315	2051
4088.886	2074
4090.456	2031
4092.026	2026
4093.596	1992
4095.165	2048
4096.734	2003
4098.301	2041
4099.869	2017
4101.437	2026
4103.006	2066
4104.572	1988
4106.139	2007
4107.704	1993
4109.27	2029
4110.837	1962
4112.401	2006
4113.966	1984
4115.53	2006
4117.094	2026
4118.659	2010
4120.223	2047
4121.785	1990
4123.347	1996
4124.909	1940
4126.471	1936
4128.034	1980
4129.595	1927
4131.155	1956
4132.716	1942
4134.275	1979
4135.836	1979
4137.395	1995
4138.955	1939
4140.513	1937
4142.071	1977
4143.628	1932
4145.188	1946
4146.745	2018
4148.302	1934
4149.858	1959
4151.414	1950
4152.971	1943
4154.526	1959
4156.081	1959
4157.635	1961
4159.189	1952
4160.745	1961
4162.298	2014
4163.852	1903
4165.405	1949
4166.957	2000
4168.51	1883
4170.063	1949
4171.614	1933
4173.166	1888
4174.717	1881
4176.267	1914
4177.817	1907
4179.368	1883
4180.917	1976
4182.466	1944
4184.016	1892
4185.564	1882
4187.112	1917
4188.66	1886
4190.207	1853
4191.754	1849
4193.301	1935
4194.848	1971
4196.394	1922
4197.94	1939
4199.484	1921
4201.03	1894
4202.575	1888
4204.12	1829
4205.663	1912
4207.207	1867
4208.75	1855
4210.292	1861
4211.836	1895
4213.378	1865
4214.92	1825
4216.46	1858
4218.002	1915
4219.544	1902
4221.083	1883
4222.625	1840
4224.164	1851
4225.703	1849
4227.244	1888
4228.782	1877
4230.32	1808
4231.857	1834
4233.395	1853
4234.933	1838
4236.471	1855
4238.007	1894
4239.542	1860
4241.078	1894
4242.614	1808
4244.15	1875
4245.685	1868
4247.219	1820
4248.753	1838
4250.287	1830
4251.82	1900
4253.354	1831
4254.887	1885
4256.419	1819
4257.951	1797
4259.483	1807
4261.016	1866
4262.547	1827
4264.078	1859
4265.608	1866
4267.137	1815
4268.668	1806
4270.197	1808
4271.727	1863
4273.254	1829
4274.783	1838
4276.311	1824
4277.84	1827
4279.366	1806
4280.894	1804
4282.42	1801
4283.946	1797
4285.473	1793
4286.998	1812
4288.523	1772
4290.047	1790
4291.572	1791
4293.096	1780
4294.622	1820
4296.144	1806
4297.668	1770
4299.19	1817
4300.713	1768
4302.236	1783
4303.758	1765
4305.279	1764
4306.799	1791
4308.321	1798
4309.842	1827
4311.361	1720
4312.882	1754
4314.401	1795
