400.0961	3361
402.6185	3365
405.1424	3357
407.6635	3356
410.1838	3343
412.7035	3357
415.2225	3455
417.7388	3380
420.2585	3515
422.7754	3499
425.2917	3533
427.8072	3542
430.3221	3519
432.8363	3563
435.3498	3548
437.8626	3622
440.3727	3581
442.8841	3482
445.3969	3601
447.907	3583
450.4142	3639
452.9229	3597
455.4289	3519
457.9362	3516
460.4449	3589
462.9488	3586
465.454	3603
467.9566	3579
470.4604	3538
472.9637	3583
475.4662	3546
477.966	3552
480.4671	3531
482.9656	3581
485.4633	3605
487.9645	3610
490.4608	3652
492.9566	3496
495.4536	3624
497.948	3633
500.4437	3635
502.9387	3651
505.431	3633
507.9226	3605
510.4136	3617
512.9079	3635
515.3975	3582
517.8864	3694
520.3746	3633
522.8622	3660
525.3491	3639
527.8394	3724
530.3249	3733
532.8098	3674
535.2939	3617
537.7774	3685
540.2623	3624
542.7444	3600
545.2259	3675
547.7067	3666
550.1868	3796
552.6683	3601
555.147	3714
557.6231	3718
560.1005	3745
562.5773	3753
565.0534	3752
567.5308	3729
570.0056	3694
572.4776	3800
574.951	3675
577.4237	3820
579.8978	3792
582.3671	3823
584.8378	3855
587.3079	3824
589.7773	3814
592.244	3807
594.714	3922
597.1793	3783
599.6461	3772
602.1121	3792
604.5754	3774
607.0421	3822
609.5042	3704
611.9675	3831
614.4282	3813
616.8902	3794
619.3515	3730
621.8122	3744
624.2702	3791
626.7296	3744
629.1863	3778
631.6423	3709
634.1017	3760
636.5563	3831
639.0104	3772
641.4658	3770
643.9185	3765
646.3725	3786
648.8239	3865
651.2766	3821
653.7266	3821
656.176	3848
658.6247	3821
661.0748	3885
663.5242	3831
665.9709	3830
668.417	3892
670.8624	3850
673.3092	3833
675.7533	3868
678.1968	3892
680.6395	3870
683.0817	3873
685.5251	3996
687.9659	3938
690.4061	3940
692.8456	3933
695.2844	3895
697.7226	3994
700.1621	3982
702.599	3983
705.0332	3960
707.4688	3969
709.9036	4006
712.3399	3876
714.7735	3959
717.2044	4006
719.6367	3854
722.0683	3910
724.4993	4018
726.9296	3984
729.3593	4095
731.7883	4010
734.2147	4118
736.6423	4074
739.0714	4041
741.4958	4051
743.9216	4127
746.3447	4073
748.7691	4105
751.1929	4042
753.616	4155
756.0366	4251
758.4584	4147
760.8776	4079
763.2982	4180
765.718	4186
768.1373	4163
770.5539	4146
772.9698	4153
775.3871	4191
777.8038	4096
780.2178	4102
782.6332	4200
785.0459	4085
787.458	4181
789.8714	4184
792.2842	4170
794.6943	4125
797.1038	4187
799.5127	4233
801.9209	4157
804.3324	4205
806.7393	4202
809.1456	4245
811.5513	4237
813.9562	4230
816.3625	4308
818.7663	4318
821.1693	4201
823.5718	4331
825.9735	4263
828.3746	4263
830.7771	4174
833.177	4244
835.5762	4258
837.9747	4189
840.3727	4268
842.772	4260
845.1666	4337
847.5626	4265
849.958	4386
852.3527	4301
854.7488	4335
857.1403	4335
859.5331	4308
861.9253	4366
864.3168	4403
866.7057	4264
869.098	4318
871.4876	4316
873.8746	4211
876.263	4312
878.6487	4370
881.0378	4243
883.4243	4290
885.8081	4346
888.1933	4347
890.5759	4443
892.9598	4372
895.343	4262
897.7256	4303
900.1057	4282
902.4871	4381
904.8659	4405
907.246	4253
909.6254	4382
912.0023	4365
914.3786	4557
916.7562	4495
919.1331	4394
921.5074	4470
923.8831	4621
926.2562	4515
928.6287	4582
931.0005	4542
933.3757	4505
935.7462	4599
938.1162	4615
940.4855	4582
942.8542	4636
945.2242	4686
947.5916	4680
949.9584	4832
952.3266	5030
954.6921	5239
957.0571	5377
959.4233	5536
961.787	5579
964.15	5530
966.5125	5354
968.8742	5218
971.2354	5072
973.5959	4821
975.9559	4731
978.3151	4614
980.6738	4605
983.0338	4470
985.3912	4609
987.7461	4408
990.1022	4488
992.4578	4394
994.8127	4514
997.1689	4639
999.5207	4475
1001.874	4474
1004.226	4446
1006.576	4546
1008.929	4481
1011.28	4525
1013.628	4440
1015.977	4543
1018.324	4523
1020.674	4527
1023.019	4579
1025.366	4576
1027.713	4593
1030.056	4500
1032.399	4501
1034.746	4523
1037.087	4628
1039.431	4611
1041.771	4578
1044.113	4593
1046.454	4615
1048.793	4615
1051.133	4555
1053.471	4591
1055.807	4618
1058.146	4561
1060.483	4713
1062.818	4681
1065.153	4681
1067.489	4703
1069.822	4667
1072.156	4711
1074.488	4637
1076.82	4751
1079.15	4651
1081.48	4638
1083.814	4546
1086.143	4691
1088.471	4638
1090.799	4694
1093.126	4539
1095.452	4695
1097.78	4555
1100.105	4599
1102.43	4665
1104.754	4577
1107.077	4601
1109.4	4565
1111.722	4662
1114.044	4608
1116.365	4622
1118.685	4553
1121.005	4608
1123.324	4650
1125.643	4586
1127.961	4640
1130.278	4618
1132.595	4620
1134.911	4640
1137.226	4602
1139.541	4580
1141.854	4618
1144.167	4654
1146.482	4658
1148.793	4643
1151.105	4599
1153.414	4594
1155.725	4503
1158.033	4639
1160.344	4620
1162.651	4625
1164.959	4559
1167.265	4642
1169.572	4628
1171.878	4670
1174.184	4708
1176.488	4626
1178.79	4597
1181.094	4678
1183.396	4587
1185.699	4670
1188.001	4606
1190.301	4566
1192.6	4655
1194.9	4617
1197.2	4618
1199.497	4694
1201.794	4567
1204.09	4582
1206.387	4733
1208.684	4664
1210.978	4683
1213.272	4736
1215.565	4630
1217.858	4710
1220.15	4681
1222.443	4589
1224.734	4673
1227.024	4680
1229.313	4693
1231.602	4816
1233.892	4702
1236.18	4762
1238.467	4872
1240.754	4921
1243.04	4846
1245.325	4895
1247.612	4781
1249.896	4773
1252.178	4907
1254.461	4840
1256.743	4841
1259.027	4765
1261.308	4922
1263.587	4811
1265.867	4871
1268.146	4841
1270.425	4940
1272.703	4745
1274.981	4866
1277.256	4845
1279.532	4753
1281.808	4770
1284.083	4835
1286.358	4832
1288.63	4746
1290.904	4780
1293.175	4753
1295.449	4671
1297.719	4781
1299.99	4749
1302.259	4750
1304.529	4638
1306.798	4781
1309.065	4791
1311.333	4724
1313.599	4704
1315.866	4768
1318.131	4795
1320.396	4818
1322.66	4724
1324.925	4781
1327.187	4771
1329.448	4803
1331.711	4844
1333.974	4811
1336.234	4851
1338.493	4761
1340.752	4830
1343.01	4802
1345.269	4830
1347.526	4773
1349.784	4842
1352.04	4873
1354.295	4773
1356.552	4694
1358.806	4830
1361.059	4793
1363.312	4751
1365.564	4760
1367.818	4779
1370.069	4859
1372.318	4712
1374.568	4751
1376.817	4853
1379.066	4820
1381.316	4777
1383.564	4856
1385.809	4886
1388.056	4876
1390.301	4812
1392.549	4907
1394.793	4922
1397.036	4937
1399.279	5000
1401.522	5011
1403.763	4927
1406.007	4984
1408.248	4891
1410.487	4867
1412.727	4963
1414.965	4928
1417.205	4890
1419.442	4952
1421.68	5024
1423.915	4977
1426.152	5014
1428.388	4822
1430.623	4927
1432.857	5062
1435.091	4989
1437.323	4906
1439.556	4909
1441.789	5069
1444.019	5016
1446.25	5072
1448.48	5081
1450.708	4993
1452.938	5020
1455.167	5051
1457.394	5062
1459.62	5097
1461.846	5042
1464.073	5108
1466.299	5110
1468.523	4960
1470.746	4932
1472.969	4940
1475.191	4942
1477.415	4945
1479.636	4867
1481.858	4876
1484.078	4904
1486.298	4833
1488.518	4805
1490.736	4834
1492.954	4843
1495.169	4803
1497.386	4763
1499.602	4899
1501.819	4825
1504.034	4756
1506.248	4830
1508.462	4786
1510.675	4761
1512.888	4884
1515.1	4810
1517.311	4871
1519.522	4845
1521.732	4756
1523.942	4780
1526.151	4873
1528.36	4775
1530.566	4866
1532.773	4786
1534.98	4753
1537.187	4806
1539.392	4739
1541.596	4877
1543.801	4836
1546.005	4865
1548.208	4893
1550.411	4898
1552.612	4871
1554.814	4918
1557.013	4881
1559.212	4848
1561.414	4823
1563.612	4858
1565.811	4859
1568.007	4878
1570.203	4916
1572.403	4902
1574.598	4893
1576.792	4972
1578.988	4928
1581.181	5014
1583.376	4993
1585.568	4928
1587.761	4893
1589.952	4859
1592.143	4920
1594.333	4949
1596.524	4945
1598.715	4971
1600.903	5011
1603.091	5028
1605.278	4996
1607.466	5000
1609.652	5050
1611.838	4950
1614.023	5013
1616.207	5042
1618.391	5017
1620.576	4968
1622.759	4985
1624.941	5085
1627.123	4959
1629.304	4986
1631.484	5090
1633.664	4938
1635.844	5013
1638.022	4957
1640.201	4956
1642.38	5156
1644.556	5032
1646.732	5076
1648.908	5021
1651.084	5125
1653.257	5100
1655.433	5055
1657.607	5126
1659.779	5006
1661.951	5016
1664.122	5058
1666.295	5060
1668.467	5024
1670.635	5031
1672.805	5142
1674.973	5133
1677.142	5119
1679.31	5087
1681.478	5132
1683.644	5024
1685.81	5019
1687.975	5181
1690.142	5016
1692.305	5042
1694.468	5008
1696.632	5030
1698.794	4969
1700.957	5096
1703.119	4960
1705.279	4987
1707.439	5031
1709.598	4951
1711.758	4990
1713.917	4945
1716.075	4984
1718.231	4945
1720.388	5027
1722.543	4938
1724.702	5056
1726.856	4943
1729.01	4977
1731.164	4897
1733.317	5035
1735.471	5020
1737.623	4984
1739.774	4916
1741.925	4967
1744.075	5003
1746.225	4883
1748.376	4872
1750.524	4988
1752.672	4982
1754.82	5030
1756.965	5066
1759.113	4961
1761.259	5000
1763.405	5016
1765.549	4965
1767.694	5128
1769.836	5003
1771.981	5002
1774.123	4983
1776.264	4931
1778.405	4954
1780.546	5039
1782.687	4943
1784.827	4874
1786.966	5025
1789.103	4963
1791.242	5035
1793.381	5032
1795.517	4970
1797.653	5071
1799.788	5005
1801.923	5043
1804.057	5034
1806.193	5061
1808.326	5058
1810.457	4979
1812.59	5022
1814.721	5051
1816.855	4961
1818.984	5007
1821.113	4985
1823.244	5069
1825.372	5028
1827.499	5028
1829.63	5037
1831.756	4939
1833.882	5040
1836.007	4993
1838.132	4974
1840.26	5034
1842.384	4977
1844.507	4969
1846.63	5052
1848.752	4929
1850.875	4979
1852.996	4948
1855.118	4910
1857.238	4986
1859.358	4942
1861.477	4965
1863.597	4954
1865.715	5020
1867.832	4894
1869.948	5056
1872.064	4976
1874.181	4981
1876.297	4930
1878.411	5005
1880.526	4986
1882.639	4952
1884.752	4956
1886.865	5061
1888.977	4980
1891.089	5046
1893.2	5019
1895.308	5104
1897.42	4984
1899.53	5014
1901.639	5076
1903.745	5063
1905.853	5034
1907.962	4982
1910.067	5023
1912.174	5035
1914.278	5024
1916.383	5093
1918.486	5074
1920.592	5046
1922.694	5029
1924.797	5046
1926.898	5086
1929	5103
1931.102	5072
1933.203	5119
1935.301	5031
1937.401	5041
1939.499	5008
1941.598	4988
1943.697	5044
1945.793	5058
1947.888	5063
1949.985	5206
1952.08	5113
1954.176	5142
1956.269	4992
1958.364	5039
1960.457	5049
1962.549	5121
1964.642	5022
1966.733	5055
1968.823	5099
1970.913	5146
1973.005	5011
1975.093	5094
1977.184	5037
1979.271	5009
1981.359	5001
1983.446	5004
1985.532	4949
1987.619	5022
1989.705	5011
1991.789	5062
1993.874	5048
1995.956	4955
1998.041	5037
2000.123	4984
2002.206	5024
2004.287	5069
2006.368	5024
2008.449	5028
2010.529	4983
2012.609	5049
2014.688	5100
2016.766	5081
2018.843	5032
2020.922	5012
2022.999	4980
2025.074	5021
2027.15	5147
2029.225	5086
2031.299	5003
2033.375	4987
2035.447	4893
2037.52	4947
2039.592	4992
2041.664	4986
2043.736	4968
2045.807	5003
2047.876	5012
2049.947	5116
2052.015	4998
2054.086	5058
2056.153	5023
2058.221	5032
2060.288	4993
2062.353	5046
2064.42	4856
2066.486	5015
2068.55	4996
2070.614	5001
2072.678	5133
2074.741	5091
2076.805	5102
2078.866	5007
2080.929	4956
2082.99	5061
2085.049	4999
2087.109	5037
2089.17	5052
2091.228	5001
2093.286	5024
2095.344	5020
2097.4	5081
2099.46	5028
2101.516	5010
2103.572	4991
2105.626	5060
2107.679	5045
2109.735	5099
2111.788	5015
2113.841	4934
2115.894	5025
2117.945	5020
2119.997	4950
2122.049	5077
2124.1	5079
2126.148	5038
2128.197	4977
2130.246	4997
2132.296	4936
2134.342	5114
2136.39	4982
2138.437	5091
2140.483	5009
2142.527	5068
2144.574	5057
2146.619	4950
2148.661	4954
2150.705	4975
2152.747	5025
2154.792	5021
2156.832	5013
2158.874	4978
2160.915	4999
2162.954	5016
2164.995	4937
2167.034	4994
2169.072	4968
2171.111	4943
2173.148	4942
2175.186	4947
2177.223	4898
2179.258	5023
2181.294	5047
2183.328	4923
2185.362	4932
2187.398	4991
2189.431	4928
2191.463	4930
2193.495	5017
2195.528	4883
2197.56	4894
2199.59	4932
2201.62	4888
2203.649	4945
2205.678	4796
2207.708	4838
2209.737	4889
2211.764	4908
2213.791	4886
2215.817	4974
2217.843	4919
2219.87	4894
2221.895	4883
2223.919	4880
2225.942	4956
2227.966	4911
2229.988	4863
2232.012	4884
2234.032	4945
2236.054	4915
2238.074	4899
2240.095	4938
2242.116	4872
2244.135	4983
2246.153	4945
2248.171	4925
2250.188	4889
2252.208	4936
2254.223	4954
2256.239	4863
2258.255	4874
2260.269	4954
2262.283	4848
2264.3	4964
2266.312	4982
2268.325	4849
2270.336	4815
2272.349	4879
2274.362	4872
2276.372	4844
2278.383	4968
2280.392	4866
2282.402	4899
2284.409	4933
2286.418	4949
2288.427	4889
2290.433	4840
2292.441	4890
2294.446	4950
2296.453	4947
2298.459	4971
2300.463	4837
2302.466	4803
2304.471	4792
2306.475	4908
2308.477	4838
2310.478	4900
2312.481	4918
2314.481	4859
2316.481	4875
2318.482	4798
2320.482	4693
2322.48	4833
2324.48	4932
2326.478	4851
2328.476	4939
2330.473	4836
2332.469	4837
2334.465	4839
2336.46	4822
2338.454	4782
2340.45	4725
2342.444	4854
2344.437	4839
2346.43	4855
2348.421	4854
2350.414	4811
2352.405	4804
2354.396	4804
2356.386	4935
2358.376	4787
2360.366	4780
2362.355	4767
2364.343	4686
2366.331	4797
2368.317	4872
2370.304	4744
2372.292	4718
2374.278	4761
2376.262	4852
2378.247	4801
2380.23	4761
2382.216	4796
2384.199	4800
2386.181	4772
2388.163	4764
2390.144	4788
2392.127	4697
2394.107	4760
2396.087	4758
2398.066	4716
2400.046	4718
2402.023	4632
2404.004	4726
2405.981	4687
2407.957	4820
2409.934	4782
2411.91	4681
2413.886	4716
2415.862	4731
2417.836	4748
2419.809	4703
2421.784	4651
2423.756	4827
2425.73	4714
2427.701	4805
2429.672	4821
2431.644	4754
2433.615	4752
2435.586	4683
2437.555	4689
2439.523	4680
2441.491	4660
2443.459	4698
2445.428	4759
2447.395	4719
2449.361	4760
2451.327	4670
2453.292	4676
2455.257	4711
2457.223	4779
2459.187	4751
2461.15	4753
2463.113	4712
2465.076	4640
2467.039	4630
2468.999	4737
2470.96	4612
2472.921	4759
2474.881	4664
2476.841	4627
2478.8	4617
2480.759	4695
2482.717	4580
2484.675	4608
2486.63	4674
2488.589	4645
2490.545	4650
2492.5	4699
2494.455	4707
2496.408	4607
2498.364	4630
2500.318	4599
2502.27	4628
2504.223	4601
2506.174	4660
2508.126	4697
2510.078	4670
2512.03	4674
2513.979	4604
2515.927	4599
2517.877	4535
2519.826	4628
2521.775	4648
2523.722	4717
2525.668	4633
2527.616	4578
2529.561	4657
2531.508	4621
2533.452	4595
2535.398	4587
2537.342	4596
2539.284	4646
2541.229	4615
2543.173	4693
2545.114	4668
2547.055	4647
2548.996	4536
2550.938	4649
2552.878	4636
2554.817	4632
2556.756	4626
2558.695	4633
2560.633	4674
2562.572	4574
2564.509	4596
2566.445	4529
2568.382	4682
2570.317	4543
2572.254	4600
2574.189	4716
2576.123	4617
2578.057	4590
2579.99	4564
2581.923	4588
2583.855	4559
2585.788	4677
2587.719	4634
2589.65	4614
2591.579	4569
2593.511	4647
2595.44	4571
2597.37	4644
2599.297	4645
2601.225	4654
2603.153	4608
2605.08	4614
2607.007	4591
2608.932	4614
2610.858	4670
2612.782	4713
2614.709	4609
2616.632	4552
2618.556	4631
2620.478	4671
2622.401	4635
2624.324	4716
2626.247	4734
2628.167	4577
2630.088	4693
2632.008	4667
2633.928	4677
2635.848	4606
2637.766	4704
2639.684	4644
2641.603	4597
2643.519	4667
2645.437	4667
2647.353	4756
2649.27	4648
2651.184	4697
2653.099	4697
2655.014	4636
2656.928	4660
2658.842	4582
2660.755	4681
2662.667	4682
2664.579	4627
2666.491	4597
2668.402	4602
2670.312	4645
2672.222	4553
2674.132	4609
2676.042	4612
2677.951	4653
2679.859	4601
2681.766	4565
2683.674	4594
2685.582	4618
2687.488	4552
2689.392	4502
2691.298	4615
2693.202	4546
2695.107	4601
2697.012	4617
2698.914	4569
2700.817	4514
2702.72	4670
2704.622	4580
2706.524	4657
2708.425	4546
2710.326	4447
2712.225	4594
2714.125	4538
2716.024	4534
2717.923	4546
2719.822	4520
2721.719	4550
2723.616	4647
2725.512	4579
2727.41	4609
2729.305	4530
2731.201	4622
2733.095	4625
2734.99	4630
2736.884	4547
2738.778	4557
2740.67	4446
2742.562	4491
2744.455	4502
2746.346	4490
2748.238	4555
2750.129	4632
2752.018	4537
2753.907	4558
2755.797	4616
2757.687	4567
2759.575	4521
2761.462	4535
2763.349	4469
2765.237	4553
2767.124	4568
2769.009	4420
2770.894	4651
2772.779	4571
2774.663	4594
2776.547	4524
2778.431	4503
2780.314	4514
2782.197	4435
2784.078	4536
2785.96	4509
2787.842	4534
2789.723	4515
2791.603	4483
2793.483	4514
2795.362	4450
2797.241	4412
2799.121	4574
2800.997	4500
2802.874	4503
2804.751	4407
2806.628	4473
2808.506	4492
2810.38	4563
2812.255	4499
2814.13	4505
2816.003	4548
2817.878	4436
2819.752	4374
2821.623	4427
2823.496	4451
2825.368	4483
2827.238	4398
2829.111	4421
2830.98	4505
2832.851	4429
2834.719	4479
2836.589	4452
2838.458	4489
2840.327	4471
2842.193	4519
2844.061	4450
2845.927	4511
2847.794	4471
2849.66	4512
2851.525	4478
2853.39	4504
2855.254	4481
2857.117	4508
2858.983	4538
2860.845	4521
2862.707	4548
2864.569	4625
2866.431	4639
2868.293	4655
2870.154	4594
2872.013	4724
2873.873	4624
2875.733	4731
2877.592	4719
2879.451	4749
2881.309	4935
2883.166	4835
2885.022	4941
2886.879	4887
2888.736	4916
2890.591	4907
2892.446	4834
2894.301	4944
2896.155	4918
2898.009	4901
2899.863	5026
2901.716	4854
2903.568	4882
2905.419	4897
2907.27	4775
2909.123	4865
2910.973	4851
2912.824	4859
2914.673	4860
2916.521	4886
2918.372	4934
2920.22	5033
2922.067	4976
2923.914	5071
2925.761	5044
2927.607	5060
2929.455	5026
2931.301	5210
2933.144	5170
2934.99	5163
2936.833	5404
2938.678	5367
2940.522	5263
2942.364	5340
2944.207	5430
2946.048	5468
2947.891	5407
2949.731	5465
2951.571	5420
2953.412	5414
2955.25	5385
2957.09	5237
2958.93	5209
2960.767	5269
2962.606	5176
2964.443	5203
2966.279	5308
2968.116	5146
2969.953	5070
2971.788	5013
2973.623	5021
2975.457	4812
2977.292	4994
2979.127	4965
2980.959	4941
2982.792	4834
2984.624	4800
2986.455	4855
2988.288	4841
2990.119	4693
2991.949	4781
2993.779	4820
2995.608	4789
2997.439	4699
2999.268	4672
3001.096	4646
3002.923	4675
3004.751	4536
3006.578	4509
3008.406	4526
3010.232	4460
3012.057	4536
3013.883	4432
3015.706	4517
3017.532	4403
3019.356	4411
3021.179	4337
3023.002	4307
3024.823	4263
3026.646	4386
3028.469	4356
3030.289	4344
3032.11	4301
3033.93	4321
3035.749	4288
3037.57	4298
3039.39	4246
3041.207	4183
3043.026	4266
3044.842	4333
3046.661	4302
3048.477	4298
3050.294	4251
3052.109	4248
3053.925	4299
3055.739	4294
3057.555	4221
3059.368	4231
3061.181	4278
3062.995	4203
3064.807	4280
3066.62	4212
3068.433	4291
3070.243	4166
3072.054	4206
3073.865	4254
3075.675	4234
3077.485	4189
3079.293	4200
3081.102	4196
3082.911	4082
3084.719	4130
3086.527	4172
3088.333	4154
3090.139	4201
3091.945	4090
3093.75	4077
3095.557	4174
3097.361	4136
3099.165	4132
3100.969	4136
3102.772	4151
3104.575	4056
3106.379	4244
3108.181	4109
3109.982	4083
3111.783	4149
3113.584	4092
3115.386	4137
3117.186	4043
3118.985	4058
3120.783	4036
3122.582	4058
3124.381	4105
3126.179	4184
3127.975	4137
3129.772	4048
3131.569	4043
3133.365	4033
3135.161	4064
3136.956	4056
3138.751	4061
3140.544	4070
3142.338	4057
3144.132	4091
3145.925	4091
3147.717	4049
3149.509	3982
3151.301	4070
3153.091	4050
3154.884	4015
3156.673	3943
3158.462	3899
3160.252	4020
3162.041	3928
3163.831	4033
3165.618	3965
3167.405	3954
3169.193	4005
3170.979	3949
3172.767	3966
3174.553	3981
3176.338	3952
3178.123	3972
3179.907	3981
3181.692	4036
3183.477	3991
3185.259	4002
3187.042	3973
3188.824	3985
3190.607	3926
3192.389	4012
3194.17	3990
3195.951	3907
3197.73	4025
3199.51	3980
3201.289	4008
3203.07	3918
3204.848	4019
3206.626	4004
3208.403	3939
3210.18	3924
3211.959	4047
3213.735	3982
3215.511	4012
3217.285	3943
3219.06	3995
3220.836	3950
3222.611	3973
3224.384	4048
3226.158	3930
3227.929	3893
3229.702	4006
3231.476	3958
3233.248	4057
3235.018	3879
3236.789	3915
3238.56	3906
3240.33	3913
3242.1	4038
3243.869	3974
3245.637	4000
3247.405	3917
3249.172	3955
3250.941	3996
3252.707	3910
3254.474	3937
3256.24	3879
3258.006	4046
3259.772	4014
3261.537	3985
3263.301	4015
3265.065	3964
3266.828	3919
3268.592	3980
3270.355	3937
3272.117	3953
3273.878	3884
3275.64	3997
3277.401	3977
3279.162	4010
3280.922	3938
3282.682	3900
3284.441	3891
3286.199	3947
3287.959	3941
3289.716	3976
3291.475	3985
3293.232	3908
3294.988	3942
3296.744	3889
3298.501	3938
3300.256	3953
3302.011	3968
3303.766	3888
3305.52	3956
3307.275	3878
3309.028	3853
3310.781	4019
3312.533	3876
3314.285	3891
3316.038	3931
3317.789	3928
3319.54	3901
3321.289	3926
3323.039	3836
3324.789	3878
3326.539	3913
3328.288	3928
3330.035	3930
3331.783	3811
3333.531	3850
3335.28	3894
3337.025	3830
3338.771	3895
3340.518	3901
3342.262	3823
3344.009	3882
3345.753	3900
3347.497	3915
3349.24	3920
3350.983	3890
3352.726	3784
3354.469	3844
3356.212	3787
3357.952	3844
3359.694	3789
3361.434	3804
3363.176	3795
3364.916	3867
3366.654	3844
3368.394	3857
3370.132	3826
3371.871	3791
3373.61	3860
3375.346	3876
3377.083	3833
3378.82	3772
3380.556	3905
3382.292	3802
3384.027	3759
3385.763	3801
3387.497	3769
3389.231	3758
3390.965	3705
3392.698	3725
3394.431	3781
3396.164	3779
3397.896	3771
3399.627	3858
3401.36	3751
3403.09	3753
3404.82	3772
3406.55	3836
3408.279	3734
3410.01	3776
3411.738	3772
3413.467	3798
3415.194	3656
3416.92	3820
3418.647	3764
3420.375	3759
3422.102	3679
3423.827	3712
3425.553	3689
3427.277	3832
3429.003	3734
3430.727	3753
3432.451	3710
3434.173	3636
3435.896	3669
3437.62	3694
3439.343	3714
3441.063	3729
3442.785	3601
3444.505	3678
3446.226	3643
3447.948	3694
3449.666	3681
3451.386	3678
3453.104	3596
3454.823	3677
3456.541	3642
3458.259	3654
3459.976	3627
3461.693	3637
3463.408	3607
3465.125	3685
3466.841	3607
3468.556	3600
3470.271	3605
3471.985	3575
3473.698	3607
3475.414	3588
3477.126	3635
3478.838	3529
3480.55	3572
3482.263	3574
3483.975	3533
3485.686	3546
3487.396	3652
3489.106	3591
3490.817	3627
3492.526	3591
3494.236	3571
3495.944	3566
3497.652	3519
3499.359	3553
3501.066	3515
3502.775	3554
3504.481	3505
3506.187	3527
3507.893	3568
3509.598	3439
3511.304	3565
3513.009	3475
3514.713	3561
3516.417	3510
3518.12	3483
3519.821	3422
3521.525	3488
3523.228	3450
3524.929	3494
3526.631	3480
3528.33	3427
3530.032	3499
3531.733	3528
3533.433	3472
3535.131	3514
3536.83	3458
3538.529	3507
3540.227	3461
3541.925	3414
3543.623	3397
3545.319	3391
3547.016	3395
3548.712	3355
3550.408	3374
3552.103	3445
3553.798	3360
3555.491	3395
3557.188	3334
3558.88	3359
3560.574	3438
3562.266	3413
3563.959	3388
3565.651	3362
3567.343	3304
3569.035	3443
3570.725	3346
3572.415	3360
3574.106	3349
3575.797	3296
3577.485	3318
3579.174	3394
3580.863	3359
3582.551	3270
3584.238	3353
3585.926	3386
3587.613	3369
3589.3	3335
3590.986	3333
3592.671	3310
3594.357	3297
3596.042	3276
3597.726	3256
3599.41	3287
3601.094	3337
3602.778	3303
3604.461	3287
3606.143	3285
3607.825	3208
3609.507	3264
3611.188	3227
3612.87	3307
3614.551	3301
3616.229	3198
3617.909	3207
3619.589	3142
3621.269	3272
3622.948	3209
3624.625	3156
3626.302	3264
3627.98	3133
3629.657	3234
3631.334	3249
3633.01	3304
3634.686	3144
3636.361	3230
3638.036	3046
3639.712	3231
3641.385	3244
3643.06	3213
3644.732	3201
3646.405	3240
3648.08	3191
3649.751	3173
3651.424	3135
3653.094	3153
3654.766	3171
3656.436	3145
3658.106	3147
3659.777	3105
3661.446	3144
3663.115	3101
3664.783	3167
3666.452	3175
3668.121	3218
3669.788	3163
3671.454	3148
3673.121	3123
3674.789	3113
3676.455	3150
3678.12	3140
3679.784	3053
3681.45	3117
3683.114	3196
3684.779	3015
3686.442	3059
3688.105	3130
3689.768	3155
3691.43	3137
3693.093	3099
3694.754	3137
3696.415	3077
3698.076	3028
3699.736	3133
3701.396	3044
3703.057	3059
3704.716	3053
3706.375	3077
3708.034	3022
3709.692	3005
3711.351	3119
3713.008	3014
3714.665	3039
3716.321	3041
3717.977	3056
3719.634	3039
3721.29	3095
3722.945	3070
3724.598	3030
3726.253	2990
3727.907	3047
3729.561	3026
3731.214	3012
3732.867	2988
3734.518	2988
3736.171	3010
3737.824	2966
3739.474	3057
3741.125	3029
3742.775	3049
3744.425	2954
3746.074	3035
3747.725	3014
3749.373	2950
3751.022	3002
3752.669	2983
3754.318	3019
3755.966	2972
3757.612	2951
3759.259	2985
3760.905	2965
3762.55	2998
3764.197	2927
3765.842	3032
3767.486	3007
3769.131	2987
3770.774	3044
3772.417	2989
3774.061	2961
3775.705	2964
3777.347	2957
3778.988	2915
3780.629	2932
3782.271	2887
3783.912	2933
3785.552	2948
3787.192	2897
3788.831	2946
3790.472	2968
3792.112	2871
3793.75	2966
3795.388	2940
3797.024	2916
3798.661	2912
3800.3	2973
3801.936	2862
3803.572	2929
3805.208	2846
3806.844	2889
3808.48	2888
3810.115	2904
3811.748	2909
3813.382	2839
3815.016	2896
3816.649	2898
3818.283	2908
3819.914	2825
3821.547	2905
3823.178	2870
3824.809	2902
3826.441	2823
3828.072	2843
3829.701	2878
3831.331	2871
3832.96	2864
3834.591	2842
3836.219	2860
3837.847	2901
3839.475	2877
3841.102	2878
3842.729	2811
3844.357	2876
3845.984	2886
3847.609	2774
3849.234	2896
3850.86	2779
3852.485	2886
3854.11	2864
3855.734	2821
3857.357	2762
3858.981	2793
3860.603	2852
3862.227	2810
3863.848	2733
3865.471	2764
3867.092	2817
3868.713	2781
3870.334	2843
3871.954	2810
3873.575	2849
3875.194	2786
3876.813	2800
3878.433	2776
3880.051	2723
3881.669	2770
3883.286	2756
3884.904	2779
3886.52	2826
3888.138	2731
3889.754	2832
3891.37	2787
3892.985	2805
3894.6	2774
3896.216	2823
3897.831	2688
3899.444	2752
3901.058	2770
3902.67	2796
3904.283	2703
3905.897	2710
3907.509	2766
3909.121	2773
3910.731	2797
3912.342	2759
3913.954	2740
3915.563	2767
3917.174	2748
3918.783	2746
3920.391	2760
3922.002	2726
3923.611	2692
3925.218	2719
3926.826	2710
3928.432	2713
3930.039	2716
3931.647	2722
3933.253	2758
3934.859	2754
3936.464	2740
3938.068	2712
3939.675	2706
3941.278	2734
3942.883	2730
3944.486	2724
3946.089	2764
3947.692	2689
3949.295	2718
3950.898	2742
3952.499	2695
3954.1	2722
3955.7	2746
3957.303	2646
3958.903	2671
3960.502	2741
3962.101	2691
3963.7	2679
3965.301	2703
3966.899	2602
3968.497	2699
3970.094	2663
3971.691	2645
3973.288	2617
3974.885	2694
3976.481	2679
3978.077	2668
3979.672	2656
3981.267	2677
3982.863	2626
3984.457	2638
3986.051	2628
3987.645	2609
3989.238	2647
3990.831	2641
3992.425	2618
3994.017	2609
3995.607	2714
3997.199	2601
3998.79	2615
4000.382	2637
4001.973	2663
4003.561	2642
4005.151	2556
4006.741	2548
4008.331	2668
4009.918	2505
4011.507	2615
4013.095	2616
4014.681	2635
4016.269	2563
4017.856	2611
4019.443	2638
4021.028	2606
4022.614	2540
4024.199	2609
4025.785	2531
4027.37	2592
4028.953	2623
4030.536	2540
4032.12	2577
4033.704	2544
4035.287	2557
4036.869	2514
4038.45	2567
4040.032	2501
4041.613	2557
4043.195	2564
4044.776	2500
4046.356	2572
4047.935	2558
4049.515	2539
4051.095	2522
4052.674	2486
4054.251	2545
4055.829	2499
4057.406	2523
4058.985	2457
4060.562	2534
4062.139	2493
4063.715	2475
4065.29	2518
4066.865	2442
4068.442	2474
4070.016	2505
4071.59	2494
4073.164	2525
4074.738	2494
4076.312	2472
4077.885	2500
4079.458	2475
4081.03	2560
4082.602	2567
4084.173	2469
4085.745	2533
4087.315	2527
4088.886	2467
4090.456	2471
4092.026	2459
4093.596	2456
4095.165	2457
4096.734	2449
4098.301	2408
4099.869	2374
4101.437	2446
4103.006	2456
4104.572	2546
4106.139	2473
4107.704	2462
4109.27	2473
4110.837	2478
4112.401	2475
4113.966	2430
4115.53	2424
4117.094	2392
4118.659	2422
4120.223	2411
4121.785	2462
4123.347	2391
4124.909	2381
4126.471	2404
4128.034	2385
4129.595	2390
4131.155	2390
4132.716	2434
4134.275	2409
4135.836	2371
4137.395	2372
4138.955	2410
4140.513	2368
4142.071	2392
4143.628	2411
4145.188	2350
4146.745	2362
4148.302	2348
4149.858	2315
4151.414	2373
4152.971	2414
4154.526	2374
4156.081	2329
4157.635	2313
4159.189	2426
4160.745	2347
4162.298	2387
4163.852	2277
4165.405	2322
4166.957	2338
4168.51	2322
4170.063	2401
4171.614	2347
4173.166	2310
4174.717	2239
4176.267	2290
4177.817	2356
4179.368	2315
4180.917	2316
4182.466	2394
4184.016	2314
4185.564	2290
4187.112	2336
4188.66	2279
4190.207	2306
4191.754	2298
4193.301	2261
4194.848	2301
4196.394	2245
4197.94	2243
4199.484	2273
4201.03	2338
4202.575	2268
4204.12	2269
4205.663	2263
4207.207	2302
4208.75	2261
4210.292	2310
4211.836	2243
4213.378	2248
4214.92	2262
4216.46	2229
4218.002	2247
4219.544	2233
4221.083	2181
4222.625	2264
4224.164	2214
4225.703	2210
4227.244	2272
4228.782	2273
4230.32	2263
4231.857	2305
4233.395	2255
4234.933	2266
4236.471	2300
4238.007	2248
4239.542	2340
4241.078	2203
4242.614	2249
4244.15	2255
4245.685	2215
4247.219	2271
4248.753	2224
4250.287	2234
4251.82	2186
4253.354	2338
4254.887	2193
4256.419	2181
4257.951	2237
4259.483	2194
4261.016	2204
4262.547	2137
4264.078	2185
4265.608	2183
4267.137	2276
4268.668	2193
4270.197	2244
4271.727	2205
4273.254	2157
4274.783	2270
4276.311	2216
4277.84	2239
4279.366	2181
4280.894	2109
4282.42	2220
4283.946	2244
4285.473	2190
4286.998	2170
4288.523	2161
4290.047	2205
4291.572	2150
4293.096	2156
4294.622	2183
4296.144	2109
4297.668	2225
4299.19	2128
4300.713	2153
4302.236	2160
4303.758	2165
4305.279	2129
4306.799	2163
4308.321	2181
4309.842	2206
4311.361	2141
4312.882	2100
4314.401	2097
