400.0961	3603
402.6185	3591
405.1424	3616
407.6635	3596
410.1838	3639
412.7035	3662
415.2225	3739
417.7388	3680
420.2585	3673
422.7754	3809
425.2917	3778
427.8072	3834
430.3221	3900
432.8363	3857
435.3498	3772
437.8626	3898
440.3727	3888
442.8841	3985
445.3969	3926
447.907	3939
450.4142	3931
452.9229	3832
455.4289	3869
457.9362	3730
460.4449	3798
462.9488	3892
465.454	3768
467.9566	3734
470.4604	3819
472.9637	3819
475.4662	3857
477.966	3865
480.4671	3770
482.9656	3883
485.4633	3845
487.9645	3815
490.4608	3837
492.9566	3808
495.4536	3881
497.948	3908
500.4437	3834
502.9387	3894
505.431	3993
507.9226	3869
510.4136	3878
512.9079	3881
515.3975	3862
517.8864	3916
520.3746	3880
522.8622	3854
525.3491	3869
527.8394	3993
530.3249	4023
532.8098	3879
535.2939	3979
537.7774	4000
540.2623	3952
542.7444	3914
545.2259	3893
547.7067	3907
550.1868	3994
552.6683	3924
555.147	3945
557.6231	3984
560.1005	3958
562.5773	3968
565.0534	4035
567.5308	3964
570.0056	4050
572.4776	4068
574.951	4068
577.4237	4167
579.8978	4093
582.3671	4178
584.8378	4210
587.3079	4215
589.7773	4138
592.244	4128
594.714	4162
597.1793	4141
599.6461	4082
602.1121	4120
604.5754	3986
607.0421	4136
609.5042	4116
611.9675	4114
614.4282	4088
616.8902	4067
619.3515	4144
621.8122	4060
624.2702	4086
626.7296	4090
629.1863	3939
631.6423	4030
634.1017	3989
636.5563	3948
639.0104	4107
641.4658	4069
643.9185	4010
646.3725	4101
648.8239	4106
651.2766	4123
653.7266	4127
656.176	4128
658.6247	4211
661.0748	4074
663.5242	4080
665.9709	4149
668.417	4122
670.8624	4094
673.3092	4196
675.7533	4077
678.1968	4121
680.6395	4193
683.0817	4162
685.5251	4213
687.9659	4184
690.4061	4278
692.8456	4130
695.2844	4246
697.7226	4200
700.1621	4187
702.599	4178
705.0332	4268
707.4688	4208
709.9036	4255
712.3399	4251
714.7735	4277
717.2044	4165
719.6367	4242
722.0683	4184
724.4993	4297
726.9296	4310
729.3593	4404
731.7883	4255
734.2147	4341
736.6423	4334
739.0714	4359
741.4958	4401
743.9216	4398
746.3447	4483
748.7691	4350
751.1929	4460
753.616	4434
756.0366	4478
758.4584	4459
760.8776	4480
763.2982	4522
765.718	4440
768.1373	4477
770.5539	4472
772.9698	4522
775.3871	4448
777.8038	4466
780.2178	4434
782.6332	4404
785.0459	4548
787.458	4467
789.8714	4474
792.2842	4441
794.6943	4463
797.1038	4471
799.5127	4516
801.9209	4493
804.3324	4582
806.7393	4467
809.1456	4491
811.5513	4577
813.9562	4520
816.3625	4564
818.7663	4592
821.1693	4530
823.5718	4558
825.9735	4588
828.3746	4552
830.7771	4564
833.177	4453
835.5762	4587
837.9747	4591
840.3727	4681
842.772	4672
845.1666	4626
847.5626	4593
849.958	4578
852.3527	4702
854.7488	4762
857.1403	4683
859.5331	4764
861.9253	4635
864.3168	4620
866.7057	4673
869.098	4602
871.4876	4611
873.8746	4696
876.263	4703
878.6487	4623
881.0378	4635
883.4243	4641
885.8081	4638
888.1933	4598
890.5759	4474
892.9598	4618
895.343	4727
897.7256	4625
900.1057	4609
902.4871	4718
904.8659	4653
907.246	4707
909.6254	4722
912.0023	4807
914.3786	4792
916.7562	4953
919.1331	5044
921.5074	5025
923.8831	5045
926.2562	5015
928.6287	4943
931.0005	5018
933.3757	5063
935.7462	5029
938.1162	4960
940.4855	5038
942.8542	4982
945.2242	5137
947.5916	5194
949.9584	5365
952.3266	5510
954.6921	5722
957.0571	5986
959.4233	6203
961.787	6369
964.15	6251
966.5125	5993
968.8742	5852
971.2354	5485
973.5959	5287
975.9559	5147
978.3151	5074
980.6738	5072
983.0338	4965
985.3912	4900
987.7461	4816
990.1022	4892
992.4578	4868
994.8127	4881
997.1689	4907
999.5207	4854
1001.874	5011
1004.226	4943
1006.576	4945
1008.929	4972
1011.28	4796
1013.628	4809
1015.977	4789
1018.324	4806
1020.674	4837
1023.019	4960
1025.366	4852
1027.713	4949
1030.056	4910
1032.399	4986
1034.746	5046
1037.087	5026
1039.431	4944
1041.771	4889
1044.113	4964
1046.454	4932
1048.793	4933
1051.133	5009
1053.471	4938
1055.807	5053
1058.146	5069
1060.483	4950
1062.818	4873
1065.153	5109
1067.489	5057
1069.822	5017
1072.156	5116
1074.488	5127
1076.82	5053
1079.15	5001
1081.48	5029
1083.814	5042
1086.143	5003
1088.471	5013
1090.799	4957
1093.126	4948
1095.452	4963
1097.78	4938
1100.105	4999
1102.43	4939
1104.754	4915
1107.077	4909
1109.4	4959
1111.722	5066
1114.044	5034
1116.365	4942
1118.685	4982
1121.005	5006
1123.324	4955
1125.643	5110
1127.961	4954
1130.278	5008
1132.595	4937
1134.911	4997
1137.226	5000
1139.541	4925
1141.854	4923
1144.167	4978
1146.482	4963
1148.793	4906
1151.105	4990
1153.414	5019
1155.725	5000
1158.033	4915
1160.344	5059
1162.651	4992
1164.959	4893
1167.265	4891
1169.572	5048
1171.878	5028
1174.184	4961
1176.488	5004
1178.79	5046
1181.094	5040
1183.396	5063
1185.699	5002
1188.001	5014
1190.301	4908
1192.6	4894
1194.9	4995
1197.2	5029
1199.497	5039
1201.794	5065
1204.09	5044
1206.387	5046
1208.684	4954
1210.978	5041
1213.272	5028
1215.565	4999
1217.858	5013
1220.15	4959
1222.443	5035
1224.734	5066
1227.024	5065
1229.313	5167
1231.602	5147
1233.892	5114
1236.18	5149
1238.467	5175
1240.754	5257
1243.04	5242
1245.325	5180
1247.612	5236
1249.896	5343
1252.178	5241
1254.461	5312
1256.743	5311
1259.027	5305
1261.308	5275
1263.587	5255
1265.867	5294
1268.146	5250
1270.425	5311
1272.703	5246
1274.981	5296
1277.256	5206
1279.532	5372
1281.808	5156
1284.083	5255
1286.358	5182
1288.63	5160
1290.904	5161
1293.175	5198
1295.449	5198
1297.719	5101
1299.99	5234
1302.259	5131
1304.529	5165
1306.798	5193
1309.065	5134
1311.333	5238
1313.599	5135
1315.866	5127
1318.131	5165
1320.396	5138
1322.66	5161
1324.925	5140
1327.187	5174
1329.448	5113
1331.711	5246
1333.974	5206
1336.234	5154
1338.493	5170
1340.752	5204
1343.01	5220
1345.269	5180
1347.526	5208
1349.784	5197
1352.04	5177
1354.295	5064
1356.552	5133
1358.806	5196
1361.059	5182
1363.312	5209
1365.564	5129
1367.818	5176
1370.069	5177
1372.318	5162
1374.568	5209
1376.817	5335
1379.066	5217
1381.316	5207
1383.564	5304
1385.809	5257
1388.056	5295
1390.301	5337
1392.549	5389
1394.793	5363
1397.036	5590
1399.279	5448
1401.522	5499
1403.763	5535
1406.007	5493
1408.248	5482
1410.487	5424
1412.727	5429
1414.965	5423
1417.205	5430
1419.442	5389
1421.68	5522
1423.915	5381
1426.152	5415
1428.388	5450
1430.623	5400
1432.857	5423
1435.091	5496
1437.323	5531
1439.556	5496
1441.789	5513
1444.019	5514
1446.25	5407
1448.48	5559
1450.708	5616
1452.938	5513
1455.167	5589
1457.394	5713
1459.62	5567
1461.846	5641
1464.073	5536
1466.299	5393
1468.523	5393
1470.746	5428
1472.969	5455
1475.191	5323
1477.415	5296
1479.636	5290
1481.858	5242
1484.078	5350
1486.298	5251
1488.518	5285
1490.736	5197
1492.954	5126
1495.169	5176
1497.386	5143
1499.602	5175
1501.819	5310
1504.034	5137
1506.248	5211
1508.462	5149
1510.675	5156
1512.888	5133
1515.1	5173
1517.311	5193
1519.522	5217
1521.732	5171
1523.942	5152
1526.151	5105
1528.36	5132
1530.566	5157
1532.773	5233
1534.98	5248
1537.187	5184
1539.392	5163
1541.596	5259
1543.801	5281
1546.005	5136
1548.208	5189
1550.411	5123
1552.612	5209
1554.814	5276
1557.013	5237
1559.212	5249
1561.414	5249
1563.612	5271
1565.811	5198
1568.007	5187
1570.203	5300
1572.403	5221
1574.598	5342
1576.792	5291
1578.988	5435
1581.181	5361
1583.376	5336
1585.568	5288
1587.761	5373
1589.952	5313
1592.143	5288
1594.333	5418
1596.524	5328
1598.715	5421
1600.903	5338
1603.091	5416
1605.278	5381
1607.466	5457
1609.652	5411
1611.838	5292
1614.023	5360
1616.207	5402
1618.391	5444
1620.576	5451
1622.759	5463
1624.941	5353
1627.123	5442
1629.304	5385
1631.484	5506
1633.664	5561
1635.844	5464
1638.022	5615
1640.201	5477
1642.38	5418
1644.556	5509
1646.732	5494
1648.908	5485
1651.084	5545
1653.257	5500
1655.433	5554
1657.607	5412
1659.779	5633
1661.951	5463
1664.122	5584
1666.295	5589
1668.467	5590
1670.635	5568
1672.805	5505
1674.973	5573
1677.142	5632
1679.31	5490
1681.478	5541
1683.644	5584
1685.81	5567
1687.975	5558
1690.142	5467
1692.305	5441
1694.468	5455
1696.632	5429
1698.794	5479
1700.957	5342
1703.119	5360
1705.279	5392
1707.439	5415
1709.598	5318
1711.758	5320
1713.917	5280
1716.075	5247
1718.231	5348
1720.388	5286
1722.543	5349
1724.702	5314
1726.856	5406
1729.01	5348
1731.164	5384
1733.317	5339
1735.471	5373
1737.623	5299
1739.774	5250
1741.925	5347
1744.075	5350
1746.225	5361
1748.376	5367
1750.524	5383
1752.672	5333
1754.82	5266
1756.965	5378
1759.113	5296
1761.259	5333
1763.405	5370
1765.549	5412
1767.694	5354
1769.836	5449
1771.981	5360
1774.123	5393
1776.264	5346
1778.405	5404
1780.546	5527
1782.687	5432
1784.827	5353
1786.966	5402
1789.103	5371
1791.242	5465
1793.381	5359
1795.517	5361
1797.653	5455
1799.788	5224
1801.923	5381
1804.057	5318
1806.193	5268
1808.326	5393
1810.457	5441
1812.59	5366
1814.721	5383
1816.855	5284
1818.984	5412
1821.113	5402
1823.244	5382
1825.372	5367
1827.499	5309
1829.63	5413
1831.756	5358
1833.882	5326
1836.007	5326
1838.132	5290
1840.26	5361
1842.384	5387
1844.507	5345
1846.63	5435
1848.752	5458
1850.875	5283
1852.996	5389
1855.118	5359
1857.238	5413
1859.358	5425
1861.477	5329
1863.597	5366
1865.715	5414
1867.832	5388
1869.948	5359
1872.064	5278
1874.181	5396
1876.297	5309
1878.411	5420
1880.526	5319
1882.639	5417
1884.752	5410
1886.865	5340
1888.977	5353
1891.089	5207
1893.2	5420
1895.308	5455
1897.42	5329
1899.53	5471
1901.639	5342
1903.745	5346
1905.853	5458
1907.962	5400
1910.067	5401
1912.174	5395
1914.278	5417
1916.383	5369
1918.486	5466
1920.592	5503
1922.694	5478
1924.797	5466
1926.898	5412
1929	5487
1931.102	5449
1933.203	5386
1935.301	5397
1937.401	5331
1939.499	5548
1941.598	5466
1943.697	5389
1945.793	5464
1947.888	5448
1949.985	5506
1952.08	5456
1954.176	5435
1956.269	5454
1958.364	5343
1960.457	5347
1962.549	5511
1964.642	5333
1966.733	5454
1968.823	5406
1970.913	5415
1973.005	5382
1975.093	5421
1977.184	5480
1979.271	5571
1981.359	5394
1983.446	5350
1985.532	5479
1987.619	5346
1989.705	5387
1991.789	5328
1993.874	5410
1995.956	5435
1998.041	5309
2000.123	5315
2002.206	5356
2004.287	5321
2006.368	5419
2008.449	5428
2010.529	5371
2012.609	5353
2014.688	5374
2016.766	5395
2018.843	5379
2020.922	5349
2022.999	5530
2025.074	5418
2027.15	5339
2029.225	5368
2031.299	5309
2033.375	5328
2035.447	5419
2037.52	5381
2039.592	5440
2041.664	5349
2043.736	5379
2045.807	5358
2047.876	5416
2049.947	5444
2052.015	5392
2054.086	5500
2056.153	5440
2058.221	5467
2060.288	5304
2062.353	5342
2064.42	5342
2066.486	5443
2068.55	5322
2070.614	5459
2072.678	5428
2074.741	5346
2076.805	5402
2078.866	5358
2080.929	5310
2082.99	5357
2085.049	5467
2087.109	5357
2089.17	5421
2091.228	5436
2093.286	5392
2095.344	5438
2097.4	5370
2099.46	5354
2101.516	5424
2103.572	5328
2105.626	5442
2107.679	5373
2109.735	5418
2111.788	5418
2113.841	5465
2115.894	5407
2117.945	5469
2119.997	5384
2122.049	5329
2124.1	5378
2126.148	5411
2128.197	5417
2130.246	5422
2132.296	5364
2134.342	5305
2136.39	5400
2138.437	5336
2140.483	5504
2142.527	5362
2144.574	5421
2146.619	5361
2148.661	5321
2150.705	5247
2152.747	5368
2154.792	5381
2156.832	5435
2158.874	5360
2160.915	5377
2162.954	5309
2164.995	5349
2167.034	5304
2169.072	5386
2171.111	5346
2173.148	5335
2175.186	5363
2177.223	5268
2179.258	5250
2181.294	5362
2183.328	5240
2185.362	5322
2187.398	5313
2189.431	5246
2191.463	5346
2193.495	5308
2195.528	5264
2197.56	5311
2199.59	5308
2201.62	5326
2203.649	5227
2205.678	5326
2207.708	5283
2209.737	5310
2211.764	5315
2213.791	5322
2215.817	5229
2217.843	5281
2219.87	5270
2221.895	5318
2223.919	5262
2225.942	5340
2227.966	5162
2229.988	5177
2232.012	5234
2234.032	5294
2236.054	5286
2238.074	5252
2240.095	5317
2242.116	5283
2244.135	5275
2246.153	5304
2248.171	5253
2250.188	5230
2252.208	5149
2254.223	5336
2256.239	5231
2258.255	5233
2260.269	5200
2262.283	5273
2264.3	5213
2266.312	5292
2268.325	5250
2270.336	5266
2272.349	5159
2274.362	5291
2276.372	5355
2278.383	5234
2280.392	5233
2282.402	5297
2284.409	5244
2286.418	5385
2288.427	5257
2290.433	5307
2292.441	5309
2294.446	5194
2296.453	5274
2298.459	5232
2300.463	5230
2302.466	5241
2304.471	5223
2306.475	5289
2308.477	5210
2310.478	5227
2312.481	5276
2314.481	5251
2316.481	5303
2318.482	5201
2320.482	5183
2322.48	5241
2324.48	5173
2326.478	5214
2328.476	5269
2330.473	5182
2332.469	5170
2334.465	5283
2336.46	5175
2338.454	5032
2340.45	5221
2342.444	5236
2344.437	5066
2346.43	5126
2348.421	5128
2350.414	5227
2352.405	5123
2354.396	5090
2356.386	5108
2358.376	5231
2360.366	5235
2362.355	5185
2364.343	5177
2366.331	5151
2368.317	5103
2370.304	5084
2372.292	5182
2374.278	5149
2376.262	5157
2378.247	5092
2380.23	5193
2382.216	5231
2384.199	5142
2386.181	5206
2388.163	5098
2390.144	4998
2392.127	5123
2394.107	5073
2396.087	5024
2398.066	5194
2400.046	5196
2402.023	4962
2404.004	5201
2405.981	5101
2407.957	5118
2409.934	5072
2411.91	5130
2413.886	5097
2415.862	5079
2417.836	4991
2419.809	5062
2421.784	5106
2423.756	5049
2425.73	5075
2427.701	5154
2429.672	5059
2431.644	5059
2433.615	4992
2435.586	5097
2437.555	5023
2439.523	5124
2441.491	5162
2443.459	5018
2445.428	5056
2447.395	5020
2449.361	5089
2451.327	4971
2453.292	5150
2455.257	5117
2457.223	5145
2459.187	5029
2461.15	4961
2463.113	5061
2465.076	5027
2467.039	5012
2468.999	5122
2470.96	5006
2472.921	4984
2474.881	5031
2476.841	4945
2478.8	4967
2480.759	5048
2482.717	5064
2484.675	4956
2486.63	5032
2488.589	5080
2490.545	5003
2492.5	5052
2494.455	5021
2496.408	5065
2498.364	4955
2500.318	5001
2502.27	4956
2504.223	5002
2506.174	5061
2508.126	5058
2510.078	5053
2512.03	4999
2513.979	5031
2515.927	4967
2517.877	5166
2519.826	4991
2521.775	5005
2523.722	5002
2525.668	4938
2527.616	4898
2529.561	5011
2531.508	5018
2533.452	4946
2535.398	4923
2537.342	5093
2539.284	4994
2541.229	5069
2543.173	5045
2545.114	4993
2547.055	5000
2548.996	4995
2550.938	5039
2552.878	4943
2554.817	4978
2556.756	4944
2558.695	4992
2560.633	4977
2562.572	4915
2564.509	5033
2566.445	4953
2568.382	4961
2570.317	5032
2572.254	4963
2574.189	4963
2576.123	5054
2578.057	5007
2579.99	4946
2581.923	5026
2583.855	5044
2585.788	5002
2587.719	4907
2589.65	4993
2591.579	4938
2593.511	4915
2595.44	5167
2597.37	4963
2599.297	4955
2601.225	4974
2603.153	5048
2605.08	4995
2607.007	5012
2608.932	4954
2610.858	4999
2612.782	4940
2614.709	5046
2616.632	4925
2618.556	5002
2620.478	5133
2622.401	4993
2624.324	4986
2626.247	4943
2628.167	5059
2630.088	4961
2632.008	5033
2633.928	4970
2635.848	5051
2637.766	5058
2639.684	5004
2641.603	5049
2643.519	4933
2645.437	5035
2647.353	5038
2649.27	4930
2651.184	4979
2653.099	4965
2655.014	4942
2656.928	4954
2658.842	4909
2660.755	4984
2662.667	4963
2664.579	4935
2666.491	5022
2668.402	4947
2670.312	4979
2672.222	5008
2674.132	5026
2676.042	5008
2677.951	4966
2679.859	5093
2681.766	4995
2683.674	4968
2685.582	4991
2687.488	4850
2689.392	5018
2691.298	4932
2693.202	4923
2695.107	5031
2697.012	4983
2698.914	4937
2700.817	4926
2702.72	4815
2704.622	4910
2706.524	4848
2708.425	4877
2710.326	4986
2712.225	4913
2714.125	4956
2716.024	4875
2717.923	4904
2719.822	4862
2721.719	4865
2723.616	4830
2725.512	4949
2727.41	4908
2729.305	4880
2731.201	4969
2733.095	4922
2734.99	4937
2736.884	5025
2738.778	4891
2740.67	4901
2742.562	4962
2744.455	4934
2746.346	5007
2748.238	4868
2750.129	4947
2752.018	4933
2753.907	4856
2755.797	4878
2757.687	4924
2759.575	4958
2761.462	4846
2763.349	4912
2765.237	4893
2767.124	4993
2769.009	4890
2770.894	4912
2772.779	4814
2774.663	4929
2776.547	4918
2778.431	4934
2780.314	4890
2782.197	4865
2784.078	4927
2785.96	4856
2787.842	4914
2789.723	4918
2791.603	4942
2793.483	4982
2795.362	4838
2797.241	4868
2799.121	4853
2800.997	4864
2802.874	4900
2804.751	4855
2806.628	4852
2808.506	4954
2810.38	4849
2812.255	4796
2814.13	4798
2816.003	4806
2817.878	4820
2819.752	4858
2821.623	4818
2823.496	4913
2825.368	4811
2827.238	4849
2829.111	4981
2830.98	4828
2832.851	4805
2834.719	4991
2836.589	4943
2838.458	4920
2840.327	4868
2842.193	4879
2844.061	4916
2845.927	5001
2847.794	4958
2849.66	5028
2851.525	4946
2853.39	4993
2855.254	5017
2857.117	5089
2858.983	5058
2860.845	5101
2862.707	5091
2864.569	5275
2866.431	5187
2868.293	5083
2870.154	5136
2872.013	5294
2873.873	5266
2875.733	5406
2877.592	5360
2879.451	5428
2881.309	5509
2883.166	5497
2885.022	5558
2886.879	5562
2888.736	5539
2890.591	5681
2892.446	5797
2894.301	5685
2896.155	5604
2898.009	5539
2899.863	5774
2901.716	5552
2903.568	5519
2905.419	5578
2907.27	5530
2909.123	5638
2910.973	5575
2912.824	5736
2914.673	5712
2916.521	5793
2918.372	5811
2920.22	5660
2922.067	5839
2923.914	5855
2925.761	5904
2927.607	5857
2929.455	5926
2931.301	5907
2933.144	5995
2934.99	6064
2936.833	6147
2938.678	6169
2940.522	6284
2942.364	6240
2944.207	6343
2946.048	6442
2947.891	6543
2949.731	6503
2951.571	6394
2953.412	6585
2955.25	6423
2957.09	6314
2958.93	6482
2960.767	6364
2962.606	6212
2964.443	6287
2966.279	6149
2968.116	6025
2969.953	5875
2971.788	5859
2973.623	5862
2975.457	5678
2977.292	5722
2979.127	5650
2980.959	5683
2982.792	5441
2984.624	5585
2986.455	5516
2988.288	5551
2990.119	5397
2991.949	5357
2993.779	5317
2995.608	5253
2997.439	5246
2999.268	5201
3001.096	5175
3002.923	5096
3004.751	5155
3006.578	5093
3008.406	5106
3010.232	5024
3012.057	4969
3013.883	4936
3015.706	4952
3017.532	4908
3019.356	4783
3021.179	4800
3023.002	4916
3024.823	4789
3026.646	4670
3028.469	4776
3030.289	4830
3032.11	4759
3033.93	4722
3035.749	4773
3037.57	4653
3039.39	4725
3041.207	4753
3043.026	4718
3044.842	4684
3046.661	4631
3048.477	4657
3050.294	4732
3052.109	4636
3053.925	4644
3055.739	4736
3057.555	4629
3059.368	4663
3061.181	4683
3062.995	4633
3064.807	4710
3066.62	4651
3068.433	4747
3070.243	4525
3072.054	4750
3073.865	4618
3075.675	4516
3077.485	4735
3079.293	4601
3081.102	4648
3082.911	4723
3084.719	4595
3086.527	4436
3088.333	4503
3090.139	4657
3091.945	4551
3093.75	4497
3095.557	4504
3097.361	4502
3099.165	4510
3100.969	4511
3102.772	4534
3104.575	4526
3106.379	4560
3108.181	4541
3109.982	4478
3111.783	4460
3113.584	4477
3115.386	4449
3117.186	4478
3118.985	4490
3120.783	4476
3122.582	4439
3124.381	4441
3126.179	4544
3127.975	4465
3129.772	4467
3131.569	4400
3133.365	4448
3135.161	4472
3136.956	4411
3138.751	4412
3140.544	4462
3142.338	4494
3144.132	4470
3145.925	4493
3147.717	4418
3149.509	4458
3151.301	4413
3153.091	4411
3154.884	4459
3156.673	4347
3158.462	4330
3160.252	4477
3162.041	4427
3163.831	4392
3165.618	4357
3167.405	4425
3169.193	4377
3170.979	4373
3172.767	4452
3174.553	4433
3176.338	4449
3178.123	4355
3179.907	4438
3181.692	4361
3183.477	4403
3185.259	4424
3187.042	4387
3188.824	4344
3190.607	4450
3192.389	4381
3194.17	4387
3195.951	4361
3197.73	4439
3199.51	4363
3201.289	4383
3203.07	4397
3204.848	4399
3206.626	4325
3208.403	4435
3210.18	4339
3211.959	4380
3213.735	4390
3215.511	4375
3217.285	4257
3219.06	4357
3220.836	4396
3222.611	4303
3224.384	4446
3226.158	4348
3227.929	4322
3229.702	4424
3231.476	4329
3233.248	4326
3235.018	4377
3236.789	4396
3238.56	4272
3240.33	4341
3242.1	4313
3243.869	4340
3245.637	4376
3247.405	4330
3249.172	4359
3250.941	4302
3252.707	4350
3254.474	4408
3256.24	4409
3258.006	4333
3259.772	4349
3261.537	4340
3263.301	4453
3265.065	4350
3266.828	4333
3268.592	4460
3270.355	4389
3272.117	4352
3273.878	4315
3275.64	4362
3277.401	4367
3279.162	4334
3280.922	4312
3282.682	4348
3284.441	4410
3286.199	4384
3287.959	4307
3289.716	4299
3291.475	4369
3293.232	4392
3294.988	4325
3296.744	4384
3298.501	4400
3300.256	4330
3302.011	4262
3303.766	4393
3305.52	4374
3307.275	4383
3309.028	4429
3310.781	4346
3312.533	4296
3314.285	4349
3316.038	4377
3317.789	4374
3319.54	4331
3321.289	4398
3323.039	4307
3324.789	4336
3326.539	4404
3328.288	4335
3330.035	4460
3331.783	4304
3333.531	4223
3335.28	4322
3337.025	4344
3338.771	4271
3340.518	4378
3342.262	4200
3344.009	4304
3345.753	4326
3347.497	4345
3349.24	4297
3350.983	4282
3352.726	4251
3354.469	4306
3356.212	4383
3357.952	4267
3359.694	4283
3361.434	4207
3363.176	4291
3364.916	4307
3366.654	4251
3368.394	4244
3370.132	4238
3371.871	4169
3373.61	4149
3375.346	4202
3377.083	4280
3378.82	4176
3380.556	4184
3382.292	4184
3384.027	4218
3385.763	4179
3387.497	4156
3389.231	4224
3390.965	4254
3392.698	4143
3394.431	4171
3396.164	4216
3397.896	4132
3399.627	4083
3401.36	4220
3403.09	4222
3404.82	4091
3406.55	4187
3408.279	4061
3410.01	4229
3411.738	4110
3413.467	4113
3415.194	4172
3416.92	4230
3418.647	4165
3420.375	4180
3422.102	4257
3423.827	4098
3425.553	4096
3427.277	4108
3429.003	4098
3430.727	3931
3432.451	4136
3434.173	4160
3435.896	4103
3437.62	4064
3439.343	4054
3441.063	4111
3442.785	3978
3444.505	4055
3446.226	3965
3447.948	3972
3449.666	4008
3451.386	4018
3453.104	4061
3454.823	4010
3456.541	4008
3458.259	3998
3459.976	3971
3461.693	4001
3463.408	3917
3465.125	4038
3466.841	3968
3468.556	4042
3470.271	3975
3471.985	4005
3473.698	3868
3475.414	3938
3477.126	3905
3478.838	3865
3480.55	3951
3482.263	3907
3483.975	3947
3485.686	3976
3487.396	3805
3489.106	3916
3490.817	3916
3492.526	3887
3494.236	3937
3495.944	3858
3497.652	3872
3499.359	3818
3501.066	3824
3502.775	3846
3504.481	3820
3506.187	3869
3507.893	3882
3509.598	3809
3511.304	3868
3513.009	3914
3514.713	3781
3516.417	3896
3518.12	3871
3519.821	3884
3521.525	3821
3523.228	3833
3524.929	3879
3526.631	3806
3528.33	3822
3530.032	3810
3531.733	3778
3533.433	3784
3535.131	3735
3536.83	3741
3538.529	3792
3540.227	3708
3541.925	3730
3543.623	3713
3545.319	3820
3547.016	3768
3548.712	3754
3550.408	3810
3552.103	3756
3553.798	3678
3555.491	3716
3557.188	3653
3558.88	3674
3560.574	3690
3562.266	3759
3563.959	3693
3565.651	3713
3567.343	3622
3569.035	3720
3570.725	3769
3572.415	3675
3574.106	3626
3575.797	3677
3577.485	3730
3579.174	3669
3580.863	3682
3582.551	3681
3584.238	3581
3585.926	3599
3587.613	3659
3589.3	3704
3590.986	3685
3592.671	3611
3594.357	3626
3596.042	3568
3597.726	3532
3599.41	3565
3601.094	3604
3602.778	3567
3604.461	3564
3606.143	3597
3607.825	3519
3609.507	3582
3611.188	3518
3612.87	3568
3614.551	3605
3616.229	3627
3617.909	3473
3619.589	3537
3621.269	3519
3622.948	3474
3624.625	3478
3626.302	3491
3627.98	3456
3629.657	3572
3631.334	3490
3633.01	3587
3634.686	3482
3636.361	3506
3638.036	3414
3639.712	3420
3641.385	3416
3643.06	3451
3644.732	3408
3646.405	3380
3648.08	3448
3649.751	3400
3651.424	3384
3653.094	3421
3654.766	3451
3656.436	3502
3658.106	3457
3659.777	3385
3661.446	3447
3663.115	3414
3664.783	3415
3666.452	3328
3668.121	3366
3669.788	3344
3671.454	3310
3673.121	3387
3674.789	3375
3676.455	3347
3678.12	3348
3679.784	3358
3681.45	3386
3683.114	3341
3684.779	3333
3686.442	3424
3688.105	3368
3689.768	3394
3691.43	3373
3693.093	3293
3694.754	3338
3696.415	3373
3698.076	3280
3699.736	3281
3701.396	3357
3703.057	3379
3704.716	3344
3706.375	3269
3708.034	3406
3709.692	3304
3711.351	3293
3713.008	3271
3714.665	3391
3716.321	3312
3717.977	3353
3719.634	3325
3721.29	3299
3722.945	3392
3724.598	3320
3726.253	3250
3727.907	3290
3729.561	3361
3731.214	3265
3732.867	3273
3734.518	3261
3736.171	3306
3737.824	3310
3739.474	3292
3741.125	3245
3742.775	3313
3744.425	3329
3746.074	3262
3747.725	3214
3749.373	3211
3751.022	3272
3752.669	3237
3754.318	3311
3755.966	3281
3757.612	3249
3759.259	3289
3760.905	3207
3762.55	3220
3764.197	3284
3765.842	3204
3767.486	3217
3769.131	3187
3770.774	3265
3772.417	3200
3774.061	3240
3775.705	3248
3777.347	3167
3778.988	3196
3780.629	3192
3782.271	3241
3783.912	3194
3785.552	3241
3787.192	3202
3788.831	3183
3790.472	3166
3792.112	3132
3793.75	3195
3795.388	3251
3797.024	3157
3798.661	3190
3800.3	3146
3801.936	3209
3803.572	3161
3805.208	3142
3806.844	3180
3808.48	3114
3810.115	3069
3811.748	3134
3813.382	3222
3815.016	3174
3816.649	3069
3818.283	3210
3819.914	3044
3821.547	3177
3823.178	3075
3824.809	3135
3826.441	3124
3828.072	3112
3829.701	3130
3831.331	3025
3832.96	3095
3834.591	3091
3836.219	3143
3837.847	3157
3839.475	3127
3841.102	3083
3842.729	3060
3844.357	3132
3845.984	3141
3847.609	3090
3849.234	3065
3850.86	3076
3852.485	3072
3854.11	3059
3855.734	3017
3857.357	3067
3858.981	2990
3860.603	3046
3862.227	3013
3863.848	3089
3865.471	3040
3867.092	3017
3868.713	3025
3870.334	3025
3871.954	2973
3873.575	3021
3875.194	3006
3876.813	2989
3878.433	2957
3880.051	3024
3881.669	2921
3883.286	2978
3884.904	2960
3886.52	3065
3888.138	2995
3889.754	2952
3891.37	3027
3892.985	3042
3894.6	2985
3896.216	2998
3897.831	3004
3899.444	3028
3901.058	2999
3902.67	2982
3904.283	2953
3905.897	2924
3907.509	3031
3909.121	3017
3910.731	3022
3912.342	3111
3913.954	3003
3915.563	3015
3917.174	2969
3918.783	3005
3920.391	2947
3922.002	2995
3923.611	2992
3925.218	2929
3926.826	2991
3928.432	2947
3930.039	2998
3931.647	3000
3933.253	2959
3934.859	2896
3936.464	2952
3938.068	2968
3939.675	2924
3941.278	2969
3942.883	2966
3944.486	2951
3946.089	2997
3947.692	2950
3949.295	2874
3950.898	2891
3952.499	2882
3954.1	2924
3955.7	2918
3957.303	2926
3958.903	2955
3960.502	2939
3962.101	2959
3963.7	2956
3965.301	2883
3966.899	2872
3968.497	2968
3970.094	2920
3971.691	2918
3973.288	2925
3974.885	2948
3976.481	2939
3978.077	2851
3979.672	2872
3981.267	2874
3982.863	2899
3984.457	2895
3986.051	2858
3987.645	2861
3989.238	2806
3990.831	2867
3992.425	2821
3994.017	2817
3995.607	2841
3997.199	2865
3998.79	2859
4000.382	2883
4001.973	2810
4003.561	2881
4005.151	2886
4006.741	2807
4008.331	2757
4009.918	2787
4011.507	2808
4013.095	2808
4014.681	2781
4016.269	2796
4017.856	2789
4019.443	2765
4021.028	2737
4022.614	2787
4024.199	2797
4025.785	2743
4027.37	2752
4028.953	2840
4030.536	2729
4032.12	2775
4033.704	2791
4035.287	2808
4036.869	2772
4038.45	2768
4040.032	2776
4041.613	2771
4043.195	2816
4044.776	2736
4046.356	2720
4047.935	2797
4049.515	2673
4051.095	2694
4052.674	2674
4054.251	2751
4055.829	2724
4057.406	2747
4058.985	2704
4060.562	2688
4062.139	2683
4063.715	2705
4065.29	2631
4066.865	2764
4068.442	2748
4070.016	2735
4071.59	2699
4073.164	2622
4074.738	2691
4076.312	2701
4077.885	2651
4079.458	2626
4081.03	2612
4082.602	2694
4084.173	2645
4085.745	2763
4087.315	2714
4088.886	2707
4090.456	2666
4092.026	2658
4093.596	2649
4095.165	2704
4096.734	2653
4098.301	2644
4099.869	2674
4101.437	2657
4103.006	2669
4104.572	2696
4106.139	2664
4107.704	2702
4109.27	2707
4110.837	2658
4112.401	2637
4113.966	2654
4115.53	2622
4117.094	2616
4118.659	2655
4120.223	2680
4121.785	2632
4123.347	2671
4124.909	2591
4126.471	2678
4128.034	2549
4129.595	2627
4131.155	2564
4132.716	2631
4134.275	2643
4135.836	2511
4137.395	2615
4138.955	2588
4140.513	2583
4142.071	2591
4143.628	2580
4145.188	2596
4146.745	2617
4148.302	2574
4149.858	2530
4151.414	2561
4152.971	2617
4154.526	2535
4156.081	2616
4157.635	2561
4159.189	2566
4160.745	2501
4162.298	2560
4163.852	2461
4165.405	2550
4166.957	2548
4168.51	2560
4170.063	2510
4171.614	2502
4173.166	2551
4174.717	2534
4176.267	2525
4177.817	2563
4179.368	2481
4180.917	2503
4182.466	2515
4184.016	2509
4185.564	2466
4187.112	2520
4188.66	2506
4190.207	2475
4191.754	2556
4193.301	2501
4194.848	2485
4196.394	2535
4197.94	2475
4199.484	2452
4201.03	2548
4202.575	2543
4204.12	2485
4205.663	2472
4207.207	2444
4208.75	2537
4210.292	2509
4211.836	2502
4213.378	2485
4214.92	2456
4216.46	2488
4218.002	2448
4219.544	2486
4221.083	2469
4222.625	2409
4224.164	2470
4225.703	2411
4227.244	2404
4228.782	2399
4230.32	2465
4231.857	2416
4233.395	2485
4234.933	2394
4236.471	2434
4238.007	2444
4239.542	2456
4241.078	2431
4242.614	2440
4244.15	2423
4245.685	2412
4247.219	2441
4248.753	2445
4250.287	2474
4251.82	2509
4253.354	2432
4254.887	2429
4256.419	2425
4257.951	2380
4259.483	2384
4261.016	2431
4262.547	2436
4264.078	2384
4265.608	2424
4267.137	2384
4268.668	2419
4270.197	2372
4271.727	2362
4273.254	2402
4274.783	2395
4276.311	2390
4277.84	2420
4279.366	2398
4280.894	2473
4282.42	2388
4283.946	2441
4285.473	2374
4286.998	2347
4288.523	2388
4290.047	2331
4291.572	2367
4293.096	2388
4294.622	2334
4296.144	2290
4297.668	2340
4299.19	2374
4300.713	2378
4302.236	2315
4303.758	2351
4305.279	2405
4306.799	2318
4308.321	2381
4309.842	2347
4311.361	2353
4312.882	2362
4314.401	2345
