400.0961	2940
402.6185	2980
405.1424	2956
407.6635	3017
410.1838	3105
412.7035	3004
415.2225	2961
417.7388	3059
420.2585	3064
422.7754	3087
425.2917	3189
427.8072	3152
430.3221	3256
432.8363	3181
435.3498	3163
437.8626	3261
440.3727	3159
442.8841	3219
445.3969	3197
447.907	3236
450.4142	3161
452.9229	3135
455.4289	3187
457.9362	3129
460.4449	3187
462.9488	3120
465.454	3138
467.9566	3104
470.4604	3174
472.9637	3097
475.4662	3159
477.966	3164
480.4671	3099
482.9656	3062
485.4633	3107
487.9645	3144
490.4608	3174
492.9566	3158
495.4536	3162
497.948	3155
500.4437	3194
502.9387	3160
505.431	3182
507.9226	3226
510.4136	3205
512.9079	3138
515.3975	3172
517.8864	3244
520.3746	3158
522.8622	3217
525.3491	3227
527.8394	3154
530.3249	3188
532.8098	3251
535.2939	3258
537.7774	3232
540.2623	3296
542.7444	3234
545.2259	3277
547.7067	3241
550.1868	3321
552.6683	3268
555.147	3304
557.6231	3334
560.1005	3314
562.5773	3258
565.0534	3286
567.5308	3259
570.0056	3381
572.4776	3344
574.951	3396
577.4237	3422
579.8978	3383
582.3671	3360
584.8378	3434
587.3079	3409
589.7773	3416
592.244	3320
594.714	3417
597.1793	3356
599.6461	3367
602.1121	3402
604.5754	3423
607.0421	3377
609.5042	3349
611.9675	3392
614.4282	3330
616.8902	3376
619.3515	3395
621.8122	3320
624.2702	3374
626.7296	3355
629.1863	3317
631.6423	3329
634.1017	3329
636.5563	3312
639.0104	3325
641.4658	3289
643.9185	3264
646.3725	3355
648.8239	3337
651.2766	3276
653.7266	3370
656.176	3354
658.6247	3309
661.0748	3366
663.5242	3355
665.9709	3360
668.417	3382
670.8624	3502
673.3092	3411
675.7533	3380
678.1968	3389
680.6395	3448
683.0817	3441
685.5251	3424
687.9659	3417
690.4061	3355
692.8456	3445
695.2844	3370
697.7226	3364
700.1621	3467
702.599	3421
705.0332	3457
707.4688	3405
709.9036	3436
712.3399	3482
714.7735	3551
717.2044	3421
719.6367	3454
722.0683	3483
724.4993	3558
726.9296	3525
729.3593	3516
731.7883	3456
734.2147	3489
736.6423	3539
739.0714	3544
741.4958	3505
743.9216	3534
746.3447	3572
748.7691	3571
751.1929	3519
753.616	3611
756.0366	3584
758.4584	3657
760.8776	3601
763.2982	3599
765.718	3660
768.1373	3607
770.5539	3665
772.9698	3682
775.3871	3595
777.8038	3673
780.2178	3689
782.6332	3611
785.0459	3667
787.458	3699
789.8714	3635
792.2842	3666
794.6943	3669
797.1038	3664
799.5127	3605
801.9209	3613
804.3324	3629
806.7393	3682
809.1456	3696
811.5513	3722
813.9562	3675
816.3625	3672
818.7663	3645
821.1693	3777
823.5718	3762
825.9735	3752
828.3746	3683
830.7771	3683
833.177	3804
835.5762	3745
837.9747	3697
840.3727	3789
842.772	3766
845.1666	3809
847.5626	3789
849.958	3781
852.3527	3783
854.7488	3812
857.1403	3913
859.5331	3829
861.9253	3797
864.3168	3794
866.7057	3810
869.098	3751
871.4876	3760
873.8746	3828
876.263	3926
878.6487	3875
881.0378	3846
883.4243	3843
885.8081	3771
888.1933	3776
890.5759	3755
892.9598	3784
895.343	3739
897.7256	3775
900.1057	3794
902.4871	3786
904.8659	3897
907.246	3832
909.6254	3884
912.0023	3870
914.3786	3867
916.7562	3938
919.1331	4010
921.5074	4079
923.8831	4101
926.2562	4071
928.6287	4038
931.0005	4026
933.3757	4065
935.7462	4074
938.1162	4009
940.4855	4221
942.8542	4202
945.2242	4256
947.5916	4353
949.9584	4488
952.3266	4676
954.6921	4883
957.0571	5160
959.4233	5309
961.787	5275
964.15	5272
966.5125	5094
968.8742	4858
971.2354	4661
973.5959	4366
975.9559	4199
978.3151	4052
980.6738	4058
983.0338	3954
985.3912	3974
987.7461	3950
990.1022	3951
992.4578	4039
994.8127	4016
997.1689	3975
999.5207	3953
1001.874	4051
1004.226	4132
1006.576	3995
1008.929	3999
1011.28	4028
1013.628	4025
1015.977	3986
1018.324	3944
1020.674	4001
1023.019	3984
1025.366	4066
1027.713	4049
1030.056	4058
1032.399	4066
1034.746	4084
1037.087	4079
1039.431	4040
1041.771	4008
1044.113	4035
1046.454	4058
1048.793	4108
1051.133	4023
1053.471	4105
1055.807	4123
1058.146	4096
1060.483	4071
1062.818	4075
1065.153	4125
1067.489	4156
1069.822	4272
1072.156	4227
1074.488	4180
1076.82	4184
1079.15	4185
1081.48	4148
1083.814	4169
1086.143	4064
1088.471	4022
1090.799	4115
1093.126	4064
1095.452	4127
1097.78	4105
1100.105	4083
1102.43	4128
1104.754	3997
1107.077	4064
1109.4	4067
1111.722	4049
1114.044	4094
1116.365	4077
1118.685	4018
1121.005	4082
1123.324	4071
1125.643	4086
1127.961	4139
1130.278	4087
1132.595	4049
1134.911	3963
1137.226	4122
1139.541	4109
1141.854	4110
1144.167	4076
1146.482	4003
1148.793	4052
1151.105	3985
1153.414	4032
1155.725	3976
1158.033	4086
1160.344	4079
1162.651	4041
1164.959	3992
1167.265	4104
1169.572	4004
1171.878	4077
1174.184	4091
1176.488	4079
1178.79	4089
1181.094	4067
1183.396	4051
1185.699	4096
1188.001	4041
1190.301	4101
1192.6	4077
1194.9	4067
1197.2	4040
1199.497	4093
1201.794	4034
1204.09	4026
1206.387	4097
1208.684	4019
1210.978	4127
1213.272	4091
1215.565	4152
1217.858	4085
1220.15	4082
1222.443	4069
1224.734	4118
1227.024	4208
1229.313	4151
1231.602	4210
1233.892	4275
1236.18	4258
1238.467	4353
1240.754	4289
1243.04	4303
1245.325	4226
1247.612	4233
1249.896	4292
1252.178	4239
1254.461	4258
1256.743	4232
1259.027	4223
1261.308	4220
1263.587	4292
1265.867	4275
1268.146	4402
1270.425	4306
1272.703	4273
1274.981	4356
1277.256	4251
1279.532	4242
1281.808	4320
1284.083	4277
1286.358	4279
1288.63	4263
1290.904	4147
1293.175	4293
1295.449	4252
1297.719	4277
1299.99	4140
1302.259	4186
1304.529	4166
1306.798	4281
1309.065	4143
1311.333	4250
1313.599	4192
1315.866	4216
1318.131	4170
1320.396	4238
1322.66	4236
1324.925	4221
1327.187	4208
1329.448	4221
1331.711	4261
1333.974	4215
1336.234	4223
1338.493	4193
1340.752	4226
1343.01	4210
1345.269	4190
1347.526	4205
1349.784	4255
1352.04	4167
1354.295	4216
1356.552	4192
1358.806	4201
1361.059	4262
1363.312	4173
1365.564	4116
1367.818	4196
1370.069	4275
1372.318	4202
1374.568	4178
1376.817	4268
1379.066	4297
1381.316	4267
1383.564	4324
1385.809	4267
1388.056	4270
1390.301	4260
1392.549	4335
1394.793	4310
1397.036	4397
1399.279	4351
1401.522	4442
1403.763	4487
1406.007	4443
1408.248	4429
1410.487	4427
1412.727	4296
1414.965	4347
1417.205	4292
1419.442	4475
1421.68	4365
1423.915	4360
1426.152	4467
1428.388	4382
1430.623	4383
1432.857	4474
1435.091	4420
1437.323	4413
1439.556	4385
1441.789	4540
1444.019	4387
1446.25	4453
1448.48	4427
1450.708	4531
1452.938	4528
1455.167	4588
1457.394	4483
1459.62	4475
1461.846	4506
1464.073	4471
1466.299	4542
1468.523	4345
1470.746	4440
1472.969	4452
1475.191	4330
1477.415	4428
1479.636	4308
1481.858	4344
1484.078	4319
1486.298	4270
1488.518	4243
1490.736	4263
1492.954	4220
1495.169	4195
1497.386	4164
1499.602	4240
1501.819	4208
1504.034	4221
1506.248	4289
1508.462	4216
1510.675	4151
1512.888	4216
1515.1	4200
1517.311	4206
1519.522	4272
1521.732	4169
1523.942	4236
1526.151	4249
1528.36	4244
1530.566	4228
1532.773	4258
1534.98	4170
1537.187	4236
1539.392	4280
1541.596	4312
1543.801	4229
1546.005	4265
1548.208	4293
1550.411	4265
1552.612	4287
1554.814	4357
1557.013	4257
1559.212	4366
1561.414	4347
1563.612	4317
1565.811	4312
1568.007	4249
1570.203	4319
1572.403	4352
1574.598	4301
1576.792	4385
1578.988	4280
1581.181	4428
1583.376	4344
1585.568	4416
1587.761	4314
1589.952	4396
1592.143	4404
1594.333	4445
1596.524	4361
1598.715	4371
1600.903	4413
1603.091	4384
1605.278	4394
1607.466	4403
1609.652	4394
1611.838	4458
1614.023	4359
1616.207	4364
1618.391	4318
1620.576	4382
1622.759	4386
1624.941	4421
1627.123	4355
1629.304	4464
1631.484	4481
1633.664	4503
1635.844	4382
1638.022	4426
1640.201	4464
1642.38	4395
1644.556	4539
1646.732	4504
1648.908	4455
1651.084	4558
1653.257	4461
1655.433	4436
1657.607	4482
1659.779	4503
1661.951	4426
1664.122	4616
1666.295	4554
1668.467	4614
1670.635	4548
1672.805	4510
1674.973	4513
1677.142	4528
1679.31	4467
1681.478	4489
1683.644	4401
1685.81	4524
1687.975	4416
1690.142	4528
1692.305	4574
1694.468	4460
1696.632	4468
1698.794	4463
1700.957	4386
1703.119	4460
1705.279	4367
1707.439	4373
1709.598	4449
1711.758	4320
1713.917	4466
1716.075	4414
1718.231	4401
1720.388	4394
1722.543	4258
1724.702	4303
1726.856	4382
1729.01	4302
1731.164	4340
1733.317	4413
1735.471	4438
1737.623	4311
1739.774	4325
1741.925	4307
1744.075	4382
1746.225	4336
1748.376	4336
1750.524	4416
1752.672	4360
1754.82	4431
1756.965	4428
1759.113	4386
1761.259	4326
1763.405	4409
1765.549	4411
1767.694	4425
1769.836	4401
1771.981	4425
1774.123	4345
1776.264	4340
1778.405	4347
1780.546	4386
1782.687	4357
1784.827	4450
1786.966	4408
1789.103	4448
1791.242	4419
1793.381	4348
1795.517	4406
1797.653	4435
1799.788	4454
1801.923	4359
1804.057	4426
1806.193	4461
1808.326	4413
1810.457	4344
1812.59	4353
1814.721	4431
1816.855	4458
1818.984	4272
1821.113	4440
1823.244	4409
1825.372	4334
1827.499	4434
1829.63	4405
1831.756	4352
1833.882	4360
1836.007	4397
1838.132	4397
1840.26	4371
1842.384	4400
1844.507	4377
1846.63	4357
1848.752	4445
1850.875	4417
1852.996	4330
1855.118	4305
1857.238	4399
1859.358	4379
1861.477	4432
1863.597	4375
1865.715	4407
1867.832	4349
1869.948	4405
1872.064	4479
1874.181	4349
1876.297	4260
1878.411	4331
1880.526	4371
1882.639	4341
1884.752	4407
1886.865	4308
1888.977	4379
1891.089	4402
1893.2	4452
1895.308	4463
1897.42	4460
1899.53	4496
1901.639	4420
1903.745	4387
1905.853	4430
1907.962	4370
1910.067	4425
1912.174	4424
1914.278	4433
1916.383	4374
1918.486	4330
1920.592	4342
1922.694	4401
1924.797	4499
1926.898	4372
1929	4497
1931.102	4477
1933.203	4445
1935.301	4515
1937.401	4374
1939.499	4460
1941.598	4431
1943.697	4492
1945.793	4470
1947.888	4499
1949.985	4377
1952.08	4530
1954.176	4369
1956.269	4479
1958.364	4540
1960.457	4356
1962.549	4484
1964.642	4324
1966.733	4533
1968.823	4388
1970.913	4438
1973.005	4374
1975.093	4445
1977.184	4479
1979.271	4489
1981.359	4402
1983.446	4441
1985.532	4378
1987.619	4374
1989.705	4422
1991.789	4403
1993.874	4420
1995.956	4502
1998.041	4441
2000.123	4393
2002.206	4536
2004.287	4452
2006.368	4431
2008.449	4401
2010.529	4360
2012.609	4393
2014.688	4380
2016.766	4426
2018.843	4475
2020.922	4457
2022.999	4370
2025.074	4348
2027.15	4460
2029.225	4310
2031.299	4411
2033.375	4379
2035.447	4407
2037.52	4386
2039.592	4373
2041.664	4391
2043.736	4397
2045.807	4443
2047.876	4367
2049.947	4423
2052.015	4446
2054.086	4383
2056.153	4410
2058.221	4400
2060.288	4335
2062.353	4352
2064.42	4390
2066.486	4404
2068.55	4395
2070.614	4404
2072.678	4384
2074.741	4463
2076.805	4454
2078.866	4388
2080.929	4458
2082.99	4439
2085.049	4447
2087.109	4399
2089.17	4359
2091.228	4430
2093.286	4363
2095.344	4355
2097.4	4508
2099.46	4432
2101.516	4483
2103.572	4472
2105.626	4395
2107.679	4451
2109.735	4428
2111.788	4395
2113.841	4412
2115.894	4364
2117.945	4486
2119.997	4346
2122.049	4337
2124.1	4430
2126.148	4418
2128.197	4368
2130.246	4461
2132.296	4459
2134.342	4460
2136.39	4441
2138.437	4463
2140.483	4384
2142.527	4300
2144.574	4365
2146.619	4387
2148.661	4445
2150.705	4379
2152.747	4334
2154.792	4304
2156.832	4551
2158.874	4339
2160.915	4296
2162.954	4450
2164.995	4425
2167.034	4451
2169.072	4501
2171.111	4390
2173.148	4372
2175.186	4399
2177.223	4361
2179.258	4417
2181.294	4404
2183.328	4320
2185.362	4361
2187.398	4385
2189.431	4429
2191.463	4318
2193.495	4431
2195.528	4415
2197.56	4305
2199.59	4291
2201.62	4321
2203.649	4222
2205.678	4307
2207.708	4354
2209.737	4358
2211.764	4379
2213.791	4274
2215.817	4370
2217.843	4291
2219.87	4332
2221.895	4311
2223.919	4334
2225.942	4240
2227.966	4313
2229.988	4357
2232.012	4307
2234.032	4339
2236.054	4305
2238.074	4308
2240.095	4309
2242.116	4320
2244.135	4304
2246.153	4299
2248.171	4345
2250.188	4255
2252.208	4291
2254.223	4297
2256.239	4368
2258.255	4278
2260.269	4383
2262.283	4295
2264.3	4347
2266.312	4249
2268.325	4349
2270.336	4316
2272.349	4372
2274.362	4422
2276.372	4388
2278.383	4298
2280.392	4288
2282.402	4409
2284.409	4281
2286.418	4319
2288.427	4296
2290.433	4255
2292.441	4321
2294.446	4229
2296.453	4273
2298.459	4322
2300.463	4340
2302.466	4298
2304.471	4334
2306.475	4369
2308.477	4360
2310.478	4299
2312.481	4308
2314.481	4307
2316.481	4264
2318.482	4304
2320.482	4252
2322.48	4276
2324.48	4267
2326.478	4299
2328.476	4311
2330.473	4345
2332.469	4300
2334.465	4304
2336.46	4399
2338.454	4216
2340.45	4342
2342.444	4375
2344.437	4314
2346.43	4157
2348.421	4206
2350.414	4243
2352.405	4230
2354.396	4293
2356.386	4216
2358.376	4327
2360.366	4276
2362.355	4243
2364.343	4335
2366.331	4180
2368.317	4221
2370.304	4240
2372.292	4262
2374.278	4207
2376.262	4206
2378.247	4291
2380.23	4161
2382.216	4118
2384.199	4137
2386.181	4298
2388.163	4181
2390.144	4181
2392.127	4253
2394.107	4177
2396.087	4264
2398.066	4182
2400.046	4265
2402.023	4191
2404.004	4194
2405.981	4197
2407.957	4185
2409.934	4194
2411.91	4307
2413.886	4251
2415.862	4257
2417.836	4170
2419.809	4179
2421.784	4257
2423.756	4286
2425.73	4228
2427.701	4214
2429.672	4182
2431.644	4171
2433.615	4184
2435.586	4184
2437.555	4182
2439.523	4255
2441.491	4199
2443.459	4135
2445.428	4171
2447.395	4273
2449.361	4160
2451.327	4144
2453.292	4209
2455.257	4109
2457.223	4154
2459.187	4189
2461.15	4134
2463.113	4153
2465.076	4134
2467.039	4163
2468.999	4231
2470.96	4115
2472.921	4144
2474.881	4094
2476.841	4134
2478.8	4139
2480.759	4190
2482.717	4156
2484.675	4158
2486.63	4166
2488.589	4107
2490.545	4173
2492.5	4183
2494.455	4089
2496.408	4192
2498.364	4161
2500.318	4129
2502.27	4102
2504.223	4097
2506.174	4143
2508.126	4162
2510.078	4099
2512.03	4150
2513.979	4203
2515.927	4075
2517.877	4211
2519.826	4168
2521.775	4171
2523.722	4170
2525.668	4065
2527.616	4083
2529.561	4171
2531.508	4156
2533.452	4102
2535.398	4071
2537.342	4116
2539.284	4109
2541.229	4068
2543.173	4081
2545.114	4074
2547.055	4146
2548.996	4062
2550.938	4158
2552.878	4170
2554.817	4139
2556.756	4093
2558.695	4142
2560.633	4144
2562.572	4085
2564.509	4123
2566.445	4156
2568.382	4077
2570.317	4066
2572.254	4175
2574.189	4078
2576.123	4058
2578.057	4113
2579.99	4143
2581.923	4126
2583.855	4083
2585.788	4182
2587.719	4112
2589.65	4210
2591.579	4165
2593.511	4115
2595.44	4103
2597.37	4150
2599.297	4151
2601.225	4157
2603.153	4128
2605.08	4165
2607.007	4173
2608.932	4090
2610.858	4192
2612.782	4196
2614.709	4112
2616.632	4081
2618.556	4085
2620.478	4046
2622.401	4056
2624.324	4044
2626.247	4162
2628.167	4150
2630.088	4120
2632.008	4117
2633.928	4199
2635.848	4142
2637.766	4110
2639.684	4154
2641.603	4158
2643.519	4112
2645.437	4152
2647.353	4139
2649.27	4227
2651.184	4159
2653.099	4173
2655.014	4137
2656.928	4067
2658.842	4209
2660.755	4124
2662.667	4179
2664.579	4155
2666.491	4115
2668.402	4191
2670.312	4149
2672.222	4097
2674.132	4146
2676.042	4149
2677.951	4102
2679.859	4089
2681.766	4105
2683.674	4107
2685.582	4080
2687.488	4095
2689.392	4156
2691.298	4143
2693.202	4134
2695.107	4109
2697.012	4002
2698.914	4099
2700.817	4089
2702.72	4092
2704.622	4085
2706.524	4061
2708.425	4048
2710.326	4035
2712.225	4047
2714.125	4051
2716.024	4096
2717.923	4020
2719.822	4104
2721.719	4165
2723.616	4123
2725.512	4110
2727.41	4100
2729.305	4085
2731.201	4048
2733.095	4098
2734.99	4089
2736.884	4086
2738.778	3948
2740.67	4171
2742.562	3997
2744.455	4023
2746.346	4132
2748.238	4039
2750.129	4078
2752.018	4114
2753.907	4043
2755.797	4134
2757.687	4016
2759.575	4029
2761.462	3965
2763.349	4026
2765.237	3955
2767.124	4106
2769.009	4062
2770.894	3978
2772.779	4046
2774.663	4161
2776.547	4018
2778.431	4146
2780.314	4027
2782.197	4040
2784.078	4125
2785.96	4030
2787.842	4045
2789.723	4075
2791.603	4109
2793.483	4027
2795.362	4078
2797.241	4022
2799.121	4013
2800.997	3994
2802.874	3957
2804.751	3974
2806.628	4018
2808.506	4017
2810.38	4045
2812.255	3970
2814.13	3930
2816.003	4049
2817.878	4013
2819.752	3934
2821.623	4042
2823.496	4002
2825.368	4033
2827.238	3993
2829.111	4035
2830.98	4029
2832.851	3991
2834.719	3985
2836.589	4045
2838.458	4010
2840.327	4009
2842.193	4038
2844.061	4139
2845.927	4057
2847.794	4057
2849.66	4086
2851.525	4063
2853.39	4158
2855.254	4101
2857.117	4075
2858.983	4096
2860.845	4195
2862.707	4234
2864.569	4243
2866.431	4293
2868.293	4302
2870.154	4180
2872.013	4247
2873.873	4337
2875.733	4350
2877.592	4344
2879.451	4429
2881.309	4483
2883.166	4471
2885.022	4498
2886.879	4500
2888.736	4570
2890.591	4539
2892.446	4601
2894.301	4451
2896.155	4579
2898.009	4474
2899.863	4462
2901.716	4543
2903.568	4513
2905.419	4503
2907.27	4513
2909.123	4560
2910.973	4509
2912.824	4657
2914.673	4666
2916.521	4565
2918.372	4599
2920.22	4736
2922.067	4739
2923.914	4727
2925.761	4819
2927.607	4818
2929.455	4814
2931.301	4864
2933.144	4955
2934.99	5066
2936.833	5110
2938.678	5092
2940.522	5148
2942.364	5137
2944.207	5271
2946.048	5110
2947.891	5258
2949.731	5274
2951.571	5195
2953.412	5254
2955.25	5162
2957.09	5121
2958.93	5070
2960.767	5060
2962.606	5013
2964.443	4956
2966.279	4951
2968.116	4965
2969.953	4749
2971.788	4938
2973.623	4773
2975.457	4772
2977.292	4736
2979.127	4723
2980.959	4590
2982.792	4622
2984.624	4529
2986.455	4528
2988.288	4542
2990.119	4578
2991.949	4424
2993.779	4508
2995.608	4371
2997.439	4407
2999.268	4448
3001.096	4348
3002.923	4287
3004.751	4286
3006.578	4226
3008.406	4198
3010.232	4191
3012.057	4112
3013.883	3954
3015.706	4121
3017.532	4025
3019.356	4054
3021.179	4010
3023.002	3963
3024.823	4010
3026.646	3954
3028.469	3944
3030.289	3860
3032.11	3916
3033.93	3989
3035.749	3879
3037.57	3891
3039.39	3873
3041.207	4000
3043.026	3820
3044.842	3961
3046.661	3861
3048.477	3882
3050.294	3949
3052.109	3804
3053.925	3940
3055.739	3931
3057.555	3874
3059.368	3855
3061.181	3839
3062.995	3884
3064.807	3848
3066.62	3855
3068.433	3883
3070.243	3793
3072.054	3871
3073.865	3860
3075.675	3826
3077.485	3869
3079.293	3837
3081.102	3813
3082.911	3806
3084.719	3841
3086.527	3800
3088.333	3786
3090.139	3780
3091.945	3783
3093.75	3782
3095.557	3780
3097.361	3691
3099.165	3783
3100.969	3789
3102.772	3766
3104.575	3758
3106.379	3719
3108.181	3724
3109.982	3660
3111.783	3680
3113.584	3712
3115.386	3737
3117.186	3782
3118.985	3723
3120.783	3694
3122.582	3688
3124.381	3703
3126.179	3600
3127.975	3724
3129.772	3691
3131.569	3727
3133.365	3723
3135.161	3773
3136.956	3725
3138.751	3756
3140.544	3667
3142.338	3690
3144.132	3656
3145.925	3694
3147.717	3672
3149.509	3714
3151.301	3631
3153.091	3618
3154.884	3630
3156.673	3687
3158.462	3728
3160.252	3726
3162.041	3567
3163.831	3728
3165.618	3667
3167.405	3639
3169.193	3691
3170.979	3678
3172.767	3646
3174.553	3588
3176.338	3612
3178.123	3577
3179.907	3688
3181.692	3568
3183.477	3680
3185.259	3598
3187.042	3559
3188.824	3686
3190.607	3713
3192.389	3626
3194.17	3663
3195.951	3666
3197.73	3667
3199.51	3594
3201.289	3641
3203.07	3603
3204.848	3629
3206.626	3623
3208.403	3607
3210.18	3577
3211.959	3626
3213.735	3635
3215.511	3647
3217.285	3630
3219.06	3674
3220.836	3623
3222.611	3616
3224.384	3593
3226.158	3633
3227.929	3609
3229.702	3587
3231.476	3613
3233.248	3552
3235.018	3661
3236.789	3595
3238.56	3610
3240.33	3590
3242.1	3543
3243.869	3630
3245.637	3555
3247.405	3620
3249.172	3633
3250.941	3588
3252.707	3577
3254.474	3636
3256.24	3572
3258.006	3531
3259.772	3639
3261.537	3645
3263.301	3617
3265.065	3547
3266.828	3559
3268.592	3641
3270.355	3710
3272.117	3615
3273.878	3605
3275.64	3615
3277.401	3606
3279.162	3616
3280.922	3703
3282.682	3652
3284.441	3684
3286.199	3631
3287.959	3676
3289.716	3600
3291.475	3728
3293.232	3639
3294.988	3626
3296.744	3677
3298.501	3661
3300.256	3535
3302.011	3674
3303.766	3652
3305.52	3582
3307.275	3695
3309.028	3616
3310.781	3588
3312.533	3707
3314.285	3544
3316.038	3593
3317.789	3647
3319.54	3704
3321.289	3631
3323.039	3660
3324.789	3662
3326.539	3555
3328.288	3717
3330.035	3673
3331.783	3562
3333.531	3591
3335.28	3594
3337.025	3674
3338.771	3647
3340.518	3607
3342.262	3523
3344.009	3591
3345.753	3673
3347.497	3571
3349.24	3607
3350.983	3588
3352.726	3495
3354.469	3669
3356.212	3592
3357.952	3591
3359.694	3521
3361.434	3563
3363.176	3502
3364.916	3544
3366.654	3585
3368.394	3502
3370.132	3536
3371.871	3516
3373.61	3590
3375.346	3523
3377.083	3605
3378.82	3573
3380.556	3511
3382.292	3467
3384.027	3464
3385.763	3471
3387.497	3354
3389.231	3489
3390.965	3561
3392.698	3584
3394.431	3515
3396.164	3487
3397.896	3494
3399.627	3563
3401.36	3559
3403.09	3463
3404.82	3561
3406.55	3447
3408.279	3468
3410.01	3516
3411.738	3454
3413.467	3412
3415.194	3498
3416.92	3462
3418.647	3476
3420.375	3515
3422.102	3501
3423.827	3509
3425.553	3413
3427.277	3438
3429.003	3439
3430.727	3440
3432.451	3425
3434.173	3456
3435.896	3433
3437.62	3393
3439.343	3360
3441.063	3388
3442.785	3358
3444.505	3349
3446.226	3341
3447.948	3451
3449.666	3339
3451.386	3384
3453.104	3352
3454.823	3380
3456.541	3360
3458.259	3336
3459.976	3404
3461.693	3335
3463.408	3377
3465.125	3380
3466.841	3293
3468.556	3393
3470.271	3376
3471.985	3346
3473.698	3306
3475.414	3318
3477.126	3339
3478.838	3336
3480.55	3410
3482.263	3303
3483.975	3277
3485.686	3332
3487.396	3270
3489.106	3310
3490.817	3295
3492.526	3273
3494.236	3291
3495.944	3325
3497.652	3251
3499.359	3247
3501.066	3289
3502.775	3269
3504.481	3219
3506.187	3255
3507.893	3307
3509.598	3285
3511.304	3241
3513.009	3228
3514.713	3214
3516.417	3255
3518.12	3222
3519.821	3167
3521.525	3247
3523.228	3218
3524.929	3215
3526.631	3251
3528.33	3232
3530.032	3209
3531.733	3246
3533.433	3186
3535.131	3173
3536.83	3118
3538.529	3205
3540.227	3187
3541.925	3094
3543.623	3203
3545.319	3144
3547.016	3113
3548.712	3152
3550.408	3217
3552.103	3153
3553.798	3145
3555.491	3110
3557.188	3085
3558.88	3181
3560.574	3148
3562.266	3122
3563.959	3124
3565.651	3163
3567.343	3187
3569.035	3124
3570.725	3068
3572.415	3109
3574.106	3087
3575.797	3135
3577.485	3067
3579.174	3120
3580.863	3132
3582.551	3085
3584.238	3096
3585.926	3058
3587.613	3093
3589.3	3072
3590.986	3083
3592.671	3061
3594.357	3022
3596.042	3034
3597.726	2998
3599.41	3040
3601.094	2981
3602.778	3025
3604.461	3035
3606.143	2969
3607.825	2985
3609.507	3000
3611.188	3015
3612.87	3097
3614.551	2937
3616.229	2960
3617.909	2970
3619.589	2966
3621.269	2979
3622.948	2999
3624.625	3080
3626.302	2987
3627.98	3005
3629.657	2899
3631.334	3071
3633.01	2971
3634.686	2858
3636.361	2962
3638.036	2946
3639.712	2930
3641.385	2931
3643.06	2874
3644.732	2897
3646.405	2958
3648.08	2948
3649.751	2925
3651.424	2913
3653.094	2956
3654.766	2999
3656.436	2908
3658.106	2905
3659.777	2818
3661.446	2832
3663.115	2911
3664.783	2914
3666.452	2993
3668.121	2860
3669.788	2852
3671.454	2793
3673.121	2856
3674.789	2794
3676.455	2823
3678.12	2840
3679.784	2864
3681.45	2838
3683.114	2823
3684.779	2863
3686.442	2842
3688.105	2847
3689.768	2810
3691.43	2846
3693.093	2843
3694.754	2790
3696.415	2827
3698.076	2811
3699.736	2860
3701.396	2877
3703.057	2910
3704.716	2834
3706.375	2818
3708.034	2785
3709.692	2750
3711.351	2821
3713.008	2793
3714.665	2839
3716.321	2741
3717.977	2830
3719.634	2737
3721.29	2769
3722.945	2759
3724.598	2770
3726.253	2757
3727.907	2784
3729.561	2796
3731.214	2752
3732.867	2734
3734.518	2750
3736.171	2764
3737.824	2763
3739.474	2812
3741.125	2821
3742.775	2772
3744.425	2789
3746.074	2771
3747.725	2799
3749.373	2745
3751.022	2793
3752.669	2819
3754.318	2771
3755.966	2820
3757.612	2800
3759.259	2754
3760.905	2749
3762.55	2761
3764.197	2744
3765.842	2794
3767.486	2678
3769.131	2758
3770.774	2694
3772.417	2722
3774.061	2746
3775.705	2710
3777.347	2669
3778.988	2702
3780.629	2630
3782.271	2750
3783.912	2700
3785.552	2739
3787.192	2707
3788.831	2713
3790.472	2652
3792.112	2653
3793.75	2675
3795.388	2748
3797.024	2672
3798.661	2741
3800.3	2701
3801.936	2665
3803.572	2691
3805.208	2650
3806.844	2688
3808.48	2698
3810.115	2647
3811.748	2710
3813.382	2666
3815.016	2650
3816.649	2653
3818.283	2735
3819.914	2655
3821.547	2585
3823.178	2639
3824.809	2641
3826.441	2647
3828.072	2678
3829.701	2617
3831.331	2610
3832.96	2630
3834.591	2669
3836.219	2685
3837.847	2631
3839.475	2647
3841.102	2664
3842.729	2642
3844.357	2661
3845.984	2697
3847.609	2595
3849.234	2644
3850.86	2576
3852.485	2645
3854.11	2634
3855.734	2666
3857.357	2656
3858.981	2600
3860.603	2643
3862.227	2588
3863.848	2638
3865.471	2596
3867.092	2614
3868.713	2562
3870.334	2605
3871.954	2572
3873.575	2605
3875.194	2624
3876.813	2526
3878.433	2576
3880.051	2606
3881.669	2606
3883.286	2550
3884.904	2552
3886.52	2598
3888.138	2539
3889.754	2592
3891.37	2599
3892.985	2535
3894.6	2562
3896.216	2457
3897.831	2574
3899.444	2529
3901.058	2531
3902.67	2626
3904.283	2501
3905.897	2568
3907.509	2519
3909.121	2572
3910.731	2490
3912.342	2559
3913.954	2527
3915.563	2555
3917.174	2544
3918.783	2587
3920.391	2540
3922.002	2550
3923.611	2509
3925.218	2518
3926.826	2503
3928.432	2474
3930.039	2556
3931.647	2514
3933.253	2560
3934.859	2520
3936.464	2536
3938.068	2488
3939.675	2568
3941.278	2556
3942.883	2546
3944.486	2560
3946.089	2492
3947.692	2520
3949.295	2506
3950.898	2511
3952.499	2516
3954.1	2556
3955.7	2520
3957.303	2524
3958.903	2474
3960.502	2434
3962.101	2452
3963.7	2429
3965.301	2464
3966.899	2424
3968.497	2542
3970.094	2471
3971.691	2449
3973.288	2520
3974.885	2506
3976.481	2441
3978.077	2456
3979.672	2492
3981.267	2531
3982.863	2448
3984.457	2478
3986.051	2443
3987.645	2498
3989.238	2535
3990.831	2473
3992.425	2465
3994.017	2426
3995.607	2457
3997.199	2469
3998.79	2431
4000.382	2365
4001.973	2437
4003.561	2462
4005.151	2436
4006.741	2459
4008.331	2443
4009.918	2336
4011.507	2377
4013.095	2414
4014.681	2442
4016.269	2409
4017.856	2374
4019.443	2387
4021.028	2352
4022.614	2440
4024.199	2430
4025.785	2393
4027.37	2389
4028.953	2459
4030.536	2453
4032.12	2349
4033.704	2433
4035.287	2341
4036.869	2429
4038.45	2406
4040.032	2315
4041.613	2331
4043.195	2362
4044.776	2394
4046.356	2318
4047.935	2319
4049.515	2365
4051.095	2339
4052.674	2321
4054.251	2359
4055.829	2358
4057.406	2372
4058.985	2351
4060.562	2269
4062.139	2365
4063.715	2311
4065.29	2328
4066.865	2319
4068.442	2300
4070.016	2355
4071.59	2299
4073.164	2338
4074.738	2269
4076.312	2328
4077.885	2291
4079.458	2376
4081.03	2339
4082.602	2359
4084.173	2314
4085.745	2282
4087.315	2310
4088.886	2350
4090.456	2283
4092.026	2318
4093.596	2273
4095.165	2292
4096.734	2302
4098.301	2269
4099.869	2320
4101.437	2315
4103.006	2299
4104.572	2242
4106.139	2276
4107.704	2271
4109.27	2310
4110.837	2222
4112.401	2287
4113.966	2272
4115.53	2301
4117.094	2197
4118.659	2228
4120.223	2276
4121.785	2249
4123.347	2192
4124.909	2170
4126.471	2271
4128.034	2296
4129.595	2239
4131.155	2345
4132.716	2205
4134.275	2199
4135.836	2254
4137.395	2275
4138.955	2220
4140.513	2204
4142.071	2223
4143.628	2189
4145.188	2238
4146.745	2229
4148.302	2255
4149.858	2161
4151.414	2259
4152.971	2321
4154.526	2228
4156.081	2238
4157.635	2189
4159.189	2158
4160.745	2181
4162.298	2204
4163.852	2257
4165.405	2170
4166.957	2168
4168.51	2129
4170.063	2208
4171.614	2129
4173.166	2150
4174.717	2175
4176.267	2185
4177.817	2135
4179.368	2147
4180.917	2149
4182.466	2080
4184.016	2162
4185.564	2134
4187.112	2089
4188.66	2129
4190.207	2112
4191.754	2152
4193.301	2139
4194.848	2093
4196.394	2139
4197.94	2126
4199.484	2127
4201.03	2140
4202.575	2050
4204.12	2094
4205.663	2147
4207.207	2176
4208.75	2186
4210.292	2130
4211.836	2109
4213.378	2160
4214.92	2152
4216.46	2070
4218.002	2149
4219.544	2080
4221.083	2119
4222.625	2162
4224.164	2082
4225.703	2087
4227.244	2083
4228.782	2109
4230.32	2101
4231.857	2082
4233.395	2136
4234.933	2129
4236.471	2158
4238.007	2115
4239.542	2145
4241.078	2136
4242.614	2071
4244.15	2119
4245.685	2041
4247.219	2051
4248.753	2177
4250.287	2069
4251.82	2055
4253.354	2066
4254.887	2133
4256.419	2022
4257.951	2111
4259.483	2025
4261.016	2065
4262.547	2068
4264.078	2062
4265.608	2047
4267.137	2051
4268.668	2017
4270.197	2085
4271.727	2059
4273.254	2097
4274.783	2010
4276.311	2083
4277.84	2105
4279.366	2065
4280.894	2071
4282.42	2105
4283.946	2029
4285.473	2103
4286.998	2123
4288.523	2030
4290.047	2047
4291.572	1991
4293.096	2005
4294.622	2057
4296.144	2083
4297.668	2045
4299.19	2044
4300.713	2110
4302.236	1985
4303.758	2031
4305.279	2009
4306.799	2002
4308.321	2000
4309.842	2056
4311.361	2014
4312.882	1990
4314.401	2066
