400.0961	3179
402.6185	3157
405.1424	3178
407.6635	3207
410.1838	3292
412.7035	3221
415.2225	3273
417.7388	3375
420.2585	3339
422.7754	3369
425.2917	3458
427.8072	3474
430.3221	3461
432.8363	3470
435.3498	3521
437.8626	3404
440.3727	3483
442.8841	3449
445.3969	3470
447.907	3456
450.4142	3428
452.9229	3469
455.4289	3452
457.9362	3374
460.4449	3444
462.9488	3405
465.454	3426
467.9566	3410
470.4604	3368
472.9637	3436
475.4662	3396
477.966	3436
480.4671	3361
482.9656	3422
485.4633	3435
487.9645	3405
490.4608	3425
492.9566	3479
495.4536	3430
497.948	3396
500.4437	3451
502.9387	3498
505.431	3475
507.9226	3484
510.4136	3445
512.9079	3513
515.3975	3530
517.8864	3565
520.3746	3566
522.8622	3515
525.3491	3450
527.8394	3490
530.3249	3544
532.8098	3592
535.2939	3530
537.7774	3579
540.2623	3547
542.7444	3577
545.2259	3614
547.7067	3515
550.1868	3522
552.6683	3568
555.147	3515
557.6231	3535
560.1005	3606
562.5773	3672
565.0534	3590
567.5308	3707
570.0056	3596
572.4776	3604
574.951	3639
577.4237	3766
579.8978	3579
582.3671	3737
584.8378	3685
587.3079	3697
589.7773	3759
592.244	3764
594.714	3768
597.1793	3667
599.6461	3751
602.1121	3687
604.5754	3692
607.0421	3748
609.5042	3660
611.9675	3700
614.4282	3653
616.8902	3741
619.3515	3716
621.8122	3646
624.2702	3569
626.7296	3641
629.1863	3582
631.6423	3571
634.1017	3692
636.5563	3598
639.0104	3662
641.4658	3639
643.9185	3653
646.3725	3646
648.8239	3644
651.2766	3685
653.7266	3662
656.176	3735
658.6247	3742
661.0748	3731
663.5242	3706
665.9709	3653
668.417	3729
670.8624	3713
673.3092	3684
675.7533	3676
678.1968	3778
680.6395	3730
683.0817	3744
685.5251	3830
687.9659	3677
690.4061	3741
692.8456	3760
695.2844	3766
697.7226	3747
700.1621	3786
702.599	3695
705.0332	3824
707.4688	3763
709.9036	3768
712.3399	3839
714.7735	3810
717.2044	3827
719.6367	3855
722.0683	3841
724.4993	3897
726.9296	3857
729.3593	3794
731.7883	3821
734.2147	3844
736.6423	3893
739.0714	3945
741.4958	3944
743.9216	3952
746.3447	3914
748.7691	3987
751.1929	3959
753.616	3990
756.0366	4042
758.4584	3967
760.8776	4029
763.2982	3998
765.718	3978
768.1373	4031
770.5539	3973
772.9698	4015
775.3871	4049
777.8038	3977
780.2178	4051
782.6332	4012
785.0459	3968
787.458	3994
789.8714	4031
792.2842	4014
794.6943	4002
797.1038	4081
799.5127	4013
801.9209	4042
804.3324	4030
806.7393	4047
809.1456	4134
811.5513	4091
813.9562	4100
816.3625	3988
818.7663	4123
821.1693	4047
823.5718	4157
825.9735	4088
828.3746	4098
830.7771	4121
833.177	4098
835.5762	4080
837.9747	4045
840.3727	4041
842.772	4109
845.1666	4230
847.5626	4121
849.958	4156
852.3527	4177
854.7488	4235
857.1403	4241
859.5331	4143
861.9253	4257
864.3168	4170
866.7057	4179
869.098	4194
871.4876	4200
873.8746	4171
876.263	4280
878.6487	4206
881.0378	4155
883.4243	4149
885.8081	4190
888.1933	4190
890.5759	4136
892.9598	4209
895.343	4094
897.7256	4164
900.1057	4216
902.4871	4180
904.8659	4116
907.246	4126
909.6254	4226
912.0023	4173
914.3786	4345
916.7562	4289
919.1331	4276
921.5074	4470
923.8831	4488
926.2562	4386
928.6287	4357
931.0005	4447
933.3757	4341
935.7462	4565
938.1162	4540
940.4855	4555
942.8542	4585
945.2242	4633
947.5916	4804
949.9584	4886
952.3266	5023
954.6921	5308
957.0571	5536
959.4233	5843
961.787	5946
964.15	5807
966.5125	5648
968.8742	5331
971.2354	5081
973.5959	4789
975.9559	4694
978.3151	4472
980.6738	4447
983.0338	4386
985.3912	4391
987.7461	4402
990.1022	4405
992.4578	4355
994.8127	4332
997.1689	4307
999.5207	4282
1001.874	4425
1004.226	4309
1006.576	4478
1008.929	4372
1011.28	4324
1013.628	4412
1015.977	4386
1018.324	4337
1020.674	4272
1023.019	4440
1025.366	4436
1027.713	4451
1030.056	4347
1032.399	4407
1034.746	4397
1037.087	4382
1039.431	4499
1041.771	4493
1044.113	4507
1046.454	4374
1048.793	4409
1051.133	4487
1053.471	4418
1055.807	4450
1058.146	4478
1060.483	4529
1062.818	4463
1065.153	4595
1067.489	4583
1069.822	4533
1072.156	4609
1074.488	4610
1076.82	4576
1079.15	4486
1081.48	4574
1083.814	4480
1086.143	4490
1088.471	4537
1090.799	4466
1093.126	4502
1095.452	4517
1097.78	4495
1100.105	4396
1102.43	4495
1104.754	4433
1107.077	4498
1109.4	4413
1111.722	4462
1114.044	4426
1116.365	4376
1118.685	4399
1121.005	4484
1123.324	4408
1125.643	4385
1127.961	4422
1130.278	4500
1132.595	4403
1134.911	4564
1137.226	4397
1139.541	4377
1141.854	4531
1144.167	4370
1146.482	4427
1148.793	4412
1151.105	4456
1153.414	4503
1155.725	4520
1158.033	4494
1160.344	4456
1162.651	4440
1164.959	4397
1167.265	4492
1169.572	4480
1171.878	4420
1174.184	4477
1176.488	4366
1178.79	4475
1181.094	4492
1183.396	4510
1185.699	4517
1188.001	4398
1190.301	4506
1192.6	4441
1194.9	4444
1197.2	4477
1199.497	4514
1201.794	4481
1204.09	4428
1206.387	4448
1208.684	4463
1210.978	4511
1213.272	4501
1215.565	4431
1217.858	4464
1220.15	4496
1222.443	4543
1224.734	4474
1227.024	4533
1229.313	4582
1231.602	4634
1233.892	4665
1236.18	4608
1238.467	4608
1240.754	4696
1243.04	4719
1245.325	4714
1247.612	4636
1249.896	4714
1252.178	4629
1254.461	4706
1256.743	4669
1259.027	4717
1261.308	4728
1263.587	4710
1265.867	4725
1268.146	4533
1270.425	4737
1272.703	4736
1274.981	4641
1277.256	4693
1279.532	4785
1281.808	4627
1284.083	4544
1286.358	4593
1288.63	4557
1290.904	4736
1293.175	4597
1295.449	4575
1297.719	4484
1299.99	4586
1302.259	4544
1304.529	4477
1306.798	4607
1309.065	4552
1311.333	4639
1313.599	4552
1315.866	4587
1318.131	4555
1320.396	4557
1322.66	4561
1324.925	4602
1327.187	4569
1329.448	4642
1331.711	4537
1333.974	4586
1336.234	4613
1338.493	4608
1340.752	4594
1343.01	4590
1345.269	4562
1347.526	4622
1349.784	4616
1352.04	4496
1354.295	4671
1356.552	4573
1358.806	4462
1361.059	4591
1363.312	4636
1365.564	4546
1367.818	4514
1370.069	4646
1372.318	4518
1374.568	4620
1376.817	4663
1379.066	4585
1381.316	4728
1383.564	4637
1385.809	4673
1388.056	4651
1390.301	4623
1392.549	4631
1394.793	4694
1397.036	4703
1399.279	4730
1401.522	4738
1403.763	4754
1406.007	4799
1408.248	4673
1410.487	4741
1412.727	4728
1414.965	4723
1417.205	4801
1419.442	4702
1421.68	4733
1423.915	4865
1426.152	4758
1428.388	4738
1430.623	4862
1432.857	4797
1435.091	4787
1437.323	4767
1439.556	4854
1441.789	4812
1444.019	4795
1446.25	4827
1448.48	4972
1450.708	4753
1452.938	4967
1455.167	4877
1457.394	4824
1459.62	4922
1461.846	4873
1464.073	4817
1466.299	4777
1468.523	4826
1470.746	4860
1472.969	4755
1475.191	4689
1477.415	4734
1479.636	4778
1481.858	4706
1484.078	4637
1486.298	4544
1488.518	4694
1490.736	4671
1492.954	4642
1495.169	4614
1497.386	4577
1499.602	4519
1501.819	4550
1504.034	4552
1506.248	4586
1508.462	4614
1510.675	4605
1512.888	4496
1515.1	4635
1517.311	4643
1519.522	4478
1521.732	4624
1523.942	4664
1526.151	4547
1528.36	4583
1530.566	4541
1532.773	4626
1534.98	4632
1537.187	4474
1539.392	4636
1541.596	4682
1543.801	4632
1546.005	4664
1548.208	4611
1550.411	4716
1552.612	4639
1554.814	4656
1557.013	4642
1559.212	4642
1561.414	4785
1563.612	4640
1565.811	4637
1568.007	4733
1570.203	4704
1572.403	4754
1574.598	4703
1576.792	4719
1578.988	4659
1581.181	4695
1583.376	4734
1585.568	4716
1587.761	4727
1589.952	4718
1592.143	4810
1594.333	4681
1596.524	4767
1598.715	4800
1600.903	4841
1603.091	4776
1605.278	4809
1607.466	4772
1609.652	4838
1611.838	4789
1614.023	4695
1616.207	4753
1618.391	4771
1620.576	4793
1622.759	4841
1624.941	4848
1627.123	4737
1629.304	4839
1631.484	4790
1633.664	4939
1635.844	4899
1638.022	4912
1640.201	4913
1642.38	4902
1644.556	4830
1646.732	4812
1648.908	4786
1651.084	4922
1653.257	4970
1655.433	4895
1657.607	4827
1659.779	4959
1661.951	4774
1664.122	5003
1666.295	4894
1668.467	4898
1670.635	4968
1672.805	5000
1674.973	4995
1677.142	4983
1679.31	4885
1681.478	5000
1683.644	4840
1685.81	4911
1687.975	4874
1690.142	4866
1692.305	4867
1694.468	4857
1696.632	4829
1698.794	4884
1700.957	4814
1703.119	4760
1705.279	4786
1707.439	4803
1709.598	4779
1711.758	4745
1713.917	4741
1716.075	4756
1718.231	4661
1720.388	4736
1722.543	4735
1724.702	4770
1726.856	4700
1729.01	4921
1731.164	4711
1733.317	4735
1735.471	4825
1737.623	4736
1739.774	4784
1741.925	4756
1744.075	4767
1746.225	4788
1748.376	4640
1750.524	4760
1752.672	4790
1754.82	4766
1756.965	4856
1759.113	4699
1761.259	4742
1763.405	4805
1765.549	4813
1767.694	4786
1769.836	4813
1771.981	4770
1774.123	4777
1776.264	4826
1778.405	4796
1780.546	4773
1782.687	4783
1784.827	4865
1786.966	4866
1789.103	4802
1791.242	4823
1793.381	4813
1795.517	4785
1797.653	4801
1799.788	4774
1801.923	4873
1804.057	4764
1806.193	4800
1808.326	4857
1810.457	4800
1812.59	4772
1814.721	4791
1816.855	4763
1818.984	4882
1821.113	4772
1823.244	4781
1825.372	4912
1827.499	4678
1829.63	4750
1831.756	4780
1833.882	4877
1836.007	4709
1838.132	4736
1840.26	4828
1842.384	4770
1844.507	4753
1846.63	4786
1848.752	4818
1850.875	4827
1852.996	4653
1855.118	4674
1857.238	4758
1859.358	4664
1861.477	4798
1863.597	4752
1865.715	4793
1867.832	4859
1869.948	4749
1872.064	4767
1874.181	4820
1876.297	4681
1878.411	4727
1880.526	4872
1882.639	4681
1884.752	4758
1886.865	4840
1888.977	4756
1891.089	4786
1893.2	4862
1895.308	4802
1897.42	4907
1899.53	4804
1901.639	4824
1903.745	4832
1905.853	4951
1907.962	4777
1910.067	4793
1912.174	4878
1914.278	4892
1916.383	4847
1918.486	4767
1920.592	4826
1922.694	4816
1924.797	4897
1926.898	4888
1929	4877
1931.102	4773
1933.203	4855
1935.301	4815
1937.401	4842
1939.499	4834
1941.598	4837
1943.697	4913
1945.793	4842
1947.888	4840
1949.985	4945
1952.08	4800
1954.176	4920
1956.269	4863
1958.364	4789
1960.457	4932
1962.549	4978
1964.642	4871
1966.733	4841
1968.823	4930
1970.913	4799
1973.005	4798
1975.093	4805
1977.184	4767
1979.271	4857
1981.359	4874
1983.446	4741
1985.532	4774
1987.619	4697
1989.705	4888
1991.789	4906
1993.874	4949
1995.956	4767
1998.041	4817
2000.123	4744
2002.206	4854
2004.287	4910
2006.368	4826
2008.449	4732
2010.529	4862
2012.609	4840
2014.688	4802
2016.766	4763
2018.843	4850
2020.922	4731
2022.999	4841
2025.074	4816
2027.15	4825
2029.225	4775
2031.299	4817
2033.375	4761
2035.447	4823
2037.52	4805
2039.592	4850
2041.664	4789
2043.736	4830
2045.807	4764
2047.876	4733
2049.947	4848
2052.015	4835
2054.086	4802
2056.153	4830
2058.221	4934
2060.288	4835
2062.353	4903
2064.42	4759
2066.486	4849
2068.55	4801
2070.614	4785
2072.678	4783
2074.741	4805
2076.805	4917
2078.866	4771
2080.929	4808
2082.99	4863
2085.049	4780
2087.109	4758
2089.17	4835
2091.228	4798
2093.286	4813
2095.344	4829
2097.4	4839
2099.46	4841
2101.516	4801
2103.572	4913
2105.626	4823
2107.679	4820
2109.735	4846
2111.788	4797
2113.841	4914
2115.894	4891
2117.945	4810
2119.997	4970
2122.049	4811
2124.1	4851
2126.148	4802
2128.197	4717
2130.246	4797
2132.296	4759
2134.342	4867
2136.39	4887
2138.437	4904
2140.483	4798
2142.527	4769
2144.574	4865
2146.619	4751
2148.661	4835
2150.705	4754
2152.747	4732
2154.792	4826
2156.832	4871
2158.874	4855
2160.915	4657
2162.954	4761
2164.995	4736
2167.034	4772
2169.072	4745
2171.111	4823
2173.148	4673
2175.186	4873
2177.223	4723
2179.258	4717
2181.294	4881
2183.328	4687
2185.362	4754
2187.398	4804
2189.431	4822
2191.463	4739
2193.495	4782
2195.528	4754
2197.56	4686
2199.59	4770
2201.62	4837
2203.649	4685
2205.678	4746
2207.708	4660
2209.737	4723
2211.764	4760
2213.791	4736
2215.817	4747
2217.843	4644
2219.87	4627
2221.895	4676
2223.919	4756
2225.942	4767
2227.966	4731
2229.988	4697
2232.012	4591
2234.032	4818
2236.054	4683
2238.074	4662
2240.095	4674
2242.116	4663
2244.135	4781
2246.153	4667
2248.171	4722
2250.188	4718
2252.208	4588
2254.223	4619
2256.239	4737
2258.255	4771
2260.269	4685
2262.283	4720
2264.3	4680
2266.312	4765
2268.325	4837
2270.336	4724
2272.349	4774
2274.362	4688
2276.372	4616
2278.383	4713
2280.392	4626
2282.402	4662
2284.409	4669
2286.418	4659
2288.427	4700
2290.433	4748
2292.441	4726
2294.446	4714
2296.453	4639
2298.459	4664
2300.463	4557
2302.466	4741
2304.471	4699
2306.475	4625
2308.477	4633
2310.478	4678
2312.481	4670
2314.481	4668
2316.481	4623
2318.482	4612
2320.482	4695
2322.48	4689
2324.48	4675
2326.478	4714
2328.476	4602
2330.473	4586
2332.469	4685
2334.465	4684
2336.46	4643
2338.454	4601
2340.45	4597
2342.444	4641
2344.437	4686
2346.43	4616
2348.421	4615
2350.414	4627
2352.405	4610
2354.396	4548
2356.386	4532
2358.376	4585
2360.366	4650
2362.355	4596
2364.343	4576
2366.331	4620
2368.317	4626
2370.304	4660
2372.292	4603
2374.278	4597
2376.262	4682
2378.247	4653
2380.23	4536
2382.216	4719
2384.199	4606
2386.181	4510
2388.163	4550
2390.144	4551
2392.127	4584
2394.107	4488
2396.087	4587
2398.066	4508
2400.046	4551
2402.023	4496
2404.004	4611
2405.981	4586
2407.957	4566
2409.934	4595
2411.91	4574
2413.886	4458
2415.862	4589
2417.836	4542
2419.809	4543
2421.784	4544
2423.756	4586
2425.73	4522
2427.701	4475
2429.672	4496
2431.644	4532
2433.615	4573
2435.586	4528
2437.555	4506
2439.523	4506
2441.491	4607
2443.459	4578
2445.428	4528
2447.395	4548
2449.361	4505
2451.327	4474
2453.292	4530
2455.257	4483
2457.223	4574
2459.187	4370
2461.15	4515
2463.113	4516
2465.076	4488
2467.039	4553
2468.999	4514
2470.96	4417
2472.921	4539
2474.881	4531
2476.841	4483
2478.8	4527
2480.759	4519
2482.717	4387
2484.675	4460
2486.63	4467
2488.589	4536
2490.545	4464
2492.5	4533
2494.455	4436
2496.408	4436
2498.364	4559
2500.318	4511
2502.27	4515
2504.223	4419
2506.174	4473
2508.126	4366
2510.078	4459
2512.03	4410
2513.979	4524
2515.927	4438
2517.877	4394
2519.826	4478
2521.775	4483
2523.722	4482
2525.668	4431
2527.616	4385
2529.561	4481
2531.508	4489
2533.452	4459
2535.398	4398
2537.342	4526
2539.284	4395
2541.229	4446
2543.173	4538
2545.114	4471
2547.055	4457
2548.996	4454
2550.938	4440
2552.878	4455
2554.817	4383
2556.756	4522
2558.695	4390
2560.633	4468
2562.572	4462
2564.509	4447
2566.445	4389
2568.382	4447
2570.317	4484
2572.254	4351
2574.189	4336
2576.123	4441
2578.057	4501
2579.99	4438
2581.923	4519
2583.855	4446
2585.788	4476
2587.719	4411
2589.65	4469
2591.579	4504
2593.511	4551
2595.44	4570
2597.37	4379
2599.297	4459
2601.225	4465
2603.153	4411
2605.08	4472
2607.007	4453
2608.932	4374
2610.858	4569
2612.782	4422
2614.709	4479
2616.632	4518
2618.556	4384
2620.478	4479
2622.401	4525
2624.324	4506
2626.247	4445
2628.167	4508
2630.088	4505
2632.008	4366
2633.928	4547
2635.848	4410
2637.766	4434
2639.684	4414
2641.603	4408
2643.519	4432
2645.437	4416
2647.353	4466
2649.27	4496
2651.184	4454
2653.099	4505
2655.014	4382
2656.928	4448
2658.842	4432
2660.755	4450
2662.667	4425
2664.579	4430
2666.491	4500
2668.402	4398
2670.312	4419
2672.222	4428
2674.132	4428
2676.042	4424
2677.951	4493
2679.859	4359
2681.766	4390
2683.674	4436
2685.582	4410
2687.488	4459
2689.392	4313
2691.298	4442
2693.202	4379
2695.107	4387
2697.012	4389
2698.914	4391
2700.817	4358
2702.72	4423
2704.622	4438
2706.524	4370
2708.425	4367
2710.326	4382
2712.225	4329
2714.125	4331
2716.024	4363
2717.923	4354
2719.822	4477
2721.719	4281
2723.616	4278
2725.512	4387
2727.41	4357
2729.305	4362
2731.201	4385
2733.095	4331
2734.99	4433
2736.884	4323
2738.778	4374
2740.67	4417
2742.562	4356
2744.455	4350
2746.346	4389
2748.238	4419
2750.129	4422
2752.018	4323
2753.907	4362
2755.797	4354
2757.687	4324
2759.575	4270
2761.462	4363
2763.349	4285
2765.237	4327
2767.124	4421
2769.009	4369
2770.894	4296
2772.779	4316
2774.663	4311
2776.547	4304
2778.431	4351
2780.314	4327
2782.197	4367
2784.078	4292
2785.96	4277
2787.842	4381
2789.723	4406
2791.603	4321
2793.483	4355
2795.362	4308
2797.241	4293
2799.121	4330
2800.997	4333
2802.874	4415
2804.751	4367
2806.628	4296
2808.506	4374
2810.38	4393
2812.255	4309
2814.13	4287
2816.003	4214
2817.878	4272
2819.752	4369
2821.623	4326
2823.496	4310
2825.368	4293
2827.238	4251
2829.111	4333
2830.98	4239
2832.851	4356
2834.719	4237
2836.589	4369
2838.458	4322
2840.327	4299
2842.193	4294
2844.061	4284
2845.927	4349
2847.794	4369
2849.66	4449
2851.525	4319
2853.39	4333
2855.254	4367
2857.117	4393
2858.983	4401
2860.845	4427
2862.707	4415
2864.569	4446
2866.431	4429
2868.293	4423
2870.154	4508
2872.013	4553
2873.873	4513
2875.733	4688
2877.592	4710
2879.451	4746
2881.309	4672
2883.166	4775
2885.022	4814
2886.879	4746
2888.736	4864
2890.591	4795
2892.446	4786
2894.301	4770
2896.155	4793
2898.009	4793
2899.863	4758
2901.716	4706
2903.568	4710
2905.419	4836
2907.27	4784
2909.123	4804
2910.973	4808
2912.824	4809
2914.673	4791
2916.521	4869
2918.372	4891
2920.22	5036
2922.067	5040
2923.914	4992
2925.761	5163
2927.607	5142
2929.455	5144
2931.301	5142
2933.144	5196
2934.99	5281
2936.833	5326
2938.678	5353
2940.522	5477
2942.364	5569
2944.207	5424
2946.048	5485
2947.891	5469
2949.731	5540
2951.571	5496
2953.412	5466
2955.25	5484
2957.09	5391
2958.93	5289
2960.767	5346
2962.606	5098
2964.443	5061
2966.279	5196
2968.116	5070
2969.953	5057
2971.788	5018
2973.623	4940
2975.457	4937
2977.292	4922
2979.127	4900
2980.959	5009
2982.792	4818
2984.624	4898
2986.455	4877
2988.288	4748
2990.119	4825
2991.949	4802
2993.779	4763
2995.608	4771
2997.439	4658
2999.268	4655
3001.096	4613
3002.923	4579
3004.751	4549
3006.578	4412
3008.406	4511
3010.232	4408
3012.057	4392
3013.883	4347
3015.706	4270
3017.532	4328
3019.356	4332
3021.179	4202
3023.002	4217
3024.823	4190
3026.646	4227
3028.469	4147
3030.289	4201
3032.11	4167
3033.93	4241
3035.749	4185
3037.57	4113
3039.39	4227
3041.207	4223
3043.026	4144
3044.842	4173
3046.661	4124
3048.477	4215
3050.294	4032
3052.109	4193
3053.925	3985
3055.739	4083
3057.555	4200
3059.368	4088
3061.181	4166
3062.995	4109
3064.807	4080
3066.62	4145
3068.433	4123
3070.243	4117
3072.054	4044
3073.865	4070
3075.675	4114
3077.485	4162
3079.293	4090
3081.102	4093
3082.911	4076
3084.719	4060
3086.527	4133
3088.333	4059
3090.139	4096
3091.945	4002
3093.75	4060
3095.557	4018
3097.361	4044
3099.165	4093
3100.969	3990
3102.772	4022
3104.575	3961
3106.379	4086
3108.181	3943
3109.982	3996
3111.783	3962
3113.584	3980
3115.386	3897
3117.186	4007
3118.985	3901
3120.783	3947
3122.582	4027
3124.381	3950
3126.179	3880
3127.975	3960
3129.772	3939
3131.569	3922
3133.365	3964
3135.161	3851
3136.956	3906
3138.751	3968
3140.544	3909
3142.338	3972
3144.132	3969
3145.925	3901
3147.717	3924
3149.509	3869
3151.301	3922
3153.091	3846
3154.884	3940
3156.673	3916
3158.462	3944
3160.252	3854
3162.041	3899
3163.831	3959
3165.618	3882
3167.405	3844
3169.193	3992
3170.979	3882
3172.767	3866
3174.553	3899
3176.338	3944
3178.123	3964
3179.907	3864
3181.692	3897
3183.477	3836
3185.259	3849
3187.042	3909
3188.824	3972
3190.607	3795
3192.389	3897
3194.17	3911
3195.951	3952
3197.73	3893
3199.51	3896
3201.289	3912
3203.07	3982
3204.848	3801
3206.626	3959
3208.403	3936
3210.18	3908
3211.959	3818
3213.735	3861
3215.511	3884
3217.285	3853
3219.06	3848
3220.836	3982
3222.611	3922
3224.384	3871
3226.158	3857
3227.929	3861
3229.702	3855
3231.476	3926
3233.248	3878
3235.018	3949
3236.789	3873
3238.56	3859
3240.33	3789
3242.1	3920
3243.869	3853
3245.637	3907
3247.405	3911
3249.172	3867
3250.941	3907
3252.707	3888
3254.474	3895
3256.24	3884
3258.006	3873
3259.772	3851
3261.537	3815
3263.301	3954
3265.065	3858
3266.828	3994
3268.592	3896
3270.355	3893
3272.117	3940
3273.878	3907
3275.64	3822
3277.401	3917
3279.162	3858
3280.922	3860
3282.682	3853
3284.441	3912
3286.199	3931
3287.959	3899
3289.716	3910
3291.475	3960
3293.232	3905
3294.988	3890
3296.744	3903
3298.501	3910
3300.256	3937
3302.011	3850
3303.766	3944
3305.52	3913
3307.275	3858
3309.028	3925
3310.781	3999
3312.533	4017
3314.285	3823
3316.038	3820
3317.789	3865
3319.54	3877
3321.289	3941
3323.039	3914
3324.789	3889
3326.539	3882
3328.288	3928
3330.035	3977
3331.783	3788
3333.531	3928
3335.28	3936
3337.025	3845
3338.771	3879
3340.518	3901
3342.262	3806
3344.009	3915
3345.753	3859
3347.497	3833
3349.24	3835
3350.983	3848
3352.726	3810
3354.469	3851
3356.212	3858
3357.952	3785
3359.694	3919
3361.434	3907
3363.176	3800
3364.916	3854
3366.654	3888
3368.394	3766
3370.132	3786
3371.871	3794
3373.61	3741
3375.346	3855
3377.083	3809
3378.82	3806
3380.556	3791
3382.292	3739
3384.027	3778
3385.763	3792
3387.497	3791
3389.231	3809
3390.965	3742
3392.698	3868
3394.431	3736
3396.164	3861
3397.896	3809
3399.627	3700
3401.36	3731
3403.09	3747
3404.82	3727
3406.55	3787
3408.279	3679
3410.01	3805
3411.738	3730
3413.467	3792
3415.194	3667
3416.92	3729
3418.647	3801
3420.375	3629
3422.102	3766
3423.827	3785
3425.553	3717
3427.277	3714
3429.003	3681
3430.727	3740
3432.451	3691
3434.173	3669
3435.896	3701
3437.62	3680
3439.343	3698
3441.063	3732
3442.785	3644
3444.505	3632
3446.226	3689
3447.948	3696
3449.666	3649
3451.386	3682
3453.104	3694
3454.823	3662
3456.541	3696
3458.259	3604
3459.976	3607
3461.693	3640
3463.408	3603
3465.125	3563
3466.841	3621
3468.556	3692
3470.271	3593
3471.985	3564
3473.698	3595
3475.414	3662
3477.126	3535
3478.838	3635
3480.55	3604
3482.263	3538
3483.975	3562
3485.686	3637
3487.396	3614
3489.106	3529
3490.817	3636
3492.526	3536
3494.236	3490
3495.944	3501
3497.652	3513
3499.359	3490
3501.066	3553
3502.775	3502
3504.481	3513
3506.187	3420
3507.893	3515
3509.598	3471
3511.304	3485
3513.009	3522
3514.713	3449
3516.417	3441
3518.12	3534
3519.821	3469
3521.525	3467
3523.228	3467
3524.929	3440
3526.631	3380
3528.33	3408
3530.032	3437
3531.733	3460
3533.433	3437
3535.131	3443
3536.83	3481
3538.529	3387
3540.227	3383
3541.925	3387
3543.623	3377
3545.319	3464
3547.016	3377
3548.712	3407
3550.408	3414
3552.103	3402
3553.798	3493
3555.491	3520
3557.188	3380
3558.88	3341
3560.574	3273
3562.266	3315
3563.959	3442
3565.651	3363
3567.343	3352
3569.035	3400
3570.725	3305
3572.415	3371
3574.106	3376
3575.797	3387
3577.485	3400
3579.174	3317
3580.863	3339
3582.551	3344
3584.238	3297
3585.926	3366
3587.613	3310
3589.3	3366
3590.986	3321
3592.671	3318
3594.357	3328
3596.042	3347
3597.726	3324
3599.41	3338
3601.094	3281
3602.778	3298
3604.461	3216
3606.143	3281
3607.825	3196
3609.507	3235
3611.188	3232
3612.87	3277
3614.551	3182
3616.229	3326
3617.909	3203
3619.589	3160
3621.269	3229
3622.948	3217
3624.625	3196
3626.302	3188
3627.98	3203
3629.657	3252
3631.334	3241
3633.01	3149
3634.686	3266
3636.361	3157
3638.036	3184
3639.712	3143
3641.385	3131
3643.06	3085
3644.732	3144
3646.405	3227
3648.08	3211
3649.751	3120
3651.424	3216
3653.094	3112
3654.766	3144
3656.436	3132
3658.106	3162
3659.777	3134
3661.446	3219
3663.115	3138
3664.783	3146
3666.452	3140
3668.121	3099
3669.788	3104
3671.454	3152
3673.121	3172
3674.789	3093
3676.455	3162
3678.12	3144
3679.784	3102
3681.45	3114
3683.114	3102
3684.779	3151
3686.442	3210
3688.105	3089
3689.768	2992
3691.43	3076
3693.093	3128
3694.754	3066
3696.415	3098
3698.076	3118
3699.736	3092
3701.396	3084
3703.057	3093
3704.716	3056
3706.375	3048
3708.034	2958
3709.692	3029
3711.351	3041
3713.008	3090
3714.665	3044
3716.321	3056
3717.977	3009
3719.634	3029
3721.29	3084
3722.945	3014
3724.598	3028
3726.253	3130
3727.907	2997
3729.561	3100
3731.214	2981
3732.867	3077
3734.518	3055
3736.171	2954
3737.824	2954
3739.474	2935
3741.125	3029
3742.775	2940
3744.425	2988
3746.074	3020
3747.725	2995
3749.373	3081
3751.022	2929
3752.669	2998
3754.318	2986
3755.966	3010
3757.612	3031
3759.259	3004
3760.905	2986
3762.55	3014
3764.197	2992
3765.842	2955
3767.486	2974
3769.131	3020
3770.774	2982
3772.417	2939
3774.061	2957
3775.705	2964
3777.347	2991
3778.988	3042
3780.629	2969
3782.271	2960
3783.912	2971
3785.552	2916
3787.192	2941
3788.831	2993
3790.472	2847
3792.112	3004
3793.75	2931
3795.388	2902
3797.024	2936
3798.661	2925
3800.3	2824
3801.936	2957
3803.572	2993
3805.208	2962
3806.844	2936
3808.48	2859
3810.115	2855
3811.748	2916
3813.382	2942
3815.016	2908
3816.649	2850
3818.283	2996
3819.914	2913
3821.547	2942
3823.178	2956
3824.809	2944
3826.441	2938
3828.072	2852
3829.701	2909
3831.331	2898
3832.96	2870
3834.591	2856
3836.219	2903
3837.847	2920
3839.475	2798
3841.102	2854
3842.729	2901
3844.357	2922
3845.984	2833
3847.609	2847
3849.234	2901
3850.86	2861
3852.485	2904
3854.11	2904
3855.734	2889
3857.357	2844
3858.981	2866
3860.603	2862
3862.227	2847
3863.848	2838
3865.471	2861
3867.092	2910
3868.713	2852
3870.334	2823
3871.954	2807
3873.575	2847
3875.194	2757
3876.813	2935
3878.433	2811
3880.051	2813
3881.669	2921
3883.286	2850
3884.904	2846
3886.52	2910
3888.138	2934
3889.754	2866
3891.37	2769
3892.985	2820
3894.6	2838
3896.216	2849
3897.831	2712
3899.444	2831
3901.058	2848
3902.67	2852
3904.283	2809
3905.897	2824
3907.509	2805
3909.121	2750
3910.731	2834
3912.342	2823
3913.954	2857
3915.563	2774
3917.174	2807
3918.783	2829
3920.391	2816
3922.002	2838
3923.611	2751
3925.218	2830
3926.826	2743
3928.432	2795
3930.039	2848
3931.647	2880
3933.253	2788
3934.859	2827
3936.464	2832
3938.068	2833
3939.675	2762
3941.278	2730
3942.883	2794
3944.486	2803
3946.089	2702
3947.692	2742
3949.295	2788
3950.898	2782
3952.499	2747
3954.1	2838
3955.7	2773
3957.303	2746
3958.903	2787
3960.502	2751
3962.101	2823
3963.7	2784
3965.301	2768
3966.899	2804
3968.497	2747
3970.094	2792
3971.691	2724
3973.288	2741
3974.885	2699
3976.481	2707
3978.077	2677
3979.672	2722
3981.267	2745
3982.863	2790
3984.457	2712
3986.051	2694
3987.645	2738
3989.238	2678
3990.831	2743
3992.425	2793
3994.017	2709
3995.607	2650
3997.199	2658
3998.79	2700
4000.382	2720
4001.973	2695
4003.561	2682
4005.151	2640
4006.741	2668
4008.331	2656
4009.918	2623
4011.507	2684
4013.095	2664
4014.681	2613
4016.269	2675
4017.856	2650
4019.443	2681
4021.028	2587
4022.614	2619
4024.199	2723
4025.785	2611
4027.37	2648
4028.953	2679
4030.536	2617
4032.12	2588
4033.704	2686
4035.287	2634
4036.869	2692
4038.45	2569
4040.032	2587
4041.613	2609
4043.195	2696
4044.776	2630
4046.356	2613
4047.935	2612
4049.515	2597
4051.095	2575
4052.674	2639
4054.251	2571
4055.829	2608
4057.406	2560
4058.985	2623
4060.562	2640
4062.139	2626
4063.715	2620
4065.29	2620
4066.865	2624
4068.442	2581
4070.016	2542
4071.59	2617
4073.164	2614
4074.738	2569
4076.312	2544
4077.885	2576
4079.458	2571
4081.03	2593
4082.602	2555
4084.173	2556
4085.745	2599
4087.315	2541
4088.886	2570
4090.456	2577
4092.026	2568
4093.596	2600
4095.165	2561
4096.734	2561
4098.301	2541
4099.869	2556
4101.437	2581
4103.006	2544
4104.572	2495
4106.139	2538
4107.704	2611
4109.27	2477
4110.837	2505
4112.401	2537
4113.966	2517
4115.53	2499
4117.094	2535
4118.659	2590
4120.223	2525
4121.785	2563
4123.347	2547
4124.909	2535
4126.471	2510
4128.034	2444
4129.595	2471
4131.155	2511
4132.716	2537
4134.275	2437
4135.836	2453
4137.395	2452
4138.955	2557
4140.513	2519
4142.071	2484
4143.628	2529
4145.188	2449
4146.745	2461
4148.302	2458
4149.858	2439
4151.414	2487
4152.971	2448
4154.526	2490
4156.081	2513
4157.635	2525
4159.189	2428
4160.745	2412
4162.298	2479
4163.852	2439
4165.405	2477
4166.957	2464
4168.51	2455
4170.063	2450
4171.614	2519
4173.166	2451
4174.717	2338
4176.267	2410
4177.817	2418
4179.368	2384
4180.917	2419
4182.466	2421
4184.016	2528
4185.564	2399
4187.112	2401
4188.66	2430
4190.207	2412
4191.754	2388
4193.301	2503
4194.848	2377
4196.394	2409
4197.94	2435
4199.484	2366
4201.03	2395
4202.575	2381
4204.12	2397
4205.663	2363
4207.207	2376
4208.75	2459
4210.292	2444
4211.836	2367
4213.378	2464
4214.92	2364
4216.46	2378
4218.002	2379
4219.544	2456
4221.083	2386
4222.625	2379
4224.164	2341
4225.703	2384
4227.244	2426
4228.782	2331
4230.32	2372
4231.857	2417
4233.395	2368
4234.933	2359
4236.471	2350
4238.007	2368
4239.542	2407
4241.078	2404
4242.614	2428
4244.15	2389
4245.685	2410
4247.219	2375
4248.753	2383
4250.287	2384
4251.82	2343
4253.354	2409
4254.887	2372
4256.419	2356
4257.951	2392
4259.483	2405
4261.016	2411
4262.547	2367
4264.078	2379
4265.608	2328
4267.137	2368
4268.668	2397
4270.197	2410
4271.727	2293
4273.254	2378
4274.783	2295
4276.311	2344
4277.84	2352
4279.366	2388
4280.894	2333
4282.42	2383
4283.946	2345
4285.473	2325
4286.998	2341
4288.523	2328
4290.047	2314
4291.572	2360
4293.096	2358
4294.622	2262
4296.144	2382
4297.668	2321
4299.19	2420
4300.713	2340
4302.236	2301
4303.758	2329
4305.279	2338
4306.799	2239
4308.321	2266
4309.842	2360
4311.361	2326
4312.882	2287
4314.401	2340
