400.0961	3238
402.6185	3253
405.1424	3290
407.6635	3225
410.1838	3316
412.7035	3340
415.2225	3286
417.7388	3362
420.2585	3342
422.7754	3504
425.2917	3510
427.8072	3510
430.3221	3552
432.8363	3416
435.3498	3589
437.8626	3493
440.3727	3459
442.8841	3499
445.3969	3548
447.907	3522
450.4142	3565
452.9229	3559
455.4289	3456
457.9362	3421
460.4449	3468
462.9488	3418
465.454	3488
467.9566	3381
470.4604	3396
472.9637	3447
475.4662	3512
477.966	3370
480.4671	3391
482.9656	3444
485.4633	3458
487.9645	3418
490.4608	3405
492.9566	3481
495.4536	3459
497.948	3387
500.4437	3463
502.9387	3547
505.431	3520
507.9226	3406
510.4136	3494
512.9079	3493
515.3975	3462
517.8864	3507
520.3746	3498
522.8622	3551
525.3491	3510
527.8394	3601
530.3249	3504
532.8098	3488
535.2939	3472
537.7774	3559
540.2623	3594
542.7444	3471
545.2259	3583
547.7067	3555
550.1868	3656
552.6683	3490
555.147	3463
557.6231	3631
560.1005	3613
562.5773	3623
565.0534	3585
567.5308	3621
570.0056	3731
572.4776	3667
574.951	3598
577.4237	3680
579.8978	3718
582.3671	3743
584.8378	3744
587.3079	3702
589.7773	3694
592.244	3720
594.714	3773
597.1793	3777
599.6461	3712
602.1121	3676
604.5754	3733
607.0421	3643
609.5042	3604
611.9675	3681
614.4282	3681
616.8902	3705
619.3515	3680
621.8122	3589
624.2702	3734
626.7296	3555
629.1863	3555
631.6423	3620
634.1017	3612
636.5563	3548
639.0104	3578
641.4658	3664
643.9185	3603
646.3725	3553
648.8239	3589
651.2766	3658
653.7266	3638
656.176	3620
658.6247	3639
661.0748	3660
663.5242	3652
665.9709	3714
668.417	3757
670.8624	3631
673.3092	3734
675.7533	3717
678.1968	3591
680.6395	3715
683.0817	3706
685.5251	3773
687.9659	3789
690.4061	3814
692.8456	3780
695.2844	3761
697.7226	3734
700.1621	3796
702.599	3755
705.0332	3766
707.4688	3903
709.9036	3851
712.3399	3809
714.7735	3751
717.2044	3826
719.6367	3834
722.0683	3823
724.4993	3889
726.9296	3882
729.3593	3807
731.7883	3912
734.2147	3916
736.6423	3877
739.0714	3868
741.4958	3955
743.9216	3890
746.3447	3882
748.7691	3912
751.1929	4038
753.616	3961
756.0366	4004
758.4584	4023
760.8776	3977
763.2982	4076
765.718	3945
768.1373	4011
770.5539	4043
772.9698	3946
775.3871	3990
777.8038	4008
780.2178	4003
782.6332	4083
785.0459	4027
787.458	4082
789.8714	4004
792.2842	4044
794.6943	4046
797.1038	4120
799.5127	4050
801.9209	3987
804.3324	4014
806.7393	4086
809.1456	4093
811.5513	4128
813.9562	4013
816.3625	4075
818.7663	4078
821.1693	4096
823.5718	4037
825.9735	4142
828.3746	4075
830.7771	4099
833.177	4076
835.5762	4095
837.9747	4088
840.3727	4192
842.772	4137
845.1666	4136
847.5626	4224
849.958	4195
852.3527	4178
854.7488	4214
857.1403	4201
859.5331	4201
861.9253	4280
864.3168	4235
866.7057	4121
869.098	4104
871.4876	4107
873.8746	4161
876.263	4233
878.6487	4186
881.0378	4073
883.4243	4232
885.8081	4166
888.1933	4209
890.5759	4115
892.9598	4162
895.343	4153
897.7256	4175
900.1057	4224
902.4871	4251
904.8659	4229
907.246	4187
909.6254	4254
912.0023	4270
914.3786	4363
916.7562	4409
919.1331	4413
921.5074	4493
923.8831	4603
926.2562	4557
928.6287	4552
931.0005	4500
933.3757	4569
935.7462	4531
938.1162	4540
940.4855	4632
942.8542	4706
945.2242	4723
947.5916	4949
949.9584	4997
952.3266	5198
954.6921	5484
957.0571	5651
959.4233	5993
961.787	6006
964.15	5944
966.5125	5721
968.8742	5388
971.2354	5036
973.5959	4919
975.9559	4715
978.3151	4513
980.6738	4463
983.0338	4393
985.3912	4416
987.7461	4434
990.1022	4348
992.4578	4404
994.8127	4353
997.1689	4363
999.5207	4399
1001.874	4480
1004.226	4487
1006.576	4419
1008.929	4356
1011.28	4351
1013.628	4311
1015.977	4391
1018.324	4373
1020.674	4361
1023.019	4473
1025.366	4452
1027.713	4378
1030.056	4416
1032.399	4525
1034.746	4464
1037.087	4449
1039.431	4533
1041.771	4408
1044.113	4499
1046.454	4482
1048.793	4530
1051.133	4400
1053.471	4498
1055.807	4506
1058.146	4477
1060.483	4542
1062.818	4633
1065.153	4551
1067.489	4642
1069.822	4605
1072.156	4613
1074.488	4672
1076.82	4600
1079.15	4535
1081.48	4514
1083.814	4605
1086.143	4504
1088.471	4412
1090.799	4454
1093.126	4552
1095.452	4470
1097.78	4496
1100.105	4502
1102.43	4588
1104.754	4507
1107.077	4472
1109.4	4544
1111.722	4385
1114.044	4452
1116.365	4491
1118.685	4463
1121.005	4449
1123.324	4454
1125.643	4478
1127.961	4498
1130.278	4473
1132.595	4556
1134.911	4492
1137.226	4440
1139.541	4428
1141.854	4443
1144.167	4434
1146.482	4450
1148.793	4408
1151.105	4486
1153.414	4506
1155.725	4519
1158.033	4520
1160.344	4553
1162.651	4434
1164.959	4499
1167.265	4558
1169.572	4478
1171.878	4507
1174.184	4485
1176.488	4458
1178.79	4388
1181.094	4536
1183.396	4544
1185.699	4443
1188.001	4557
1190.301	4453
1192.6	4477
1194.9	4479
1197.2	4458
1199.497	4495
1201.794	4455
1204.09	4433
1206.387	4466
1208.684	4469
1210.978	4486
1213.272	4462
1215.565	4617
1217.858	4473
1220.15	4506
1222.443	4548
1224.734	4554
1227.024	4537
1229.313	4564
1231.602	4677
1233.892	4607
1236.18	4705
1238.467	4668
1240.754	4765
1243.04	4739
1245.325	4683
1247.612	4703
1249.896	4758
1252.178	4811
1254.461	4763
1256.743	4794
1259.027	4713
1261.308	4674
1263.587	4799
1265.867	4687
1268.146	4889
1270.425	4778
1272.703	4770
1274.981	4759
1277.256	4719
1279.532	4776
1281.808	4639
1284.083	4710
1286.358	4736
1288.63	4713
1290.904	4684
1293.175	4678
1295.449	4687
1297.719	4646
1299.99	4625
1302.259	4625
1304.529	4604
1306.798	4603
1309.065	4610
1311.333	4699
1313.599	4666
1315.866	4613
1318.131	4541
1320.396	4556
1322.66	4600
1324.925	4689
1327.187	4530
1329.448	4632
1331.711	4730
1333.974	4647
1336.234	4686
1338.493	4762
1340.752	4647
1343.01	4639
1345.269	4655
1347.526	4661
1349.784	4668
1352.04	4712
1354.295	4684
1356.552	4680
1358.806	4682
1361.059	4583
1363.312	4725
1365.564	4700
1367.818	4648
1370.069	4702
1372.318	4723
1374.568	4672
1376.817	4801
1379.066	4725
1381.316	4677
1383.564	4730
1385.809	4710
1388.056	4762
1390.301	4784
1392.549	4843
1394.793	4836
1397.036	4868
1399.279	4908
1401.522	4976
1403.763	4899
1406.007	4830
1408.248	4777
1410.487	4938
1412.727	4837
1414.965	4877
1417.205	4902
1419.442	4948
1421.68	4799
1423.915	4818
1426.152	4806
1428.388	4778
1430.623	4931
1432.857	4852
1435.091	4816
1437.323	4908
1439.556	4974
1441.789	4930
1444.019	4956
1446.25	4988
1448.48	4919
1450.708	4970
1452.938	4983
1455.167	5088
1457.394	5082
1459.62	4957
1461.846	5003
1464.073	4867
1466.299	4910
1468.523	4954
1470.746	4869
1472.969	4848
1475.191	4896
1477.415	4853
1479.636	4795
1481.858	4796
1484.078	4702
1486.298	4722
1488.518	4641
1490.736	4682
1492.954	4702
1495.169	4666
1497.386	4665
1499.602	4648
1501.819	4620
1504.034	4607
1506.248	4697
1508.462	4664
1510.675	4674
1512.888	4613
1515.1	4639
1517.311	4557
1519.522	4648
1521.732	4726
1523.942	4701
1526.151	4638
1528.36	4653
1530.566	4591
1532.773	4625
1534.98	4620
1537.187	4688
1539.392	4671
1541.596	4726
1543.801	4669
1546.005	4673
1548.208	4767
1550.411	4846
1552.612	4657
1554.814	4806
1557.013	4728
1559.212	4724
1561.414	4723
1563.612	4822
1565.811	4825
1568.007	4785
1570.203	4847
1572.403	4777
1574.598	4824
1576.792	4850
1578.988	4815
1581.181	4649
1583.376	4868
1585.568	4784
1587.761	4802
1589.952	4812
1592.143	4773
1594.333	4840
1596.524	4688
1598.715	4822
1600.903	4855
1603.091	4887
1605.278	4771
1607.466	4845
1609.652	4909
1611.838	4873
1614.023	4839
1616.207	4878
1618.391	4923
1620.576	4816
1622.759	4900
1624.941	4827
1627.123	4927
1629.304	5005
1631.484	4938
1633.664	4830
1635.844	4972
1638.022	4906
1640.201	4914
1642.38	4991
1644.556	4946
1646.732	4964
1648.908	4932
1651.084	4921
1653.257	4988
1655.433	4985
1657.607	4959
1659.779	4993
1661.951	5002
1664.122	4999
1666.295	4972
1668.467	5025
1670.635	4981
1672.805	5015
1674.973	4970
1677.142	5063
1679.31	4993
1681.478	4919
1683.644	4989
1685.81	5050
1687.975	4998
1690.142	4939
1692.305	4956
1694.468	4893
1696.632	4833
1698.794	4915
1700.957	4793
1703.119	4810
1705.279	4796
1707.439	4826
1709.598	4926
1711.758	4837
1713.917	4814
1716.075	4806
1718.231	4827
1720.388	4814
1722.543	4665
1724.702	4840
1726.856	4761
1729.01	4716
1731.164	4818
1733.317	4735
1735.471	4850
1737.623	4796
1739.774	4807
1741.925	4871
1744.075	4818
1746.225	4842
1748.376	4829
1750.524	4833
1752.672	4858
1754.82	4828
1756.965	4816
1759.113	4845
1761.259	4819
1763.405	4836
1765.549	4849
1767.694	4766
1769.836	4832
1771.981	4788
1774.123	4922
1776.264	4880
1778.405	4920
1780.546	4846
1782.687	4861
1784.827	4943
1786.966	4867
1789.103	4788
1791.242	4832
1793.381	4919
1795.517	4947
1797.653	4902
1799.788	4854
1801.923	4877
1804.057	4838
1806.193	4869
1808.326	4997
1810.457	4829
1812.59	4862
1814.721	4829
1816.855	4868
1818.984	4820
1821.113	4839
1823.244	4832
1825.372	4834
1827.499	4860
1829.63	4880
1831.756	4860
1833.882	4897
1836.007	4959
1838.132	4853
1840.26	4805
1842.384	4844
1844.507	4790
1846.63	4901
1848.752	4873
1850.875	4741
1852.996	4939
1855.118	4762
1857.238	4931
1859.358	4871
1861.477	4804
1863.597	4835
1865.715	4875
1867.832	4813
1869.948	4806
1872.064	4776
1874.181	4756
1876.297	4815
1878.411	4788
1880.526	4823
1882.639	4886
1884.752	4760
1886.865	4895
1888.977	4861
1891.089	4862
1893.2	4878
1895.308	4784
1897.42	4883
1899.53	4819
1901.639	4895
1903.745	4752
1905.853	4942
1907.962	4872
1910.067	4943
1912.174	4879
1914.278	4974
1916.383	4815
1918.486	4945
1920.592	4993
1922.694	4925
1924.797	4890
1926.898	4847
1929	4929
1931.102	4966
1933.203	4892
1935.301	5028
1937.401	4905
1939.499	4964
1941.598	4872
1943.697	4957
1945.793	4951
1947.888	4906
1949.985	4947
1952.08	4898
1954.176	4919
1956.269	4969
1958.364	4979
1960.457	5068
1962.549	4876
1964.642	4951
1966.733	4988
1968.823	4925
1970.913	4918
1973.005	4887
1975.093	4877
1977.184	4831
1979.271	4925
1981.359	4919
1983.446	4868
1985.532	4898
1987.619	4811
1989.705	4915
1991.789	4863
1993.874	4834
1995.956	4880
1998.041	4861
2000.123	4878
2002.206	4843
2004.287	4884
2006.368	4890
2008.449	4829
2010.529	4939
2012.609	4837
2014.688	4827
2016.766	4876
2018.843	4818
2020.922	4833
2022.999	4923
2025.074	4944
2027.15	4837
2029.225	4906
2031.299	4796
2033.375	4959
2035.447	4818
2037.52	4857
2039.592	4880
2041.664	4792
2043.736	4886
2045.807	4803
2047.876	4788
2049.947	4838
2052.015	4896
2054.086	4891
2056.153	4812
2058.221	4854
2060.288	4823
2062.353	4870
2064.42	4807
2066.486	4974
2068.55	4930
2070.614	4848
2072.678	4865
2074.741	4892
2076.805	4903
2078.866	4903
2080.929	4938
2082.99	4913
2085.049	4795
2087.109	4887
2089.17	4855
2091.228	4847
2093.286	4932
2095.344	4763
2097.4	4869
2099.46	4934
2101.516	4823
2103.572	4940
2105.626	4958
2107.679	4892
2109.735	4992
2111.788	4948
2113.841	4894
2115.894	4917
2117.945	4912
2119.997	4881
2122.049	4881
2124.1	4894
2126.148	4836
2128.197	4956
2130.246	4838
2132.296	4941
2134.342	4923
2136.39	4896
2138.437	4941
2140.483	4908
2142.527	4903
2144.574	4896
2146.619	4949
2148.661	4854
2150.705	4870
2152.747	4917
2154.792	4820
2156.832	4881
2158.874	4992
2160.915	4876
2162.954	4930
2164.995	4934
2167.034	4880
2169.072	4821
2171.111	4854
2173.148	4857
2175.186	4835
2177.223	4856
2179.258	4848
2181.294	4847
2183.328	4841
2185.362	4857
2187.398	4838
2189.431	4736
2191.463	4827
2193.495	4755
2195.528	4811
2197.56	4898
2199.59	4789
2201.62	4784
2203.649	4801
2205.678	4786
2207.708	4822
2209.737	4825
2211.764	4810
2213.791	4720
2215.817	4779
2217.843	4750
2219.87	4829
2221.895	4789
2223.919	4796
2225.942	4847
2227.966	4800
2229.988	4720
2232.012	4710
2234.032	4770
2236.054	4726
2238.074	4778
2240.095	4732
2242.116	4880
2244.135	4815
2246.153	4780
2248.171	4800
2250.188	4903
2252.208	4746
2254.223	4840
2256.239	4775
2258.255	4786
2260.269	4710
2262.283	4836
2264.3	4795
2266.312	4792
2268.325	4845
2270.336	4725
2272.349	4753
2274.362	4841
2276.372	4753
2278.383	4764
2280.392	4822
2282.402	4805
2284.409	4813
2286.418	4792
2288.427	4819
2290.433	4793
2292.441	4784
2294.446	4751
2296.453	4761
2298.459	4720
2300.463	4822
2302.466	4828
2304.471	4820
2306.475	4772
2308.477	4719
2310.478	4756
2312.481	4747
2314.481	4766
2316.481	4814
2318.482	4775
2320.482	4799
2322.48	4780
2324.48	4800
2326.478	4794
2328.476	4751
2330.473	4709
2332.469	4725
2334.465	4828
2336.46	4700
2338.454	4697
2340.45	4755
2342.444	4696
2344.437	4683
2346.43	4682
2348.421	4679
2350.414	4730
2352.405	4758
2354.396	4620
2356.386	4702
2358.376	4760
2360.366	4649
2362.355	4662
2364.343	4664
2366.331	4704
2368.317	4795
2370.304	4704
2372.292	4701
2374.278	4694
2376.262	4644
2378.247	4709
2380.23	4655
2382.216	4661
2384.199	4626
2386.181	4636
2388.163	4735
2390.144	4593
2392.127	4717
2394.107	4674
2396.087	4658
2398.066	4674
2400.046	4615
2402.023	4551
2404.004	4651
2405.981	4650
2407.957	4717
2409.934	4619
2411.91	4646
2413.886	4619
2415.862	4651
2417.836	4679
2419.809	4668
2421.784	4580
2423.756	4725
2425.73	4551
2427.701	4639
2429.672	4638
2431.644	4622
2433.615	4678
2435.586	4645
2437.555	4566
2439.523	4654
2441.491	4625
2443.459	4770
2445.428	4781
2447.395	4546
2449.361	4679
2451.327	4534
2453.292	4592
2455.257	4524
2457.223	4591
2459.187	4597
2461.15	4647
2463.113	4618
2465.076	4592
2467.039	4571
2468.999	4600
2470.96	4630
2472.921	4630
2474.881	4617
2476.841	4663
2478.8	4573
2480.759	4590
2482.717	4589
2484.675	4605
2486.63	4584
2488.589	4597
2490.545	4498
2492.5	4646
2494.455	4531
2496.408	4548
2498.364	4558
2500.318	4673
2502.27	4600
2504.223	4500
2506.174	4617
2508.126	4567
2510.078	4565
2512.03	4614
2513.979	4571
2515.927	4578
2517.877	4681
2519.826	4520
2521.775	4584
2523.722	4559
2525.668	4532
2527.616	4579
2529.561	4591
2531.508	4500
2533.452	4604
2535.398	4616
2537.342	4606
2539.284	4515
2541.229	4563
2543.173	4487
2545.114	4586
2547.055	4626
2548.996	4529
2550.938	4493
2552.878	4539
2554.817	4513
2556.756	4620
2558.695	4535
2560.633	4571
2562.572	4563
2564.509	4557
2566.445	4604
2568.382	4537
2570.317	4578
2572.254	4559
2574.189	4533
2576.123	4515
2578.057	4559
2579.99	4651
2581.923	4520
2583.855	4582
2585.788	4514
2587.719	4562
2589.65	4541
2591.579	4560
2593.511	4605
2595.44	4570
2597.37	4646
2599.297	4625
2601.225	4626
2603.153	4598
2605.08	4482
2607.007	4551
2608.932	4603
2610.858	4573
2612.782	4595
2614.709	4662
2616.632	4465
2618.556	4656
2620.478	4661
2622.401	4588
2624.324	4583
2626.247	4569
2628.167	4679
2630.088	4680
2632.008	4577
2633.928	4652
2635.848	4614
2637.766	4511
2639.684	4631
2641.603	4624
2643.519	4539
2645.437	4576
2647.353	4563
2649.27	4622
2651.184	4636
2653.099	4621
2655.014	4563
2656.928	4531
2658.842	4600
2660.755	4629
2662.667	4571
2664.579	4609
2666.491	4552
2668.402	4619
2670.312	4502
2672.222	4487
2674.132	4560
2676.042	4626
2677.951	4487
2679.859	4585
2681.766	4516
2683.674	4489
2685.582	4621
2687.488	4625
2689.392	4594
2691.298	4540
2693.202	4604
2695.107	4560
2697.012	4669
2698.914	4598
2700.817	4518
2702.72	4541
2704.622	4505
2706.524	4545
2708.425	4431
2710.326	4556
2712.225	4501
2714.125	4612
2716.024	4495
2717.923	4544
2719.822	4561
2721.719	4612
2723.616	4445
2725.512	4633
2727.41	4511
2729.305	4548
2731.201	4558
2733.095	4616
2734.99	4512
2736.884	4530
2738.778	4542
2740.67	4533
2742.562	4492
2744.455	4574
2746.346	4549
2748.238	4541
2750.129	4499
2752.018	4464
2753.907	4526
2755.797	4521
2757.687	4509
2759.575	4509
2761.462	4569
2763.349	4528
2765.237	4635
2767.124	4553
2769.009	4518
2770.894	4452
2772.779	4464
2774.663	4509
2776.547	4527
2778.431	4431
2780.314	4552
2782.197	4456
2784.078	4603
2785.96	4578
2787.842	4436
2789.723	4536
2791.603	4524
2793.483	4434
2795.362	4493
2797.241	4445
2799.121	4519
2800.997	4497
2802.874	4430
2804.751	4402
2806.628	4502
2808.506	4483
2810.38	4503
2812.255	4458
2814.13	4468
2816.003	4452
2817.878	4560
2819.752	4446
2821.623	4544
2823.496	4487
2825.368	4463
2827.238	4510
2829.111	4581
2830.98	4399
2832.851	4515
2834.719	4565
2836.589	4503
2838.458	4452
2840.327	4483
2842.193	4565
2844.061	4546
2845.927	4599
2847.794	4503
2849.66	4552
2851.525	4626
2853.39	4527
2855.254	4617
2857.117	4683
2858.983	4723
2860.845	4639
2862.707	4641
2864.569	4680
2866.431	4693
2868.293	4668
2870.154	4805
2872.013	4843
2873.873	4874
2875.733	4900
2877.592	4928
2879.451	5037
2881.309	5074
2883.166	4994
2885.022	5061
2886.879	5137
2888.736	5133
2890.591	5274
2892.446	5269
2894.301	5134
2896.155	5174
2898.009	5114
2899.863	5140
2901.716	5090
2903.568	5048
2905.419	5123
2907.27	5071
2909.123	5180
2910.973	5126
2912.824	5200
2914.673	5222
2916.521	5234
2918.372	5380
2920.22	5367
2922.067	5327
2923.914	5207
2925.761	5443
2927.607	5514
2929.455	5566
2931.301	5570
2933.144	5666
2934.99	5638
2936.833	5797
2938.678	5763
2940.522	5891
2942.364	5941
2944.207	5898
2946.048	6058
2947.891	6119
2949.731	6065
2951.571	6054
2953.412	6113
2955.25	5995
2957.09	5902
2958.93	5757
2960.767	5826
2962.606	5623
2964.443	5642
2966.279	5685
2968.116	5536
2969.953	5482
2971.788	5387
2973.623	5364
2975.457	5296
2977.292	5351
2979.127	5136
2980.959	5272
2982.792	5213
2984.624	5073
2986.455	5126
2988.288	5199
2990.119	5167
2991.949	5106
2993.779	5113
2995.608	4947
2997.439	4987
2999.268	4943
3001.096	4936
3002.923	4936
3004.751	4750
3006.578	4749
3008.406	4759
3010.232	4656
3012.057	4704
3013.883	4648
3015.706	4561
3017.532	4633
3019.356	4523
3021.179	4491
3023.002	4514
3024.823	4414
3026.646	4513
3028.469	4460
3030.289	4469
3032.11	4367
3033.93	4452
3035.749	4426
3037.57	4349
3039.39	4323
3041.207	4340
3043.026	4471
3044.842	4371
3046.661	4319
3048.477	4390
3050.294	4325
3052.109	4397
3053.925	4274
3055.739	4364
3057.555	4353
3059.368	4403
3061.181	4389
3062.995	4278
3064.807	4320
3066.62	4358
3068.433	4382
3070.243	4362
3072.054	4351
3073.865	4251
3075.675	4359
3077.485	4295
3079.293	4310
3081.102	4218
3082.911	4217
3084.719	4274
3086.527	4309
3088.333	4334
3090.139	4259
3091.945	4188
3093.75	4264
3095.557	4240
3097.361	4240
3099.165	4121
3100.969	4236
3102.772	4143
3104.575	4208
3106.379	4216
3108.181	4232
3109.982	4217
3111.783	4225
3113.584	4273
3115.386	4248
3117.186	4135
3118.985	4197
3120.783	4123
3122.582	4155
3124.381	4182
3126.179	4068
3127.975	4265
3129.772	4196
3131.569	4157
3133.365	4204
3135.161	4148
3136.956	4076
3138.751	4196
3140.544	4135
3142.338	4127
3144.132	4118
3145.925	4158
3147.717	4077
3149.509	4159
3151.301	4136
3153.091	4125
3154.884	4133
3156.673	4153
3158.462	4143
3160.252	4066
3162.041	4167
3163.831	4068
3165.618	4043
3167.405	4182
3169.193	4101
3170.979	4115
3172.767	4155
3174.553	4104
3176.338	4132
3178.123	4063
3179.907	4088
3181.692	4103
3183.477	4146
3185.259	4156
3187.042	4076
3188.824	4182
3190.607	4094
3192.389	4065
3194.17	4133
3195.951	4067
3197.73	4033
3199.51	4033
3201.289	4086
3203.07	4085
3204.848	4131
3206.626	4073
3208.403	4081
3210.18	3965
3211.959	4059
3213.735	4134
3215.511	4122
3217.285	4075
3219.06	4109
3220.836	4126
3222.611	4107
3224.384	4097
3226.158	4094
3227.929	4137
3229.702	4094
3231.476	4135
3233.248	4093
3235.018	4109
3236.789	4165
3238.56	4126
3240.33	4159
3242.1	3974
3243.869	4125
3245.637	4050
3247.405	4097
3249.172	4118
3250.941	4215
3252.707	4130
3254.474	4057
3256.24	4126
3258.006	4092
3259.772	4166
3261.537	4102
3263.301	4153
3265.065	4088
3266.828	4076
3268.592	4111
3270.355	4208
3272.117	4054
3273.878	4110
3275.64	4141
3277.401	4139
3279.162	4142
3280.922	4107
3282.682	4115
3284.441	4148
3286.199	4056
3287.959	4110
3289.716	4149
3291.475	3989
3293.232	4152
3294.988	4147
3296.744	4202
3298.501	4131
3300.256	4176
3302.011	4112
3303.766	4134
3305.52	4105
3307.275	4124
3309.028	4203
3310.781	4041
3312.533	4106
3314.285	4128
3316.038	4227
3317.789	4108
3319.54	4104
3321.289	4027
3323.039	4055
3324.789	4091
3326.539	4102
3328.288	4086
3330.035	4121
3331.783	4131
3333.531	4093
3335.28	4148
3337.025	4114
3338.771	4122
3340.518	4075
3342.262	4023
3344.009	4133
3345.753	4144
3347.497	4104
3349.24	4102
3350.983	4114
3352.726	4095
3354.469	4030
3356.212	4063
3357.952	4084
3359.694	4058
3361.434	4068
3363.176	4130
3364.916	4053
3366.654	4030
3368.394	3996
3370.132	4045
3371.871	3981
3373.61	3966
3375.346	4017
3377.083	3937
3378.82	4021
3380.556	4066
3382.292	3940
3384.027	4025
3385.763	3974
3387.497	3977
3389.231	3940
3390.965	4043
3392.698	3996
3394.431	3939
3396.164	3990
3397.896	3981
3399.627	3996
3401.36	3915
3403.09	3980
3404.82	3980
3406.55	3924
3408.279	3970
3410.01	3903
3411.738	3961
3413.467	4004
3415.194	4023
3416.92	3857
3418.647	3895
3420.375	3918
3422.102	3979
3423.827	3887
3425.553	3946
3427.277	3978
3429.003	3958
3430.727	3841
3432.451	3876
3434.173	3770
3435.896	3904
3437.62	3874
3439.343	3887
3441.063	3936
3442.785	3830
3444.505	3883
3446.226	3930
3447.948	3866
3449.666	3800
3451.386	3929
3453.104	3829
3454.823	3825
3456.541	3860
3458.259	3811
3459.976	3841
3461.693	3822
3463.408	3730
3465.125	3810
3466.841	3775
3468.556	3830
3470.271	3829
3471.985	3805
3473.698	3740
3475.414	3796
3477.126	3743
3478.838	3743
3480.55	3765
3482.263	3770
3483.975	3773
3485.686	3764
3487.396	3666
3489.106	3748
3490.817	3734
3492.526	3724
3494.236	3682
3495.944	3727
3497.652	3797
3499.359	3780
3501.066	3719
3502.775	3708
3504.481	3728
3506.187	3638
3507.893	3733
3509.598	3600
3511.304	3686
3513.009	3599
3514.713	3659
3516.417	3612
3518.12	3660
3519.821	3602
3521.525	3735
3523.228	3702
3524.929	3619
3526.631	3600
3528.33	3713
3530.032	3569
3531.733	3648
3533.433	3725
3535.131	3662
3536.83	3547
3538.529	3581
3540.227	3608
3541.925	3635
3543.623	3623
3545.319	3493
3547.016	3522
3548.712	3539
3550.408	3537
3552.103	3574
3553.798	3588
3555.491	3585
3557.188	3482
3558.88	3555
3560.574	3568
3562.266	3552
3563.959	3566
3565.651	3482
3567.343	3551
3569.035	3509
3570.725	3545
3572.415	3610
3574.106	3498
3575.797	3401
3577.485	3495
3579.174	3546
3580.863	3493
3582.551	3487
3584.238	3460
3585.926	3500
3587.613	3438
3589.3	3488
3590.986	3407
3592.671	3406
3594.357	3472
3596.042	3426
3597.726	3443
3599.41	3401
3601.094	3347
3602.778	3343
3604.461	3407
3606.143	3398
3607.825	3383
3609.507	3345
3611.188	3409
3612.87	3437
3614.551	3395
3616.229	3401
3617.909	3253
3619.589	3455
3621.269	3460
3622.948	3302
3624.625	3338
3626.302	3348
3627.98	3326
3629.657	3282
3631.334	3362
3633.01	3302
3634.686	3318
3636.361	3272
3638.036	3319
3639.712	3299
3641.385	3382
3643.06	3337
3644.732	3284
3646.405	3255
3648.08	3301
3649.751	3326
3651.424	3272
3653.094	3276
3654.766	3326
3656.436	3292
3658.106	3253
3659.777	3272
3661.446	3228
3663.115	3265
3664.783	3288
3666.452	3330
3668.121	3239
3669.788	3264
3671.454	3250
3673.121	3218
3674.789	3194
3676.455	3215
3678.12	3217
3679.784	3272
3681.45	3139
3683.114	3214
3684.779	3222
3686.442	3233
3688.105	3145
3689.768	3202
3691.43	3250
3693.093	3180
3694.754	3187
3696.415	3178
3698.076	3120
3699.736	3191
3701.396	3252
3703.057	3202
3704.716	3207
3706.375	3127
3708.034	3183
3709.692	3123
3711.351	3160
3713.008	3138
3714.665	3177
3716.321	3184
3717.977	3120
3719.634	3173
3721.29	3135
3722.945	3191
3724.598	3160
3726.253	3214
3727.907	3136
3729.561	3179
3731.214	3165
3732.867	3097
3734.518	3066
3736.171	3228
3737.824	3131
3739.474	3146
3741.125	3137
3742.775	3168
3744.425	3093
3746.074	3133
3747.725	3123
3749.373	3056
3751.022	3107
3752.669	3120
3754.318	3064
3755.966	3099
3757.612	3121
3759.259	3046
3760.905	3145
3762.55	3143
3764.197	3149
3765.842	3132
3767.486	3093
3769.131	3065
3770.774	3144
3772.417	3077
3774.061	3153
3775.705	3091
3777.347	3096
3778.988	3096
3780.629	3114
3782.271	3102
3783.912	3047
3785.552	2999
3787.192	3113
3788.831	3074
3790.472	3093
3792.112	3075
3793.75	3023
3795.388	3022
3797.024	3056
3798.661	3095
3800.3	2980
3801.936	3001
3803.572	3027
3805.208	3010
3806.844	3060
3808.48	3056
3810.115	3017
3811.748	2959
3813.382	2992
3815.016	2996
3816.649	2956
3818.283	3076
3819.914	2953
3821.547	3073
3823.178	3082
3824.809	3060
3826.441	2989
3828.072	2990
3829.701	3022
3831.331	2963
3832.96	3037
3834.591	3007
3836.219	2955
3837.847	2963
3839.475	2977
3841.102	3034
3842.729	3079
3844.357	2979
3845.984	2981
3847.609	2964
3849.234	3012
3850.86	2972
3852.485	2962
3854.11	2978
3855.734	2930
3857.357	2969
3858.981	3013
3860.603	2952
3862.227	2963
3863.848	2997
3865.471	2923
3867.092	2994
3868.713	2983
3870.334	2937
3871.954	2936
3873.575	2899
3875.194	2980
3876.813	2975
3878.433	2952
3880.051	2902
3881.669	2983
3883.286	2888
3884.904	2942
3886.52	2901
3888.138	2912
3889.754	2940
3891.37	2945
3892.985	2912
3894.6	2900
3896.216	2897
3897.831	2898
3899.444	2952
3901.058	2901
3902.67	2884
3904.283	2914
3905.897	2886
3907.509	2907
3909.121	2902
3910.731	2935
3912.342	2918
3913.954	2874
3915.563	2869
3917.174	2875
3918.783	2942
3920.391	2873
3922.002	2938
3923.611	2846
3925.218	2886
3926.826	2749
3928.432	2825
3930.039	2895
3931.647	2822
3933.253	2832
3934.859	2873
3936.464	2911
3938.068	2860
3939.675	2879
3941.278	2869
3942.883	2879
3944.486	2879
3946.089	2799
3947.692	2933
3949.295	2876
3950.898	2915
3952.499	2820
3954.1	2841
3955.7	2852
3957.303	2800
3958.903	2870
3960.502	2943
3962.101	2817
3963.7	2822
3965.301	2869
3966.899	2833
3968.497	2881
3970.094	2854
3971.691	2771
3973.288	2805
3974.885	2816
3976.481	2843
3978.077	2750
3979.672	2792
3981.267	2826
3982.863	2774
3984.457	2824
3986.051	2850
3987.645	2784
3989.238	2815
3990.831	2816
3992.425	2761
3994.017	2850
3995.607	2842
3997.199	2833
3998.79	2728
4000.382	2703
4001.973	2878
4003.561	2767
4005.151	2727
4006.741	2753
4008.331	2768
4009.918	2702
4011.507	2720
4013.095	2734
4014.681	2758
4016.269	2737
4017.856	2674
4019.443	2749
4021.028	2673
4022.614	2730
4024.199	2764
4025.785	2688
4027.37	2652
4028.953	2726
4030.536	2708
4032.12	2765
4033.704	2721
4035.287	2633
4036.869	2738
4038.45	2717
4040.032	2663
4041.613	2684
4043.195	2682
4044.776	2705
4046.356	2714
4047.935	2615
4049.515	2686
4051.095	2622
4052.674	2648
4054.251	2620
4055.829	2611
4057.406	2737
4058.985	2681
4060.562	2649
4062.139	2647
4063.715	2636
4065.29	2593
4066.865	2647
4068.442	2723
4070.016	2616
4071.59	2637
4073.164	2588
4074.738	2654
4076.312	2655
4077.885	2591
4079.458	2585
4081.03	2663
4082.602	2628
4084.173	2683
4085.745	2631
4087.315	2609
4088.886	2671
4090.456	2576
4092.026	2637
4093.596	2567
4095.165	2586
4096.734	2639
4098.301	2537
4099.869	2608
4101.437	2609
4103.006	2650
4104.572	2605
4106.139	2643
4107.704	2644
4109.27	2620
4110.837	2559
4112.401	2545
4113.966	2559
4115.53	2574
4117.094	2563
4118.659	2626
4120.223	2610
4121.785	2605
4123.347	2581
4124.909	2628
4126.471	2592
4128.034	2534
4129.595	2631
4131.155	2624
4132.716	2526
4134.275	2588
4135.836	2599
4137.395	2499
4138.955	2524
4140.513	2578
4142.071	2549
4143.628	2497
4145.188	2545
4146.745	2497
4148.302	2542
4149.858	2582
4151.414	2491
4152.971	2546
4154.526	2578
4156.081	2518
4157.635	2509
4159.189	2510
4160.745	2542
4162.298	2529
4163.852	2524
4165.405	2439
4166.957	2525
4168.51	2462
4170.063	2497
4171.614	2521
4173.166	2531
4174.717	2491
4176.267	2479
4177.817	2497
4179.368	2462
4180.917	2557
4182.466	2483
4184.016	2409
4185.564	2448
4187.112	2447
4188.66	2474
4190.207	2478
4191.754	2480
4193.301	2465
4194.848	2426
4196.394	2470
4197.94	2471
4199.484	2456
4201.03	2443
4202.575	2461
4204.12	2388
4205.663	2449
4207.207	2461
4208.75	2443
4210.292	2429
4211.836	2410
4213.378	2450
4214.92	2386
4216.46	2383
4218.002	2437
4219.544	2407
4221.083	2446
4222.625	2452
4224.164	2482
4225.703	2422
4227.244	2418
4228.782	2427
4230.32	2426
4231.857	2419
4233.395	2388
4234.933	2429
4236.471	2418
4238.007	2384
4239.542	2405
4241.078	2409
4242.614	2423
4244.15	2431
4245.685	2404
4247.219	2350
4248.753	2327
4250.287	2334
4251.82	2427
4253.354	2430
4254.887	2326
4256.419	2339
4257.951	2371
4259.483	2378
4261.016	2355
4262.547	2358
4264.078	2397
4265.608	2367
4267.137	2401
4268.668	2348
4270.197	2367
4271.727	2370
4273.254	2350
4274.783	2338
4276.311	2370
4277.84	2354
4279.366	2379
4280.894	2366
4282.42	2305
4283.946	2383
4285.473	2365
4286.998	2342
4288.523	2293
4290.047	2346
4291.572	2378
4293.096	2353
4294.622	2330
4296.144	2368
4297.668	2350
4299.19	2349
4300.713	2366
4302.236	2362
4303.758	2329
4305.279	2349
4306.799	2307
4308.321	2362
4309.842	2224
4311.361	2303
4312.882	2223
4314.401	2314
