400.0961	2244
402.6185	2271
405.1424	2355
407.6635	2239
410.1838	2341
412.7035	2286
415.2225	2312
417.7388	2360
420.2585	2329
422.7754	2433
425.2917	2420
427.8072	2456
430.3221	2483
432.8363	2488
435.3498	2412
437.8626	2441
440.3727	2426
442.8841	2456
445.3969	2463
447.907	2401
450.4142	2435
452.9229	2428
455.4289	2403
457.9362	2434
460.4449	2479
462.9488	2393
465.454	2411
467.9566	2399
470.4604	2500
472.9637	2452
475.4662	2425
477.966	2452
480.4671	2478
482.9656	2433
485.4633	2469
487.9645	2433
490.4608	2471
492.9566	2464
495.4536	2449
497.948	2454
500.4437	2424
502.9387	2492
505.431	2446
507.9226	2478
510.4136	2540
512.9079	2526
515.3975	2579
517.8864	2425
520.3746	2440
522.8622	2564
525.3491	2514
527.8394	2502
530.3249	2516
532.8098	2563
535.2939	2484
537.7774	2466
540.2623	2484
542.7444	2541
545.2259	2471
547.7067	2502
550.1868	2466
552.6683	2512
555.147	2514
557.6231	2503
560.1005	2535
562.5773	2563
565.0534	2485
567.5308	2509
570.0056	2594
572.4776	2528
574.951	2506
577.4237	2567
579.8978	2617
582.3671	2635
584.8378	2659
587.3079	2672
589.7773	2646
592.244	2574
594.714	2642
597.1793	2642
599.6461	2614
602.1121	2620
604.5754	2580
607.0421	2649
609.5042	2622
611.9675	2572
614.4282	2619
616.8902	2597
619.3515	2622
621.8122	2585
624.2702	2581
626.7296	2576
629.1863	2593
631.6423	2542
634.1017	2603
636.5563	2567
639.0104	2576
641.4658	2595
643.9185	2596
646.3725	2700
648.8239	2655
651.2766	2541
653.7266	2605
656.176	2614
658.6247	2595
661.0748	2699
663.5242	2640
665.9709	2668
668.417	2617
670.8624	2607
673.3092	2600
675.7533	2650
678.1968	2649
680.6395	2690
683.0817	2655
685.5251	2681
687.9659	2642
690.4061	2627
692.8456	2710
695.2844	2681
697.7226	2664
700.1621	2684
702.599	2688
705.0332	2711
707.4688	2653
709.9036	2677
712.3399	2688
714.7735	2747
717.2044	2700
719.6367	2745
722.0683	2673
724.4993	2823
726.9296	2696
729.3593	2829
731.7883	2683
734.2147	2767
736.6423	2806
739.0714	2758
741.4958	2753
743.9216	2829
746.3447	2796
748.7691	2772
751.1929	2804
753.616	2743
756.0366	2797
758.4584	2902
760.8776	2839
763.2982	2817
765.718	2830
768.1373	2853
770.5539	2808
772.9698	2860
775.3871	2887
777.8038	2854
780.2178	2919
782.6332	2857
785.0459	2818
787.458	2875
789.8714	2875
792.2842	2860
794.6943	2880
797.1038	2871
799.5127	2796
801.9209	2858
804.3324	2914
806.7393	2861
809.1456	2908
811.5513	2878
813.9562	2850
816.3625	2898
818.7663	2870
821.1693	2855
823.5718	2868
825.9735	2896
828.3746	2950
830.7771	2889
833.177	2918
835.5762	2902
837.9747	2914
840.3727	2951
842.772	2879
845.1666	2984
847.5626	2881
849.958	2951
852.3527	2989
854.7488	2926
857.1403	2991
859.5331	2913
861.9253	2979
864.3168	2908
866.7057	2880
869.098	3011
871.4876	2967
873.8746	2943
876.263	2845
878.6487	2948
881.0378	2939
883.4243	2947
885.8081	2900
888.1933	2942
890.5759	2975
892.9598	2869
895.343	2891
897.7256	3002
900.1057	2985
902.4871	2936
904.8659	2967
907.246	2938
909.6254	2934
912.0023	2958
914.3786	2937
916.7562	3067
919.1331	2973
921.5074	3032
923.8831	3012
926.2562	3070
928.6287	3051
931.0005	3113
933.3757	3138
935.7462	3019
938.1162	3049
940.4855	3171
942.8542	3073
945.2242	3224
947.5916	3168
949.9584	3255
952.3266	3372
954.6921	3540
957.0571	3592
959.4233	3657
961.787	3698
964.15	3656
966.5125	3577
968.8742	3511
971.2354	3337
973.5959	3255
975.9559	3186
978.3151	3181
980.6738	3059
983.0338	3144
985.3912	3022
987.7461	3078
990.1022	3041
992.4578	3044
994.8127	3083
997.1689	3030
999.5207	3028
1001.874	3123
1004.226	3056
1006.576	3046
1008.929	3084
1011.28	3118
1013.628	3027
1015.977	3002
1018.324	3100
1020.674	3089
1023.019	3027
1025.366	3081
1027.713	3025
1030.056	3131
1032.399	3062
1034.746	3117
1037.087	3095
1039.431	3102
1041.771	3092
1044.113	3053
1046.454	3156
1048.793	3078
1051.133	3115
1053.471	3053
1055.807	3170
1058.146	3119
1060.483	3113
1062.818	3129
1065.153	3127
1067.489	3126
1069.822	3192
1072.156	3218
1074.488	3232
1076.82	3162
1079.15	3130
1081.48	3188
1083.814	3139
1086.143	3094
1088.471	3118
1090.799	3184
1093.126	3162
1095.452	3071
1097.78	3131
1100.105	3130
1102.43	3093
1104.754	3053
1107.077	3162
1109.4	3135
1111.722	3207
1114.044	3158
1116.365	3156
1118.685	3094
1121.005	3114
1123.324	3142
1125.643	3202
1127.961	3187
1130.278	3095
1132.595	3198
1134.911	3176
1137.226	3102
1139.541	3166
1141.854	3194
1144.167	3180
1146.482	3200
1148.793	3145
1151.105	3163
1153.414	3099
1155.725	3248
1158.033	3209
1160.344	3104
1162.651	3070
1164.959	3172
1167.265	3129
1169.572	3200
1171.878	3125
1174.184	3128
1176.488	3206
1178.79	3211
1181.094	3179
1183.396	3143
1185.699	3107
1188.001	3109
1190.301	3155
1192.6	3185
1194.9	3249
1197.2	3166
1199.497	3184
1201.794	3209
1204.09	3178
1206.387	3142
1208.684	3268
1210.978	3188
1213.272	3193
1215.565	3170
1217.858	3192
1220.15	3207
1222.443	3150
1224.734	3149
1227.024	3278
1229.313	3212
1231.602	3213
1233.892	3214
1236.18	3288
1238.467	3277
1240.754	3302
1243.04	3265
1245.325	3283
1247.612	3242
1249.896	3222
1252.178	3265
1254.461	3289
1256.743	3277
1259.027	3274
1261.308	3299
1263.587	3276
1265.867	3313
1268.146	3270
1270.425	3313
1272.703	3273
1274.981	3279
1277.256	3228
1279.532	3331
1281.808	3317
1284.083	3249
1286.358	3226
1288.63	3276
1290.904	3285
1293.175	3305
1295.449	3216
1297.719	3248
1299.99	3344
1302.259	3312
1304.529	3271
1306.798	3340
1309.065	3309
1311.333	3274
1313.599	3219
1315.866	3194
1318.131	3315
1320.396	3245
1322.66	3276
1324.925	3264
1327.187	3309
1329.448	3299
1331.711	3263
1333.974	3248
1336.234	3264
1338.493	3334
1340.752	3269
1343.01	3288
1345.269	3202
1347.526	3187
1349.784	3213
1352.04	3236
1354.295	3226
1356.552	3199
1358.806	3263
1361.059	3262
1363.312	3263
1365.564	3215
1367.818	3322
1370.069	3314
1372.318	3272
1374.568	3246
1376.817	3192
1379.066	3308
1381.316	3297
1383.564	3280
1385.809	3230
1388.056	3382
1390.301	3296
1392.549	3321
1394.793	3341
1397.036	3266
1399.279	3294
1401.522	3389
1403.763	3250
1406.007	3308
1408.248	3262
1410.487	3336
1412.727	3300
1414.965	3348
1417.205	3361
1419.442	3312
1421.68	3390
1423.915	3295
1426.152	3314
1428.388	3347
1430.623	3370
1432.857	3296
1435.091	3407
1437.323	3418
1439.556	3357
1441.789	3377
1444.019	3407
1446.25	3373
1448.48	3411
1450.708	3515
1452.938	3468
1455.167	3460
1457.394	3388
1459.62	3382
1461.846	3422
1464.073	3512
1466.299	3408
1468.523	3389
1470.746	3346
1472.969	3461
1475.191	3382
1477.415	3390
1479.636	3353
1481.858	3365
1484.078	3316
1486.298	3257
1488.518	3315
1490.736	3334
1492.954	3238
1495.169	3265
1497.386	3328
1499.602	3286
1501.819	3257
1504.034	3283
1506.248	3372
1508.462	3306
1510.675	3325
1512.888	3279
1515.1	3304
1517.311	3309
1519.522	3277
1521.732	3320
1523.942	3300
1526.151	3330
1528.36	3289
1530.566	3311
1532.773	3329
1534.98	3299
1537.187	3339
1539.392	3356
1541.596	3260
1543.801	3328
1546.005	3321
1548.208	3360
1550.411	3385
1552.612	3323
1554.814	3299
1557.013	3303
1559.212	3323
1561.414	3270
1563.612	3370
1565.811	3396
1568.007	3404
1570.203	3340
1572.403	3375
1574.598	3292
1576.792	3406
1578.988	3334
1581.181	3339
1583.376	3443
1585.568	3426
1587.761	3392
1589.952	3412
1592.143	3385
1594.333	3359
1596.524	3447
1598.715	3408
1600.903	3360
1603.091	3479
1605.278	3412
1607.466	3431
1609.652	3423
1611.838	3383
1614.023	3429
1616.207	3448
1618.391	3446
1620.576	3470
1622.759	3527
1624.941	3394
1627.123	3328
1629.304	3376
1631.484	3460
1633.664	3456
1635.844	3497
1638.022	3498
1640.201	3420
1642.38	3400
1644.556	3422
1646.732	3433
1648.908	3444
1651.084	3507
1653.257	3480
1655.433	3457
1657.607	3444
1659.779	3523
1661.951	3528
1664.122	3478
1666.295	3521
1668.467	3521
1670.635	3520
1672.805	3473
1674.973	3400
1677.142	3500
1679.31	3456
1681.478	3465
1683.644	3475
1685.81	3476
1687.975	3497
1690.142	3538
1692.305	3462
1694.468	3383
1696.632	3443
1698.794	3353
1700.957	3440
1703.119	3420
1705.279	3421
1707.439	3435
1709.598	3440
1711.758	3402
1713.917	3423
1716.075	3416
1718.231	3350
1720.388	3399
1722.543	3412
1724.702	3441
1726.856	3346
1729.01	3440
1731.164	3451
1733.317	3363
1735.471	3373
1737.623	3412
1739.774	3366
1741.925	3481
1744.075	3422
1746.225	3499
1748.376	3435
1750.524	3436
1752.672	3419
1754.82	3426
1756.965	3435
1759.113	3431
1761.259	3450
1763.405	3450
1765.549	3507
1767.694	3488
1769.836	3493
1771.981	3452
1774.123	3469
1776.264	3447
1778.405	3478
1780.546	3566
1782.687	3520
1784.827	3547
1786.966	3415
1789.103	3492
1791.242	3543
1793.381	3450
1795.517	3389
1797.653	3592
1799.788	3510
1801.923	3403
1804.057	3463
1806.193	3401
1808.326	3420
1810.457	3505
1812.59	3489
1814.721	3499
1816.855	3587
1818.984	3520
1821.113	3370
1823.244	3443
1825.372	3479
1827.499	3474
1829.63	3443
1831.756	3421
1833.882	3386
1836.007	3419
1838.132	3469
1840.26	3400
1842.384	3424
1844.507	3465
1846.63	3499
1848.752	3427
1850.875	3419
1852.996	3505
1855.118	3387
1857.238	3391
1859.358	3429
1861.477	3429
1863.597	3498
1865.715	3399
1867.832	3484
1869.948	3383
1872.064	3482
1874.181	3411
1876.297	3521
1878.411	3461
1880.526	3575
1882.639	3414
1884.752	3477
1886.865	3592
1888.977	3462
1891.089	3494
1893.2	3467
1895.308	3434
1897.42	3462
1899.53	3443
1901.639	3486
1903.745	3444
1905.853	3554
1907.962	3505
1910.067	3542
1912.174	3525
1914.278	3496
1916.383	3517
1918.486	3551
1920.592	3478
1922.694	3462
1924.797	3509
1926.898	3490
1929	3578
1931.102	3531
1933.203	3449
1935.301	3513
1937.401	3526
1939.499	3433
1941.598	3510
1943.697	3577
1945.793	3486
1947.888	3481
1949.985	3490
1952.08	3507
1954.176	3496
1956.269	3585
1958.364	3526
1960.457	3472
1962.549	3454
1964.642	3478
1966.733	3546
1968.823	3484
1970.913	3578
1973.005	3456
1975.093	3512
1977.184	3502
1979.271	3511
1981.359	3512
1983.446	3483
1985.532	3569
1987.619	3585
1989.705	3440
1991.789	3416
1993.874	3584
1995.956	3467
1998.041	3460
2000.123	3491
2002.206	3508
2004.287	3552
2006.368	3532
2008.449	3470
2010.529	3422
2012.609	3560
2014.688	3441
2016.766	3483
2018.843	3509
2020.922	3508
2022.999	3474
2025.074	3463
2027.15	3539
2029.225	3519
2031.299	3417
2033.375	3484
2035.447	3486
2037.52	3472
2039.592	3528
2041.664	3488
2043.736	3598
2045.807	3453
2047.876	3465
2049.947	3436
2052.015	3516
2054.086	3536
2056.153	3452
2058.221	3510
2060.288	3490
2062.353	3476
2064.42	3469
2066.486	3487
2068.55	3494
2070.614	3487
2072.678	3520
2074.741	3546
2076.805	3450
2078.866	3530
2080.929	3497
2082.99	3532
2085.049	3530
2087.109	3500
2089.17	3575
2091.228	3441
2093.286	3518
2095.344	3513
2097.4	3501
2099.46	3562
2101.516	3539
2103.572	3520
2105.626	3511
2107.679	3539
2109.735	3575
2111.788	3443
2113.841	3522
2115.894	3544
2117.945	3432
2119.997	3500
2122.049	3483
2124.1	3492
2126.148	3517
2128.197	3471
2130.246	3553
2132.296	3584
2134.342	3517
2136.39	3416
2138.437	3527
2140.483	3472
2142.527	3499
2144.574	3529
2146.619	3491
2148.661	3456
2150.705	3550
2152.747	3471
2154.792	3523
2156.832	3508
2158.874	3511
2160.915	3520
2162.954	3519
2164.995	3459
2167.034	3473
2169.072	3388
2171.111	3516
2173.148	3477
2175.186	3514
2177.223	3492
2179.258	3504
2181.294	3431
2183.328	3430
2185.362	3508
2187.398	3509
2189.431	3362
2191.463	3513
2193.495	3347
2195.528	3508
2197.56	3380
2199.59	3446
2201.62	3479
2203.649	3407
2205.678	3400
2207.708	3433
2209.737	3483
2211.764	3381
2213.791	3453
2215.817	3433
2217.843	3367
2219.87	3442
2221.895	3397
2223.919	3436
2225.942	3389
2227.966	3420
2229.988	3439
2232.012	3434
2234.032	3547
2236.054	3440
2238.074	3409
2240.095	3454
2242.116	3456
2244.135	3445
2246.153	3472
2248.171	3490
2250.188	3514
2252.208	3375
2254.223	3370
2256.239	3416
2258.255	3421
2260.269	3476
2262.283	3543
2264.3	3462
2266.312	3435
2268.325	3419
2270.336	3487
2272.349	3421
2274.362	3437
2276.372	3387
2278.383	3418
2280.392	3508
2282.402	3441
2284.409	3459
2286.418	3411
2288.427	3428
2290.433	3374
2292.441	3415
2294.446	3478
2296.453	3386
2298.459	3426
2300.463	3419
2302.466	3479
2304.471	3308
2306.475	3369
2308.477	3450
2310.478	3435
2312.481	3437
2314.481	3317
2316.481	3335
2318.482	3410
2320.482	3367
2322.48	3377
2324.48	3430
2326.478	3414
2328.476	3438
2330.473	3379
2332.469	3393
2334.465	3399
2336.46	3420
2338.454	3402
2340.45	3410
2342.444	3420
2344.437	3437
2346.43	3406
2348.421	3365
2350.414	3353
2352.405	3375
2354.396	3372
2356.386	3485
2358.376	3340
2360.366	3420
2362.355	3361
2364.343	3433
2366.331	3418
2368.317	3366
2370.304	3391
2372.292	3349
2374.278	3369
2376.262	3408
2378.247	3384
2380.23	3369
2382.216	3349
2384.199	3405
2386.181	3362
2388.163	3429
2390.144	3308
2392.127	3409
2394.107	3276
2396.087	3294
2398.066	3399
2400.046	3350
2402.023	3308
2404.004	3341
2405.981	3379
2407.957	3336
2409.934	3359
2411.91	3383
2413.886	3387
2415.862	3330
2417.836	3319
2419.809	3374
2421.784	3317
2423.756	3357
2425.73	3347
2427.701	3407
2429.672	3392
2431.644	3370
2433.615	3297
2435.586	3304
2437.555	3306
2439.523	3304
2441.491	3336
2443.459	3370
2445.428	3377
2447.395	3339
2449.361	3331
2451.327	3391
2453.292	3320
2455.257	3287
2457.223	3346
2459.187	3234
2461.15	3356
2463.113	3413
2465.076	3310
2467.039	3365
2468.999	3353
2470.96	3304
2472.921	3299
2474.881	3323
2476.841	3280
2478.8	3359
2480.759	3336
2482.717	3223
2484.675	3362
2486.63	3310
2488.589	3361
2490.545	3358
2492.5	3235
2494.455	3296
2496.408	3323
2498.364	3258
2500.318	3302
2502.27	3277
2504.223	3319
2506.174	3299
2508.126	3345
2510.078	3324
2512.03	3296
2513.979	3289
2515.927	3291
2517.877	3299
2519.826	3256
2521.775	3360
2523.722	3289
2525.668	3330
2527.616	3292
2529.561	3262
2531.508	3253
2533.452	3360
2535.398	3296
2537.342	3287
2539.284	3313
2541.229	3347
2543.173	3307
2545.114	3266
2547.055	3327
2548.996	3296
2550.938	3247
2552.878	3297
2554.817	3241
2556.756	3215
2558.695	3294
2560.633	3278
2562.572	3274
2564.509	3355
2566.445	3312
2568.382	3320
2570.317	3347
2572.254	3273
2574.189	3270
2576.123	3163
2578.057	3298
2579.99	3315
2581.923	3237
2583.855	3291
2585.788	3291
2587.719	3264
2589.65	3291
2591.579	3300
2593.511	3306
2595.44	3271
2597.37	3364
2599.297	3330
2601.225	3300
2603.153	3215
2605.08	3336
2607.007	3319
2608.932	3308
2610.858	3262
2612.782	3362
2614.709	3340
2616.632	3289
2618.556	3277
2620.478	3353
2622.401	3366
2624.324	3282
2626.247	3299
2628.167	3305
2630.088	3332
2632.008	3297
2633.928	3320
2635.848	3304
2637.766	3332
2639.684	3310
2641.603	3342
2643.519	3277
2645.437	3295
2647.353	3297
2649.27	3253
2651.184	3296
2653.099	3352
2655.014	3258
2656.928	3284
2658.842	3267
2660.755	3304
2662.667	3307
2664.579	3266
2666.491	3353
2668.402	3322
2670.312	3352
2672.222	3265
2674.132	3301
2676.042	3280
2677.951	3308
2679.859	3313
2681.766	3365
2683.674	3282
2685.582	3178
2687.488	3343
2689.392	3200
2691.298	3276
2693.202	3228
2695.107	3337
2697.012	3313
2698.914	3303
2700.817	3239
2702.72	3268
2704.622	3274
2706.524	3249
2708.425	3202
2710.326	3257
2712.225	3314
2714.125	3240
2716.024	3273
2717.923	3263
2719.822	3321
2721.719	3229
2723.616	3282
2725.512	3260
2727.41	3244
2729.305	3235
2731.201	3273
2733.095	3289
2734.99	3292
2736.884	3171
2738.778	3306
2740.67	3168
2742.562	3222
2744.455	3233
2746.346	3267
2748.238	3254
2750.129	3236
2752.018	3256
2753.907	3222
2755.797	3252
2757.687	3220
2759.575	3161
2761.462	3221
2763.349	3254
2765.237	3272
2767.124	3218
2769.009	3309
2770.894	3178
2772.779	3231
2774.663	3160
2776.547	3206
2778.431	3288
2780.314	3151
2782.197	3259
2784.078	3231
2785.96	3126
2787.842	3216
2789.723	3201
2791.603	3167
2793.483	3201
2795.362	3202
2797.241	3188
2799.121	3240
2800.997	3230
2802.874	3248
2804.751	3115
2806.628	3212
2808.506	3210
2810.38	3188
2812.255	3190
2814.13	3124
2816.003	3215
2817.878	3237
2819.752	3199
2821.623	3196
2823.496	3234
2825.368	3140
2827.238	3309
2829.111	3166
2830.98	3223
2832.851	3168
2834.719	3211
2836.589	3206
2838.458	3178
2840.327	3272
2842.193	3208
2844.061	3170
2845.927	3212
2847.794	3181
2849.66	3158
2851.525	3255
2853.39	3216
2855.254	3204
2857.117	3252
2858.983	3262
2860.845	3279
2862.707	3339
2864.569	3258
2866.431	3217
2868.293	3267
2870.154	3292
2872.013	3271
2873.873	3283
2875.733	3326
2877.592	3334
2879.451	3388
2881.309	3397
2883.166	3390
2885.022	3352
2886.879	3355
2888.736	3364
2890.591	3408
2892.446	3386
2894.301	3378
2896.155	3291
2898.009	3407
2899.863	3338
2901.716	3355
2903.568	3394
2905.419	3367
2907.27	3339
2909.123	3440
2910.973	3399
2912.824	3403
2914.673	3334
2916.521	3359
2918.372	3424
2920.22	3481
2922.067	3366
2923.914	3507
2925.761	3484
2927.607	3500
2929.455	3486
2931.301	3616
2933.144	3528
2934.99	3623
2936.833	3601
2938.678	3578
2940.522	3568
2942.364	3628
2944.207	3634
2946.048	3675
2947.891	3696
2949.731	3739
2951.571	3649
2953.412	3681
2955.25	3641
2957.09	3599
2958.93	3612
2960.767	3594
2962.606	3588
2964.443	3569
2966.279	3483
2968.116	3493
2969.953	3445
2971.788	3441
2973.623	3411
2975.457	3357
2977.292	3427
2979.127	3404
2980.959	3338
2982.792	3405
2984.624	3447
2986.455	3372
2988.288	3396
2990.119	3328
2991.949	3326
2993.779	3279
2995.608	3270
2997.439	3232
2999.268	3350
3001.096	3288
3002.923	3263
3004.751	3220
3006.578	3132
3008.406	3177
3010.232	3144
3012.057	3172
3013.883	3033
3015.706	3237
3017.532	3148
3019.356	3139
3021.179	3095
3023.002	3089
3024.823	3107
3026.646	3125
3028.469	3086
3030.289	3086
3032.11	2989
3033.93	3104
3035.749	3124
3037.57	3050
3039.39	3070
3041.207	3026
3043.026	3032
3044.842	3036
3046.661	3001
3048.477	3052
3050.294	3087
3052.109	3094
3053.925	3039
3055.739	3025
3057.555	3032
3059.368	3102
3061.181	2984
3062.995	2975
3064.807	3013
3066.62	2991
3068.433	3052
3070.243	2979
3072.054	2979
3073.865	3033
3075.675	3043
3077.485	3075
3079.293	3077
3081.102	3019
3082.911	3067
3084.719	2973
3086.527	2976
3088.333	3019
3090.139	2976
3091.945	2952
3093.75	3055
3095.557	2897
3097.361	2942
3099.165	2924
3100.969	3016
3102.772	2966
3104.575	2971
3106.379	2906
3108.181	3006
3109.982	3032
3111.783	2828
3113.584	2992
3115.386	2945
3117.186	2947
3118.985	3004
3120.783	2942
3122.582	2945
3124.381	2921
3126.179	2909
3127.975	2913
3129.772	2906
3131.569	2874
3133.365	2901
3135.161	2978
3136.956	2865
3138.751	2810
3140.544	2899
3142.338	2934
3144.132	2961
3145.925	2859
3147.717	2886
3149.509	2893
3151.301	2919
3153.091	2905
3154.884	2885
3156.673	2985
3158.462	2906
3160.252	2895
3162.041	2865
3163.831	2812
3165.618	2879
3167.405	2840
3169.193	2887
3170.979	2930
3172.767	2883
3174.553	2870
3176.338	2907
3178.123	2839
3179.907	2874
3181.692	2892
3183.477	2903
3185.259	2823
3187.042	2844
3188.824	2860
3190.607	2893
3192.389	2882
3194.17	2901
3195.951	2842
3197.73	2829
3199.51	2819
3201.289	2869
3203.07	2876
3204.848	2902
3206.626	2827
3208.403	2856
3210.18	2937
3211.959	2791
3213.735	2803
3215.511	2809
3217.285	2847
3219.06	2809
3220.836	2772
3222.611	2825
3224.384	2873
3226.158	2857
3227.929	2807
3229.702	2865
3231.476	2858
3233.248	2856
3235.018	2840
3236.789	2876
3238.56	2826
3240.33	2815
3242.1	2871
3243.869	2784
3245.637	2762
3247.405	2867
3249.172	2868
3250.941	2702
3252.707	2899
3254.474	2818
3256.24	2778
3258.006	2798
3259.772	2928
3261.537	2856
3263.301	2860
3265.065	2838
3266.828	2799
3268.592	2823
3270.355	2896
3272.117	2818
3273.878	2810
3275.64	2838
3277.401	2816
3279.162	2835
3280.922	2797
3282.682	2859
3284.441	2825
3286.199	2832
3287.959	2805
3289.716	2860
3291.475	2861
3293.232	2854
3294.988	2803
3296.744	2861
3298.501	2830
3300.256	2823
3302.011	2813
3303.766	2785
3305.52	2729
3307.275	2771
3309.028	2843
3310.781	2868
3312.533	2898
3314.285	2853
3316.038	2808
3317.789	2823
3319.54	2836
3321.289	2811
3323.039	2870
3324.789	2827
3326.539	2825
3328.288	2856
3330.035	2852
3331.783	2784
3333.531	2862
3335.28	2842
3337.025	2762
3338.771	2790
3340.518	2803
3342.262	2791
3344.009	2817
3345.753	2843
3347.497	2828
3349.24	2809
3350.983	2789
3352.726	2795
3354.469	2815
3356.212	2829
3357.952	2811
3359.694	2747
3361.434	2789
3363.176	2826
3364.916	2767
3366.654	2795
3368.394	2756
3370.132	2788
3371.871	2761
3373.61	2790
3375.346	2845
3377.083	2797
3378.82	2764
3380.556	2811
3382.292	2681
3384.027	2773
3385.763	2716
3387.497	2690
3389.231	2703
3390.965	2763
3392.698	2726
3394.431	2746
3396.164	2736
3397.896	2761
3399.627	2674
3401.36	2740
3403.09	2718
3404.82	2733
3406.55	2710
3408.279	2762
3410.01	2797
3411.738	2709
3413.467	2735
3415.194	2749
3416.92	2694
3418.647	2660
3420.375	2721
3422.102	2693
3423.827	2671
3425.553	2751
3427.277	2757
3429.003	2645
3430.727	2758
3432.451	2710
3434.173	2736
3435.896	2693
3437.62	2687
3439.343	2687
3441.063	2702
3442.785	2662
3444.505	2672
3446.226	2644
3447.948	2728
3449.666	2683
3451.386	2722
3453.104	2662
3454.823	2683
3456.541	2705
3458.259	2641
3459.976	2668
3461.693	2645
3463.408	2675
3465.125	2654
3466.841	2643
3468.556	2650
3470.271	2693
3471.985	2647
3473.698	2634
3475.414	2674
3477.126	2651
3478.838	2712
3480.55	2633
3482.263	2649
3483.975	2582
3485.686	2663
3487.396	2639
3489.106	2673
3490.817	2601
3492.526	2554
3494.236	2591
3495.944	2604
3497.652	2612
3499.359	2548
3501.066	2609
3502.775	2585
3504.481	2560
3506.187	2566
3507.893	2691
3509.598	2585
3511.304	2607
3513.009	2585
3514.713	2555
3516.417	2611
3518.12	2607
3519.821	2574
3521.525	2508
3523.228	2514
3524.929	2523
3526.631	2537
3528.33	2605
3530.032	2573
3531.733	2555
3533.433	2506
3535.131	2525
3536.83	2563
3538.529	2519
3540.227	2541
3541.925	2588
3543.623	2531
3545.319	2574
3547.016	2517
3548.712	2566
3550.408	2506
3552.103	2598
3553.798	2504
3555.491	2540
3557.188	2522
3558.88	2518
3560.574	2514
3562.266	2508
3563.959	2534
3565.651	2489
3567.343	2570
3569.035	2512
3570.725	2505
3572.415	2498
3574.106	2493
3575.797	2529
3577.485	2513
3579.174	2514
3580.863	2446
3582.551	2453
3584.238	2489
3585.926	2557
3587.613	2452
3589.3	2529
3590.986	2477
3592.671	2459
3594.357	2530
3596.042	2517
3597.726	2386
3599.41	2446
3601.094	2478
3602.778	2448
3604.461	2460
3606.143	2403
3607.825	2471
3609.507	2433
3611.188	2394
3612.87	2415
3614.551	2491
3616.229	2405
3617.909	2420
3619.589	2464
3621.269	2438
3622.948	2441
3624.625	2438
3626.302	2373
3627.98	2389
3629.657	2369
3631.334	2450
3633.01	2454
3634.686	2394
3636.361	2360
3638.036	2404
3639.712	2443
3641.385	2377
3643.06	2453
3644.732	2367
3646.405	2349
3648.08	2433
3649.751	2409
3651.424	2341
3653.094	2357
3654.766	2300
3656.436	2314
3658.106	2326
3659.777	2341
3661.446	2341
3663.115	2391
3664.783	2308
3666.452	2323
3668.121	2315
3669.788	2402
3671.454	2363
3673.121	2319
3674.789	2367
3676.455	2367
3678.12	2327
3679.784	2340
3681.45	2341
3683.114	2409
3684.779	2262
3686.442	2306
3688.105	2255
3689.768	2383
3691.43	2322
3693.093	2390
3694.754	2355
3696.415	2271
3698.076	2287
3699.736	2341
3701.396	2287
3703.057	2309
3704.716	2350
3706.375	2324
3708.034	2290
3709.692	2354
3711.351	2320
3713.008	2373
3714.665	2329
3716.321	2267
3717.977	2305
3719.634	2291
3721.29	2258
3722.945	2260
3724.598	2323
3726.253	2339
3727.907	2314
3729.561	2291
3731.214	2345
3732.867	2298
3734.518	2315
3736.171	2305
3737.824	2237
3739.474	2228
3741.125	2299
3742.775	2306
3744.425	2284
3746.074	2269
3747.725	2249
3749.373	2250
3751.022	2309
3752.669	2258
3754.318	2306
3755.966	2257
3757.612	2243
3759.259	2258
3760.905	2249
3762.55	2281
3764.197	2251
3765.842	2281
3767.486	2236
3769.131	2271
3770.774	2246
3772.417	2216
3774.061	2253
3775.705	2232
3777.347	2249
3778.988	2287
3780.629	2219
3782.271	2188
3783.912	2234
3785.552	2262
3787.192	2244
3788.831	2261
3790.472	2188
3792.112	2192
3793.75	2222
3795.388	2202
3797.024	2192
3798.661	2224
3800.3	2220
3801.936	2222
3803.572	2199
3805.208	2213
3806.844	2180
3808.48	2227
3810.115	2183
3811.748	2259
3813.382	2283
3815.016	2202
3816.649	2150
3818.283	2171
3819.914	2216
3821.547	2171
3823.178	2226
3824.809	2164
3826.441	2223
3828.072	2189
3829.701	2198
3831.331	2154
3832.96	2187
3834.591	2157
3836.219	2133
3837.847	2202
3839.475	2120
3841.102	2163
3842.729	2138
3844.357	2169
3845.984	2166
3847.609	2174
3849.234	2112
3850.86	2166
3852.485	2187
3854.11	2188
3855.734	2174
3857.357	2153
3858.981	2116
3860.603	2119
3862.227	2119
3863.848	2134
3865.471	2141
3867.092	2157
3868.713	2169
3870.334	2205
3871.954	2177
3873.575	2131
3875.194	2158
3876.813	2118
3878.433	2094
3880.051	2110
3881.669	2130
3883.286	2144
3884.904	2154
3886.52	2122
3888.138	2070
3889.754	2097
3891.37	2152
3892.985	2086
3894.6	2134
3896.216	2096
3897.831	2091
3899.444	2138
3901.058	2119
3902.67	2099
3904.283	2112
3905.897	2181
3907.509	2099
3909.121	2120
3910.731	2125
3912.342	2106
3913.954	2130
3915.563	2102
3917.174	2113
3918.783	2123
3920.391	2156
3922.002	2114
3923.611	2114
3925.218	2091
3926.826	2151
3928.432	2140
3930.039	2073
3931.647	2106
3933.253	2056
3934.859	2110
3936.464	2106
3938.068	2099
3939.675	2141
3941.278	2096
3942.883	2094
3944.486	2176
3946.089	2061
3947.692	2092
3949.295	2173
3950.898	2103
3952.499	2054
3954.1	2075
3955.7	2073
3957.303	2079
3958.903	2004
3960.502	2128
3962.101	2050
3963.7	2095
3965.301	2058
3966.899	1966
3968.497	2035
3970.094	2024
3971.691	2053
3973.288	2049
3974.885	2052
3976.481	1982
3978.077	2047
3979.672	2001
3981.267	2051
3982.863	2023
3984.457	2032
3986.051	1988
3987.645	2030
3989.238	2013
3990.831	2066
3992.425	1973
3994.017	1994
3995.607	2015
3997.199	1955
3998.79	1968
4000.382	2042
4001.973	2008
4003.561	2003
4005.151	1936
4006.741	1977
4008.331	1989
4009.918	1972
4011.507	1972
4013.095	2014
4014.681	1938
4016.269	2035
4017.856	2037
4019.443	2037
4021.028	2020
4022.614	1999
4024.199	1967
4025.785	1987
4027.37	1928
4028.953	1943
4030.536	1894
4032.12	1976
4033.704	1984
4035.287	1912
4036.869	1978
4038.45	1952
4040.032	1954
4041.613	1972
4043.195	1929
4044.776	1985
4046.356	1947
4047.935	1970
4049.515	1929
4051.095	1951
4052.674	1906
4054.251	1977
4055.829	1898
4057.406	1897
4058.985	1921
4060.562	1932
4062.139	1917
4063.715	1916
4065.29	1923
4066.865	1975
4068.442	1941
4070.016	1872
4071.59	1971
4073.164	1903
4074.738	1894
4076.312	1873
4077.885	1958
4079.458	1924
4081.03	1926
4082.602	1873
4084.173	1893
4085.745	1877
4087.315	1926
4088.886	1843
4090.456	1956
4092.026	1889
4093.596	1922
4095.165	1934
4096.734	1880
4098.301	1926
4099.869	1843
4101.437	1918
4103.006	1860
4104.572	1867
4106.139	1941
4107.704	1936
4109.27	1922
4110.837	1849
4112.401	1905
4113.966	1891
4115.53	1883
4117.094	1895
4118.659	1909
4120.223	1841
4121.785	1910
4123.347	1851
4124.909	1817
4126.471	1882
4128.034	1891
4129.595	1910
4131.155	1795
4132.716	1898
4134.275	1868
4135.836	1865
4137.395	1868
4138.955	1885
4140.513	1865
4142.071	1831
4143.628	1871
4145.188	1825
4146.745	1845
4148.302	1881
4149.858	1840
4151.414	1823
4152.971	1861
4154.526	1806
4156.081	1841
4157.635	1894
4159.189	1803
4160.745	1858
4162.298	1841
4163.852	1839
4165.405	1847
4166.957	1778
4168.51	1820
4170.063	1839
4171.614	1884
4173.166	1787
4174.717	1803
4176.267	1823
4177.817	1808
4179.368	1849
4180.917	1775
4182.466	1833
4184.016	1835
4185.564	1817
4187.112	1814
4188.66	1796
4190.207	1824
4191.754	1811
4193.301	1840
4194.848	1818
4196.394	1769
4197.94	1799
4199.484	1799
4201.03	1827
4202.575	1778
4204.12	1834
4205.663	1818
4207.207	1801
4208.75	1774
4210.292	1795
4211.836	1763
4213.378	1810
4214.92	1737
4216.46	1793
4218.002	1716
4219.544	1781
4221.083	1817
4222.625	1801
4224.164	1820
4225.703	1820
4227.244	1820
4228.782	1759
4230.32	1793
4231.857	1726
4233.395	1784
4234.933	1760
4236.471	1716
4238.007	1761
4239.542	1774
4241.078	1725
4242.614	1773
4244.15	1736
4245.685	1798
4247.219	1755
4248.753	1768
4250.287	1758
4251.82	1728
4253.354	1708
4254.887	1773
4256.419	1735
4257.951	1689
4259.483	1749
4261.016	1765
4262.547	1770
4264.078	1697
4265.608	1738
4267.137	1725
4268.668	1681
4270.197	1718
4271.727	1695
4273.254	1743
4274.783	1716
4276.311	1765
4277.84	1707
4279.366	1687
4280.894	1705
4282.42	1737
4283.946	1720
4285.473	1703
4286.998	1743
4288.523	1682
4290.047	1701
4291.572	1718
4293.096	1682
4294.622	1746
4296.144	1678
4297.668	1670
4299.19	1710
4300.713	1713
4302.236	1683
4303.758	1711
4305.279	1684
4306.799	1751
4308.321	1701
4309.842	1628
4311.361	1722
4312.882	1615
4314.401	1670
