400.0961	2699
402.6185	2725
405.1424	2641
407.6635	2691
410.1838	2797
412.7035	2751
415.2225	2696
417.7388	2832
420.2585	2803
422.7754	2896
425.2917	2900
427.8072	2833
430.3221	2970
432.8363	2928
435.3498	2978
437.8626	2942
440.3727	2904
442.8841	2884
445.3969	2887
447.907	2896
450.4142	2899
452.9229	2885
455.4289	2838
457.9362	2809
460.4449	2844
462.9488	2829
465.454	2853
467.9566	2946
470.4604	2827
472.9637	2811
475.4662	2930
477.966	2811
480.4671	2792
482.9656	2858
485.4633	2859
487.9645	2846
490.4608	2838
492.9566	2875
495.4536	2924
497.948	2846
500.4437	2831
502.9387	2826
505.431	2834
507.9226	2843
510.4136	2844
512.9079	2862
515.3975	2888
517.8864	2858
520.3746	2825
522.8622	2854
525.3491	2899
527.8394	2824
530.3249	2816
532.8098	2881
535.2939	2922
537.7774	2833
540.2623	2934
542.7444	2886
545.2259	2942
547.7067	2919
550.1868	2875
552.6683	2917
555.147	2838
557.6231	2939
560.1005	2956
562.5773	2899
565.0534	2904
567.5308	2984
570.0056	3000
572.4776	2998
574.951	3041
577.4237	3013
579.8978	3064
582.3671	3104
584.8378	3066
587.3079	3020
589.7773	3088
592.244	3008
594.714	3056
597.1793	3026
599.6461	3023
602.1121	3099
604.5754	3066
607.0421	3060
609.5042	3026
611.9675	3088
614.4282	2974
616.8902	3021
619.3515	2978
621.8122	2942
624.2702	3000
626.7296	3010
629.1863	2930
631.6423	2956
634.1017	2990
636.5563	3011
639.0104	2971
641.4658	2928
643.9185	2914
646.3725	2977
648.8239	2996
651.2766	2955
653.7266	3046
656.176	3018
658.6247	2976
661.0748	2991
663.5242	3058
665.9709	2974
668.417	3010
670.8624	3055
673.3092	3029
675.7533	2972
678.1968	3094
680.6395	2993
683.0817	2948
685.5251	3059
687.9659	3058
690.4061	3044
692.8456	2982
695.2844	3020
697.7226	3120
700.1621	3141
702.599	3088
705.0332	3064
707.4688	3040
709.9036	3060
712.3399	3090
714.7735	3052
717.2044	3086
719.6367	3159
722.0683	3115
724.4993	3116
726.9296	3113
729.3593	3140
731.7883	3095
734.2147	3200
736.6423	3227
739.0714	3194
741.4958	3203
743.9216	3212
746.3447	3172
748.7691	3211
751.1929	3254
753.616	3228
756.0366	3247
758.4584	3223
760.8776	3241
763.2982	3210
765.718	3174
768.1373	3302
770.5539	3247
772.9698	3262
775.3871	3230
777.8038	3216
780.2178	3250
782.6332	3289
785.0459	3219
787.458	3320
789.8714	3286
792.2842	3230
794.6943	3268
797.1038	3233
799.5127	3327
801.9209	3218
804.3324	3247
806.7393	3365
809.1456	3278
811.5513	3253
813.9562	3327
816.3625	3322
818.7663	3323
821.1693	3344
823.5718	3321
825.9735	3274
828.3746	3178
830.7771	3292
833.177	3304
835.5762	3317
837.9747	3367
840.3727	3352
842.772	3352
845.1666	3360
847.5626	3301
849.958	3374
852.3527	3490
854.7488	3434
857.1403	3498
859.5331	3434
861.9253	3509
864.3168	3378
866.7057	3397
869.098	3388
871.4876	3325
873.8746	3393
876.263	3464
878.6487	3368
881.0378	3425
883.4243	3440
885.8081	3459
888.1933	3449
890.5759	3355
892.9598	3423
895.343	3435
897.7256	3323
900.1057	3380
902.4871	3384
904.8659	3418
907.246	3440
909.6254	3439
912.0023	3502
914.3786	3496
916.7562	3646
919.1331	3678
921.5074	3714
923.8831	3755
926.2562	3648
928.6287	3635
931.0005	3663
933.3757	3697
935.7462	3763
938.1162	3683
940.4855	3799
942.8542	3741
945.2242	3854
947.5916	3911
949.9584	4098
952.3266	4217
954.6921	4316
957.0571	4596
959.4233	4865
961.787	5046
964.15	4907
966.5125	4697
968.8742	4495
971.2354	4213
973.5959	3943
975.9559	3861
978.3151	3762
980.6738	3712
983.0338	3697
985.3912	3632
987.7461	3565
990.1022	3538
992.4578	3508
994.8127	3529
997.1689	3507
999.5207	3555
1001.874	3598
1004.226	3649
1006.576	3573
1008.929	3499
1011.28	3550
1013.628	3592
1015.977	3573
1018.324	3482
1020.674	3565
1023.019	3692
1025.366	3578
1027.713	3601
1030.056	3620
1032.399	3656
1034.746	3669
1037.087	3677
1039.431	3589
1041.771	3703
1044.113	3697
1046.454	3654
1048.793	3603
1051.133	3620
1053.471	3716
1055.807	3606
1058.146	3721
1060.483	3737
1062.818	3696
1065.153	3742
1067.489	3784
1069.822	3783
1072.156	3858
1074.488	3742
1076.82	3832
1079.15	3743
1081.48	3716
1083.814	3667
1086.143	3776
1088.471	3618
1090.799	3622
1093.126	3639
1095.452	3628
1097.78	3705
1100.105	3615
1102.43	3594
1104.754	3592
1107.077	3662
1109.4	3675
1111.722	3571
1114.044	3618
1116.365	3646
1118.685	3518
1121.005	3575
1123.324	3622
1125.643	3687
1127.961	3691
1130.278	3670
1132.595	3741
1134.911	3608
1137.226	3657
1139.541	3612
1141.854	3564
1144.167	3635
1146.482	3649
1148.793	3578
1151.105	3666
1153.414	3639
1155.725	3555
1158.033	3586
1160.344	3621
1162.651	3672
1164.959	3574
1167.265	3633
1169.572	3601
1171.878	3701
1174.184	3633
1176.488	3659
1178.79	3589
1181.094	3650
1183.396	3619
1185.699	3594
1188.001	3594
1190.301	3598
1192.6	3581
1194.9	3609
1197.2	3607
1199.497	3692
1201.794	3628
1204.09	3575
1206.387	3584
1208.684	3643
1210.978	3603
1213.272	3648
1215.565	3676
1217.858	3589
1220.15	3632
1222.443	3619
1224.734	3659
1227.024	3730
1229.313	3704
1231.602	3793
1233.892	3718
1236.18	3789
1238.467	3829
1240.754	3816
1243.04	3824
1245.325	3882
1247.612	3937
1249.896	3944
1252.178	3870
1254.461	3824
1256.743	3867
1259.027	3882
1261.308	3827
1263.587	3877
1265.867	3870
1268.146	3865
1270.425	3934
1272.703	3901
1274.981	3949
1277.256	3908
1279.532	3796
1281.808	3850
1284.083	3894
1286.358	3827
1288.63	3839
1290.904	3772
1293.175	3699
1295.449	3786
1297.719	3825
1299.99	3688
1302.259	3745
1304.529	3732
1306.798	3780
1309.065	3768
1311.333	3788
1313.599	3778
1315.866	3775
1318.131	3781
1320.396	3680
1322.66	3731
1324.925	3826
1327.187	3807
1329.448	3796
1331.711	3761
1333.974	3837
1336.234	3785
1338.493	3847
1340.752	3785
1343.01	3728
1345.269	3714
1347.526	3754
1349.784	3785
1352.04	3706
1354.295	3716
1356.552	3724
1358.806	3788
1361.059	3700
1363.312	3771
1365.564	3763
1367.818	3697
1370.069	3808
1372.318	3725
1374.568	3788
1376.817	3851
1379.066	3826
1381.316	3883
1383.564	3864
1385.809	3876
1388.056	3824
1390.301	3933
1392.549	3808
1394.793	3939
1397.036	3919
1399.279	3962
1401.522	3943
1403.763	3998
1406.007	3892
1408.248	3972
1410.487	3947
1412.727	3986
1414.965	3928
1417.205	4004
1419.442	3959
1421.68	3960
1423.915	4016
1426.152	3878
1428.388	3920
1430.623	3877
1432.857	3970
1435.091	3888
1437.323	4047
1439.556	4011
1441.789	4112
1444.019	4004
1446.25	3971
1448.48	4033
1450.708	4083
1452.938	4112
1455.167	4129
1457.394	4104
1459.62	4047
1461.846	4075
1464.073	4036
1466.299	4054
1468.523	3995
1470.746	3884
1472.969	3927
1475.191	3919
1477.415	3950
1479.636	3880
1481.858	3741
1484.078	3774
1486.298	3811
1488.518	3727
1490.736	3808
1492.954	3758
1495.169	3737
1497.386	3820
1499.602	3722
1501.819	3812
1504.034	3767
1506.248	3681
1508.462	3739
1510.675	3607
1512.888	3750
1515.1	3815
1517.311	3697
1519.522	3702
1521.732	3706
1523.942	3690
1526.151	3734
1528.36	3716
1530.566	3725
1532.773	3766
1534.98	3719
1537.187	3744
1539.392	3759
1541.596	3759
1543.801	3830
1546.005	3713
1548.208	3707
1550.411	3751
1552.612	3758
1554.814	3829
1557.013	3864
1559.212	3784
1561.414	3809
1563.612	3739
1565.811	3753
1568.007	3809
1570.203	3893
1572.403	3819
1574.598	3841
1576.792	3802
1578.988	3834
1581.181	3865
1583.376	3875
1585.568	3863
1587.761	3897
1589.952	3893
1592.143	3961
1594.333	3852
1596.524	3813
1598.715	3873
1600.903	3834
1603.091	3893
1605.278	3948
1607.466	3935
1609.652	3953
1611.838	3871
1614.023	3910
1616.207	4007
1618.391	3897
1620.576	3897
1622.759	3853
1624.941	3913
1627.123	3846
1629.304	3957
1631.484	3901
1633.664	3947
1635.844	3998
1638.022	4023
1640.201	4024
1642.38	4041
1644.556	4053
1646.732	3965
1648.908	4026
1651.084	4159
1653.257	4027
1655.433	3959
1657.607	3997
1659.779	4096
1661.951	4037
1664.122	4143
1666.295	4099
1668.467	4114
1670.635	4072
1672.805	4130
1674.973	4099
1677.142	4163
1679.31	4134
1681.478	4093
1683.644	4102
1685.81	4026
1687.975	3999
1690.142	4066
1692.305	3983
1694.468	4015
1696.632	3974
1698.794	3996
1700.957	3868
1703.119	3893
1705.279	3907
1707.439	3921
1709.598	3882
1711.758	3877
1713.917	3845
1716.075	3818
1718.231	3822
1720.388	3896
1722.543	3912
1724.702	3905
1726.856	3872
1729.01	3829
1731.164	3898
1733.317	3783
1735.471	3856
1737.623	3800
1739.774	3908
1741.925	3763
1744.075	3911
1746.225	3845
1748.376	3843
1750.524	3808
1752.672	3885
1754.82	3866
1756.965	3893
1759.113	3892
1761.259	3880
1763.405	3835
1765.549	3803
1767.694	3862
1769.836	3854
1771.981	3856
1774.123	3949
1776.264	3923
1778.405	3946
1780.546	3912
1782.687	3852
1784.827	3900
1786.966	3718
1789.103	3894
1791.242	3895
1793.381	3825
1795.517	3820
1797.653	3872
1799.788	3862
1801.923	3882
1804.057	3905
1806.193	3879
1808.326	3878
1810.457	3914
1812.59	3956
1814.721	3827
1816.855	3958
1818.984	3931
1821.113	3858
1823.244	3859
1825.372	3880
1827.499	3972
1829.63	3828
1831.756	3905
1833.882	3891
1836.007	3868
1838.132	3857
1840.26	3927
1842.384	3846
1844.507	3874
1846.63	3884
1848.752	3892
1850.875	3888
1852.996	3925
1855.118	3874
1857.238	3938
1859.358	3910
1861.477	3873
1863.597	3909
1865.715	3833
1867.832	3840
1869.948	3885
1872.064	3945
1874.181	3833
1876.297	3891
1878.411	3791
1880.526	3793
1882.639	3956
1884.752	3840
1886.865	3857
1888.977	3904
1891.089	3892
1893.2	3912
1895.308	3799
1897.42	3908
1899.53	3898
1901.639	3896
1903.745	3881
1905.853	3957
1907.962	3838
1910.067	3901
1912.174	3918
1914.278	3937
1916.383	3963
1918.486	3850
1920.592	3848
1922.694	3861
1924.797	4006
1926.898	3916
1929	3990
1931.102	3906
1933.203	4020
1935.301	3945
1937.401	4003
1939.499	4002
1941.598	3981
1943.697	3951
1945.793	3899
1947.888	3948
1949.985	3914
1952.08	3917
1954.176	3951
1956.269	3895
1958.364	3968
1960.457	3944
1962.549	3901
1964.642	3953
1966.733	3984
1968.823	3836
1970.913	3901
1973.005	3932
1975.093	3903
1977.184	3824
1979.271	3885
1981.359	3952
1983.446	3846
1985.532	3916
1987.619	3874
1989.705	3898
1991.789	3949
1993.874	3977
1995.956	3837
1998.041	3809
2000.123	3854
2002.206	3890
2004.287	4014
2006.368	3971
2008.449	3902
2010.529	3927
2012.609	3909
2014.688	3819
2016.766	3863
2018.843	3883
2020.922	3925
2022.999	3993
2025.074	3925
2027.15	3831
2029.225	3901
2031.299	3985
2033.375	3932
2035.447	3903
2037.52	3791
2039.592	3969
2041.664	3878
2043.736	3901
2045.807	3928
2047.876	3993
2049.947	3909
2052.015	3929
2054.086	3855
2056.153	3933
2058.221	3906
2060.288	3989
2062.353	3969
2064.42	3853
2066.486	3922
2068.55	3925
2070.614	3955
2072.678	3996
2074.741	3931
2076.805	3958
2078.866	3981
2080.929	3964
2082.99	3871
2085.049	3887
2087.109	4019
2089.17	3950
2091.228	3959
2093.286	3890
2095.344	3856
2097.4	3978
2099.46	3926
2101.516	3928
2103.572	3963
2105.626	3971
2107.679	3923
2109.735	3931
2111.788	3965
2113.841	3890
2115.894	3860
2117.945	3974
2119.997	3864
2122.049	3896
2124.1	3863
2126.148	3879
2128.197	3908
2130.246	3967
2132.296	3956
2134.342	3967
2136.39	3880
2138.437	4018
2140.483	4017
2142.527	3879
2144.574	3959
2146.619	3926
2148.661	3903
2150.705	3901
2152.747	3895
2154.792	3990
2156.832	3931
2158.874	3914
2160.915	3838
2162.954	3910
2164.995	3795
2167.034	3947
2169.072	3841
2171.111	3925
2173.148	3856
2175.186	3928
2177.223	3867
2179.258	3860
2181.294	3814
2183.328	3857
2185.362	3882
2187.398	3895
2189.431	3796
2191.463	3851
2193.495	3866
2195.528	3925
2197.56	3853
2199.59	3903
2201.62	3834
2203.649	3878
2205.678	3815
2207.708	3833
2209.737	3882
2211.764	3813
2213.791	3885
2215.817	3875
2217.843	3835
2219.87	3834
2221.895	3800
2223.919	3784
2225.942	3844
2227.966	3782
2229.988	3851
2232.012	3782
2234.032	3812
2236.054	3809
2238.074	3757
2240.095	3819
2242.116	3850
2244.135	3752
2246.153	3854
2248.171	3824
2250.188	3860
2252.208	3840
2254.223	3837
2256.239	3846
2258.255	3847
2260.269	3883
2262.283	3804
2264.3	3864
2266.312	3841
2268.325	3845
2270.336	3782
2272.349	3874
2274.362	3828
2276.372	3887
2278.383	3853
2280.392	3914
2282.402	3841
2284.409	3851
2286.418	3865
2288.427	3805
2290.433	3892
2292.441	3807
2294.446	3832
2296.453	3874
2298.459	3835
2300.463	3852
2302.466	3836
2304.471	3867
2306.475	3821
2308.477	3857
2310.478	3815
2312.481	3916
2314.481	3843
2316.481	3825
2318.482	3780
2320.482	3806
2322.48	3869
2324.48	3804
2326.478	3833
2328.476	3753
2330.473	3799
2332.469	3774
2334.465	3861
2336.46	3784
2338.454	3792
2340.45	3843
2342.444	3879
2344.437	3803
2346.43	3779
2348.421	3726
2350.414	3736
2352.405	3846
2354.396	3807
2356.386	3694
2358.376	3776
2360.366	3783
2362.355	3788
2364.343	3855
2366.331	3849
2368.317	3783
2370.304	3739
2372.292	3784
2374.278	3758
2376.262	3780
2378.247	3759
2380.23	3686
2382.216	3804
2384.199	3763
2386.181	3780
2388.163	3812
2390.144	3729
2392.127	3762
2394.107	3822
2396.087	3743
2398.066	3735
2400.046	3740
2402.023	3710
2404.004	3780
2405.981	3779
2407.957	3771
2409.934	3741
2411.91	3706
2413.886	3777
2415.862	3747
2417.836	3748
2419.809	3836
2421.784	3787
2423.756	3709
2425.73	3772
2427.701	3794
2429.672	3809
2431.644	3760
2433.615	3698
2435.586	3776
2437.555	3759
2439.523	3751
2441.491	3777
2443.459	3774
2445.428	3672
2447.395	3708
2449.361	3751
2451.327	3756
2453.292	3797
2455.257	3736
2457.223	3738
2459.187	3675
2461.15	3718
2463.113	3616
2465.076	3742
2467.039	3743
2468.999	3758
2470.96	3738
2472.921	3628
2474.881	3753
2476.841	3685
2478.8	3714
2480.759	3718
2482.717	3664
2484.675	3665
2486.63	3707
2488.589	3682
2490.545	3650
2492.5	3732
2494.455	3691
2496.408	3662
2498.364	3711
2500.318	3652
2502.27	3718
2504.223	3689
2506.174	3722
2508.126	3640
2510.078	3698
2512.03	3701
2513.979	3713
2515.927	3662
2517.877	3723
2519.826	3670
2521.775	3661
2523.722	3684
2525.668	3709
2527.616	3748
2529.561	3650
2531.508	3799
2533.452	3709
2535.398	3633
2537.342	3664
2539.284	3678
2541.229	3702
2543.173	3616
2545.114	3673
2547.055	3728
2548.996	3651
2550.938	3651
2552.878	3678
2554.817	3620
2556.756	3620
2558.695	3680
2560.633	3697
2562.572	3703
2564.509	3661
2566.445	3692
2568.382	3676
2570.317	3666
2572.254	3643
2574.189	3673
2576.123	3769
2578.057	3695
2579.99	3700
2581.923	3746
2583.855	3659
2585.788	3631
2587.719	3659
2589.65	3703
2591.579	3700
2593.511	3687
2595.44	3639
2597.37	3689
2599.297	3699
2601.225	3680
2603.153	3707
2605.08	3744
2607.007	3590
2608.932	3669
2610.858	3690
2612.782	3621
2614.709	3663
2616.632	3650
2618.556	3698
2620.478	3659
2622.401	3760
2624.324	3685
2626.247	3671
2628.167	3686
2630.088	3625
2632.008	3703
2633.928	3729
2635.848	3636
2637.766	3737
2639.684	3689
2641.603	3684
2643.519	3677
2645.437	3767
2647.353	3748
2649.27	3752
2651.184	3633
2653.099	3790
2655.014	3716
2656.928	3748
2658.842	3770
2660.755	3663
2662.667	3656
2664.579	3772
2666.491	3662
2668.402	3658
2670.312	3734
2672.222	3682
2674.132	3666
2676.042	3592
2677.951	3659
2679.859	3692
2681.766	3665
2683.674	3751
2685.582	3725
2687.488	3685
2689.392	3716
2691.298	3701
2693.202	3640
2695.107	3677
2697.012	3647
2698.914	3657
2700.817	3729
2702.72	3633
2704.622	3680
2706.524	3673
2708.425	3709
2710.326	3646
2712.225	3627
2714.125	3549
2716.024	3662
2717.923	3622
2719.822	3635
2721.719	3602
2723.616	3638
2725.512	3556
2727.41	3690
2729.305	3647
2731.201	3659
2733.095	3629
2734.99	3650
2736.884	3578
2738.778	3686
2740.67	3591
2742.562	3687
2744.455	3668
2746.346	3697
2748.238	3657
2750.129	3651
2752.018	3596
2753.907	3661
2755.797	3689
2757.687	3658
2759.575	3679
2761.462	3591
2763.349	3611
2765.237	3671
2767.124	3669
2769.009	3614
2770.894	3555
2772.779	3694
2774.663	3678
2776.547	3619
2778.431	3614
2780.314	3612
2782.197	3644
2784.078	3706
2785.96	3527
2787.842	3668
2789.723	3699
2791.603	3706
2793.483	3610
2795.362	3628
2797.241	3647
2799.121	3633
2800.997	3639
2802.874	3591
2804.751	3703
2806.628	3645
2808.506	3632
2810.38	3624
2812.255	3559
2814.13	3662
2816.003	3624
2817.878	3611
2819.752	3624
2821.623	3604
2823.496	3591
2825.368	3674
2827.238	3641
2829.111	3611
2830.98	3556
2832.851	3621
2834.719	3695
2836.589	3662
2838.458	3638
2840.327	3664
2842.193	3651
2844.061	3681
2845.927	3673
2847.794	3669
2849.66	3659
2851.525	3709
2853.39	3744
2855.254	3800
2857.117	3763
2858.983	3734
2860.845	3914
2862.707	3738
2864.569	3903
2866.431	3919
2868.293	3926
2870.154	3938
2872.013	4026
2873.873	3933
2875.733	4044
2877.592	4001
2879.451	4212
2881.309	4211
2883.166	4175
2885.022	4300
2886.879	4274
2888.736	4208
2890.591	4332
2892.446	4198
2894.301	4386
2896.155	4294
2898.009	4316
2899.863	4279
2901.716	4295
2903.568	4393
2905.419	4148
2907.27	4286
2909.123	4334
2910.973	4253
2912.824	4357
2914.673	4348
2916.521	4421
2918.372	4463
2920.22	4601
2922.067	4481
2923.914	4574
2925.761	4662
2927.607	4763
2929.455	4785
2931.301	4771
2933.144	4827
2934.99	4894
2936.833	4906
2938.678	5015
2940.522	4938
2942.364	5166
2944.207	5204
2946.048	5276
2947.891	5246
2949.731	5224
2951.571	5200
2953.412	5260
2955.25	5167
2957.09	5100
2958.93	4978
2960.767	4935
2962.606	4899
2964.443	4789
2966.279	4883
2968.116	4816
2969.953	4708
2971.788	4715
2973.623	4536
2975.457	4559
2977.292	4495
2979.127	4568
2980.959	4489
2982.792	4341
2984.624	4391
2986.455	4393
2988.288	4350
2990.119	4359
2991.949	4281
2993.779	4124
2995.608	4264
2997.439	4225
2999.268	4127
3001.096	3992
3002.923	4085
3004.751	4110
3006.578	3944
3008.406	3831
3010.232	3805
3012.057	3836
3013.883	3809
3015.706	3774
3017.532	3794
3019.356	3706
3021.179	3714
3023.002	3625
3024.823	3699
3026.646	3675
3028.469	3626
3030.289	3655
3032.11	3586
3033.93	3604
3035.749	3580
3037.57	3555
3039.39	3536
3041.207	3590
3043.026	3507
3044.842	3547
3046.661	3544
3048.477	3492
3050.294	3567
3052.109	3606
3053.925	3558
3055.739	3469
3057.555	3551
3059.368	3495
3061.181	3570
3062.995	3542
3064.807	3607
3066.62	3563
3068.433	3584
3070.243	3526
3072.054	3589
3073.865	3589
3075.675	3508
3077.485	3526
3079.293	3496
3081.102	3531
3082.911	3467
3084.719	3462
3086.527	3472
3088.333	3413
3090.139	3412
3091.945	3380
3093.75	3372
3095.557	3407
3097.361	3481
3099.165	3424
3100.969	3425
3102.772	3525
3104.575	3487
3106.379	3411
3108.181	3442
3109.982	3400
3111.783	3466
3113.584	3393
3115.386	3320
3117.186	3408
3118.985	3455
3120.783	3417
3122.582	3371
3124.381	3384
3126.179	3402
3127.975	3364
3129.772	3384
3131.569	3398
3133.365	3344
3135.161	3385
3136.956	3372
3138.751	3422
3140.544	3285
3142.338	3392
3144.132	3355
3145.925	3399
3147.717	3408
3149.509	3342
3151.301	3415
3153.091	3383
3154.884	3377
3156.673	3391
3158.462	3324
3160.252	3332
3162.041	3302
3163.831	3360
3165.618	3324
3167.405	3385
3169.193	3340
3170.979	3418
3172.767	3385
3174.553	3345
3176.338	3344
3178.123	3382
3179.907	3328
3181.692	3355
3183.477	3328
3185.259	3313
3187.042	3296
3188.824	3350
3190.607	3422
3192.389	3397
3194.17	3354
3195.951	3236
3197.73	3276
3199.51	3365
3201.289	3312
3203.07	3336
3204.848	3358
3206.626	3280
3208.403	3396
3210.18	3358
3211.959	3321
3213.735	3344
3215.511	3321
3217.285	3393
3219.06	3369
3220.836	3352
3222.611	3327
3224.384	3339
3226.158	3328
3227.929	3356
3229.702	3378
3231.476	3345
3233.248	3369
3235.018	3464
3236.789	3374
3238.56	3312
3240.33	3390
3242.1	3396
3243.869	3316
3245.637	3400
3247.405	3384
3249.172	3327
3250.941	3372
3252.707	3390
3254.474	3330
3256.24	3326
3258.006	3410
3259.772	3340
3261.537	3350
3263.301	3365
3265.065	3401
3266.828	3331
3268.592	3382
3270.355	3418
3272.117	3374
3273.878	3467
3275.64	3302
3277.401	3415
3279.162	3379
3280.922	3402
3282.682	3356
3284.441	3377
3286.199	3366
3287.959	3392
3289.716	3427
3291.475	3362
3293.232	3437
3294.988	3328
3296.744	3401
3298.501	3406
3300.256	3501
3302.011	3427
3303.766	3415
3305.52	3508
3307.275	3388
3309.028	3420
3310.781	3424
3312.533	3402
3314.285	3377
3316.038	3406
3317.789	3354
3319.54	3443
3321.289	3355
3323.039	3347
3324.789	3329
3326.539	3344
3328.288	3408
3330.035	3417
3331.783	3355
3333.531	3425
3335.28	3365
3337.025	3351
3338.771	3370
3340.518	3347
3342.262	3327
3344.009	3364
3345.753	3352
3347.497	3386
3349.24	3306
3350.983	3356
3352.726	3285
3354.469	3372
3356.212	3407
3357.952	3368
3359.694	3312
3361.434	3316
3363.176	3285
3364.916	3417
3366.654	3317
3368.394	3285
3370.132	3361
3371.871	3310
3373.61	3280
3375.346	3216
3377.083	3209
3378.82	3288
3380.556	3336
3382.292	3310
3384.027	3199
3385.763	3285
3387.497	3219
3389.231	3297
3390.965	3325
3392.698	3282
3394.431	3198
3396.164	3286
3397.896	3179
3399.627	3203
3401.36	3197
3403.09	3285
3404.82	3232
3406.55	3253
3408.279	3141
3410.01	3230
3411.738	3270
3413.467	3202
3415.194	3230
3416.92	3235
3418.647	3232
3420.375	3247
3422.102	3225
3423.827	3212
3425.553	3194
3427.277	3226
3429.003	3221
3430.727	3169
3432.451	3173
3434.173	3222
3435.896	3104
3437.62	3113
3439.343	3154
3441.063	3164
3442.785	3181
3444.505	3168
3446.226	3134
3447.948	3100
3449.666	3147
3451.386	3116
3453.104	3111
3454.823	3116
3456.541	3153
3458.259	3075
3459.976	3056
3461.693	3089
3463.408	3168
3465.125	3128
3466.841	3145
3468.556	3077
3470.271	3120
3471.985	3211
3473.698	3042
3475.414	3046
3477.126	3099
3478.838	3129
3480.55	3157
3482.263	3075
3483.975	3025
3485.686	3097
3487.396	3080
3489.106	3054
3490.817	3055
3492.526	3053
3494.236	2970
3495.944	3055
3497.652	3061
3499.359	3038
3501.066	2976
3502.775	3034
3504.481	3070
3506.187	3017
3507.893	3049
3509.598	3013
3511.304	2999
3513.009	3004
3514.713	3011
3516.417	2961
3518.12	2921
3519.821	3014
3521.525	2880
3523.228	2951
3524.929	2947
3526.631	2892
3528.33	2935
3530.032	2949
3531.733	2900
3533.433	2995
3535.131	2858
3536.83	3015
3538.529	2953
3540.227	2934
3541.925	2941
3543.623	2905
3545.319	2892
3547.016	2982
3548.712	2853
3550.408	2939
3552.103	2858
3553.798	2884
3555.491	2918
3557.188	2878
3558.88	2924
3560.574	2917
3562.266	2854
3563.959	2887
3565.651	2879
3567.343	2860
3569.035	2837
3570.725	2846
3572.415	2797
3574.106	2804
3575.797	2894
3577.485	2898
3579.174	2841
3580.863	2855
3582.551	2743
3584.238	2835
3585.926	2879
3587.613	2835
3589.3	2749
3590.986	2824
3592.671	2797
3594.357	2794
3596.042	2800
3597.726	2741
3599.41	2829
3601.094	2776
3602.778	2740
3604.461	2760
3606.143	2727
3607.825	2797
3609.507	2715
3611.188	2722
3612.87	2705
3614.551	2763
3616.229	2706
3617.909	2743
3619.589	2661
3621.269	2751
3622.948	2694
3624.625	2664
3626.302	2677
3627.98	2718
3629.657	2711
3631.334	2704
3633.01	2746
3634.686	2665
3636.361	2658
3638.036	2676
3639.712	2705
3641.385	2672
3643.06	2649
3644.732	2608
3646.405	2656
3648.08	2679
3649.751	2597
3651.424	2694
3653.094	2576
3654.766	2662
3656.436	2708
3658.106	2635
3659.777	2641
3661.446	2577
3663.115	2630
3664.783	2647
3666.452	2624
3668.121	2539
3669.788	2655
3671.454	2582
3673.121	2633
3674.789	2615
3676.455	2597
3678.12	2633
3679.784	2558
3681.45	2587
3683.114	2547
3684.779	2593
3686.442	2555
3688.105	2644
3689.768	2612
3691.43	2568
3693.093	2632
3694.754	2566
3696.415	2605
3698.076	2572
3699.736	2546
3701.396	2566
3703.057	2509
3704.716	2505
3706.375	2501
3708.034	2505
3709.692	2570
3711.351	2558
3713.008	2585
3714.665	2493
3716.321	2552
3717.977	2563
3719.634	2615
3721.29	2490
3722.945	2511
3724.598	2454
3726.253	2578
3727.907	2596
3729.561	2548
3731.214	2607
3732.867	2542
3734.518	2443
3736.171	2492
3737.824	2572
3739.474	2525
3741.125	2488
3742.775	2475
3744.425	2476
3746.074	2506
3747.725	2545
3749.373	2543
3751.022	2461
3752.669	2558
3754.318	2453
3755.966	2447
3757.612	2493
3759.259	2476
3760.905	2474
3762.55	2436
3764.197	2552
3765.842	2470
3767.486	2509
3769.131	2475
3770.774	2484
3772.417	2469
3774.061	2501
3775.705	2438
3777.347	2470
3778.988	2367
3780.629	2456
3782.271	2471
3783.912	2458
3785.552	2438
3787.192	2485
3788.831	2454
3790.472	2498
3792.112	2494
3793.75	2457
3795.388	2420
3797.024	2489
3798.661	2382
3800.3	2442
3801.936	2372
3803.572	2410
3805.208	2441
3806.844	2423
3808.48	2475
3810.115	2388
3811.748	2426
3813.382	2451
3815.016	2383
3816.649	2353
3818.283	2430
3819.914	2355
3821.547	2358
3823.178	2414
3824.809	2382
3826.441	2398
3828.072	2476
3829.701	2368
3831.331	2405
3832.96	2428
3834.591	2459
3836.219	2407
3837.847	2423
3839.475	2375
3841.102	2351
3842.729	2375
3844.357	2417
3845.984	2390
3847.609	2373
3849.234	2391
3850.86	2371
3852.485	2324
3854.11	2364
3855.734	2367
3857.357	2364
3858.981	2365
3860.603	2371
3862.227	2401
3863.848	2359
3865.471	2363
3867.092	2323
3868.713	2290
3870.334	2290
3871.954	2405
3873.575	2303
3875.194	2346
3876.813	2339
3878.433	2356
3880.051	2358
3881.669	2340
3883.286	2266
3884.904	2390
3886.52	2295
3888.138	2363
3889.754	2374
3891.37	2277
3892.985	2318
3894.6	2357
3896.216	2363
3897.831	2337
3899.444	2398
3901.058	2314
3902.67	2351
3904.283	2359
3905.897	2307
3907.509	2248
3909.121	2266
3910.731	2326
3912.342	2355
3913.954	2335
3915.563	2335
3917.174	2284
3918.783	2326
3920.391	2315
3922.002	2302
3923.611	2326
3925.218	2277
3926.826	2286
3928.432	2310
3930.039	2325
3931.647	2289
3933.253	2270
3934.859	2341
3936.464	2293
3938.068	2378
3939.675	2275
3941.278	2285
3942.883	2250
3944.486	2276
3946.089	2274
3947.692	2296
3949.295	2317
3950.898	2278
3952.499	2240
3954.1	2240
3955.7	2305
3957.303	2295
3958.903	2253
3960.502	2267
3962.101	2246
3963.7	2253
3965.301	2318
3966.899	2254
3968.497	2301
3970.094	2221
3971.691	2270
3973.288	2199
3974.885	2270
3976.481	2197
3978.077	2264
3979.672	2240
3981.267	2232
3982.863	2268
3984.457	2240
3986.051	2235
3987.645	2235
3989.238	2306
3990.831	2177
3992.425	2172
3994.017	2239
3995.607	2266
3997.199	2229
3998.79	2224
4000.382	2195
4001.973	2195
4003.561	2215
4005.151	2237
4006.741	2231
4008.331	2192
4009.918	2232
4011.507	2216
4013.095	2210
4014.681	2196
4016.269	2258
4017.856	2099
4019.443	2200
4021.028	2173
4022.614	2178
4024.199	2241
4025.785	2156
4027.37	2162
4028.953	2208
4030.536	2149
4032.12	2141
4033.704	2202
4035.287	2145
4036.869	2189
4038.45	2169
4040.032	2149
4041.613	2167
4043.195	2149
4044.776	2188
4046.356	2094
4047.935	2128
4049.515	2069
4051.095	2145
4052.674	2006
4054.251	2133
4055.829	2211
4057.406	2078
4058.985	2127
4060.562	2171
4062.139	2104
4063.715	2141
4065.29	2102
4066.865	2120
4068.442	2135
4070.016	2057
4071.59	2143
4073.164	2088
4074.738	2087
4076.312	2130
4077.885	2118
4079.458	2155
4081.03	2104
4082.602	2105
4084.173	2107
4085.745	2108
4087.315	2042
4088.886	2055
4090.456	2119
4092.026	2182
4093.596	2090
4095.165	2088
4096.734	2105
4098.301	2096
4099.869	2077
4101.437	2038
4103.006	2096
4104.572	2090
4106.139	2107
4107.704	2123
4109.27	2100
4110.837	1984
4112.401	2090
4113.966	2077
4115.53	2078
4117.094	2044
4118.659	2010
4120.223	2039
4121.785	2081
4123.347	2036
4124.909	2082
4126.471	2055
4128.034	2051
4129.595	2059
4131.155	2067
4132.716	2075
4134.275	2051
4135.836	2035
4137.395	1986
4138.955	2038
4140.513	2029
4142.071	2046
4143.628	2001
4145.188	2008
4146.745	2040
4148.302	2043
4149.858	1999
4151.414	1943
4152.971	2057
4154.526	2076
4156.081	2022
4157.635	2025
4159.189	2051
4160.745	1954
4162.298	2007
4163.852	1988
4165.405	2041
4166.957	2013
4168.51	2038
4170.063	1979
4171.614	2020
4173.166	2012
4174.717	1984
4176.267	1964
4177.817	2001
4179.368	2039
4180.917	1951
4182.466	1964
4184.016	1965
4185.564	1943
4187.112	1969
4188.66	1994
4190.207	1997
4191.754	1982
4193.301	2012
4194.848	1986
4196.394	1963
4197.94	1962
4199.484	1932
4201.03	1941
4202.575	1970
4204.12	1948
4205.663	2014
4207.207	1960
4208.75	1954
4210.292	1954
4211.836	1957
4213.378	1906
4214.92	1953
4216.46	1962
4218.002	1960
4219.544	1917
4221.083	1958
4222.625	2001
4224.164	1956
4225.703	1914
4227.244	1953
4228.782	1907
4230.32	1946
4231.857	1937
4233.395	1926
4234.933	1937
4236.471	1895
4238.007	1911
4239.542	1893
4241.078	1906
4242.614	1950
4244.15	1920
4245.685	1913
4247.219	1842
4248.753	1932
4250.287	1888
4251.82	1976
4253.354	1959
4254.887	1990
4256.419	1897
4257.951	1926
4259.483	1918
4261.016	1894
4262.547	1935
4264.078	1973
4265.608	1875
4267.137	1941
4268.668	1888
4270.197	1855
4271.727	1902
4273.254	1900
4274.783	1938
4276.311	1882
4277.84	1866
4279.366	1879
4280.894	1953
4282.42	1882
4283.946	1926
4285.473	1874
4286.998	1890
4288.523	1915
4290.047	1891
4291.572	1848
4293.096	1908
4294.622	1873
4296.144	1847
4297.668	1888
4299.19	1854
4300.713	1860
4302.236	1809
4303.758	1895
4305.279	1920
4306.799	1847
4308.321	1892
4309.842	1820
4311.361	1863
4312.882	1851
4314.401	1878
