400.0961	3667
402.6185	3693
405.1424	3692
407.6635	3754
410.1838	3720
412.7035	3803
415.2225	3850
417.7388	3875
420.2585	3842
422.7754	3908
425.2917	3908
427.8072	4056
430.3221	3965
432.8363	4104
435.3498	4015
437.8626	4085
440.3727	4072
442.8841	4046
445.3969	4132
447.907	3985
450.4142	4003
452.9229	4008
455.4289	3970
457.9362	3996
460.4449	3933
462.9488	3967
465.454	3979
467.9566	3964
470.4604	4019
472.9637	3945
475.4662	4038
477.966	4008
480.4671	3979
482.9656	3948
485.4633	4052
487.9645	3906
490.4608	3996
492.9566	4026
495.4536	3990
497.948	4064
500.4437	3997
502.9387	4025
505.431	4081
507.9226	4027
510.4136	4026
512.9079	4049
515.3975	4094
517.8864	4043
520.3746	4005
522.8622	4020
525.3491	4067
527.8394	4145
530.3249	4151
532.8098	4124
535.2939	4198
537.7774	4031
540.2623	4055
542.7444	3990
545.2259	4166
547.7067	4066
550.1868	4143
552.6683	4114
555.147	4107
557.6231	4142
560.1005	4174
562.5773	4147
565.0534	4119
567.5308	4212
570.0056	4202
572.4776	4185
574.951	4300
577.4237	4233
579.8978	4276
582.3671	4362
584.8378	4309
587.3079	4357
589.7773	4373
592.244	4334
594.714	4276
597.1793	4307
599.6461	4279
602.1121	4186
604.5754	4250
607.0421	4343
609.5042	4307
611.9675	4217
614.4282	4248
616.8902	4242
619.3515	4214
621.8122	4295
624.2702	4268
626.7296	4152
629.1863	4186
631.6423	4256
634.1017	4110
636.5563	4122
639.0104	4235
641.4658	4162
643.9185	4151
646.3725	4166
648.8239	4173
651.2766	4256
653.7266	4218
656.176	4225
658.6247	4202
661.0748	4219
663.5242	4267
665.9709	4190
668.417	4294
670.8624	4326
673.3092	4300
675.7533	4302
678.1968	4208
680.6395	4337
683.0817	4355
685.5251	4224
687.9659	4344
690.4061	4353
692.8456	4317
695.2844	4414
697.7226	4361
700.1621	4383
702.599	4423
705.0332	4352
707.4688	4344
709.9036	4429
712.3399	4460
714.7735	4451
717.2044	4411
719.6367	4484
722.0683	4354
724.4993	4395
726.9296	4430
729.3593	4406
731.7883	4491
734.2147	4519
736.6423	4565
739.0714	4566
741.4958	4466
743.9216	4555
746.3447	4579
748.7691	4556
751.1929	4536
753.616	4580
756.0366	4642
758.4584	4602
760.8776	4550
763.2982	4678
765.718	4629
768.1373	4621
770.5539	4579
772.9698	4607
775.3871	4611
777.8038	4673
780.2178	4683
782.6332	4771
785.0459	4687
787.458	4731
789.8714	4615
792.2842	4620
794.6943	4605
797.1038	4645
799.5127	4659
801.9209	4667
804.3324	4663
806.7393	4740
809.1456	4566
811.5513	4714
813.9562	4702
816.3625	4841
818.7663	4627
821.1693	4752
823.5718	4706
825.9735	4715
828.3746	4752
830.7771	4645
833.177	4693
835.5762	4709
837.9747	4753
840.3727	4868
842.772	4768
845.1666	4784
847.5626	4728
849.958	4803
852.3527	4930
854.7488	4778
857.1403	4852
859.5331	4988
861.9253	4876
864.3168	4847
866.7057	4816
869.098	4823
871.4876	4885
873.8746	4878
876.263	4917
878.6487	4849
881.0378	4820
883.4243	4902
885.8081	4816
888.1933	4933
890.5759	4915
892.9598	4832
895.343	4819
897.7256	4819
900.1057	4902
902.4871	4799
904.8659	4826
907.246	4859
909.6254	4806
912.0023	4971
914.3786	4909
916.7562	5040
919.1331	4982
921.5074	5080
923.8831	5237
926.2562	5142
928.6287	5233
931.0005	5122
933.3757	5168
935.7462	5159
938.1162	5198
940.4855	5303
942.8542	5251
945.2242	5433
947.5916	5536
949.9584	5688
952.3266	5940
954.6921	6128
957.0571	6396
959.4233	6743
961.787	6805
964.15	6747
966.5125	6493
968.8742	6110
971.2354	5907
973.5959	5549
975.9559	5416
978.3151	5244
980.6738	5164
983.0338	5098
985.3912	5006
987.7461	5113
990.1022	4994
992.4578	4940
994.8127	4984
997.1689	5043
999.5207	5107
1001.874	5053
1004.226	5172
1006.576	5084
1008.929	5060
1011.28	5168
1013.628	5048
1015.977	5090
1018.324	5080
1020.674	4977
1023.019	5056
1025.366	5121
1027.713	5126
1030.056	5076
1032.399	5123
1034.746	5197
1037.087	5148
1039.431	5163
1041.771	5200
1044.113	5142
1046.454	5120
1048.793	5143
1051.133	5105
1053.471	5152
1055.807	5138
1058.146	5170
1060.483	5203
1062.818	5217
1065.153	5253
1067.489	5260
1069.822	5332
1072.156	5371
1074.488	5297
1076.82	5315
1079.15	5233
1081.48	5185
1083.814	5270
1086.143	5186
1088.471	5178
1090.799	5209
1093.126	5117
1095.452	5165
1097.78	5180
1100.105	5260
1102.43	5142
1104.754	5132
1107.077	5146
1109.4	5176
1111.722	5188
1114.044	5037
1116.365	5133
1118.685	5122
1121.005	5146
1123.324	5137
1125.643	5100
1127.961	5211
1130.278	5184
1132.595	5106
1134.911	5135
1137.226	5143
1139.541	5028
1141.854	5141
1144.167	5155
1146.482	5091
1148.793	5156
1151.105	5093
1153.414	5070
1155.725	5088
1158.033	5146
1160.344	5239
1162.651	5138
1164.959	5040
1167.265	5172
1169.572	5246
1171.878	5124
1174.184	5195
1176.488	5091
1178.79	5203
1181.094	5174
1183.396	5163
1185.699	5124
1188.001	5167
1190.301	5011
1192.6	5181
1194.9	5064
1197.2	5148
1199.497	5120
1201.794	5158
1204.09	5180
1206.387	5217
1208.684	5095
1210.978	5126
1213.272	5228
1215.565	5166
1217.858	5070
1220.15	5151
1222.443	5278
1224.734	5176
1227.024	5205
1229.313	5300
1231.602	5313
1233.892	5352
1236.18	5281
1238.467	5361
1240.754	5272
1243.04	5462
1245.325	5401
1247.612	5439
1249.896	5402
1252.178	5430
1254.461	5477
1256.743	5433
1259.027	5385
1261.308	5393
1263.587	5521
1265.867	5485
1268.146	5476
1270.425	5416
1272.703	5475
1274.981	5550
1277.256	5394
1279.532	5404
1281.808	5456
1284.083	5366
1286.358	5312
1288.63	5416
1290.904	5351
1293.175	5315
1295.449	5340
1297.719	5369
1299.99	5381
1302.259	5352
1304.529	5287
1306.798	5371
1309.065	5250
1311.333	5388
1313.599	5308
1315.866	5298
1318.131	5316
1320.396	5368
1322.66	5343
1324.925	5280
1327.187	5257
1329.448	5414
1331.711	5329
1333.974	5307
1336.234	5279
1338.493	5249
1340.752	5232
1343.01	5411
1345.269	5316
1347.526	5321
1349.784	5370
1352.04	5288
1354.295	5323
1356.552	5261
1358.806	5319
1361.059	5327
1363.312	5423
1365.564	5293
1367.818	5258
1370.069	5340
1372.318	5427
1374.568	5344
1376.817	5491
1379.066	5322
1381.316	5312
1383.564	5483
1385.809	5265
1388.056	5375
1390.301	5391
1392.549	5488
1394.793	5527
1397.036	5462
1399.279	5563
1401.522	5635
1403.763	5693
1406.007	5606
1408.248	5487
1410.487	5593
1412.727	5549
1414.965	5501
1417.205	5511
1419.442	5500
1421.68	5560
1423.915	5513
1426.152	5476
1428.388	5567
1430.623	5436
1432.857	5567
1435.091	5512
1437.323	5790
1439.556	5643
1441.789	5711
1444.019	5598
1446.25	5666
1448.48	5582
1450.708	5696
1452.938	5691
1455.167	5684
1457.394	5782
1459.62	5734
1461.846	5685
1464.073	5650
1466.299	5593
1468.523	5599
1470.746	5628
1472.969	5489
1475.191	5541
1477.415	5469
1479.636	5377
1481.858	5492
1484.078	5348
1486.298	5345
1488.518	5378
1490.736	5363
1492.954	5350
1495.169	5312
1497.386	5298
1499.602	5342
1501.819	5287
1504.034	5240
1506.248	5281
1508.462	5256
1510.675	5178
1512.888	5292
1515.1	5233
1517.311	5274
1519.522	5242
1521.732	5364
1523.942	5262
1526.151	5198
1528.36	5206
1530.566	5378
1532.773	5357
1534.98	5317
1537.187	5344
1539.392	5391
1541.596	5319
1543.801	5311
1546.005	5357
1548.208	5338
1550.411	5387
1552.612	5315
1554.814	5379
1557.013	5308
1559.212	5343
1561.414	5377
1563.612	5362
1565.811	5367
1568.007	5356
1570.203	5565
1572.403	5410
1574.598	5542
1576.792	5347
1578.988	5494
1581.181	5475
1583.376	5492
1585.568	5443
1587.761	5514
1589.952	5391
1592.143	5445
1594.333	5456
1596.524	5477
1598.715	5500
1600.903	5409
1603.091	5477
1605.278	5546
1607.466	5615
1609.652	5509
1611.838	5544
1614.023	5446
1616.207	5577
1618.391	5475
1620.576	5505
1622.759	5508
1624.941	5562
1627.123	5582
1629.304	5500
1631.484	5609
1633.664	5634
1635.844	5704
1638.022	5698
1640.201	5611
1642.38	5568
1644.556	5670
1646.732	5626
1648.908	5704
1651.084	5704
1653.257	5664
1655.433	5605
1657.607	5582
1659.779	5769
1661.951	5624
1664.122	5755
1666.295	5706
1668.467	5710
1670.635	5676
1672.805	5667
1674.973	5694
1677.142	5674
1679.31	5761
1681.478	5729
1683.644	5512
1685.81	5562
1687.975	5691
1690.142	5654
1692.305	5597
1694.468	5618
1696.632	5656
1698.794	5569
1700.957	5552
1703.119	5576
1705.279	5527
1707.439	5454
1709.598	5408
1711.758	5448
1713.917	5572
1716.075	5472
1718.231	5621
1720.388	5583
1722.543	5445
1724.702	5478
1726.856	5448
1729.01	5571
1731.164	5486
1733.317	5493
1735.471	5493
1737.623	5477
1739.774	5467
1741.925	5522
1744.075	5415
1746.225	5549
1748.376	5408
1750.524	5438
1752.672	5492
1754.82	5510
1756.965	5511
1759.113	5498
1761.259	5516
1763.405	5499
1765.549	5644
1767.694	5458
1769.836	5461
1771.981	5506
1774.123	5471
1776.264	5552
1778.405	5635
1780.546	5534
1782.687	5539
1784.827	5607
1786.966	5441
1789.103	5499
1791.242	5532
1793.381	5469
1795.517	5551
1797.653	5565
1799.788	5474
1801.923	5587
1804.057	5575
1806.193	5483
1808.326	5532
1810.457	5515
1812.59	5638
1814.721	5583
1816.855	5463
1818.984	5474
1821.113	5491
1823.244	5422
1825.372	5565
1827.499	5593
1829.63	5526
1831.756	5392
1833.882	5474
1836.007	5483
1838.132	5510
1840.26	5478
1842.384	5471
1844.507	5508
1846.63	5530
1848.752	5466
1850.875	5399
1852.996	5542
1855.118	5467
1857.238	5475
1859.358	5530
1861.477	5396
1863.597	5428
1865.715	5499
1867.832	5590
1869.948	5470
1872.064	5476
1874.181	5597
1876.297	5430
1878.411	5428
1880.526	5428
1882.639	5540
1884.752	5441
1886.865	5489
1888.977	5498
1891.089	5491
1893.2	5654
1895.308	5453
1897.42	5478
1899.53	5547
1901.639	5551
1903.745	5472
1905.853	5571
1907.962	5636
1910.067	5418
1912.174	5482
1914.278	5599
1916.383	5633
1918.486	5610
1920.592	5589
1922.694	5559
1924.797	5593
1926.898	5686
1929	5589
1931.102	5521
1933.203	5486
1935.301	5566
1937.401	5528
1939.499	5570
1941.598	5675
1943.697	5605
1945.793	5548
1947.888	5610
1949.985	5546
1952.08	5709
1954.176	5513
1956.269	5551
1958.364	5598
1960.457	5614
1962.549	5558
1964.642	5496
1966.733	5534
1968.823	5577
1970.913	5531
1973.005	5535
1975.093	5506
1977.184	5362
1979.271	5470
1981.359	5589
1983.446	5532
1985.532	5471
1987.619	5530
1989.705	5439
1991.789	5405
1993.874	5627
1995.956	5452
1998.041	5500
2000.123	5602
2002.206	5528
2004.287	5445
2006.368	5454
2008.449	5457
2010.529	5492
2012.609	5517
2014.688	5482
2016.766	5534
2018.843	5473
2020.922	5557
2022.999	5554
2025.074	5428
2027.15	5490
2029.225	5497
2031.299	5509
2033.375	5541
2035.447	5522
2037.52	5518
2039.592	5493
2041.664	5422
2043.736	5458
2045.807	5492
2047.876	5499
2049.947	5407
2052.015	5525
2054.086	5486
2056.153	5487
2058.221	5460
2060.288	5552
2062.353	5581
2064.42	5462
2066.486	5486
2068.55	5534
2070.614	5532
2072.678	5548
2074.741	5490
2076.805	5439
2078.866	5496
2080.929	5503
2082.99	5490
2085.049	5476
2087.109	5508
2089.17	5614
2091.228	5475
2093.286	5587
2095.344	5592
2097.4	5491
2099.46	5451
2101.516	5479
2103.572	5565
2105.626	5619
2107.679	5537
2109.735	5530
2111.788	5527
2113.841	5537
2115.894	5585
2117.945	5540
2119.997	5470
2122.049	5509
2124.1	5452
2126.148	5415
2128.197	5449
2130.246	5553
2132.296	5495
2134.342	5476
2136.39	5478
2138.437	5385
2140.483	5515
2142.527	5552
2144.574	5575
2146.619	5467
2148.661	5496
2150.705	5470
2152.747	5585
2154.792	5463
2156.832	5470
2158.874	5409
2160.915	5393
2162.954	5497
2164.995	5439
2167.034	5465
2169.072	5407
2171.111	5454
2173.148	5345
2175.186	5442
2177.223	5451
2179.258	5485
2181.294	5514
2183.328	5382
2185.362	5358
2187.398	5376
2189.431	5279
2191.463	5481
2193.495	5417
2195.528	5425
2197.56	5452
2199.59	5389
2201.62	5284
2203.649	5355
2205.678	5389
2207.708	5379
2209.737	5400
2211.764	5335
2213.791	5426
2215.817	5358
2217.843	5347
2219.87	5458
2221.895	5327
2223.919	5409
2225.942	5337
2227.966	5339
2229.988	5393
2232.012	5255
2234.032	5399
2236.054	5328
2238.074	5272
2240.095	5312
2242.116	5351
2244.135	5410
2246.153	5295
2248.171	5422
2250.188	5431
2252.208	5317
2254.223	5337
2256.239	5310
2258.255	5369
2260.269	5265
2262.283	5305
2264.3	5321
2266.312	5346
2268.325	5318
2270.336	5387
2272.349	5312
2274.362	5468
2276.372	5426
2278.383	5349
2280.392	5339
2282.402	5408
2284.409	5290
2286.418	5352
2288.427	5367
2290.433	5329
2292.441	5437
2294.446	5431
2296.453	5378
2298.459	5341
2300.463	5324
2302.466	5448
2304.471	5433
2306.475	5382
2308.477	5362
2310.478	5245
2312.481	5368
2314.481	5296
2316.481	5231
2318.482	5254
2320.482	5314
2322.48	5328
2324.48	5355
2326.478	5272
2328.476	5320
2330.473	5291
2332.469	5206
2334.465	5254
2336.46	5256
2338.454	5341
2340.45	5283
2342.444	5289
2344.437	5317
2346.43	5279
2348.421	5201
2350.414	5299
2352.405	5343
2354.396	5268
2356.386	5276
2358.376	5272
2360.366	5227
2362.355	5269
2364.343	5251
2366.331	5286
2368.317	5184
2370.304	5226
2372.292	5287
2374.278	5263
2376.262	5283
2378.247	5310
2380.23	5238
2382.216	5307
2384.199	5195
2386.181	5267
2388.163	5245
2390.144	5209
2392.127	5331
2394.107	5176
2396.087	5112
2398.066	5204
2400.046	5189
2402.023	5224
2404.004	5166
2405.981	5138
2407.957	5196
2409.934	5205
2411.91	5200
2413.886	5192
2415.862	5134
2417.836	5211
2419.809	5170
2421.784	5131
2423.756	5131
2425.73	5178
2427.701	5153
2429.672	5252
2431.644	5222
2433.615	5213
2435.586	5223
2437.555	5265
2439.523	5137
2441.491	5118
2443.459	5201
2445.428	5157
2447.395	5229
2449.361	5176
2451.327	5161
2453.292	5128
2455.257	5114
2457.223	5228
2459.187	5094
2461.15	5219
2463.113	5179
2465.076	5205
2467.039	5240
2468.999	5180
2470.96	5125
2472.921	5098
2474.881	5197
2476.841	5084
2478.8	5031
2480.759	5082
2482.717	5165
2484.675	5070
2486.63	5083
2488.589	5100
2490.545	5081
2492.5	5132
2494.455	5036
2496.408	5193
2498.364	5022
2500.318	5146
2502.27	5050
2504.223	5040
2506.174	5080
2508.126	5088
2510.078	4999
2512.03	5132
2513.979	5100
2515.927	5051
2517.877	4992
2519.826	5067
2521.775	5115
2523.722	5058
2525.668	5133
2527.616	5040
2529.561	5116
2531.508	5077
2533.452	5088
2535.398	5080
2537.342	5115
2539.284	5070
2541.229	5088
2543.173	5064
2545.114	5007
2547.055	5058
2548.996	5089
2550.938	4965
2552.878	5063
2554.817	5058
2556.756	4994
2558.695	5095
2560.633	4992
2562.572	4948
2564.509	4952
2566.445	5042
2568.382	5079
2570.317	5047
2572.254	5102
2574.189	5093
2576.123	5058
2578.057	5048
2579.99	5049
2581.923	5140
2583.855	5031
2585.788	5132
2587.719	5074
2589.65	5087
2591.579	5071
2593.511	5066
2595.44	5000
2597.37	5024
2599.297	5080
2601.225	5091
2603.153	5033
2605.08	5029
2607.007	5050
2608.932	5022
2610.858	5125
2612.782	5060
2614.709	5179
2616.632	5154
2618.556	5130
2620.478	4961
2622.401	5185
2624.324	5129
2626.247	5041
2628.167	5069
2630.088	5031
2632.008	5023
2633.928	5149
2635.848	5025
2637.766	5008
2639.684	5106
2641.603	5011
2643.519	5046
2645.437	5005
2647.353	5060
2649.27	5014
2651.184	4976
2653.099	5005
2655.014	4971
2656.928	5022
2658.842	5034
2660.755	5047
2662.667	5034
2664.579	5108
2666.491	5058
2668.402	4953
2670.312	4996
2672.222	5013
2674.132	5044
2676.042	5040
2677.951	5082
2679.859	4919
2681.766	4973
2683.674	4999
2685.582	5042
2687.488	5045
2689.392	5058
2691.298	5078
2693.202	4995
2695.107	4975
2697.012	4997
2698.914	5082
2700.817	4893
2702.72	5019
2704.622	5008
2706.524	4943
2708.425	5011
2710.326	5059
2712.225	5020
2714.125	4913
2716.024	5014
2717.923	4993
2719.822	5019
2721.719	4890
2723.616	4876
2725.512	5034
2727.41	4905
2729.305	4890
2731.201	4930
2733.095	5007
2734.99	4908
2736.884	4894
2738.778	4969
2740.67	4949
2742.562	4949
2744.455	4979
2746.346	4919
2748.238	5003
2750.129	4855
2752.018	4945
2753.907	4953
2755.797	4990
2757.687	4971
2759.575	4901
2761.462	4947
2763.349	4940
2765.237	4938
2767.124	4903
2769.009	4871
2770.894	4909
2772.779	4905
2774.663	4856
2776.547	4898
2778.431	4889
2780.314	4927
2782.197	4931
2784.078	5018
2785.96	4940
2787.842	4895
2789.723	4917
2791.603	4889
2793.483	4924
2795.362	4893
2797.241	4991
2799.121	4943
2800.997	4787
2802.874	5025
2804.751	4844
2806.628	4862
2808.506	4981
2810.38	4918
2812.255	4962
2814.13	4869
2816.003	4957
2817.878	4855
2819.752	4883
2821.623	4897
2823.496	4975
2825.368	4963
2827.238	4886
2829.111	4922
2830.98	4869
2832.851	4891
2834.719	4890
2836.589	4909
2838.458	4831
2840.327	5010
2842.193	4905
2844.061	4954
2845.927	4969
2847.794	4892
2849.66	4915
2851.525	5018
2853.39	4869
2855.254	4964
2857.117	5007
2858.983	5069
2860.845	4992
2862.707	5068
2864.569	5112
2866.431	5055
2868.293	5161
2870.154	5362
2872.013	5141
2873.873	5264
2875.733	5339
2877.592	5350
2879.451	5431
2881.309	5465
2883.166	5577
2885.022	5570
2886.879	5533
2888.736	5570
2890.591	5669
2892.446	5577
2894.301	5649
2896.155	5563
2898.009	5559
2899.863	5503
2901.716	5549
2903.568	5696
2905.419	5518
2907.27	5555
2909.123	5612
2910.973	5462
2912.824	5630
2914.673	5628
2916.521	5723
2918.372	5735
2920.22	5842
2922.067	5852
2923.914	5898
2925.761	5830
2927.607	6028
2929.455	6021
2931.301	6228
2933.144	6183
2934.99	6161
2936.833	6170
2938.678	6227
2940.522	6382
2942.364	6372
2944.207	6495
2946.048	6465
2947.891	6573
2949.731	6539
2951.571	6501
2953.412	6569
2955.25	6434
2957.09	6401
2958.93	6290
2960.767	6272
2962.606	6181
2964.443	6173
2966.279	6059
2968.116	6025
2969.953	5957
2971.788	5898
2973.623	5787
2975.457	5726
2977.292	5695
2979.127	5698
2980.959	5665
2982.792	5614
2984.624	5704
2986.455	5753
2988.288	5529
2990.119	5526
2991.949	5469
2993.779	5483
2995.608	5480
2997.439	5437
2999.268	5394
3001.096	5314
3002.923	5202
3004.751	5212
3006.578	5150
3008.406	5132
3010.232	5089
3012.057	5135
3013.883	4895
3015.706	4989
3017.532	4910
3019.356	4802
3021.179	4844
3023.002	4729
3024.823	4879
3026.646	4692
3028.469	4692
3030.289	4846
3032.11	4738
3033.93	4706
3035.749	4778
3037.57	4709
3039.39	4655
3041.207	4666
3043.026	4764
3044.842	4658
3046.661	4641
3048.477	4718
3050.294	4669
3052.109	4641
3053.925	4614
3055.739	4572
3057.555	4715
3059.368	4688
3061.181	4660
3062.995	4685
3064.807	4718
3066.62	4704
3068.433	4732
3070.243	4669
3072.054	4556
3073.865	4665
3075.675	4662
3077.485	4714
3079.293	4679
3081.102	4655
3082.911	4616
3084.719	4576
3086.527	4592
3088.333	4635
3090.139	4515
3091.945	4618
3093.75	4582
3095.557	4506
3097.361	4529
3099.165	4558
3100.969	4553
3102.772	4521
3104.575	4484
3106.379	4527
3108.181	4489
3109.982	4517
3111.783	4468
3113.584	4505
3115.386	4400
3117.186	4518
3118.985	4359
3120.783	4459
3122.582	4508
3124.381	4400
3126.179	4425
3127.975	4411
3129.772	4502
3131.569	4415
3133.365	4435
3135.161	4480
3136.956	4458
3138.751	4459
3140.544	4427
3142.338	4437
3144.132	4452
3145.925	4392
3147.717	4453
3149.509	4441
3151.301	4356
3153.091	4487
3154.884	4427
3156.673	4396
3158.462	4407
3160.252	4470
3162.041	4524
3163.831	4439
3165.618	4389
3167.405	4380
3169.193	4393
3170.979	4294
3172.767	4347
3174.553	4464
3176.338	4380
3178.123	4311
3179.907	4321
3181.692	4377
3183.477	4335
3185.259	4439
3187.042	4427
3188.824	4405
3190.607	4418
3192.389	4441
3194.17	4369
3195.951	4446
3197.73	4358
3199.51	4378
3201.289	4297
3203.07	4320
3204.848	4470
3206.626	4281
3208.403	4433
3210.18	4378
3211.959	4303
3213.735	4334
3215.511	4466
3217.285	4289
3219.06	4452
3220.836	4454
3222.611	4423
3224.384	4363
3226.158	4368
3227.929	4284
3229.702	4420
3231.476	4321
3233.248	4438
3235.018	4290
3236.789	4306
3238.56	4294
3240.33	4333
3242.1	4386
3243.869	4445
3245.637	4504
3247.405	4393
3249.172	4345
3250.941	4291
3252.707	4368
3254.474	4368
3256.24	4388
3258.006	4426
3259.772	4374
3261.537	4427
3263.301	4375
3265.065	4360
3266.828	4421
3268.592	4405
3270.355	4377
3272.117	4385
3273.878	4364
3275.64	4433
3277.401	4341
3279.162	4438
3280.922	4352
3282.682	4406
3284.441	4379
3286.199	4352
3287.959	4312
3289.716	4352
3291.475	4349
3293.232	4426
3294.988	4409
3296.744	4282
3298.501	4362
3300.256	4366
3302.011	4354
3303.766	4379
3305.52	4420
3307.275	4436
3309.028	4366
3310.781	4455
3312.533	4517
3314.285	4361
3316.038	4451
3317.789	4317
3319.54	4442
3321.289	4334
3323.039	4352
3324.789	4373
3326.539	4356
3328.288	4367
3330.035	4436
3331.783	4349
3333.531	4383
3335.28	4377
3337.025	4400
3338.771	4272
3340.518	4311
3342.262	4268
3344.009	4424
3345.753	4363
3347.497	4269
3349.24	4389
3350.983	4358
3352.726	4253
3354.469	4360
3356.212	4272
3357.952	4373
3359.694	4301
3361.434	4271
3363.176	4195
3364.916	4232
3366.654	4281
3368.394	4315
3370.132	4336
3371.871	4247
3373.61	4310
3375.346	4351
3377.083	4263
3378.82	4241
3380.556	4261
3382.292	4319
3384.027	4223
3385.763	4152
3387.497	4256
3389.231	4286
3390.965	4216
3392.698	4244
3394.431	4148
3396.164	4116
3397.896	4225
3399.627	4260
3401.36	4193
3403.09	4081
3404.82	4210
3406.55	4255
3408.279	4189
3410.01	4244
3411.738	4195
3413.467	4128
3415.194	4167
3416.92	4123
3418.647	4134
3420.375	4046
3422.102	4180
3423.827	4108
3425.553	4194
3427.277	4184
3429.003	4264
3430.727	4126
3432.451	4169
3434.173	4127
3435.896	4090
3437.62	4125
3439.343	4142
3441.063	4120
3442.785	4121
3444.505	3994
3446.226	4103
3447.948	4131
3449.666	4046
3451.386	4162
3453.104	4046
3454.823	4093
3456.541	4047
3458.259	4031
3459.976	4114
3461.693	4028
3463.408	4108
3465.125	3990
3466.841	4038
3468.556	3880
3470.271	3991
3471.985	4052
3473.698	3969
3475.414	4043
3477.126	4020
3478.838	3959
3480.55	3989
3482.263	3973
3483.975	3967
3485.686	3878
3487.396	3971
3489.106	3943
3490.817	3944
3492.526	3963
3494.236	3850
3495.944	3858
3497.652	3968
3499.359	3935
3501.066	3863
3502.775	3865
3504.481	3794
3506.187	3779
3507.893	3901
3509.598	3849
3511.304	3974
3513.009	3771
3514.713	3804
3516.417	3824
3518.12	3806
3519.821	3858
3521.525	3838
3523.228	3759
3524.929	3842
3526.631	3786
3528.33	3828
3530.032	3779
3531.733	3862
3533.433	3726
3535.131	3777
3536.83	3773
3538.529	3802
3540.227	3801
3541.925	3779
3543.623	3733
3545.319	3718
3547.016	3646
3548.712	3704
3550.408	3721
3552.103	3738
3553.798	3725
3555.491	3758
3557.188	3651
3558.88	3779
3560.574	3703
3562.266	3730
3563.959	3716
3565.651	3702
3567.343	3681
3569.035	3658
3570.725	3692
3572.415	3683
3574.106	3619
3575.797	3645
3577.485	3716
3579.174	3673
3580.863	3664
3582.551	3666
3584.238	3683
3585.926	3584
3587.613	3686
3589.3	3712
3590.986	3558
3592.671	3583
3594.357	3550
3596.042	3632
3597.726	3588
3599.41	3645
3601.094	3533
3602.778	3635
3604.461	3559
3606.143	3504
3607.825	3563
3609.507	3556
3611.188	3550
3612.87	3554
3614.551	3556
3616.229	3511
3617.909	3487
3619.589	3509
3621.269	3471
3622.948	3581
3624.625	3549
3626.302	3491
3627.98	3491
3629.657	3471
3631.334	3472
3633.01	3482
3634.686	3472
3636.361	3520
3638.036	3500
3639.712	3462
3641.385	3469
3643.06	3481
3644.732	3409
3646.405	3466
3648.08	3387
3649.751	3383
3651.424	3447
3653.094	3436
3654.766	3414
3656.436	3427
3658.106	3398
3659.777	3433
3661.446	3449
3663.115	3311
3664.783	3348
3666.452	3441
3668.121	3399
3669.788	3353
3671.454	3391
3673.121	3354
3674.789	3349
3676.455	3330
3678.12	3407
3679.784	3390
3681.45	3325
3683.114	3339
3684.779	3253
3686.442	3283
3688.105	3318
3689.768	3326
3691.43	3337
3693.093	3286
3694.754	3358
3696.415	3278
3698.076	3318
3699.736	3296
3701.396	3275
3703.057	3270
3704.716	3247
3706.375	3293
3708.034	3324
3709.692	3258
3711.351	3267
3713.008	3258
3714.665	3244
3716.321	3313
3717.977	3294
3719.634	3339
3721.29	3276
3722.945	3286
3724.598	3204
3726.253	3315
3727.907	3257
3729.561	3293
3731.214	3214
3732.867	3248
3734.518	3202
3736.171	3311
3737.824	3257
3739.474	3229
3741.125	3227
3742.775	3210
3744.425	3203
3746.074	3219
3747.725	3209
3749.373	3220
3751.022	3306
3752.669	3211
3754.318	3265
3755.966	3221
3757.612	3167
3759.259	3190
3760.905	3235
3762.55	3223
3764.197	3237
3765.842	3163
3767.486	3163
3769.131	3181
3770.774	3226
3772.417	3202
3774.061	3178
3775.705	3191
3777.347	3210
3778.988	3095
3780.629	3214
3782.271	3137
3783.912	3078
3785.552	3102
3787.192	3072
3788.831	3223
3790.472	3142
3792.112	3107
3793.75	3066
3795.388	3159
3797.024	3151
3798.661	3097
3800.3	3101
3801.936	3175
3803.572	3100
3805.208	3147
3806.844	3102
3808.48	3088
3810.115	3124
3811.748	3137
3813.382	3053
3815.016	3108
3816.649	3059
3818.283	3101
3819.914	3115
3821.547	3106
3823.178	3069
3824.809	3116
3826.441	3044
3828.072	3163
3829.701	3038
3831.331	3088
3832.96	3053
3834.591	3072
3836.219	3056
3837.847	3076
3839.475	3084
3841.102	3057
3842.729	3028
3844.357	3038
3845.984	3042
3847.609	2997
3849.234	3003
3850.86	3067
3852.485	3060
3854.11	3064
3855.734	3007
3857.357	2966
3858.981	2927
3860.603	3042
3862.227	3045
3863.848	2985
3865.471	2998
3867.092	3011
3868.713	2998
3870.334	2971
3871.954	3067
3873.575	3012
3875.194	3017
3876.813	2951
3878.433	3018
3880.051	2901
3881.669	3006
3883.286	2994
3884.904	3021
3886.52	2918
3888.138	3075
3889.754	3027
3891.37	2982
3892.985	2895
3894.6	3032
3896.216	2949
3897.831	2926
3899.444	2901
3901.058	2946
3902.67	2900
3904.283	2942
3905.897	2951
3907.509	2892
3909.121	2984
3910.731	2947
3912.342	2930
3913.954	2927
3915.563	2994
3917.174	2919
3918.783	2962
3920.391	2956
3922.002	2989
3923.611	2874
3925.218	2900
3926.826	2900
3928.432	2913
3930.039	2943
3931.647	2933
3933.253	2968
3934.859	2900
3936.464	2884
3938.068	2896
3939.675	2882
3941.278	2911
3942.883	2893
3944.486	2994
3946.089	2932
3947.692	2958
3949.295	2924
3950.898	2949
3952.499	2861
3954.1	2946
3955.7	2860
3957.303	2928
3958.903	2852
3960.502	2987
3962.101	2900
3963.7	2892
3965.301	2885
3966.899	2832
3968.497	2859
3970.094	2845
3971.691	2860
3973.288	2828
3974.885	2806
3976.481	2805
3978.077	2811
3979.672	2754
3981.267	2912
3982.863	2849
3984.457	2867
3986.051	2826
3987.645	2744
3989.238	2835
3990.831	2787
3992.425	2794
3994.017	2787
3995.607	2868
3997.199	2789
3998.79	2795
4000.382	2853
4001.973	2820
4003.561	2807
4005.151	2819
4006.741	2789
4008.331	2857
4009.918	2763
4011.507	2787
4013.095	2793
4014.681	2651
4016.269	2760
4017.856	2755
4019.443	2712
4021.028	2721
4022.614	2733
4024.199	2719
4025.785	2725
4027.37	2759
4028.953	2698
4030.536	2714
4032.12	2732
4033.704	2712
4035.287	2731
4036.869	2795
4038.45	2769
4040.032	2682
4041.613	2654
4043.195	2675
4044.776	2740
4046.356	2778
4047.935	2651
4049.515	2707
4051.095	2641
4052.674	2645
4054.251	2623
4055.829	2684
4057.406	2671
4058.985	2619
4060.562	2696
4062.139	2627
4063.715	2626
4065.29	2646
4066.865	2727
4068.442	2626
4070.016	2681
4071.59	2641
4073.164	2656
4074.738	2574
4076.312	2638
4077.885	2640
4079.458	2604
4081.03	2612
4082.602	2628
4084.173	2603
4085.745	2653
4087.315	2650
4088.886	2649
4090.456	2668
4092.026	2660
4093.596	2638
4095.165	2596
4096.734	2617
4098.301	2625
4099.869	2615
4101.437	2667
4103.006	2586
4104.572	2601
4106.139	2629
4107.704	2593
4109.27	2622
4110.837	2589
4112.401	2632
4113.966	2635
4115.53	2626
4117.094	2643
4118.659	2634
4120.223	2695
4121.785	2585
4123.347	2577
4124.909	2610
4126.471	2522
4128.034	2598
4129.595	2595
4131.155	2569
4132.716	2532
4134.275	2508
4135.836	2579
4137.395	2584
4138.955	2537
4140.513	2526
4142.071	2565
4143.628	2549
4145.188	2503
4146.745	2502
4148.302	2522
4149.858	2473
4151.414	2577
4152.971	2498
4154.526	2525
4156.081	2522
4157.635	2484
4159.189	2502
4160.745	2480
4162.298	2463
4163.852	2540
4165.405	2513
4166.957	2510
4168.51	2451
4170.063	2510
4171.614	2492
4173.166	2530
4174.717	2523
4176.267	2450
4177.817	2501
4179.368	2406
4180.917	2478
4182.466	2467
4184.016	2436
4185.564	2503
4187.112	2404
4188.66	2425
4190.207	2506
4191.754	2464
4193.301	2451
4194.848	2444
4196.394	2378
4197.94	2479
4199.484	2442
4201.03	2334
4202.575	2415
4204.12	2470
4205.663	2387
4207.207	2362
4208.75	2439
4210.292	2439
4211.836	2443
4213.378	2371
4214.92	2380
4216.46	2393
4218.002	2405
4219.544	2460
4221.083	2458
4222.625	2396
4224.164	2390
4225.703	2372
4227.244	2406
4228.782	2387
4230.32	2406
4231.857	2387
4233.395	2386
4234.933	2383
4236.471	2391
4238.007	2352
4239.542	2399
4241.078	2389
4242.614	2407
4244.15	2349
4245.685	2372
4247.219	2389
4248.753	2372
4250.287	2372
4251.82	2410
4253.354	2388
4254.887	2350
4256.419	2336
4257.951	2353
4259.483	2346
4261.016	2315
4262.547	2349
4264.078	2360
4265.608	2391
4267.137	2318
4268.668	2302
4270.197	2364
4271.727	2401
4273.254	2327
4274.783	2378
4276.311	2325
4277.84	2305
4279.366	2276
4280.894	2327
4282.42	2338
4283.946	2385
4285.473	2296
4286.998	2369
4288.523	2336
4290.047	2326
4291.572	2355
4293.096	2323
4294.622	2308
4296.144	2289
4297.668	2260
4299.19	2329
4300.713	2325
4302.236	2243
4303.758	2311
4305.279	2340
4306.799	2348
4308.321	2217
4309.842	2261
4311.361	2313
4312.882	2350
4314.401	2290
