400.0961	3726
402.6185	3642
405.1424	3714
407.6635	3744
410.1838	3796
412.7035	3768
415.2225	3773
417.7388	3761
420.2585	3819
422.7754	3762
425.2917	3893
427.8072	3918
430.3221	3989
432.8363	3920
435.3498	4001
437.8626	3943
440.3727	3866
442.8841	3929
445.3969	3931
447.907	3937
450.4142	3961
452.9229	3953
455.4289	3935
457.9362	3893
460.4449	3851
462.9488	3910
465.454	3937
467.9566	3862
470.4604	3932
472.9637	3869
475.4662	4022
477.966	4034
480.4671	3889
482.9656	3862
485.4633	4090
487.9645	3988
490.4608	4089
492.9566	4010
495.4536	4018
497.948	3987
500.4437	4021
502.9387	4042
505.431	4126
507.9226	4044
510.4136	4078
512.9079	4009
515.3975	4072
517.8864	4077
520.3746	4017
522.8622	4095
525.3491	4129
527.8394	4058
530.3249	4124
532.8098	4081
535.2939	4078
537.7774	4178
540.2623	4178
542.7444	4141
545.2259	4114
547.7067	4128
550.1868	4149
552.6683	4161
555.147	4110
557.6231	4095
560.1005	4117
562.5773	4155
565.0534	4143
567.5308	4196
570.0056	4149
572.4776	4148
574.951	4215
577.4237	4278
579.8978	4297
582.3671	4330
584.8378	4263
587.3079	4257
589.7773	4307
592.244	4285
594.714	4285
597.1793	4280
599.6461	4245
602.1121	4219
604.5754	4222
607.0421	4253
609.5042	4250
611.9675	4225
614.4282	4285
616.8902	4235
619.3515	4270
621.8122	4186
624.2702	4164
626.7296	4150
629.1863	4139
631.6423	4121
634.1017	4092
636.5563	4193
639.0104	4252
641.4658	4242
643.9185	4246
646.3725	4234
648.8239	4251
651.2766	4250
653.7266	4338
656.176	4218
658.6247	4208
661.0748	4330
663.5242	4361
665.9709	4312
668.417	4277
670.8624	4303
673.3092	4318
675.7533	4355
678.1968	4368
680.6395	4392
683.0817	4390
685.5251	4322
687.9659	4372
690.4061	4406
692.8456	4301
695.2844	4326
697.7226	4492
700.1621	4389
702.599	4455
705.0332	4430
707.4688	4397
709.9036	4395
712.3399	4516
714.7735	4406
717.2044	4418
719.6367	4457
722.0683	4484
724.4993	4484
726.9296	4544
729.3593	4438
731.7883	4499
734.2147	4414
736.6423	4580
739.0714	4539
741.4958	4625
743.9216	4618
746.3447	4573
748.7691	4672
751.1929	4565
753.616	4480
756.0366	4702
758.4584	4738
760.8776	4582
763.2982	4638
765.718	4707
768.1373	4681
770.5539	4674
772.9698	4632
775.3871	4616
777.8038	4638
780.2178	4712
782.6332	4648
785.0459	4725
787.458	4634
789.8714	4679
792.2842	4737
794.6943	4663
797.1038	4662
799.5127	4700
801.9209	4618
804.3324	4601
806.7393	4727
809.1456	4724
811.5513	4784
813.9562	4674
816.3625	4682
818.7663	4782
821.1693	4832
823.5718	4838
825.9735	4717
828.3746	4706
830.7771	4714
833.177	4760
835.5762	4772
837.9747	4829
840.3727	4781
842.772	4763
845.1666	4860
847.5626	4875
849.958	4894
852.3527	4933
854.7488	4780
857.1403	4845
859.5331	4909
861.9253	4871
864.3168	4862
866.7057	4759
869.098	4775
871.4876	4805
873.8746	4846
876.263	4899
878.6487	4879
881.0378	4862
883.4243	4734
885.8081	4874
888.1933	4810
890.5759	4820
892.9598	4890
895.343	4866
897.7256	4852
900.1057	4922
902.4871	4802
904.8659	4843
907.246	4902
909.6254	4919
912.0023	4978
914.3786	4862
916.7562	4865
919.1331	5044
921.5074	5030
923.8831	5160
926.2562	5054
928.6287	5136
931.0005	5059
933.3757	5079
935.7462	5062
938.1162	5076
940.4855	5127
942.8542	5096
945.2242	5179
947.5916	5286
949.9584	5425
952.3266	5590
954.6921	5747
957.0571	5919
959.4233	6078
961.787	6212
964.15	6132
966.5125	5924
968.8742	5643
971.2354	5456
973.5959	5349
975.9559	5266
978.3151	5202
980.6738	5166
983.0338	5038
985.3912	5058
987.7461	4939
990.1022	4993
992.4578	4899
994.8127	5083
997.1689	5059
999.5207	5058
1001.874	5045
1004.226	5135
1006.576	4930
1008.929	5044
1011.28	5071
1013.628	5037
1015.977	5027
1018.324	4983
1020.674	5049
1023.019	5097
1025.366	5068
1027.713	4988
1030.056	5117
1032.399	5104
1034.746	5115
1037.087	5148
1039.431	5086
1041.771	5139
1044.113	5173
1046.454	5157
1048.793	5131
1051.133	5098
1053.471	5127
1055.807	5162
1058.146	5275
1060.483	5165
1062.818	5194
1065.153	5265
1067.489	5170
1069.822	5162
1072.156	5272
1074.488	5218
1076.82	5288
1079.15	5128
1081.48	5244
1083.814	5189
1086.143	5104
1088.471	5166
1090.799	5133
1093.126	5167
1095.452	5168
1097.78	5049
1100.105	5163
1102.43	5148
1104.754	5197
1107.077	5146
1109.4	5152
1111.722	5214
1114.044	5167
1116.365	5169
1118.685	5166
1121.005	5244
1123.324	5067
1125.643	5185
1127.961	5173
1130.278	5130
1132.595	5155
1134.911	5139
1137.226	5179
1139.541	5266
1141.854	5267
1144.167	5124
1146.482	5172
1148.793	5202
1151.105	5197
1153.414	5167
1155.725	5134
1158.033	5245
1160.344	5156
1162.651	5181
1164.959	5093
1167.265	5101
1169.572	5093
1171.878	5150
1174.184	5239
1176.488	5094
1178.79	5328
1181.094	5269
1183.396	5212
1185.699	5274
1188.001	5191
1190.301	5211
1192.6	5237
1194.9	5165
1197.2	5228
1199.497	5137
1201.794	5250
1204.09	5160
1206.387	5179
1208.684	5214
1210.978	5296
1213.272	5303
1215.565	5122
1217.858	5152
1220.15	5392
1222.443	5226
1224.734	5219
1227.024	5250
1229.313	5337
1231.602	5218
1233.892	5402
1236.18	5310
1238.467	5340
1240.754	5463
1243.04	5333
1245.325	5399
1247.612	5494
1249.896	5419
1252.178	5343
1254.461	5471
1256.743	5344
1259.027	5513
1261.308	5448
1263.587	5455
1265.867	5381
1268.146	5395
1270.425	5464
1272.703	5450
1274.981	5426
1277.256	5519
1279.532	5434
1281.808	5349
1284.083	5338
1286.358	5400
1288.63	5374
1290.904	5272
1293.175	5341
1295.449	5377
1297.719	5309
1299.99	5255
1302.259	5344
1304.529	5218
1306.798	5288
1309.065	5406
1311.333	5307
1313.599	5397
1315.866	5351
1318.131	5389
1320.396	5405
1322.66	5313
1324.925	5278
1327.187	5340
1329.448	5436
1331.711	5302
1333.974	5344
1336.234	5360
1338.493	5388
1340.752	5510
1343.01	5446
1345.269	5368
1347.526	5326
1349.784	5328
1352.04	5450
1354.295	5190
1356.552	5315
1358.806	5347
1361.059	5349
1363.312	5314
1365.564	5365
1367.818	5333
1370.069	5382
1372.318	5346
1374.568	5319
1376.817	5524
1379.066	5419
1381.316	5432
1383.564	5321
1385.809	5398
1388.056	5465
1390.301	5423
1392.549	5629
1394.793	5579
1397.036	5516
1399.279	5548
1401.522	5587
1403.763	5452
1406.007	5588
1408.248	5558
1410.487	5519
1412.727	5485
1414.965	5576
1417.205	5551
1419.442	5562
1421.68	5638
1423.915	5561
1426.152	5579
1428.388	5496
1430.623	5626
1432.857	5629
1435.091	5582
1437.323	5620
1439.556	5695
1441.789	5622
1444.019	5683
1446.25	5758
1448.48	5671
1450.708	5686
1452.938	5686
1455.167	5748
1457.394	5672
1459.62	5824
1461.846	5765
1464.073	5560
1466.299	5659
1468.523	5636
1470.746	5592
1472.969	5606
1475.191	5581
1477.415	5507
1479.636	5505
1481.858	5569
1484.078	5459
1486.298	5394
1488.518	5423
1490.736	5390
1492.954	5412
1495.169	5396
1497.386	5402
1499.602	5431
1501.819	5296
1504.034	5413
1506.248	5405
1508.462	5375
1510.675	5367
1512.888	5441
1515.1	5347
1517.311	5436
1519.522	5395
1521.732	5284
1523.942	5456
1526.151	5356
1528.36	5335
1530.566	5374
1532.773	5438
1534.98	5418
1537.187	5344
1539.392	5502
1541.596	5470
1543.801	5443
1546.005	5475
1548.208	5482
1550.411	5458
1552.612	5430
1554.814	5498
1557.013	5397
1559.212	5392
1561.414	5557
1563.612	5447
1565.811	5566
1568.007	5548
1570.203	5520
1572.403	5594
1574.598	5572
1576.792	5466
1578.988	5554
1581.181	5537
1583.376	5560
1585.568	5592
1587.761	5595
1589.952	5601
1592.143	5753
1594.333	5541
1596.524	5522
1598.715	5443
1600.903	5598
1603.091	5596
1605.278	5564
1607.466	5592
1609.652	5596
1611.838	5566
1614.023	5621
1616.207	5684
1618.391	5632
1620.576	5542
1622.759	5649
1624.941	5585
1627.123	5625
1629.304	5670
1631.484	5691
1633.664	5553
1635.844	5645
1638.022	5640
1640.201	5664
1642.38	5628
1644.556	5646
1646.732	5799
1648.908	5544
1651.084	5584
1653.257	5702
1655.433	5700
1657.607	5654
1659.779	5734
1661.951	5658
1664.122	5720
1666.295	5747
1668.467	5627
1670.635	5716
1672.805	5836
1674.973	5764
1677.142	5712
1679.31	5599
1681.478	5713
1683.644	5667
1685.81	5629
1687.975	5700
1690.142	5717
1692.305	5678
1694.468	5619
1696.632	5663
1698.794	5731
1700.957	5621
1703.119	5556
1705.279	5580
1707.439	5561
1709.598	5642
1711.758	5528
1713.917	5609
1716.075	5548
1718.231	5548
1720.388	5599
1722.543	5417
1724.702	5511
1726.856	5576
1729.01	5566
1731.164	5532
1733.317	5596
1735.471	5596
1737.623	5517
1739.774	5553
1741.925	5565
1744.075	5638
1746.225	5551
1748.376	5527
1750.524	5491
1752.672	5557
1754.82	5593
1756.965	5600
1759.113	5525
1761.259	5578
1763.405	5607
1765.549	5565
1767.694	5597
1769.836	5666
1771.981	5609
1774.123	5621
1776.264	5633
1778.405	5683
1780.546	5553
1782.687	5560
1784.827	5539
1786.966	5681
1789.103	5662
1791.242	5622
1793.381	5693
1795.517	5701
1797.653	5628
1799.788	5623
1801.923	5529
1804.057	5655
1806.193	5552
1808.326	5634
1810.457	5656
1812.59	5677
1814.721	5666
1816.855	5685
1818.984	5597
1821.113	5583
1823.244	5637
1825.372	5685
1827.499	5633
1829.63	5664
1831.756	5647
1833.882	5558
1836.007	5585
1838.132	5617
1840.26	5542
1842.384	5534
1844.507	5665
1846.63	5630
1848.752	5556
1850.875	5570
1852.996	5610
1855.118	5571
1857.238	5629
1859.358	5551
1861.477	5418
1863.597	5605
1865.715	5545
1867.832	5596
1869.948	5563
1872.064	5506
1874.181	5613
1876.297	5591
1878.411	5494
1880.526	5526
1882.639	5567
1884.752	5546
1886.865	5540
1888.977	5594
1891.089	5549
1893.2	5679
1895.308	5661
1897.42	5630
1899.53	5546
1901.639	5579
1903.745	5559
1905.853	5630
1907.962	5569
1910.067	5527
1912.174	5676
1914.278	5724
1916.383	5643
1918.486	5690
1920.592	5592
1922.694	5593
1924.797	5560
1926.898	5576
1929	5687
1931.102	5638
1933.203	5720
1935.301	5647
1937.401	5665
1939.499	5606
1941.598	5656
1943.697	5679
1945.793	5542
1947.888	5707
1949.985	5754
1952.08	5613
1954.176	5603
1956.269	5563
1958.364	5579
1960.457	5698
1962.549	5696
1964.642	5602
1966.733	5741
1968.823	5607
1970.913	5665
1973.005	5656
1975.093	5648
1977.184	5625
1979.271	5629
1981.359	5582
1983.446	5555
1985.532	5601
1987.619	5578
1989.705	5565
1991.789	5529
1993.874	5547
1995.956	5416
1998.041	5577
2000.123	5615
2002.206	5571
2004.287	5678
2006.368	5540
2008.449	5573
2010.529	5625
2012.609	5694
2014.688	5558
2016.766	5617
2018.843	5592
2020.922	5608
2022.999	5609
2025.074	5590
2027.15	5601
2029.225	5577
2031.299	5502
2033.375	5631
2035.447	5576
2037.52	5615
2039.592	5705
2041.664	5569
2043.736	5592
2045.807	5597
2047.876	5661
2049.947	5571
2052.015	5563
2054.086	5518
2056.153	5583
2058.221	5587
2060.288	5614
2062.353	5511
2064.42	5623
2066.486	5505
2068.55	5519
2070.614	5556
2072.678	5703
2074.741	5619
2076.805	5595
2078.866	5581
2080.929	5738
2082.99	5561
2085.049	5570
2087.109	5616
2089.17	5641
2091.228	5591
2093.286	5588
2095.344	5672
2097.4	5622
2099.46	5674
2101.516	5704
2103.572	5721
2105.626	5538
2107.679	5637
2109.735	5586
2111.788	5530
2113.841	5577
2115.894	5652
2117.945	5608
2119.997	5593
2122.049	5667
2124.1	5581
2126.148	5632
2128.197	5509
2130.246	5602
2132.296	5575
2134.342	5695
2136.39	5606
2138.437	5545
2140.483	5580
2142.527	5502
2144.574	5619
2146.619	5430
2148.661	5611
2150.705	5613
2152.747	5527
2154.792	5520
2156.832	5598
2158.874	5462
2160.915	5504
2162.954	5551
2164.995	5481
2167.034	5474
2169.072	5562
2171.111	5570
2173.148	5424
2175.186	5427
2177.223	5426
2179.258	5477
2181.294	5494
2183.328	5379
2185.362	5505
2187.398	5555
2189.431	5571
2191.463	5505
2193.495	5440
2195.528	5505
2197.56	5559
2199.59	5513
2201.62	5391
2203.649	5389
2205.678	5456
2207.708	5470
2209.737	5343
2211.764	5537
2213.791	5430
2215.817	5376
2217.843	5383
2219.87	5501
2221.895	5514
2223.919	5498
2225.942	5443
2227.966	5406
2229.988	5401
2232.012	5437
2234.032	5552
2236.054	5443
2238.074	5455
2240.095	5481
2242.116	5457
2244.135	5417
2246.153	5422
2248.171	5460
2250.188	5424
2252.208	5320
2254.223	5448
2256.239	5459
2258.255	5349
2260.269	5281
2262.283	5510
2264.3	5499
2266.312	5379
2268.325	5465
2270.336	5483
2272.349	5328
2274.362	5424
2276.372	5401
2278.383	5418
2280.392	5315
2282.402	5373
2284.409	5438
2286.418	5344
2288.427	5363
2290.433	5413
2292.441	5520
2294.446	5376
2296.453	5428
2298.459	5505
2300.463	5487
2302.466	5439
2304.471	5369
2306.475	5450
2308.477	5381
2310.478	5347
2312.481	5419
2314.481	5405
2316.481	5482
2318.482	5455
2320.482	5404
2322.48	5379
2324.48	5462
2326.478	5360
2328.476	5402
2330.473	5405
2332.469	5380
2334.465	5408
2336.46	5315
2338.454	5299
2340.45	5421
2342.444	5399
2344.437	5307
2346.43	5302
2348.421	5382
2350.414	5352
2352.405	5288
2354.396	5281
2356.386	5319
2358.376	5365
2360.366	5285
2362.355	5325
2364.343	5244
2366.331	5267
2368.317	5348
2370.304	5248
2372.292	5319
2374.278	5177
2376.262	5312
2378.247	5161
2380.23	5333
2382.216	5287
2384.199	5221
2386.181	5328
2388.163	5235
2390.144	5216
2392.127	5236
2394.107	5265
2396.087	5361
2398.066	5221
2400.046	5175
2402.023	5120
2404.004	5175
2405.981	5248
2407.957	5380
2409.934	5248
2411.91	5261
2413.886	5262
2415.862	5235
2417.836	5301
2419.809	5202
2421.784	5214
2423.756	5206
2425.73	5164
2427.701	5250
2429.672	5233
2431.644	5143
2433.615	5284
2435.586	5290
2437.555	5374
2439.523	5260
2441.491	5191
2443.459	5229
2445.428	5259
2447.395	5188
2449.361	5321
2451.327	5201
2453.292	5216
2455.257	5223
2457.223	5220
2459.187	5202
2461.15	5274
2463.113	5212
2465.076	5308
2467.039	5305
2468.999	5236
2470.96	5155
2472.921	5142
2474.881	5209
2476.841	5176
2478.8	5192
2480.759	5143
2482.717	5241
2484.675	5101
2486.63	5165
2488.589	5112
2490.545	5205
2492.5	5193
2494.455	5072
2496.408	5138
2498.364	5206
2500.318	5150
2502.27	5211
2504.223	5063
2506.174	5195
2508.126	5117
2510.078	5097
2512.03	5257
2513.979	5116
2515.927	5007
2517.877	5008
2519.826	5184
2521.775	5042
2523.722	5196
2525.668	5129
2527.616	5085
2529.561	5160
2531.508	5043
2533.452	5073
2535.398	5121
2537.342	5132
2539.284	5086
2541.229	5077
2543.173	5254
2545.114	5076
2547.055	5045
2548.996	5101
2550.938	5174
2552.878	5093
2554.817	5123
2556.756	4979
2558.695	5224
2560.633	5009
2562.572	5155
2564.509	4974
2566.445	5046
2568.382	5172
2570.317	5154
2572.254	5073
2574.189	5119
2576.123	5075
2578.057	5104
2579.99	5104
2581.923	5093
2583.855	5133
2585.788	5152
2587.719	5156
2589.65	5226
2591.579	5189
2593.511	5186
2595.44	5101
2597.37	5132
2599.297	5150
2601.225	5132
2603.153	5083
2605.08	5111
2607.007	5078
2608.932	5109
2610.858	5158
2612.782	5072
2614.709	5204
2616.632	5076
2618.556	5102
2620.478	5089
2622.401	5106
2624.324	5131
2626.247	5142
2628.167	5050
2630.088	5154
2632.008	5038
2633.928	5111
2635.848	5097
2637.766	5108
2639.684	5022
2641.603	5114
2643.519	5126
2645.437	5100
2647.353	5081
2649.27	4968
2651.184	5088
2653.099	5150
2655.014	5150
2656.928	5131
2658.842	5062
2660.755	5073
2662.667	5109
2664.579	5068
2666.491	5184
2668.402	5075
2670.312	5167
2672.222	4984
2674.132	5061
2676.042	5126
2677.951	5075
2679.859	4997
2681.766	5126
2683.674	5002
2685.582	5118
2687.488	5102
2689.392	5020
2691.298	5023
2693.202	4991
2695.107	5068
2697.012	4945
2698.914	5018
2700.817	4998
2702.72	5076
2704.622	5051
2706.524	5090
2708.425	5064
2710.326	5007
2712.225	5003
2714.125	4959
2716.024	5022
2717.923	4946
2719.822	5035
2721.719	5027
2723.616	5030
2725.512	5029
2727.41	5037
2729.305	5020
2731.201	4959
2733.095	5081
2734.99	5028
2736.884	4977
2738.778	5032
2740.67	5055
2742.562	4965
2744.455	5014
2746.346	4973
2748.238	4973
2750.129	4992
2752.018	4951
2753.907	4997
2755.797	4891
2757.687	5014
2759.575	5038
2761.462	5064
2763.349	4942
2765.237	4955
2767.124	5073
2769.009	4884
2770.894	5004
2772.779	4962
2774.663	5030
2776.547	4908
2778.431	4948
2780.314	4964
2782.197	5003
2784.078	4963
2785.96	5008
2787.842	4952
2789.723	4910
2791.603	4956
2793.483	4914
2795.362	4969
2797.241	4933
2799.121	4951
2800.997	5073
2802.874	5005
2804.751	4824
2806.628	4871
2808.506	5067
2810.38	4984
2812.255	4967
2814.13	4887
2816.003	4999
2817.878	4973
2819.752	4922
2821.623	4848
2823.496	4994
2825.368	4861
2827.238	4837
2829.111	5020
2830.98	5032
2832.851	4917
2834.719	4978
2836.589	4946
2838.458	4951
2840.327	4927
2842.193	4953
2844.061	4995
2845.927	4968
2847.794	4946
2849.66	4947
2851.525	4904
2853.39	4941
2855.254	4913
2857.117	4973
2858.983	5004
2860.845	5027
2862.707	5059
2864.569	5065
2866.431	5039
2868.293	5070
2870.154	5114
2872.013	5183
2873.873	5145
2875.733	5145
2877.592	5215
2879.451	5233
2881.309	5312
2883.166	5431
2885.022	5356
2886.879	5341
2888.736	5308
2890.591	5487
2892.446	5410
2894.301	5330
2896.155	5418
2898.009	5415
2899.863	5412
2901.716	5318
2903.568	5382
2905.419	5372
2907.27	5403
2909.123	5400
2910.973	5269
2912.824	5319
2914.673	5440
2916.521	5478
2918.372	5507
2920.22	5487
2922.067	5574
2923.914	5654
2925.761	5482
2927.607	5538
2929.455	5689
2931.301	5618
2933.144	5778
2934.99	5760
2936.833	5737
2938.678	5921
2940.522	5871
2942.364	5988
2944.207	6021
2946.048	5887
2947.891	6087
2949.731	5951
2951.571	5958
2953.412	6016
2955.25	5918
2957.09	5873
2958.93	5837
2960.767	5881
2962.606	5786
2964.443	5726
2966.279	5748
2968.116	5479
2969.953	5545
2971.788	5594
2973.623	5535
2975.457	5517
2977.292	5542
2979.127	5349
2980.959	5409
2982.792	5283
2984.624	5296
2986.455	5341
2988.288	5331
2990.119	5344
2991.949	5138
2993.779	5190
2995.608	5178
2997.439	5104
2999.268	5113
3001.096	5120
3002.923	5065
3004.751	5043
3006.578	4987
3008.406	4918
3010.232	4837
3012.057	4914
3013.883	4854
3015.706	4772
3017.532	4825
3019.356	4774
3021.179	4831
3023.002	4765
3024.823	4759
3026.646	4727
3028.469	4696
3030.289	4741
3032.11	4714
3033.93	4646
3035.749	4683
3037.57	4666
3039.39	4705
3041.207	4633
3043.026	4696
3044.842	4699
3046.661	4703
3048.477	4682
3050.294	4651
3052.109	4640
3053.925	4689
3055.739	4580
3057.555	4688
3059.368	4657
3061.181	4702
3062.995	4606
3064.807	4644
3066.62	4571
3068.433	4652
3070.243	4604
3072.054	4643
3073.865	4715
3075.675	4638
3077.485	4640
3079.293	4494
3081.102	4572
3082.911	4600
3084.719	4536
3086.527	4607
3088.333	4573
3090.139	4643
3091.945	4528
3093.75	4457
3095.557	4481
3097.361	4584
3099.165	4481
3100.969	4529
3102.772	4409
3104.575	4519
3106.379	4533
3108.181	4511
3109.982	4455
3111.783	4469
3113.584	4591
3115.386	4428
3117.186	4481
3118.985	4490
3120.783	4483
3122.582	4447
3124.381	4504
3126.179	4468
3127.975	4453
3129.772	4347
3131.569	4430
3133.365	4406
3135.161	4468
3136.956	4401
3138.751	4425
3140.544	4473
3142.338	4435
3144.132	4418
3145.925	4388
3147.717	4377
3149.509	4428
3151.301	4389
3153.091	4402
3154.884	4391
3156.673	4396
3158.462	4401
3160.252	4475
3162.041	4442
3163.831	4415
3165.618	4354
3167.405	4408
3169.193	4412
3170.979	4314
3172.767	4374
3174.553	4397
3176.338	4353
3178.123	4426
3179.907	4341
3181.692	4316
3183.477	4341
3185.259	4268
3187.042	4384
3188.824	4382
3190.607	4365
3192.389	4282
3194.17	4287
3195.951	4373
3197.73	4358
3199.51	4364
3201.289	4409
3203.07	4448
3204.848	4323
3206.626	4328
3208.403	4316
3210.18	4249
3211.959	4412
3213.735	4244
3215.511	4346
3217.285	4263
3219.06	4342
3220.836	4259
3222.611	4336
3224.384	4298
3226.158	4318
3227.929	4290
3229.702	4330
3231.476	4248
3233.248	4322
3235.018	4301
3236.789	4290
3238.56	4268
3240.33	4228
3242.1	4286
3243.869	4248
3245.637	4321
3247.405	4254
3249.172	4243
3250.941	4209
3252.707	4332
3254.474	4342
3256.24	4345
3258.006	4280
3259.772	4299
3261.537	4328
3263.301	4309
3265.065	4240
3266.828	4240
3268.592	4289
3270.355	4241
3272.117	4228
3273.878	4238
3275.64	4286
3277.401	4232
3279.162	4302
3280.922	4257
3282.682	4248
3284.441	4233
3286.199	4313
3287.959	4223
3289.716	4320
3291.475	4351
3293.232	4286
3294.988	4326
3296.744	4242
3298.501	4193
3300.256	4296
3302.011	4265
3303.766	4268
3305.52	4230
3307.275	4231
3309.028	4283
3310.781	4298
3312.533	4166
3314.285	4264
3316.038	4208
3317.789	4249
3319.54	4286
3321.289	4240
3323.039	4239
3324.789	4263
3326.539	4174
3328.288	4159
3330.035	4289
3331.783	4164
3333.531	4198
3335.28	4232
3337.025	4252
3338.771	4141
3340.518	4200
3342.262	4193
3344.009	4284
3345.753	4202
3347.497	4237
3349.24	4200
3350.983	4160
3352.726	4235
3354.469	4229
3356.212	4201
3357.952	4186
3359.694	4070
3361.434	4205
3363.176	4155
3364.916	4216
3366.654	4131
3368.394	4187
3370.132	4302
3371.871	4117
3373.61	4129
3375.346	4046
3377.083	4180
3378.82	4065
3380.556	4210
3382.292	4094
3384.027	4128
3385.763	4165
3387.497	4139
3389.231	4146
3390.965	4150
3392.698	4077
3394.431	4122
3396.164	4100
3397.896	4034
3399.627	4041
3401.36	4007
3403.09	4060
3404.82	4052
3406.55	4048
3408.279	3955
3410.01	4142
3411.738	3986
3413.467	4137
3415.194	4083
3416.92	4107
3418.647	4060
3420.375	4061
3422.102	4042
3423.827	3905
3425.553	4068
3427.277	4017
3429.003	4078
3430.727	4015
3432.451	4011
3434.173	3988
3435.896	3966
3437.62	4052
3439.343	3978
3441.063	4094
3442.785	4006
3444.505	3934
3446.226	3952
3447.948	3917
3449.666	3931
3451.386	3943
3453.104	4005
3454.823	3977
3456.541	3932
3458.259	3928
3459.976	3954
3461.693	3910
3463.408	3996
3465.125	3936
3466.841	3887
3468.556	3948
3470.271	3944
3471.985	3911
3473.698	3864
3475.414	3889
3477.126	3866
3478.838	3830
3480.55	3844
3482.263	3843
3483.975	3942
3485.686	3907
3487.396	3812
3489.106	3833
3490.817	3848
3492.526	3880
3494.236	3756
3495.944	3898
3497.652	3806
3499.359	3873
3501.066	3782
3502.775	3866
3504.481	3736
3506.187	3872
3507.893	3858
3509.598	3719
3511.304	3744
3513.009	3751
3514.713	3726
3516.417	3679
3518.12	3635
3519.821	3742
3521.525	3752
3523.228	3673
3524.929	3789
3526.631	3793
3528.33	3762
3530.032	3711
3531.733	3802
3533.433	3695
3535.131	3800
3536.83	3633
3538.529	3779
3540.227	3686
3541.925	3768
3543.623	3770
3545.319	3819
3547.016	3692
3548.712	3655
3550.408	3714
3552.103	3645
3553.798	3698
3555.491	3705
3557.188	3665
3558.88	3728
3560.574	3628
3562.266	3707
3563.959	3735
3565.651	3713
3567.343	3704
3569.035	3612
3570.725	3617
3572.415	3658
3574.106	3675
3575.797	3691
3577.485	3626
3579.174	3665
3580.863	3585
3582.551	3557
3584.238	3626
3585.926	3581
3587.613	3600
3589.3	3605
3590.986	3550
3592.671	3549
3594.357	3572
3596.042	3623
3597.726	3540
3599.41	3574
3601.094	3569
3602.778	3591
3604.461	3519
3606.143	3449
3607.825	3533
3609.507	3495
3611.188	3508
3612.87	3494
3614.551	3554
3616.229	3460
3617.909	3502
3619.589	3492
3621.269	3496
3622.948	3483
3624.625	3485
3626.302	3549
3627.98	3494
3629.657	3518
3631.334	3490
3633.01	3406
3634.686	3436
3636.361	3439
3638.036	3446
3639.712	3509
3641.385	3474
3643.06	3448
3644.732	3441
3646.405	3440
3648.08	3407
3649.751	3453
3651.424	3380
3653.094	3466
3654.766	3408
3656.436	3365
3658.106	3396
3659.777	3445
3661.446	3388
3663.115	3345
3664.783	3405
3666.452	3356
3668.121	3395
3669.788	3388
3671.454	3409
3673.121	3327
3674.789	3354
3676.455	3367
3678.12	3354
3679.784	3291
3681.45	3398
3683.114	3331
3684.779	3311
3686.442	3373
3688.105	3314
3689.768	3348
3691.43	3385
3693.093	3304
3694.754	3275
3696.415	3391
3698.076	3261
3699.736	3370
3701.396	3355
3703.057	3272
3704.716	3246
3706.375	3264
3708.034	3382
3709.692	3374
3711.351	3308
3713.008	3332
3714.665	3270
3716.321	3250
3717.977	3265
3719.634	3328
3721.29	3346
3722.945	3264
3724.598	3246
3726.253	3283
3727.907	3203
3729.561	3339
3731.214	3291
3732.867	3276
3734.518	3271
3736.171	3248
3737.824	3232
3739.474	3291
3741.125	3186
3742.775	3175
3744.425	3209
3746.074	3212
3747.725	3227
3749.373	3291
3751.022	3298
3752.669	3218
3754.318	3209
3755.966	3180
3757.612	3261
3759.259	3219
3760.905	3138
3762.55	3189
3764.197	3237
3765.842	3192
3767.486	3242
3769.131	3145
3770.774	3160
3772.417	3144
3774.061	3139
3775.705	3169
3777.347	3219
3778.988	3150
3780.629	3236
3782.271	3202
3783.912	3209
3785.552	3150
3787.192	3189
3788.831	3192
3790.472	3133
3792.112	3214
3793.75	3103
3795.388	3180
3797.024	3220
3798.661	3175
3800.3	3153
3801.936	3127
3803.572	3131
3805.208	3181
3806.844	3086
3808.48	3126
3810.115	3184
3811.748	3140
3813.382	3097
3815.016	3143
3816.649	3135
3818.283	3120
3819.914	3110
3821.547	3056
3823.178	3087
3824.809	3132
3826.441	3091
3828.072	3129
3829.701	3121
3831.331	3118
3832.96	3060
3834.591	3099
3836.219	3067
3837.847	3056
3839.475	3088
3841.102	3064
3842.729	3024
3844.357	3026
3845.984	3021
3847.609	3003
3849.234	3081
3850.86	3094
3852.485	3031
3854.11	3068
3855.734	3096
3857.357	2942
3858.981	3075
3860.603	2994
3862.227	3091
3863.848	2999
3865.471	3136
3867.092	3080
3868.713	3001
3870.334	3017
3871.954	2982
3873.575	3031
3875.194	2978
3876.813	2987
3878.433	3007
3880.051	3006
3881.669	2978
3883.286	3041
3884.904	3070
3886.52	2916
3888.138	2912
3889.754	3057
3891.37	2979
3892.985	2956
3894.6	2987
3896.216	2975
3897.831	2991
3899.444	2932
3901.058	3054
3902.67	3071
3904.283	2904
3905.897	2965
3907.509	2962
3909.121	2959
3910.731	2921
3912.342	2907
3913.954	3010
3915.563	2982
3917.174	2963
3918.783	2950
3920.391	2957
3922.002	2950
3923.611	2940
3925.218	2906
3926.826	2958
3928.432	2958
3930.039	2938
3931.647	2971
3933.253	2914
3934.859	2936
3936.464	2917
3938.068	2865
3939.675	2921
3941.278	2963
3942.883	2839
3944.486	2910
3946.089	2933
3947.692	2906
3949.295	2871
3950.898	2911
3952.499	2892
3954.1	2903
3955.7	2856
3957.303	2846
3958.903	2934
3960.502	2920
3962.101	2905
3963.7	2917
3965.301	2843
3966.899	2793
3968.497	2881
3970.094	2828
3971.691	2873
3973.288	2885
3974.885	2880
3976.481	2829
3978.077	2865
3979.672	2851
3981.267	2777
3982.863	2873
3984.457	2832
3986.051	2801
3987.645	2805
3989.238	2870
3990.831	2883
3992.425	2867
3994.017	2740
3995.607	2873
3997.199	2712
3998.79	2824
4000.382	2809
4001.973	2834
4003.561	2775
4005.151	2777
4006.741	2750
4008.331	2751
4009.918	2761
4011.507	2774
4013.095	2688
4014.681	2778
4016.269	2811
4017.856	2756
4019.443	2776
4021.028	2774
4022.614	2726
4024.199	2767
4025.785	2796
4027.37	2713
4028.953	2712
4030.536	2701
4032.12	2743
4033.704	2730
4035.287	2821
4036.869	2849
4038.45	2735
4040.032	2720
4041.613	2721
4043.195	2736
4044.776	2724
4046.356	2718
4047.935	2642
4049.515	2724
4051.095	2693
4052.674	2741
4054.251	2718
4055.829	2626
4057.406	2685
4058.985	2743
4060.562	2659
4062.139	2654
4063.715	2687
4065.29	2641
4066.865	2672
4068.442	2657
4070.016	2644
4071.59	2682
4073.164	2666
4074.738	2647
4076.312	2660
4077.885	2678
4079.458	2709
4081.03	2610
4082.602	2685
4084.173	2676
4085.745	2622
4087.315	2634
4088.886	2660
4090.456	2660
4092.026	2638
4093.596	2629
4095.165	2607
4096.734	2577
4098.301	2635
4099.869	2570
4101.437	2611
4103.006	2590
4104.572	2605
4106.139	2604
4107.704	2614
4109.27	2649
4110.837	2639
4112.401	2671
4113.966	2602
4115.53	2621
4117.094	2593
4118.659	2625
4120.223	2499
4121.785	2537
4123.347	2587
4124.909	2554
4126.471	2593
4128.034	2556
4129.595	2580
4131.155	2549
4132.716	2584
4134.275	2554
4135.836	2544
4137.395	2543
4138.955	2438
4140.513	2633
4142.071	2530
4143.628	2518
4145.188	2575
4146.745	2514
4148.302	2608
4149.858	2574
4151.414	2552
4152.971	2522
4154.526	2549
4156.081	2528
4157.635	2538
4159.189	2471
4160.745	2457
4162.298	2529
4163.852	2522
4165.405	2498
4166.957	2491
4168.51	2542
4170.063	2562
4171.614	2414
4173.166	2442
4174.717	2507
4176.267	2451
4177.817	2498
4179.368	2441
4180.917	2460
4182.466	2483
4184.016	2497
4185.564	2555
4187.112	2464
4188.66	2516
4190.207	2472
4191.754	2438
4193.301	2467
4194.848	2473
4196.394	2441
4197.94	2430
4199.484	2435
4201.03	2436
4202.575	2402
4204.12	2430
4205.663	2428
4207.207	2391
4208.75	2435
4210.292	2407
4211.836	2425
4213.378	2399
4214.92	2413
4216.46	2403
4218.002	2448
4219.544	2442
4221.083	2425
4222.625	2417
4224.164	2406
4225.703	2412
4227.244	2420
4228.782	2346
4230.32	2397
4231.857	2403
4233.395	2391
4234.933	2429
4236.471	2352
4238.007	2382
4239.542	2355
4241.078	2343
4242.614	2373
4244.15	2375
4245.685	2374
4247.219	2487
4248.753	2389
4250.287	2392
4251.82	2405
4253.354	2357
4254.887	2356
4256.419	2389
4257.951	2365
4259.483	2386
4261.016	2394
4262.547	2289
4264.078	2401
4265.608	2357
4267.137	2361
4268.668	2360
4270.197	2368
4271.727	2402
4273.254	2366
4274.783	2347
4276.311	2349
4277.84	2359
4279.366	2372
4280.894	2319
4282.42	2300
4283.946	2315
4285.473	2338
4286.998	2277
4288.523	2359
4290.047	2358
4291.572	2259
4293.096	2297
4294.622	2276
4296.144	2281
4297.668	2366
4299.19	2325
4300.713	2278
4302.236	2282
4303.758	2339
4305.279	2351
4306.799	2275
4308.321	2288
4309.842	2270
4311.361	2338
4312.882	2253
4314.401	2342
