400.0961	2496
402.6185	2408
405.1424	2464
407.6635	2403
410.1838	2440
412.7035	2407
415.2225	2472
417.7388	2480
420.2585	2447
422.7754	2533
425.2917	2545
427.8072	2519
430.3221	2549
432.8363	2548
435.3498	2576
437.8626	2569
440.3727	2532
442.8841	2549
445.3969	2597
447.907	2589
450.4142	2642
452.9229	2558
455.4289	2535
457.9362	2552
460.4449	2575
462.9488	2521
465.454	2476
467.9566	2523
470.4604	2638
472.9637	2576
475.4662	2539
477.966	2525
480.4671	2606
482.9656	2533
485.4633	2577
487.9645	2605
490.4608	2617
492.9566	2575
495.4536	2599
497.948	2563
500.4437	2590
502.9387	2634
505.431	2637
507.9226	2627
510.4136	2641
512.9079	2546
515.3975	2587
517.8864	2615
520.3746	2635
522.8622	2583
525.3491	2584
527.8394	2678
530.3249	2617
532.8098	2684
535.2939	2588
537.7774	2688
540.2623	2647
542.7444	2637
545.2259	2618
547.7067	2619
550.1868	2593
552.6683	2647
555.147	2579
557.6231	2677
560.1005	2593
562.5773	2632
565.0534	2656
567.5308	2739
570.0056	2694
572.4776	2733
574.951	2746
577.4237	2706
579.8978	2732
582.3671	2766
584.8378	2711
587.3079	2779
589.7773	2761
592.244	2798
594.714	2727
597.1793	2723
599.6461	2654
602.1121	2716
604.5754	2642
607.0421	2804
609.5042	2770
611.9675	2723
614.4282	2715
616.8902	2711
619.3515	2741
621.8122	2725
624.2702	2679
626.7296	2694
629.1863	2696
631.6423	2597
634.1017	2640
636.5563	2714
639.0104	2656
641.4658	2727
643.9185	2695
646.3725	2773
648.8239	2703
651.2766	2729
653.7266	2682
656.176	2758
658.6247	2829
661.0748	2728
663.5242	2735
665.9709	2754
668.417	2768
670.8624	2760
673.3092	2734
675.7533	2766
678.1968	2798
680.6395	2710
683.0817	2785
685.5251	2787
687.9659	2764
690.4061	2806
692.8456	2752
695.2844	2824
697.7226	2795
700.1621	2778
702.599	2841
705.0332	2803
707.4688	2812
709.9036	2830
712.3399	2818
714.7735	2864
717.2044	2863
719.6367	2867
722.0683	2833
724.4993	2865
726.9296	2842
729.3593	2900
731.7883	2799
734.2147	2918
736.6423	2914
739.0714	2910
741.4958	2932
743.9216	2964
746.3447	2934
748.7691	2959
751.1929	2966
753.616	2889
756.0366	2949
758.4584	2996
760.8776	2974
763.2982	2958
765.718	2910
768.1373	2972
770.5539	2991
772.9698	2962
775.3871	2969
777.8038	3029
780.2178	2976
782.6332	3030
785.0459	2962
787.458	2943
789.8714	3003
792.2842	2996
794.6943	2967
797.1038	2915
799.5127	2988
801.9209	3042
804.3324	3095
806.7393	2947
809.1456	2948
811.5513	3088
813.9562	2980
816.3625	3000
818.7663	2980
821.1693	3019
823.5718	2985
825.9735	3027
828.3746	3005
830.7771	2927
833.177	2989
835.5762	2960
837.9747	3041
840.3727	3060
842.772	3075
845.1666	3095
847.5626	3060
849.958	3067
852.3527	3167
854.7488	3115
857.1403	3105
859.5331	3141
861.9253	3098
864.3168	3115
866.7057	3042
869.098	3121
871.4876	3146
873.8746	3124
876.263	3008
878.6487	3078
881.0378	3125
883.4243	3059
885.8081	3021
888.1933	3052
890.5759	3037
892.9598	3063
895.343	3013
897.7256	3068
900.1057	3083
902.4871	3131
904.8659	3078
907.246	3097
909.6254	3122
912.0023	3195
914.3786	3146
916.7562	3140
919.1331	3243
921.5074	3283
923.8831	3350
926.2562	3231
928.6287	3329
931.0005	3268
933.3757	3250
935.7462	3290
938.1162	3241
940.4855	3295
942.8542	3324
945.2242	3311
947.5916	3402
949.9584	3361
952.3266	3526
954.6921	3636
957.0571	3705
959.4233	3793
961.787	3842
964.15	3746
966.5125	3627
968.8742	3634
971.2354	3481
973.5959	3428
975.9559	3317
978.3151	3332
980.6738	3274
983.0338	3284
985.3912	3192
987.7461	3256
990.1022	3166
992.4578	3119
994.8127	3218
997.1689	3148
999.5207	3204
1001.874	3240
1004.226	3201
1006.576	3227
1008.929	3215
1011.28	3145
1013.628	3198
1015.977	3249
1018.324	3172
1020.674	3145
1023.019	3205
1025.366	3261
1027.713	3222
1030.056	3252
1032.399	3188
1034.746	3261
1037.087	3212
1039.431	3267
1041.771	3228
1044.113	3257
1046.454	3276
1048.793	3317
1051.133	3236
1053.471	3236
1055.807	3263
1058.146	3199
1060.483	3310
1062.818	3225
1065.153	3300
1067.489	3318
1069.822	3280
1072.156	3300
1074.488	3308
1076.82	3382
1079.15	3257
1081.48	3352
1083.814	3202
1086.143	3310
1088.471	3312
1090.799	3307
1093.126	3238
1095.452	3261
1097.78	3328
1100.105	3283
1102.43	3289
1104.754	3260
1107.077	3308
1109.4	3374
1111.722	3303
1114.044	3340
1116.365	3298
1118.685	3212
1121.005	3360
1123.324	3390
1125.643	3307
1127.961	3315
1130.278	3296
1132.595	3266
1134.911	3276
1137.226	3349
1139.541	3277
1141.854	3271
1144.167	3332
1146.482	3251
1148.793	3318
1151.105	3245
1153.414	3316
1155.725	3238
1158.033	3283
1160.344	3207
1162.651	3266
1164.959	3275
1167.265	3362
1169.572	3353
1171.878	3261
1174.184	3411
1176.488	3300
1178.79	3368
1181.094	3312
1183.396	3330
1185.699	3295
1188.001	3334
1190.301	3288
1192.6	3361
1194.9	3307
1197.2	3300
1199.497	3241
1201.794	3354
1204.09	3321
1206.387	3276
1208.684	3367
1210.978	3293
1213.272	3352
1215.565	3240
1217.858	3377
1220.15	3359
1222.443	3340
1224.734	3337
1227.024	3387
1229.313	3440
1231.602	3487
1233.892	3346
1236.18	3295
1238.467	3428
1240.754	3338
1243.04	3512
1245.325	3434
1247.612	3503
1249.896	3548
1252.178	3507
1254.461	3444
1256.743	3486
1259.027	3479
1261.308	3397
1263.587	3589
1265.867	3461
1268.146	3504
1270.425	3443
1272.703	3462
1274.981	3467
1277.256	3457
1279.532	3445
1281.808	3494
1284.083	3442
1286.358	3526
1288.63	3357
1290.904	3470
1293.175	3444
1295.449	3333
1297.719	3458
1299.99	3429
1302.259	3437
1304.529	3372
1306.798	3431
1309.065	3514
1311.333	3387
1313.599	3393
1315.866	3357
1318.131	3438
1320.396	3373
1322.66	3385
1324.925	3423
1327.187	3499
1329.448	3361
1331.711	3545
1333.974	3512
1336.234	3477
1338.493	3444
1340.752	3381
1343.01	3390
1345.269	3422
1347.526	3427
1349.784	3459
1352.04	3475
1354.295	3340
1356.552	3414
1358.806	3418
1361.059	3426
1363.312	3418
1365.564	3382
1367.818	3419
1370.069	3360
1372.318	3423
1374.568	3408
1376.817	3493
1379.066	3454
1381.316	3460
1383.564	3506
1385.809	3429
1388.056	3463
1390.301	3417
1392.549	3482
1394.793	3551
1397.036	3567
1399.279	3583
1401.522	3587
1403.763	3587
1406.007	3637
1408.248	3494
1410.487	3483
1412.727	3560
1414.965	3592
1417.205	3605
1419.442	3512
1421.68	3571
1423.915	3590
1426.152	3504
1428.388	3595
1430.623	3685
1432.857	3479
1435.091	3498
1437.323	3551
1439.556	3594
1441.789	3587
1444.019	3616
1446.25	3602
1448.48	3568
1450.708	3654
1452.938	3599
1455.167	3602
1457.394	3565
1459.62	3685
1461.846	3647
1464.073	3730
1466.299	3636
1468.523	3634
1470.746	3611
1472.969	3552
1475.191	3587
1477.415	3502
1479.636	3462
1481.858	3528
1484.078	3465
1486.298	3481
1488.518	3538
1490.736	3479
1492.954	3363
1495.169	3449
1497.386	3492
1499.602	3376
1501.819	3377
1504.034	3415
1506.248	3560
1508.462	3559
1510.675	3388
1512.888	3411
1515.1	3473
1517.311	3475
1519.522	3419
1521.732	3424
1523.942	3423
1526.151	3381
1528.36	3513
1530.566	3457
1532.773	3440
1534.98	3349
1537.187	3483
1539.392	3505
1541.596	3460
1543.801	3484
1546.005	3482
1548.208	3416
1550.411	3455
1552.612	3444
1554.814	3452
1557.013	3483
1559.212	3460
1561.414	3515
1563.612	3485
1565.811	3501
1568.007	3487
1570.203	3621
1572.403	3413
1574.598	3446
1576.792	3485
1578.988	3465
1581.181	3525
1583.376	3521
1585.568	3477
1587.761	3570
1589.952	3585
1592.143	3535
1594.333	3548
1596.524	3554
1598.715	3573
1600.903	3580
1603.091	3618
1605.278	3604
1607.466	3569
1609.652	3481
1611.838	3525
1614.023	3591
1616.207	3541
1618.391	3596
1620.576	3572
1622.759	3456
1624.941	3562
1627.123	3533
1629.304	3603
1631.484	3665
1633.664	3617
1635.844	3600
1638.022	3579
1640.201	3644
1642.38	3672
1644.556	3667
1646.732	3646
1648.908	3583
1651.084	3615
1653.257	3671
1655.433	3657
1657.607	3680
1659.779	3690
1661.951	3697
1664.122	3667
1666.295	3751
1668.467	3691
1670.635	3626
1672.805	3674
1674.973	3624
1677.142	3654
1679.31	3677
1681.478	3609
1683.644	3587
1685.81	3601
1687.975	3584
1690.142	3631
1692.305	3643
1694.468	3673
1696.632	3555
1698.794	3660
1700.957	3644
1703.119	3613
1705.279	3566
1707.439	3591
1709.598	3553
1711.758	3533
1713.917	3499
1716.075	3548
1718.231	3505
1720.388	3546
1722.543	3597
1724.702	3480
1726.856	3503
1729.01	3574
1731.164	3580
1733.317	3569
1735.471	3558
1737.623	3635
1739.774	3597
1741.925	3583
1744.075	3576
1746.225	3649
1748.376	3525
1750.524	3612
1752.672	3630
1754.82	3566
1756.965	3583
1759.113	3593
1761.259	3626
1763.405	3536
1765.549	3614
1767.694	3616
1769.836	3632
1771.981	3590
1774.123	3621
1776.264	3599
1778.405	3563
1780.546	3611
1782.687	3583
1784.827	3551
1786.966	3668
1789.103	3570
1791.242	3571
1793.381	3576
1795.517	3600
1797.653	3652
1799.788	3557
1801.923	3656
1804.057	3610
1806.193	3528
1808.326	3613
1810.457	3688
1812.59	3617
1814.721	3552
1816.855	3569
1818.984	3637
1821.113	3547
1823.244	3616
1825.372	3661
1827.499	3568
1829.63	3559
1831.756	3613
1833.882	3559
1836.007	3540
1838.132	3608
1840.26	3458
1842.384	3604
1844.507	3544
1846.63	3551
1848.752	3635
1850.875	3635
1852.996	3585
1855.118	3589
1857.238	3586
1859.358	3561
1861.477	3677
1863.597	3587
1865.715	3612
1867.832	3489
1869.948	3543
1872.064	3524
1874.181	3537
1876.297	3549
1878.411	3613
1880.526	3621
1882.639	3481
1884.752	3621
1886.865	3492
1888.977	3578
1891.089	3570
1893.2	3586
1895.308	3615
1897.42	3686
1899.53	3489
1901.639	3602
1903.745	3527
1905.853	3651
1907.962	3574
1910.067	3633
1912.174	3660
1914.278	3709
1916.383	3678
1918.486	3615
1920.592	3704
1922.694	3623
1924.797	3600
1926.898	3737
1929	3672
1931.102	3624
1933.203	3683
1935.301	3623
1937.401	3577
1939.499	3661
1941.598	3687
1943.697	3717
1945.793	3573
1947.888	3646
1949.985	3615
1952.08	3628
1954.176	3681
1956.269	3645
1958.364	3616
1960.457	3668
1962.549	3722
1964.642	3546
1966.733	3787
1968.823	3663
1970.913	3652
1973.005	3636
1975.093	3730
1977.184	3608
1979.271	3618
1981.359	3527
1983.446	3637
1985.532	3662
1987.619	3605
1989.705	3582
1991.789	3590
1993.874	3618
1995.956	3611
1998.041	3658
2000.123	3596
2002.206	3640
2004.287	3640
2006.368	3641
2008.449	3585
2010.529	3555
2012.609	3657
2014.688	3567
2016.766	3637
2018.843	3551
2020.922	3649
2022.999	3646
2025.074	3602
2027.15	3611
2029.225	3559
2031.299	3630
2033.375	3589
2035.447	3639
2037.52	3571
2039.592	3655
2041.664	3533
2043.736	3625
2045.807	3682
2047.876	3608
2049.947	3646
2052.015	3618
2054.086	3612
2056.153	3657
2058.221	3671
2060.288	3558
2062.353	3587
2064.42	3663
2066.486	3594
2068.55	3653
2070.614	3692
2072.678	3681
2074.741	3589
2076.805	3549
2078.866	3658
2080.929	3594
2082.99	3631
2085.049	3730
2087.109	3695
2089.17	3549
2091.228	3618
2093.286	3630
2095.344	3633
2097.4	3625
2099.46	3629
2101.516	3642
2103.572	3639
2105.626	3767
2107.679	3631
2109.735	3720
2111.788	3610
2113.841	3670
2115.894	3639
2117.945	3706
2119.997	3661
2122.049	3684
2124.1	3632
2126.148	3683
2128.197	3521
2130.246	3700
2132.296	3625
2134.342	3587
2136.39	3688
2138.437	3511
2140.483	3627
2142.527	3658
2144.574	3621
2146.619	3615
2148.661	3653
2150.705	3592
2152.747	3650
2154.792	3518
2156.832	3587
2158.874	3637
2160.915	3605
2162.954	3589
2164.995	3636
2167.034	3580
2169.072	3633
2171.111	3598
2173.148	3596
2175.186	3532
2177.223	3571
2179.258	3591
2181.294	3619
2183.328	3511
2185.362	3614
2187.398	3543
2189.431	3619
2191.463	3494
2193.495	3573
2195.528	3538
2197.56	3610
2199.59	3622
2201.62	3588
2203.649	3622
2205.678	3579
2207.708	3487
2209.737	3544
2211.764	3592
2213.791	3569
2215.817	3595
2217.843	3490
2219.87	3583
2221.895	3547
2223.919	3595
2225.942	3553
2227.966	3523
2229.988	3637
2232.012	3554
2234.032	3524
2236.054	3472
2238.074	3642
2240.095	3574
2242.116	3529
2244.135	3678
2246.153	3564
2248.171	3571
2250.188	3546
2252.208	3557
2254.223	3570
2256.239	3535
2258.255	3557
2260.269	3569
2262.283	3545
2264.3	3624
2266.312	3574
2268.325	3509
2270.336	3580
2272.349	3633
2274.362	3644
2276.372	3472
2278.383	3531
2280.392	3524
2282.402	3621
2284.409	3555
2286.418	3566
2288.427	3593
2290.433	3566
2292.441	3559
2294.446	3501
2296.453	3549
2298.459	3598
2300.463	3514
2302.466	3528
2304.471	3587
2306.475	3587
2308.477	3594
2310.478	3445
2312.481	3531
2314.481	3451
2316.481	3602
2318.482	3498
2320.482	3507
2322.48	3594
2324.48	3606
2326.478	3459
2328.476	3510
2330.473	3579
2332.469	3620
2334.465	3534
2336.46	3561
2338.454	3452
2340.45	3533
2342.444	3559
2344.437	3499
2346.43	3506
2348.421	3478
2350.414	3556
2352.405	3520
2354.396	3538
2356.386	3534
2358.376	3572
2360.366	3537
2362.355	3554
2364.343	3531
2366.331	3506
2368.317	3556
2370.304	3521
2372.292	3449
2374.278	3537
2376.262	3438
2378.247	3495
2380.23	3531
2382.216	3541
2384.199	3482
2386.181	3518
2388.163	3430
2390.144	3443
2392.127	3444
2394.107	3466
2396.087	3415
2398.066	3438
2400.046	3422
2402.023	3515
2404.004	3492
2405.981	3439
2407.957	3460
2409.934	3461
2411.91	3497
2413.886	3471
2415.862	3444
2417.836	3503
2419.809	3462
2421.784	3407
2423.756	3473
2425.73	3477
2427.701	3387
2429.672	3424
2431.644	3419
2433.615	3441
2435.586	3397
2437.555	3383
2439.523	3478
2441.491	3395
2443.459	3462
2445.428	3465
2447.395	3437
2449.361	3489
2451.327	3348
2453.292	3591
2455.257	3469
2457.223	3574
2459.187	3459
2461.15	3428
2463.113	3457
2465.076	3473
2467.039	3417
2468.999	3422
2470.96	3458
2472.921	3396
2474.881	3442
2476.841	3444
2478.8	3445
2480.759	3543
2482.717	3418
2484.675	3390
2486.63	3332
2488.589	3427
2490.545	3406
2492.5	3428
2494.455	3382
2496.408	3404
2498.364	3478
2500.318	3374
2502.27	3512
2504.223	3382
2506.174	3388
2508.126	3384
2510.078	3421
2512.03	3407
2513.979	3359
2515.927	3462
2517.877	3395
2519.826	3466
2521.775	3396
2523.722	3409
2525.668	3390
2527.616	3391
2529.561	3381
2531.508	3492
2533.452	3455
2535.398	3385
2537.342	3395
2539.284	3405
2541.229	3435
2543.173	3387
2545.114	3356
2547.055	3412
2548.996	3354
2550.938	3375
2552.878	3332
2554.817	3453
2556.756	3424
2558.695	3406
2560.633	3456
2562.572	3419
2564.509	3404
2566.445	3451
2568.382	3399
2570.317	3325
2572.254	3421
2574.189	3499
2576.123	3377
2578.057	3401
2579.99	3298
2581.923	3414
2583.855	3443
2585.788	3409
2587.719	3326
2589.65	3407
2591.579	3343
2593.511	3392
2595.44	3482
2597.37	3399
2599.297	3445
2601.225	3387
2603.153	3423
2605.08	3463
2607.007	3432
2608.932	3326
2610.858	3464
2612.782	3370
2614.709	3359
2616.632	3412
2618.556	3431
2620.478	3407
2622.401	3429
2624.324	3447
2626.247	3427
2628.167	3371
2630.088	3464
2632.008	3377
2633.928	3450
2635.848	3402
2637.766	3395
2639.684	3433
2641.603	3374
2643.519	3399
2645.437	3421
2647.353	3357
2649.27	3435
2651.184	3335
2653.099	3441
2655.014	3419
2656.928	3414
2658.842	3500
2660.755	3318
2662.667	3353
2664.579	3474
2666.491	3397
2668.402	3419
2670.312	3467
2672.222	3407
2674.132	3442
2676.042	3465
2677.951	3402
2679.859	3399
2681.766	3312
2683.674	3410
2685.582	3414
2687.488	3393
2689.392	3385
2691.298	3317
2693.202	3400
2695.107	3360
2697.012	3372
2698.914	3429
2700.817	3320
2702.72	3346
2704.622	3399
2706.524	3361
2708.425	3304
2710.326	3468
2712.225	3358
2714.125	3397
2716.024	3349
2717.923	3316
2719.822	3282
2721.719	3354
2723.616	3363
2725.512	3388
2727.41	3377
2729.305	3432
2731.201	3334
2733.095	3365
2734.99	3357
2736.884	3308
2738.778	3289
2740.67	3357
2742.562	3371
2744.455	3306
2746.346	3446
2748.238	3271
2750.129	3351
2752.018	3378
2753.907	3375
2755.797	3292
2757.687	3323
2759.575	3360
2761.462	3333
2763.349	3268
2765.237	3378
2767.124	3329
2769.009	3338
2770.894	3406
2772.779	3438
2774.663	3314
2776.547	3310
2778.431	3306
2780.314	3343
2782.197	3323
2784.078	3346
2785.96	3385
2787.842	3275
2789.723	3289
2791.603	3361
2793.483	3337
2795.362	3307
2797.241	3293
2799.121	3289
2800.997	3305
2802.874	3333
2804.751	3320
2806.628	3341
2808.506	3391
2810.38	3333
2812.255	3287
2814.13	3307
2816.003	3278
2817.878	3342
2819.752	3223
2821.623	3327
2823.496	3281
2825.368	3299
2827.238	3298
2829.111	3292
2830.98	3292
2832.851	3324
2834.719	3296
2836.589	3299
2838.458	3402
2840.327	3269
2842.193	3369
2844.061	3358
2845.927	3361
2847.794	3321
2849.66	3397
2851.525	3438
2853.39	3414
2855.254	3347
2857.117	3332
2858.983	3360
2860.845	3430
2862.707	3375
2864.569	3478
2866.431	3476
2868.293	3323
2870.154	3516
2872.013	3549
2873.873	3525
2875.733	3587
2877.592	3606
2879.451	3593
2881.309	3641
2883.166	3543
2885.022	3703
2886.879	3606
2888.736	3601
2890.591	3721
2892.446	3726
2894.301	3757
2896.155	3722
2898.009	3749
2899.863	3611
2901.716	3633
2903.568	3610
2905.419	3660
2907.27	3685
2909.123	3648
2910.973	3702
2912.824	3659
2914.673	3764
2916.521	3794
2918.372	3800
2920.22	3742
2922.067	3873
2923.914	3743
2925.761	3763
2927.607	3935
2929.455	3913
2931.301	3925
2933.144	3922
2934.99	4031
2936.833	4010
2938.678	3968
2940.522	4050
2942.364	4078
2944.207	4141
2946.048	4140
2947.891	4132
2949.731	4152
2951.571	4180
2953.412	4163
2955.25	4119
2957.09	4107
2958.93	4029
2960.767	4033
2962.606	3919
2964.443	4005
2966.279	3974
2968.116	3917
2969.953	3899
2971.788	3834
2973.623	3818
2975.457	3791
2977.292	3805
2979.127	3701
2980.959	3709
2982.792	3699
2984.624	3614
2986.455	3629
2988.288	3563
2990.119	3653
2991.949	3586
2993.779	3555
2995.608	3551
2997.439	3607
2999.268	3481
3001.096	3467
3002.923	3499
3004.751	3417
3006.578	3439
3008.406	3390
3010.232	3295
3012.057	3380
3013.883	3352
3015.706	3382
3017.532	3305
3019.356	3240
3021.179	3319
3023.002	3376
3024.823	3261
3026.646	3261
3028.469	3263
3030.289	3222
3032.11	3224
3033.93	3245
3035.749	3166
3037.57	3164
3039.39	3254
3041.207	3271
3043.026	3240
3044.842	3206
3046.661	3254
3048.477	3227
3050.294	3164
3052.109	3170
3053.925	3194
3055.739	3186
3057.555	3183
3059.368	3165
3061.181	3247
3062.995	3184
3064.807	3177
3066.62	3165
3068.433	3218
3070.243	3112
3072.054	3156
3073.865	3183
3075.675	3143
3077.485	3193
3079.293	3190
3081.102	3101
3082.911	3180
3084.719	3113
3086.527	3146
3088.333	3124
3090.139	3106
3091.945	3099
3093.75	3095
3095.557	3115
3097.361	3111
3099.165	3104
3100.969	3103
3102.772	3102
3104.575	3115
3106.379	3208
3108.181	3077
3109.982	3042
3111.783	3040
3113.584	3133
3115.386	3039
3117.186	3007
3118.985	3104
3120.783	3063
3122.582	3120
3124.381	3092
3126.179	3012
3127.975	3093
3129.772	3037
3131.569	3044
3133.365	3095
3135.161	3043
3136.956	3040
3138.751	3097
3140.544	3022
3142.338	2982
3144.132	3011
3145.925	2997
3147.717	3097
3149.509	3016
3151.301	3059
3153.091	3057
3154.884	3063
3156.673	3048
3158.462	3033
3160.252	3048
3162.041	2907
3163.831	3013
3165.618	3017
3167.405	3041
3169.193	3017
3170.979	3025
3172.767	3061
3174.553	2948
3176.338	2970
3178.123	3033
3179.907	3016
3181.692	3037
3183.477	3045
3185.259	3019
3187.042	2995
3188.824	3035
3190.607	2943
3192.389	2951
3194.17	3004
3195.951	2986
3197.73	3007
3199.51	2990
3201.289	3018
3203.07	2992
3204.848	3016
3206.626	3035
3208.403	2998
3210.18	2959
3211.959	2980
3213.735	2951
3215.511	2950
3217.285	2968
3219.06	3008
3220.836	2920
3222.611	2934
3224.384	3022
3226.158	2928
3227.929	2972
3229.702	3025
3231.476	2991
3233.248	2990
3235.018	2970
3236.789	2996
3238.56	3035
3240.33	2989
3242.1	2972
3243.869	2969
3245.637	3065
3247.405	2957
3249.172	2994
3250.941	2944
3252.707	2944
3254.474	3068
3256.24	3011
3258.006	3009
3259.772	2988
3261.537	3020
3263.301	2949
3265.065	2993
3266.828	2941
3268.592	2989
3270.355	3016
3272.117	3019
3273.878	2930
3275.64	2998
3277.401	3001
3279.162	3012
3280.922	3000
3282.682	3033
3284.441	2954
3286.199	2963
3287.959	2993
3289.716	2994
3291.475	2964
3293.232	3033
3294.988	3033
3296.744	3021
3298.501	2989
3300.256	2985
3302.011	2987
3303.766	2938
3305.52	2995
3307.275	2917
3309.028	3043
3310.781	2915
3312.533	2996
3314.285	3048
3316.038	2936
3317.789	3014
3319.54	2991
3321.289	2993
3323.039	2922
3324.789	2954
3326.539	2898
3328.288	2927
3330.035	3044
3331.783	3010
3333.531	2995
3335.28	2967
3337.025	2954
3338.771	3037
3340.518	2958
3342.262	2978
3344.009	3065
3345.753	2960
3347.497	2954
3349.24	2891
3350.983	2947
3352.726	2889
3354.469	2873
3356.212	2977
3357.952	2977
3359.694	2908
3361.434	2925
3363.176	2888
3364.916	2864
3366.654	2891
3368.394	2871
3370.132	2981
3371.871	2897
3373.61	2922
3375.346	2928
3377.083	2902
3378.82	2870
3380.556	2860
3382.292	2847
3384.027	2943
3385.763	2993
3387.497	2838
3389.231	2903
3390.965	2962
3392.698	2871
3394.431	2869
3396.164	2875
3397.896	2893
3399.627	2856
3401.36	2904
3403.09	2857
3404.82	2839
3406.55	2854
3408.279	2871
3410.01	2854
3411.738	2897
3413.467	2838
3415.194	2875
3416.92	2835
3418.647	2863
3420.375	2826
3422.102	2900
3423.827	2885
3425.553	2832
3427.277	2837
3429.003	2911
3430.727	2801
3432.451	2782
3434.173	2785
3435.896	2769
3437.62	2854
3439.343	2822
3441.063	2831
3442.785	2786
3444.505	2770
3446.226	2765
3447.948	2814
3449.666	2776
3451.386	2765
3453.104	2733
3454.823	2805
3456.541	2820
3458.259	2835
3459.976	2794
3461.693	2769
3463.408	2752
3465.125	2792
3466.841	2770
3468.556	2760
3470.271	2749
3471.985	2732
3473.698	2664
3475.414	2744
3477.126	2810
3478.838	2677
3480.55	2743
3482.263	2737
3483.975	2717
3485.686	2777
3487.396	2737
3489.106	2695
3490.817	2677
3492.526	2781
3494.236	2745
3495.944	2707
3497.652	2744
3499.359	2731
3501.066	2634
3502.775	2692
3504.481	2668
3506.187	2755
3507.893	2719
3509.598	2688
3511.304	2757
3513.009	2692
3514.713	2692
3516.417	2603
3518.12	2686
3519.821	2693
3521.525	2721
3523.228	2649
3524.929	2673
3526.631	2640
3528.33	2688
3530.032	2672
3531.733	2633
3533.433	2713
3535.131	2635
3536.83	2613
3538.529	2689
3540.227	2657
3541.925	2605
3543.623	2581
3545.319	2611
3547.016	2608
3548.712	2682
3550.408	2544
3552.103	2655
3553.798	2630
3555.491	2581
3557.188	2587
3558.88	2593
3560.574	2578
3562.266	2548
3563.959	2576
3565.651	2574
3567.343	2527
3569.035	2589
3570.725	2586
3572.415	2593
3574.106	2640
3575.797	2566
3577.485	2601
3579.174	2613
3580.863	2593
3582.551	2616
3584.238	2586
3585.926	2560
3587.613	2643
3589.3	2483
3590.986	2532
3592.671	2527
3594.357	2601
3596.042	2556
3597.726	2500
3599.41	2484
3601.094	2561
3602.778	2600
3604.461	2515
3606.143	2614
3607.825	2553
3609.507	2518
3611.188	2508
3612.87	2473
3614.551	2481
3616.229	2487
3617.909	2460
3619.589	2454
3621.269	2534
3622.948	2519
3624.625	2513
3626.302	2458
3627.98	2473
3629.657	2435
3631.334	2462
3633.01	2497
3634.686	2464
3636.361	2491
3638.036	2450
3639.712	2445
3641.385	2450
3643.06	2382
3644.732	2410
3646.405	2409
3648.08	2475
3649.751	2403
3651.424	2421
3653.094	2399
3654.766	2458
3656.436	2484
3658.106	2470
3659.777	2401
3661.446	2421
3663.115	2484
3664.783	2360
3666.452	2401
3668.121	2384
3669.788	2384
3671.454	2383
3673.121	2400
3674.789	2465
3676.455	2427
3678.12	2357
3679.784	2340
3681.45	2423
3683.114	2382
3684.779	2357
3686.442	2428
3688.105	2427
3689.768	2401
3691.43	2377
3693.093	2396
3694.754	2391
3696.415	2389
3698.076	2378
3699.736	2425
3701.396	2367
3703.057	2381
3704.716	2362
3706.375	2410
3708.034	2376
3709.692	2327
3711.351	2430
3713.008	2359
3714.665	2323
3716.321	2367
3717.977	2350
3719.634	2370
3721.29	2337
3722.945	2361
3724.598	2321
3726.253	2400
3727.907	2359
3729.561	2335
3731.214	2359
3732.867	2350
3734.518	2316
3736.171	2401
3737.824	2390
3739.474	2324
3741.125	2346
3742.775	2387
3744.425	2334
3746.074	2296
3747.725	2388
3749.373	2320
3751.022	2381
3752.669	2324
3754.318	2370
3755.966	2290
3757.612	2315
3759.259	2288
3760.905	2367
3762.55	2357
3764.197	2283
3765.842	2333
3767.486	2302
3769.131	2301
3770.774	2247
3772.417	2345
3774.061	2300
3775.705	2290
3777.347	2326
3778.988	2266
3780.629	2245
3782.271	2328
3783.912	2309
3785.552	2316
3787.192	2279
3788.831	2319
3790.472	2298
3792.112	2296
3793.75	2325
3795.388	2245
3797.024	2249
3798.661	2306
3800.3	2348
3801.936	2207
3803.572	2249
3805.208	2263
3806.844	2309
3808.48	2259
3810.115	2297
3811.748	2274
3813.382	2330
3815.016	2281
3816.649	2251
3818.283	2256
3819.914	2284
3821.547	2259
3823.178	2294
3824.809	2225
3826.441	2198
3828.072	2263
3829.701	2230
3831.331	2202
3832.96	2190
3834.591	2238
3836.219	2271
3837.847	2204
3839.475	2226
3841.102	2224
3842.729	2297
3844.357	2216
3845.984	2261
3847.609	2207
3849.234	2222
3850.86	2217
3852.485	2239
3854.11	2230
3855.734	2191
3857.357	2230
3858.981	2172
3860.603	2242
3862.227	2205
3863.848	2190
3865.471	2230
3867.092	2224
3868.713	2170
3870.334	2206
3871.954	2199
3873.575	2239
3875.194	2222
3876.813	2193
3878.433	2211
3880.051	2143
3881.669	2141
3883.286	2180
3884.904	2196
3886.52	2180
3888.138	2160
3889.754	2147
3891.37	2249
3892.985	2184
3894.6	2194
3896.216	2212
3897.831	2158
3899.444	2132
3901.058	2166
3902.67	2181
3904.283	2142
3905.897	2209
3907.509	2158
3909.121	2164
3910.731	2130
3912.342	2167
3913.954	2195
3915.563	2145
3917.174	2149
3918.783	2181
3920.391	2190
3922.002	2132
3923.611	2141
3925.218	2127
3926.826	2169
3928.432	2158
3930.039	2159
3931.647	2149
3933.253	2145
3934.859	2143
3936.464	2113
3938.068	2136
3939.675	2170
3941.278	2126
3942.883	2187
3944.486	2147
3946.089	2102
3947.692	2120
3949.295	2118
3950.898	2115
3952.499	2195
3954.1	2167
3955.7	2081
3957.303	2101
3958.903	2131
3960.502	2164
3962.101	2129
3963.7	2139
3965.301	2158
3966.899	2098
3968.497	2081
3970.094	2126
3971.691	2098
3973.288	2066
3974.885	2031
3976.481	2125
3978.077	2122
3979.672	2155
3981.267	2066
3982.863	2140
3984.457	2122
3986.051	2016
3987.645	2083
3989.238	2100
3990.831	2029
3992.425	2077
3994.017	2086
3995.607	2095
3997.199	2101
3998.79	2046
4000.382	2068
4001.973	1980
4003.561	2045
4005.151	2083
4006.741	2051
4008.331	2068
4009.918	2067
4011.507	2028
4013.095	2095
4014.681	2066
4016.269	1992
4017.856	2042
4019.443	2097
4021.028	2022
4022.614	2046
4024.199	2023
4025.785	2071
4027.37	2031
4028.953	2039
4030.536	2054
4032.12	2021
4033.704	2008
4035.287	2019
4036.869	2026
4038.45	1978
4040.032	2006
4041.613	1969
4043.195	2026
4044.776	2027
4046.356	1999
4047.935	2038
4049.515	2012
4051.095	1981
4052.674	1972
4054.251	1994
4055.829	2048
4057.406	1987
4058.985	2036
4060.562	2033
4062.139	2016
4063.715	1985
4065.29	1964
4066.865	1978
4068.442	1970
4070.016	1993
4071.59	1972
4073.164	1969
4074.738	2038
4076.312	2000
4077.885	1950
4079.458	2008
4081.03	1934
4082.602	2000
4084.173	1937
4085.745	1992
4087.315	1922
4088.886	1935
4090.456	1909
4092.026	1949
4093.596	1944
4095.165	1948
4096.734	2008
4098.301	1919
4099.869	1996
4101.437	1968
4103.006	1992
4104.572	1921
4106.139	1942
4107.704	1939
4109.27	1898
4110.837	1951
4112.401	1922
4113.966	1941
4115.53	1933
4117.094	1929
4118.659	1961
4120.223	1945
4121.785	1858
4123.347	1945
4124.909	1909
4126.471	1932
4128.034	1938
4129.595	1917
4131.155	1909
4132.716	1902
4134.275	1902
4135.836	1950
4137.395	1886
4138.955	1980
4140.513	1940
4142.071	1934
4143.628	1907
4145.188	1934
4146.745	1885
4148.302	1913
4149.858	1911
4151.414	1946
4152.971	1890
4154.526	1866
4156.081	1906
4157.635	1856
4159.189	1855
4160.745	1905
4162.298	1899
4163.852	1863
4165.405	1847
4166.957	1914
4168.51	1854
4170.063	1876
4171.614	1886
4173.166	1829
4174.717	1921
4176.267	1894
4177.817	1873
4179.368	1855
4180.917	1807
4182.466	1857
4184.016	1792
4185.564	1845
4187.112	1873
4188.66	1860
4190.207	1815
4191.754	1862
4193.301	1851
4194.848	1839
4196.394	1835
4197.94	1848
4199.484	1870
4201.03	1829
4202.575	1818
4204.12	1861
4205.663	1792
4207.207	1821
4208.75	1825
4210.292	1786
4211.836	1854
4213.378	1863
4214.92	1806
4216.46	1864
4218.002	1816
4219.544	1827
4221.083	1804
4222.625	1891
4224.164	1795
4225.703	1808
4227.244	1808
4228.782	1825
4230.32	1827
4231.857	1795
4233.395	1798
4234.933	1820
4236.471	1807
4238.007	1815
4239.542	1823
4241.078	1820
4242.614	1798
4244.15	1824
4245.685	1796
4247.219	1786
4248.753	1810
4250.287	1772
4251.82	1849
4253.354	1802
4254.887	1789
4256.419	1740
4257.951	1770
4259.483	1803
4261.016	1797
4262.547	1786
4264.078	1752
4265.608	1796
4267.137	1797
4268.668	1767
4270.197	1754
4271.727	1775
4273.254	1795
4274.783	1778
4276.311	1758
4277.84	1770
4279.366	1801
4280.894	1782
4282.42	1806
4283.946	1751
4285.473	1801
4286.998	1777
4288.523	1758
4290.047	1705
4291.572	1727
4293.096	1785
4294.622	1747
4296.144	1765
4297.668	1744
4299.19	1783
4300.713	1769
4302.236	1716
4303.758	1743
4305.279	1767
4306.799	1735
4308.321	1781
4309.842	1792
4311.361	1753
4312.882	1759
4314.401	1732
