400.0961	3097
402.6185	3012
405.1424	3051
407.6635	3065
410.1838	3004
412.7035	3080
415.2225	3031
417.7388	3123
420.2585	3103
422.7754	3124
425.2917	3128
427.8072	3217
430.3221	3224
432.8363	3274
435.3498	3284
437.8626	3317
440.3727	3311
442.8841	3211
445.3969	3255
447.907	3298
450.4142	3145
452.9229	3227
455.4289	3206
457.9362	3188
460.4449	3221
462.9488	3171
465.454	3201
467.9566	3125
470.4604	3187
472.9637	3212
475.4662	3184
477.966	3172
480.4671	3193
482.9656	3211
485.4633	3167
487.9645	3247
490.4608	3312
492.9566	3317
495.4536	3274
497.948	3180
500.4437	3272
502.9387	3269
505.431	3292
507.9226	3326
510.4136	3305
512.9079	3299
515.3975	3296
517.8864	3332
520.3746	3294
522.8622	3239
525.3491	3312
527.8394	3235
530.3249	3293
532.8098	3340
535.2939	3309
537.7774	3272
540.2623	3361
542.7444	3334
545.2259	3312
547.7067	3306
550.1868	3346
552.6683	3279
555.147	3379
557.6231	3303
560.1005	3352
562.5773	3386
565.0534	3328
567.5308	3359
570.0056	3292
572.4776	3448
574.951	3460
577.4237	3441
579.8978	3426
582.3671	3473
584.8378	3389
587.3079	3452
589.7773	3491
592.244	3413
594.714	3509
597.1793	3373
599.6461	3441
602.1121	3459
604.5754	3396
607.0421	3481
609.5042	3433
611.9675	3472
614.4282	3413
616.8902	3479
619.3515	3367
621.8122	3365
624.2702	3343
626.7296	3377
629.1863	3426
631.6423	3401
634.1017	3319
636.5563	3443
639.0104	3328
641.4658	3444
643.9185	3395
646.3725	3483
648.8239	3381
651.2766	3392
653.7266	3374
656.176	3420
658.6247	3551
661.0748	3509
663.5242	3473
665.9709	3438
668.417	3425
670.8624	3464
673.3092	3525
675.7533	3514
678.1968	3533
680.6395	3549
683.0817	3493
685.5251	3477
687.9659	3523
690.4061	3561
692.8456	3521
695.2844	3534
697.7226	3472
700.1621	3545
702.599	3530
705.0332	3619
707.4688	3601
709.9036	3673
712.3399	3543
714.7735	3613
717.2044	3560
719.6367	3641
722.0683	3666
724.4993	3580
726.9296	3674
729.3593	3535
731.7883	3704
734.2147	3613
736.6423	3619
739.0714	3715
741.4958	3744
743.9216	3702
746.3447	3577
748.7691	3619
751.1929	3722
753.616	3631
756.0366	3774
758.4584	3736
760.8776	3740
763.2982	3640
765.718	3698
768.1373	3714
770.5539	3677
772.9698	3741
775.3871	3753
777.8038	3734
780.2178	3783
782.6332	3838
785.0459	3683
787.458	3773
789.8714	3760
792.2842	3758
794.6943	3834
797.1038	3803
799.5127	3803
801.9209	3763
804.3324	3759
806.7393	3681
809.1456	3850
811.5513	3795
813.9562	3786
816.3625	3833
818.7663	3918
821.1693	3830
823.5718	3764
825.9735	3741
828.3746	3728
830.7771	3779
833.177	3729
835.5762	3845
837.9747	3845
840.3727	3822
842.772	3785
845.1666	3880
847.5626	3891
849.958	3882
852.3527	3974
854.7488	3960
857.1403	3893
859.5331	3923
861.9253	3923
864.3168	3923
866.7057	3869
869.098	3879
871.4876	3830
873.8746	3828
876.263	3945
878.6487	3948
881.0378	3812
883.4243	3922
885.8081	3897
888.1933	3919
890.5759	3910
892.9598	3941
895.343	3815
897.7256	3885
900.1057	3845
902.4871	4022
904.8659	3964
907.246	3901
909.6254	4009
912.0023	4014
914.3786	4026
916.7562	4076
919.1331	4062
921.5074	4171
923.8831	4172
926.2562	4137
928.6287	4189
931.0005	4111
933.3757	4229
935.7462	4271
938.1162	4219
940.4855	4248
942.8542	4212
945.2242	4347
947.5916	4431
949.9584	4453
952.3266	4624
954.6921	4757
957.0571	4851
959.4233	5033
961.787	5111
964.15	5090
966.5125	5078
968.8742	4789
971.2354	4550
973.5959	4496
975.9559	4229
978.3151	4248
980.6738	4109
983.0338	4120
985.3912	4050
987.7461	4058
990.1022	4064
992.4578	4015
994.8127	4100
997.1689	4075
999.5207	3982
1001.874	4100
1004.226	4124
1006.576	4081
1008.929	4098
1011.28	4067
1013.628	4139
1015.977	4062
1018.324	4016
1020.674	4032
1023.019	4081
1025.366	4080
1027.713	4092
1030.056	4070
1032.399	4069
1034.746	4117
1037.087	4106
1039.431	4137
1041.771	4094
1044.113	4138
1046.454	4111
1048.793	4257
1051.133	4152
1053.471	4170
1055.807	4118
1058.146	4214
1060.483	4206
1062.818	4141
1065.153	4172
1067.489	4201
1069.822	4196
1072.156	4277
1074.488	4197
1076.82	4191
1079.15	4169
1081.48	4224
1083.814	4251
1086.143	4273
1088.471	4231
1090.799	4133
1093.126	4139
1095.452	4077
1097.78	4092
1100.105	4179
1102.43	4094
1104.754	4188
1107.077	4107
1109.4	4112
1111.722	4177
1114.044	4172
1116.365	4158
1118.685	4194
1121.005	4130
1123.324	4132
1125.643	4170
1127.961	4224
1130.278	4056
1132.595	4179
1134.911	4146
1137.226	4085
1139.541	4142
1141.854	4114
1144.167	4085
1146.482	4166
1148.793	4163
1151.105	4080
1153.414	4100
1155.725	4104
1158.033	4237
1160.344	4109
1162.651	4146
1164.959	4116
1167.265	4093
1169.572	4207
1171.878	4131
1174.184	4107
1176.488	4064
1178.79	4106
1181.094	4219
1183.396	4118
1185.699	4214
1188.001	4157
1190.301	4177
1192.6	4160
1194.9	4095
1197.2	4224
1199.497	4179
1201.794	4177
1204.09	4163
1206.387	4220
1208.684	4213
1210.978	4222
1213.272	4207
1215.565	4141
1217.858	4154
1220.15	4172
1222.443	4211
1224.734	4242
1227.024	4218
1229.313	4285
1231.602	4235
1233.892	4252
1236.18	4283
1238.467	4350
1240.754	4314
1243.04	4382
1245.325	4404
1247.612	4334
1249.896	4393
1252.178	4394
1254.461	4446
1256.743	4399
1259.027	4361
1261.308	4237
1263.587	4354
1265.867	4341
1268.146	4375
1270.425	4402
1272.703	4416
1274.981	4419
1277.256	4338
1279.532	4429
1281.808	4336
1284.083	4312
1286.358	4343
1288.63	4372
1290.904	4265
1293.175	4368
1295.449	4274
1297.719	4365
1299.99	4206
1302.259	4308
1304.529	4292
1306.798	4357
1309.065	4249
1311.333	4315
1313.599	4314
1315.866	4331
1318.131	4290
1320.396	4263
1322.66	4219
1324.925	4314
1327.187	4261
1329.448	4280
1331.711	4407
1333.974	4274
1336.234	4311
1338.493	4446
1340.752	4317
1343.01	4304
1345.269	4362
1347.526	4305
1349.784	4293
1352.04	4269
1354.295	4284
1356.552	4349
1358.806	4245
1361.059	4298
1363.312	4298
1365.564	4332
1367.818	4333
1370.069	4317
1372.318	4355
1374.568	4376
1376.817	4329
1379.066	4313
1381.316	4353
1383.564	4326
1385.809	4287
1388.056	4422
1390.301	4391
1392.549	4516
1394.793	4483
1397.036	4550
1399.279	4553
1401.522	4609
1403.763	4594
1406.007	4579
1408.248	4505
1410.487	4571
1412.727	4537
1414.965	4493
1417.205	4529
1419.442	4466
1421.68	4522
1423.915	4463
1426.152	4475
1428.388	4551
1430.623	4587
1432.857	4565
1435.091	4558
1437.323	4545
1439.556	4542
1441.789	4552
1444.019	4607
1446.25	4535
1448.48	4572
1450.708	4588
1452.938	4639
1455.167	4581
1457.394	4663
1459.62	4578
1461.846	4646
1464.073	4629
1466.299	4495
1468.523	4565
1470.746	4474
1472.969	4381
1475.191	4526
1477.415	4485
1479.636	4418
1481.858	4342
1484.078	4309
1486.298	4289
1488.518	4352
1490.736	4394
1492.954	4353
1495.169	4385
1497.386	4310
1499.602	4426
1501.819	4348
1504.034	4269
1506.248	4351
1508.462	4204
1510.675	4305
1512.888	4358
1515.1	4338
1517.311	4331
1519.522	4340
1521.732	4307
1523.942	4238
1526.151	4314
1528.36	4265
1530.566	4315
1532.773	4345
1534.98	4279
1537.187	4261
1539.392	4305
1541.596	4295
1543.801	4323
1546.005	4378
1548.208	4399
1550.411	4418
1552.612	4296
1554.814	4415
1557.013	4379
1559.212	4325
1561.414	4393
1563.612	4397
1565.811	4420
1568.007	4390
1570.203	4409
1572.403	4407
1574.598	4438
1576.792	4359
1578.988	4363
1581.181	4503
1583.376	4386
1585.568	4378
1587.761	4331
1589.952	4433
1592.143	4399
1594.333	4463
1596.524	4377
1598.715	4314
1600.903	4434
1603.091	4501
1605.278	4473
1607.466	4541
1609.652	4449
1611.838	4455
1614.023	4505
1616.207	4483
1618.391	4432
1620.576	4477
1622.759	4577
1624.941	4454
1627.123	4449
1629.304	4545
1631.484	4573
1633.664	4603
1635.844	4572
1638.022	4598
1640.201	4494
1642.38	4572
1644.556	4503
1646.732	4545
1648.908	4562
1651.084	4601
1653.257	4562
1655.433	4604
1657.607	4577
1659.779	4606
1661.951	4533
1664.122	4618
1666.295	4558
1668.467	4708
1670.635	4634
1672.805	4648
1674.973	4631
1677.142	4657
1679.31	4661
1681.478	4611
1683.644	4598
1685.81	4595
1687.975	4638
1690.142	4587
1692.305	4518
1694.468	4566
1696.632	4589
1698.794	4562
1700.957	4572
1703.119	4547
1705.279	4430
1707.439	4413
1709.598	4500
1711.758	4461
1713.917	4441
1716.075	4533
1718.231	4448
1720.388	4410
1722.543	4320
1724.702	4468
1726.856	4410
1729.01	4430
1731.164	4359
1733.317	4529
1735.471	4509
1737.623	4430
1739.774	4394
1741.925	4512
1744.075	4399
1746.225	4448
1748.376	4389
1750.524	4445
1752.672	4490
1754.82	4405
1756.965	4404
1759.113	4530
1761.259	4474
1763.405	4435
1765.549	4542
1767.694	4522
1769.836	4440
1771.981	4503
1774.123	4463
1776.264	4536
1778.405	4516
1780.546	4538
1782.687	4399
1784.827	4508
1786.966	4478
1789.103	4535
1791.242	4531
1793.381	4510
1795.517	4514
1797.653	4562
1799.788	4464
1801.923	4532
1804.057	4528
1806.193	4529
1808.326	4489
1810.457	4501
1812.59	4558
1814.721	4592
1816.855	4562
1818.984	4462
1821.113	4520
1823.244	4493
1825.372	4506
1827.499	4582
1829.63	4587
1831.756	4464
1833.882	4430
1836.007	4449
1838.132	4455
1840.26	4450
1842.384	4483
1844.507	4490
1846.63	4436
1848.752	4456
1850.875	4480
1852.996	4486
1855.118	4292
1857.238	4464
1859.358	4510
1861.477	4497
1863.597	4528
1865.715	4429
1867.832	4420
1869.948	4563
1872.064	4452
1874.181	4471
1876.297	4470
1878.411	4538
1880.526	4463
1882.639	4491
1884.752	4489
1886.865	4510
1888.977	4456
1891.089	4555
1893.2	4491
1895.308	4437
1897.42	4508
1899.53	4518
1901.639	4459
1903.745	4481
1905.853	4544
1907.962	4498
1910.067	4495
1912.174	4454
1914.278	4431
1916.383	4502
1918.486	4479
1920.592	4543
1922.694	4496
1924.797	4509
1926.898	4531
1929	4553
1931.102	4491
1933.203	4584
1935.301	4533
1937.401	4564
1939.499	4562
1941.598	4513
1943.697	4606
1945.793	4524
1947.888	4578
1949.985	4513
1952.08	4530
1954.176	4502
1956.269	4523
1958.364	4465
1960.457	4574
1962.549	4526
1964.642	4608
1966.733	4587
1968.823	4455
1970.913	4493
1973.005	4563
1975.093	4552
1977.184	4504
1979.271	4516
1981.359	4514
1983.446	4462
1985.532	4474
1987.619	4568
1989.705	4614
1991.789	4541
1993.874	4560
1995.956	4550
1998.041	4499
2000.123	4485
2002.206	4426
2004.287	4564
2006.368	4509
2008.449	4508
2010.529	4556
2012.609	4538
2014.688	4514
2016.766	4526
2018.843	4479
2020.922	4554
2022.999	4527
2025.074	4398
2027.15	4573
2029.225	4516
2031.299	4443
2033.375	4577
2035.447	4515
2037.52	4495
2039.592	4484
2041.664	4547
2043.736	4548
2045.807	4505
2047.876	4506
2049.947	4470
2052.015	4512
2054.086	4486
2056.153	4503
2058.221	4492
2060.288	4470
2062.353	4507
2064.42	4497
2066.486	4433
2068.55	4493
2070.614	4509
2072.678	4565
2074.741	4521
2076.805	4523
2078.866	4615
2080.929	4431
2082.99	4515
2085.049	4469
2087.109	4541
2089.17	4431
2091.228	4531
2093.286	4597
2095.344	4559
2097.4	4484
2099.46	4491
2101.516	4499
2103.572	4519
2105.626	4516
2107.679	4547
2109.735	4486
2111.788	4461
2113.841	4426
2115.894	4525
2117.945	4519
2119.997	4503
2122.049	4506
2124.1	4511
2126.148	4562
2128.197	4562
2130.246	4523
2132.296	4543
2134.342	4506
2136.39	4599
2138.437	4509
2140.483	4477
2142.527	4460
2144.574	4557
2146.619	4444
2148.661	4499
2150.705	4518
2152.747	4402
2154.792	4488
2156.832	4479
2158.874	4526
2160.915	4454
2162.954	4417
2164.995	4514
2167.034	4500
2169.072	4450
2171.111	4471
2173.148	4490
2175.186	4504
2177.223	4541
2179.258	4360
2181.294	4465
2183.328	4439
2185.362	4514
2187.398	4457
2189.431	4467
2191.463	4492
2193.495	4491
2195.528	4494
2197.56	4376
2199.59	4316
2201.62	4378
2203.649	4331
2205.678	4411
2207.708	4387
2209.737	4360
2211.764	4453
2213.791	4313
2215.817	4450
2217.843	4449
2219.87	4363
2221.895	4405
2223.919	4380
2225.942	4487
2227.966	4461
2229.988	4413
2232.012	4368
2234.032	4408
2236.054	4420
2238.074	4333
2240.095	4408
2242.116	4500
2244.135	4465
2246.153	4400
2248.171	4417
2250.188	4417
2252.208	4318
2254.223	4401
2256.239	4349
2258.255	4314
2260.269	4437
2262.283	4455
2264.3	4392
2266.312	4367
2268.325	4417
2270.336	4331
2272.349	4410
2274.362	4311
2276.372	4364
2278.383	4320
2280.392	4316
2282.402	4371
2284.409	4340
2286.418	4434
2288.427	4384
2290.433	4318
2292.441	4388
2294.446	4313
2296.453	4402
2298.459	4419
2300.463	4407
2302.466	4459
2304.471	4377
2306.475	4357
2308.477	4469
2310.478	4377
2312.481	4304
2314.481	4441
2316.481	4327
2318.482	4368
2320.482	4318
2322.48	4362
2324.48	4344
2326.478	4372
2328.476	4458
2330.473	4417
2332.469	4355
2334.465	4397
2336.46	4364
2338.454	4332
2340.45	4406
2342.444	4334
2344.437	4313
2346.43	4344
2348.421	4308
2350.414	4167
2352.405	4356
2354.396	4314
2356.386	4320
2358.376	4331
2360.366	4297
2362.355	4276
2364.343	4254
2366.331	4365
2368.317	4358
2370.304	4329
2372.292	4316
2374.278	4352
2376.262	4400
2378.247	4276
2380.23	4372
2382.216	4307
2384.199	4321
2386.181	4243
2388.163	4291
2390.144	4328
2392.127	4281
2394.107	4366
2396.087	4161
2398.066	4247
2400.046	4221
2402.023	4346
2404.004	4222
2405.981	4211
2407.957	4318
2409.934	4251
2411.91	4242
2413.886	4340
2415.862	4269
2417.836	4335
2419.809	4298
2421.784	4258
2423.756	4232
2425.73	4233
2427.701	4253
2429.672	4228
2431.644	4216
2433.615	4221
2435.586	4278
2437.555	4250
2439.523	4237
2441.491	4304
2443.459	4231
2445.428	4188
2447.395	4300
2449.361	4297
2451.327	4249
2453.292	4151
2455.257	4262
2457.223	4266
2459.187	4212
2461.15	4145
2463.113	4229
2465.076	4207
2467.039	4152
2468.999	4211
2470.96	4146
2472.921	4235
2474.881	4288
2476.841	4203
2478.8	4170
2480.759	4226
2482.717	4242
2484.675	4174
2486.63	4237
2488.589	4239
2490.545	4249
2492.5	4250
2494.455	4306
2496.408	4189
2498.364	4163
2500.318	4205
2502.27	4119
2504.223	4136
2506.174	4206
2508.126	4197
2510.078	4227
2512.03	4235
2513.979	4183
2515.927	4240
2517.877	4220
2519.826	4199
2521.775	4152
2523.722	4183
2525.668	4196
2527.616	4187
2529.561	4125
2531.508	4258
2533.452	4146
2535.398	4183
2537.342	4200
2539.284	4165
2541.229	4197
2543.173	4112
2545.114	4142
2547.055	4239
2548.996	4157
2550.938	4181
2552.878	4209
2554.817	4138
2556.756	4089
2558.695	4180
2560.633	4173
2562.572	4190
2564.509	4164
2566.445	4205
2568.382	4175
2570.317	4147
2572.254	4137
2574.189	4246
2576.123	4171
2578.057	4173
2579.99	4190
2581.923	4214
2583.855	4056
2585.788	4092
2587.719	4150
2589.65	4170
2591.579	4182
2593.511	4179
2595.44	4202
2597.37	4190
2599.297	4297
2601.225	4150
2603.153	4288
2605.08	4202
2607.007	4087
2608.932	4215
2610.858	4163
2612.782	4115
2614.709	4235
2616.632	4113
2618.556	4180
2620.478	4160
2622.401	4137
2624.324	4214
2626.247	4204
2628.167	4192
2630.088	4134
2632.008	4150
2633.928	4259
2635.848	4098
2637.766	4161
2639.684	4195
2641.603	4282
2643.519	4139
2645.437	4225
2647.353	4227
2649.27	4274
2651.184	4126
2653.099	4156
2655.014	4139
2656.928	4186
2658.842	4214
2660.755	4124
2662.667	4183
2664.579	4144
2666.491	4197
2668.402	4198
2670.312	4245
2672.222	4180
2674.132	4183
2676.042	4178
2677.951	4151
2679.859	4174
2681.766	4110
2683.674	4174
2685.582	4163
2687.488	4105
2689.392	4138
2691.298	4061
2693.202	4161
2695.107	4181
2697.012	4159
2698.914	4121
2700.817	3989
2702.72	4067
2704.622	4087
2706.524	4300
2708.425	4089
2710.326	4182
2712.225	4189
2714.125	4134
2716.024	4164
2717.923	4105
2719.822	4140
2721.719	4029
2723.616	4179
2725.512	4042
2727.41	4183
2729.305	4102
2731.201	4120
2733.095	4136
2734.99	4058
2736.884	4116
2738.778	4188
2740.67	4068
2742.562	4185
2744.455	4157
2746.346	4134
2748.238	4102
2750.129	4166
2752.018	4176
2753.907	4149
2755.797	4132
2757.687	4106
2759.575	4138
2761.462	4141
2763.349	4115
2765.237	4175
2767.124	4197
2769.009	3991
2770.894	4064
2772.779	4076
2774.663	4064
2776.547	4129
2778.431	4055
2780.314	4089
2782.197	4107
2784.078	4053
2785.96	4029
2787.842	4100
2789.723	4099
2791.603	4132
2793.483	4065
2795.362	4034
2797.241	4075
2799.121	4088
2800.997	4118
2802.874	4102
2804.751	4042
2806.628	4009
2808.506	4069
2810.38	4021
2812.255	4037
2814.13	4149
2816.003	4148
2817.878	4027
2819.752	4080
2821.623	4073
2823.496	3996
2825.368	4132
2827.238	4122
2829.111	4145
2830.98	4085
2832.851	4070
2834.719	4119
2836.589	4100
2838.458	4154
2840.327	4096
2842.193	4101
2844.061	4138
2845.927	4177
2847.794	4161
2849.66	4202
2851.525	4118
2853.39	4225
2855.254	4236
2857.117	4142
2858.983	4218
2860.845	4233
2862.707	4296
2864.569	4310
2866.431	4324
2868.293	4349
2870.154	4321
2872.013	4404
2873.873	4379
2875.733	4517
2877.592	4476
2879.451	4570
2881.309	4537
2883.166	4717
2885.022	4669
2886.879	4702
2888.736	4717
2890.591	4707
2892.446	4732
2894.301	4782
2896.155	4672
2898.009	4657
2899.863	4744
2901.716	4697
2903.568	4686
2905.419	4727
2907.27	4685
2909.123	4722
2910.973	4697
2912.824	4652
2914.673	4746
2916.521	4816
2918.372	4755
2920.22	4824
2922.067	4904
2923.914	4966
2925.761	5043
2927.607	4981
2929.455	4956
2931.301	5052
2933.144	4985
2934.99	5065
2936.833	5094
2938.678	5093
2940.522	5250
2942.364	5316
2944.207	5385
2946.048	5296
2947.891	5387
2949.731	5456
2951.571	5456
2953.412	5363
2955.25	5394
2957.09	5341
2958.93	5297
2960.767	5212
2962.606	5176
2964.443	5164
2966.279	5192
2968.116	5118
2969.953	4991
2971.788	4880
2973.623	4864
2975.457	4843
2977.292	4775
2979.127	4711
2980.959	4747
2982.792	4611
2984.624	4607
2986.455	4590
2988.288	4688
2990.119	4539
2991.949	4558
2993.779	4424
2995.608	4460
2997.439	4367
2999.268	4417
3001.096	4361
3002.923	4352
3004.751	4219
3006.578	4276
3008.406	4266
3010.232	4190
3012.057	4192
3013.883	4118
3015.706	4173
3017.532	3972
3019.356	4068
3021.179	4018
3023.002	4010
3024.823	3953
3026.646	4026
3028.469	3973
3030.289	4006
3032.11	3969
3033.93	4023
3035.749	3980
3037.57	3889
3039.39	3947
3041.207	3961
3043.026	3899
3044.842	3922
3046.661	3895
3048.477	3964
3050.294	3828
3052.109	3900
3053.925	3881
3055.739	3921
3057.555	3931
3059.368	3891
3061.181	3875
3062.995	3883
3064.807	3921
3066.62	3838
3068.433	3881
3070.243	3889
3072.054	3898
3073.865	3865
3075.675	3969
3077.485	3893
3079.293	3844
3081.102	3894
3082.911	3760
3084.719	3742
3086.527	3896
3088.333	3789
3090.139	3776
3091.945	3860
3093.75	3827
3095.557	3895
3097.361	3762
3099.165	3825
3100.969	3804
3102.772	3831
3104.575	3739
3106.379	3771
3108.181	3717
3109.982	3725
3111.783	3823
3113.584	3745
3115.386	3780
3117.186	3726
3118.985	3766
3120.783	3769
3122.582	3683
3124.381	3701
3126.179	3770
3127.975	3772
3129.772	3836
3131.569	3751
3133.365	3739
3135.161	3790
3136.956	3796
3138.751	3790
3140.544	3709
3142.338	3794
3144.132	3823
3145.925	3751
3147.717	3746
3149.509	3745
3151.301	3702
3153.091	3740
3154.884	3745
3156.673	3709
3158.462	3716
3160.252	3700
3162.041	3742
3163.831	3776
3165.618	3703
3167.405	3642
3169.193	3650
3170.979	3644
3172.767	3752
3174.553	3657
3176.338	3664
3178.123	3544
3179.907	3672
3181.692	3691
3183.477	3717
3185.259	3663
3187.042	3645
3188.824	3620
3190.607	3714
3192.389	3719
3194.17	3643
3195.951	3717
3197.73	3715
3199.51	3663
3201.289	3683
3203.07	3671
3204.848	3681
3206.626	3670
3208.403	3648
3210.18	3601
3211.959	3700
3213.735	3660
3215.511	3670
3217.285	3621
3219.06	3698
3220.836	3713
3222.611	3722
3224.384	3646
3226.158	3720
3227.929	3677
3229.702	3643
3231.476	3658
3233.248	3627
3235.018	3660
3236.789	3705
3238.56	3719
3240.33	3707
3242.1	3580
3243.869	3673
3245.637	3745
3247.405	3645
3249.172	3620
3250.941	3753
3252.707	3690
3254.474	3609
3256.24	3681
3258.006	3705
3259.772	3752
3261.537	3661
3263.301	3698
3265.065	3695
3266.828	3779
3268.592	3715
3270.355	3640
3272.117	3652
3273.878	3618
3275.64	3733
3277.401	3716
3279.162	3747
3280.922	3694
3282.682	3640
3284.441	3717
3286.199	3622
3287.959	3685
3289.716	3723
3291.475	3756
3293.232	3646
3294.988	3742
3296.744	3661
3298.501	3666
3300.256	3642
3302.011	3685
3303.766	3691
3305.52	3677
3307.275	3674
3309.028	3667
3310.781	3712
3312.533	3757
3314.285	3688
3316.038	3644
3317.789	3710
3319.54	3602
3321.289	3698
3323.039	3713
3324.789	3674
3326.539	3729
3328.288	3678
3330.035	3625
3331.783	3664
3333.531	3628
3335.28	3580
3337.025	3765
3338.771	3670
3340.518	3685
3342.262	3598
3344.009	3643
3345.753	3636
3347.497	3659
3349.24	3626
3350.983	3672
3352.726	3645
3354.469	3643
3356.212	3697
3357.952	3609
3359.694	3600
3361.434	3587
3363.176	3637
3364.916	3578
3366.654	3487
3368.394	3618
3370.132	3629
3371.871	3536
3373.61	3561
3375.346	3506
3377.083	3472
3378.82	3514
3380.556	3624
3382.292	3544
3384.027	3579
3385.763	3635
3387.497	3525
3389.231	3535
3390.965	3503
3392.698	3435
3394.431	3519
3396.164	3533
3397.896	3599
3399.627	3523
3401.36	3561
3403.09	3504
3404.82	3477
3406.55	3551
3408.279	3532
3410.01	3454
3411.738	3508
3413.467	3518
3415.194	3433
3416.92	3451
3418.647	3492
3420.375	3484
3422.102	3418
3423.827	3508
3425.553	3451
3427.277	3519
3429.003	3437
3430.727	3455
3432.451	3487
3434.173	3416
3435.896	3418
3437.62	3447
3439.343	3444
3441.063	3439
3442.785	3390
3444.505	3432
3446.226	3447
3447.948	3420
3449.666	3389
3451.386	3384
3453.104	3390
3454.823	3419
3456.541	3444
3458.259	3390
3459.976	3360
3461.693	3323
3463.408	3317
3465.125	3330
3466.841	3354
3468.556	3406
3470.271	3420
3471.985	3409
3473.698	3310
3475.414	3337
3477.126	3248
3478.838	3336
3480.55	3245
3482.263	3367
3483.975	3291
3485.686	3292
3487.396	3278
3489.106	3376
3490.817	3365
3492.526	3263
3494.236	3275
3495.944	3247
3497.652	3279
3499.359	3298
3501.066	3263
3502.775	3289
3504.481	3249
3506.187	3314
3507.893	3233
3509.598	3166
3511.304	3256
3513.009	3262
3514.713	3276
3516.417	3280
3518.12	3130
3519.821	3165
3521.525	3204
3523.228	3245
3524.929	3233
3526.631	3227
3528.33	3138
3530.032	3177
3531.733	3217
3533.433	3275
3535.131	3226
3536.83	3171
3538.529	3155
3540.227	3179
3541.925	3152
3543.623	3185
3545.319	3127
3547.016	3140
3548.712	3185
3550.408	3201
3552.103	3119
3553.798	3153
3555.491	3160
3557.188	3203
3558.88	3070
3560.574	3182
3562.266	3121
3563.959	3146
3565.651	3164
3567.343	3090
3569.035	3113
3570.725	3079
3572.415	3112
3574.106	3128
3575.797	3140
3577.485	3090
3579.174	3117
3580.863	3179
3582.551	3064
3584.238	3079
3585.926	3127
3587.613	3079
3589.3	3046
3590.986	3110
3592.671	3094
3594.357	3054
3596.042	3064
3597.726	3099
3599.41	3022
3601.094	2994
3602.778	2990
3604.461	2972
3606.143	3011
3607.825	2954
3609.507	2992
3611.188	2965
3612.87	3074
3614.551	3097
3616.229	2965
3617.909	2996
3619.589	3001
3621.269	3062
3622.948	2919
3624.625	2951
3626.302	2925
3627.98	2964
3629.657	2894
3631.334	2994
3633.01	2934
3634.686	2936
3636.361	2942
3638.036	2894
3639.712	2845
3641.385	2904
3643.06	2951
3644.732	2901
3646.405	2888
3648.08	2913
3649.751	2892
3651.424	2926
3653.094	3003
3654.766	2817
3656.436	2892
3658.106	2832
3659.777	2916
3661.446	2963
3663.115	2894
3664.783	2953
3666.452	2883
3668.121	2873
3669.788	2853
3671.454	2909
3673.121	2911
3674.789	2839
3676.455	2832
3678.12	2913
3679.784	2816
3681.45	2834
3683.114	2840
3684.779	2929
3686.442	2829
3688.105	2897
3689.768	2833
3691.43	2747
3693.093	2798
3694.754	2833
3696.415	2761
3698.076	2851
3699.736	2846
3701.396	2814
3703.057	2801
3704.716	2842
3706.375	2806
3708.034	2705
3709.692	2825
3711.351	2805
3713.008	2792
3714.665	2832
3716.321	2790
3717.977	2866
3719.634	2811
3721.29	2807
3722.945	2817
3724.598	2772
3726.253	2733
3727.907	2780
3729.561	2832
3731.214	2764
3732.867	2792
3734.518	2769
3736.171	2730
3737.824	2760
3739.474	2691
3741.125	2732
3742.775	2794
3744.425	2802
3746.074	2789
3747.725	2768
3749.373	2723
3751.022	2762
3752.669	2772
3754.318	2776
3755.966	2716
3757.612	2735
3759.259	2728
3760.905	2737
3762.55	2788
3764.197	2690
3765.842	2671
3767.486	2758
3769.131	2746
3770.774	2677
3772.417	2717
3774.061	2703
3775.705	2622
3777.347	2618
3778.988	2665
3780.629	2743
3782.271	2758
3783.912	2674
3785.552	2663
3787.192	2737
3788.831	2678
3790.472	2704
3792.112	2666
3793.75	2671
3795.388	2684
3797.024	2699
3798.661	2644
3800.3	2672
3801.936	2710
3803.572	2647
3805.208	2712
3806.844	2637
3808.48	2662
3810.115	2716
3811.748	2631
3813.382	2633
3815.016	2601
3816.649	2643
3818.283	2647
3819.914	2695
3821.547	2637
3823.178	2580
3824.809	2709
3826.441	2660
3828.072	2588
3829.701	2612
3831.331	2608
3832.96	2640
3834.591	2571
3836.219	2634
3837.847	2686
3839.475	2665
3841.102	2602
3842.729	2552
3844.357	2627
3845.984	2630
3847.609	2606
3849.234	2591
3850.86	2638
3852.485	2634
3854.11	2624
3855.734	2592
3857.357	2539
3858.981	2581
3860.603	2589
3862.227	2573
3863.848	2575
3865.471	2615
3867.092	2544
3868.713	2595
3870.334	2545
3871.954	2614
3873.575	2544
3875.194	2577
3876.813	2550
3878.433	2542
3880.051	2647
3881.669	2569
3883.286	2596
3884.904	2502
3886.52	2553
3888.138	2592
3889.754	2515
3891.37	2520
3892.985	2546
3894.6	2479
3896.216	2506
3897.831	2517
3899.444	2521
3901.058	2575
3902.67	2565
3904.283	2543
3905.897	2540
3907.509	2460
3909.121	2511
3910.731	2524
3912.342	2529
3913.954	2543
3915.563	2600
3917.174	2501
3918.783	2512
3920.391	2542
3922.002	2533
3923.611	2530
3925.218	2547
3926.826	2537
3928.432	2573
3930.039	2608
3931.647	2534
3933.253	2570
3934.859	2503
3936.464	2537
3938.068	2502
3939.675	2455
3941.278	2498
3942.883	2505
3944.486	2531
3946.089	2535
3947.692	2470
3949.295	2535
3950.898	2474
3952.499	2487
3954.1	2496
3955.7	2461
3957.303	2515
3958.903	2486
3960.502	2482
3962.101	2499
3963.7	2472
3965.301	2451
3966.899	2426
3968.497	2376
3970.094	2504
3971.691	2455
3973.288	2494
3974.885	2486
3976.481	2410
3978.077	2448
3979.672	2415
3981.267	2398
3982.863	2393
3984.457	2418
3986.051	2375
3987.645	2374
3989.238	2446
3990.831	2432
3992.425	2460
3994.017	2433
3995.607	2415
3997.199	2438
3998.79	2447
4000.382	2355
4001.973	2401
4003.561	2394
4005.151	2376
4006.741	2390
4008.331	2399
4009.918	2428
4011.507	2379
4013.095	2377
4014.681	2420
4016.269	2341
4017.856	2380
4019.443	2401
4021.028	2343
4022.614	2350
4024.199	2361
4025.785	2326
4027.37	2326
4028.953	2326
4030.536	2331
4032.12	2358
4033.704	2329
4035.287	2341
4036.869	2381
4038.45	2350
4040.032	2346
4041.613	2337
4043.195	2361
4044.776	2307
4046.356	2389
4047.935	2327
4049.515	2360
4051.095	2314
4052.674	2303
4054.251	2312
4055.829	2302
4057.406	2335
4058.985	2294
4060.562	2345
4062.139	2271
4063.715	2315
4065.29	2357
4066.865	2298
4068.442	2261
4070.016	2282
4071.59	2320
4073.164	2311
4074.738	2313
4076.312	2294
4077.885	2215
4079.458	2223
4081.03	2296
4082.602	2311
4084.173	2310
4085.745	2307
4087.315	2276
4088.886	2259
4090.456	2354
4092.026	2258
4093.596	2290
4095.165	2237
4096.734	2269
4098.301	2314
4099.869	2248
4101.437	2274
4103.006	2211
4104.572	2243
4106.139	2277
4107.704	2264
4109.27	2197
4110.837	2270
4112.401	2220
4113.966	2233
4115.53	2222
4117.094	2239
4118.659	2281
4120.223	2222
4121.785	2249
4123.347	2266
4124.909	2245
4126.471	2210
4128.034	2278
4129.595	2180
4131.155	2221
4132.716	2141
4134.275	2170
4135.836	2227
4137.395	2179
4138.955	2239
4140.513	2145
4142.071	2204
4143.628	2180
4145.188	2253
4146.745	2190
4148.302	2180
4149.858	2115
4151.414	2167
4152.971	2140
4154.526	2193
4156.081	2198
4157.635	2177
4159.189	2187
4160.745	2140
4162.298	2126
4163.852	2135
4165.405	2209
4166.957	2173
4168.51	2166
4170.063	2159
4171.614	2158
4173.166	2106
4174.717	2097
4176.267	2224
4177.817	2177
4179.368	2155
4180.917	2106
4182.466	2136
4184.016	2127
4185.564	2123
4187.112	2130
4188.66	2120
4190.207	2152
4191.754	2142
4193.301	2096
4194.848	2152
4196.394	2084
4197.94	2094
4199.484	2151
4201.03	2190
4202.575	2107
4204.12	2084
4205.663	2083
4207.207	2049
4208.75	2105
4210.292	2045
4211.836	2155
4213.378	2068
4214.92	2143
4216.46	2129
4218.002	2077
4219.544	2071
4221.083	2121
4222.625	2052
4224.164	2101
4225.703	2057
4227.244	2157
4228.782	2022
4230.32	2027
4231.857	2061
4233.395	2057
4234.933	2120
4236.471	2113
4238.007	2064
4239.542	2081
4241.078	2044
4242.614	2075
4244.15	2087
4245.685	2116
4247.219	2041
4248.753	2062
4250.287	2037
4251.82	2091
4253.354	2044
4254.887	2029
4256.419	2011
4257.951	2068
4259.483	2031
4261.016	1965
4262.547	2076
4264.078	2028
4265.608	2037
4267.137	2042
4268.668	2016
4270.197	2008
4271.727	2055
4273.254	2029
4274.783	2022
4276.311	2063
4277.84	2045
4279.366	1989
4280.894	2088
4282.42	2028
4283.946	1973
4285.473	2060
4286.998	2014
4288.523	1983
4290.047	1998
4291.572	1989
4293.096	2045
4294.622	2032
4296.144	1996
4297.668	1991
4299.19	2019
4300.713	2007
4302.236	1991
4303.758	1989
4305.279	1959
4306.799	2027
4308.321	2065
4309.842	1971
4311.361	1955
4312.882	1994
4314.401	2006
