400.0961	2241
402.6185	2213
405.1424	2212
407.6635	2176
410.1838	2221
412.7035	2170
415.2225	2189
417.7388	2249
420.2585	2237
422.7754	2238
425.2917	2319
427.8072	2269
430.3221	2285
432.8363	2305
435.3498	2430
437.8626	2340
440.3727	2370
442.8841	2287
445.3969	2340
447.907	2336
450.4142	2317
452.9229	2326
455.4289	2347
457.9362	2311
460.4449	2337
462.9488	2395
465.454	2304
467.9566	2297
470.4604	2350
472.9637	2332
475.4662	2323
477.966	2288
480.4671	2374
482.9656	2363
485.4633	2346
487.9645	2373
490.4608	2348
492.9566	2325
495.4536	2361
497.948	2367
500.4437	2349
502.9387	2373
505.431	2365
507.9226	2397
510.4136	2332
512.9079	2408
515.3975	2405
517.8864	2337
520.3746	2353
522.8622	2440
525.3491	2407
527.8394	2423
530.3249	2393
532.8098	2372
535.2939	2429
537.7774	2425
540.2623	2379
542.7444	2401
545.2259	2403
547.7067	2430
550.1868	2388
552.6683	2408
555.147	2422
557.6231	2419
560.1005	2390
562.5773	2453
565.0534	2431
567.5308	2408
570.0056	2466
572.4776	2465
574.951	2457
577.4237	2505
579.8978	2504
582.3671	2529
584.8378	2472
587.3079	2457
589.7773	2568
592.244	2490
594.714	2511
597.1793	2479
599.6461	2490
602.1121	2479
604.5754	2481
607.0421	2460
609.5042	2511
611.9675	2488
614.4282	2473
616.8902	2481
619.3515	2480
621.8122	2518
624.2702	2412
626.7296	2424
629.1863	2461
631.6423	2472
634.1017	2447
636.5563	2505
639.0104	2457
641.4658	2521
643.9185	2486
646.3725	2483
648.8239	2494
651.2766	2485
653.7266	2428
656.176	2560
658.6247	2527
661.0748	2496
663.5242	2487
665.9709	2485
668.417	2454
670.8624	2498
673.3092	2552
675.7533	2551
678.1968	2560
680.6395	2452
683.0817	2497
685.5251	2562
687.9659	2553
690.4061	2546
692.8456	2566
695.2844	2547
697.7226	2555
700.1621	2532
702.599	2602
705.0332	2524
707.4688	2537
709.9036	2599
712.3399	2555
714.7735	2594
717.2044	2552
719.6367	2560
722.0683	2581
724.4993	2645
726.9296	2595
729.3593	2620
731.7883	2572
734.2147	2712
736.6423	2663
739.0714	2632
741.4958	2629
743.9216	2730
746.3447	2678
748.7691	2660
751.1929	2657
753.616	2672
756.0366	2659
758.4584	2705
760.8776	2705
763.2982	2709
765.718	2672
768.1373	2675
770.5539	2700
772.9698	2730
775.3871	2622
777.8038	2700
780.2178	2706
782.6332	2705
785.0459	2645
787.458	2702
789.8714	2697
792.2842	2680
794.6943	2722
797.1038	2674
799.5127	2689
801.9209	2773
804.3324	2726
806.7393	2790
809.1456	2742
811.5513	2795
813.9562	2817
816.3625	2713
818.7663	2753
821.1693	2746
823.5718	2709
825.9735	2754
828.3746	2782
830.7771	2765
833.177	2764
835.5762	2777
837.9747	2801
840.3727	2727
842.772	2784
845.1666	2844
847.5626	2782
849.958	2737
852.3527	2826
854.7488	2818
857.1403	2808
859.5331	2872
861.9253	2791
864.3168	2822
866.7057	2841
869.098	2806
871.4876	2770
873.8746	2810
876.263	2854
878.6487	2784
881.0378	2805
883.4243	2801
885.8081	2770
888.1933	2803
890.5759	2808
892.9598	2813
895.343	2744
897.7256	2769
900.1057	2801
902.4871	2810
904.8659	2841
907.246	2810
909.6254	2903
912.0023	2853
914.3786	2862
916.7562	2877
919.1331	2942
921.5074	2931
923.8831	2983
926.2562	2959
928.6287	2934
931.0005	2916
933.3757	2987
935.7462	2984
938.1162	2989
940.4855	2980
942.8542	2956
945.2242	3032
947.5916	3073
949.9584	3109
952.3266	3162
954.6921	3319
957.0571	3433
959.4233	3572
961.787	3647
964.15	3482
966.5125	3397
968.8742	3280
971.2354	3151
973.5959	3189
975.9559	3081
978.3151	3031
980.6738	2989
983.0338	2923
985.3912	2899
987.7461	2880
990.1022	2899
992.4578	2890
994.8127	2887
997.1689	2966
999.5207	2884
1001.874	3010
1004.226	2983
1006.576	2933
1008.929	2920
1011.28	3014
1013.628	2904
1015.977	2940
1018.324	2991
1020.674	2927
1023.019	2989
1025.366	2907
1027.713	2939
1030.056	2996
1032.399	2965
1034.746	2971
1037.087	2945
1039.431	2973
1041.771	2946
1044.113	2995
1046.454	2955
1048.793	2965
1051.133	2957
1053.471	2974
1055.807	3005
1058.146	2950
1060.483	2970
1062.818	3039
1065.153	3057
1067.489	3042
1069.822	3064
1072.156	3082
1074.488	3031
1076.82	3012
1079.15	3092
1081.48	2969
1083.814	3049
1086.143	3082
1088.471	3024
1090.799	3074
1093.126	2987
1095.452	2986
1097.78	2970
1100.105	2943
1102.43	3035
1104.754	2976
1107.077	3000
1109.4	3016
1111.722	2966
1114.044	3024
1116.365	3076
1118.685	3061
1121.005	3016
1123.324	3051
1125.643	2986
1127.961	3021
1130.278	3011
1132.595	3039
1134.911	2995
1137.226	3021
1139.541	2940
1141.854	3023
1144.167	2977
1146.482	3039
1148.793	2971
1151.105	3009
1153.414	3043
1155.725	3024
1158.033	3037
1160.344	3098
1162.651	2969
1164.959	3030
1167.265	3017
1169.572	3083
1171.878	3007
1174.184	3040
1176.488	3020
1178.79	3064
1181.094	3091
1183.396	3044
1185.699	3027
1188.001	3072
1190.301	3049
1192.6	2984
1194.9	3005
1197.2	2975
1199.497	3095
1201.794	3061
1204.09	3025
1206.387	3027
1208.684	3056
1210.978	3101
1213.272	3084
1215.565	2951
1217.858	3088
1220.15	2980
1222.443	3093
1224.734	3058
1227.024	3103
1229.313	3044
1231.602	3123
1233.892	3033
1236.18	3160
1238.467	3147
1240.754	3206
1243.04	3183
1245.325	3103
1247.612	3071
1249.896	3084
1252.178	3181
1254.461	3175
1256.743	3239
1259.027	3120
1261.308	3207
1263.587	3190
1265.867	3137
1268.146	3164
1270.425	3122
1272.703	3171
1274.981	3164
1277.256	3119
1279.532	3133
1281.808	3157
1284.083	3165
1286.358	3192
1288.63	3128
1290.904	3101
1293.175	3158
1295.449	3197
1297.719	3160
1299.99	3114
1302.259	3175
1304.529	3150
1306.798	3158
1309.065	3050
1311.333	3107
1313.599	3098
1315.866	3130
1318.131	3062
1320.396	3082
1322.66	3134
1324.925	3167
1327.187	3129
1329.448	3210
1331.711	3147
1333.974	3135
1336.234	3138
1338.493	3130
1340.752	3126
1343.01	3141
1345.269	3110
1347.526	3107
1349.784	3111
1352.04	3066
1354.295	3069
1356.552	3155
1358.806	3157
1361.059	3111
1363.312	3168
1365.564	3146
1367.818	3228
1370.069	3096
1372.318	3143
1374.568	3116
1376.817	3148
1379.066	3142
1381.316	3167
1383.564	3203
1385.809	3221
1388.056	3224
1390.301	3199
1392.549	3179
1394.793	3147
1397.036	3269
1399.279	3286
1401.522	3201
1403.763	3217
1406.007	3213
1408.248	3210
1410.487	3261
1412.727	3207
1414.965	3157
1417.205	3336
1419.442	3235
1421.68	3239
1423.915	3234
1426.152	3243
1428.388	3240
1430.623	3257
1432.857	3241
1435.091	3210
1437.323	3278
1439.556	3230
1441.789	3282
1444.019	3240
1446.25	3230
1448.48	3305
1450.708	3327
1452.938	3301
1455.167	3382
1457.394	3290
1459.62	3273
1461.846	3286
1464.073	3363
1466.299	3236
1468.523	3260
1470.746	3299
1472.969	3302
1475.191	3253
1477.415	3270
1479.636	3165
1481.858	3335
1484.078	3311
1486.298	3195
1488.518	3186
1490.736	3199
1492.954	3228
1495.169	3170
1497.386	3235
1499.602	3183
1501.819	3193
1504.034	3078
1506.248	3182
1508.462	3154
1510.675	3192
1512.888	3138
1515.1	3202
1517.311	3143
1519.522	3183
1521.732	3219
1523.942	3173
1526.151	3177
1528.36	3168
1530.566	3233
1532.773	3163
1534.98	3181
1537.187	3089
1539.392	3202
1541.596	3187
1543.801	3227
1546.005	3209
1548.208	3249
1550.411	3169
1552.612	3163
1554.814	3157
1557.013	3182
1559.212	3200
1561.414	3281
1563.612	3254
1565.811	3206
1568.007	3242
1570.203	3208
1572.403	3225
1574.598	3299
1576.792	3294
1578.988	3270
1581.181	3238
1583.376	3208
1585.568	3224
1587.761	3215
1589.952	3257
1592.143	3269
1594.333	3238
1596.524	3230
1598.715	3267
1600.903	3258
1603.091	3285
1605.278	3326
1607.466	3308
1609.652	3293
1611.838	3286
1614.023	3285
1616.207	3260
1618.391	3246
1620.576	3249
1622.759	3338
1624.941	3315
1627.123	3318
1629.304	3262
1631.484	3358
1633.664	3316
1635.844	3266
1638.022	3343
1640.201	3299
1642.38	3328
1644.556	3333
1646.732	3319
1648.908	3353
1651.084	3316
1653.257	3397
1655.433	3351
1657.607	3287
1659.779	3327
1661.951	3281
1664.122	3357
1666.295	3383
1668.467	3470
1670.635	3363
1672.805	3316
1674.973	3403
1677.142	3393
1679.31	3361
1681.478	3285
1683.644	3416
1685.81	3339
1687.975	3399
1690.142	3301
1692.305	3345
1694.468	3317
1696.632	3311
1698.794	3326
1700.957	3275
1703.119	3309
1705.279	3317
1707.439	3346
1709.598	3331
1711.758	3227
1713.917	3301
1716.075	3422
1718.231	3232
1720.388	3236
1722.543	3273
1724.702	3342
1726.856	3374
1729.01	3257
1731.164	3309
1733.317	3268
1735.471	3254
1737.623	3259
1739.774	3227
1741.925	3337
1744.075	3355
1746.225	3318
1748.376	3171
1750.524	3276
1752.672	3349
1754.82	3286
1756.965	3248
1759.113	3307
1761.259	3347
1763.405	3362
1765.549	3298
1767.694	3275
1769.836	3331
1771.981	3323
1774.123	3296
1776.264	3302
1778.405	3292
1780.546	3379
1782.687	3357
1784.827	3335
1786.966	3321
1789.103	3278
1791.242	3406
1793.381	3372
1795.517	3408
1797.653	3315
1799.788	3337
1801.923	3329
1804.057	3353
1806.193	3356
1808.326	3343
1810.457	3250
1812.59	3332
1814.721	3372
1816.855	3390
1818.984	3330
1821.113	3331
1823.244	3370
1825.372	3355
1827.499	3358
1829.63	3303
1831.756	3348
1833.882	3310
1836.007	3282
1838.132	3277
1840.26	3396
1842.384	3274
1844.507	3341
1846.63	3273
1848.752	3353
1850.875	3405
1852.996	3259
1855.118	3290
1857.238	3288
1859.358	3336
1861.477	3359
1863.597	3314
1865.715	3372
1867.832	3369
1869.948	3343
1872.064	3308
1874.181	3413
1876.297	3312
1878.411	3347
1880.526	3334
1882.639	3388
1884.752	3334
1886.865	3327
1888.977	3314
1891.089	3299
1893.2	3286
1895.308	3278
1897.42	3334
1899.53	3374
1901.639	3306
1903.745	3387
1905.853	3392
1907.962	3360
1910.067	3360
1912.174	3331
1914.278	3342
1916.383	3432
1918.486	3349
1920.592	3452
1922.694	3333
1924.797	3350
1926.898	3352
1929	3344
1931.102	3399
1933.203	3398
1935.301	3404
1937.401	3363
1939.499	3400
1941.598	3377
1943.697	3398
1945.793	3368
1947.888	3464
1949.985	3436
1952.08	3389
1954.176	3383
1956.269	3383
1958.364	3345
1960.457	3390
1962.549	3377
1964.642	3436
1966.733	3438
1968.823	3351
1970.913	3406
1973.005	3373
1975.093	3380
1977.184	3402
1979.271	3387
1981.359	3370
1983.446	3347
1985.532	3350
1987.619	3338
1989.705	3371
1991.789	3380
1993.874	3384
1995.956	3380
1998.041	3345
2000.123	3315
2002.206	3422
2004.287	3300
2006.368	3390
2008.449	3311
2010.529	3346
2012.609	3427
2014.688	3379
2016.766	3314
2018.843	3453
2020.922	3347
2022.999	3451
2025.074	3395
2027.15	3361
2029.225	3356
2031.299	3339
2033.375	3360
2035.447	3326
2037.52	3294
2039.592	3343
2041.664	3373
2043.736	3394
2045.807	3339
2047.876	3332
2049.947	3296
2052.015	3408
2054.086	3353
2056.153	3382
2058.221	3321
2060.288	3403
2062.353	3354
2064.42	3359
2066.486	3444
2068.55	3343
2070.614	3383
2072.678	3409
2074.741	3348
2076.805	3300
2078.866	3426
2080.929	3375
2082.99	3369
2085.049	3440
2087.109	3365
2089.17	3376
2091.228	3337
2093.286	3435
2095.344	3353
2097.4	3334
2099.46	3410
2101.516	3377
2103.572	3422
2105.626	3407
2107.679	3425
2109.735	3413
2111.788	3311
2113.841	3393
2115.894	3435
2117.945	3375
2119.997	3403
2122.049	3408
2124.1	3391
2126.148	3385
2128.197	3363
2130.246	3352
2132.296	3383
2134.342	3375
2136.39	3399
2138.437	3332
2140.483	3376
2142.527	3365
2144.574	3317
2146.619	3339
2148.661	3444
2150.705	3358
2152.747	3441
2154.792	3308
2156.832	3351
2158.874	3370
2160.915	3443
2162.954	3320
2164.995	3306
2167.034	3434
2169.072	3380
2171.111	3345
2173.148	3361
2175.186	3338
2177.223	3287
2179.258	3305
2181.294	3279
2183.328	3309
2185.362	3354
2187.398	3321
2189.431	3291
2191.463	3340
2193.495	3366
2195.528	3293
2197.56	3361
2199.59	3350
2201.62	3292
2203.649	3293
2205.678	3339
2207.708	3336
2209.737	3295
2211.764	3324
2213.791	3323
2215.817	3366
2217.843	3274
2219.87	3346
2221.895	3313
2223.919	3329
2225.942	3397
2227.966	3316
2229.988	3367
2232.012	3345
2234.032	3340
2236.054	3328
2238.074	3313
2240.095	3350
2242.116	3269
2244.135	3282
2246.153	3367
2248.171	3332
2250.188	3387
2252.208	3309
2254.223	3369
2256.239	3400
2258.255	3403
2260.269	3301
2262.283	3275
2264.3	3274
2266.312	3327
2268.325	3345
2270.336	3296
2272.349	3307
2274.362	3291
2276.372	3246
2278.383	3299
2280.392	3295
2282.402	3317
2284.409	3342
2286.418	3341
2288.427	3309
2290.433	3370
2292.441	3354
2294.446	3281
2296.453	3297
2298.459	3324
2300.463	3281
2302.466	3312
2304.471	3371
2306.475	3354
2308.477	3409
2310.478	3311
2312.481	3329
2314.481	3316
2316.481	3319
2318.482	3361
2320.482	3294
2322.48	3291
2324.48	3285
2326.478	3281
2328.476	3267
2330.473	3343
2332.469	3233
2334.465	3309
2336.46	3273
2338.454	3265
2340.45	3313
2342.444	3305
2344.437	3289
2346.43	3400
2348.421	3271
2350.414	3284
2352.405	3299
2354.396	3267
2356.386	3326
2358.376	3300
2360.366	3207
2362.355	3280
2364.343	3315
2366.331	3272
2368.317	3275
2370.304	3247
2372.292	3243
2374.278	3322
2376.262	3312
2378.247	3234
2380.23	3349
2382.216	3270
2384.199	3217
2386.181	3281
2388.163	3327
2390.144	3228
2392.127	3278
2394.107	3224
2396.087	3271
2398.066	3168
2400.046	3200
2402.023	3241
2404.004	3293
2405.981	3241
2407.957	3259
2409.934	3218
2411.91	3223
2413.886	3258
2415.862	3280
2417.836	3242
2419.809	3144
2421.784	3260
2423.756	3232
2425.73	3252
2427.701	3217
2429.672	3334
2431.644	3240
2433.615	3250
2435.586	3266
2437.555	3290
2439.523	3250
2441.491	3266
2443.459	3284
2445.428	3268
2447.395	3272
2449.361	3297
2451.327	3189
2453.292	3196
2455.257	3260
2457.223	3210
2459.187	3186
2461.15	3226
2463.113	3197
2465.076	3151
2467.039	3265
2468.999	3226
2470.96	3257
2472.921	3205
2474.881	3251
2476.841	3162
2478.8	3342
2480.759	3223
2482.717	3243
2484.675	3239
2486.63	3263
2488.589	3299
2490.545	3335
2492.5	3175
2494.455	3259
2496.408	3130
2498.364	3199
2500.318	3160
2502.27	3309
2504.223	3199
2506.174	3192
2508.126	3249
2510.078	3204
2512.03	3235
2513.979	3217
2515.927	3140
2517.877	3292
2519.826	3178
2521.775	3249
2523.722	3189
2525.668	3246
2527.616	3219
2529.561	3192
2531.508	3208
2533.452	3213
2535.398	3127
2537.342	3206
2539.284	3202
2541.229	3186
2543.173	3259
2545.114	3105
2547.055	3271
2548.996	3202
2550.938	3120
2552.878	3179
2554.817	3304
2556.756	3207
2558.695	3266
2560.633	3159
2562.572	3245
2564.509	3258
2566.445	3244
2568.382	3133
2570.317	3258
2572.254	3164
2574.189	3267
2576.123	3214
2578.057	3225
2579.99	3204
2581.923	3175
2583.855	3246
2585.788	3253
2587.719	3228
2589.65	3260
2591.579	3157
2593.511	3226
2595.44	3217
2597.37	3249
2599.297	3212
2601.225	3235
2603.153	3159
2605.08	3253
2607.007	3255
2608.932	3152
2610.858	3136
2612.782	3213
2614.709	3265
2616.632	3230
2618.556	3223
2620.478	3187
2622.401	3236
2624.324	3235
2626.247	3221
2628.167	3245
2630.088	3229
2632.008	3150
2633.928	3162
2635.848	3230
2637.766	3195
2639.684	3298
2641.603	3222
2643.519	3246
2645.437	3293
2647.353	3319
2649.27	3165
2651.184	3296
2653.099	3191
2655.014	3293
2656.928	3274
2658.842	3230
2660.755	3226
2662.667	3188
2664.579	3227
2666.491	3255
2668.402	3186
2670.312	3132
2672.222	3241
2674.132	3281
2676.042	3191
2677.951	3243
2679.859	3151
2681.766	3200
2683.674	3304
2685.582	3281
2687.488	3195
2689.392	3205
2691.298	3169
2693.202	3196
2695.107	3167
2697.012	3245
2698.914	3158
2700.817	3251
2702.72	3162
2704.622	3153
2706.524	3228
2708.425	3144
2710.326	3207
2712.225	3148
2714.125	3196
2716.024	3222
2717.923	3159
2719.822	3211
2721.719	3179
2723.616	3180
2725.512	3268
2727.41	3287
2729.305	3130
2731.201	3153
2733.095	3240
2734.99	3177
2736.884	3182
2738.778	3164
2740.67	3147
2742.562	3164
2744.455	3221
2746.346	3191
2748.238	3185
2750.129	3109
2752.018	3148
2753.907	3092
2755.797	3197
2757.687	3183
2759.575	3172
2761.462	3081
2763.349	3204
2765.237	3268
2767.124	3092
2769.009	3123
2770.894	3205
2772.779	3174
2774.663	3190
2776.547	3127
2778.431	3083
2780.314	3155
2782.197	3148
2784.078	3094
2785.96	3085
2787.842	3180
2789.723	3138
2791.603	3140
2793.483	3179
2795.362	3180
2797.241	3098
2799.121	3182
2800.997	3164
2802.874	3139
2804.751	3137
2806.628	3125
2808.506	3149
2810.38	3079
2812.255	3144
2814.13	3126
2816.003	3158
2817.878	3083
2819.752	3117
2821.623	3205
2823.496	3204
2825.368	3102
2827.238	3138
2829.111	3190
2830.98	3213
2832.851	3187
2834.719	3150
2836.589	3114
2838.458	3095
2840.327	3190
2842.193	3152
2844.061	3149
2845.927	3150
2847.794	3168
2849.66	3139
2851.525	3219
2853.39	3122
2855.254	3222
2857.117	3186
2858.983	3193
2860.845	3170
2862.707	3159
2864.569	3266
2866.431	3198
2868.293	3285
2870.154	3204
2872.013	3259
2873.873	3344
2875.733	3331
2877.592	3302
2879.451	3299
2881.309	3413
2883.166	3385
2885.022	3350
2886.879	3358
2888.736	3399
2890.591	3350
2892.446	3361
2894.301	3429
2896.155	3354
2898.009	3370
2899.863	3411
2901.716	3377
2903.568	3303
2905.419	3381
2907.27	3477
2909.123	3350
2910.973	3424
2912.824	3405
2914.673	3411
2916.521	3425
2918.372	3500
2920.22	3426
2922.067	3440
2923.914	3423
2925.761	3516
2927.607	3564
2929.455	3509
2931.301	3634
2933.144	3602
2934.99	3581
2936.833	3642
2938.678	3641
2940.522	3653
2942.364	3743
2944.207	3695
2946.048	3814
2947.891	3666
2949.731	3748
2951.571	3758
2953.412	3688
2955.25	3693
2957.09	3649
2958.93	3615
2960.767	3624
2962.606	3608
2964.443	3560
2966.279	3708
2968.116	3544
2969.953	3553
2971.788	3571
2973.623	3411
2975.457	3517
2977.292	3455
2979.127	3420
2980.959	3416
2982.792	3353
2984.624	3483
2986.455	3440
2988.288	3452
2990.119	3377
2991.949	3359
2993.779	3333
2995.608	3328
2997.439	3373
2999.268	3265
3001.096	3238
3002.923	3220
3004.751	3232
3006.578	3202
3008.406	3207
3010.232	3177
3012.057	3206
3013.883	3174
3015.706	3153
3017.532	3145
3019.356	3129
3021.179	3083
3023.002	3062
3024.823	3149
3026.646	3086
3028.469	3025
3030.289	3162
3032.11	3049
3033.93	3145
3035.749	3045
3037.57	3002
3039.39	3028
3041.207	3068
3043.026	3053
3044.842	3066
3046.661	3051
3048.477	3059
3050.294	2971
3052.109	3061
3053.925	3030
3055.739	2973
3057.555	3131
3059.368	3015
3061.181	3055
3062.995	3003
3064.807	3025
3066.62	2916
3068.433	3064
3070.243	3008
3072.054	3005
3073.865	2966
3075.675	3045
3077.485	3034
3079.293	2982
3081.102	3017
3082.911	2989
3084.719	2920
3086.527	3087
3088.333	3026
3090.139	2933
3091.945	2969
3093.75	2961
3095.557	3043
3097.361	2969
3099.165	2970
3100.969	3002
3102.772	2951
3104.575	2911
3106.379	2978
3108.181	2856
3109.982	2968
3111.783	2970
3113.584	2997
3115.386	2842
3117.186	3010
3118.985	2900
3120.783	2939
3122.582	2957
3124.381	2938
3126.179	2910
3127.975	2905
3129.772	2919
3131.569	2911
3133.365	2874
3135.161	2887
3136.956	2925
3138.751	2899
3140.544	2938
3142.338	2932
3144.132	2913
3145.925	2843
3147.717	2920
3149.509	2875
3151.301	2975
3153.091	2893
3154.884	2870
3156.673	2919
3158.462	2897
3160.252	2936
3162.041	2860
3163.831	2872
3165.618	2876
3167.405	2898
3169.193	2860
3170.979	2870
3172.767	2877
3174.553	2853
3176.338	2863
3178.123	2852
3179.907	2826
3181.692	2878
3183.477	2886
3185.259	2899
3187.042	2876
3188.824	2855
3190.607	2881
3192.389	2864
3194.17	2950
3195.951	2892
3197.73	2873
3199.51	2915
3201.289	2912
3203.07	2833
3204.848	2867
3206.626	2934
3208.403	2855
3210.18	2852
3211.959	2888
3213.735	2875
3215.511	2851
3217.285	2854
3219.06	2908
3220.836	2896
3222.611	2800
3224.384	2896
3226.158	2881
3227.929	2901
3229.702	2883
3231.476	2824
3233.248	2901
3235.018	2891
3236.789	2818
3238.56	2931
3240.33	2846
3242.1	2895
3243.869	2879
3245.637	2794
3247.405	2834
3249.172	2853
3250.941	2887
3252.707	2789
3254.474	2795
3256.24	2891
3258.006	2890
3259.772	2841
3261.537	2912
3263.301	2870
3265.065	2860
3266.828	2822
3268.592	2879
3270.355	2833
3272.117	2894
3273.878	2818
3275.64	2770
3277.401	2871
3279.162	2801
3280.922	2802
3282.682	2841
3284.441	2848
3286.199	2877
3287.959	2840
3289.716	2863
3291.475	2893
3293.232	2828
3294.988	2835
3296.744	2866
3298.501	2842
3300.256	2775
3302.011	2823
3303.766	2874
3305.52	2857
3307.275	2875
3309.028	2784
3310.781	2868
3312.533	2823
3314.285	2836
3316.038	2862
3317.789	2795
3319.54	2921
3321.289	2869
3323.039	2859
3324.789	2837
3326.539	2857
3328.288	2823
3330.035	2799
3331.783	2855
3333.531	2766
3335.28	2880
3337.025	2787
3338.771	2823
3340.518	2882
3342.262	2876
3344.009	2867
3345.753	2841
3347.497	2834
3349.24	2787
3350.983	2725
3352.726	2811
3354.469	2752
3356.212	2833
3357.952	2845
3359.694	2879
3361.434	2782
3363.176	2831
3364.916	2791
3366.654	2847
3368.394	2844
3370.132	2773
3371.871	2848
3373.61	2799
3375.346	2808
3377.083	2792
3378.82	2790
3380.556	2789
3382.292	2839
3384.027	2801
3385.763	2812
3387.497	2847
3389.231	2810
3390.965	2752
3392.698	2747
3394.431	2690
3396.164	2751
3397.896	2772
3399.627	2776
3401.36	2777
3403.09	2786
3404.82	2770
3406.55	2730
3408.279	2682
3410.01	2726
3411.738	2770
3413.467	2766
3415.194	2791
3416.92	2736
3418.647	2739
3420.375	2702
3422.102	2696
3423.827	2803
3425.553	2799
3427.277	2707
3429.003	2735
3430.727	2728
3432.451	2760
3434.173	2745
3435.896	2696
3437.62	2711
3439.343	2699
3441.063	2774
3442.785	2824
3444.505	2690
3446.226	2733
3447.948	2704
3449.666	2689
3451.386	2708
3453.104	2650
3454.823	2690
3456.541	2710
3458.259	2663
3459.976	2703
3461.693	2638
3463.408	2686
3465.125	2660
3466.841	2646
3468.556	2709
3470.271	2664
3471.985	2630
3473.698	2639
3475.414	2686
3477.126	2679
3478.838	2628
3480.55	2708
3482.263	2668
3483.975	2654
3485.686	2630
3487.396	2650
3489.106	2681
3490.817	2727
3492.526	2606
3494.236	2603
3495.944	2593
3497.652	2602
3499.359	2633
3501.066	2572
3502.775	2642
3504.481	2663
3506.187	2582
3507.893	2607
3509.598	2609
3511.304	2543
3513.009	2585
3514.713	2611
3516.417	2612
3518.12	2726
3519.821	2611
3521.525	2638
3523.228	2551
3524.929	2563
3526.631	2574
3528.33	2584
3530.032	2556
3531.733	2567
3533.433	2587
3535.131	2561
3536.83	2649
3538.529	2549
3540.227	2583
3541.925	2575
3543.623	2576
3545.319	2593
3547.016	2601
3548.712	2603
3550.408	2590
3552.103	2609
3553.798	2523
3555.491	2510
3557.188	2566
3558.88	2551
3560.574	2556
3562.266	2539
3563.959	2565
3565.651	2492
3567.343	2513
3569.035	2547
3570.725	2516
3572.415	2575
3574.106	2489
3575.797	2565
3577.485	2506
3579.174	2494
3580.863	2516
3582.551	2489
3584.238	2503
3585.926	2485
3587.613	2473
3589.3	2524
3590.986	2559
3592.671	2503
3594.357	2467
3596.042	2494
3597.726	2435
3599.41	2509
3601.094	2518
3602.778	2478
3604.461	2463
3606.143	2488
3607.825	2460
3609.507	2506
3611.188	2451
3612.87	2455
3614.551	2440
3616.229	2447
3617.909	2535
3619.589	2345
3621.269	2493
3622.948	2463
3624.625	2462
3626.302	2448
3627.98	2463
3629.657	2390
3631.334	2435
3633.01	2436
3634.686	2441
3636.361	2340
3638.036	2374
3639.712	2390
3641.385	2435
3643.06	2407
3644.732	2411
3646.405	2437
3648.08	2371
3649.751	2419
3651.424	2342
3653.094	2391
3654.766	2340
3656.436	2398
3658.106	2432
3659.777	2373
3661.446	2406
3663.115	2403
3664.783	2357
3666.452	2393
3668.121	2374
3669.788	2367
3671.454	2291
3673.121	2365
3674.789	2411
3676.455	2424
3678.12	2387
3679.784	2412
3681.45	2416
3683.114	2407
3684.779	2388
3686.442	2370
3688.105	2355
3689.768	2360
3691.43	2367
3693.093	2352
3694.754	2373
3696.415	2370
3698.076	2355
3699.736	2306
3701.396	2359
3703.057	2392
3704.716	2391
3706.375	2332
3708.034	2352
3709.692	2332
3711.351	2336
3713.008	2373
3714.665	2372
3716.321	2367
3717.977	2307
3719.634	2329
3721.29	2339
3722.945	2323
3724.598	2386
3726.253	2320
3727.907	2385
3729.561	2362
3731.214	2377
3732.867	2290
3734.518	2268
3736.171	2322
3737.824	2379
3739.474	2307
3741.125	2288
3742.775	2326
3744.425	2310
3746.074	2329
3747.725	2296
3749.373	2387
3751.022	2283
3752.669	2255
3754.318	2276
3755.966	2317
3757.612	2288
3759.259	2314
3760.905	2295
3762.55	2252
3764.197	2319
3765.842	2331
3767.486	2336
3769.131	2303
3770.774	2278
3772.417	2250
3774.061	2358
3775.705	2352
3777.347	2299
3778.988	2289
3780.629	2309
3782.271	2272
3783.912	2236
3785.552	2333
3787.192	2294
3788.831	2275
3790.472	2257
3792.112	2296
3793.75	2282
3795.388	2278
3797.024	2308
3798.661	2232
3800.3	2244
3801.936	2274
3803.572	2267
3805.208	2269
3806.844	2272
3808.48	2224
3810.115	2247
3811.748	2255
3813.382	2231
3815.016	2201
3816.649	2220
3818.283	2226
3819.914	2229
3821.547	2275
3823.178	2286
3824.809	2232
3826.441	2244
3828.072	2201
3829.701	2194
3831.331	2228
3832.96	2220
3834.591	2183
3836.219	2132
3837.847	2241
3839.475	2167
3841.102	2256
3842.729	2148
3844.357	2260
3845.984	2173
3847.609	2241
3849.234	2219
3850.86	2212
3852.485	2222
3854.11	2157
3855.734	2192
3857.357	2191
3858.981	2199
3860.603	2231
3862.227	2166
3863.848	2217
3865.471	2180
3867.092	2220
3868.713	2187
3870.334	2175
3871.954	2182
3873.575	2189
3875.194	2219
3876.813	2171
3878.433	2175
3880.051	2208
3881.669	2206
3883.286	2184
3884.904	2114
3886.52	2152
3888.138	2168
3889.754	2233
3891.37	2213
3892.985	2232
3894.6	2166
3896.216	2190
3897.831	2170
3899.444	2140
3901.058	2188
3902.67	2160
3904.283	2174
3905.897	2208
3907.509	2224
3909.121	2185
3910.731	2159
3912.342	2081
3913.954	2173
3915.563	2188
3917.174	2211
3918.783	2184
3920.391	2164
3922.002	2087
3923.611	2160
3925.218	2127
3926.826	2175
3928.432	2148
3930.039	2133
3931.647	2199
3933.253	2084
3934.859	2186
3936.464	2188
3938.068	2135
3939.675	2157
3941.278	2148
3942.883	2120
3944.486	2151
3946.089	2130
3947.692	2129
3949.295	2107
3950.898	2135
3952.499	2176
3954.1	2168
3955.7	2092
3957.303	2117
3958.903	2113
3960.502	2092
3962.101	2091
3963.7	2153
3965.301	2124
3966.899	2161
3968.497	2093
3970.094	2058
3971.691	2109
3973.288	2071
3974.885	2073
3976.481	2115
3978.077	2142
3979.672	2122
3981.267	2180
3982.863	2093
3984.457	2058
3986.051	2058
3987.645	2131
3989.238	2048
3990.831	2083
3992.425	2057
3994.017	2114
3995.607	2093
3997.199	2077
3998.79	2054
4000.382	2029
4001.973	2097
4003.561	2143
4005.151	2062
4006.741	2057
4008.331	2046
4009.918	2019
4011.507	2063
4013.095	2018
4014.681	2082
4016.269	2017
4017.856	2038
4019.443	2087
4021.028	2001
4022.614	1992
4024.199	2027
4025.785	2049
4027.37	2023
4028.953	2011
4030.536	2086
4032.12	1995
4033.704	1990
4035.287	2020
4036.869	2007
4038.45	2053
4040.032	2018
4041.613	2024
4043.195	2031
4044.776	2030
4046.356	2025
4047.935	2047
4049.515	2081
4051.095	1994
4052.674	2018
4054.251	2065
4055.829	2040
4057.406	2005
4058.985	1971
4060.562	2066
4062.139	2019
4063.715	2011
4065.29	1974
4066.865	2022
4068.442	1986
4070.016	1972
4071.59	1972
4073.164	1939
4074.738	2002
4076.312	2001
4077.885	2001
4079.458	2002
4081.03	1937
4082.602	1991
4084.173	1982
4085.745	2045
4087.315	1971
4088.886	2012
4090.456	1994
4092.026	1970
4093.596	2007
4095.165	1997
4096.734	2007
4098.301	1958
4099.869	2004
4101.437	1964
4103.006	1920
4104.572	1987
4106.139	1928
4107.704	1987
4109.27	1980
4110.837	1988
4112.401	1952
4113.966	2041
4115.53	1960
4117.094	1976
4118.659	1968
4120.223	1939
4121.785	1944
4123.347	1920
4124.909	1915
4126.471	1911
4128.034	1963
4129.595	1939
4131.155	2003
4132.716	1966
4134.275	1902
4135.836	1911
4137.395	1932
4138.955	1961
4140.513	1966
4142.071	1912
4143.628	1992
4145.188	1940
4146.745	1906
4148.302	1957
4149.858	1902
4151.414	1899
4152.971	1932
4154.526	1930
4156.081	1878
4157.635	1864
4159.189	1901
4160.745	1872
4162.298	1837
4163.852	1879
4165.405	1867
4166.957	1897
4168.51	1877
4170.063	1886
4171.614	1881
4173.166	1871
4174.717	1937
4176.267	1854
4177.817	1844
4179.368	1923
4180.917	1859
4182.466	1829
4184.016	1920
4185.564	1846
4187.112	1836
4188.66	1936
4190.207	1808
4191.754	1888
4193.301	1851
4194.848	1828
4196.394	1847
4197.94	1925
4199.484	1796
4201.03	1822
4202.575	1824
4204.12	1878
4205.663	1899
4207.207	1845
4208.75	1950
4210.292	1830
4211.836	1857
4213.378	1848
4214.92	1846
4216.46	1881
4218.002	1852
4219.544	1868
4221.083	1879
4222.625	1866
4224.164	1842
4225.703	1851
4227.244	1859
4228.782	1955
4230.32	1840
4231.857	1826
4233.395	1825
4234.933	1833
4236.471	1857
4238.007	1852
4239.542	1847
4241.078	1838
4242.614	1823
4244.15	1823
4245.685	1836
4247.219	1810
4248.753	1888
4250.287	1793
4251.82	1829
4253.354	1787
4254.887	1847
4256.419	1816
4257.951	1826
4259.483	1800
4261.016	1829
4262.547	1858
4264.078	1842
4265.608	1829
4267.137	1878
4268.668	1787
4270.197	1824
4271.727	1804
4273.254	1806
4274.783	1781
4276.311	1788
4277.84	1847
4279.366	1853
4280.894	1839
4282.42	1816
4283.946	1817
4285.473	1879
4286.998	1749
4288.523	1829
4290.047	1813
4291.572	1804
4293.096	1728
4294.622	1753
4296.144	1827
4297.668	1754
4299.19	1864
4300.713	1757
4302.236	1763
4303.758	1793
4305.279	1808
4306.799	1777
4308.321	1759
4309.842	1803
4311.361	1737
4312.882	1788
4314.401	1762
