400.0961	2425
402.6185	2475
405.1424	2459
407.6635	2385
410.1838	2475
412.7035	2494
415.2225	2463
417.7388	2529
420.2585	2530
422.7754	2574
425.2917	2564
427.8072	2529
430.3221	2588
432.8363	2605
435.3498	2584
437.8626	2635
440.3727	2628
442.8841	2664
445.3969	2674
447.907	2681
450.4142	2590
452.9229	2556
455.4289	2580
457.9362	2678
460.4449	2493
462.9488	2570
465.454	2563
467.9566	2579
470.4604	2556
472.9637	2589
475.4662	2567
477.966	2565
480.4671	2549
482.9656	2584
485.4633	2633
487.9645	2651
490.4608	2636
492.9566	2641
495.4536	2601
497.948	2654
500.4437	2589
502.9387	2594
505.431	2693
507.9226	2618
510.4136	2641
512.9079	2688
515.3975	2648
517.8864	2608
520.3746	2632
522.8622	2698
525.3491	2616
527.8394	2649
530.3249	2669
532.8098	2714
535.2939	2620
537.7774	2732
540.2623	2669
542.7444	2780
545.2259	2671
547.7067	2650
550.1868	2679
552.6683	2724
555.147	2657
557.6231	2660
560.1005	2606
562.5773	2653
565.0534	2633
567.5308	2718
570.0056	2706
572.4776	2738
574.951	2708
577.4237	2778
579.8978	2786
582.3671	2764
584.8378	2792
587.3079	2759
589.7773	2781
592.244	2827
594.714	2816
597.1793	2842
599.6461	2736
602.1121	2798
604.5754	2775
607.0421	2732
609.5042	2712
611.9675	2738
614.4282	2792
616.8902	2780
619.3515	2799
621.8122	2758
624.2702	2732
626.7296	2733
629.1863	2769
631.6423	2745
634.1017	2603
636.5563	2733
639.0104	2699
641.4658	2713
643.9185	2804
646.3725	2755
648.8239	2752
651.2766	2859
653.7266	2791
656.176	2771
658.6247	2752
661.0748	2805
663.5242	2799
665.9709	2810
668.417	2754
670.8624	2820
673.3092	2811
675.7533	2756
678.1968	2795
680.6395	2841
683.0817	2843
685.5251	2807
687.9659	2845
690.4061	2810
692.8456	2845
695.2844	2873
697.7226	2892
700.1621	2782
702.599	2862
705.0332	2848
707.4688	2883
709.9036	2825
712.3399	2831
714.7735	2810
717.2044	2834
719.6367	2866
722.0683	2897
724.4993	2889
726.9296	2953
729.3593	2896
731.7883	2888
734.2147	2933
736.6423	2907
739.0714	2922
741.4958	2939
743.9216	2949
746.3447	2966
748.7691	2979
751.1929	2974
753.616	2989
756.0366	2917
758.4584	3020
760.8776	2954
763.2982	2959
765.718	3020
768.1373	3141
770.5539	3065
772.9698	3018
775.3871	3083
777.8038	2957
780.2178	3014
782.6332	2980
785.0459	3064
787.458	2999
789.8714	3050
792.2842	3049
794.6943	2949
797.1038	3020
799.5127	3012
801.9209	3080
804.3324	3005
806.7393	3047
809.1456	3062
811.5513	3054
813.9562	3023
816.3625	3066
818.7663	3068
821.1693	3085
823.5718	3105
825.9735	3010
828.3746	3061
830.7771	3091
833.177	3052
835.5762	3109
837.9747	3061
840.3727	3093
842.772	3154
845.1666	3173
847.5626	3133
849.958	3116
852.3527	3221
854.7488	3254
857.1403	3139
859.5331	3111
861.9253	3110
864.3168	3168
866.7057	3079
869.098	3132
871.4876	3153
873.8746	3134
876.263	3189
878.6487	3126
881.0378	3117
883.4243	3107
885.8081	3170
888.1933	3059
890.5759	3130
892.9598	3083
895.343	3169
897.7256	3149
900.1057	3142
902.4871	3129
904.8659	3155
907.246	3157
909.6254	3214
912.0023	3243
914.3786	3280
916.7562	3351
919.1331	3307
921.5074	3300
923.8831	3397
926.2562	3287
928.6287	3314
931.0005	3306
933.3757	3339
935.7462	3301
938.1162	3381
940.4855	3353
942.8542	3336
945.2242	3386
947.5916	3460
949.9584	3509
952.3266	3455
954.6921	3534
957.0571	3744
959.4233	3850
961.787	3926
964.15	3904
966.5125	3783
968.8742	3703
971.2354	3570
973.5959	3468
975.9559	3379
978.3151	3415
980.6738	3304
983.0338	3359
985.3912	3209
987.7461	3231
990.1022	3191
992.4578	3182
994.8127	3226
997.1689	3275
999.5207	3255
1001.874	3339
1004.226	3298
1006.576	3190
1008.929	3283
1011.28	3324
1013.628	3264
1015.977	3192
1018.324	3304
1020.674	3240
1023.019	3243
1025.366	3211
1027.713	3310
1030.056	3245
1032.399	3223
1034.746	3277
1037.087	3272
1039.431	3391
1041.771	3365
1044.113	3337
1046.454	3258
1048.793	3297
1051.133	3259
1053.471	3256
1055.807	3315
1058.146	3340
1060.483	3287
1062.818	3352
1065.153	3439
1067.489	3324
1069.822	3319
1072.156	3370
1074.488	3407
1076.82	3423
1079.15	3398
1081.48	3336
1083.814	3372
1086.143	3371
1088.471	3357
1090.799	3352
1093.126	3301
1095.452	3362
1097.78	3360
1100.105	3331
1102.43	3380
1104.754	3276
1107.077	3397
1109.4	3309
1111.722	3342
1114.044	3326
1116.365	3388
1118.685	3305
1121.005	3349
1123.324	3345
1125.643	3433
1127.961	3353
1130.278	3367
1132.595	3412
1134.911	3410
1137.226	3358
1139.541	3305
1141.854	3384
1144.167	3332
1146.482	3366
1148.793	3401
1151.105	3302
1153.414	3389
1155.725	3345
1158.033	3377
1160.344	3353
1162.651	3382
1164.959	3354
1167.265	3325
1169.572	3386
1171.878	3363
1174.184	3368
1176.488	3352
1178.79	3333
1181.094	3409
1183.396	3366
1185.699	3375
1188.001	3367
1190.301	3349
1192.6	3365
1194.9	3323
1197.2	3417
1199.497	3381
1201.794	3360
1204.09	3310
1206.387	3373
1208.684	3395
1210.978	3381
1213.272	3463
1215.565	3456
1217.858	3362
1220.15	3406
1222.443	3383
1224.734	3433
1227.024	3525
1229.313	3423
1231.602	3497
1233.892	3486
1236.18	3480
1238.467	3482
1240.754	3496
1243.04	3579
1245.325	3566
1247.612	3564
1249.896	3522
1252.178	3495
1254.461	3554
1256.743	3527
1259.027	3693
1261.308	3602
1263.587	3535
1265.867	3576
1268.146	3537
1270.425	3601
1272.703	3517
1274.981	3615
1277.256	3567
1279.532	3580
1281.808	3508
1284.083	3505
1286.358	3504
1288.63	3536
1290.904	3583
1293.175	3520
1295.449	3478
1297.719	3599
1299.99	3507
1302.259	3556
1304.529	3512
1306.798	3490
1309.065	3530
1311.333	3468
1313.599	3465
1315.866	3483
1318.131	3471
1320.396	3527
1322.66	3501
1324.925	3558
1327.187	3486
1329.448	3519
1331.711	3590
1333.974	3494
1336.234	3445
1338.493	3576
1340.752	3462
1343.01	3507
1345.269	3504
1347.526	3494
1349.784	3584
1352.04	3506
1354.295	3478
1356.552	3520
1358.806	3523
1361.059	3506
1363.312	3563
1365.564	3584
1367.818	3471
1370.069	3507
1372.318	3552
1374.568	3534
1376.817	3533
1379.066	3554
1381.316	3525
1383.564	3565
1385.809	3543
1388.056	3634
1390.301	3615
1392.549	3641
1394.793	3650
1397.036	3726
1399.279	3559
1401.522	3637
1403.763	3685
1406.007	3759
1408.248	3581
1410.487	3615
1412.727	3637
1414.965	3680
1417.205	3667
1419.442	3610
1421.68	3643
1423.915	3650
1426.152	3633
1428.388	3737
1430.623	3704
1432.857	3717
1435.091	3685
1437.323	3653
1439.556	3678
1441.789	3767
1444.019	3670
1446.25	3806
1448.48	3788
1450.708	3756
1452.938	3821
1455.167	3774
1457.394	3834
1459.62	3759
1461.846	3731
1464.073	3822
1466.299	3678
1468.523	3746
1470.746	3666
1472.969	3620
1475.191	3619
1477.415	3603
1479.636	3672
1481.858	3536
1484.078	3544
1486.298	3529
1488.518	3636
1490.736	3456
1492.954	3495
1495.169	3535
1497.386	3592
1499.602	3555
1501.819	3515
1504.034	3577
1506.248	3544
1508.462	3507
1510.675	3493
1512.888	3448
1515.1	3514
1517.311	3561
1519.522	3552
1521.732	3623
1523.942	3511
1526.151	3516
1528.36	3526
1530.566	3559
1532.773	3509
1534.98	3523
1537.187	3475
1539.392	3475
1541.596	3567
1543.801	3559
1546.005	3604
1548.208	3554
1550.411	3533
1552.612	3494
1554.814	3651
1557.013	3503
1559.212	3589
1561.414	3608
1563.612	3572
1565.811	3512
1568.007	3654
1570.203	3621
1572.403	3588
1574.598	3608
1576.792	3640
1578.988	3704
1581.181	3613
1583.376	3675
1585.568	3659
1587.761	3653
1589.952	3756
1592.143	3648
1594.333	3672
1596.524	3631
1598.715	3717
1600.903	3650
1603.091	3682
1605.278	3718
1607.466	3706
1609.652	3655
1611.838	3705
1614.023	3607
1616.207	3663
1618.391	3657
1620.576	3694
1622.759	3642
1624.941	3688
1627.123	3761
1629.304	3676
1631.484	3682
1633.664	3731
1635.844	3753
1638.022	3737
1640.201	3831
1642.38	3756
1644.556	3704
1646.732	3701
1648.908	3747
1651.084	3806
1653.257	3799
1655.433	3771
1657.607	3788
1659.779	3773
1661.951	3727
1664.122	3827
1666.295	3768
1668.467	3742
1670.635	3760
1672.805	3707
1674.973	3785
1677.142	3740
1679.31	3834
1681.478	3785
1683.644	3710
1685.81	3745
1687.975	3672
1690.142	3658
1692.305	3682
1694.468	3727
1696.632	3689
1698.794	3779
1700.957	3671
1703.119	3732
1705.279	3606
1707.439	3647
1709.598	3686
1711.758	3666
1713.917	3660
1716.075	3672
1718.231	3730
1720.388	3611
1722.543	3639
1724.702	3622
1726.856	3697
1729.01	3584
1731.164	3603
1733.317	3610
1735.471	3646
1737.623	3691
1739.774	3652
1741.925	3595
1744.075	3548
1746.225	3694
1748.376	3602
1750.524	3705
1752.672	3672
1754.82	3695
1756.965	3709
1759.113	3644
1761.259	3617
1763.405	3700
1765.549	3635
1767.694	3657
1769.836	3687
1771.981	3702
1774.123	3675
1776.264	3714
1778.405	3661
1780.546	3753
1782.687	3657
1784.827	3598
1786.966	3668
1789.103	3701
1791.242	3701
1793.381	3739
1795.517	3765
1797.653	3708
1799.788	3677
1801.923	3692
1804.057	3698
1806.193	3733
1808.326	3759
1810.457	3645
1812.59	3675
1814.721	3731
1816.855	3701
1818.984	3740
1821.113	3702
1823.244	3811
1825.372	3725
1827.499	3735
1829.63	3753
1831.756	3715
1833.882	3643
1836.007	3651
1838.132	3650
1840.26	3691
1842.384	3618
1844.507	3702
1846.63	3684
1848.752	3616
1850.875	3702
1852.996	3733
1855.118	3695
1857.238	3638
1859.358	3602
1861.477	3647
1863.597	3698
1865.715	3613
1867.832	3597
1869.948	3602
1872.064	3574
1874.181	3724
1876.297	3580
1878.411	3630
1880.526	3647
1882.639	3638
1884.752	3677
1886.865	3655
1888.977	3717
1891.089	3690
1893.2	3763
1895.308	3714
1897.42	3666
1899.53	3781
1901.639	3752
1903.745	3684
1905.853	3765
1907.962	3650
1910.067	3696
1912.174	3712
1914.278	3684
1916.383	3763
1918.486	3720
1920.592	3769
1922.694	3826
1924.797	3666
1926.898	3743
1929	3693
1931.102	3733
1933.203	3792
1935.301	3713
1937.401	3746
1939.499	3725
1941.598	3723
1943.697	3741
1945.793	3724
1947.888	3786
1949.985	3785
1952.08	3718
1954.176	3694
1956.269	3767
1958.364	3786
1960.457	3786
1962.549	3705
1964.642	3784
1966.733	3707
1968.823	3743
1970.913	3733
1973.005	3709
1975.093	3726
1977.184	3669
1979.271	3755
1981.359	3704
1983.446	3730
1985.532	3717
1987.619	3724
1989.705	3761
1991.789	3688
1993.874	3695
1995.956	3641
1998.041	3797
2000.123	3672
2002.206	3711
2004.287	3692
2006.368	3773
2008.449	3654
2010.529	3630
2012.609	3648
2014.688	3714
2016.766	3657
2018.843	3701
2020.922	3736
2022.999	3674
2025.074	3705
2027.15	3639
2029.225	3756
2031.299	3746
2033.375	3721
2035.447	3748
2037.52	3729
2039.592	3681
2041.664	3676
2043.736	3686
2045.807	3684
2047.876	3763
2049.947	3670
2052.015	3673
2054.086	3659
2056.153	3717
2058.221	3736
2060.288	3740
2062.353	3693
2064.42	3749
2066.486	3737
2068.55	3773
2070.614	3699
2072.678	3713
2074.741	3694
2076.805	3737
2078.866	3706
2080.929	3708
2082.99	3659
2085.049	3706
2087.109	3680
2089.17	3792
2091.228	3694
2093.286	3734
2095.344	3662
2097.4	3716
2099.46	3735
2101.516	3680
2103.572	3741
2105.626	3672
2107.679	3648
2109.735	3690
2111.788	3735
2113.841	3774
2115.894	3726
2117.945	3777
2119.997	3740
2122.049	3692
2124.1	3765
2126.148	3616
2128.197	3712
2130.246	3770
2132.296	3745
2134.342	3643
2136.39	3726
2138.437	3743
2140.483	3648
2142.527	3741
2144.574	3812
2146.619	3722
2148.661	3702
2150.705	3701
2152.747	3723
2154.792	3770
2156.832	3666
2158.874	3689
2160.915	3764
2162.954	3710
2164.995	3716
2167.034	3721
2169.072	3649
2171.111	3756
2173.148	3719
2175.186	3645
2177.223	3785
2179.258	3741
2181.294	3711
2183.328	3676
2185.362	3720
2187.398	3717
2189.431	3666
2191.463	3618
2193.495	3612
2195.528	3637
2197.56	3635
2199.59	3664
2201.62	3651
2203.649	3722
2205.678	3668
2207.708	3661
2209.737	3691
2211.764	3651
2213.791	3534
2215.817	3659
2217.843	3666
2219.87	3699
2221.895	3606
2223.919	3603
2225.942	3658
2227.966	3588
2229.988	3620
2232.012	3624
2234.032	3664
2236.054	3613
2238.074	3672
2240.095	3614
2242.116	3632
2244.135	3655
2246.153	3665
2248.171	3635
2250.188	3645
2252.208	3705
2254.223	3647
2256.239	3669
2258.255	3606
2260.269	3632
2262.283	3647
2264.3	3673
2266.312	3598
2268.325	3626
2270.336	3621
2272.349	3581
2274.362	3634
2276.372	3725
2278.383	3631
2280.392	3616
2282.402	3675
2284.409	3559
2286.418	3704
2288.427	3664
2290.433	3669
2292.441	3686
2294.446	3615
2296.453	3614
2298.459	3570
2300.463	3652
2302.466	3652
2304.471	3681
2306.475	3664
2308.477	3687
2310.478	3697
2312.481	3681
2314.481	3655
2316.481	3568
2318.482	3661
2320.482	3641
2322.48	3638
2324.48	3657
2326.478	3567
2328.476	3605
2330.473	3622
2332.469	3609
2334.465	3609
2336.46	3584
2338.454	3627
2340.45	3592
2342.444	3560
2344.437	3547
2346.43	3646
2348.421	3582
2350.414	3499
2352.405	3609
2354.396	3668
2356.386	3575
2358.376	3667
2360.366	3626
2362.355	3624
2364.343	3618
2366.331	3564
2368.317	3584
2370.304	3606
2372.292	3590
2374.278	3595
2376.262	3611
2378.247	3580
2380.23	3532
2382.216	3533
2384.199	3568
2386.181	3584
2388.163	3553
2390.144	3602
2392.127	3640
2394.107	3538
2396.087	3628
2398.066	3607
2400.046	3594
2402.023	3553
2404.004	3596
2405.981	3587
2407.957	3544
2409.934	3509
2411.91	3502
2413.886	3598
2415.862	3657
2417.836	3601
2419.809	3595
2421.784	3588
2423.756	3517
2425.73	3560
2427.701	3568
2429.672	3542
2431.644	3641
2433.615	3570
2435.586	3504
2437.555	3569
2439.523	3579
2441.491	3479
2443.459	3541
2445.428	3583
2447.395	3547
2449.361	3528
2451.327	3534
2453.292	3498
2455.257	3535
2457.223	3542
2459.187	3510
2461.15	3498
2463.113	3552
2465.076	3482
2467.039	3565
2468.999	3545
2470.96	3513
2472.921	3540
2474.881	3479
2476.841	3470
2478.8	3525
2480.759	3511
2482.717	3537
2484.675	3553
2486.63	3522
2488.589	3640
2490.545	3507
2492.5	3452
2494.455	3537
2496.408	3541
2498.364	3561
2500.318	3508
2502.27	3521
2504.223	3480
2506.174	3532
2508.126	3527
2510.078	3404
2512.03	3434
2513.979	3466
2515.927	3494
2517.877	3527
2519.826	3509
2521.775	3499
2523.722	3506
2525.668	3516
2527.616	3472
2529.561	3546
2531.508	3505
2533.452	3483
2535.398	3552
2537.342	3503
2539.284	3547
2541.229	3487
2543.173	3546
2545.114	3459
2547.055	3546
2548.996	3518
2550.938	3516
2552.878	3542
2554.817	3524
2556.756	3446
2558.695	3481
2560.633	3504
2562.572	3443
2564.509	3490
2566.445	3487
2568.382	3513
2570.317	3573
2572.254	3487
2574.189	3509
2576.123	3551
2578.057	3494
2579.99	3580
2581.923	3503
2583.855	3449
2585.788	3519
2587.719	3479
2589.65	3517
2591.579	3432
2593.511	3480
2595.44	3516
2597.37	3417
2599.297	3462
2601.225	3510
2603.153	3529
2605.08	3550
2607.007	3585
2608.932	3573
2610.858	3580
2612.782	3464
2614.709	3465
2616.632	3493
2618.556	3515
2620.478	3459
2622.401	3548
2624.324	3519
2626.247	3477
2628.167	3426
2630.088	3474
2632.008	3608
2633.928	3482
2635.848	3545
2637.766	3571
2639.684	3598
2641.603	3699
2643.519	3496
2645.437	3580
2647.353	3608
2649.27	3548
2651.184	3496
2653.099	3565
2655.014	3491
2656.928	3484
2658.842	3538
2660.755	3562
2662.667	3601
2664.579	3538
2666.491	3553
2668.402	3445
2670.312	3484
2672.222	3542
2674.132	3501
2676.042	3481
2677.951	3512
2679.859	3478
2681.766	3518
2683.674	3458
2685.582	3487
2687.488	3552
2689.392	3494
2691.298	3518
2693.202	3480
2695.107	3457
2697.012	3582
2698.914	3516
2700.817	3476
2702.72	3477
2704.622	3462
2706.524	3517
2708.425	3448
2710.326	3506
2712.225	3534
2714.125	3424
2716.024	3490
2717.923	3472
2719.822	3425
2721.719	3386
2723.616	3530
2725.512	3608
2727.41	3393
2729.305	3530
2731.201	3588
2733.095	3449
2734.99	3489
2736.884	3484
2738.778	3558
2740.67	3528
2742.562	3440
2744.455	3484
2746.346	3519
2748.238	3454
2750.129	3478
2752.018	3441
2753.907	3434
2755.797	3416
2757.687	3501
2759.575	3498
2761.462	3557
2763.349	3500
2765.237	3457
2767.124	3399
2769.009	3478
2770.894	3460
2772.779	3453
2774.663	3512
2776.547	3432
2778.431	3442
2780.314	3486
2782.197	3432
2784.078	3512
2785.96	3411
2787.842	3484
2789.723	3392
2791.603	3456
2793.483	3509
2795.362	3414
2797.241	3437
2799.121	3436
2800.997	3486
2802.874	3410
2804.751	3480
2806.628	3434
2808.506	3467
2810.38	3479
2812.255	3405
2814.13	3452
2816.003	3477
2817.878	3380
2819.752	3494
2821.623	3491
2823.496	3451
2825.368	3500
2827.238	3457
2829.111	3570
2830.98	3436
2832.851	3463
2834.719	3446
2836.589	3455
2838.458	3547
2840.327	3491
2842.193	3537
2844.061	3462
2845.927	3456
2847.794	3547
2849.66	3471
2851.525	3528
2853.39	3514
2855.254	3576
2857.117	3539
2858.983	3539
2860.845	3535
2862.707	3576
2864.569	3689
2866.431	3603
2868.293	3664
2870.154	3602
2872.013	3703
2873.873	3694
2875.733	3713
2877.592	3782
2879.451	3808
2881.309	3856
2883.166	3777
2885.022	3953
2886.879	3913
2888.736	3856
2890.591	3898
2892.446	3921
2894.301	3935
2896.155	3953
2898.009	3966
2899.863	3884
2901.716	3902
2903.568	3952
2905.419	3906
2907.27	3989
2909.123	3946
2910.973	3909
2912.824	3973
2914.673	3885
2916.521	3948
2918.372	3985
2920.22	3997
2922.067	4055
2923.914	4117
2925.761	4152
2927.607	4147
2929.455	4133
2931.301	4219
2933.144	4198
2934.99	4308
2936.833	4243
2938.678	4410
2940.522	4296
2942.364	4402
2944.207	4421
2946.048	4364
2947.891	4458
2949.731	4518
2951.571	4530
2953.412	4537
2955.25	4466
2957.09	4429
2958.93	4377
2960.767	4312
2962.606	4237
2964.443	4296
2966.279	4197
2968.116	4127
2969.953	4213
2971.788	4168
2973.623	4083
2975.457	4044
2977.292	4010
2979.127	3971
2980.959	4026
2982.792	3880
2984.624	3960
2986.455	3902
2988.288	3933
2990.119	3944
2991.949	3817
2993.779	3832
2995.608	3818
2997.439	3763
2999.268	3783
3001.096	3691
3002.923	3668
3004.751	3550
3006.578	3675
3008.406	3605
3010.232	3625
3012.057	3536
3013.883	3501
3015.706	3500
3017.532	3542
3019.356	3483
3021.179	3449
3023.002	3471
3024.823	3402
3026.646	3440
3028.469	3395
3030.289	3358
3032.11	3357
3033.93	3437
3035.749	3373
3037.57	3326
3039.39	3400
3041.207	3350
3043.026	3313
3044.842	3383
3046.661	3314
3048.477	3321
3050.294	3297
3052.109	3394
3053.925	3323
3055.739	3311
3057.555	3338
3059.368	3335
3061.181	3326
3062.995	3262
3064.807	3365
3066.62	3250
3068.433	3263
3070.243	3284
3072.054	3349
3073.865	3296
3075.675	3236
3077.485	3264
3079.293	3287
3081.102	3308
3082.911	3255
3084.719	3284
3086.527	3259
3088.333	3295
3090.139	3272
3091.945	3137
3093.75	3268
3095.557	3242
3097.361	3223
3099.165	3229
3100.969	3226
3102.772	3196
3104.575	3190
3106.379	3237
3108.181	3228
3109.982	3236
3111.783	3234
3113.584	3189
3115.386	3213
3117.186	3206
3118.985	3143
3120.783	3255
3122.582	3210
3124.381	3220
3126.179	3139
3127.975	3212
3129.772	3173
3131.569	3243
3133.365	3177
3135.161	3206
3136.956	3149
3138.751	3178
3140.544	3184
3142.338	3228
3144.132	3117
3145.925	3211
3147.717	3145
3149.509	3166
3151.301	3172
3153.091	3202
3154.884	3155
3156.673	3197
3158.462	3177
3160.252	3192
3162.041	3199
3163.831	3062
3165.618	3105
3167.405	3106
3169.193	3117
3170.979	3094
3172.767	3170
3174.553	3127
3176.338	3128
3178.123	3166
3179.907	3082
3181.692	3158
3183.477	3145
3185.259	3119
3187.042	3034
3188.824	3137
3190.607	3129
3192.389	3049
3194.17	3078
3195.951	3132
3197.73	3119
3199.51	3133
3201.289	3152
3203.07	3201
3204.848	3118
3206.626	3070
3208.403	3038
3210.18	3121
3211.959	3143
3213.735	3112
3215.511	3103
3217.285	3123
3219.06	3100
3220.836	3133
3222.611	3102
3224.384	3165
3226.158	3199
3227.929	3135
3229.702	3143
3231.476	3183
3233.248	3062
3235.018	3172
3236.789	3172
3238.56	3102
3240.33	3105
3242.1	3104
3243.869	3147
3245.637	3207
3247.405	3093
3249.172	3096
3250.941	3115
3252.707	3114
3254.474	3070
3256.24	3166
3258.006	3120
3259.772	3072
3261.537	3053
3263.301	3137
3265.065	3106
3266.828	3114
3268.592	3135
3270.355	3061
3272.117	3143
3273.878	3128
3275.64	3133
3277.401	3090
3279.162	3109
3280.922	3062
3282.682	3165
3284.441	3100
3286.199	3164
3287.959	3169
3289.716	3026
3291.475	3129
3293.232	3163
3294.988	3109
3296.744	3097
3298.501	3156
3300.256	3145
3302.011	3290
3303.766	3105
3305.52	3167
3307.275	3125
3309.028	3132
3310.781	3128
3312.533	3110
3314.285	3120
3316.038	3139
3317.789	3086
3319.54	3111
3321.289	3145
3323.039	3138
3324.789	3086
3326.539	3130
3328.288	3152
3330.035	3146
3331.783	3067
3333.531	3102
3335.28	3066
3337.025	3070
3338.771	3123
3340.518	3077
3342.262	3062
3344.009	3015
3345.753	3079
3347.497	3041
3349.24	3051
3350.983	3149
3352.726	3078
3354.469	3099
3356.212	3110
3357.952	3025
3359.694	3072
3361.434	3141
3363.176	3066
3364.916	3124
3366.654	3086
3368.394	3042
3370.132	3062
3371.871	3059
3373.61	3024
3375.346	3050
3377.083	3082
3378.82	2981
3380.556	3047
3382.292	3004
3384.027	3069
3385.763	3008
3387.497	3053
3389.231	3114
3390.965	3021
3392.698	3065
3394.431	2992
3396.164	3003
3397.896	3098
3399.627	3012
3401.36	3036
3403.09	3064
3404.82	3037
3406.55	3014
3408.279	2937
3410.01	2925
3411.738	2953
3413.467	3010
3415.194	3047
3416.92	3050
3418.647	3012
3420.375	2929
3422.102	3031
3423.827	2996
3425.553	2959
3427.277	2928
3429.003	3008
3430.727	2972
3432.451	2958
3434.173	2967
3435.896	2935
3437.62	2897
3439.343	3013
3441.063	2906
3442.785	2961
3444.505	2893
3446.226	2953
3447.948	2890
3449.666	2908
3451.386	2931
3453.104	2929
3454.823	2829
3456.541	2899
3458.259	2922
3459.976	2945
3461.693	2869
3463.408	2891
3465.125	2850
3466.841	2897
3468.556	2875
3470.271	2856
3471.985	2903
3473.698	2880
3475.414	2905
3477.126	2865
3478.838	2883
3480.55	2876
3482.263	2838
3483.975	2823
3485.686	2900
3487.396	2853
3489.106	2845
3490.817	2843
3492.526	2849
3494.236	2882
3495.944	2893
3497.652	2830
3499.359	2776
3501.066	2826
3502.775	2804
3504.481	2799
3506.187	2770
3507.893	2903
3509.598	2807
3511.304	2818
3513.009	2704
3514.713	2752
3516.417	2822
3518.12	2766
3519.821	2829
3521.525	2805
3523.228	2806
3524.929	2795
3526.631	2808
3528.33	2748
3530.032	2772
3531.733	2759
3533.433	2782
3535.131	2698
3536.83	2765
3538.529	2766
3540.227	2806
3541.925	2774
3543.623	2771
3545.319	2771
3547.016	2670
3548.712	2787
3550.408	2757
3552.103	2643
3553.798	2769
3555.491	2741
3557.188	2714
3558.88	2722
3560.574	2665
3562.266	2678
3563.959	2713
3565.651	2712
3567.343	2730
3569.035	2650
3570.725	2676
3572.415	2689
3574.106	2692
3575.797	2689
3577.485	2683
3579.174	2660
3580.863	2687
3582.551	2714
3584.238	2653
3585.926	2700
3587.613	2626
3589.3	2660
3590.986	2691
3592.671	2659
3594.357	2683
3596.042	2614
3597.726	2604
3599.41	2612
3601.094	2627
3602.778	2600
3604.461	2625
3606.143	2616
3607.825	2657
3609.507	2588
3611.188	2600
3612.87	2655
3614.551	2559
3616.229	2580
3617.909	2565
3619.589	2586
3621.269	2570
3622.948	2565
3624.625	2582
3626.302	2558
3627.98	2653
3629.657	2595
3631.334	2626
3633.01	2594
3634.686	2524
3636.361	2571
3638.036	2559
3639.712	2587
3641.385	2546
3643.06	2540
3644.732	2558
3646.405	2624
3648.08	2497
3649.751	2575
3651.424	2528
3653.094	2563
3654.766	2554
3656.436	2490
3658.106	2535
3659.777	2515
3661.446	2542
3663.115	2494
3664.783	2508
3666.452	2487
3668.121	2442
3669.788	2517
3671.454	2483
3673.121	2517
3674.789	2542
3676.455	2507
3678.12	2456
3679.784	2482
3681.45	2539
3683.114	2573
3684.779	2474
3686.442	2384
3688.105	2483
3689.768	2477
3691.43	2478
3693.093	2463
3694.754	2471
3696.415	2446
3698.076	2514
3699.736	2565
3701.396	2449
3703.057	2513
3704.716	2412
3706.375	2443
3708.034	2506
3709.692	2463
3711.351	2435
3713.008	2505
3714.665	2465
3716.321	2525
3717.977	2476
3719.634	2470
3721.29	2437
3722.945	2433
3724.598	2426
3726.253	2432
3727.907	2439
3729.561	2458
3731.214	2440
3732.867	2420
3734.518	2428
3736.171	2448
3737.824	2441
3739.474	2391
3741.125	2389
3742.775	2432
3744.425	2411
3746.074	2457
3747.725	2352
3749.373	2500
3751.022	2437
3752.669	2453
3754.318	2397
3755.966	2380
3757.612	2431
3759.259	2427
3760.905	2331
3762.55	2446
3764.197	2390
3765.842	2406
3767.486	2446
3769.131	2408
3770.774	2362
3772.417	2355
3774.061	2408
3775.705	2382
3777.347	2400
3778.988	2316
3780.629	2405
3782.271	2362
3783.912	2433
3785.552	2448
3787.192	2355
3788.831	2387
3790.472	2406
3792.112	2373
3793.75	2401
3795.388	2410
3797.024	2360
3798.661	2364
3800.3	2385
3801.936	2387
3803.572	2337
3805.208	2346
3806.844	2356
3808.48	2330
3810.115	2375
3811.748	2322
3813.382	2384
3815.016	2321
3816.649	2322
3818.283	2365
3819.914	2377
3821.547	2327
3823.178	2315
3824.809	2365
3826.441	2333
3828.072	2312
3829.701	2288
3831.331	2345
3832.96	2305
3834.591	2302
3836.219	2313
3837.847	2306
3839.475	2315
3841.102	2258
3842.729	2284
3844.357	2277
3845.984	2262
3847.609	2340
3849.234	2303
3850.86	2277
3852.485	2329
3854.11	2315
3855.734	2315
3857.357	2307
3858.981	2289
3860.603	2326
3862.227	2268
3863.848	2329
3865.471	2301
3867.092	2300
3868.713	2214
3870.334	2265
3871.954	2283
3873.575	2288
3875.194	2314
3876.813	2245
3878.433	2248
3880.051	2237
3881.669	2289
3883.286	2263
3884.904	2284
3886.52	2299
3888.138	2287
3889.754	2253
3891.37	2312
3892.985	2270
3894.6	2237
3896.216	2279
3897.831	2271
3899.444	2271
3901.058	2279
3902.67	2252
3904.283	2264
3905.897	2330
3907.509	2213
3909.121	2233
3910.731	2178
3912.342	2266
3913.954	2245
3915.563	2320
3917.174	2186
3918.783	2269
3920.391	2245
3922.002	2199
3923.611	2195
3925.218	2257
3926.826	2263
3928.432	2258
3930.039	2244
3931.647	2276
3933.253	2210
3934.859	2215
3936.464	2253
3938.068	2192
3939.675	2217
3941.278	2178
3942.883	2220
3944.486	2166
3946.089	2183
3947.692	2176
3949.295	2215
3950.898	2233
3952.499	2141
3954.1	2229
3955.7	2158
3957.303	2172
3958.903	2281
3960.502	2174
3962.101	2161
3963.7	2197
3965.301	2241
3966.899	2161
3968.497	2166
3970.094	2198
3971.691	2202
3973.288	2186
3974.885	2126
3976.481	2236
3978.077	2145
3979.672	2171
3981.267	2164
3982.863	2092
3984.457	2157
3986.051	2208
3987.645	2107
3989.238	2132
3990.831	2180
3992.425	2203
3994.017	2157
3995.607	2085
3997.199	2173
3998.79	2171
4000.382	2104
4001.973	2118
4003.561	2101
4005.151	2113
4006.741	2174
4008.331	2177
4009.918	2107
4011.507	2198
4013.095	2142
4014.681	2092
4016.269	2097
4017.856	2126
4019.443	2121
4021.028	2078
4022.614	2104
4024.199	2130
4025.785	2091
4027.37	2129
4028.953	2077
4030.536	2110
4032.12	2093
4033.704	2051
4035.287	2116
4036.869	2041
4038.45	2049
4040.032	2008
4041.613	2121
4043.195	2013
4044.776	2097
4046.356	2080
4047.935	2061
4049.515	2100
4051.095	2086
4052.674	2094
4054.251	2014
4055.829	2098
4057.406	2018
4058.985	2125
4060.562	2058
4062.139	2050
4063.715	2082
4065.29	2069
4066.865	2085
4068.442	2096
4070.016	2019
4071.59	2056
4073.164	2019
4074.738	2033
4076.312	1980
4077.885	2052
4079.458	2021
4081.03	2076
4082.602	2041
4084.173	2068
4085.745	2023
4087.315	1992
4088.886	2027
4090.456	2054
4092.026	2092
4093.596	2006
4095.165	2087
4096.734	1982
4098.301	2006
4099.869	2002
4101.437	2007
4103.006	1994
4104.572	2034
4106.139	2029
4107.704	2063
4109.27	2041
4110.837	1988
4112.401	2013
4113.966	1996
4115.53	2014
4117.094	2009
4118.659	2025
4120.223	2013
4121.785	1959
4123.347	1975
4124.909	1964
4126.471	1979
4128.034	1976
4129.595	1955
4131.155	1886
4132.716	1959
4134.275	2007
4135.836	1992
4137.395	1984
4138.955	1962
4140.513	1937
4142.071	1994
4143.628	1953
4145.188	1985
4146.745	1923
4148.302	1952
4149.858	1986
4151.414	1961
4152.971	1906
4154.526	1981
4156.081	1997
4157.635	1918
4159.189	1979
4160.745	1941
4162.298	1962
4163.852	1985
4165.405	1932
4166.957	2004
4168.51	1921
4170.063	1938
4171.614	1950
4173.166	1981
4174.717	1937
4176.267	1998
4177.817	1890
4179.368	1887
4180.917	1918
4182.466	1930
4184.016	1949
4185.564	1935
4187.112	1920
4188.66	1864
4190.207	1891
4191.754	1909
4193.301	1975
4194.848	1913
4196.394	1881
4197.94	1930
4199.484	1908
4201.03	1940
4202.575	1867
4204.12	1875
4205.663	1930
4207.207	1879
4208.75	1887
4210.292	1869
4211.836	1900
4213.378	1961
4214.92	1896
4216.46	1894
4218.002	1910
4219.544	1949
4221.083	1863
4222.625	1867
4224.164	1812
4225.703	1851
4227.244	1867
4228.782	1851
4230.32	1910
4231.857	1837
4233.395	1840
4234.933	1887
4236.471	1853
4238.007	1861
4239.542	1879
4241.078	1907
4242.614	1854
4244.15	1836
4245.685	1813
4247.219	1937
4248.753	1824
4250.287	1874
4251.82	1924
4253.354	1826
4254.887	1875
4256.419	1843
4257.951	1866
4259.483	1866
4261.016	1824
4262.547	1873
4264.078	1828
4265.608	1836
4267.137	1899
4268.668	1888
4270.197	1868
4271.727	1864
4273.254	1851
4274.783	1815
4276.311	1864
4277.84	1820
4279.366	1847
4280.894	1844
4282.42	1864
4283.946	1819
4285.473	1803
4286.998	1821
4288.523	1802
4290.047	1847
4291.572	1803
4293.096	1828
4294.622	1854
4296.144	1860
4297.668	1789
4299.19	1864
4300.713	1820
4302.236	1835
4303.758	1859
4305.279	1887
4306.799	1861
4308.321	1790
4309.842	1785
4311.361	1838
4312.882	1843
4314.401	1778
