400.0961	2933
402.6185	2985
405.1424	3007
407.6635	2999
410.1838	3042
412.7035	3032
415.2225	3014
417.7388	3124
420.2585	3087
422.7754	3114
425.2917	3154
427.8072	3219
430.3221	3191
432.8363	3220
435.3498	3160
437.8626	3181
440.3727	3322
442.8841	3232
445.3969	3264
447.907	3231
450.4142	3159
452.9229	3219
455.4289	3193
457.9362	3194
460.4449	3183
462.9488	3120
465.454	3121
467.9566	3078
470.4604	3176
472.9637	3104
475.4662	3169
477.966	3162
480.4671	3250
482.9656	3236
485.4633	3095
487.9645	3183
490.4608	3214
492.9566	3212
495.4536	3141
497.948	3185
500.4437	3205
502.9387	3171
505.431	3283
507.9226	3214
510.4136	3263
512.9079	3285
515.3975	3239
517.8864	3290
520.3746	3226
522.8622	3253
525.3491	3211
527.8394	3264
530.3249	3311
532.8098	3287
535.2939	3243
537.7774	3308
540.2623	3221
542.7444	3309
545.2259	3258
547.7067	3376
550.1868	3240
552.6683	3331
555.147	3303
557.6231	3336
560.1005	3316
562.5773	3243
565.0534	3326
567.5308	3348
570.0056	3360
572.4776	3368
574.951	3309
577.4237	3341
579.8978	3378
582.3671	3471
584.8378	3432
587.3079	3495
589.7773	3471
592.244	3463
594.714	3364
597.1793	3417
599.6461	3449
602.1121	3355
604.5754	3398
607.0421	3397
609.5042	3365
611.9675	3354
614.4282	3353
616.8902	3400
619.3515	3412
621.8122	3398
624.2702	3318
626.7296	3449
629.1863	3334
631.6423	3358
634.1017	3394
636.5563	3304
639.0104	3310
641.4658	3359
643.9185	3409
646.3725	3339
648.8239	3344
651.2766	3320
653.7266	3379
656.176	3390
658.6247	3337
661.0748	3355
663.5242	3475
665.9709	3457
668.417	3446
670.8624	3384
673.3092	3482
675.7533	3442
678.1968	3387
680.6395	3516
683.0817	3467
685.5251	3489
687.9659	3483
690.4061	3449
692.8456	3482
695.2844	3494
697.7226	3457
700.1621	3493
702.599	3505
705.0332	3527
707.4688	3558
709.9036	3519
712.3399	3573
714.7735	3504
717.2044	3536
719.6367	3701
722.0683	3598
724.4993	3578
726.9296	3588
729.3593	3556
731.7883	3622
734.2147	3599
736.6423	3570
739.0714	3634
741.4958	3613
743.9216	3601
746.3447	3718
748.7691	3590
751.1929	3675
753.616	3712
756.0366	3651
758.4584	3737
760.8776	3565
763.2982	3729
765.718	3641
768.1373	3642
770.5539	3727
772.9698	3687
775.3871	3684
777.8038	3739
780.2178	3730
782.6332	3700
785.0459	3742
787.458	3629
789.8714	3753
792.2842	3651
794.6943	3639
797.1038	3721
799.5127	3723
801.9209	3705
804.3324	3661
806.7393	3735
809.1456	3691
811.5513	3832
813.9562	3775
816.3625	3758
818.7663	3777
821.1693	3842
823.5718	3822
825.9735	3759
828.3746	3695
830.7771	3764
833.177	3757
835.5762	3681
837.9747	3817
840.3727	3801
842.772	3873
845.1666	3822
847.5626	3775
849.958	3842
852.3527	3886
854.7488	3956
857.1403	3951
859.5331	3878
861.9253	3883
864.3168	3832
866.7057	3825
869.098	3843
871.4876	3847
873.8746	3849
876.263	3828
878.6487	3905
881.0378	3863
883.4243	3953
885.8081	3830
888.1933	3861
890.5759	3801
892.9598	3835
895.343	3793
897.7256	3902
900.1057	3890
902.4871	3890
904.8659	3865
907.246	3832
909.6254	3923
912.0023	3948
914.3786	3988
916.7562	4107
919.1331	4136
921.5074	4231
923.8831	4206
926.2562	4194
928.6287	4245
931.0005	4143
933.3757	4212
935.7462	4138
938.1162	4030
940.4855	4198
942.8542	4108
945.2242	4228
947.5916	4304
949.9584	4415
952.3266	4442
954.6921	4534
957.0571	4704
959.4233	4895
961.787	4887
964.15	4969
966.5125	4919
968.8742	4656
971.2354	4463
973.5959	4276
975.9559	4204
978.3151	4136
980.6738	4182
983.0338	4069
985.3912	4138
987.7461	4104
990.1022	3963
992.4578	3981
994.8127	3992
997.1689	4044
999.5207	4006
1001.874	4089
1004.226	4094
1006.576	4092
1008.929	4058
1011.28	4006
1013.628	4021
1015.977	4021
1018.324	3978
1020.674	4038
1023.019	4004
1025.366	4078
1027.713	4039
1030.056	4085
1032.399	4045
1034.746	4068
1037.087	4018
1039.431	4068
1041.771	4059
1044.113	4109
1046.454	4008
1048.793	4123
1051.133	4036
1053.471	4040
1055.807	4090
1058.146	4013
1060.483	4158
1062.818	4195
1065.153	4160
1067.489	4171
1069.822	4134
1072.156	4197
1074.488	4236
1076.82	4228
1079.15	4102
1081.48	4113
1083.814	4124
1086.143	4114
1088.471	4121
1090.799	4126
1093.126	4150
1095.452	4140
1097.78	4070
1100.105	4043
1102.43	4147
1104.754	4099
1107.077	4192
1109.4	4086
1111.722	4044
1114.044	4060
1116.365	4191
1118.685	4117
1121.005	4087
1123.324	4099
1125.643	4144
1127.961	4173
1130.278	4057
1132.595	4172
1134.911	4103
1137.226	4064
1139.541	4137
1141.854	4107
1144.167	4116
1146.482	4041
1148.793	4090
1151.105	4074
1153.414	3970
1155.725	4140
1158.033	4031
1160.344	4149
1162.651	4110
1164.959	4112
1167.265	4128
1169.572	4162
1171.878	4061
1174.184	4126
1176.488	4158
1178.79	4137
1181.094	4153
1183.396	4014
1185.699	4053
1188.001	4105
1190.301	4039
1192.6	4142
1194.9	4060
1197.2	4190
1199.497	4154
1201.794	4123
1204.09	4207
1206.387	4110
1208.684	4157
1210.978	4102
1213.272	4149
1215.565	4148
1217.858	4167
1220.15	4210
1222.443	4188
1224.734	4143
1227.024	4229
1229.313	4206
1231.602	4255
1233.892	4161
1236.18	4294
1238.467	4278
1240.754	4308
1243.04	4264
1245.325	4322
1247.612	4387
1249.896	4336
1252.178	4380
1254.461	4463
1256.743	4410
1259.027	4337
1261.308	4466
1263.587	4402
1265.867	4361
1268.146	4347
1270.425	4392
1272.703	4401
1274.981	4452
1277.256	4377
1279.532	4328
1281.808	4310
1284.083	4255
1286.358	4316
1288.63	4249
1290.904	4225
1293.175	4280
1295.449	4225
1297.719	4348
1299.99	4264
1302.259	4310
1304.529	4364
1306.798	4277
1309.065	4247
1311.333	4241
1313.599	4349
1315.866	4249
1318.131	4253
1320.396	4274
1322.66	4260
1324.925	4325
1327.187	4225
1329.448	4268
1331.711	4322
1333.974	4370
1336.234	4374
1338.493	4278
1340.752	4294
1343.01	4223
1345.269	4145
1347.526	4302
1349.784	4270
1352.04	4295
1354.295	4196
1356.552	4296
1358.806	4244
1361.059	4252
1363.312	4215
1365.564	4258
1367.818	4251
1370.069	4283
1372.318	4288
1374.568	4269
1376.817	4302
1379.066	4342
1381.316	4323
1383.564	4365
1385.809	4369
1388.056	4293
1390.301	4396
1392.549	4418
1394.793	4530
1397.036	4571
1399.279	4552
1401.522	4570
1403.763	4597
1406.007	4558
1408.248	4517
1410.487	4437
1412.727	4579
1414.965	4599
1417.205	4546
1419.442	4496
1421.68	4496
1423.915	4371
1426.152	4520
1428.388	4487
1430.623	4492
1432.857	4477
1435.091	4541
1437.323	4549
1439.556	4575
1441.789	4505
1444.019	4552
1446.25	4534
1448.48	4601
1450.708	4581
1452.938	4619
1455.167	4604
1457.394	4649
1459.62	4653
1461.846	4557
1464.073	4608
1466.299	4584
1468.523	4533
1470.746	4504
1472.969	4496
1475.191	4449
1477.415	4496
1479.636	4384
1481.858	4407
1484.078	4353
1486.298	4318
1488.518	4228
1490.736	4296
1492.954	4266
1495.169	4215
1497.386	4202
1499.602	4305
1501.819	4295
1504.034	4300
1506.248	4242
1508.462	4290
1510.675	4239
1512.888	4214
1515.1	4190
1517.311	4232
1519.522	4263
1521.732	4212
1523.942	4273
1526.151	4263
1528.36	4221
1530.566	4226
1532.773	4229
1534.98	4293
1537.187	4268
1539.392	4263
1541.596	4289
1543.801	4258
1546.005	4322
1548.208	4220
1550.411	4315
1552.612	4289
1554.814	4271
1557.013	4326
1559.212	4331
1561.414	4306
1563.612	4312
1565.811	4368
1568.007	4322
1570.203	4321
1572.403	4352
1574.598	4440
1576.792	4392
1578.988	4327
1581.181	4363
1583.376	4431
1585.568	4413
1587.761	4419
1589.952	4297
1592.143	4479
1594.333	4345
1596.524	4393
1598.715	4321
1600.903	4408
1603.091	4405
1605.278	4456
1607.466	4354
1609.652	4382
1611.838	4492
1614.023	4466
1616.207	4420
1618.391	4357
1620.576	4309
1622.759	4432
1624.941	4464
1627.123	4426
1629.304	4408
1631.484	4484
1633.664	4535
1635.844	4504
1638.022	4526
1640.201	4512
1642.38	4456
1644.556	4557
1646.732	4545
1648.908	4477
1651.084	4544
1653.257	4405
1655.433	4565
1657.607	4506
1659.779	4630
1661.951	4555
1664.122	4542
1666.295	4671
1668.467	4640
1670.635	4528
1672.805	4621
1674.973	4531
1677.142	4595
1679.31	4590
1681.478	4583
1683.644	4501
1685.81	4573
1687.975	4502
1690.142	4526
1692.305	4458
1694.468	4530
1696.632	4541
1698.794	4453
1700.957	4499
1703.119	4450
1705.279	4473
1707.439	4439
1709.598	4426
1711.758	4414
1713.917	4314
1716.075	4430
1718.231	4395
1720.388	4316
1722.543	4345
1724.702	4432
1726.856	4318
1729.01	4409
1731.164	4320
1733.317	4432
1735.471	4343
1737.623	4306
1739.774	4368
1741.925	4441
1744.075	4360
1746.225	4426
1748.376	4397
1750.524	4338
1752.672	4396
1754.82	4467
1756.965	4389
1759.113	4393
1761.259	4332
1763.405	4421
1765.549	4514
1767.694	4324
1769.836	4360
1771.981	4430
1774.123	4336
1776.264	4441
1778.405	4377
1780.546	4429
1782.687	4470
1784.827	4401
1786.966	4439
1789.103	4391
1791.242	4458
1793.381	4441
1795.517	4448
1797.653	4433
1799.788	4478
1801.923	4452
1804.057	4367
1806.193	4426
1808.326	4376
1810.457	4376
1812.59	4461
1814.721	4490
1816.855	4431
1818.984	4474
1821.113	4369
1823.244	4404
1825.372	4340
1827.499	4430
1829.63	4356
1831.756	4293
1833.882	4363
1836.007	4343
1838.132	4401
1840.26	4341
1842.384	4404
1844.507	4410
1846.63	4314
1848.752	4399
1850.875	4378
1852.996	4410
1855.118	4355
1857.238	4425
1859.358	4401
1861.477	4400
1863.597	4369
1865.715	4451
1867.832	4376
1869.948	4468
1872.064	4374
1874.181	4408
1876.297	4366
1878.411	4326
1880.526	4414
1882.639	4416
1884.752	4357
1886.865	4390
1888.977	4475
1891.089	4415
1893.2	4380
1895.308	4380
1897.42	4280
1899.53	4378
1901.639	4443
1903.745	4405
1905.853	4474
1907.962	4372
1910.067	4439
1912.174	4398
1914.278	4422
1916.383	4457
1918.486	4505
1920.592	4492
1922.694	4453
1924.797	4389
1926.898	4507
1929	4556
1931.102	4433
1933.203	4368
1935.301	4420
1937.401	4485
1939.499	4478
1941.598	4493
1943.697	4514
1945.793	4501
1947.888	4477
1949.985	4351
1952.08	4493
1954.176	4511
1956.269	4430
1958.364	4378
1960.457	4476
1962.549	4358
1964.642	4535
1966.733	4459
1968.823	4458
1970.913	4406
1973.005	4543
1975.093	4372
1977.184	4444
1979.271	4420
1981.359	4504
1983.446	4426
1985.532	4306
1987.619	4461
1989.705	4403
1991.789	4335
1993.874	4474
1995.956	4413
1998.041	4387
2000.123	4373
2002.206	4434
2004.287	4427
2006.368	4408
2008.449	4464
2010.529	4330
2012.609	4459
2014.688	4492
2016.766	4426
2018.843	4400
2020.922	4461
2022.999	4490
2025.074	4522
2027.15	4426
2029.225	4421
2031.299	4383
2033.375	4431
2035.447	4391
2037.52	4426
2039.592	4387
2041.664	4438
2043.736	4352
2045.807	4421
2047.876	4355
2049.947	4406
2052.015	4391
2054.086	4426
2056.153	4422
2058.221	4381
2060.288	4399
2062.353	4441
2064.42	4489
2066.486	4296
2068.55	4491
2070.614	4466
2072.678	4472
2074.741	4381
2076.805	4330
2078.866	4433
2080.929	4435
2082.99	4433
2085.049	4463
2087.109	4415
2089.17	4404
2091.228	4459
2093.286	4497
2095.344	4516
2097.4	4379
2099.46	4433
2101.516	4502
2103.572	4309
2105.626	4409
2107.679	4455
2109.735	4464
2111.788	4420
2113.841	4517
2115.894	4421
2117.945	4411
2119.997	4360
2122.049	4418
2124.1	4458
2126.148	4429
2128.197	4462
2130.246	4397
2132.296	4376
2134.342	4460
2136.39	4365
2138.437	4412
2140.483	4457
2142.527	4424
2144.574	4335
2146.619	4372
2148.661	4432
2150.705	4396
2152.747	4360
2154.792	4428
2156.832	4430
2158.874	4543
2160.915	4404
2162.954	4387
2164.995	4383
2167.034	4371
2169.072	4342
2171.111	4447
2173.148	4347
2175.186	4427
2177.223	4390
2179.258	4330
2181.294	4349
2183.328	4380
2185.362	4411
2187.398	4397
2189.431	4352
2191.463	4350
2193.495	4293
2195.528	4298
2197.56	4305
2199.59	4342
2201.62	4299
2203.649	4343
2205.678	4244
2207.708	4322
2209.737	4308
2211.764	4337
2213.791	4266
2215.817	4308
2217.843	4372
2219.87	4354
2221.895	4379
2223.919	4323
2225.942	4387
2227.966	4342
2229.988	4234
2232.012	4278
2234.032	4414
2236.054	4291
2238.074	4267
2240.095	4450
2242.116	4218
2244.135	4317
2246.153	4316
2248.171	4284
2250.188	4309
2252.208	4269
2254.223	4397
2256.239	4290
2258.255	4342
2260.269	4317
2262.283	4320
2264.3	4353
2266.312	4317
2268.325	4236
2270.336	4352
2272.349	4285
2274.362	4352
2276.372	4258
2278.383	4355
2280.392	4261
2282.402	4298
2284.409	4206
2286.418	4287
2288.427	4320
2290.433	4317
2292.441	4245
2294.446	4345
2296.453	4298
2298.459	4384
2300.463	4444
2302.466	4330
2304.471	4258
2306.475	4337
2308.477	4321
2310.478	4293
2312.481	4348
2314.481	4180
2316.481	4368
2318.482	4253
2320.482	4281
2322.48	4173
2324.48	4283
2326.478	4328
2328.476	4250
2330.473	4188
2332.469	4286
2334.465	4354
2336.46	4308
2338.454	4226
2340.45	4337
2342.444	4260
2344.437	4171
2346.43	4202
2348.421	4249
2350.414	4155
2352.405	4244
2354.396	4292
2356.386	4229
2358.376	4245
2360.366	4207
2362.355	4221
2364.343	4250
2366.331	4244
2368.317	4216
2370.304	4214
2372.292	4165
2374.278	4185
2376.262	4184
2378.247	4183
2380.23	4207
2382.216	4159
2384.199	4201
2386.181	4200
2388.163	4194
2390.144	4227
2392.127	4154
2394.107	4211
2396.087	4151
2398.066	4168
2400.046	4183
2402.023	4184
2404.004	4239
2405.981	4102
2407.957	4237
2409.934	4314
2411.91	4128
2413.886	4128
2415.862	4082
2417.836	4117
2419.809	4177
2421.784	4198
2423.756	4136
2425.73	4228
2427.701	4172
2429.672	4273
2431.644	4191
2433.615	4248
2435.586	4146
2437.555	4185
2439.523	4173
2441.491	4197
2443.459	4230
2445.428	4148
2447.395	4195
2449.361	4226
2451.327	4211
2453.292	4114
2455.257	4203
2457.223	4045
2459.187	4208
2461.15	4113
2463.113	4176
2465.076	4178
2467.039	4081
2468.999	4123
2470.96	4175
2472.921	4148
2474.881	4202
2476.841	4126
2478.8	4145
2480.759	4208
2482.717	4124
2484.675	4150
2486.63	4169
2488.589	4104
2490.545	4133
2492.5	4138
2494.455	4200
2496.408	4156
2498.364	4146
2500.318	4165
2502.27	4062
2504.223	4088
2506.174	4146
2508.126	4184
2510.078	4093
2512.03	4142
2513.979	4109
2515.927	4101
2517.877	4129
2519.826	4036
2521.775	4094
2523.722	4111
2525.668	4104
2527.616	4185
2529.561	4097
2531.508	4070
2533.452	4084
2535.398	4060
2537.342	4067
2539.284	4061
2541.229	4112
2543.173	4157
2545.114	4026
2547.055	4067
2548.996	4181
2550.938	4119
2552.878	4060
2554.817	4025
2556.756	4106
2558.695	4059
2560.633	4041
2562.572	4120
2564.509	4215
2566.445	4097
2568.382	4076
2570.317	4024
2572.254	4090
2574.189	4060
2576.123	4097
2578.057	4112
2579.99	4093
2581.923	4054
2583.855	4087
2585.788	4154
2587.719	4156
2589.65	4180
2591.579	4066
2593.511	4187
2595.44	4106
2597.37	4052
2599.297	4208
2601.225	4148
2603.153	4006
2605.08	4084
2607.007	4165
2608.932	4103
2610.858	4069
2612.782	4015
2614.709	4152
2616.632	4137
2618.556	4053
2620.478	4068
2622.401	4084
2624.324	4129
2626.247	4093
2628.167	4062
2630.088	4106
2632.008	4143
2633.928	4037
2635.848	4121
2637.766	4056
2639.684	4135
2641.603	4130
2643.519	4106
2645.437	4162
2647.353	4189
2649.27	4169
2651.184	4132
2653.099	4141
2655.014	4044
2656.928	4097
2658.842	4130
2660.755	3976
2662.667	4030
2664.579	4112
2666.491	4168
2668.402	4107
2670.312	4071
2672.222	4135
2674.132	4155
2676.042	4048
2677.951	4047
2679.859	4088
2681.766	4080
2683.674	4133
2685.582	3968
2687.488	4066
2689.392	4150
2691.298	4072
2693.202	4135
2695.107	3983
2697.012	4096
2698.914	3984
2700.817	4079
2702.72	4134
2704.622	4025
2706.524	4146
2708.425	4000
2710.326	4030
2712.225	4026
2714.125	3975
2716.024	4097
2717.923	4021
2719.822	4033
2721.719	3954
2723.616	4066
2725.512	4026
2727.41	3945
2729.305	4027
2731.201	4038
2733.095	3959
2734.99	4083
2736.884	4042
2738.778	4103
2740.67	4031
2742.562	4055
2744.455	4021
2746.346	4001
2748.238	3952
2750.129	4072
2752.018	4056
2753.907	4076
2755.797	3973
2757.687	4052
2759.575	3983
2761.462	3986
2763.349	4007
2765.237	4065
2767.124	3961
2769.009	4008
2770.894	3946
2772.779	4041
2774.663	3962
2776.547	4061
2778.431	4047
2780.314	3910
2782.197	4024
2784.078	4101
2785.96	3991
2787.842	4048
2789.723	4058
2791.603	4095
2793.483	3965
2795.362	3973
2797.241	3993
2799.121	3978
2800.997	4032
2802.874	4111
2804.751	3967
2806.628	4025
2808.506	4016
2810.38	3991
2812.255	4070
2814.13	4064
2816.003	4016
2817.878	3977
2819.752	3977
2821.623	4017
2823.496	3966
2825.368	4046
2827.238	3950
2829.111	4037
2830.98	3980
2832.851	3989
2834.719	3977
2836.589	4034
2838.458	3990
2840.327	4010
2842.193	4126
2844.061	4107
2845.927	4124
2847.794	4120
2849.66	4068
2851.525	4014
2853.39	4059
2855.254	4154
2857.117	4072
2858.983	4113
2860.845	4211
2862.707	4188
2864.569	4323
2866.431	4238
2868.293	4344
2870.154	4302
2872.013	4448
2873.873	4379
2875.733	4394
2877.592	4465
2879.451	4565
2881.309	4472
2883.166	4594
2885.022	4643
2886.879	4635
2888.736	4783
2890.591	4791
2892.446	4734
2894.301	4829
2896.155	4718
2898.009	4843
2899.863	4699
2901.716	4753
2903.568	4718
2905.419	4592
2907.27	4680
2909.123	4734
2910.973	4648
2912.824	4621
2914.673	4749
2916.521	4756
2918.372	4793
2920.22	4932
2922.067	4893
2923.914	4916
2925.761	5054
2927.607	4990
2929.455	5017
2931.301	5170
2933.144	5197
2934.99	5101
2936.833	5251
2938.678	5330
2940.522	5300
2942.364	5393
2944.207	5465
2946.048	5508
2947.891	5716
2949.731	5587
2951.571	5682
2953.412	5741
2955.25	5594
2957.09	5447
2958.93	5372
2960.767	5377
2962.606	5388
2964.443	5286
2966.279	5354
2968.116	5069
2969.953	5020
2971.788	5010
2973.623	4852
2975.457	4864
2977.292	4879
2979.127	4815
2980.959	4777
2982.792	4755
2984.624	4637
2986.455	4671
2988.288	4659
2990.119	4628
2991.949	4679
2993.779	4494
2995.608	4506
2997.439	4526
2999.268	4370
3001.096	4374
3002.923	4399
3004.751	4356
3006.578	4262
3008.406	4237
3010.232	4192
3012.057	4209
3013.883	4122
3015.706	4124
3017.532	4053
3019.356	3984
3021.179	3986
3023.002	3938
3024.823	4023
3026.646	4019
3028.469	3950
3030.289	3887
3032.11	3923
3033.93	3876
3035.749	3894
3037.57	3888
3039.39	3840
3041.207	3893
3043.026	3857
3044.842	3915
3046.661	3823
3048.477	3864
3050.294	3822
3052.109	3866
3053.925	3779
3055.739	3823
3057.555	3801
3059.368	3810
3061.181	3841
3062.995	3806
3064.807	3929
3066.62	3775
3068.433	3802
3070.243	3822
3072.054	3872
3073.865	3854
3075.675	3763
3077.485	3882
3079.293	3880
3081.102	3849
3082.911	3804
3084.719	3766
3086.527	3760
3088.333	3752
3090.139	3759
3091.945	3806
3093.75	3725
3095.557	3689
3097.361	3697
3099.165	3766
3100.969	3756
3102.772	3667
3104.575	3673
3106.379	3686
3108.181	3738
3109.982	3724
3111.783	3680
3113.584	3717
3115.386	3657
3117.186	3759
3118.985	3682
3120.783	3616
3122.582	3720
3124.381	3571
3126.179	3666
3127.975	3626
3129.772	3673
3131.569	3677
3133.365	3609
3135.161	3750
3136.956	3680
3138.751	3601
3140.544	3603
3142.338	3675
3144.132	3550
3145.925	3659
3147.717	3620
3149.509	3673
3151.301	3701
3153.091	3569
3154.884	3644
3156.673	3622
3158.462	3640
3160.252	3610
3162.041	3637
3163.831	3627
3165.618	3691
3167.405	3614
3169.193	3539
3170.979	3637
3172.767	3656
3174.553	3644
3176.338	3665
3178.123	3602
3179.907	3649
3181.692	3500
3183.477	3555
3185.259	3639
3187.042	3656
3188.824	3584
3190.607	3669
3192.389	3592
3194.17	3571
3195.951	3581
3197.73	3577
3199.51	3606
3201.289	3512
3203.07	3637
3204.848	3620
3206.626	3580
3208.403	3601
3210.18	3609
3211.959	3523
3213.735	3611
3215.511	3638
3217.285	3590
3219.06	3634
3220.836	3625
3222.611	3550
3224.384	3630
3226.158	3644
3227.929	3610
3229.702	3651
3231.476	3602
3233.248	3575
3235.018	3583
3236.789	3559
3238.56	3640
3240.33	3606
3242.1	3635
3243.869	3577
3245.637	3550
3247.405	3651
3249.172	3660
3250.941	3615
3252.707	3597
3254.474	3661
3256.24	3664
3258.006	3632
3259.772	3583
3261.537	3641
3263.301	3651
3265.065	3534
3266.828	3581
3268.592	3575
3270.355	3534
3272.117	3630
3273.878	3582
3275.64	3615
3277.401	3663
3279.162	3620
3280.922	3593
3282.682	3598
3284.441	3722
3286.199	3619
3287.959	3628
3289.716	3594
3291.475	3654
3293.232	3644
3294.988	3581
3296.744	3646
3298.501	3596
3300.256	3635
3302.011	3614
3303.766	3600
3305.52	3711
3307.275	3669
3309.028	3666
3310.781	3648
3312.533	3613
3314.285	3594
3316.038	3646
3317.789	3641
3319.54	3680
3321.289	3593
3323.039	3628
3324.789	3615
3326.539	3610
3328.288	3596
3330.035	3616
3331.783	3616
3333.531	3613
3335.28	3619
3337.025	3548
3338.771	3548
3340.518	3521
3342.262	3611
3344.009	3628
3345.753	3592
3347.497	3608
3349.24	3550
3350.983	3587
3352.726	3545
3354.469	3554
3356.212	3460
3357.952	3495
3359.694	3559
3361.434	3525
3363.176	3473
3364.916	3594
3366.654	3514
3368.394	3463
3370.132	3492
3371.871	3583
3373.61	3541
3375.346	3463
3377.083	3528
3378.82	3542
3380.556	3494
3382.292	3477
3384.027	3518
3385.763	3374
3387.497	3455
3389.231	3506
3390.965	3470
3392.698	3445
3394.431	3394
3396.164	3470
3397.896	3507
3399.627	3572
3401.36	3443
3403.09	3481
3404.82	3465
3406.55	3491
3408.279	3537
3410.01	3498
3411.738	3474
3413.467	3441
3415.194	3356
3416.92	3383
3418.647	3382
3420.375	3481
3422.102	3389
3423.827	3449
3425.553	3521
3427.277	3391
3429.003	3371
3430.727	3376
3432.451	3330
3434.173	3312
3435.896	3485
3437.62	3453
3439.343	3407
3441.063	3342
3442.785	3347
3444.505	3352
3446.226	3300
3447.948	3392
3449.666	3374
3451.386	3425
3453.104	3265
3454.823	3324
3456.541	3402
3458.259	3266
3459.976	3353
3461.693	3283
3463.408	3336
3465.125	3346
3466.841	3338
3468.556	3294
3470.271	3344
3471.985	3289
3473.698	3282
3475.414	3296
3477.126	3343
3478.838	3300
3480.55	3243
3482.263	3240
3483.975	3201
3485.686	3240
3487.396	3206
3489.106	3266
3490.817	3260
3492.526	3164
3494.236	3280
3495.944	3183
3497.652	3271
3499.359	3198
3501.066	3192
3502.775	3204
3504.481	3178
3506.187	3114
3507.893	3218
3509.598	3133
3511.304	3245
3513.009	3146
3514.713	3210
3516.417	3178
3518.12	3138
3519.821	3207
3521.525	3107
3523.228	3147
3524.929	3074
3526.631	3114
3528.33	3119
3530.032	3154
3531.733	3092
3533.433	3105
3535.131	3159
3536.83	3005
3538.529	3172
3540.227	3109
3541.925	3049
3543.623	3153
3545.319	3099
3547.016	3106
3548.712	3072
3550.408	3126
3552.103	2977
3553.798	3003
3555.491	3061
3557.188	3116
3558.88	3115
3560.574	3066
3562.266	2984
3563.959	3059
3565.651	3097
3567.343	3095
3569.035	3038
3570.725	3019
3572.415	3061
3574.106	3006
3575.797	2989
3577.485	2991
3579.174	2984
3580.863	3030
3582.551	3036
3584.238	3059
3585.926	3018
3587.613	3011
3589.3	2995
3590.986	2936
3592.671	2895
3594.357	2995
3596.042	2978
3597.726	2925
3599.41	2970
3601.094	2911
3602.778	2888
3604.461	2955
3606.143	2882
3607.825	2958
3609.507	2997
3611.188	2888
3612.87	2933
3614.551	2928
3616.229	2944
3617.909	2872
3619.589	2903
3621.269	2853
3622.948	2820
3624.625	2933
3626.302	2860
3627.98	2856
3629.657	2885
3631.334	2838
3633.01	2845
3634.686	2919
3636.361	2838
3638.036	2803
3639.712	2873
3641.385	2866
3643.06	2857
3644.732	2803
3646.405	2821
3648.08	2795
3649.751	2800
3651.424	2867
3653.094	2742
3654.766	2781
3656.436	2808
3658.106	2779
3659.777	2843
3661.446	2808
3663.115	2794
3664.783	2772
3666.452	2801
3668.121	2772
3669.788	2800
3671.454	2742
3673.121	2748
3674.789	2755
3676.455	2757
3678.12	2743
3679.784	2741
3681.45	2685
3683.114	2755
3684.779	2805
3686.442	2751
3688.105	2722
3689.768	2757
3691.43	2749
3693.093	2684
3694.754	2742
3696.415	2685
3698.076	2712
3699.736	2706
3701.396	2647
3703.057	2738
3704.716	2718
3706.375	2706
3708.034	2726
3709.692	2609
3711.351	2840
3713.008	2681
3714.665	2714
3716.321	2692
3717.977	2724
3719.634	2696
3721.29	2698
3722.945	2734
3724.598	2729
3726.253	2726
3727.907	2673
3729.561	2697
3731.214	2698
3732.867	2703
3734.518	2690
3736.171	2724
3737.824	2704
3739.474	2716
3741.125	2710
3742.775	2657
3744.425	2742
3746.074	2740
3747.725	2684
3749.373	2617
3751.022	2676
3752.669	2622
3754.318	2677
3755.966	2697
3757.612	2687
3759.259	2660
3760.905	2617
3762.55	2681
3764.197	2594
3765.842	2594
3767.486	2685
3769.131	2533
3770.774	2664
3772.417	2664
3774.061	2648
3775.705	2520
3777.347	2561
3778.988	2619
3780.629	2651
3782.271	2597
3783.912	2672
3785.552	2597
3787.192	2561
3788.831	2627
3790.472	2628
3792.112	2548
3793.75	2592
3795.388	2550
3797.024	2577
3798.661	2583
3800.3	2544
3801.936	2567
3803.572	2608
3805.208	2580
3806.844	2599
3808.48	2509
3810.115	2597
3811.748	2534
3813.382	2514
3815.016	2579
3816.649	2554
3818.283	2568
3819.914	2595
3821.547	2574
3823.178	2558
3824.809	2564
3826.441	2533
3828.072	2560
3829.701	2619
3831.331	2513
3832.96	2611
3834.591	2565
3836.219	2526
3837.847	2544
3839.475	2458
3841.102	2583
3842.729	2494
3844.357	2494
3845.984	2540
3847.609	2502
3849.234	2531
3850.86	2533
3852.485	2529
3854.11	2535
3855.734	2545
3857.357	2512
3858.981	2462
3860.603	2514
3862.227	2530
3863.848	2512
3865.471	2454
3867.092	2539
3868.713	2529
3870.334	2490
3871.954	2520
3873.575	2473
3875.194	2447
3876.813	2481
3878.433	2466
3880.051	2486
3881.669	2510
3883.286	2460
3884.904	2507
3886.52	2510
3888.138	2429
3889.754	2470
3891.37	2449
3892.985	2463
3894.6	2426
3896.216	2475
3897.831	2466
3899.444	2454
3901.058	2488
3902.67	2448
3904.283	2481
3905.897	2525
3907.509	2529
3909.121	2401
3910.731	2407
3912.342	2420
3913.954	2463
3915.563	2460
3917.174	2455
3918.783	2475
3920.391	2417
3922.002	2434
3923.611	2444
3925.218	2450
3926.826	2389
3928.432	2443
3930.039	2444
3931.647	2374
3933.253	2499
3934.859	2424
3936.464	2438
3938.068	2397
3939.675	2453
3941.278	2467
3942.883	2438
3944.486	2385
3946.089	2426
3947.692	2412
3949.295	2433
3950.898	2370
3952.499	2413
3954.1	2391
3955.7	2440
3957.303	2368
3958.903	2356
3960.502	2448
3962.101	2362
3963.7	2424
3965.301	2395
3966.899	2359
3968.497	2346
3970.094	2397
3971.691	2380
3973.288	2387
3974.885	2417
3976.481	2289
3978.077	2325
3979.672	2376
3981.267	2368
3982.863	2392
3984.457	2387
3986.051	2318
3987.645	2376
3989.238	2321
3990.831	2340
3992.425	2355
3994.017	2298
3995.607	2341
3997.199	2321
3998.79	2358
4000.382	2366
4001.973	2362
4003.561	2346
4005.151	2352
4006.741	2306
4008.331	2308
4009.918	2320
4011.507	2317
4013.095	2280
4014.681	2259
4016.269	2299
4017.856	2322
4019.443	2279
4021.028	2283
4022.614	2276
4024.199	2210
4025.785	2340
4027.37	2288
4028.953	2247
4030.536	2224
4032.12	2275
4033.704	2325
4035.287	2248
4036.869	2216
4038.45	2206
4040.032	2240
4041.613	2239
4043.195	2258
4044.776	2234
4046.356	2227
4047.935	2283
4049.515	2233
4051.095	2282
4052.674	2318
4054.251	2203
4055.829	2239
4057.406	2258
4058.985	2185
4060.562	2255
4062.139	2219
4063.715	2247
4065.29	2201
4066.865	2246
4068.442	2156
4070.016	2228
4071.59	2226
4073.164	2206
4074.738	2156
4076.312	2228
4077.885	2231
4079.458	2233
4081.03	2203
4082.602	2066
4084.173	2238
4085.745	2230
4087.315	2218
4088.886	2235
4090.456	2211
4092.026	2229
4093.596	2216
4095.165	2249
4096.734	2218
4098.301	2183
4099.869	2149
4101.437	2166
4103.006	2146
4104.572	2166
4106.139	2208
4107.704	2195
4109.27	2169
4110.837	2197
4112.401	2193
4113.966	2199
4115.53	2157
4117.094	2240
4118.659	2178
4120.223	2205
4121.785	2172
4123.347	2194
4124.909	2160
4126.471	2200
4128.034	2114
4129.595	2115
4131.155	2068
4132.716	2129
4134.275	2079
4135.836	2209
4137.395	2147
4138.955	2124
4140.513	2195
4142.071	2123
4143.628	2144
4145.188	2130
4146.745	2121
4148.302	2128
4149.858	2100
4151.414	2158
4152.971	2119
4154.526	2108
4156.081	2124
4157.635	2109
4159.189	2127
4160.745	2111
4162.298	2082
4163.852	2106
4165.405	2083
4166.957	2072
4168.51	2096
4170.063	2105
4171.614	2135
4173.166	2095
4174.717	2056
4176.267	1988
4177.817	2070
4179.368	2075
4180.917	2074
4182.466	2046
4184.016	2107
4185.564	2088
4187.112	2052
4188.66	2047
4190.207	2071
4191.754	2051
4193.301	1973
4194.848	2039
4196.394	2056
4197.94	2074
4199.484	2077
4201.03	2001
4202.575	2033
4204.12	1988
4205.663	2040
4207.207	2040
4208.75	1999
4210.292	2014
4211.836	2075
4213.378	2040
4214.92	2014
4216.46	2018
4218.002	2057
4219.544	2012
4221.083	1984
4222.625	1974
4224.164	2012
4225.703	2049
4227.244	2025
4228.782	2056
4230.32	1957
4231.857	1991
4233.395	2007
4234.933	1972
4236.471	2022
4238.007	2014
4239.542	1991
4241.078	2030
4242.614	1976
4244.15	1989
4245.685	1951
4247.219	1989
4248.753	2007
4250.287	1980
4251.82	1920
4253.354	1976
4254.887	2003
4256.419	1976
4257.951	2005
4259.483	1988
4261.016	2002
4262.547	1991
4264.078	2009
4265.608	1941
4267.137	1962
4268.668	1971
4270.197	1949
4271.727	2024
4273.254	1944
4274.783	1934
4276.311	1949
4277.84	1974
4279.366	1952
4280.894	1909
4282.42	1959
4283.946	2029
4285.473	1970
4286.998	2047
4288.523	1983
4290.047	1964
4291.572	1925
4293.096	1929
4294.622	1914
4296.144	1960
4297.668	1895
4299.19	1992
4300.713	1956
4302.236	1920
4303.758	1924
4305.279	1963
4306.799	1899
4308.321	1935
4309.842	1909
4311.361	1907
4312.882	1921
4314.401	1928
