400.0961	4971
402.6185	5046
405.1424	5168
407.6635	5095
410.1838	5118
412.7035	5111
415.2225	5165
417.7388	5181
420.2585	5247
422.7754	5244
425.2917	5319
427.8072	5360
430.3221	5394
432.8363	5390
435.3498	5493
437.8626	5396
440.3727	5422
442.8841	5417
445.3969	5446
447.907	5452
450.4142	5380
452.9229	5419
455.4289	5506
457.9362	5528
460.4449	5452
462.9488	5424
465.454	5489
467.9566	5475
470.4604	5495
472.9637	5467
475.4662	5447
477.966	5532
480.4671	5550
482.9656	5517
485.4633	5465
487.9645	5543
490.4608	5566
492.9566	5549
495.4536	5550
497.948	5613
500.4437	5691
502.9387	5684
505.431	5577
507.9226	5648
510.4136	5738
512.9079	5602
515.3975	5678
517.8864	5612
520.3746	5690
522.8622	5551
525.3491	5737
527.8394	5691
530.3249	5774
532.8098	5713
535.2939	5645
537.7774	5762
540.2623	5752
542.7444	5721
545.2259	5776
547.7067	5892
550.1868	5679
552.6683	5693
555.147	5750
557.6231	5674
560.1005	5804
562.5773	5757
565.0534	5767
567.5308	5877
570.0056	5850
572.4776	5859
574.951	5956
577.4237	5911
579.8978	5822
582.3671	5901
584.8378	5915
587.3079	5913
589.7773	5933
592.244	5947
594.714	5929
597.1793	5889
599.6461	5846
602.1121	5955
604.5754	5848
607.0421	5897
609.5042	5937
611.9675	5938
614.4282	5969
616.8902	5942
619.3515	5910
621.8122	5816
624.2702	5874
626.7296	5898
629.1863	5867
631.6423	5909
634.1017	5871
636.5563	5812
639.0104	5842
641.4658	5975
643.9185	5915
646.3725	5953
648.8239	5927
651.2766	5925
653.7266	5936
656.176	5964
658.6247	5873
661.0748	5968
663.5242	6117
665.9709	6010
668.417	6084
670.8624	6044
673.3092	6060
675.7533	5988
678.1968	6222
680.6395	6089
683.0817	6042
685.5251	6036
687.9659	6092
690.4061	6156
692.8456	6202
695.2844	6258
697.7226	6163
700.1621	6110
702.599	6177
705.0332	6161
707.4688	6103
709.9036	6228
712.3399	6192
714.7735	6209
717.2044	6111
719.6367	6308
722.0683	6209
724.4993	6340
726.9296	6339
729.3593	6281
731.7883	6284
734.2147	6380
736.6423	6380
739.0714	6579
741.4958	6382
743.9216	6417
746.3447	6474
748.7691	6354
751.1929	6400
753.616	6445
756.0366	6450
758.4584	6543
760.8776	6489
763.2982	6502
765.718	6540
768.1373	6452
770.5539	6381
772.9698	6674
775.3871	6459
777.8038	6529
780.2178	6450
782.6332	6567
785.0459	6580
787.458	6481
789.8714	6547
792.2842	6607
794.6943	6606
797.1038	6500
799.5127	6611
801.9209	6692
804.3324	6618
806.7393	6573
809.1456	6568
811.5513	6607
813.9562	6725
816.3625	6648
818.7663	6577
821.1693	6776
823.5718	6655
825.9735	6673
828.3746	6697
830.7771	6678
833.177	6606
835.5762	6721
837.9747	6609
840.3727	6642
842.772	6629
845.1666	6685
847.5626	6708
849.958	6810
852.3527	6682
854.7488	6730
857.1403	6735
859.5331	6681
861.9253	6759
864.3168	6705
866.7057	6780
869.098	6712
871.4876	6626
873.8746	6729
876.263	6786
878.6487	6735
881.0378	6775
883.4243	6790
885.8081	6745
888.1933	6723
890.5759	6678
892.9598	6749
895.343	6809
897.7256	6651
900.1057	6711
902.4871	6719
904.8659	6739
907.246	6779
909.6254	6721
912.0023	6816
914.3786	6752
916.7562	6987
919.1331	6913
921.5074	6997
923.8831	7058
926.2562	7006
928.6287	7051
931.0005	6978
933.3757	7057
935.7462	6950
938.1162	7163
940.4855	7060
942.8542	7182
945.2242	7254
947.5916	7203
949.9584	7410
952.3266	7473
954.6921	7737
957.0571	7796
959.4233	8087
961.787	8110
964.15	7954
966.5125	7867
968.8742	7625
971.2354	7509
973.5959	7309
975.9559	7148
978.3151	7120
980.6738	7102
983.0338	7043
985.3912	7007
987.7461	7054
990.1022	6951
992.4578	6961
994.8127	6899
997.1689	7017
999.5207	6998
1001.874	7060
1004.226	6944
1006.576	7109
1008.929	7080
1011.28	6958
1013.628	6963
1015.977	7084
1018.324	7006
1020.674	7059
1023.019	7028
1025.366	6983
1027.713	7095
1030.056	7045
1032.399	7032
1034.746	7361
1037.087	7061
1039.431	7284
1041.771	7162
1044.113	7159
1046.454	7202
1048.793	7193
1051.133	7152
1053.471	7062
1055.807	7098
1058.146	7125
1060.483	7183
1062.818	7248
1065.153	7275
1067.489	7190
1069.822	7240
1072.156	7230
1074.488	7402
1076.82	7227
1079.15	7132
1081.48	7137
1083.814	7260
1086.143	7264
1088.471	7039
1090.799	7206
1093.126	7222
1095.452	7160
1097.78	7112
1100.105	7151
1102.43	7196
1104.754	7215
1107.077	7307
1109.4	7221
1111.722	7181
1114.044	7181
1116.365	7250
1118.685	7209
1121.005	7167
1123.324	7264
1125.643	7232
1127.961	7321
1130.278	7135
1132.595	7296
1134.911	7245
1137.226	7266
1139.541	7258
1141.854	7301
1144.167	7134
1146.482	7320
1148.793	7355
1151.105	7352
1153.414	7362
1155.725	7206
1158.033	7280
1160.344	7300
1162.651	7219
1164.959	7131
1167.265	7316
1169.572	7217
1171.878	7342
1174.184	7186
1176.488	7259
1178.79	7217
1181.094	7337
1183.396	7262
1185.699	7258
1188.001	7336
1190.301	7328
1192.6	7228
1194.9	7263
1197.2	7152
1199.497	7192
1201.794	7216
1204.09	7193
1206.387	7297
1208.684	7350
1210.978	7310
1213.272	7295
1215.565	7334
1217.858	7370
1220.15	7454
1222.443	7397
1224.734	7351
1227.024	7483
1229.313	7333
1231.602	7488
1233.892	7495
1236.18	7515
1238.467	7451
1240.754	7447
1243.04	7448
1245.325	7528
1247.612	7440
1249.896	7610
1252.178	7468
1254.461	7510
1256.743	7551
1259.027	7539
1261.308	7510
1263.587	7398
1265.867	7454
1268.146	7523
1270.425	7425
1272.703	7519
1274.981	7586
1277.256	7600
1279.532	7456
1281.808	7505
1284.083	7520
1286.358	7438
1288.63	7458
1290.904	7516
1293.175	7497
1295.449	7534
1297.719	7374
1299.99	7438
1302.259	7446
1304.529	7374
1306.798	7514
1309.065	7322
1311.333	7449
1313.599	7543
1315.866	7408
1318.131	7396
1320.396	7471
1322.66	7429
1324.925	7432
1327.187	7505
1329.448	7463
1331.711	7461
1333.974	7529
1336.234	7444
1338.493	7422
1340.752	7432
1343.01	7326
1345.269	7455
1347.526	7621
1349.784	7482
1352.04	7405
1354.295	7400
1356.552	7495
1358.806	7343
1361.059	7569
1363.312	7535
1365.564	7504
1367.818	7544
1370.069	7491
1372.318	7534
1374.568	7570
1376.817	7632
1379.066	7532
1381.316	7520
1383.564	7632
1385.809	7487
1388.056	7535
1390.301	7647
1392.549	7514
1394.793	7633
1397.036	7492
1399.279	7592
1401.522	7631
1403.763	7709
1406.007	7466
1408.248	7640
1410.487	7507
1412.727	7666
1414.965	7663
1417.205	7666
1419.442	7612
1421.68	7768
1423.915	7677
1426.152	7710
1428.388	7590
1430.623	7682
1432.857	7745
1435.091	7774
1437.323	7789
1439.556	7760
1441.789	7760
1444.019	7768
1446.25	7809
1448.48	7809
1450.708	7836
1452.938	7885
1455.167	7783
1457.394	7827
1459.62	7811
1461.846	7898
1464.073	7783
1466.299	7862
1468.523	7821
1470.746	7583
1472.969	7733
1475.191	7689
1477.415	7760
1479.636	7614
1481.858	7647
1484.078	7603
1486.298	7595
1488.518	7549
1490.736	7647
1492.954	7623
1495.169	7563
1497.386	7612
1499.602	7478
1501.819	7432
1504.034	7484
1506.248	7626
1508.462	7501
1510.675	7413
1512.888	7546
1515.1	7622
1517.311	7387
1519.522	7604
1521.732	7447
1523.942	7507
1526.151	7477
1528.36	7577
1530.566	7451
1532.773	7628
1534.98	7483
1537.187	7466
1539.392	7642
1541.596	7588
1543.801	7559
1546.005	7591
1548.208	7616
1550.411	7689
1552.612	7586
1554.814	7646
1557.013	7606
1559.212	7779
1561.414	7656
1563.612	7750
1565.811	7622
1568.007	7591
1570.203	7692
1572.403	7741
1574.598	7766
1576.792	7761
1578.988	7796
1581.181	7805
1583.376	7724
1585.568	7919
1587.761	7778
1589.952	7845
1592.143	7750
1594.333	7661
1596.524	7720
1598.715	7926
1600.903	7683
1603.091	7742
1605.278	7902
1607.466	7794
1609.652	7900
1611.838	7835
1614.023	7697
1616.207	7813
1618.391	7829
1620.576	7634
1622.759	7757
1624.941	7784
1627.123	7736
1629.304	7833
1631.484	7725
1633.664	7863
1635.844	7713
1638.022	7764
1640.201	7907
1642.38	7908
1644.556	7921
1646.732	7755
1648.908	7866
1651.084	7932
1653.257	7791
1655.433	7892
1657.607	7894
1659.779	7760
1661.951	7821
1664.122	7894
1666.295	7903
1668.467	7967
1670.635	7889
1672.805	8059
1674.973	7970
1677.142	7920
1679.31	7935
1681.478	7777
1683.644	7837
1685.81	7942
1687.975	7927
1690.142	7928
1692.305	7856
1694.468	7742
1696.632	7919
1698.794	7918
1700.957	7815
1703.119	7854
1705.279	7843
1707.439	7683
1709.598	7854
1711.758	7846
1713.917	7699
1716.075	7785
1718.231	7797
1720.388	7795
1722.543	7678
1724.702	7928
1726.856	7659
1729.01	7792
1731.164	7790
1733.317	7731
1735.471	7822
1737.623	7797
1739.774	7820
1741.925	7838
1744.075	7862
1746.225	7828
1748.376	7772
1750.524	7830
1752.672	7871
1754.82	7759
1756.965	7895
1759.113	7679
1761.259	7805
1763.405	7952
1765.549	7929
1767.694	7726
1769.836	7748
1771.981	7741
1774.123	7781
1776.264	7786
1778.405	7938
1780.546	7754
1782.687	7956
1784.827	7775
1786.966	7883
1789.103	7974
1791.242	7986
1793.381	7899
1795.517	7867
1797.653	7837
1799.788	7873
1801.923	7777
1804.057	7854
1806.193	7802
1808.326	7887
1810.457	7880
1812.59	7813
1814.721	7925
1816.855	7929
1818.984	7860
1821.113	7772
1823.244	7872
1825.372	7738
1827.499	7766
1829.63	7875
1831.756	7737
1833.882	7836
1836.007	7876
1838.132	7866
1840.26	7907
1842.384	7789
1844.507	7741
1846.63	7804
1848.752	7729
1850.875	7856
1852.996	7772
1855.118	7598
1857.238	7782
1859.358	7788
1861.477	7805
1863.597	7712
1865.715	7692
1867.832	7708
1869.948	7762
1872.064	7692
1874.181	7812
1876.297	7749
1878.411	7867
1880.526	7722
1882.639	7855
1884.752	7792
1886.865	7646
1888.977	7735
1891.089	7732
1893.2	7719
1895.308	7694
1897.42	7689
1899.53	7796
1901.639	7696
1903.745	7850
1905.853	7823
1907.962	7822
1910.067	7778
1912.174	7878
1914.278	7894
1916.383	7772
1918.486	7914
1920.592	7822
1922.694	7923
1924.797	7851
1926.898	7832
1929	7917
1931.102	7953
1933.203	7893
1935.301	7894
1937.401	7904
1939.499	7808
1941.598	7899
1943.697	7901
1945.793	7956
1947.888	7877
1949.985	7806
1952.08	7899
1954.176	7858
1956.269	7865
1958.364	8050
1960.457	7966
1962.549	7918
1964.642	7832
1966.733	7905
1968.823	7846
1970.913	7888
1973.005	7879
1975.093	7865
1977.184	7906
1979.271	7699
1981.359	7831
1983.446	7850
1985.532	7780
1987.619	7880
1989.705	7888
1991.789	7826
1993.874	7877
1995.956	7770
1998.041	7717
2000.123	7831
2002.206	7714
2004.287	7832
2006.368	7803
2008.449	7753
2010.529	7750
2012.609	7686
2014.688	7765
2016.766	7644
2018.843	7723
2020.922	7838
2022.999	7855
2025.074	7702
2027.15	7807
2029.225	7716
2031.299	7757
2033.375	7728
2035.447	7703
2037.52	7758
2039.592	7714
2041.664	7728
2043.736	7758
2045.807	7856
2047.876	7868
2049.947	7806
2052.015	7623
2054.086	7834
2056.153	7911
2058.221	7763
2060.288	7840
2062.353	7710
2064.42	7644
2066.486	7794
2068.55	7769
2070.614	7825
2072.678	7790
2074.741	7766
2076.805	7834
2078.866	7751
2080.929	7805
2082.99	7887
2085.049	7792
2087.109	7765
2089.17	7797
2091.228	7762
2093.286	7898
2095.344	7720
2097.4	7817
2099.46	7684
2101.516	7825
2103.572	7698
2105.626	7696
2107.679	7775
2109.735	7731
2111.788	7663
2113.841	7674
2115.894	7793
2117.945	7659
2119.997	7765
2122.049	7752
2124.1	7734
2126.148	7720
2128.197	7670
2130.246	7830
2132.296	7636
2134.342	7776
2136.39	7770
2138.437	7795
2140.483	7757
2142.527	7762
2144.574	7676
2146.619	7668
2148.661	7719
2150.705	7746
2152.747	7668
2154.792	7697
2156.832	7807
2158.874	7784
2160.915	7591
2162.954	7778
2164.995	7600
2167.034	7654
2169.072	7715
2171.111	7729
2173.148	7612
2175.186	7596
2177.223	7558
2179.258	7569
2181.294	7529
2183.328	7630
2185.362	7735
2187.398	7630
2189.431	7592
2191.463	7694
2193.495	7706
2195.528	7590
2197.56	7608
2199.59	7680
2201.62	7546
2203.649	7664
2205.678	7531
2207.708	7529
2209.737	7579
2211.764	7464
2213.791	7588
2215.817	7569
2217.843	7437
2219.87	7568
2221.895	7525
2223.919	7576
2225.942	7534
2227.966	7488
2229.988	7582
2232.012	7569
2234.032	7517
2236.054	7454
2238.074	7427
2240.095	7471
2242.116	7446
2244.135	7622
2246.153	7442
2248.171	7534
2250.188	7479
2252.208	7500
2254.223	7518
2256.239	7537
2258.255	7633
2260.269	7517
2262.283	7533
2264.3	7644
2266.312	7405
2268.325	7552
2270.336	7623
2272.349	7587
2274.362	7497
2276.372	7539
2278.383	7551
2280.392	7450
2282.402	7587
2284.409	7536
2286.418	7538
2288.427	7570
2290.433	7450
2292.441	7509
2294.446	7667
2296.453	7501
2298.459	7530
2300.463	7399
2302.466	7503
2304.471	7351
2306.475	7467
2308.477	7465
2310.478	7569
2312.481	7579
2314.481	7421
2316.481	7448
2318.482	7469
2320.482	7524
2322.48	7412
2324.48	7373
2326.478	7448
2328.476	7373
2330.473	7436
2332.469	7349
2334.465	7415
2336.46	7383
2338.454	7335
2340.45	7360
2342.444	7432
2344.437	7404
2346.43	7411
2348.421	7405
2350.414	7228
2352.405	7297
2354.396	7490
2356.386	7346
2358.376	7429
2360.366	7391
2362.355	7337
2364.343	7350
2366.331	7331
2368.317	7326
2370.304	7362
2372.292	7345
2374.278	7272
2376.262	7406
2378.247	7274
2380.23	7261
2382.216	7317
2384.199	7222
2386.181	7264
2388.163	7360
2390.144	7168
2392.127	7219
2394.107	7433
2396.087	7279
2398.066	7214
2400.046	7227
2402.023	7081
2404.004	7219
2405.981	7250
2407.957	7236
2409.934	7225
2411.91	7203
2413.886	7232
2415.862	7141
2417.836	7217
2419.809	7258
2421.784	7302
2423.756	7150
2425.73	7168
2427.701	7240
2429.672	7299
2431.644	7228
2433.615	7170
2435.586	7202
2437.555	7068
2439.523	7266
2441.491	7213
2443.459	7254
2445.428	7200
2447.395	7145
2449.361	7290
2451.327	7240
2453.292	7088
2455.257	7237
2457.223	7035
2459.187	7116
2461.15	7192
2463.113	7144
2465.076	7239
2467.039	7129
2468.999	7139
2470.96	7043
2472.921	7200
2474.881	7129
2476.841	7055
2478.8	7181
2480.759	7103
2482.717	7244
2484.675	7027
2486.63	7080
2488.589	6982
2490.545	7138
2492.5	7116
2494.455	7272
2496.408	6978
2498.364	7064
2500.318	7038
2502.27	7050
2504.223	7088
2506.174	7157
2508.126	7159
2510.078	7043
2512.03	7106
2513.979	7108
2515.927	6937
2517.877	7059
2519.826	6975
2521.775	7031
2523.722	7033
2525.668	7020
2527.616	7037
2529.561	7024
2531.508	6995
2533.452	7096
2535.398	7018
2537.342	6899
2539.284	7151
2541.229	7197
2543.173	6998
2545.114	6908
2547.055	6960
2548.996	7006
2550.938	6915
2552.878	7146
2554.817	6981
2556.756	6887
2558.695	7061
2560.633	7026
2562.572	6955
2564.509	6966
2566.445	7030
2568.382	7026
2570.317	7006
2572.254	6971
2574.189	6953
2576.123	6954
2578.057	6956
2579.99	7023
2581.923	6898
2583.855	6945
2585.788	7082
2587.719	6927
2589.65	6989
2591.579	6997
2593.511	6929
2595.44	6976
2597.37	6958
2599.297	6997
2601.225	7025
2603.153	6994
2605.08	6955
2607.007	6997
2608.932	6937
2610.858	6883
2612.782	6935
2614.709	6992
2616.632	6924
2618.556	6898
2620.478	6951
2622.401	7033
2624.324	7110
2626.247	6978
2628.167	6922
2630.088	7024
2632.008	6954
2633.928	6979
2635.848	7087
2637.766	6853
2639.684	6970
2641.603	6931
2643.519	6973
2645.437	7012
2647.353	6997
2649.27	6995
2651.184	6945
2653.099	6975
2655.014	7014
2656.928	6887
2658.842	6988
2660.755	7031
2662.667	6854
2664.579	6886
2666.491	7065
2668.402	7018
2670.312	6943
2672.222	6952
2674.132	7000
2676.042	6887
2677.951	7030
2679.859	6986
2681.766	6923
2683.674	6941
2685.582	6942
2687.488	6946
2689.392	6848
2691.298	6941
2693.202	6849
2695.107	6875
2697.012	6907
2698.914	6884
2700.817	6810
2702.72	6940
2704.622	6897
2706.524	6809
2708.425	6826
2710.326	6791
2712.225	6923
2714.125	6720
2716.024	6834
2717.923	6772
2719.822	6930
2721.719	6826
2723.616	6848
2725.512	6849
2727.41	6784
2729.305	6832
2731.201	6799
2733.095	6731
2734.99	6780
2736.884	6747
2738.778	6831
2740.67	6814
2742.562	6802
2744.455	6738
2746.346	6790
2748.238	6750
2750.129	6687
2752.018	6859
2753.907	6764
2755.797	6783
2757.687	6739
2759.575	6826
2761.462	6830
2763.349	6765
2765.237	6725
2767.124	6771
2769.009	6704
2770.894	6762
2772.779	6767
2774.663	6783
2776.547	6864
2778.431	6717
2780.314	6660
2782.197	6702
2784.078	6662
2785.96	6681
2787.842	6867
2789.723	6672
2791.603	6784
2793.483	6589
2795.362	6646
2797.241	6599
2799.121	6672
2800.997	6564
2802.874	6854
2804.751	6707
2806.628	6602
2808.506	6743
2810.38	6705
2812.255	6676
2814.13	6536
2816.003	6802
2817.878	6704
2819.752	6658
2821.623	6626
2823.496	6582
2825.368	6651
2827.238	6577
2829.111	6541
2830.98	6718
2832.851	6758
2834.719	6589
2836.589	6623
2838.458	6707
2840.327	6572
2842.193	6791
2844.061	6682
2845.927	6574
2847.794	6600
2849.66	6572
2851.525	6642
2853.39	6707
2855.254	6689
2857.117	6661
2858.983	6621
2860.845	6756
2862.707	6724
2864.569	6719
2866.431	6700
2868.293	6679
2870.154	6679
2872.013	6812
2873.873	6754
2875.733	6797
2877.592	6856
2879.451	6856
2881.309	6944
2883.166	6954
2885.022	6913
2886.879	6985
2888.736	6938
2890.591	6898
2892.446	6952
2894.301	7035
2896.155	6957
2898.009	6937
2899.863	6960
2901.716	6883
2903.568	6890
2905.419	6802
2907.27	6854
2909.123	6992
2910.973	7005
2912.824	6948
2914.673	6876
2916.521	6853
2918.372	6980
2920.22	7071
2922.067	7086
2923.914	7037
2925.761	7113
2927.607	7088
2929.455	7098
2931.301	7160
2933.144	7096
2934.99	7307
2936.833	7206
2938.678	7179
2940.522	7334
2942.364	7378
2944.207	7402
2946.048	7378
2947.891	7338
2949.731	7413
2951.571	7242
2953.412	7505
2955.25	7333
2957.09	7295
2958.93	7166
2960.767	7183
2962.606	7161
2964.443	7124
2966.279	7194
2968.116	7091
2969.953	7061
2971.788	6998
2973.623	7049
2975.457	6962
2977.292	7049
2979.127	6928
2980.959	6985
2982.792	6817
2984.624	6889
2986.455	6799
2988.288	6911
2990.119	6768
2991.949	6745
2993.779	6797
2995.608	6830
2997.439	6696
2999.268	6699
3001.096	6619
3002.923	6688
3004.751	6588
3006.578	6497
3008.406	6497
3010.232	6540
3012.057	6447
3013.883	6346
3015.706	6453
3017.532	6426
3019.356	6487
3021.179	6362
3023.002	6301
3024.823	6341
3026.646	6296
3028.469	6275
3030.289	6300
3032.11	6253
3033.93	6273
3035.749	6184
3037.57	6298
3039.39	6109
3041.207	6108
3043.026	6264
3044.842	6259
3046.661	6277
3048.477	6201
3050.294	6222
3052.109	6116
3053.925	6254
3055.739	6104
3057.555	6259
3059.368	6079
3061.181	6169
3062.995	6047
3064.807	6198
3066.62	6057
3068.433	6084
3070.243	6052
3072.054	6086
3073.865	6232
3075.675	6130
3077.485	5982
3079.293	6038
3081.102	6160
3082.911	5981
3084.719	6106
3086.527	6149
3088.333	6064
3090.139	6020
3091.945	6066
3093.75	6092
3095.557	5967
3097.361	6051
3099.165	6057
3100.969	6045
3102.772	5872
3104.575	5973
3106.379	6012
3108.181	5990
3109.982	5974
3111.783	5810
3113.584	6013
3115.386	5931
3117.186	5961
3118.985	5981
3120.783	5998
3122.582	5817
3124.381	5784
3126.179	5941
3127.975	5882
3129.772	5865
3131.569	5859
3133.365	5943
3135.161	5748
3136.956	5901
3138.751	5948
3140.544	5903
3142.338	5975
3144.132	5838
3145.925	5949
3147.717	5822
3149.509	5886
3151.301	5832
3153.091	5929
3154.884	5844
3156.673	5800
3158.462	5793
3160.252	5864
3162.041	5771
3163.831	5842
3165.618	5853
3167.405	5745
3169.193	5859
3170.979	5840
3172.767	5726
3174.553	5758
3176.338	5717
3178.123	5898
3179.907	5792
3181.692	5846
3183.477	5741
3185.259	5805
3187.042	5735
3188.824	5689
3190.607	5724
3192.389	5725
3194.17	5685
3195.951	5642
3197.73	5676
3199.51	5744
3201.289	5667
3203.07	5868
3204.848	5682
3206.626	5684
3208.403	5669
3210.18	5650
3211.959	5686
3213.735	5711
3215.511	5680
3217.285	5633
3219.06	5574
3220.836	5608
3222.611	5615
3224.384	5584
3226.158	5676
3227.929	5547
3229.702	5607
3231.476	5655
3233.248	5549
3235.018	5614
3236.789	5652
3238.56	5597
3240.33	5561
3242.1	5620
3243.869	5597
3245.637	5510
3247.405	5611
3249.172	5683
3250.941	5583
3252.707	5617
3254.474	5556
3256.24	5689
3258.006	5574
3259.772	5577
3261.537	5593
3263.301	5627
3265.065	5549
3266.828	5553
3268.592	5526
3270.355	5566
3272.117	5593
3273.878	5705
3275.64	5573
3277.401	5539
3279.162	5585
3280.922	5583
3282.682	5624
3284.441	5542
3286.199	5547
3287.959	5557
3289.716	5570
3291.475	5707
3293.232	5550
3294.988	5459
3296.744	5660
3298.501	5616
3300.256	5619
3302.011	5631
3303.766	5504
3305.52	5638
3307.275	5695
3309.028	5498
3310.781	5593
3312.533	5545
3314.285	5609
3316.038	5538
3317.789	5476
3319.54	5532
3321.289	5544
3323.039	5559
3324.789	5518
3326.539	5533
3328.288	5450
3330.035	5503
3331.783	5438
3333.531	5582
3335.28	5561
3337.025	5508
3338.771	5517
3340.518	5483
3342.262	5568
3344.009	5515
3345.753	5572
3347.497	5477
3349.24	5461
3350.983	5604
3352.726	5526
3354.469	5403
3356.212	5575
3357.952	5402
3359.694	5360
3361.434	5447
3363.176	5450
3364.916	5428
3366.654	5400
3368.394	5431
3370.132	5432
3371.871	5306
3373.61	5411
3375.346	5337
3377.083	5424
3378.82	5346
3380.556	5382
3382.292	5471
3384.027	5337
3385.763	5380
3387.497	5277
3389.231	5374
3390.965	5439
3392.698	5310
3394.431	5275
3396.164	5414
3397.896	5257
3399.627	5310
3401.36	5318
3403.09	5285
3404.82	5267
3406.55	5304
3408.279	5299
3410.01	5322
3411.738	5352
3413.467	5328
3415.194	5248
3416.92	5169
3418.647	5271
3420.375	5286
3422.102	5268
3423.827	5313
3425.553	5270
3427.277	5247
3429.003	5295
3430.727	5210
3432.451	5219
3434.173	5171
3435.896	5208
3437.62	5190
3439.343	5196
3441.063	5304
3442.785	5138
3444.505	5128
3446.226	5187
3447.948	5241
3449.666	5110
3451.386	5115
3453.104	5128
3454.823	5191
3456.541	5129
3458.259	5153
3459.976	5116
3461.693	5107
3463.408	5064
3465.125	5150
3466.841	5103
3468.556	5075
3470.271	5171
3471.985	5145
3473.698	5058
3475.414	5112
3477.126	5045
3478.838	5045
3480.55	5037
3482.263	4973
3483.975	5004
3485.686	5016
3487.396	5033
3489.106	5010
3490.817	4987
3492.526	4992
3494.236	4929
3495.944	4989
3497.652	5040
3499.359	4977
3501.066	4913
3502.775	5000
3504.481	4953
3506.187	5035
3507.893	4975
3509.598	4971
3511.304	4926
3513.009	4896
3514.713	4868
3516.417	5012
3518.12	4923
3519.821	4963
3521.525	4889
3523.228	4927
3524.929	5081
3526.631	4832
3528.33	4874
3530.032	4897
3531.733	4827
3533.433	4887
3535.131	4883
3536.83	4865
3538.529	4931
3540.227	4932
3541.925	4987
3543.623	4787
3545.319	4925
3547.016	4820
3548.712	4871
3550.408	4813
3552.103	4801
3553.798	4830
3555.491	4834
3557.188	4777
3558.88	4892
3560.574	4820
3562.266	4908
3563.959	4742
3565.651	4753
3567.343	4732
3569.035	4861
3570.725	4707
3572.415	4811
3574.106	4721
3575.797	4828
3577.485	4701
3579.174	4712
3580.863	4760
3582.551	4739
3584.238	4715
3585.926	4730
3587.613	4755
3589.3	4690
3590.986	4707
3592.671	4664
3594.357	4685
3596.042	4757
3597.726	4609
3599.41	4738
3601.094	4574
3602.778	4782
3604.461	4625
3606.143	4710
3607.825	4630
3609.507	4630
3611.188	4677
3612.87	4742
3614.551	4652
3616.229	4604
3617.909	4639
3619.589	4580
3621.269	4705
3622.948	4439
3624.625	4618
3626.302	4529
3627.98	4523
3629.657	4620
3631.334	4489
3633.01	4557
3634.686	4626
3636.361	4451
3638.036	4524
3639.712	4533
3641.385	4540
3643.06	4512
3644.732	4521
3646.405	4427
3648.08	4530
3649.751	4462
3651.424	4365
3653.094	4473
3654.766	4498
3656.436	4487
3658.106	4498
3659.777	4472
3661.446	4460
3663.115	4515
3664.783	4440
3666.452	4452
3668.121	4456
3669.788	4469
3671.454	4493
3673.121	4427
3674.789	4482
3676.455	4346
3678.12	4416
3679.784	4399
3681.45	4453
3683.114	4294
3684.779	4406
3686.442	4358
3688.105	4359
3689.768	4362
3691.43	4512
3693.093	4355
3694.754	4399
3696.415	4354
3698.076	4393
3699.736	4489
3701.396	4307
3703.057	4380
3704.716	4313
3706.375	4446
3708.034	4307
3709.692	4376
3711.351	4359
3713.008	4376
3714.665	4346
3716.321	4235
3717.977	4304
3719.634	4340
3721.29	4452
3722.945	4247
3724.598	4288
3726.253	4207
3727.907	4351
3729.561	4274
3731.214	4395
3732.867	4299
3734.518	4359
3736.171	4269
3737.824	4315
3739.474	4269
3741.125	4264
3742.775	4224
3744.425	4362
3746.074	4275
3747.725	4191
3749.373	4273
3751.022	4295
3752.669	4255
3754.318	4257
3755.966	4237
3757.612	4209
3759.259	4200
3760.905	4261
3762.55	4332
3764.197	4208
3765.842	4229
3767.486	4252
3769.131	4258
3770.774	4147
3772.417	4224
3774.061	4343
3775.705	4160
3777.347	4248
3778.988	4113
3780.629	4162
3782.271	4204
3783.912	4149
3785.552	4107
3787.192	4151
3788.831	4194
3790.472	4214
3792.112	4164
3793.75	4143
3795.388	4208
3797.024	4138
3798.661	4157
3800.3	4082
3801.936	4216
3803.572	4175
3805.208	4049
3806.844	4067
3808.48	4050
3810.115	3989
3811.748	4066
3813.382	4205
3815.016	4061
3816.649	4056
3818.283	4084
3819.914	4141
3821.547	4063
3823.178	4089
3824.809	4043
3826.441	4023
3828.072	4121
3829.701	4015
3831.331	4111
3832.96	3967
3834.591	4084
3836.219	3996
3837.847	4111
3839.475	3978
3841.102	4061
3842.729	3971
3844.357	3937
3845.984	4020
3847.609	4021
3849.234	4063
3850.86	3994
3852.485	3955
3854.11	3965
3855.734	4074
3857.357	3982
3858.981	3992
3860.603	3953
3862.227	4015
3863.848	3916
3865.471	3906
3867.092	3931
3868.713	3891
3870.334	4023
3871.954	3895
3873.575	3875
3875.194	3917
3876.813	3942
3878.433	3884
3880.051	3977
3881.669	3856
3883.286	4013
3884.904	3977
3886.52	3872
3888.138	3884
3889.754	3862
3891.37	3883
3892.985	3956
3894.6	3892
3896.216	3886
3897.831	3895
3899.444	3879
3901.058	3925
3902.67	3924
3904.283	3836
3905.897	3935
3907.509	3898
3909.121	3888
3910.731	3904
3912.342	3929
3913.954	3871
3915.563	3856
3917.174	3857
3918.783	3854
3920.391	3881
3922.002	3885
3923.611	3849
3925.218	3846
3926.826	3749
3928.432	3830
3930.039	3832
3931.647	3866
3933.253	3846
3934.859	3814
3936.464	3880
3938.068	3861
3939.675	3854
3941.278	3872
3942.883	3807
3944.486	3792
3946.089	3764
3947.692	3776
3949.295	3721
3950.898	3805
3952.499	3803
3954.1	3826
3955.7	3834
3957.303	3792
3958.903	3741
3960.502	3851
3962.101	3688
3963.7	3809
3965.301	3816
3966.899	3710
3968.497	3819
3970.094	3731
3971.691	3746
3973.288	3701
3974.885	3762
3976.481	3706
3978.077	3754
3979.672	3678
3981.267	3693
3982.863	3625
3984.457	3619
3986.051	3658
3987.645	3625
3989.238	3658
3990.831	3698
3992.425	3595
3994.017	3649
3995.607	3687
3997.199	3683
3998.79	3644
4000.382	3651
4001.973	3687
4003.561	3713
4005.151	3656
4006.741	3656
4008.331	3635
4009.918	3618
4011.507	3584
4013.095	3605
4014.681	3464
4016.269	3603
4017.856	3614
4019.443	3536
4021.028	3667
4022.614	3582
4024.199	3635
4025.785	3521
4027.37	3574
4028.953	3531
4030.536	3575
4032.12	3535
4033.704	3601
4035.287	3537
4036.869	3539
4038.45	3571
4040.032	3549
4041.613	3548
4043.195	3516
4044.776	3535
4046.356	3545
4047.935	3515
4049.515	3536
4051.095	3449
4052.674	3513
4054.251	3525
4055.829	3463
4057.406	3576
4058.985	3466
4060.562	3488
4062.139	3513
4063.715	3428
4065.29	3495
4066.865	3502
4068.442	3394
4070.016	3458
4071.59	3591
4073.164	3358
4074.738	3487
4076.312	3460
4077.885	3388
4079.458	3545
4081.03	3413
4082.602	3403
4084.173	3384
4085.745	3355
4087.315	3422
4088.886	3365
4090.456	3461
4092.026	3390
4093.596	3373
4095.165	3444
4096.734	3495
4098.301	3350
4099.869	3401
4101.437	3392
4103.006	3387
4104.572	3355
4106.139	3417
4107.704	3390
4109.27	3341
4110.837	3445
4112.401	3351
4113.966	3327
4115.53	3404
4117.094	3334
4118.659	3293
4120.223	3327
4121.785	3344
4123.347	3340
4124.909	3440
4126.471	3379
4128.034	3396
4129.595	3305
4131.155	3355
4132.716	3363
4134.275	3193
4135.836	3356
4137.395	3257
4138.955	3317
4140.513	3257
4142.071	3337
4143.628	3268
4145.188	3202
4146.745	3250
4148.302	3265
4149.858	3307
4151.414	3255
4152.971	3282
4154.526	3195
4156.081	3251
4157.635	3242
4159.189	3188
4160.745	3177
4162.298	3196
4163.852	3157
4165.405	3200
4166.957	3208
4168.51	3258
4170.063	3245
4171.614	3140
4173.166	3149
4174.717	3175
4176.267	3220
4177.817	3191
4179.368	3178
4180.917	3185
4182.466	3149
4184.016	3158
4185.564	3205
4187.112	3122
4188.66	3146
4190.207	3168
4191.754	3162
4193.301	3162
4194.848	3247
4196.394	3218
4197.94	3180
4199.484	3142
4201.03	3101
4202.575	3170
4204.12	3139
4205.663	3128
4207.207	3077
4208.75	3020
4210.292	3112
4211.836	3162
4213.378	3118
4214.92	3132
4216.46	3054
4218.002	3156
4219.544	3135
4221.083	3038
4222.625	3143
4224.164	3063
4225.703	3135
4227.244	3047
4228.782	3110
4230.32	3076
4231.857	3099
4233.395	3076
4234.933	3055
4236.471	3110
4238.007	3118
4239.542	2963
4241.078	3072
4242.614	3001
4244.15	3028
4245.685	3053
4247.219	2970
4248.753	3071
4250.287	3002
4251.82	2977
4253.354	2988
4254.887	3058
4256.419	3046
4257.951	3145
4259.483	2992
4261.016	3046
4262.547	3003
4264.078	2964
4265.608	3034
4267.137	3022
4268.668	3022
4270.197	3020
4271.727	3020
4273.254	2929
4274.783	3016
4276.311	2991
4277.84	2980
4279.366	2988
4280.894	3033
4282.42	3027
4283.946	2953
4285.473	2993
4286.998	2962
4288.523	2901
4290.047	3002
4291.572	2954
4293.096	2923
4294.622	2980
4296.144	2985
4297.668	2817
4299.19	2933
4300.713	2971
4302.236	2908
4303.758	2907
4305.279	2959
4306.799	2976
4308.321	2904
4309.842	2923
4311.361	2969
4312.882	2883
4314.401	2939
