400.0961	2936
402.6185	2895
405.1424	3031
407.6635	3046
410.1838	3035
412.7035	2990
415.2225	3088
417.7388	2979
420.2585	3105
422.7754	3115
425.2917	3133
427.8072	3176
430.3221	3129
432.8363	3224
435.3498	3193
437.8626	3176
440.3727	3249
442.8841	3226
445.3969	3196
447.907	3254
450.4142	3242
452.9229	3130
455.4289	3168
457.9362	3188
460.4449	3178
462.9488	3083
465.454	3097
467.9566	3227
470.4604	3085
472.9637	3161
475.4662	3163
477.966	3220
480.4671	3172
482.9656	3132
485.4633	3200
487.9645	3194
490.4608	3184
492.9566	3157
495.4536	3204
497.948	3306
500.4437	3249
502.9387	3216
505.431	3238
507.9226	3185
510.4136	3262
512.9079	3125
515.3975	3194
517.8864	3277
520.3746	3153
522.8622	3189
525.3491	3297
527.8394	3212
530.3249	3230
532.8098	3271
535.2939	3207
537.7774	3353
540.2623	3278
542.7444	3247
545.2259	3356
547.7067	3263
550.1868	3336
552.6683	3249
555.147	3322
557.6231	3218
560.1005	3311
562.5773	3288
565.0534	3304
567.5308	3293
570.0056	3333
572.4776	3391
574.951	3342
577.4237	3384
579.8978	3363
582.3671	3413
584.8378	3490
587.3079	3362
589.7773	3355
592.244	3359
594.714	3392
597.1793	3371
599.6461	3344
602.1121	3343
604.5754	3370
607.0421	3471
609.5042	3333
611.9675	3403
614.4282	3330
616.8902	3297
619.3515	3358
621.8122	3336
624.2702	3384
626.7296	3382
629.1863	3328
631.6423	3306
634.1017	3375
636.5563	3363
639.0104	3343
641.4658	3304
643.9185	3433
646.3725	3387
648.8239	3387
651.2766	3402
653.7266	3375
656.176	3369
658.6247	3445
661.0748	3430
663.5242	3458
665.9709	3313
668.417	3514
670.8624	3393
673.3092	3372
675.7533	3387
678.1968	3453
680.6395	3489
683.0817	3455
685.5251	3476
687.9659	3360
690.4061	3436
692.8456	3355
695.2844	3459
697.7226	3388
700.1621	3503
702.599	3456
705.0332	3530
707.4688	3545
709.9036	3523
712.3399	3548
714.7735	3490
717.2044	3500
719.6367	3552
722.0683	3487
724.4993	3487
726.9296	3565
729.3593	3549
731.7883	3520
734.2147	3680
736.6423	3520
739.0714	3585
741.4958	3498
743.9216	3697
746.3447	3641
748.7691	3660
751.1929	3625
753.616	3660
756.0366	3683
758.4584	3682
760.8776	3666
763.2982	3625
765.718	3715
768.1373	3708
770.5539	3630
772.9698	3727
775.3871	3802
777.8038	3610
780.2178	3765
782.6332	3685
785.0459	3625
787.458	3674
789.8714	3725
792.2842	3645
794.6943	3623
797.1038	3757
799.5127	3706
801.9209	3714
804.3324	3739
806.7393	3749
809.1456	3718
811.5513	3754
813.9562	3718
816.3625	3819
818.7663	3789
821.1693	3842
823.5718	3852
825.9735	3830
828.3746	3803
830.7771	3676
833.177	3660
835.5762	3677
837.9747	3779
840.3727	3711
842.772	3807
845.1666	3809
847.5626	3840
849.958	3830
852.3527	3840
854.7488	3848
857.1403	3863
859.5331	3834
861.9253	3874
864.3168	3884
866.7057	3837
869.098	3868
871.4876	3799
873.8746	3824
876.263	3799
878.6487	3793
881.0378	3799
883.4243	3753
885.8081	3755
888.1933	3820
890.5759	3793
892.9598	3863
895.343	3830
897.7256	3861
900.1057	3779
902.4871	3814
904.8659	3825
907.246	3817
909.6254	3959
912.0023	3951
914.3786	3967
916.7562	4059
919.1331	4056
921.5074	4091
923.8831	4096
926.2562	4130
928.6287	4148
931.0005	4146
933.3757	4127
935.7462	4124
938.1162	4125
940.4855	4097
942.8542	4206
945.2242	4176
947.5916	4209
949.9584	4329
952.3266	4434
954.6921	4638
957.0571	4682
959.4233	4958
961.787	5000
964.15	4972
966.5125	4875
968.8742	4647
971.2354	4462
973.5959	4377
975.9559	4212
978.3151	4146
980.6738	4043
983.0338	4061
985.3912	4079
987.7461	3976
990.1022	3930
992.4578	3980
994.8127	4037
997.1689	3910
999.5207	3899
1001.874	4064
1004.226	4067
1006.576	4029
1008.929	4045
1011.28	3998
1013.628	3981
1015.977	4008
1018.324	3968
1020.674	3941
1023.019	4062
1025.366	4031
1027.713	3984
1030.056	4139
1032.399	4059
1034.746	4018
1037.087	4032
1039.431	4091
1041.771	4028
1044.113	4080
1046.454	4140
1048.793	4043
1051.133	4071
1053.471	4092
1055.807	4066
1058.146	4084
1060.483	4114
1062.818	4122
1065.153	4043
1067.489	4057
1069.822	4144
1072.156	4126
1074.488	4156
1076.82	4087
1079.15	4177
1081.48	4179
1083.814	4106
1086.143	4069
1088.471	4147
1090.799	4075
1093.126	4019
1095.452	4049
1097.78	4106
1100.105	4057
1102.43	4148
1104.754	3971
1107.077	4071
1109.4	4040
1111.722	4098
1114.044	4050
1116.365	4046
1118.685	4020
1121.005	4132
1123.324	4099
1125.643	4144
1127.961	4207
1130.278	4086
1132.595	4061
1134.911	4014
1137.226	4149
1139.541	4056
1141.854	4087
1144.167	4069
1146.482	4017
1148.793	4074
1151.105	4123
1153.414	4121
1155.725	4134
1158.033	4075
1160.344	4042
1162.651	4104
1164.959	4108
1167.265	4125
1169.572	4068
1171.878	4043
1174.184	4186
1176.488	4147
1178.79	4093
1181.094	4116
1183.396	4121
1185.699	4089
1188.001	4091
1190.301	4120
1192.6	4109
1194.9	4164
1197.2	4148
1199.497	4078
1201.794	4100
1204.09	4021
1206.387	4126
1208.684	4148
1210.978	4091
1213.272	4132
1215.565	4123
1217.858	4107
1220.15	4141
1222.443	4143
1224.734	4131
1227.024	4203
1229.313	4215
1231.602	4209
1233.892	4156
1236.18	4228
1238.467	4283
1240.754	4170
1243.04	4348
1245.325	4379
1247.612	4350
1249.896	4318
1252.178	4329
1254.461	4269
1256.743	4305
1259.027	4330
1261.308	4259
1263.587	4295
1265.867	4275
1268.146	4319
1270.425	4316
1272.703	4335
1274.981	4279
1277.256	4384
1279.532	4351
1281.808	4398
1284.083	4318
1286.358	4298
1288.63	4228
1290.904	4261
1293.175	4250
1295.449	4242
1297.719	4284
1299.99	4176
1302.259	4245
1304.529	4283
1306.798	4238
1309.065	4266
1311.333	4198
1313.599	4305
1315.866	4296
1318.131	4286
1320.396	4265
1322.66	4151
1324.925	4196
1327.187	4283
1329.448	4269
1331.711	4351
1333.974	4270
1336.234	4261
1338.493	4306
1340.752	4180
1343.01	4255
1345.269	4193
1347.526	4232
1349.784	4232
1352.04	4207
1354.295	4278
1356.552	4313
1358.806	4260
1361.059	4250
1363.312	4252
1365.564	4240
1367.818	4228
1370.069	4246
1372.318	4246
1374.568	4249
1376.817	4300
1379.066	4209
1381.316	4319
1383.564	4270
1385.809	4373
1388.056	4292
1390.301	4404
1392.549	4405
1394.793	4261
1397.036	4443
1399.279	4477
1401.522	4482
1403.763	4482
1406.007	4508
1408.248	4392
1410.487	4473
1412.727	4426
1414.965	4433
1417.205	4399
1419.442	4543
1421.68	4417
1423.915	4392
1426.152	4491
1428.388	4480
1430.623	4453
1432.857	4478
1435.091	4438
1437.323	4468
1439.556	4418
1441.789	4600
1444.019	4540
1446.25	4572
1448.48	4478
1450.708	4488
1452.938	4566
1455.167	4573
1457.394	4574
1459.62	4564
1461.846	4573
1464.073	4490
1466.299	4500
1468.523	4434
1470.746	4428
1472.969	4482
1475.191	4399
1477.415	4384
1479.636	4349
1481.858	4412
1484.078	4198
1486.298	4298
1488.518	4325
1490.736	4255
1492.954	4204
1495.169	4228
1497.386	4260
1499.602	4232
1501.819	4181
1504.034	4329
1506.248	4237
1508.462	4279
1510.675	4198
1512.888	4270
1515.1	4216
1517.311	4317
1519.522	4261
1521.732	4292
1523.942	4193
1526.151	4208
1528.36	4223
1530.566	4175
1532.773	4260
1534.98	4256
1537.187	4201
1539.392	4263
1541.596	4291
1543.801	4291
1546.005	4240
1548.208	4238
1550.411	4253
1552.612	4345
1554.814	4235
1557.013	4333
1559.212	4265
1561.414	4299
1563.612	4368
1565.811	4290
1568.007	4275
1570.203	4354
1572.403	4298
1574.598	4385
1576.792	4405
1578.988	4276
1581.181	4413
1583.376	4270
1585.568	4448
1587.761	4295
1589.952	4398
1592.143	4383
1594.333	4401
1596.524	4453
1598.715	4429
1600.903	4315
1603.091	4364
1605.278	4402
1607.466	4344
1609.652	4422
1611.838	4453
1614.023	4423
1616.207	4367
1618.391	4453
1620.576	4395
1622.759	4418
1624.941	4427
1627.123	4486
1629.304	4409
1631.484	4486
1633.664	4445
1635.844	4519
1638.022	4526
1640.201	4448
1642.38	4429
1644.556	4466
1646.732	4392
1648.908	4495
1651.084	4478
1653.257	4377
1655.433	4559
1657.607	4487
1659.779	4443
1661.951	4485
1664.122	4582
1666.295	4511
1668.467	4616
1670.635	4607
1672.805	4623
1674.973	4460
1677.142	4529
1679.31	4520
1681.478	4525
1683.644	4361
1685.81	4517
1687.975	4462
1690.142	4519
1692.305	4511
1694.468	4569
1696.632	4418
1698.794	4400
1700.957	4397
1703.119	4317
1705.279	4264
1707.439	4379
1709.598	4456
1711.758	4373
1713.917	4379
1716.075	4321
1718.231	4387
1720.388	4341
1722.543	4357
1724.702	4375
1726.856	4406
1729.01	4407
1731.164	4416
1733.317	4413
1735.471	4416
1737.623	4370
1739.774	4339
1741.925	4375
1744.075	4331
1746.225	4405
1748.376	4378
1750.524	4359
1752.672	4384
1754.82	4428
1756.965	4385
1759.113	4364
1761.259	4474
1763.405	4396
1765.549	4419
1767.694	4309
1769.836	4391
1771.981	4420
1774.123	4427
1776.264	4349
1778.405	4399
1780.546	4454
1782.687	4362
1784.827	4368
1786.966	4330
1789.103	4469
1791.242	4444
1793.381	4437
1795.517	4443
1797.653	4425
1799.788	4333
1801.923	4450
1804.057	4363
1806.193	4411
1808.326	4482
1810.457	4428
1812.59	4376
1814.721	4482
1816.855	4450
1818.984	4447
1821.113	4481
1823.244	4412
1825.372	4405
1827.499	4397
1829.63	4407
1831.756	4479
1833.882	4401
1836.007	4280
1838.132	4380
1840.26	4435
1842.384	4343
1844.507	4452
1846.63	4436
1848.752	4352
1850.875	4396
1852.996	4311
1855.118	4397
1857.238	4305
1859.358	4437
1861.477	4439
1863.597	4379
1865.715	4430
1867.832	4355
1869.948	4359
1872.064	4358
1874.181	4336
1876.297	4395
1878.411	4431
1880.526	4361
1882.639	4413
1884.752	4381
1886.865	4409
1888.977	4256
1891.089	4458
1893.2	4403
1895.308	4428
1897.42	4361
1899.53	4358
1901.639	4401
1903.745	4381
1905.853	4450
1907.962	4395
1910.067	4239
1912.174	4378
1914.278	4573
1916.383	4407
1918.486	4424
1920.592	4478
1922.694	4393
1924.797	4482
1926.898	4400
1929	4486
1931.102	4508
1933.203	4439
1935.301	4438
1937.401	4400
1939.499	4465
1941.598	4438
1943.697	4403
1945.793	4446
1947.888	4535
1949.985	4387
1952.08	4464
1954.176	4451
1956.269	4490
1958.364	4527
1960.457	4371
1962.549	4412
1964.642	4441
1966.733	4445
1968.823	4407
1970.913	4489
1973.005	4378
1975.093	4451
1977.184	4470
1979.271	4273
1981.359	4427
1983.446	4400
1985.532	4507
1987.619	4433
1989.705	4404
1991.789	4403
1993.874	4366
1995.956	4416
1998.041	4476
2000.123	4426
2002.206	4410
2004.287	4385
2006.368	4394
2008.449	4432
2010.529	4418
2012.609	4408
2014.688	4399
2016.766	4402
2018.843	4433
2020.922	4445
2022.999	4442
2025.074	4405
2027.15	4447
2029.225	4377
2031.299	4469
2033.375	4396
2035.447	4330
2037.52	4327
2039.592	4441
2041.664	4427
2043.736	4433
2045.807	4435
2047.876	4444
2049.947	4392
2052.015	4495
2054.086	4373
2056.153	4442
2058.221	4418
2060.288	4437
2062.353	4380
2064.42	4468
2066.486	4404
2068.55	4356
2070.614	4450
2072.678	4435
2074.741	4352
2076.805	4475
2078.866	4385
2080.929	4381
2082.99	4436
2085.049	4425
2087.109	4392
2089.17	4397
2091.228	4407
2093.286	4361
2095.344	4386
2097.4	4442
2099.46	4410
2101.516	4360
2103.572	4393
2105.626	4422
2107.679	4447
2109.735	4421
2111.788	4357
2113.841	4381
2115.894	4423
2117.945	4408
2119.997	4485
2122.049	4415
2124.1	4349
2126.148	4385
2128.197	4405
2130.246	4426
2132.296	4374
2134.342	4313
2136.39	4435
2138.437	4356
2140.483	4448
2142.527	4395
2144.574	4440
2146.619	4494
2148.661	4363
2150.705	4383
2152.747	4410
2154.792	4394
2156.832	4446
2158.874	4393
2160.915	4355
2162.954	4374
2164.995	4416
2167.034	4463
2169.072	4329
2171.111	4367
2173.148	4368
2175.186	4342
2177.223	4266
2179.258	4298
2181.294	4418
2183.328	4326
2185.362	4317
2187.398	4423
2189.431	4376
2191.463	4339
2193.495	4298
2195.528	4364
2197.56	4323
2199.59	4326
2201.62	4320
2203.649	4181
2205.678	4327
2207.708	4280
2209.737	4336
2211.764	4336
2213.791	4370
2215.817	4301
2217.843	4343
2219.87	4306
2221.895	4326
2223.919	4316
2225.942	4362
2227.966	4363
2229.988	4290
2232.012	4297
2234.032	4341
2236.054	4314
2238.074	4201
2240.095	4303
2242.116	4206
2244.135	4332
2246.153	4268
2248.171	4361
2250.188	4320
2252.208	4276
2254.223	4270
2256.239	4260
2258.255	4297
2260.269	4390
2262.283	4319
2264.3	4304
2266.312	4406
2268.325	4408
2270.336	4310
2272.349	4307
2274.362	4309
2276.372	4309
2278.383	4331
2280.392	4255
2282.402	4369
2284.409	4295
2286.418	4302
2288.427	4396
2290.433	4366
2292.441	4410
2294.446	4312
2296.453	4275
2298.459	4235
2300.463	4392
2302.466	4224
2304.471	4333
2306.475	4301
2308.477	4277
2310.478	4299
2312.481	4294
2314.481	4214
2316.481	4262
2318.482	4280
2320.482	4358
2322.48	4349
2324.48	4231
2326.478	4246
2328.476	4262
2330.473	4250
2332.469	4298
2334.465	4250
2336.46	4201
2338.454	4200
2340.45	4284
2342.444	4179
2344.437	4209
2346.43	4187
2348.421	4135
2350.414	4240
2352.405	4196
2354.396	4215
2356.386	4183
2358.376	4269
2360.366	4332
2362.355	4204
2364.343	4142
2366.331	4195
2368.317	4214
2370.304	4166
2372.292	4236
2374.278	4257
2376.262	4290
2378.247	4162
2380.23	4259
2382.216	4200
2384.199	4247
2386.181	4245
2388.163	4238
2390.144	4095
2392.127	4221
2394.107	4095
2396.087	4185
2398.066	4172
2400.046	4232
2402.023	4169
2404.004	4243
2405.981	4085
2407.957	4265
2409.934	4153
2411.91	4112
2413.886	4115
2415.862	4175
2417.836	4116
2419.809	4140
2421.784	4173
2423.756	4196
2425.73	4167
2427.701	4161
2429.672	4205
2431.644	4107
2433.615	4107
2435.586	4032
2437.555	4153
2439.523	4174
2441.491	4039
2443.459	4153
2445.428	4151
2447.395	4136
2449.361	4142
2451.327	4122
2453.292	4219
2455.257	4119
2457.223	4153
2459.187	4109
2461.15	4131
2463.113	4106
2465.076	4160
2467.039	4149
2468.999	4135
2470.96	4082
2472.921	4115
2474.881	4142
2476.841	4112
2478.8	4126
2480.759	4108
2482.717	4086
2484.675	4178
2486.63	4079
2488.589	4088
2490.545	4058
2492.5	4118
2494.455	4041
2496.408	4209
2498.364	4107
2500.318	4055
2502.27	4155
2504.223	4141
2506.174	4012
2508.126	4118
2510.078	4050
2512.03	4027
2513.979	4105
2515.927	4064
2517.877	4144
2519.826	4112
2521.775	4087
2523.722	4149
2525.668	4096
2527.616	4071
2529.561	4037
2531.508	4109
2533.452	4069
2535.398	4114
2537.342	4086
2539.284	4132
2541.229	4086
2543.173	4118
2545.114	4150
2547.055	3977
2548.996	4092
2550.938	4011
2552.878	4013
2554.817	4086
2556.756	4175
2558.695	4054
2560.633	4076
2562.572	4067
2564.509	4120
2566.445	4118
2568.382	4109
2570.317	3997
2572.254	4004
2574.189	4165
2576.123	4100
2578.057	4046
2579.99	4041
2581.923	3956
2583.855	4080
2585.788	4093
2587.719	4057
2589.65	4158
2591.579	4090
2593.511	4132
2595.44	4052
2597.37	4064
2599.297	4224
2601.225	4102
2603.153	4115
2605.08	4048
2607.007	4076
2608.932	4100
2610.858	4079
2612.782	4068
2614.709	4211
2616.632	4033
2618.556	4030
2620.478	4011
2622.401	4070
2624.324	4107
2626.247	4097
2628.167	4021
2630.088	4120
2632.008	4149
2633.928	4011
2635.848	4117
2637.766	4112
2639.684	4198
2641.603	4129
2643.519	4055
2645.437	4114
2647.353	4079
2649.27	4136
2651.184	4096
2653.099	4115
2655.014	4013
2656.928	4087
2658.842	4026
2660.755	4068
2662.667	4065
2664.579	4090
2666.491	4134
2668.402	4025
2670.312	4050
2672.222	4058
2674.132	4014
2676.042	4116
2677.951	4028
2679.859	4026
2681.766	4080
2683.674	4042
2685.582	4072
2687.488	3993
2689.392	4027
2691.298	4040
2693.202	3998
2695.107	3984
2697.012	4080
2698.914	4015
2700.817	4028
2702.72	4041
2704.622	3990
2706.524	3937
2708.425	3997
2710.326	4098
2712.225	4001
2714.125	4051
2716.024	4048
2717.923	3948
2719.822	4067
2721.719	3988
2723.616	4084
2725.512	4059
2727.41	4034
2729.305	3989
2731.201	3977
2733.095	4002
2734.99	4022
2736.884	3987
2738.778	4052
2740.67	3992
2742.562	4029
2744.455	3921
2746.346	4001
2748.238	4059
2750.129	4039
2752.018	4122
2753.907	3966
2755.797	4000
2757.687	3940
2759.575	4014
2761.462	4035
2763.349	3922
2765.237	3931
2767.124	4071
2769.009	4029
2770.894	3988
2772.779	3960
2774.663	3997
2776.547	4015
2778.431	3986
2780.314	3957
2782.197	4046
2784.078	4027
2785.96	3962
2787.842	4044
2789.723	3969
2791.603	3934
2793.483	3971
2795.362	4026
2797.241	3913
2799.121	3943
2800.997	3952
2802.874	3983
2804.751	3943
2806.628	4032
2808.506	3872
2810.38	3944
2812.255	4033
2814.13	4015
2816.003	3910
2817.878	4032
2819.752	3977
2821.623	3949
2823.496	3987
2825.368	3957
2827.238	3959
2829.111	4034
2830.98	4024
2832.851	3968
2834.719	4055
2836.589	3984
2838.458	3991
2840.327	3913
2842.193	4041
2844.061	3986
2845.927	4088
2847.794	4037
2849.66	4203
2851.525	4039
2853.39	4138
2855.254	4027
2857.117	4031
2858.983	4168
2860.845	4104
2862.707	4197
2864.569	4160
2866.431	4224
2868.293	4145
2870.154	4253
2872.013	4309
2873.873	4296
2875.733	4338
2877.592	4372
2879.451	4388
2881.309	4529
2883.166	4460
2885.022	4490
2886.879	4504
2888.736	4542
2890.591	4652
2892.446	4596
2894.301	4556
2896.155	4585
2898.009	4621
2899.863	4542
2901.716	4506
2903.568	4524
2905.419	4544
2907.27	4539
2909.123	4508
2910.973	4492
2912.824	4562
2914.673	4586
2916.521	4647
2918.372	4823
2920.22	4670
2922.067	4747
2923.914	4861
2925.761	4778
2927.607	4849
2929.455	4868
2931.301	4917
2933.144	4967
2934.99	4958
2936.833	5003
2938.678	4998
2940.522	5089
2942.364	5177
2944.207	5236
2946.048	5152
2947.891	5378
2949.731	5311
2951.571	5370
2953.412	5397
2955.25	5195
2957.09	5302
2958.93	5228
2960.767	5073
2962.606	5094
2964.443	5118
2966.279	4947
2968.116	4902
2969.953	4972
2971.788	4874
2973.623	4813
2975.457	4644
2977.292	4599
2979.127	4659
2980.959	4571
2982.792	4608
2984.624	4511
2986.455	4564
2988.288	4580
2990.119	4520
2991.949	4427
2993.779	4455
2995.608	4346
2997.439	4330
2999.268	4307
3001.096	4335
3002.923	4230
3004.751	4170
3006.578	4152
3008.406	4197
3010.232	4059
3012.057	4130
3013.883	4141
3015.706	4019
3017.532	4025
3019.356	3941
3021.179	3935
3023.002	3994
3024.823	3871
3026.646	3893
3028.469	3876
3030.289	3897
3032.11	3850
3033.93	3882
3035.749	3928
3037.57	3825
3039.39	3834
3041.207	3923
3043.026	3874
3044.842	3855
3046.661	3840
3048.477	3919
3050.294	3866
3052.109	3852
3053.925	3823
3055.739	3788
3057.555	3769
3059.368	3807
3061.181	3834
3062.995	3766
3064.807	3778
3066.62	3818
3068.433	3864
3070.243	3793
3072.054	3790
3073.865	3730
3075.675	3809
3077.485	3782
3079.293	3791
3081.102	3788
3082.911	3723
3084.719	3776
3086.527	3784
3088.333	3778
3090.139	3772
3091.945	3725
3093.75	3753
3095.557	3747
3097.361	3785
3099.165	3725
3100.969	3727
3102.772	3707
3104.575	3707
3106.379	3700
3108.181	3605
3109.982	3724
3111.783	3727
3113.584	3689
3115.386	3613
3117.186	3695
3118.985	3670
3120.783	3696
3122.582	3676
3124.381	3642
3126.179	3645
3127.975	3638
3129.772	3685
3131.569	3736
3133.365	3607
3135.161	3669
3136.956	3621
3138.751	3648
3140.544	3604
3142.338	3607
3144.132	3571
3145.925	3607
3147.717	3660
3149.509	3582
3151.301	3610
3153.091	3612
3154.884	3614
3156.673	3621
3158.462	3641
3160.252	3574
3162.041	3628
3163.831	3558
3165.618	3564
3167.405	3678
3169.193	3589
3170.979	3584
3172.767	3476
3174.553	3527
3176.338	3641
3178.123	3597
3179.907	3556
3181.692	3608
3183.477	3477
3185.259	3600
3187.042	3612
3188.824	3490
3190.607	3683
3192.389	3511
3194.17	3576
3195.951	3583
3197.73	3617
3199.51	3544
3201.289	3587
3203.07	3532
3204.848	3565
3206.626	3596
3208.403	3563
3210.18	3641
3211.959	3590
3213.735	3557
3215.511	3583
3217.285	3460
3219.06	3522
3220.836	3638
3222.611	3643
3224.384	3578
3226.158	3502
3227.929	3609
3229.702	3560
3231.476	3594
3233.248	3554
3235.018	3654
3236.789	3520
3238.56	3605
3240.33	3501
3242.1	3681
3243.869	3600
3245.637	3554
3247.405	3503
3249.172	3618
3250.941	3610
3252.707	3558
3254.474	3597
3256.24	3589
3258.006	3567
3259.772	3650
3261.537	3597
3263.301	3549
3265.065	3572
3266.828	3518
3268.592	3586
3270.355	3575
3272.117	3585
3273.878	3571
3275.64	3629
3277.401	3557
3279.162	3576
3280.922	3602
3282.682	3547
3284.441	3508
3286.199	3558
3287.959	3626
3289.716	3531
3291.475	3668
3293.232	3576
3294.988	3584
3296.744	3607
3298.501	3581
3300.256	3594
3302.011	3559
3303.766	3548
3305.52	3513
3307.275	3594
3309.028	3571
3310.781	3603
3312.533	3508
3314.285	3594
3316.038	3575
3317.789	3551
3319.54	3556
3321.289	3568
3323.039	3567
3324.789	3563
3326.539	3517
3328.288	3575
3330.035	3560
3331.783	3534
3333.531	3536
3335.28	3502
3337.025	3528
3338.771	3457
3340.518	3476
3342.262	3541
3344.009	3486
3345.753	3517
3347.497	3555
3349.24	3474
3350.983	3559
3352.726	3459
3354.469	3480
3356.212	3503
3357.952	3513
3359.694	3459
3361.434	3490
3363.176	3360
3364.916	3568
3366.654	3514
3368.394	3454
3370.132	3478
3371.871	3481
3373.61	3446
3375.346	3473
3377.083	3446
3378.82	3533
3380.556	3493
3382.292	3404
3384.027	3404
3385.763	3539
3387.497	3364
3389.231	3423
3390.965	3410
3392.698	3436
3394.431	3410
3396.164	3399
3397.896	3389
3399.627	3517
3401.36	3503
3403.09	3440
3404.82	3479
3406.55	3439
3408.279	3402
3410.01	3417
3411.738	3370
3413.467	3447
3415.194	3389
3416.92	3362
3418.647	3420
3420.375	3365
3422.102	3369
3423.827	3391
3425.553	3432
3427.277	3357
3429.003	3330
3430.727	3428
3432.451	3313
3434.173	3342
3435.896	3357
3437.62	3340
3439.343	3302
3441.063	3326
3442.785	3329
3444.505	3324
3446.226	3297
3447.948	3354
3449.666	3367
3451.386	3356
3453.104	3265
3454.823	3237
3456.541	3299
3458.259	3310
3459.976	3283
3461.693	3296
3463.408	3275
3465.125	3246
3466.841	3293
3468.556	3244
3470.271	3220
3471.985	3313
3473.698	3217
3475.414	3207
3477.126	3150
3478.838	3213
3480.55	3252
3482.263	3218
3483.975	3187
3485.686	3210
3487.396	3151
3489.106	3154
3490.817	3218
3492.526	3212
3494.236	3205
3495.944	3083
3497.652	3201
3499.359	3183
3501.066	3143
3502.775	3172
3504.481	3144
3506.187	3122
3507.893	3162
3509.598	3068
3511.304	3239
3513.009	3138
3514.713	3156
3516.417	3120
3518.12	3101
3519.821	3176
3521.525	3143
3523.228	3130
3524.929	3096
3526.631	3187
3528.33	3121
3530.032	3072
3531.733	3087
3533.433	3121
3535.131	3059
3536.83	3097
3538.529	3090
3540.227	3083
3541.925	3041
3543.623	3106
3545.319	2999
3547.016	3066
3548.712	3106
3550.408	3118
3552.103	3021
3553.798	3085
3555.491	3017
3557.188	2979
3558.88	3088
3560.574	3029
3562.266	2993
3563.959	3017
3565.651	3025
3567.343	3017
3569.035	3059
3570.725	3018
3572.415	2983
3574.106	2986
3575.797	2957
3577.485	3006
3579.174	2939
3580.863	3023
3582.551	3059
3584.238	2984
3585.926	2962
3587.613	3057
3589.3	2937
3590.986	2997
3592.671	3011
3594.357	2957
3596.042	2983
3597.726	2816
3599.41	2908
3601.094	2912
3602.778	2893
3604.461	2873
3606.143	2915
3607.825	2987
3609.507	2894
3611.188	2934
3612.87	2922
3614.551	2894
3616.229	2884
3617.909	2916
3619.589	2900
3621.269	2927
3622.948	2852
3624.625	2855
3626.302	2843
3627.98	2897
3629.657	2874
3631.334	2834
3633.01	2868
3634.686	2873
3636.361	2860
3638.036	2848
3639.712	2835
3641.385	2784
3643.06	2798
3644.732	2817
3646.405	2830
3648.08	2803
3649.751	2811
3651.424	2818
3653.094	2852
3654.766	2855
3656.436	2803
3658.106	2774
3659.777	2817
3661.446	2781
3663.115	2830
3664.783	2691
3666.452	2827
3668.121	2805
3669.788	2776
3671.454	2785
3673.121	2742
3674.789	2755
3676.455	2821
3678.12	2727
3679.784	2741
3681.45	2730
3683.114	2731
3684.779	2758
3686.442	2674
3688.105	2731
3689.768	2721
3691.43	2722
3693.093	2739
3694.754	2733
3696.415	2737
3698.076	2756
3699.736	2764
3701.396	2746
3703.057	2765
3704.716	2658
3706.375	2725
3708.034	2759
3709.692	2765
3711.351	2744
3713.008	2738
3714.665	2750
3716.321	2649
3717.977	2683
3719.634	2679
3721.29	2720
3722.945	2690
3724.598	2660
3726.253	2650
3727.907	2703
3729.561	2704
3731.214	2701
3732.867	2700
3734.518	2749
3736.171	2676
3737.824	2706
3739.474	2697
3741.125	2659
3742.775	2680
3744.425	2708
3746.074	2737
3747.725	2595
3749.373	2681
3751.022	2701
3752.669	2679
3754.318	2678
3755.966	2655
3757.612	2649
3759.259	2702
3760.905	2613
3762.55	2614
3764.197	2613
3765.842	2670
3767.486	2601
3769.131	2636
3770.774	2653
3772.417	2532
3774.061	2626
3775.705	2655
3777.347	2684
3778.988	2645
3780.629	2619
3782.271	2625
3783.912	2613
3785.552	2557
3787.192	2591
3788.831	2606
3790.472	2533
3792.112	2582
3793.75	2628
3795.388	2625
3797.024	2538
3798.661	2573
3800.3	2531
3801.936	2597
3803.572	2549
3805.208	2536
3806.844	2526
3808.48	2518
3810.115	2621
3811.748	2530
3813.382	2590
3815.016	2564
3816.649	2622
3818.283	2546
3819.914	2523
3821.547	2522
3823.178	2520
3824.809	2561
3826.441	2597
3828.072	2574
3829.701	2578
3831.331	2475
3832.96	2535
3834.591	2580
3836.219	2534
3837.847	2524
3839.475	2535
3841.102	2521
3842.729	2549
3844.357	2506
3845.984	2545
3847.609	2500
3849.234	2462
3850.86	2558
3852.485	2472
3854.11	2455
3855.734	2539
3857.357	2530
3858.981	2511
3860.603	2465
3862.227	2574
3863.848	2514
3865.471	2521
3867.092	2424
3868.713	2441
3870.334	2468
3871.954	2477
3873.575	2451
3875.194	2459
3876.813	2512
3878.433	2476
3880.051	2458
3881.669	2495
3883.286	2456
3884.904	2484
3886.52	2442
3888.138	2500
3889.754	2468
3891.37	2428
3892.985	2461
3894.6	2483
3896.216	2506
3897.831	2444
3899.444	2470
3901.058	2469
3902.67	2462
3904.283	2369
3905.897	2507
3907.509	2447
3909.121	2479
3910.731	2439
3912.342	2418
3913.954	2448
3915.563	2454
3917.174	2446
3918.783	2470
3920.391	2433
3922.002	2525
3923.611	2438
3925.218	2376
3926.826	2557
3928.432	2390
3930.039	2449
3931.647	2472
3933.253	2450
3934.859	2448
3936.464	2409
3938.068	2393
3939.675	2432
3941.278	2452
3942.883	2432
3944.486	2385
3946.089	2340
3947.692	2382
3949.295	2384
3950.898	2429
3952.499	2379
3954.1	2365
3955.7	2369
3957.303	2409
3958.903	2429
3960.502	2357
3962.101	2382
3963.7	2372
3965.301	2417
3966.899	2460
3968.497	2363
3970.094	2410
3971.691	2376
3973.288	2392
3974.885	2404
3976.481	2344
3978.077	2319
3979.672	2365
3981.267	2401
3982.863	2337
3984.457	2298
3986.051	2325
3987.645	2329
3989.238	2397
3990.831	2403
3992.425	2350
3994.017	2380
3995.607	2341
3997.199	2322
3998.79	2360
4000.382	2363
4001.973	2324
4003.561	2287
4005.151	2308
4006.741	2282
4008.331	2282
4009.918	2293
4011.507	2272
4013.095	2341
4014.681	2316
4016.269	2268
4017.856	2237
4019.443	2329
4021.028	2240
4022.614	2252
4024.199	2310
4025.785	2306
4027.37	2280
4028.953	2214
4030.536	2171
4032.12	2282
4033.704	2327
4035.287	2272
4036.869	2185
4038.45	2215
4040.032	2243
4041.613	2239
4043.195	2267
4044.776	2278
4046.356	2237
4047.935	2281
4049.515	2265
4051.095	2217
4052.674	2220
4054.251	2254
4055.829	2302
4057.406	2193
4058.985	2173
4060.562	2230
4062.139	2203
4063.715	2233
4065.29	2219
4066.865	2161
4068.442	2173
4070.016	2258
4071.59	2224
4073.164	2187
4074.738	2196
4076.312	2148
4077.885	2244
4079.458	2211
4081.03	2180
4082.602	2232
4084.173	2132
4085.745	2293
4087.315	2199
4088.886	2229
4090.456	2180
4092.026	2176
4093.596	2213
4095.165	2248
4096.734	2260
4098.301	2230
4099.869	2253
4101.437	2209
4103.006	2203
4104.572	2177
4106.139	2185
4107.704	2223
4109.27	2190
4110.837	2144
4112.401	2175
4113.966	2178
4115.53	2166
4117.094	2162
4118.659	2178
4120.223	2144
4121.785	2171
4123.347	2184
4124.909	2150
4126.471	2169
4128.034	2176
4129.595	2186
4131.155	2127
4132.716	2170
4134.275	2144
4135.836	2165
4137.395	2137
4138.955	2149
4140.513	2110
4142.071	2163
4143.628	2078
4145.188	2160
4146.745	2102
4148.302	2144
4149.858	2068
4151.414	2131
4152.971	2122
4154.526	2123
4156.081	2141
4157.635	2076
4159.189	2113
4160.745	2065
4162.298	2091
4163.852	2087
4165.405	2071
4166.957	2027
4168.51	2155
4170.063	2083
4171.614	2096
4173.166	2114
4174.717	2131
4176.267	2062
4177.817	2100
4179.368	2093
4180.917	2100
4182.466	2079
4184.016	2040
4185.564	2081
4187.112	2012
4188.66	2089
4190.207	2025
4191.754	2023
4193.301	2123
4194.848	2064
4196.394	2035
4197.94	2069
4199.484	2058
4201.03	2075
4202.575	2040
4204.12	1956
4205.663	2072
4207.207	2068
4208.75	2045
4210.292	2042
4211.836	2047
4213.378	2049
4214.92	2048
4216.46	2083
4218.002	2056
4219.544	2045
4221.083	1957
4222.625	2048
4224.164	1998
4225.703	2023
4227.244	2030
4228.782	2056
4230.32	2033
4231.857	1993
4233.395	2014
4234.933	2012
4236.471	1989
4238.007	1998
4239.542	1953
4241.078	2006
4242.614	2002
4244.15	1980
4245.685	1978
4247.219	2036
4248.753	1945
4250.287	2041
4251.82	1971
4253.354	2051
4254.887	1998
4256.419	2013
4257.951	2014
4259.483	1931
4261.016	1977
4262.547	2007
4264.078	1951
4265.608	1992
4267.137	1991
4268.668	1921
4270.197	2012
4271.727	1995
4273.254	1950
4274.783	1973
4276.311	1986
4277.84	1945
4279.366	2009
4280.894	1979
4282.42	1969
4283.946	1909
4285.473	1969
4286.998	1955
4288.523	1962
4290.047	1988
4291.572	1911
4293.096	1895
4294.622	1936
4296.144	1961
4297.668	1935
4299.19	1919
4300.713	1979
4302.236	1949
4303.758	1901
4305.279	1929
4306.799	1933
4308.321	1951
4309.842	1984
4311.361	1898
4312.882	1916
4314.401	1930
