400.0961	2863
402.6185	2925
405.1424	2876
407.6635	2873
410.1838	2848
412.7035	2869
415.2225	2847
417.7388	2947
420.2585	2970
422.7754	2998
425.2917	2939
427.8072	3078
430.3221	3063
432.8363	3085
435.3498	2991
437.8626	2993
440.3727	3131
442.8841	3052
445.3969	3001
447.907	3118
450.4142	3136
452.9229	3010
455.4289	3028
457.9362	3055
460.4449	3069
462.9488	3076
465.454	3046
467.9566	3013
470.4604	3053
472.9637	3061
475.4662	3092
477.966	3041
480.4671	3038
482.9656	3145
485.4633	3014
487.9645	3044
490.4608	3072
492.9566	3091
495.4536	3097
497.948	3129
500.4437	3140
502.9387	3108
505.431	3061
507.9226	3214
510.4136	3099
512.9079	3096
515.3975	3086
517.8864	3142
520.3746	3057
522.8622	3063
525.3491	3124
527.8394	3182
530.3249	3149
532.8098	3134
535.2939	3124
537.7774	3110
540.2623	3124
542.7444	3116
545.2259	3069
547.7067	3141
550.1868	3166
552.6683	3218
555.147	3112
557.6231	3181
560.1005	3132
562.5773	3159
565.0534	3158
567.5308	3213
570.0056	3162
572.4776	3242
574.951	3259
577.4237	3279
579.8978	3259
582.3671	3221
584.8378	3321
587.3079	3316
589.7773	3308
592.244	3272
594.714	3273
597.1793	3247
599.6461	3307
602.1121	3267
604.5754	3182
607.0421	3193
609.5042	3228
611.9675	3308
614.4282	3274
616.8902	3241
619.3515	3218
621.8122	3226
624.2702	3283
626.7296	3149
629.1863	3185
631.6423	3229
634.1017	3242
636.5563	3163
639.0104	3250
641.4658	3362
643.9185	3210
646.3725	3209
648.8239	3174
651.2766	3302
653.7266	3237
656.176	3237
658.6247	3437
661.0748	3248
663.5242	3292
665.9709	3279
668.417	3380
670.8624	3317
673.3092	3255
675.7533	3243
678.1968	3310
680.6395	3312
683.0817	3385
685.5251	3272
687.9659	3438
690.4061	3340
692.8456	3329
695.2844	3381
697.7226	3401
700.1621	3340
702.599	3361
705.0332	3360
707.4688	3308
709.9036	3371
712.3399	3437
714.7735	3362
717.2044	3371
719.6367	3446
722.0683	3426
724.4993	3423
726.9296	3468
729.3593	3401
731.7883	3434
734.2147	3482
736.6423	3480
739.0714	3525
741.4958	3470
743.9216	3523
746.3447	3537
748.7691	3571
751.1929	3511
753.616	3498
756.0366	3558
758.4584	3527
760.8776	3592
763.2982	3601
765.718	3536
768.1373	3545
770.5539	3613
772.9698	3541
775.3871	3588
777.8038	3601
780.2178	3550
782.6332	3613
785.0459	3605
787.458	3663
789.8714	3690
792.2842	3569
794.6943	3589
797.1038	3518
799.5127	3548
801.9209	3597
804.3324	3586
806.7393	3575
809.1456	3579
811.5513	3585
813.9562	3594
816.3625	3629
818.7663	3554
821.1693	3597
823.5718	3608
825.9735	3571
828.3746	3615
830.7771	3612
833.177	3654
835.5762	3582
837.9747	3673
840.3727	3712
842.772	3658
845.1666	3744
847.5626	3662
849.958	3713
852.3527	3654
854.7488	3716
857.1403	3643
859.5331	3754
861.9253	3598
864.3168	3746
866.7057	3699
869.098	3729
871.4876	3602
873.8746	3660
876.263	3668
878.6487	3703
881.0378	3736
883.4243	3715
885.8081	3686
888.1933	3817
890.5759	3657
892.9598	3685
895.343	3700
897.7256	3734
900.1057	3744
902.4871	3784
904.8659	3698
907.246	3708
909.6254	3741
912.0023	3786
914.3786	3875
916.7562	3777
919.1331	3830
921.5074	3849
923.8831	3799
926.2562	3868
928.6287	3869
931.0005	3879
933.3757	3892
935.7462	3967
938.1162	3873
940.4855	3997
942.8542	3988
945.2242	4094
947.5916	4059
949.9584	4316
952.3266	4341
954.6921	4460
957.0571	4580
959.4233	4856
961.787	4817
964.15	4801
966.5125	4863
968.8742	4475
971.2354	4277
973.5959	4239
975.9559	4164
978.3151	3934
980.6738	3893
983.0338	3932
985.3912	3744
987.7461	3783
990.1022	3862
992.4578	3799
994.8127	3870
997.1689	3885
999.5207	3838
1001.874	3819
1004.226	3920
1006.576	3864
1008.929	3808
1011.28	3877
1013.628	3843
1015.977	3804
1018.324	3859
1020.674	3848
1023.019	3870
1025.366	3884
1027.713	3834
1030.056	3967
1032.399	3956
1034.746	3861
1037.087	3920
1039.431	3917
1041.771	3954
1044.113	3904
1046.454	3970
1048.793	3967
1051.133	3901
1053.471	3946
1055.807	3903
1058.146	3929
1060.483	3944
1062.818	3959
1065.153	4017
1067.489	4030
1069.822	3957
1072.156	4151
1074.488	4022
1076.82	4025
1079.15	3944
1081.48	3952
1083.814	3934
1086.143	3942
1088.471	3965
1090.799	3863
1093.126	3920
1095.452	3950
1097.78	3975
1100.105	3911
1102.43	3962
1104.754	3926
1107.077	3966
1109.4	3973
1111.722	3891
1114.044	3921
1116.365	3912
1118.685	3945
1121.005	3964
1123.324	3991
1125.643	3994
1127.961	4019
1130.278	3950
1132.595	3889
1134.911	3926
1137.226	3885
1139.541	3956
1141.854	3981
1144.167	3898
1146.482	3988
1148.793	3950
1151.105	3911
1153.414	4006
1155.725	3925
1158.033	3911
1160.344	3918
1162.651	4000
1164.959	4024
1167.265	3994
1169.572	4048
1171.878	3889
1174.184	3978
1176.488	4054
1178.79	3951
1181.094	4003
1183.396	3917
1185.699	3951
1188.001	3998
1190.301	3952
1192.6	4015
1194.9	3966
1197.2	4017
1199.497	3953
1201.794	3930
1204.09	3983
1206.387	3982
1208.684	3942
1210.978	4076
1213.272	4032
1215.565	3945
1217.858	4025
1220.15	3976
1222.443	4029
1224.734	3955
1227.024	4046
1229.313	4027
1231.602	4025
1233.892	4130
1236.18	4121
1238.467	4145
1240.754	4185
1243.04	4091
1245.325	4147
1247.612	4081
1249.896	4109
1252.178	4127
1254.461	4104
1256.743	4065
1259.027	4125
1261.308	4062
1263.587	4135
1265.867	4146
1268.146	4099
1270.425	4156
1272.703	4090
1274.981	4113
1277.256	4059
1279.532	4167
1281.808	4053
1284.083	4139
1286.358	4145
1288.63	4137
1290.904	4101
1293.175	4101
1295.449	4134
1297.719	4079
1299.99	4204
1302.259	4120
1304.529	4064
1306.798	4094
1309.065	4093
1311.333	4051
1313.599	4081
1315.866	4072
1318.131	4080
1320.396	4079
1322.66	3988
1324.925	4063
1327.187	4086
1329.448	4124
1331.711	4079
1333.974	4137
1336.234	4147
1338.493	4021
1340.752	4098
1343.01	4184
1345.269	4115
1347.526	4007
1349.784	4071
1352.04	4029
1354.295	4046
1356.552	4060
1358.806	4045
1361.059	4015
1363.312	4035
1365.564	4116
1367.818	4125
1370.069	4082
1372.318	4066
1374.568	4059
1376.817	4099
1379.066	4161
1381.316	4151
1383.564	4152
1385.809	4120
1388.056	4140
1390.301	4182
1392.549	4153
1394.793	4117
1397.036	4205
1399.279	4134
1401.522	4225
1403.763	4209
1406.007	4205
1408.248	4202
1410.487	4124
1412.727	4183
1414.965	4193
1417.205	4251
1419.442	4165
1421.68	4186
1423.915	4251
1426.152	4221
1428.388	4316
1430.623	4270
1432.857	4192
1435.091	4228
1437.323	4194
1439.556	4240
1441.789	4292
1444.019	4319
1446.25	4222
1448.48	4261
1450.708	4239
1452.938	4323
1455.167	4304
1457.394	4311
1459.62	4295
1461.846	4313
1464.073	4325
1466.299	4295
1468.523	4332
1470.746	4215
1472.969	4228
1475.191	4137
1477.415	4156
1479.636	4239
1481.858	4137
1484.078	4200
1486.298	4147
1488.518	4218
1490.736	4095
1492.954	4127
1495.169	4105
1497.386	4255
1499.602	4105
1501.819	4013
1504.034	3995
1506.248	4081
1508.462	4132
1510.675	4110
1512.888	4023
1515.1	4111
1517.311	4106
1519.522	4023
1521.732	4103
1523.942	4044
1526.151	4058
1528.36	4061
1530.566	4120
1532.773	4142
1534.98	4131
1537.187	4236
1539.392	4112
1541.596	4092
1543.801	4108
1546.005	4133
1548.208	4092
1550.411	4143
1552.612	4167
1554.814	4186
1557.013	4114
1559.212	4198
1561.414	4244
1563.612	4195
1565.811	4142
1568.007	4230
1570.203	4136
1572.403	4133
1574.598	4247
1576.792	4166
1578.988	4274
1581.181	4241
1583.376	4140
1585.568	4237
1587.761	4257
1589.952	4230
1592.143	4249
1594.333	4146
1596.524	4216
1598.715	4300
1600.903	4225
1603.091	4197
1605.278	4258
1607.466	4302
1609.652	4255
1611.838	4245
1614.023	4244
1616.207	4196
1618.391	4260
1620.576	4186
1622.759	4271
1624.941	4235
1627.123	4274
1629.304	4202
1631.484	4351
1633.664	4266
1635.844	4318
1638.022	4354
1640.201	4279
1642.38	4242
1644.556	4326
1646.732	4280
1648.908	4219
1651.084	4353
1653.257	4278
1655.433	4329
1657.607	4295
1659.779	4301
1661.951	4328
1664.122	4343
1666.295	4333
1668.467	4367
1670.635	4384
1672.805	4396
1674.973	4330
1677.142	4423
1679.31	4376
1681.478	4334
1683.644	4345
1685.81	4374
1687.975	4269
1690.142	4380
1692.305	4332
1694.468	4272
1696.632	4360
1698.794	4191
1700.957	4268
1703.119	4278
1705.279	4293
1707.439	4353
1709.598	4229
1711.758	4182
1713.917	4245
1716.075	4189
1718.231	4241
1720.388	4212
1722.543	4301
1724.702	4313
1726.856	4326
1729.01	4254
1731.164	4196
1733.317	4256
1735.471	4208
1737.623	4177
1739.774	4311
1741.925	4112
1744.075	4238
1746.225	4236
1748.376	4179
1750.524	4248
1752.672	4248
1754.82	4200
1756.965	4281
1759.113	4245
1761.259	4261
1763.405	4176
1765.549	4362
1767.694	4204
1769.836	4272
1771.981	4247
1774.123	4248
1776.264	4175
1778.405	4265
1780.546	4300
1782.687	4236
1784.827	4299
1786.966	4432
1789.103	4269
1791.242	4297
1793.381	4163
1795.517	4295
1797.653	4223
1799.788	4282
1801.923	4291
1804.057	4240
1806.193	4348
1808.326	4317
1810.457	4224
1812.59	4263
1814.721	4272
1816.855	4231
1818.984	4334
1821.113	4256
1823.244	4285
1825.372	4283
1827.499	4247
1829.63	4347
1831.756	4210
1833.882	4232
1836.007	4208
1838.132	4252
1840.26	4265
1842.384	4259
1844.507	4225
1846.63	4293
1848.752	4327
1850.875	4283
1852.996	4245
1855.118	4286
1857.238	4206
1859.358	4227
1861.477	4174
1863.597	4225
1865.715	4268
1867.832	4262
1869.948	4285
1872.064	4233
1874.181	4215
1876.297	4217
1878.411	4194
1880.526	4248
1882.639	4229
1884.752	4307
1886.865	4331
1888.977	4315
1891.089	4260
1893.2	4360
1895.308	4239
1897.42	4218
1899.53	4199
1901.639	4311
1903.745	4236
1905.853	4287
1907.962	4284
1910.067	4322
1912.174	4213
1914.278	4242
1916.383	4317
1918.486	4317
1920.592	4326
1922.694	4328
1924.797	4338
1926.898	4196
1929	4322
1931.102	4357
1933.203	4243
1935.301	4352
1937.401	4286
1939.499	4366
1941.598	4252
1943.697	4247
1945.793	4289
1947.888	4321
1949.985	4335
1952.08	4287
1954.176	4234
1956.269	4316
1958.364	4330
1960.457	4326
1962.549	4351
1964.642	4225
1966.733	4293
1968.823	4313
1970.913	4272
1973.005	4343
1975.093	4340
1977.184	4246
1979.271	4318
1981.359	4287
1983.446	4293
1985.532	4238
1987.619	4287
1989.705	4313
1991.789	4285
1993.874	4261
1995.956	4207
1998.041	4249
2000.123	4280
2002.206	4360
2004.287	4272
2006.368	4254
2008.449	4282
2010.529	4322
2012.609	4186
2014.688	4250
2016.766	4292
2018.843	4251
2020.922	4299
2022.999	4277
2025.074	4236
2027.15	4260
2029.225	4380
2031.299	4276
2033.375	4278
2035.447	4277
2037.52	4276
2039.592	4284
2041.664	4268
2043.736	4271
2045.807	4249
2047.876	4295
2049.947	4250
2052.015	4245
2054.086	4283
2056.153	4311
2058.221	4358
2060.288	4162
2062.353	4202
2064.42	4283
2066.486	4271
2068.55	4316
2070.614	4287
2072.678	4216
2074.741	4298
2076.805	4291
2078.866	4308
2080.929	4205
2082.99	4352
2085.049	4223
2087.109	4263
2089.17	4265
2091.228	4246
2093.286	4354
2095.344	4315
2097.4	4267
2099.46	4210
2101.516	4258
2103.572	4328
2105.626	4342
2107.679	4232
2109.735	4277
2111.788	4211
2113.841	4240
2115.894	4282
2117.945	4368
2119.997	4322
2122.049	4246
2124.1	4303
2126.148	4332
2128.197	4298
2130.246	4298
2132.296	4205
2134.342	4290
2136.39	4236
2138.437	4213
2140.483	4314
2142.527	4248
2144.574	4256
2146.619	4237
2148.661	4302
2150.705	4308
2152.747	4256
2154.792	4238
2156.832	4156
2158.874	4242
2160.915	4269
2162.954	4281
2164.995	4215
2167.034	4167
2169.072	4237
2171.111	4312
2173.148	4225
2175.186	4272
2177.223	4198
2179.258	4248
2181.294	4206
2183.328	4234
2185.362	4181
2187.398	4226
2189.431	4199
2191.463	4245
2193.495	4187
2195.528	4174
2197.56	4133
2199.59	4219
2201.62	4225
2203.649	4211
2205.678	4150
2207.708	4190
2209.737	4195
2211.764	4169
2213.791	4138
2215.817	4177
2217.843	4195
2219.87	4205
2221.895	4167
2223.919	4258
2225.942	4172
2227.966	4219
2229.988	4238
2232.012	4194
2234.032	4227
2236.054	4178
2238.074	4064
2240.095	4099
2242.116	4134
2244.135	4168
2246.153	4140
2248.171	4135
2250.188	4194
2252.208	4116
2254.223	4166
2256.239	4136
2258.255	4159
2260.269	4084
2262.283	4141
2264.3	4213
2266.312	4128
2268.325	4141
2270.336	4086
2272.349	4198
2274.362	4199
2276.372	4206
2278.383	4154
2280.392	4161
2282.402	4218
2284.409	4125
2286.418	4172
2288.427	4171
2290.433	4092
2292.441	4129
2294.446	4207
2296.453	4149
2298.459	4160
2300.463	4174
2302.466	4024
2304.471	4108
2306.475	4123
2308.477	4124
2310.478	4079
2312.481	4143
2314.481	4105
2316.481	4099
2318.482	4098
2320.482	4192
2322.48	4154
2324.48	4217
2326.478	4073
2328.476	4152
2330.473	4110
2332.469	4203
2334.465	4180
2336.46	4175
2338.454	4093
2340.45	4104
2342.444	4159
2344.437	4131
2346.43	4150
2348.421	4141
2350.414	4099
2352.405	4175
2354.396	4182
2356.386	4139
2358.376	4120
2360.366	4102
2362.355	4098
2364.343	4116
2366.331	4124
2368.317	4040
2370.304	4091
2372.292	4056
2374.278	4131
2376.262	4076
2378.247	4024
2380.23	4117
2382.216	4062
2384.199	4063
2386.181	4064
2388.163	4020
2390.144	4006
2392.127	4118
2394.107	4049
2396.087	4029
2398.066	4001
2400.046	4070
2402.023	4052
2404.004	4066
2405.981	4037
2407.957	3951
2409.934	3921
2411.91	4058
2413.886	3980
2415.862	3998
2417.836	3999
2419.809	3994
2421.784	4100
2423.756	4061
2425.73	4036
2427.701	3990
2429.672	4091
2431.644	4024
2433.615	3974
2435.586	3952
2437.555	4073
2439.523	3995
2441.491	3986
2443.459	4060
2445.428	4112
2447.395	3934
2449.361	4092
2451.327	3977
2453.292	4018
2455.257	3954
2457.223	3967
2459.187	3971
2461.15	4090
2463.113	3966
2465.076	4014
2467.039	4000
2468.999	4036
2470.96	3993
2472.921	3949
2474.881	3970
2476.841	3974
2478.8	3990
2480.759	4025
2482.717	3967
2484.675	3989
2486.63	3937
2488.589	3971
2490.545	3937
2492.5	3970
2494.455	3936
2496.408	3898
2498.364	4030
2500.318	4039
2502.27	3921
2504.223	4027
2506.174	3988
2508.126	3982
2510.078	3984
2512.03	4009
2513.979	4004
2515.927	3922
2517.877	3939
2519.826	3933
2521.775	3879
2523.722	3972
2525.668	3913
2527.616	3983
2529.561	3985
2531.508	3950
2533.452	3983
2535.398	3940
2537.342	3954
2539.284	3867
2541.229	4022
2543.173	3913
2545.114	3993
2547.055	3980
2548.996	3953
2550.938	3944
2552.878	3929
2554.817	3899
2556.756	3856
2558.695	3939
2560.633	3975
2562.572	3923
2564.509	3985
2566.445	3908
2568.382	4028
2570.317	3888
2572.254	3934
2574.189	3961
2576.123	3974
2578.057	3922
2579.99	3926
2581.923	3923
2583.855	3923
2585.788	3944
2587.719	3900
2589.65	3961
2591.579	3950
2593.511	3934
2595.44	3951
2597.37	3921
2599.297	3832
2601.225	3850
2603.153	3909
2605.08	4030
2607.007	4039
2608.932	4002
2610.858	4000
2612.782	4009
2614.709	3997
2616.632	3976
2618.556	3937
2620.478	4001
2622.401	3932
2624.324	4068
2626.247	3937
2628.167	3941
2630.088	3924
2632.008	3999
2633.928	3968
2635.848	3920
2637.766	3895
2639.684	3942
2641.603	3968
2643.519	3972
2645.437	3974
2647.353	3928
2649.27	3949
2651.184	3944
2653.099	3904
2655.014	3970
2656.928	3927
2658.842	3892
2660.755	3947
2662.667	3957
2664.579	3908
2666.491	3908
2668.402	3987
2670.312	3949
2672.222	3958
2674.132	3882
2676.042	3936
2677.951	3994
2679.859	3966
2681.766	3894
2683.674	3942
2685.582	3932
2687.488	3864
2689.392	3955
2691.298	3902
2693.202	3833
2695.107	3872
2697.012	3838
2698.914	3911
2700.817	3881
2702.72	3846
2704.622	3809
2706.524	3884
2708.425	3917
2710.326	3941
2712.225	3918
2714.125	3856
2716.024	3877
2717.923	3944
2719.822	3896
2721.719	3887
2723.616	3836
2725.512	3873
2727.41	3808
2729.305	3787
2731.201	3826
2733.095	3798
2734.99	3917
2736.884	3811
2738.778	3916
2740.67	3866
2742.562	3863
2744.455	3871
2746.346	3893
2748.238	3811
2750.129	3935
2752.018	3833
2753.907	3839
2755.797	3811
2757.687	3879
2759.575	3784
2761.462	3845
2763.349	3810
2765.237	3868
2767.124	3866
2769.009	3784
2770.894	3842
2772.779	3840
2774.663	3857
2776.547	3893
2778.431	3888
2780.314	3772
2782.197	3805
2784.078	3936
2785.96	3842
2787.842	3843
2789.723	3849
2791.603	3838
2793.483	3736
2795.362	3760
2797.241	3785
2799.121	3784
2800.997	3893
2802.874	3833
2804.751	3753
2806.628	3940
2808.506	3892
2810.38	3762
2812.255	3811
2814.13	3751
2816.003	3841
2817.878	3797
2819.752	3789
2821.623	3886
2823.496	3886
2825.368	3720
2827.238	3724
2829.111	3800
2830.98	3827
2832.851	3809
2834.719	3825
2836.589	3794
2838.458	3733
2840.327	3814
2842.193	3862
2844.061	3755
2845.927	3868
2847.794	3813
2849.66	3758
2851.525	3840
2853.39	3807
2855.254	3897
2857.117	3801
2858.983	3912
2860.845	3805
2862.707	3898
2864.569	3960
2866.431	3863
2868.293	3856
2870.154	4055
2872.013	3932
2873.873	4050
2875.733	4121
2877.592	4134
2879.451	4154
2881.309	4131
2883.166	4137
2885.022	4177
2886.879	4141
2888.736	4150
2890.591	4120
2892.446	4147
2894.301	4218
2896.155	4190
2898.009	4205
2899.863	4101
2901.716	4064
2903.568	4171
2905.419	4148
2907.27	4111
2909.123	4127
2910.973	4153
2912.824	4187
2914.673	4244
2916.521	4210
2918.372	4242
2920.22	4205
2922.067	4303
2923.914	4385
2925.761	4380
2927.607	4427
2929.455	4498
2931.301	4416
2933.144	4510
2934.99	4562
2936.833	4649
2938.678	4610
2940.522	4655
2942.364	4663
2944.207	4692
2946.048	4756
2947.891	4723
2949.731	4831
2951.571	4661
2953.412	4697
2955.25	4614
2957.09	4701
2958.93	4547
2960.767	4523
2962.606	4428
2964.443	4425
2966.279	4535
2968.116	4403
2969.953	4431
2971.788	4305
2973.623	4284
2975.457	4361
2977.292	4244
2979.127	4263
2980.959	4181
2982.792	4199
2984.624	4083
2986.455	4289
2988.288	4127
2990.119	4099
2991.949	4015
2993.779	4178
2995.608	4133
2997.439	4082
2999.268	4059
3001.096	3954
3002.923	3923
3004.751	3960
3006.578	3874
3008.406	3848
3010.232	3917
3012.057	3828
3013.883	3831
3015.706	3847
3017.532	3829
3019.356	3710
3021.179	3718
3023.002	3745
3024.823	3748
3026.646	3662
3028.469	3688
3030.289	3578
3032.11	3683
3033.93	3703
3035.749	3613
3037.57	3653
3039.39	3631
3041.207	3621
3043.026	3608
3044.842	3573
3046.661	3585
3048.477	3633
3050.294	3652
3052.109	3591
3053.925	3571
3055.739	3570
3057.555	3676
3059.368	3609
3061.181	3577
3062.995	3713
3064.807	3551
3066.62	3637
3068.433	3614
3070.243	3504
3072.054	3643
3073.865	3575
3075.675	3514
3077.485	3537
3079.293	3611
3081.102	3550
3082.911	3554
3084.719	3548
3086.527	3563
3088.333	3598
3090.139	3532
3091.945	3626
3093.75	3556
3095.557	3596
3097.361	3540
3099.165	3526
3100.969	3544
3102.772	3478
3104.575	3503
3106.379	3525
3108.181	3476
3109.982	3473
3111.783	3463
3113.584	3482
3115.386	3504
3117.186	3558
3118.985	3508
3120.783	3501
3122.582	3459
3124.381	3545
3126.179	3402
3127.975	3436
3129.772	3496
3131.569	3483
3133.365	3465
3135.161	3504
3136.956	3419
3138.751	3435
3140.544	3396
3142.338	3498
3144.132	3403
3145.925	3496
3147.717	3363
3149.509	3363
3151.301	3445
3153.091	3476
3154.884	3431
3156.673	3443
3158.462	3444
3160.252	3396
3162.041	3430
3163.831	3462
3165.618	3406
3167.405	3353
3169.193	3429
3170.979	3413
3172.767	3394
3174.553	3468
3176.338	3496
3178.123	3393
3179.907	3381
3181.692	3410
3183.477	3409
3185.259	3410
3187.042	3388
3188.824	3480
3190.607	3390
3192.389	3431
3194.17	3378
3195.951	3389
3197.73	3339
3199.51	3427
3201.289	3320
3203.07	3483
3204.848	3382
3206.626	3363
3208.403	3332
3210.18	3361
3211.959	3353
3213.735	3439
3215.511	3334
3217.285	3381
3219.06	3396
3220.836	3360
3222.611	3382
3224.384	3430
3226.158	3412
3227.929	3362
3229.702	3420
3231.476	3352
3233.248	3387
3235.018	3424
3236.789	3406
3238.56	3369
3240.33	3344
3242.1	3391
3243.869	3467
3245.637	3410
3247.405	3325
3249.172	3376
3250.941	3442
3252.707	3386
3254.474	3307
3256.24	3306
3258.006	3389
3259.772	3339
3261.537	3395
3263.301	3353
3265.065	3321
3266.828	3344
3268.592	3362
3270.355	3382
3272.117	3395
3273.878	3387
3275.64	3384
3277.401	3328
3279.162	3392
3280.922	3293
3282.682	3337
3284.441	3373
3286.199	3351
3287.959	3374
3289.716	3382
3291.475	3456
3293.232	3450
3294.988	3300
3296.744	3437
3298.501	3390
3300.256	3374
3302.011	3428
3303.766	3307
3305.52	3331
3307.275	3351
3309.028	3457
3310.781	3428
3312.533	3300
3314.285	3388
3316.038	3401
3317.789	3380
3319.54	3391
3321.289	3344
3323.039	3324
3324.789	3286
3326.539	3358
3328.288	3328
3330.035	3354
3331.783	3359
3333.531	3381
3335.28	3337
3337.025	3351
3338.771	3346
3340.518	3342
3342.262	3353
3344.009	3390
3345.753	3277
3347.497	3330
3349.24	3258
3350.983	3207
3352.726	3281
3354.469	3344
3356.212	3250
3357.952	3269
3359.694	3250
3361.434	3341
3363.176	3283
3364.916	3333
3366.654	3162
3368.394	3301
3370.132	3298
3371.871	3215
3373.61	3308
3375.346	3258
3377.083	3327
3378.82	3214
3380.556	3249
3382.292	3217
3384.027	3205
3385.763	3283
3387.497	3266
3389.231	3271
3390.965	3258
3392.698	3354
3394.431	3227
3396.164	3212
3397.896	3282
3399.627	3273
3401.36	3257
3403.09	3299
3404.82	3256
3406.55	3229
3408.279	3219
3410.01	3193
3411.738	3214
3413.467	3171
3415.194	3134
3416.92	3207
3418.647	3195
3420.375	3178
3422.102	3189
3423.827	3175
3425.553	3137
3427.277	3263
3429.003	3170
3430.727	3247
3432.451	3205
3434.173	3198
3435.896	3199
3437.62	3165
3439.343	3128
3441.063	3240
3442.785	3172
3444.505	3145
3446.226	3153
3447.948	3180
3449.666	3136
3451.386	3135
3453.104	3183
3454.823	3141
3456.541	3143
3458.259	3127
3459.976	3131
3461.693	2991
3463.408	3133
3465.125	3134
3466.841	3080
3468.556	3117
3470.271	3057
3471.985	3091
3473.698	3022
3475.414	3033
3477.126	3039
3478.838	3023
3480.55	3062
3482.263	3049
3483.975	3063
3485.686	3135
3487.396	2991
3489.106	3086
3490.817	3063
3492.526	3018
3494.236	3058
3495.944	3051
3497.652	3089
3499.359	2955
3501.066	2977
3502.775	3011
3504.481	3021
3506.187	3004
3507.893	3028
3509.598	2961
3511.304	2991
3513.009	3066
3514.713	3077
3516.417	3014
3518.12	2968
3519.821	2968
3521.525	2994
3523.228	3017
3524.929	2961
3526.631	2939
3528.33	2986
3530.032	2938
3531.733	2985
3533.433	2960
3535.131	2996
3536.83	3028
3538.529	2938
3540.227	2914
3541.925	2895
3543.623	2957
3545.319	2985
3547.016	2892
3548.712	2938
3550.408	2947
3552.103	2974
3553.798	2884
3555.491	2956
3557.188	2911
3558.88	2952
3560.574	2911
3562.266	2903
3563.959	2940
3565.651	2910
3567.343	2845
3569.035	2915
3570.725	2918
3572.415	2932
3574.106	2896
3575.797	2827
3577.485	2946
3579.174	2840
3580.863	2929
3582.551	2920
3584.238	2902
3585.926	2906
3587.613	2877
3589.3	2921
3590.986	2867
3592.671	2856
3594.357	2849
3596.042	2859
3597.726	2836
3599.41	2823
3601.094	2809
3602.778	2852
3604.461	2838
3606.143	2783
3607.825	2782
3609.507	2852
3611.188	2833
3612.87	2781
3614.551	2778
3616.229	2765
3617.909	2704
3619.589	2748
3621.269	2705
3622.948	2779
3624.625	2783
3626.302	2764
3627.98	2751
3629.657	2694
3631.334	2730
3633.01	2694
3634.686	2765
3636.361	2715
3638.036	2757
3639.712	2708
3641.385	2734
3643.06	2702
3644.732	2756
3646.405	2679
3648.08	2792
3649.751	2701
3651.424	2752
3653.094	2741
3654.766	2759
3656.436	2704
3658.106	2718
3659.777	2642
3661.446	2679
3663.115	2656
3664.783	2677
3666.452	2601
3668.121	2721
3669.788	2704
3671.454	2675
3673.121	2663
3674.789	2661
3676.455	2666
3678.12	2612
3679.784	2662
3681.45	2673
3683.114	2783
3684.779	2607
3686.442	2655
3688.105	2642
3689.768	2652
3691.43	2690
3693.093	2614
3694.754	2650
3696.415	2639
3698.076	2728
3699.736	2622
3701.396	2600
3703.057	2676
3704.716	2644
3706.375	2606
3708.034	2610
3709.692	2627
3711.351	2622
3713.008	2634
3714.665	2588
3716.321	2613
3717.977	2607
3719.634	2597
3721.29	2605
3722.945	2570
3724.598	2600
3726.253	2623
3727.907	2633
3729.561	2551
3731.214	2574
3732.867	2623
3734.518	2553
3736.171	2602
3737.824	2613
3739.474	2541
3741.125	2600
3742.775	2568
3744.425	2581
3746.074	2531
3747.725	2534
3749.373	2604
3751.022	2583
3752.669	2590
3754.318	2553
3755.966	2538
3757.612	2578
3759.259	2586
3760.905	2547
3762.55	2580
3764.197	2518
3765.842	2557
3767.486	2501
3769.131	2579
3770.774	2594
3772.417	2523
3774.061	2516
3775.705	2494
3777.347	2579
3778.988	2515
3780.629	2508
3782.271	2537
3783.912	2524
3785.552	2480
3787.192	2536
3788.831	2517
3790.472	2497
3792.112	2554
3793.75	2514
3795.388	2468
3797.024	2469
3798.661	2480
3800.3	2517
3801.936	2512
3803.572	2526
3805.208	2511
3806.844	2471
3808.48	2487
3810.115	2512
3811.748	2519
3813.382	2466
3815.016	2436
3816.649	2467
3818.283	2386
3819.914	2483
3821.547	2415
3823.178	2379
3824.809	2488
3826.441	2452
3828.072	2438
3829.701	2446
3831.331	2487
3832.96	2407
3834.591	2450
3836.219	2444
3837.847	2422
3839.475	2418
3841.102	2478
3842.729	2421
3844.357	2459
3845.984	2422
3847.609	2432
3849.234	2378
3850.86	2456
3852.485	2465
3854.11	2390
3855.734	2478
3857.357	2413
3858.981	2466
3860.603	2381
3862.227	2394
3863.848	2442
3865.471	2391
3867.092	2434
3868.713	2381
3870.334	2436
3871.954	2391
3873.575	2449
3875.194	2389
3876.813	2366
3878.433	2377
3880.051	2389
3881.669	2424
3883.286	2381
3884.904	2435
3886.52	2383
3888.138	2390
3889.754	2370
3891.37	2419
3892.985	2333
3894.6	2346
3896.216	2401
3897.831	2370
3899.444	2369
3901.058	2401
3902.67	2375
3904.283	2345
3905.897	2361
3907.509	2392
3909.121	2353
3910.731	2383
3912.342	2355
3913.954	2379
3915.563	2393
3917.174	2381
3918.783	2382
3920.391	2416
3922.002	2318
3923.611	2327
3925.218	2299
3926.826	2378
3928.432	2415
3930.039	2342
3931.647	2385
3933.253	2323
3934.859	2334
3936.464	2372
3938.068	2315
3939.675	2362
3941.278	2310
3942.883	2277
3944.486	2292
3946.089	2322
3947.692	2297
3949.295	2298
3950.898	2321
3952.499	2296
3954.1	2347
3955.7	2321
3957.303	2318
3958.903	2344
3960.502	2317
3962.101	2329
3963.7	2259
3965.301	2320
3966.899	2268
3968.497	2317
3970.094	2239
3971.691	2333
3973.288	2318
3974.885	2302
3976.481	2291
3978.077	2281
3979.672	2251
3981.267	2283
3982.863	2265
3984.457	2303
3986.051	2250
3987.645	2305
3989.238	2262
3990.831	2256
3992.425	2278
3994.017	2253
3995.607	2299
3997.199	2281
3998.79	2257
4000.382	2216
4001.973	2243
4003.561	2261
4005.151	2267
4006.741	2245
4008.331	2260
4009.918	2271
4011.507	2224
4013.095	2235
4014.681	2181
4016.269	2241
4017.856	2179
4019.443	2215
4021.028	2197
4022.614	2198
4024.199	2226
4025.785	2216
4027.37	2181
4028.953	2204
4030.536	2166
4032.12	2173
4033.704	2172
4035.287	2223
4036.869	2154
4038.45	2144
4040.032	2224
4041.613	2195
4043.195	2233
4044.776	2165
4046.356	2164
4047.935	2133
4049.515	2193
4051.095	2179
4052.674	2129
4054.251	2214
4055.829	2125
4057.406	2173
4058.985	2176
4060.562	2227
4062.139	2103
4063.715	2123
4065.29	2154
4066.865	2205
4068.442	2138
4070.016	2211
4071.59	2110
4073.164	2147
4074.738	2185
4076.312	2160
4077.885	2157
4079.458	2129
4081.03	2118
4082.602	2062
4084.173	2092
4085.745	2172
4087.315	2153
4088.886	2085
4090.456	2093
4092.026	2128
4093.596	2121
4095.165	2050
4096.734	2136
4098.301	2024
4099.869	2161
4101.437	2146
4103.006	2137
4104.572	2127
4106.139	2108
4107.704	2094
4109.27	2099
4110.837	2104
4112.401	2078
4113.966	2088
4115.53	2072
4117.094	2097
4118.659	2131
4120.223	2066
4121.785	2053
4123.347	2054
4124.909	2101
4126.471	2092
4128.034	2124
4129.595	2073
4131.155	2059
4132.716	2050
4134.275	2082
4135.836	2075
4137.395	2010
4138.955	2076
4140.513	2063
4142.071	2046
4143.628	2016
4145.188	2093
4146.745	2076
4148.302	1990
4149.858	2079
4151.414	1999
4152.971	2020
4154.526	2035
4156.081	2058
4157.635	2046
4159.189	2004
4160.745	2006
4162.298	1967
4163.852	1981
4165.405	2017
4166.957	2064
4168.51	1966
4170.063	2058
4171.614	2028
4173.166	2005
4174.717	1995
4176.267	1956
4177.817	2030
4179.368	2004
4180.917	2003
4182.466	1996
4184.016	1956
4185.564	1993
4187.112	2015
4188.66	2045
4190.207	1969
4191.754	2035
4193.301	2009
4194.848	1946
4196.394	2001
4197.94	2016
4199.484	2026
4201.03	1985
4202.575	2019
4204.12	1926
4205.663	2015
4207.207	1918
4208.75	2079
4210.292	1982
4211.836	1961
4213.378	1982
4214.92	1960
4216.46	1963
4218.002	2013
4219.544	1972
4221.083	1915
4222.625	1905
4224.164	1897
4225.703	1977
4227.244	1999
4228.782	1914
4230.32	1968
4231.857	1977
4233.395	1939
4234.933	1988
4236.471	1942
4238.007	1937
4239.542	1933
4241.078	1910
4242.614	1998
4244.15	1896
4245.685	1955
4247.219	1902
4248.753	1920
4250.287	1912
4251.82	1953
4253.354	1881
4254.887	1941
4256.419	1910
4257.951	1905
4259.483	1926
4261.016	1870
4262.547	1855
4264.078	1918
4265.608	1920
4267.137	1917
4268.668	1923
4270.197	1936
4271.727	1927
4273.254	1913
4274.783	1861
4276.311	1837
4277.84	1909
4279.366	1904
4280.894	1942
4282.42	1882
4283.946	1923
4285.473	1850
4286.998	1965
4288.523	1893
4290.047	1888
4291.572	1839
4293.096	1898
4294.622	1881
4296.144	1835
4297.668	1859
4299.19	1822
4300.713	1941
4302.236	1859
4303.758	1891
4305.279	1887
4306.799	1849
4308.321	1863
4309.842	1867
4311.361	1833
4312.882	1824
4314.401	1846
