400.0961	4604
402.6185	4483
405.1424	4612
407.6635	4515
410.1838	4659
412.7035	4458
415.2225	4607
417.7388	4853
420.2585	4756
422.7754	4764
425.2917	4819
427.8072	4788
430.3221	4881
432.8363	4857
435.3498	4848
437.8626	4867
440.3727	4856
442.8841	4879
445.3969	4953
447.907	4935
450.4142	4892
452.9229	4806
455.4289	4728
457.9362	4780
460.4449	4845
462.9488	4882
465.454	4844
467.9566	4855
470.4604	4885
472.9637	4775
475.4662	4868
477.966	4910
480.4671	4942
482.9656	4959
485.4633	4972
487.9645	4940
490.4608	4983
492.9566	4828
495.4536	5087
497.948	4914
500.4437	4864
502.9387	4988
505.431	4976
507.9226	5032
510.4136	4867
512.9079	4994
515.3975	5047
517.8864	5024
520.3746	5091
522.8622	4938
525.3491	5001
527.8394	4940
530.3249	4932
532.8098	5028
535.2939	4996
537.7774	4927
540.2623	5141
542.7444	5002
545.2259	4983
547.7067	5086
550.1868	5039
552.6683	5003
555.147	5117
557.6231	5103
560.1005	5086
562.5773	5089
565.0534	5103
567.5308	5115
570.0056	5169
572.4776	5131
574.951	5241
577.4237	5185
579.8978	5167
582.3671	5283
584.8378	5188
587.3079	5220
589.7773	5271
592.244	5159
594.714	5234
597.1793	5304
599.6461	5267
602.1121	5213
604.5754	5189
607.0421	5193
609.5042	5150
611.9675	5196
614.4282	5170
616.8902	5231
619.3515	5111
621.8122	5168
624.2702	5206
626.7296	5018
629.1863	5096
631.6423	5156
634.1017	5193
636.5563	5169
639.0104	5159
641.4658	5233
643.9185	5212
646.3725	5187
648.8239	5263
651.2766	5168
653.7266	5184
656.176	5178
658.6247	5256
661.0748	5257
663.5242	5271
665.9709	5362
668.417	5319
670.8624	5301
673.3092	5410
675.7533	5356
678.1968	5289
680.6395	5369
683.0817	5423
685.5251	5400
687.9659	5342
690.4061	5392
692.8456	5343
695.2844	5330
697.7226	5387
700.1621	5388
702.599	5340
705.0332	5539
707.4688	5431
709.9036	5510
712.3399	5464
714.7735	5489
717.2044	5561
719.6367	5605
722.0683	5384
724.4993	5556
726.9296	5507
729.3593	5628
731.7883	5434
734.2147	5528
736.6423	5566
739.0714	5583
741.4958	5481
743.9216	5713
746.3447	5582
748.7691	5669
751.1929	5559
753.616	5682
756.0366	5730
758.4584	5680
760.8776	5740
763.2982	5642
765.718	5802
768.1373	5795
770.5539	5762
772.9698	5714
775.3871	5718
777.8038	5736
780.2178	5614
782.6332	5752
785.0459	5826
787.458	5742
789.8714	5749
792.2842	5732
794.6943	5728
797.1038	5711
799.5127	5688
801.9209	5810
804.3324	5778
806.7393	5726
809.1456	5668
811.5513	5762
813.9562	5854
816.3625	5650
818.7663	5838
821.1693	5841
823.5718	5809
825.9735	5806
828.3746	5768
830.7771	5779
833.177	5878
835.5762	5799
837.9747	5800
840.3727	5836
842.772	5817
845.1666	5949
847.5626	5911
849.958	5906
852.3527	5992
854.7488	6049
857.1403	5968
859.5331	5939
861.9253	5846
864.3168	5943
866.7057	5954
869.098	5914
871.4876	6014
873.8746	5873
876.263	6039
878.6487	5874
881.0378	5969
883.4243	6014
885.8081	6043
888.1933	5942
890.5759	5922
892.9598	5815
895.343	5901
897.7256	5963
900.1057	5929
902.4871	6042
904.8659	5974
907.246	5997
909.6254	5971
912.0023	6093
914.3786	6071
916.7562	6214
919.1331	6301
921.5074	6351
923.8831	6477
926.2562	6322
928.6287	6386
931.0005	6346
933.3757	6219
935.7462	6325
938.1162	6270
940.4855	6430
942.8542	6397
945.2242	6479
947.5916	6495
949.9584	6593
952.3266	6719
954.6921	6974
957.0571	7182
959.4233	7266
961.787	7401
964.15	7199
966.5125	7149
968.8742	6919
971.2354	6691
973.5959	6688
975.9559	6532
978.3151	6360
980.6738	6209
983.0338	6272
985.3912	6180
987.7461	6253
990.1022	6130
992.4578	6103
994.8127	6246
997.1689	6246
999.5207	6149
1001.874	6229
1004.226	6283
1006.576	6241
1008.929	6199
1011.28	6230
1013.628	6113
1015.977	6135
1018.324	6199
1020.674	6170
1023.019	6110
1025.366	6231
1027.713	6274
1030.056	6281
1032.399	6194
1034.746	6332
1037.087	6312
1039.431	6187
1041.771	6290
1044.113	6230
1046.454	6191
1048.793	6319
1051.133	6267
1053.471	6232
1055.807	6219
1058.146	6262
1060.483	6191
1062.818	6323
1065.153	6323
1067.489	6436
1069.822	6340
1072.156	6428
1074.488	6345
1076.82	6388
1079.15	6385
1081.48	6373
1083.814	6308
1086.143	6339
1088.471	6297
1090.799	6314
1093.126	6273
1095.452	6338
1097.78	6222
1100.105	6316
1102.43	6254
1104.754	6362
1107.077	6278
1109.4	6276
1111.722	6326
1114.044	6290
1116.365	6217
1118.685	6392
1121.005	6294
1123.324	6409
1125.643	6441
1127.961	6312
1130.278	6503
1132.595	6387
1134.911	6197
1137.226	6406
1139.541	6352
1141.854	6463
1144.167	6278
1146.482	6235
1148.793	6367
1151.105	6412
1153.414	6360
1155.725	6320
1158.033	6300
1160.344	6303
1162.651	6383
1164.959	6303
1167.265	6327
1169.572	6355
1171.878	6365
1174.184	6380
1176.488	6468
1178.79	6465
1181.094	6336
1183.396	6352
1185.699	6436
1188.001	6466
1190.301	6350
1192.6	6307
1194.9	6331
1197.2	6290
1199.497	6353
1201.794	6302
1204.09	6356
1206.387	6576
1208.684	6365
1210.978	6401
1213.272	6500
1215.565	6382
1217.858	6383
1220.15	6367
1222.443	6416
1224.734	6487
1227.024	6426
1229.313	6503
1231.602	6515
1233.892	6625
1236.18	6629
1238.467	6535
1240.754	6614
1243.04	6578
1245.325	6607
1247.612	6599
1249.896	6592
1252.178	6707
1254.461	6640
1256.743	6629
1259.027	6643
1261.308	6727
1263.587	6680
1265.867	6612
1268.146	6676
1270.425	6734
1272.703	6650
1274.981	6765
1277.256	6633
1279.532	6577
1281.808	6552
1284.083	6633
1286.358	6564
1288.63	6558
1290.904	6550
1293.175	6580
1295.449	6650
1297.719	6701
1299.99	6434
1302.259	6575
1304.529	6628
1306.798	6606
1309.065	6516
1311.333	6638
1313.599	6558
1315.866	6559
1318.131	6637
1320.396	6651
1322.66	6533
1324.925	6572
1327.187	6555
1329.448	6627
1331.711	6711
1333.974	6683
1336.234	6696
1338.493	6639
1340.752	6562
1343.01	6508
1345.269	6376
1347.526	6422
1349.784	6547
1352.04	6625
1354.295	6686
1356.552	6523
1358.806	6444
1361.059	6498
1363.312	6567
1365.564	6593
1367.818	6700
1370.069	6687
1372.318	6615
1374.568	6667
1376.817	6563
1379.066	6535
1381.316	6646
1383.564	6515
1385.809	6639
1388.056	6733
1390.301	6756
1392.549	6877
1394.793	6851
1397.036	6931
1399.279	6957
1401.522	6998
1403.763	6918
1406.007	7078
1408.248	6896
1410.487	6808
1412.727	6950
1414.965	6819
1417.205	6972
1419.442	6972
1421.68	6940
1423.915	6880
1426.152	6896
1428.388	6876
1430.623	6863
1432.857	6878
1435.091	6958
1437.323	6986
1439.556	6916
1441.789	7023
1444.019	6914
1446.25	6924
1448.48	6909
1450.708	6809
1452.938	7095
1455.167	7004
1457.394	7104
1459.62	7092
1461.846	6972
1464.073	7097
1466.299	6832
1468.523	6855
1470.746	6792
1472.969	6751
1475.191	6661
1477.415	6927
1479.636	6696
1481.858	6638
1484.078	6708
1486.298	6796
1488.518	6548
1490.736	6687
1492.954	6605
1495.169	6710
1497.386	6479
1499.602	6585
1501.819	6547
1504.034	6677
1506.248	6632
1508.462	6451
1510.675	6635
1512.888	6585
1515.1	6617
1517.311	6537
1519.522	6584
1521.732	6579
1523.942	6601
1526.151	6542
1528.36	6528
1530.566	6566
1532.773	6601
1534.98	6574
1537.187	6463
1539.392	6652
1541.596	6685
1543.801	6641
1546.005	6596
1548.208	6614
1550.411	6737
1552.612	6580
1554.814	6785
1557.013	6622
1559.212	6802
1561.414	6699
1563.612	6783
1565.811	6677
1568.007	6720
1570.203	6772
1572.403	6819
1574.598	6738
1576.792	6757
1578.988	6718
1581.181	6806
1583.376	6753
1585.568	6758
1587.761	6852
1589.952	6790
1592.143	6755
1594.333	6842
1596.524	6771
1598.715	6816
1600.903	6804
1603.091	6767
1605.278	6833
1607.466	6750
1609.652	6800
1611.838	6868
1614.023	6776
1616.207	6816
1618.391	6701
1620.576	6928
1622.759	6874
1624.941	6948
1627.123	6812
1629.304	6751
1631.484	6875
1633.664	6961
1635.844	6876
1638.022	6929
1640.201	6941
1642.38	6997
1644.556	6957
1646.732	6937
1648.908	6840
1651.084	6972
1653.257	6988
1655.433	6911
1657.607	6765
1659.779	7014
1661.951	7040
1664.122	7042
1666.295	6977
1668.467	7071
1670.635	6901
1672.805	7021
1674.973	6923
1677.142	6973
1679.31	7024
1681.478	6960
1683.644	6911
1685.81	6913
1687.975	7060
1690.142	6990
1692.305	6927
1694.468	6869
1696.632	6935
1698.794	6923
1700.957	6914
1703.119	6866
1705.279	6726
1707.439	6797
1709.598	6839
1711.758	6872
1713.917	6840
1716.075	6873
1718.231	6687
1720.388	6860
1722.543	6775
1724.702	6826
1726.856	6756
1729.01	6878
1731.164	6768
1733.317	6727
1735.471	6825
1737.623	6737
1739.774	6818
1741.925	6864
1744.075	6818
1746.225	6825
1748.376	6768
1750.524	6808
1752.672	6771
1754.82	6885
1756.965	6844
1759.113	6737
1761.259	6841
1763.405	6858
1765.549	6829
1767.694	6749
1769.836	6817
1771.981	6790
1774.123	6813
1776.264	6895
1778.405	6810
1780.546	6835
1782.687	6907
1784.827	6924
1786.966	6740
1789.103	6789
1791.242	6987
1793.381	6873
1795.517	6837
1797.653	6945
1799.788	6831
1801.923	6904
1804.057	6755
1806.193	6869
1808.326	6879
1810.457	6927
1812.59	6770
1814.721	6973
1816.855	6771
1818.984	6877
1821.113	6763
1823.244	6776
1825.372	6870
1827.499	6811
1829.63	6852
1831.756	6827
1833.882	6798
1836.007	6732
1838.132	6912
1840.26	6813
1842.384	6625
1844.507	6746
1846.63	6779
1848.752	6709
1850.875	6778
1852.996	6750
1855.118	6836
1857.238	6868
1859.358	6855
1861.477	6667
1863.597	6878
1865.715	6777
1867.832	6775
1869.948	6814
1872.064	6728
1874.181	6758
1876.297	6829
1878.411	6774
1880.526	6891
1882.639	6824
1884.752	6799
1886.865	6842
1888.977	6779
1891.089	6867
1893.2	6764
1895.308	6915
1897.42	6803
1899.53	6777
1901.639	6818
1903.745	6868
1905.853	6849
1907.962	6878
1910.067	6843
1912.174	6924
1914.278	6930
1916.383	6784
1918.486	6918
1920.592	6934
1922.694	6930
1924.797	6855
1926.898	6965
1929	6911
1931.102	6893
1933.203	6937
1935.301	6899
1937.401	6971
1939.499	6939
1941.598	6910
1943.697	7063
1945.793	6959
1947.888	6919
1949.985	6943
1952.08	7030
1954.176	6956
1956.269	6892
1958.364	6871
1960.457	6878
1962.549	6813
1964.642	6916
1966.733	6882
1968.823	6829
1970.913	6868
1973.005	6840
1975.093	6814
1977.184	6916
1979.271	6879
1981.359	6891
1983.446	6894
1985.532	6863
1987.619	6834
1989.705	6803
1991.789	6776
1993.874	6809
1995.956	6770
1998.041	6849
2000.123	6746
2002.206	6755
2004.287	6860
2006.368	6786
2008.449	6856
2010.529	6752
2012.609	6813
2014.688	6807
2016.766	6733
2018.843	6816
2020.922	6747
2022.999	6784
2025.074	6739
2027.15	6797
2029.225	6740
2031.299	6820
2033.375	6713
2035.447	6730
2037.52	6885
2039.592	6833
2041.664	6859
2043.736	6765
2045.807	6842
2047.876	6820
2049.947	6821
2052.015	6832
2054.086	6778
2056.153	6917
2058.221	6732
2060.288	6917
2062.353	6764
2064.42	6943
2066.486	6888
2068.55	6937
2070.614	6879
2072.678	6885
2074.741	6837
2076.805	6831
2078.866	6846
2080.929	6924
2082.99	6835
2085.049	6962
2087.109	6781
2089.17	6878
2091.228	6743
2093.286	6850
2095.344	6850
2097.4	6808
2099.46	6877
2101.516	6761
2103.572	6890
2105.626	6884
2107.679	6882
2109.735	6799
2111.788	6840
2113.841	6807
2115.894	6738
2117.945	6758
2119.997	6817
2122.049	6801
2124.1	6834
2126.148	6677
2128.197	6755
2130.246	6807
2132.296	6847
2134.342	6751
2136.39	6773
2138.437	6891
2140.483	6841
2142.527	6743
2144.574	6641
2146.619	6871
2148.661	6842
2150.705	6756
2152.747	6844
2154.792	6820
2156.832	6824
2158.874	6731
2160.915	6841
2162.954	6818
2164.995	6744
2167.034	6650
2169.072	6620
2171.111	6733
2173.148	6655
2175.186	6800
2177.223	6665
2179.258	6701
2181.294	6881
2183.328	6658
2185.362	6719
2187.398	6546
2189.431	6751
2191.463	6826
2193.495	6605
2195.528	6705
2197.56	6623
2199.59	6651
2201.62	6723
2203.649	6670
2205.678	6653
2207.708	6601
2209.737	6710
2211.764	6625
2213.791	6699
2215.817	6593
2217.843	6713
2219.87	6604
2221.895	6698
2223.919	6657
2225.942	6550
2227.966	6528
2229.988	6499
2232.012	6684
2234.032	6703
2236.054	6590
2238.074	6550
2240.095	6622
2242.116	6604
2244.135	6628
2246.153	6686
2248.171	6633
2250.188	6696
2252.208	6522
2254.223	6606
2256.239	6705
2258.255	6607
2260.269	6549
2262.283	6724
2264.3	6637
2266.312	6701
2268.325	6628
2270.336	6540
2272.349	6605
2274.362	6537
2276.372	6531
2278.383	6541
2280.392	6624
2282.402	6643
2284.409	6681
2286.418	6663
2288.427	6657
2290.433	6559
2292.441	6614
2294.446	6633
2296.453	6485
2298.459	6643
2300.463	6504
2302.466	6640
2304.471	6535
2306.475	6552
2308.477	6654
2310.478	6571
2312.481	6559
2314.481	6631
2316.481	6587
2318.482	6553
2320.482	6642
2322.48	6542
2324.48	6534
2326.478	6585
2328.476	6536
2330.473	6534
2332.469	6454
2334.465	6591
2336.46	6551
2338.454	6519
2340.45	6464
2342.444	6611
2344.437	6542
2346.43	6673
2348.421	6521
2350.414	6454
2352.405	6445
2354.396	6506
2356.386	6418
2358.376	6424
2360.366	6556
2362.355	6529
2364.343	6514
2366.331	6491
2368.317	6562
2370.304	6456
2372.292	6438
2374.278	6469
2376.262	6510
2378.247	6426
2380.23	6376
2382.216	6470
2384.199	6480
2386.181	6466
2388.163	6387
2390.144	6368
2392.127	6360
2394.107	6420
2396.087	6431
2398.066	6321
2400.046	6425
2402.023	6312
2404.004	6356
2405.981	6379
2407.957	6384
2409.934	6353
2411.91	6317
2413.886	6331
2415.862	6315
2417.836	6369
2419.809	6356
2421.784	6294
2423.756	6322
2425.73	6336
2427.701	6456
2429.672	6509
2431.644	6231
2433.615	6411
2435.586	6342
2437.555	6355
2439.523	6323
2441.491	6332
2443.459	6395
2445.428	6202
2447.395	6321
2449.361	6287
2451.327	6451
2453.292	6338
2455.257	6303
2457.223	6339
2459.187	6229
2461.15	6274
2463.113	6277
2465.076	6284
2467.039	6269
2468.999	6432
2470.96	6322
2472.921	6348
2474.881	6257
2476.841	6192
2478.8	6322
2480.759	6456
2482.717	6219
2484.675	6312
2486.63	6236
2488.589	6366
2490.545	6148
2492.5	6301
2494.455	6377
2496.408	6335
2498.364	6349
2500.318	6250
2502.27	6257
2504.223	6191
2506.174	6258
2508.126	6204
2510.078	6327
2512.03	6283
2513.979	6354
2515.927	6277
2517.877	6154
2519.826	6119
2521.775	6226
2523.722	6239
2525.668	6253
2527.616	6140
2529.561	6252
2531.508	6193
2533.452	6286
2535.398	6280
2537.342	6199
2539.284	6171
2541.229	6220
2543.173	6195
2545.114	6115
2547.055	6275
2548.996	6085
2550.938	6126
2552.878	6193
2554.817	6252
2556.756	6170
2558.695	6212
2560.633	6169
2562.572	6210
2564.509	6245
2566.445	6242
2568.382	6237
2570.317	6196
2572.254	6175
2574.189	6203
2576.123	6259
2578.057	6189
2579.99	6137
2581.923	6210
2583.855	6224
2585.788	6172
2587.719	6199
2589.65	6146
2591.579	6287
2593.511	6247
2595.44	6262
2597.37	6142
2599.297	6172
2601.225	6315
2603.153	6232
2605.08	6277
2607.007	6189
2608.932	6088
2610.858	6204
2612.782	6078
2614.709	6211
2616.632	6153
2618.556	6267
2620.478	6287
2622.401	6180
2624.324	6283
2626.247	6199
2628.167	6166
2630.088	6213
2632.008	6277
2633.928	6268
2635.848	6213
2637.766	6145
2639.684	6214
2641.603	6187
2643.519	6234
2645.437	6143
2647.353	6139
2649.27	6232
2651.184	6195
2653.099	6200
2655.014	6257
2656.928	6276
2658.842	6160
2660.755	6226
2662.667	6133
2664.579	6147
2666.491	6193
2668.402	6230
2670.312	6138
2672.222	6179
2674.132	6137
2676.042	6201
2677.951	6193
2679.859	6177
2681.766	6110
2683.674	6207
2685.582	6165
2687.488	6035
2689.392	6153
2691.298	6161
2693.202	6114
2695.107	6187
2697.012	6085
2698.914	6124
2700.817	6161
2702.72	6019
2704.622	6141
2706.524	6083
2708.425	6014
2710.326	6052
2712.225	6065
2714.125	6117
2716.024	6064
2717.923	6076
2719.822	6128
2721.719	6083
2723.616	6075
2725.512	6162
2727.41	6155
2729.305	5994
2731.201	6076
2733.095	6041
2734.99	6157
2736.884	6048
2738.778	6075
2740.67	6042
2742.562	6137
2744.455	6094
2746.346	6114
2748.238	6012
2750.129	6064
2752.018	6094
2753.907	6021
2755.797	6059
2757.687	6077
2759.575	6035
2761.462	6038
2763.349	6102
2765.237	6102
2767.124	6053
2769.009	5977
2770.894	6057
2772.779	5880
2774.663	5989
2776.547	6120
2778.431	5965
2780.314	5978
2782.197	6102
2784.078	5964
2785.96	6013
2787.842	6035
2789.723	5984
2791.603	6026
2793.483	5999
2795.362	5947
2797.241	6034
2799.121	6012
2800.997	6026
2802.874	5979
2804.751	6032
2806.628	5928
2808.506	6039
2810.38	5988
2812.255	5953
2814.13	5839
2816.003	5972
2817.878	6105
2819.752	6064
2821.623	6081
2823.496	5904
2825.368	5983
2827.238	6057
2829.111	6083
2830.98	5966
2832.851	6004
2834.719	6115
2836.589	5914
2838.458	6056
2840.327	6102
2842.193	6122
2844.061	6181
2845.927	6012
2847.794	6012
2849.66	6120
2851.525	6139
2853.39	6033
2855.254	6077
2857.117	6081
2858.983	6258
2860.845	6211
2862.707	6150
2864.569	6199
2866.431	6041
2868.293	6313
2870.154	6233
2872.013	6406
2873.873	6431
2875.733	6483
2877.592	6390
2879.451	6534
2881.309	6672
2883.166	6673
2885.022	6715
2886.879	6586
2888.736	6711
2890.591	6750
2892.446	6662
2894.301	6774
2896.155	6793
2898.009	6880
2899.863	6740
2901.716	6686
2903.568	6613
2905.419	6641
2907.27	6726
2909.123	6726
2910.973	6715
2912.824	6801
2914.673	6703
2916.521	6803
2918.372	6818
2920.22	6925
2922.067	7019
2923.914	6933
2925.761	6996
2927.607	7023
2929.455	7035
2931.301	7053
2933.144	7143
2934.99	7130
2936.833	7198
2938.678	7360
2940.522	7463
2942.364	7519
2944.207	7540
2946.048	7628
2947.891	7760
2949.731	7653
2951.571	7618
2953.412	7688
2955.25	7528
2957.09	7511
2958.93	7538
2960.767	7295
2962.606	7440
2964.443	7366
2966.279	7263
2968.116	7164
2969.953	6976
2971.788	6872
2973.623	6820
2975.457	6842
2977.292	6715
2979.127	6645
2980.959	6636
2982.792	6652
2984.624	6523
2986.455	6582
2988.288	6564
2990.119	6433
2991.949	6315
2993.779	6378
2995.608	6464
2997.439	6328
2999.268	6278
3001.096	6278
3002.923	6132
3004.751	6187
3006.578	6142
3008.406	6084
3010.232	6008
3012.057	6042
3013.883	5967
3015.706	5929
3017.532	5899
3019.356	5855
3021.179	5858
3023.002	5865
3024.823	5761
3026.646	5687
3028.469	5693
3030.289	5801
3032.11	5839
3033.93	5842
3035.749	5662
3037.57	5710
3039.39	5725
3041.207	5679
3043.026	5616
3044.842	5761
3046.661	5714
3048.477	5634
3050.294	5794
3052.109	5634
3053.925	5673
3055.739	5646
3057.555	5669
3059.368	5644
3061.181	5654
3062.995	5594
3064.807	5718
3066.62	5673
3068.433	5772
3070.243	5612
3072.054	5706
3073.865	5632
3075.675	5607
3077.485	5508
3079.293	5503
3081.102	5701
3082.911	5640
3084.719	5595
3086.527	5570
3088.333	5623
3090.139	5646
3091.945	5421
3093.75	5534
3095.557	5427
3097.361	5561
3099.165	5498
3100.969	5468
3102.772	5452
3104.575	5530
3106.379	5492
3108.181	5489
3109.982	5416
3111.783	5495
3113.584	5399
3115.386	5470
3117.186	5418
3118.985	5577
3120.783	5373
3122.582	5404
3124.381	5326
3126.179	5439
3127.975	5374
3129.772	5452
3131.569	5318
3133.365	5386
3135.161	5358
3136.956	5359
3138.751	5315
3140.544	5446
3142.338	5458
3144.132	5369
3145.925	5329
3147.717	5359
3149.509	5317
3151.301	5321
3153.091	5301
3154.884	5390
3156.673	5316
3158.462	5269
3160.252	5290
3162.041	5292
3163.831	5405
3165.618	5270
3167.405	5370
3169.193	5346
3170.979	5312
3172.767	5325
3174.553	5293
3176.338	5245
3178.123	5249
3179.907	5375
3181.692	5116
3183.477	5323
3185.259	5259
3187.042	5384
3188.824	5318
3190.607	5247
3192.389	5417
3194.17	5287
3195.951	5228
3197.73	5237
3199.51	5370
3201.289	5320
3203.07	5357
3204.848	5320
3206.626	5251
3208.403	5311
3210.18	5192
3211.959	5367
3213.735	5271
3215.511	5166
3217.285	5270
3219.06	5269
3220.836	5263
3222.611	5177
3224.384	5221
3226.158	5332
3227.929	5145
3229.702	5302
3231.476	5258
3233.248	5210
3235.018	5335
3236.789	5250
3238.56	5218
3240.33	5234
3242.1	5262
3243.869	5166
3245.637	5251
3247.405	5334
3249.172	5139
3250.941	5269
3252.707	5225
3254.474	5135
3256.24	5235
3258.006	5262
3259.772	5243
3261.537	5335
3263.301	5312
3265.065	5166
3266.828	5267
3268.592	5243
3270.355	5180
3272.117	5252
3273.878	5236
3275.64	5241
3277.401	5242
3279.162	5274
3280.922	5273
3282.682	5234
3284.441	5236
3286.199	5203
3287.959	5255
3289.716	5211
3291.475	5185
3293.232	5197
3294.988	5207
3296.744	5237
3298.501	5250
3300.256	5158
3302.011	5271
3303.766	5131
3305.52	5251
3307.275	5166
3309.028	5186
3310.781	5164
3312.533	5275
3314.285	5211
3316.038	5108
3317.789	5084
3319.54	5190
3321.289	5152
3323.039	5265
3324.789	5196
3326.539	5253
3328.288	5244
3330.035	5202
3331.783	5187
3333.531	5213
3335.28	5106
3337.025	5126
3338.771	5172
3340.518	5168
3342.262	5169
3344.009	5173
3345.753	5184
3347.497	5057
3349.24	5154
3350.983	5127
3352.726	5108
3354.469	5070
3356.212	5107
3357.952	5079
3359.694	5009
3361.434	5053
3363.176	5139
3364.916	5023
3366.654	5089
3368.394	5172
3370.132	5045
3371.871	5035
3373.61	5044
3375.346	4956
3377.083	5036
3378.82	5083
3380.556	5044
3382.292	5007
3384.027	4930
3385.763	5022
3387.497	5009
3389.231	5014
3390.965	4963
3392.698	5003
3394.431	5043
3396.164	4867
3397.896	5030
3399.627	5006
3401.36	4946
3403.09	4991
3404.82	5030
3406.55	4957
3408.279	4883
3410.01	4851
3411.738	4931
3413.467	4930
3415.194	4936
3416.92	4905
3418.647	4974
3420.375	4940
3422.102	4885
3423.827	4883
3425.553	4975
3427.277	4854
3429.003	4883
3430.727	4876
3432.451	4914
3434.173	4902
3435.896	4867
3437.62	4885
3439.343	4814
3441.063	4853
3442.785	4843
3444.505	4888
3446.226	4941
3447.948	4896
3449.666	4817
3451.386	4828
3453.104	4837
3454.823	4864
3456.541	4728
3458.259	4746
3459.976	4715
3461.693	4777
3463.408	4804
3465.125	4745
3466.841	4651
3468.556	4848
3470.271	4784
3471.985	4678
3473.698	4726
3475.414	4778
3477.126	4786
3478.838	4698
3480.55	4683
3482.263	4710
3483.975	4725
3485.686	4687
3487.396	4596
3489.106	4650
3490.817	4592
3492.526	4666
3494.236	4607
3495.944	4612
3497.652	4641
3499.359	4614
3501.066	4540
3502.775	4640
3504.481	4615
3506.187	4552
3507.893	4621
3509.598	4562
3511.304	4597
3513.009	4598
3514.713	4626
3516.417	4509
3518.12	4579
3519.821	4662
3521.525	4616
3523.228	4442
3524.929	4675
3526.631	4506
3528.33	4434
3530.032	4492
3531.733	4640
3533.433	4461
3535.131	4482
3536.83	4475
3538.529	4593
3540.227	4453
3541.925	4588
3543.623	4386
3545.319	4536
3547.016	4433
3548.712	4507
3550.408	4485
3552.103	4388
3553.798	4566
3555.491	4450
3557.188	4440
3558.88	4501
3560.574	4428
3562.266	4431
3563.959	4528
3565.651	4494
3567.343	4413
3569.035	4332
3570.725	4438
3572.415	4346
3574.106	4391
3575.797	4280
3577.485	4378
3579.174	4408
3580.863	4365
3582.551	4382
3584.238	4385
3585.926	4417
3587.613	4380
3589.3	4330
3590.986	4289
3592.671	4327
3594.357	4271
3596.042	4393
3597.726	4333
3599.41	4306
3601.094	4372
3602.778	4211
3604.461	4279
3606.143	4361
3607.825	4289
3609.507	4199
3611.188	4348
3612.87	4243
3614.551	4206
3616.229	4221
3617.909	4242
3619.589	4179
3621.269	4220
3622.948	4163
3624.625	4314
3626.302	4203
3627.98	4147
3629.657	4163
3631.334	4202
3633.01	4165
3634.686	4120
3636.361	4100
3638.036	4213
3639.712	4174
3641.385	4095
3643.06	4206
3644.732	4048
3646.405	4109
3648.08	4005
3649.751	4103
3651.424	4122
3653.094	4130
3654.766	4007
3656.436	4060
3658.106	4077
3659.777	4134
3661.446	4004
3663.115	4043
3664.783	4079
3666.452	4027
3668.121	4068
3669.788	4042
3671.454	4049
3673.121	4009
3674.789	4010
3676.455	3995
3678.12	4076
3679.784	4024
3681.45	4060
3683.114	4071
3684.779	4140
3686.442	4012
3688.105	3975
3689.768	4059
3691.43	4011
3693.093	3991
3694.754	3951
3696.415	3922
3698.076	3966
3699.736	4025
3701.396	3908
3703.057	3946
3704.716	3989
3706.375	3998
3708.034	3944
3709.692	4045
3711.351	3955
3713.008	3956
3714.665	3986
3716.321	3935
3717.977	3930
3719.634	3908
3721.29	3999
3722.945	3953
3724.598	3983
3726.253	3938
3727.907	3930
3729.561	3877
3731.214	3819
3732.867	3962
3734.518	3871
3736.171	3914
3737.824	3909
3739.474	3872
3741.125	3912
3742.775	3914
3744.425	3882
3746.074	3921
3747.725	3864
3749.373	3904
3751.022	3876
3752.669	3912
3754.318	3884
3755.966	3891
3757.612	3894
3759.259	3839
3760.905	3848
3762.55	3866
3764.197	3777
3765.842	3829
3767.486	3830
3769.131	3832
3770.774	3842
3772.417	3882
3774.061	3784
3775.705	3865
3777.347	3834
3778.988	3791
3780.629	3866
3782.271	3812
3783.912	3869
3785.552	3848
3787.192	3868
3788.831	3829
3790.472	3783
3792.112	3800
3793.75	3750
3795.388	3680
3797.024	3762
3798.661	3753
3800.3	3703
3801.936	3692
3803.572	3749
3805.208	3752
3806.844	3724
3808.48	3790
3810.115	3832
3811.748	3763
3813.382	3744
3815.016	3599
3816.649	3748
3818.283	3707
3819.914	3697
3821.547	3744
3823.178	3709
3824.809	3728
3826.441	3680
3828.072	3704
3829.701	3736
3831.331	3736
3832.96	3740
3834.591	3734
3836.219	3698
3837.847	3716
3839.475	3718
3841.102	3635
3842.729	3646
3844.357	3681
3845.984	3614
3847.609	3658
3849.234	3709
3850.86	3639
3852.485	3609
3854.11	3691
3855.734	3592
3857.357	3651
3858.981	3648
3860.603	3635
3862.227	3655
3863.848	3641
3865.471	3616
3867.092	3682
3868.713	3547
3870.334	3669
3871.954	3616
3873.575	3628
3875.194	3529
3876.813	3564
3878.433	3573
3880.051	3631
3881.669	3635
3883.286	3542
3884.904	3638
3886.52	3510
3888.138	3574
3889.754	3541
3891.37	3610
3892.985	3635
3894.6	3525
3896.216	3576
3897.831	3638
3899.444	3499
3901.058	3608
3902.67	3477
3904.283	3565
3905.897	3565
3907.509	3597
3909.121	3617
3910.731	3583
3912.342	3528
3913.954	3590
3915.563	3573
3917.174	3561
3918.783	3581
3920.391	3569
3922.002	3529
3923.611	3481
3925.218	3618
3926.826	3555
3928.432	3527
3930.039	3544
3931.647	3562
3933.253	3523
3934.859	3490
3936.464	3488
3938.068	3511
3939.675	3521
3941.278	3533
3942.883	3506
3944.486	3508
3946.089	3508
3947.692	3467
3949.295	3422
3950.898	3509
3952.499	3508
3954.1	3514
3955.7	3491
3957.303	3623
3958.903	3424
3960.502	3424
3962.101	3530
3963.7	3505
3965.301	3419
3966.899	3433
3968.497	3441
3970.094	3433
3971.691	3406
3973.288	3417
3974.885	3520
3976.481	3438
3978.077	3457
3979.672	3365
3981.267	3343
3982.863	3380
3984.457	3355
3986.051	3392
3987.645	3332
3989.238	3297
3990.831	3311
3992.425	3312
3994.017	3457
3995.607	3327
3997.199	3370
3998.79	3378
4000.382	3358
4001.973	3386
4003.561	3289
4005.151	3299
4006.741	3360
4008.331	3331
4009.918	3310
4011.507	3385
4013.095	3346
4014.681	3258
4016.269	3332
4017.856	3249
4019.443	3328
4021.028	3276
4022.614	3307
4024.199	3258
4025.785	3299
4027.37	3218
4028.953	3330
4030.536	3273
4032.12	3282
4033.704	3255
4035.287	3258
4036.869	3246
4038.45	3244
4040.032	3234
4041.613	3287
4043.195	3246
4044.776	3206
4046.356	3219
4047.935	3219
4049.515	3248
4051.095	3159
4052.674	3169
4054.251	3226
4055.829	3158
4057.406	3292
4058.985	3182
4060.562	3222
4062.139	3287
4063.715	3250
4065.29	3226
4066.865	3241
4068.442	3152
4070.016	3256
4071.59	3187
4073.164	3152
4074.738	3253
4076.312	3182
4077.885	3181
4079.458	3210
4081.03	3126
4082.602	3180
4084.173	3103
4085.745	3211
4087.315	3188
4088.886	3216
4090.456	3133
4092.026	3221
4093.596	3147
4095.165	3145
4096.734	3109
4098.301	3117
4099.869	3163
4101.437	3137
4103.006	3165
4104.572	3178
4106.139	3123
4107.704	3207
4109.27	3085
4110.837	3177
4112.401	3166
4113.966	3212
4115.53	3118
4117.094	3076
4118.659	3079
4120.223	3026
4121.785	3068
4123.347	3158
4124.909	3055
4126.471	3103
4128.034	3056
4129.595	3065
4131.155	3038
4132.716	3015
4134.275	3106
4135.836	3101
4137.395	2992
4138.955	3054
4140.513	3071
4142.071	3129
4143.628	3051
4145.188	3012
4146.745	2982
4148.302	3021
4149.858	3066
4151.414	2965
4152.971	3009
4154.526	2953
4156.081	3069
4157.635	2982
4159.189	3056
4160.745	2940
4162.298	2981
4163.852	3069
4165.405	2968
4166.957	3005
4168.51	3027
4170.063	2943
4171.614	2983
4173.166	2933
4174.717	2914
4176.267	2931
4177.817	3031
4179.368	3003
4180.917	2960
4182.466	2921
4184.016	2972
4185.564	2913
4187.112	2872
4188.66	2974
4190.207	2947
4191.754	3003
4193.301	2817
4194.848	2912
4196.394	2879
4197.94	2911
4199.484	2886
4201.03	2948
4202.575	2838
4204.12	2926
4205.663	2916
4207.207	2867
4208.75	2917
4210.292	2899
4211.836	2854
4213.378	2874
4214.92	2899
4216.46	2911
4218.002	2868
4219.544	2796
4221.083	2891
4222.625	2862
4224.164	2861
4225.703	2876
4227.244	2876
4228.782	2821
4230.32	2899
4231.857	2888
4233.395	2842
4234.933	2857
4236.471	2814
4238.007	2849
4239.542	2798
4241.078	2899
4242.614	2872
4244.15	2853
4245.685	2807
4247.219	2788
4248.753	2803
4250.287	2809
4251.82	2884
4253.354	2842
4254.887	2800
4256.419	2831
4257.951	2840
4259.483	2800
4261.016	2825
4262.547	2871
4264.078	2815
4265.608	2928
4267.137	2836
4268.668	2847
4270.197	2755
4271.727	2779
4273.254	2766
4274.783	2786
4276.311	2840
4277.84	2807
4279.366	2764
4280.894	2746
4282.42	2747
4283.946	2761
4285.473	2767
4286.998	2760
4288.523	2750
4290.047	2770
4291.572	2760
4293.096	2731
4294.622	2819
4296.144	2746
4297.668	2797
4299.19	2687
4300.713	2752
4302.236	2680
4303.758	2653
4305.279	2725
4306.799	2727
4308.321	2750
4309.842	2736
4311.361	2737
4312.882	2698
4314.401	2679
