400.0961	4736
402.6185	4846
405.1424	4789
407.6635	4822
410.1838	4797
412.7035	4780
415.2225	4739
417.7388	4832
420.2585	4921
422.7754	4942
425.2917	4972
427.8072	5011
430.3221	5125
432.8363	5106
435.3498	5149
437.8626	5031
440.3727	5077
442.8841	5082
445.3969	5244
447.907	5099
450.4142	5053
452.9229	5026
455.4289	5107
457.9362	5034
460.4449	4999
462.9488	5090
465.454	5209
467.9566	5059
470.4604	5107
472.9637	5062
475.4662	5162
477.966	5095
480.4671	5081
482.9656	5162
485.4633	5151
487.9645	5250
490.4608	5188
492.9566	5107
495.4536	5199
497.948	5235
500.4437	5282
502.9387	5276
505.431	5233
507.9226	5243
510.4136	5207
512.9079	5176
515.3975	5267
517.8864	5254
520.3746	5209
522.8622	5295
525.3491	5275
527.8394	5301
530.3249	5377
532.8098	5208
535.2939	5294
537.7774	5384
540.2623	5254
542.7444	5371
545.2259	5256
547.7067	5397
550.1868	5365
552.6683	5335
555.147	5329
557.6231	5506
560.1005	5420
562.5773	5310
565.0534	5372
567.5308	5375
570.0056	5294
572.4776	5632
574.951	5383
577.4237	5448
579.8978	5492
582.3671	5534
584.8378	5442
587.3079	5641
589.7773	5580
592.244	5483
594.714	5447
597.1793	5510
599.6461	5554
602.1121	5502
604.5754	5446
607.0421	5515
609.5042	5432
611.9675	5568
614.4282	5420
616.8902	5494
619.3515	5494
621.8122	5424
624.2702	5471
626.7296	5478
629.1863	5502
631.6423	5448
634.1017	5465
636.5563	5462
639.0104	5343
641.4658	5551
643.9185	5499
646.3725	5534
648.8239	5537
651.2766	5558
653.7266	5573
656.176	5516
658.6247	5558
661.0748	5533
663.5242	5466
665.9709	5687
668.417	5644
670.8624	5565
673.3092	5675
675.7533	5675
678.1968	5680
680.6395	5695
683.0817	5600
685.5251	5679
687.9659	5697
690.4061	5640
692.8456	5614
695.2844	5640
697.7226	5736
700.1621	5753
702.599	5658
705.0332	5762
707.4688	5679
709.9036	5738
712.3399	5839
714.7735	5755
717.2044	5822
719.6367	5823
722.0683	5796
724.4993	5796
726.9296	5836
729.3593	5778
731.7883	5801
734.2147	5841
736.6423	5815
739.0714	5976
741.4958	5929
743.9216	5872
746.3447	5908
748.7691	5921
751.1929	6060
753.616	6013
756.0366	6076
758.4584	6061
760.8776	5956
763.2982	6084
765.718	6028
768.1373	6100
770.5539	6071
772.9698	6178
775.3871	6096
777.8038	6067
780.2178	6096
782.6332	5991
785.0459	6011
787.458	6065
789.8714	6052
792.2842	6193
794.6943	6058
797.1038	6035
799.5127	6039
801.9209	6072
804.3324	6121
806.7393	6155
809.1456	6157
811.5513	6174
813.9562	6228
816.3625	6195
818.7663	6271
821.1693	6167
823.5718	6198
825.9735	6147
828.3746	6128
830.7771	6171
833.177	6210
835.5762	6239
837.9747	6157
840.3727	6256
842.772	6247
845.1666	6244
847.5626	6197
849.958	6301
852.3527	6274
854.7488	6326
857.1403	6319
859.5331	6320
861.9253	6314
864.3168	6279
866.7057	6303
869.098	6216
871.4876	6295
873.8746	6214
876.263	6353
878.6487	6331
881.0378	6215
883.4243	6289
885.8081	6295
888.1933	6272
890.5759	6307
892.9598	6288
895.343	6264
897.7256	6246
900.1057	6231
902.4871	6252
904.8659	6301
907.246	6231
909.6254	6364
912.0023	6436
914.3786	6463
916.7562	6560
919.1331	6589
921.5074	6585
923.8831	6681
926.2562	6644
928.6287	6769
931.0005	6630
933.3757	6681
935.7462	6663
938.1162	6582
940.4855	6625
942.8542	6752
945.2242	6806
947.5916	6906
949.9584	6917
952.3266	7076
954.6921	7204
957.0571	7298
959.4233	7675
961.787	7625
964.15	7536
966.5125	7414
968.8742	7030
971.2354	6934
973.5959	6737
975.9559	6702
978.3151	6628
980.6738	6523
983.0338	6656
985.3912	6573
987.7461	6483
990.1022	6515
992.4578	6492
994.8127	6638
997.1689	6522
999.5207	6526
1001.874	6579
1004.226	6648
1006.576	6612
1008.929	6591
1011.28	6514
1013.628	6725
1015.977	6470
1018.324	6553
1020.674	6504
1023.019	6669
1025.366	6553
1027.713	6520
1030.056	6636
1032.399	6623
1034.746	6720
1037.087	6618
1039.431	6699
1041.771	6623
1044.113	6620
1046.454	6577
1048.793	6567
1051.133	6596
1053.471	6685
1055.807	6738
1058.146	6755
1060.483	6531
1062.818	6699
1065.153	6708
1067.489	6718
1069.822	6722
1072.156	6825
1074.488	6635
1076.82	6784
1079.15	6647
1081.48	6617
1083.814	6804
1086.143	6655
1088.471	6768
1090.799	6706
1093.126	6619
1095.452	6673
1097.78	6723
1100.105	6662
1102.43	6886
1104.754	6617
1107.077	6686
1109.4	6763
1111.722	6726
1114.044	6797
1116.365	6654
1118.685	6767
1121.005	6781
1123.324	6760
1125.643	6874
1127.961	6826
1130.278	6806
1132.595	6886
1134.911	6797
1137.226	6744
1139.541	6715
1141.854	6620
1144.167	6730
1146.482	6783
1148.793	6634
1151.105	6670
1153.414	6694
1155.725	6652
1158.033	6671
1160.344	6879
1162.651	6706
1164.959	6692
1167.265	6721
1169.572	6802
1171.878	6655
1174.184	6749
1176.488	6791
1178.79	6878
1181.094	6743
1183.396	6703
1185.699	6732
1188.001	6714
1190.301	6723
1192.6	6845
1194.9	6787
1197.2	6742
1199.497	6808
1201.794	6800
1204.09	6760
1206.387	6687
1208.684	6859
1210.978	6775
1213.272	6753
1215.565	6734
1217.858	6733
1220.15	6871
1222.443	6839
1224.734	6752
1227.024	7050
1229.313	6797
1231.602	6943
1233.892	7028
1236.18	6980
1238.467	7043
1240.754	7013
1243.04	6988
1245.325	7231
1247.612	7227
1249.896	7113
1252.178	7088
1254.461	7181
1256.743	7129
1259.027	7147
1261.308	7052
1263.587	6966
1265.867	7046
1268.146	7126
1270.425	7143
1272.703	7070
1274.981	7149
1277.256	7082
1279.532	7027
1281.808	7085
1284.083	7077
1286.358	6975
1288.63	6969
1290.904	6961
1293.175	6959
1295.449	7051
1297.719	7126
1299.99	7001
1302.259	7072
1304.529	6942
1306.798	7039
1309.065	7052
1311.333	7177
1313.599	6957
1315.866	6973
1318.131	6877
1320.396	7030
1322.66	6884
1324.925	6936
1327.187	6970
1329.448	6999
1331.711	7050
1333.974	7108
1336.234	7094
1338.493	7128
1340.752	6998
1343.01	6982
1345.269	7006
1347.526	6969
1349.784	6917
1352.04	6942
1354.295	6914
1356.552	6945
1358.806	6999
1361.059	7058
1363.312	6976
1365.564	6963
1367.818	6997
1370.069	7056
1372.318	7044
1374.568	6926
1376.817	7046
1379.066	7089
1381.316	7215
1383.564	7066
1385.809	7082
1388.056	7198
1390.301	7118
1392.549	7161
1394.793	7344
1397.036	7380
1399.279	7267
1401.522	7221
1403.763	7371
1406.007	7209
1408.248	7282
1410.487	7329
1412.727	7232
1414.965	7290
1417.205	7326
1419.442	7250
1421.68	7245
1423.915	7244
1426.152	7226
1428.388	7121
1430.623	7309
1432.857	7380
1435.091	7397
1437.323	7347
1439.556	7305
1441.789	7407
1444.019	7362
1446.25	7398
1448.48	7358
1450.708	7329
1452.938	7437
1455.167	7546
1457.394	7614
1459.62	7455
1461.846	7434
1464.073	7274
1466.299	7355
1468.523	7276
1470.746	7246
1472.969	7217
1475.191	7236
1477.415	7286
1479.636	7124
1481.858	7132
1484.078	7066
1486.298	7056
1488.518	7074
1490.736	7104
1492.954	6993
1495.169	7025
1497.386	7085
1499.602	7012
1501.819	7089
1504.034	7044
1506.248	7028
1508.462	6918
1510.675	7014
1512.888	6921
1515.1	6975
1517.311	7112
1519.522	6971
1521.732	6970
1523.942	7082
1526.151	6935
1528.36	7108
1530.566	6921
1532.773	7145
1534.98	7047
1537.187	7076
1539.392	7024
1541.596	7082
1543.801	6947
1546.005	7050
1548.208	7122
1550.411	6941
1552.612	7086
1554.814	7099
1557.013	7025
1559.212	7064
1561.414	7085
1563.612	7172
1565.811	7217
1568.007	7225
1570.203	7145
1572.403	7162
1574.598	7246
1576.792	7258
1578.988	7232
1581.181	7135
1583.376	7234
1585.568	7197
1587.761	7163
1589.952	7231
1592.143	7314
1594.333	7215
1596.524	7333
1598.715	7260
1600.903	7255
1603.091	7288
1605.278	7516
1607.466	7250
1609.652	7226
1611.838	7346
1614.023	7304
1616.207	7236
1618.391	7195
1620.576	7299
1622.759	7332
1624.941	7291
1627.123	7284
1629.304	7284
1631.484	7459
1633.664	7308
1635.844	7322
1638.022	7352
1640.201	7342
1642.38	7365
1644.556	7398
1646.732	7346
1648.908	7415
1651.084	7412
1653.257	7420
1655.433	7391
1657.607	7458
1659.779	7469
1661.951	7326
1664.122	7480
1666.295	7371
1668.467	7469
1670.635	7449
1672.805	7407
1674.973	7405
1677.142	7413
1679.31	7342
1681.478	7403
1683.644	7496
1685.81	7493
1687.975	7290
1690.142	7393
1692.305	7409
1694.468	7347
1696.632	7304
1698.794	7353
1700.957	7201
1703.119	7435
1705.279	7350
1707.439	7203
1709.598	7165
1711.758	7182
1713.917	7215
1716.075	7204
1718.231	7199
1720.388	7213
1722.543	7249
1724.702	7206
1726.856	7258
1729.01	7286
1731.164	7270
1733.317	7227
1735.471	7232
1737.623	7297
1739.774	7317
1741.925	7302
1744.075	7123
1746.225	7136
1748.376	7332
1750.524	7209
1752.672	7267
1754.82	7268
1756.965	7376
1759.113	7246
1761.259	7255
1763.405	7242
1765.549	7351
1767.694	7218
1769.836	7202
1771.981	7349
1774.123	7218
1776.264	7349
1778.405	7353
1780.546	7261
1782.687	7310
1784.827	7234
1786.966	7284
1789.103	7357
1791.242	7409
1793.381	7277
1795.517	7402
1797.653	7351
1799.788	7308
1801.923	7266
1804.057	7304
1806.193	7286
1808.326	7311
1810.457	7388
1812.59	7253
1814.721	7297
1816.855	7409
1818.984	7371
1821.113	7315
1823.244	7415
1825.372	7301
1827.499	7281
1829.63	7259
1831.756	7333
1833.882	7243
1836.007	7280
1838.132	7226
1840.26	7351
1842.384	7327
1844.507	7342
1846.63	7335
1848.752	7192
1850.875	7206
1852.996	7313
1855.118	7174
1857.238	7170
1859.358	7272
1861.477	7177
1863.597	7185
1865.715	7220
1867.832	7132
1869.948	7284
1872.064	7167
1874.181	7158
1876.297	7153
1878.411	7267
1880.526	7268
1882.639	7264
1884.752	7212
1886.865	7324
1888.977	7328
1891.089	7275
1893.2	7285
1895.308	7306
1897.42	7312
1899.53	7408
1901.639	7271
1903.745	7242
1905.853	7322
1907.962	7408
1910.067	7312
1912.174	7332
1914.278	7315
1916.383	7275
1918.486	7186
1920.592	7315
1922.694	7265
1924.797	7491
1926.898	7285
1929	7481
1931.102	7346
1933.203	7481
1935.301	7409
1937.401	7395
1939.499	7268
1941.598	7251
1943.697	7398
1945.793	7313
1947.888	7323
1949.985	7382
1952.08	7468
1954.176	7419
1956.269	7290
1958.364	7342
1960.457	7182
1962.549	7440
1964.642	7309
1966.733	7320
1968.823	7295
1970.913	7262
1973.005	7335
1975.093	7237
1977.184	7330
1979.271	7332
1981.359	7292
1983.446	7329
1985.532	7290
1987.619	7218
1989.705	7299
1991.789	7182
1993.874	7353
1995.956	7367
1998.041	7348
2000.123	7216
2002.206	7279
2004.287	7300
2006.368	7274
2008.449	7250
2010.529	7275
2012.609	7205
2014.688	7260
2016.766	7250
2018.843	7250
2020.922	7317
2022.999	7153
2025.074	7300
2027.15	7258
2029.225	7348
2031.299	7346
2033.375	7353
2035.447	7263
2037.52	7333
2039.592	7263
2041.664	7356
2043.736	7239
2045.807	7217
2047.876	7286
2049.947	7206
2052.015	7210
2054.086	7226
2056.153	7261
2058.221	7181
2060.288	7284
2062.353	7336
2064.42	7200
2066.486	7263
2068.55	7352
2070.614	7339
2072.678	7258
2074.741	7157
2076.805	7190
2078.866	7383
2080.929	7321
2082.99	7222
2085.049	7266
2087.109	7277
2089.17	7291
2091.228	7291
2093.286	7242
2095.344	7216
2097.4	7326
2099.46	7204
2101.516	7345
2103.572	7328
2105.626	7332
2107.679	7190
2109.735	7277
2111.788	7320
2113.841	7193
2115.894	7154
2117.945	7258
2119.997	7220
2122.049	7239
2124.1	7259
2126.148	7247
2128.197	7245
2130.246	7255
2132.296	7202
2134.342	7263
2136.39	7236
2138.437	7241
2140.483	7218
2142.527	7271
2144.574	7168
2146.619	7168
2148.661	7392
2150.705	7249
2152.747	7271
2154.792	7271
2156.832	7206
2158.874	7240
2160.915	7268
2162.954	7109
2164.995	7208
2167.034	7165
2169.072	7132
2171.111	7255
2173.148	7165
2175.186	7203
2177.223	7131
2179.258	7217
2181.294	7228
2183.328	7175
2185.362	7097
2187.398	7129
2189.431	7125
2191.463	7147
2193.495	7114
2195.528	7150
2197.56	7117
2199.59	7114
2201.62	7070
2203.649	7078
2205.678	7133
2207.708	7112
2209.737	7186
2211.764	6986
2213.791	7025
2215.817	7040
2217.843	7004
2219.87	7103
2221.895	7086
2223.919	7005
2225.942	6912
2227.966	7030
2229.988	7088
2232.012	7019
2234.032	7080
2236.054	6910
2238.074	7047
2240.095	7129
2242.116	7101
2244.135	6991
2246.153	7043
2248.171	7116
2250.188	7078
2252.208	6902
2254.223	7087
2256.239	7031
2258.255	7113
2260.269	6991
2262.283	7062
2264.3	7004
2266.312	6907
2268.325	6997
2270.336	7072
2272.349	6986
2274.362	7034
2276.372	7007
2278.383	7104
2280.392	6990
2282.402	7102
2284.409	7027
2286.418	7054
2288.427	6989
2290.433	7011
2292.441	6995
2294.446	7051
2296.453	7094
2298.459	7047
2300.463	6887
2302.466	7020
2304.471	7034
2306.475	7027
2308.477	7064
2310.478	6905
2312.481	7003
2314.481	7075
2316.481	6971
2318.482	6972
2320.482	6902
2322.48	6939
2324.48	6947
2326.478	6972
2328.476	6826
2330.473	7029
2332.469	6836
2334.465	7012
2336.46	6914
2338.454	6888
2340.45	6909
2342.444	6810
2344.437	6798
2346.43	6982
2348.421	6848
2350.414	6900
2352.405	6808
2354.396	6989
2356.386	6883
2358.376	6869
2360.366	6760
2362.355	6806
2364.343	6950
2366.331	6842
2368.317	6860
2370.304	6758
2372.292	6883
2374.278	6837
2376.262	6914
2378.247	6898
2380.23	6837
2382.216	6906
2384.199	6808
2386.181	6856
2388.163	6784
2390.144	6659
2392.127	6899
2394.107	6906
2396.087	6834
2398.066	6718
2400.046	6900
2402.023	6779
2404.004	6745
2405.981	6702
2407.957	6822
2409.934	6792
2411.91	6773
2413.886	6828
2415.862	6775
2417.836	6667
2419.809	6791
2421.784	6734
2423.756	6732
2425.73	6756
2427.701	6863
2429.672	6797
2431.644	6763
2433.615	6757
2435.586	6688
2437.555	6817
2439.523	6720
2441.491	6699
2443.459	6813
2445.428	6733
2447.395	6774
2449.361	6669
2451.327	6895
2453.292	6759
2455.257	6825
2457.223	6694
2459.187	6684
2461.15	6790
2463.113	6717
2465.076	6718
2467.039	6666
2468.999	6744
2470.96	6820
2472.921	6743
2474.881	6628
2476.841	6740
2478.8	6733
2480.759	6737
2482.717	6605
2484.675	6688
2486.63	6746
2488.589	6712
2490.545	6753
2492.5	6630
2494.455	6663
2496.408	6718
2498.364	6648
2500.318	6671
2502.27	6679
2504.223	6720
2506.174	6618
2508.126	6634
2510.078	6628
2512.03	6730
2513.979	6576
2515.927	6597
2517.877	6656
2519.826	6621
2521.775	6590
2523.722	6674
2525.668	6648
2527.616	6684
2529.561	6586
2531.508	6645
2533.452	6719
2535.398	6642
2537.342	6657
2539.284	6591
2541.229	6681
2543.173	6729
2545.114	6495
2547.055	6749
2548.996	6601
2550.938	6533
2552.878	6638
2554.817	6612
2556.756	6718
2558.695	6599
2560.633	6579
2562.572	6523
2564.509	6602
2566.445	6552
2568.382	6658
2570.317	6621
2572.254	6638
2574.189	6713
2576.123	6678
2578.057	6661
2579.99	6606
2581.923	6645
2583.855	6568
2585.788	6651
2587.719	6605
2589.65	6552
2591.579	6605
2593.511	6611
2595.44	6632
2597.37	6556
2599.297	6635
2601.225	6663
2603.153	6606
2605.08	6550
2607.007	6650
2608.932	6631
2610.858	6605
2612.782	6624
2614.709	6519
2616.632	6608
2618.556	6618
2620.478	6612
2622.401	6674
2624.324	6591
2626.247	6584
2628.167	6570
2630.088	6488
2632.008	6516
2633.928	6525
2635.848	6698
2637.766	6672
2639.684	6578
2641.603	6474
2643.519	6463
2645.437	6558
2647.353	6674
2649.27	6600
2651.184	6657
2653.099	6547
2655.014	6667
2656.928	6647
2658.842	6645
2660.755	6522
2662.667	6575
2664.579	6572
2666.491	6603
2668.402	6474
2670.312	6524
2672.222	6475
2674.132	6526
2676.042	6585
2677.951	6589
2679.859	6592
2681.766	6601
2683.674	6517
2685.582	6518
2687.488	6570
2689.392	6455
2691.298	6573
2693.202	6579
2695.107	6528
2697.012	6490
2698.914	6476
2700.817	6459
2702.72	6568
2704.622	6462
2706.524	6479
2708.425	6523
2710.326	6544
2712.225	6545
2714.125	6409
2716.024	6597
2717.923	6330
2719.822	6445
2721.719	6498
2723.616	6419
2725.512	6473
2727.41	6459
2729.305	6568
2731.201	6505
2733.095	6522
2734.99	6450
2736.884	6426
2738.778	6487
2740.67	6549
2742.562	6440
2744.455	6454
2746.346	6437
2748.238	6426
2750.129	6436
2752.018	6394
2753.907	6432
2755.797	6482
2757.687	6348
2759.575	6538
2761.462	6483
2763.349	6403
2765.237	6509
2767.124	6372
2769.009	6426
2770.894	6574
2772.779	6385
2774.663	6359
2776.547	6457
2778.431	6473
2780.314	6420
2782.197	6357
2784.078	6381
2785.96	6258
2787.842	6411
2789.723	6324
2791.603	6330
2793.483	6289
2795.362	6396
2797.241	6360
2799.121	6355
2800.997	6384
2802.874	6387
2804.751	6397
2806.628	6323
2808.506	6411
2810.38	6359
2812.255	6400
2814.13	6378
2816.003	6365
2817.878	6348
2819.752	6384
2821.623	6470
2823.496	6398
2825.368	6342
2827.238	6199
2829.111	6309
2830.98	6308
2832.851	6453
2834.719	6441
2836.589	6437
2838.458	6372
2840.327	6222
2842.193	6475
2844.061	6384
2845.927	6400
2847.794	6443
2849.66	6397
2851.525	6482
2853.39	6416
2855.254	6421
2857.117	6426
2858.983	6397
2860.845	6637
2862.707	6460
2864.569	6661
2866.431	6529
2868.293	6533
2870.154	6709
2872.013	6755
2873.873	6714
2875.733	6759
2877.592	6877
2879.451	6756
2881.309	6941
2883.166	6949
2885.022	6943
2886.879	7110
2888.736	6884
2890.591	7101
2892.446	7131
2894.301	6972
2896.155	7058
2898.009	7088
2899.863	6992
2901.716	7007
2903.568	6932
2905.419	7085
2907.27	6873
2909.123	6927
2910.973	6856
2912.824	7060
2914.673	7002
2916.521	7051
2918.372	7175
2920.22	7114
2922.067	7258
2923.914	7160
2925.761	7314
2927.607	7378
2929.455	7258
2931.301	7427
2933.144	7433
2934.99	7552
2936.833	7396
2938.678	7594
2940.522	7487
2942.364	7736
2944.207	7736
2946.048	7753
2947.891	7845
2949.731	7924
2951.571	7809
2953.412	7915
2955.25	7689
2957.09	7766
2958.93	7703
2960.767	7605
2962.606	7713
2964.443	7545
2966.279	7528
2968.116	7415
2969.953	7255
2971.788	7256
2973.623	7112
2975.457	7082
2977.292	7203
2979.127	7113
2980.959	6961
2982.792	7034
2984.624	6856
2986.455	6952
2988.288	6915
2990.119	6748
2991.949	6759
2993.779	6778
2995.608	6656
2997.439	6571
2999.268	6660
3001.096	6511
3002.923	6650
3004.751	6391
3006.578	6559
3008.406	6409
3010.232	6398
3012.057	6243
3013.883	6312
3015.706	6340
3017.532	6135
3019.356	6069
3021.179	6203
3023.002	6119
3024.823	6165
3026.646	5993
3028.469	6053
3030.289	6044
3032.11	5871
3033.93	6002
3035.749	6036
3037.57	5911
3039.39	5982
3041.207	5863
3043.026	5936
3044.842	6002
3046.661	5936
3048.477	6102
3050.294	6013
3052.109	5873
3053.925	5979
3055.739	5941
3057.555	5983
3059.368	5964
3061.181	5922
3062.995	5827
3064.807	5971
3066.62	5829
3068.433	6014
3070.243	5999
3072.054	5978
3073.865	5903
3075.675	5970
3077.485	5989
3079.293	5935
3081.102	5842
3082.911	5903
3084.719	5826
3086.527	5754
3088.333	5911
3090.139	5864
3091.945	5743
3093.75	5809
3095.557	5781
3097.361	5751
3099.165	5791
3100.969	5775
3102.772	5739
3104.575	5745
3106.379	5786
3108.181	5761
3109.982	5723
3111.783	5651
3113.584	5656
3115.386	5658
3117.186	5797
3118.985	5677
3120.783	5707
3122.582	5708
3124.381	5695
3126.179	5720
3127.975	5610
3129.772	5699
3131.569	5657
3133.365	5670
3135.161	5665
3136.956	5612
3138.751	5650
3140.544	5634
3142.338	5548
3144.132	5573
3145.925	5584
3147.717	5492
3149.509	5703
3151.301	5608
3153.091	5650
3154.884	5656
3156.673	5667
3158.462	5643
3160.252	5586
3162.041	5562
3163.831	5598
3165.618	5643
3167.405	5580
3169.193	5532
3170.979	5618
3172.767	5639
3174.553	5584
3176.338	5607
3178.123	5566
3179.907	5522
3181.692	5450
3183.477	5571
3185.259	5609
3187.042	5497
3188.824	5545
3190.607	5585
3192.389	5634
3194.17	5631
3195.951	5548
3197.73	5511
3199.51	5554
3201.289	5535
3203.07	5513
3204.848	5538
3206.626	5533
3208.403	5565
3210.18	5467
3211.959	5451
3213.735	5419
3215.511	5395
3217.285	5461
3219.06	5461
3220.836	5482
3222.611	5530
3224.384	5449
3226.158	5444
3227.929	5404
3229.702	5353
3231.476	5458
3233.248	5440
3235.018	5440
3236.789	5467
3238.56	5428
3240.33	5499
3242.1	5495
3243.869	5470
3245.637	5386
3247.405	5508
3249.172	5564
3250.941	5361
3252.707	5535
3254.474	5394
3256.24	5533
3258.006	5489
3259.772	5396
3261.537	5483
3263.301	5517
3265.065	5495
3266.828	5446
3268.592	5510
3270.355	5489
3272.117	5367
3273.878	5544
3275.64	5579
3277.401	5474
3279.162	5391
3280.922	5505
3282.682	5429
3284.441	5473
3286.199	5475
3287.959	5417
3289.716	5409
3291.475	5493
3293.232	5517
3294.988	5469
3296.744	5363
3298.501	5523
3300.256	5366
3302.011	5447
3303.766	5351
3305.52	5493
3307.275	5427
3309.028	5413
3310.781	5459
3312.533	5436
3314.285	5425
3316.038	5376
3317.789	5444
3319.54	5404
3321.289	5477
3323.039	5394
3324.789	5438
3326.539	5522
3328.288	5418
3330.035	5358
3331.783	5448
3333.531	5481
3335.28	5461
3337.025	5391
3338.771	5425
3340.518	5357
3342.262	5386
3344.009	5342
3345.753	5350
3347.497	5338
3349.24	5414
3350.983	5334
3352.726	5366
3354.469	5303
3356.212	5254
3357.952	5301
3359.694	5341
3361.434	5286
3363.176	5301
3364.916	5222
3366.654	5348
3368.394	5171
3370.132	5251
3371.871	5203
3373.61	5324
3375.346	5234
3377.083	5288
3378.82	5292
3380.556	5261
3382.292	5267
3384.027	5249
3385.763	5189
3387.497	5182
3389.231	5244
3390.965	5235
3392.698	5261
3394.431	5195
3396.164	5226
3397.896	5293
3399.627	5189
3401.36	5142
3403.09	5290
3404.82	5248
3406.55	5273
3408.279	5151
3410.01	5240
3411.738	5156
3413.467	5179
3415.194	5149
3416.92	5125
3418.647	5171
3420.375	5069
3422.102	5068
3423.827	5129
3425.553	5196
3427.277	5187
3429.003	5106
3430.727	5153
3432.451	5163
3434.173	5037
3435.896	5114
3437.62	5124
3439.343	5140
3441.063	5109
3442.785	5081
3444.505	4928
3446.226	5051
3447.948	4978
3449.666	5025
3451.386	5053
3453.104	5081
3454.823	5007
3456.541	5020
3458.259	5129
3459.976	4995
3461.693	4980
3463.408	4934
3465.125	4921
3466.841	4923
3468.556	4977
3470.271	5019
3471.985	4919
3473.698	4924
3475.414	4901
3477.126	4948
3478.838	4859
3480.55	4812
3482.263	4842
3483.975	4831
3485.686	4852
3487.396	4821
3489.106	4770
3490.817	4860
3492.526	4789
3494.236	5005
3495.944	4820
3497.652	4849
3499.359	4869
3501.066	4855
3502.775	4737
3504.481	4769
3506.187	4864
3507.893	4889
3509.598	4858
3511.304	4730
3513.009	4704
3514.713	4741
3516.417	4849
3518.12	4797
3519.821	4802
3521.525	4770
3523.228	4805
3524.929	4902
3526.631	4784
3528.33	4680
3530.032	4738
3531.733	4787
3533.433	4768
3535.131	4749
3536.83	4750
3538.529	4730
3540.227	4652
3541.925	4739
3543.623	4707
3545.319	4696
3547.016	4669
3548.712	4826
3550.408	4783
3552.103	4612
3553.798	4675
3555.491	4722
3557.188	4699
3558.88	4544
3560.574	4671
3562.266	4575
3563.959	4618
3565.651	4582
3567.343	4658
3569.035	4606
3570.725	4644
3572.415	4623
3574.106	4575
3575.797	4658
3577.485	4613
3579.174	4602
3580.863	4682
3582.551	4552
3584.238	4456
3585.926	4618
3587.613	4573
3589.3	4562
3590.986	4585
3592.671	4582
3594.357	4455
3596.042	4431
3597.726	4532
3599.41	4540
3601.094	4434
3602.778	4571
3604.461	4457
3606.143	4483
3607.825	4408
3609.507	4433
3611.188	4462
3612.87	4494
3614.551	4472
3616.229	4480
3617.909	4492
3619.589	4437
3621.269	4423
3622.948	4406
3624.625	4419
3626.302	4453
3627.98	4275
3629.657	4336
3631.334	4426
3633.01	4373
3634.686	4391
3636.361	4462
3638.036	4309
3639.712	4277
3641.385	4357
3643.06	4386
3644.732	4379
3646.405	4343
3648.08	4344
3649.751	4363
3651.424	4387
3653.094	4262
3654.766	4350
3656.436	4298
3658.106	4335
3659.777	4212
3661.446	4249
3663.115	4306
3664.783	4238
3666.452	4267
3668.121	4312
3669.788	4214
3671.454	4198
3673.121	4277
3674.789	4278
3676.455	4270
3678.12	4245
3679.784	4272
3681.45	4216
3683.114	4156
3684.779	4187
3686.442	4155
3688.105	4192
3689.768	4246
3691.43	4217
3693.093	4198
3694.754	4239
3696.415	4317
3698.076	4198
3699.736	4136
3701.396	4191
3703.057	4258
3704.716	4153
3706.375	4153
3708.034	4225
3709.692	4123
3711.351	4116
3713.008	4131
3714.665	4134
3716.321	4095
3717.977	4261
3719.634	4171
3721.29	4225
3722.945	4164
3724.598	4172
3726.253	4138
3727.907	4160
3729.561	4071
3731.214	4120
3732.867	4195
3734.518	4143
3736.171	4117
3737.824	4129
3739.474	4114
3741.125	4078
3742.775	4041
3744.425	4140
3746.074	4098
3747.725	4190
3749.373	4122
3751.022	4015
3752.669	4090
3754.318	4078
3755.966	4139
3757.612	4045
3759.259	4113
3760.905	4106
3762.55	4065
3764.197	4031
3765.842	4012
3767.486	4084
3769.131	3984
3770.774	4017
3772.417	4013
3774.061	4061
3775.705	4044
3777.347	4012
3778.988	4015
3780.629	3990
3782.271	4014
3783.912	4062
3785.552	4024
3787.192	4024
3788.831	3991
3790.472	3857
3792.112	3958
3793.75	3960
3795.388	3989
3797.024	3854
3798.661	3966
3800.3	3936
3801.936	4009
3803.572	3873
3805.208	3949
3806.844	4036
3808.48	3995
3810.115	3875
3811.748	3951
3813.382	3968
3815.016	3971
3816.649	3944
3818.283	3888
3819.914	3896
3821.547	3942
3823.178	3915
3824.809	3861
3826.441	3956
3828.072	3896
3829.701	3933
3831.331	3929
3832.96	3891
3834.591	3892
3836.219	3934
3837.847	3760
3839.475	3886
3841.102	3908
3842.729	3864
3844.357	3897
3845.984	3863
3847.609	3820
3849.234	3871
3850.86	3855
3852.485	3797
3854.11	3833
3855.734	3754
3857.357	3839
3858.981	3853
3860.603	3826
3862.227	3855
3863.848	3762
3865.471	3866
3867.092	3772
3868.713	3804
3870.334	3801
3871.954	3813
3873.575	3792
3875.194	3811
3876.813	3825
3878.433	3873
3880.051	3790
3881.669	3771
3883.286	3764
3884.904	3716
3886.52	3777
3888.138	3768
3889.754	3794
3891.37	3687
3892.985	3773
3894.6	3775
3896.216	3782
3897.831	3802
3899.444	3723
3901.058	3724
3902.67	3792
3904.283	3721
3905.897	3657
3907.509	3840
3909.121	3683
3910.731	3761
3912.342	3653
3913.954	3755
3915.563	3718
3917.174	3839
3918.783	3679
3920.391	3795
3922.002	3686
3923.611	3744
3925.218	3722
3926.826	3668
3928.432	3635
3930.039	3739
3931.647	3727
3933.253	3706
3934.859	3734
3936.464	3677
3938.068	3702
3939.675	3707
3941.278	3628
3942.883	3771
3944.486	3565
3946.089	3679
3947.692	3611
3949.295	3609
3950.898	3753
3952.499	3647
3954.1	3639
3955.7	3629
3957.303	3691
3958.903	3677
3960.502	3617
3962.101	3614
3963.7	3662
3965.301	3630
3966.899	3636
3968.497	3659
3970.094	3644
3971.691	3609
3973.288	3672
3974.885	3529
3976.481	3610
3978.077	3588
3979.672	3562
3981.267	3600
3982.863	3519
3984.457	3616
3986.051	3525
3987.645	3610
3989.238	3525
3990.831	3517
3992.425	3530
3994.017	3487
3995.607	3515
3997.199	3547
3998.79	3445
4000.382	3471
4001.973	3569
4003.561	3458
4005.151	3479
4006.741	3514
4008.331	3516
4009.918	3431
4011.507	3455
4013.095	3467
4014.681	3523
4016.269	3609
4017.856	3524
4019.443	3423
4021.028	3447
4022.614	3463
4024.199	3428
4025.785	3503
4027.37	3427
4028.953	3427
4030.536	3410
4032.12	3368
4033.704	3373
4035.287	3443
4036.869	3379
4038.45	3449
4040.032	3353
4041.613	3404
4043.195	3401
4044.776	3376
4046.356	3379
4047.935	3412
4049.515	3375
4051.095	3335
4052.674	3355
4054.251	3460
4055.829	3404
4057.406	3413
4058.985	3403
4060.562	3300
4062.139	3383
4063.715	3307
4065.29	3256
4066.865	3396
4068.442	3349
4070.016	3351
4071.59	3404
4073.164	3330
4074.738	3364
4076.312	3294
4077.885	3257
4079.458	3335
4081.03	3259
4082.602	3224
4084.173	3353
4085.745	3288
4087.315	3305
4088.886	3312
4090.456	3364
4092.026	3344
4093.596	3261
4095.165	3269
4096.734	3292
4098.301	3331
4099.869	3318
4101.437	3285
4103.006	3290
4104.572	3246
4106.139	3283
4107.704	3336
4109.27	3155
4110.837	3268
4112.401	3268
4113.966	3187
4115.53	3218
4117.094	3200
4118.659	3210
4120.223	3232
4121.785	3239
4123.347	3209
4124.909	3209
4126.471	3184
4128.034	3189
4129.595	3259
4131.155	3186
4132.716	3280
4134.275	3123
4135.836	3160
4137.395	3170
4138.955	3235
4140.513	3167
4142.071	3049
4143.628	3211
4145.188	3224
4146.745	3144
4148.302	3181
4149.858	3154
4151.414	3256
4152.971	3115
4154.526	3084
4156.081	3167
4157.635	3089
4159.189	3144
4160.745	3175
4162.298	3140
4163.852	3097
4165.405	3116
4166.957	3042
4168.51	3132
4170.063	3110
4171.614	3143
4173.166	3059
4174.717	3026
4176.267	3181
4177.817	3127
4179.368	3102
4180.917	3082
4182.466	3088
4184.016	2966
4185.564	3044
4187.112	3049
4188.66	3053
4190.207	3054
4191.754	3003
4193.301	3059
4194.848	3073
4196.394	3025
4197.94	3022
4199.484	3112
4201.03	2978
4202.575	3030
4204.12	3044
4205.663	3065
4207.207	3001
4208.75	2914
4210.292	3007
4211.836	3048
4213.378	3107
4214.92	3049
4216.46	3015
4218.002	2953
4219.544	3024
4221.083	2980
4222.625	2967
4224.164	2927
4225.703	3028
4227.244	2945
4228.782	3088
4230.32	2983
4231.857	3001
4233.395	3028
4234.933	3010
4236.471	2922
4238.007	3000
4239.542	3060
4241.078	3002
4242.614	2956
4244.15	2967
4245.685	2972
4247.219	3059
4248.753	3021
4250.287	2993
4251.82	2967
4253.354	2916
4254.887	2908
4256.419	2890
4257.951	2965
4259.483	2983
4261.016	2993
4262.547	2904
4264.078	2908
4265.608	2901
4267.137	2888
4268.668	2913
4270.197	2962
4271.727	2950
4273.254	2928
4274.783	2908
4276.311	2873
4277.84	2934
4279.366	2915
4280.894	2854
4282.42	2855
4283.946	2910
4285.473	2854
4286.998	2830
4288.523	2805
4290.047	2875
4291.572	2883
4293.096	2934
4294.622	2870
4296.144	2799
4297.668	2891
4299.19	2901
4300.713	2828
4302.236	2890
4303.758	2801
4305.279	2814
4306.799	2820
4308.321	2911
4309.842	2879
4311.361	2793
4312.882	2849
4314.401	2882
