400.0961	2265
402.6185	2337
405.1424	2246
407.6635	2253
410.1838	2259
412.7035	2432
415.2225	2320
417.7388	2327
420.2585	2335
422.7754	2343
425.2917	2393
427.8072	2358
430.3221	2386
432.8363	2385
435.3498	2378
437.8626	2365
440.3727	2473
442.8841	2384
445.3969	2403
447.907	2443
450.4142	2406
452.9229	2418
455.4289	2429
457.9362	2461
460.4449	2391
462.9488	2410
465.454	2430
467.9566	2345
470.4604	2457
472.9637	2429
475.4662	2414
477.966	2343
480.4671	2378
482.9656	2524
485.4633	2462
487.9645	2466
490.4608	2404
492.9566	2462
495.4536	2459
497.948	2399
500.4437	2393
502.9387	2429
505.431	2408
507.9226	2426
510.4136	2487
512.9079	2477
515.3975	2435
517.8864	2481
520.3746	2456
522.8622	2495
525.3491	2455
527.8394	2385
530.3249	2500
532.8098	2523
535.2939	2546
537.7774	2488
540.2623	2483
542.7444	2544
545.2259	2436
547.7067	2564
550.1868	2476
552.6683	2540
555.147	2537
557.6231	2455
560.1005	2471
562.5773	2463
565.0534	2493
567.5308	2527
570.0056	2451
572.4776	2584
574.951	2596
577.4237	2624
579.8978	2579
582.3671	2615
584.8378	2548
587.3079	2598
589.7773	2590
592.244	2560
594.714	2584
597.1793	2624
599.6461	2569
602.1121	2579
604.5754	2514
607.0421	2560
609.5042	2665
611.9675	2590
614.4282	2619
616.8902	2589
619.3515	2582
621.8122	2546
624.2702	2506
626.7296	2643
629.1863	2540
631.6423	2596
634.1017	2513
636.5563	2550
639.0104	2565
641.4658	2523
643.9185	2564
646.3725	2594
648.8239	2636
651.2766	2545
653.7266	2557
656.176	2631
658.6247	2567
661.0748	2539
663.5242	2573
665.9709	2566
668.417	2572
670.8624	2548
673.3092	2627
675.7533	2652
678.1968	2644
680.6395	2649
683.0817	2681
685.5251	2615
687.9659	2677
690.4061	2692
692.8456	2714
695.2844	2653
697.7226	2630
700.1621	2694
702.599	2656
705.0332	2614
707.4688	2700
709.9036	2608
712.3399	2737
714.7735	2597
717.2044	2696
719.6367	2738
722.0683	2651
724.4993	2627
726.9296	2756
729.3593	2787
731.7883	2678
734.2147	2753
736.6423	2655
739.0714	2702
741.4958	2744
743.9216	2771
746.3447	2720
748.7691	2751
751.1929	2764
753.616	2714
756.0366	2766
758.4584	2747
760.8776	2828
763.2982	2786
765.718	2788
768.1373	2796
770.5539	2866
772.9698	2868
775.3871	2801
777.8038	2787
780.2178	2817
782.6332	2787
785.0459	2882
787.458	2785
789.8714	2777
792.2842	2768
794.6943	2864
797.1038	2824
799.5127	2805
801.9209	2833
804.3324	2789
806.7393	2773
809.1456	2804
811.5513	2853
813.9562	2889
816.3625	2826
818.7663	2829
821.1693	2826
823.5718	2818
825.9735	2917
828.3746	2771
830.7771	2832
833.177	2876
835.5762	2934
837.9747	2894
840.3727	2852
842.772	2861
845.1666	2868
847.5626	2850
849.958	2915
852.3527	2889
854.7488	2871
857.1403	2932
859.5331	2908
861.9253	2964
864.3168	2826
866.7057	2880
869.098	2953
871.4876	2833
873.8746	2956
876.263	2883
878.6487	2939
881.0378	2978
883.4243	2906
885.8081	2873
888.1933	2825
890.5759	2900
892.9598	2847
895.343	2817
897.7256	2920
900.1057	2836
902.4871	2895
904.8659	2872
907.246	2909
909.6254	2944
912.0023	2868
914.3786	2958
916.7562	2990
919.1331	2938
921.5074	3000
923.8831	2988
926.2562	2965
928.6287	3029
931.0005	3068
933.3757	2934
935.7462	3040
938.1162	3104
940.4855	3144
942.8542	3135
945.2242	3150
947.5916	3187
949.9584	3207
952.3266	3356
954.6921	3499
957.0571	3637
959.4233	3633
961.787	3682
964.15	3710
966.5125	3683
968.8742	3484
971.2354	3415
973.5959	3251
975.9559	3182
978.3151	3129
980.6738	3015
983.0338	3091
985.3912	3066
987.7461	2976
990.1022	3076
992.4578	3026
994.8127	3009
997.1689	3013
999.5207	3054
1001.874	3036
1004.226	3070
1006.576	3034
1008.929	3112
1011.28	3006
1013.628	3051
1015.977	3094
1018.324	3039
1020.674	3100
1023.019	3005
1025.366	3092
1027.713	3056
1030.056	3077
1032.399	3134
1034.746	2999
1037.087	3028
1039.431	3077
1041.771	3107
1044.113	3082
1046.454	3157
1048.793	3078
1051.133	3021
1053.471	3028
1055.807	3086
1058.146	3038
1060.483	3054
1062.818	3196
1065.153	3106
1067.489	3084
1069.822	3148
1072.156	3186
1074.488	3177
1076.82	3152
1079.15	3150
1081.48	3087
1083.814	3225
1086.143	3143
1088.471	3122
1090.799	3097
1093.126	3075
1095.452	3081
1097.78	3062
1100.105	3110
1102.43	3111
1104.754	3061
1107.077	3073
1109.4	3169
1111.722	3092
1114.044	3089
1116.365	3092
1118.685	3112
1121.005	3109
1123.324	3097
1125.643	3077
1127.961	3134
1130.278	3126
1132.595	3126
1134.911	3111
1137.226	3145
1139.541	3126
1141.854	3069
1144.167	3063
1146.482	3120
1148.793	3067
1151.105	3061
1153.414	3129
1155.725	3027
1158.033	3171
1160.344	3158
1162.651	3107
1164.959	3086
1167.265	3157
1169.572	3164
1171.878	3151
1174.184	3057
1176.488	3124
1178.79	3111
1181.094	3126
1183.396	3133
1185.699	3121
1188.001	3147
1190.301	3102
1192.6	3069
1194.9	3096
1197.2	3074
1199.497	3103
1201.794	3084
1204.09	3187
1206.387	3116
1208.684	3086
1210.978	3092
1213.272	3160
1215.565	3175
1217.858	3184
1220.15	3120
1222.443	3154
1224.734	3150
1227.024	3131
1229.313	3153
1231.602	3197
1233.892	3178
1236.18	3248
1238.467	3218
1240.754	3192
1243.04	3290
1245.325	3215
1247.612	3197
1249.896	3194
1252.178	3213
1254.461	3231
1256.743	3228
1259.027	3248
1261.308	3255
1263.587	3232
1265.867	3234
1268.146	3229
1270.425	3327
1272.703	3223
1274.981	3262
1277.256	3229
1279.532	3327
1281.808	3221
1284.083	3275
1286.358	3195
1288.63	3171
1290.904	3270
1293.175	3154
1295.449	3216
1297.719	3148
1299.99	3223
1302.259	3237
1304.529	3222
1306.798	3255
1309.065	3127
1311.333	3296
1313.599	3194
1315.866	3151
1318.131	3228
1320.396	3293
1322.66	3244
1324.925	3168
1327.187	3206
1329.448	3159
1331.711	3260
1333.974	3217
1336.234	3262
1338.493	3226
1340.752	3207
1343.01	3238
1345.269	3196
1347.526	3164
1349.784	3205
1352.04	3237
1354.295	3192
1356.552	3253
1358.806	3258
1361.059	3193
1363.312	3260
1365.564	3268
1367.818	3238
1370.069	3236
1372.318	3247
1374.568	3224
1376.817	3235
1379.066	3252
1381.316	3176
1383.564	3243
1385.809	3272
1388.056	3378
1390.301	3254
1392.549	3275
1394.793	3270
1397.036	3333
1399.279	3242
1401.522	3269
1403.763	3280
1406.007	3301
1408.248	3207
1410.487	3306
1412.727	3262
1414.965	3217
1417.205	3370
1419.442	3281
1421.68	3272
1423.915	3380
1426.152	3261
1428.388	3350
1430.623	3402
1432.857	3346
1435.091	3341
1437.323	3369
1439.556	3329
1441.789	3399
1444.019	3343
1446.25	3361
1448.48	3382
1450.708	3450
1452.938	3357
1455.167	3350
1457.394	3357
1459.62	3468
1461.846	3372
1464.073	3417
1466.299	3355
1468.523	3355
1470.746	3352
1472.969	3386
1475.191	3323
1477.415	3365
1479.636	3281
1481.858	3312
1484.078	3249
1486.298	3237
1488.518	3305
1490.736	3245
1492.954	3263
1495.169	3262
1497.386	3264
1499.602	3325
1501.819	3215
1504.034	3214
1506.248	3291
1508.462	3240
1510.675	3223
1512.888	3168
1515.1	3235
1517.311	3226
1519.522	3306
1521.732	3191
1523.942	3276
1526.151	3319
1528.36	3171
1530.566	3237
1532.773	3311
1534.98	3316
1537.187	3231
1539.392	3264
1541.596	3345
1543.801	3282
1546.005	3256
1548.208	3329
1550.411	3329
1552.612	3222
1554.814	3349
1557.013	3310
1559.212	3271
1561.414	3243
1563.612	3366
1565.811	3352
1568.007	3322
1570.203	3261
1572.403	3308
1574.598	3278
1576.792	3346
1578.988	3366
1581.181	3241
1583.376	3277
1585.568	3307
1587.761	3316
1589.952	3285
1592.143	3370
1594.333	3336
1596.524	3303
1598.715	3379
1600.903	3333
1603.091	3347
1605.278	3332
1607.466	3404
1609.652	3360
1611.838	3330
1614.023	3406
1616.207	3376
1618.391	3381
1620.576	3356
1622.759	3441
1624.941	3382
1627.123	3331
1629.304	3452
1631.484	3308
1633.664	3415
1635.844	3374
1638.022	3463
1640.201	3409
1642.38	3463
1644.556	3400
1646.732	3398
1648.908	3382
1651.084	3356
1653.257	3441
1655.433	3408
1657.607	3433
1659.779	3416
1661.951	3386
1664.122	3408
1666.295	3428
1668.467	3442
1670.635	3472
1672.805	3456
1674.973	3390
1677.142	3478
1679.31	3500
1681.478	3410
1683.644	3437
1685.81	3514
1687.975	3384
1690.142	3409
1692.305	3444
1694.468	3436
1696.632	3418
1698.794	3478
1700.957	3421
1703.119	3426
1705.279	3324
1707.439	3328
1709.598	3336
1711.758	3441
1713.917	3387
1716.075	3382
1718.231	3403
1720.388	3315
1722.543	3290
1724.702	3312
1726.856	3363
1729.01	3345
1731.164	3355
1733.317	3378
1735.471	3351
1737.623	3379
1739.774	3383
1741.925	3315
1744.075	3355
1746.225	3335
1748.376	3371
1750.524	3394
1752.672	3428
1754.82	3410
1756.965	3471
1759.113	3422
1761.259	3428
1763.405	3337
1765.549	3413
1767.694	3398
1769.836	3371
1771.981	3385
1774.123	3442
1776.264	3450
1778.405	3428
1780.546	3356
1782.687	3443
1784.827	3430
1786.966	3420
1789.103	3431
1791.242	3432
1793.381	3374
1795.517	3404
1797.653	3380
1799.788	3476
1801.923	3462
1804.057	3397
1806.193	3459
1808.326	3421
1810.457	3350
1812.59	3380
1814.721	3416
1816.855	3454
1818.984	3342
1821.113	3426
1823.244	3460
1825.372	3392
1827.499	3463
1829.63	3420
1831.756	3358
1833.882	3388
1836.007	3384
1838.132	3389
1840.26	3361
1842.384	3434
1844.507	3300
1846.63	3450
1848.752	3418
1850.875	3425
1852.996	3421
1855.118	3363
1857.238	3357
1859.358	3321
1861.477	3368
1863.597	3397
1865.715	3396
1867.832	3345
1869.948	3381
1872.064	3313
1874.181	3461
1876.297	3369
1878.411	3361
1880.526	3410
1882.639	3381
1884.752	3454
1886.865	3546
1888.977	3447
1891.089	3389
1893.2	3532
1895.308	3410
1897.42	3430
1899.53	3494
1901.639	3349
1903.745	3480
1905.853	3373
1907.962	3465
1910.067	3410
1912.174	3455
1914.278	3425
1916.383	3412
1918.486	3375
1920.592	3472
1922.694	3439
1924.797	3396
1926.898	3467
1929	3444
1931.102	3362
1933.203	3456
1935.301	3419
1937.401	3458
1939.499	3486
1941.598	3477
1943.697	3460
1945.793	3391
1947.888	3477
1949.985	3411
1952.08	3495
1954.176	3421
1956.269	3494
1958.364	3392
1960.457	3399
1962.549	3483
1964.642	3455
1966.733	3440
1968.823	3471
1970.913	3452
1973.005	3479
1975.093	3457
1977.184	3493
1979.271	3428
1981.359	3476
1983.446	3403
1985.532	3510
1987.619	3462
1989.705	3458
1991.789	3427
1993.874	3521
1995.956	3403
1998.041	3398
2000.123	3437
2002.206	3464
2004.287	3424
2006.368	3336
2008.449	3444
2010.529	3395
2012.609	3459
2014.688	3439
2016.766	3473
2018.843	3389
2020.922	3378
2022.999	3424
2025.074	3368
2027.15	3437
2029.225	3361
2031.299	3451
2033.375	3464
2035.447	3405
2037.52	3444
2039.592	3448
2041.664	3451
2043.736	3438
2045.807	3388
2047.876	3481
2049.947	3459
2052.015	3488
2054.086	3412
2056.153	3394
2058.221	3415
2060.288	3408
2062.353	3399
2064.42	3434
2066.486	3425
2068.55	3527
2070.614	3377
2072.678	3411
2074.741	3474
2076.805	3457
2078.866	3418
2080.929	3372
2082.99	3416
2085.049	3407
2087.109	3451
2089.17	3551
2091.228	3452
2093.286	3380
2095.344	3439
2097.4	3503
2099.46	3487
2101.516	3432
2103.572	3472
2105.626	3514
2107.679	3552
2109.735	3447
2111.788	3367
2113.841	3451
2115.894	3423
2117.945	3521
2119.997	3477
2122.049	3469
2124.1	3430
2126.148	3432
2128.197	3476
2130.246	3469
2132.296	3452
2134.342	3414
2136.39	3411
2138.437	3460
2140.483	3427
2142.527	3448
2144.574	3467
2146.619	3403
2148.661	3412
2150.705	3424
2152.747	3431
2154.792	3415
2156.832	3421
2158.874	3429
2160.915	3528
2162.954	3439
2164.995	3401
2167.034	3445
2169.072	3458
2171.111	3417
2173.148	3468
2175.186	3411
2177.223	3369
2179.258	3420
2181.294	3390
2183.328	3415
2185.362	3371
2187.398	3351
2189.431	3396
2191.463	3344
2193.495	3365
2195.528	3337
2197.56	3383
2199.59	3403
2201.62	3425
2203.649	3302
2205.678	3369
2207.708	3394
2209.737	3322
2211.764	3378
2213.791	3402
2215.817	3322
2217.843	3435
2219.87	3360
2221.895	3355
2223.919	3406
2225.942	3386
2227.966	3336
2229.988	3271
2232.012	3364
2234.032	3450
2236.054	3334
2238.074	3395
2240.095	3392
2242.116	3440
2244.135	3387
2246.153	3422
2248.171	3332
2250.188	3372
2252.208	3319
2254.223	3333
2256.239	3364
2258.255	3445
2260.269	3368
2262.283	3427
2264.3	3383
2266.312	3377
2268.325	3431
2270.336	3382
2272.349	3420
2274.362	3384
2276.372	3407
2278.383	3330
2280.392	3359
2282.402	3391
2284.409	3415
2286.418	3425
2288.427	3314
2290.433	3413
2292.441	3366
2294.446	3348
2296.453	3353
2298.459	3427
2300.463	3403
2302.466	3427
2304.471	3327
2306.475	3402
2308.477	3382
2310.478	3353
2312.481	3406
2314.481	3206
2316.481	3398
2318.482	3384
2320.482	3373
2322.48	3344
2324.48	3420
2326.478	3328
2328.476	3284
2330.473	3326
2332.469	3418
2334.465	3338
2336.46	3357
2338.454	3313
2340.45	3326
2342.444	3378
2344.437	3288
2346.43	3427
2348.421	3302
2350.414	3301
2352.405	3367
2354.396	3259
2356.386	3250
2358.376	3392
2360.366	3279
2362.355	3262
2364.343	3336
2366.331	3339
2368.317	3301
2370.304	3267
2372.292	3296
2374.278	3307
2376.262	3387
2378.247	3344
2380.23	3331
2382.216	3328
2384.199	3237
2386.181	3293
2388.163	3288
2390.144	3365
2392.127	3385
2394.107	3256
2396.087	3242
2398.066	3325
2400.046	3269
2402.023	3264
2404.004	3227
2405.981	3209
2407.957	3221
2409.934	3238
2411.91	3222
2413.886	3298
2415.862	3316
2417.836	3244
2419.809	3309
2421.784	3301
2423.756	3211
2425.73	3252
2427.701	3287
2429.672	3287
2431.644	3274
2433.615	3403
2435.586	3295
2437.555	3256
2439.523	3250
2441.491	3278
2443.459	3219
2445.428	3336
2447.395	3259
2449.361	3375
2451.327	3224
2453.292	3318
2455.257	3251
2457.223	3307
2459.187	3323
2461.15	3317
2463.113	3276
2465.076	3229
2467.039	3216
2468.999	3319
2470.96	3217
2472.921	3283
2474.881	3249
2476.841	3285
2478.8	3263
2480.759	3333
2482.717	3211
2484.675	3263
2486.63	3237
2488.589	3267
2490.545	3212
2492.5	3302
2494.455	3280
2496.408	3270
2498.364	3282
2500.318	3248
2502.27	3245
2504.223	3173
2506.174	3205
2508.126	3209
2510.078	3214
2512.03	3284
2513.979	3208
2515.927	3230
2517.877	3204
2519.826	3214
2521.775	3219
2523.722	3241
2525.668	3187
2527.616	3257
2529.561	3253
2531.508	3223
2533.452	3238
2535.398	3189
2537.342	3123
2539.284	3194
2541.229	3174
2543.173	3303
2545.114	3285
2547.055	3190
2548.996	3143
2550.938	3255
2552.878	3146
2554.817	3237
2556.756	3240
2558.695	3254
2560.633	3228
2562.572	3172
2564.509	3212
2566.445	3210
2568.382	3207
2570.317	3212
2572.254	3198
2574.189	3155
2576.123	3191
2578.057	3192
2579.99	3238
2581.923	3236
2583.855	3212
2585.788	3281
2587.719	3196
2589.65	3233
2591.579	3185
2593.511	3255
2595.44	3246
2597.37	3210
2599.297	3222
2601.225	3247
2603.153	3221
2605.08	3273
2607.007	3282
2608.932	3234
2610.858	3224
2612.782	3288
2614.709	3195
2616.632	3212
2618.556	3184
2620.478	3238
2622.401	3247
2624.324	3260
2626.247	3172
2628.167	3231
2630.088	3281
2632.008	3190
2633.928	3291
2635.848	3242
2637.766	3203
2639.684	3215
2641.603	3259
2643.519	3274
2645.437	3222
2647.353	3298
2649.27	3271
2651.184	3212
2653.099	3255
2655.014	3246
2656.928	3214
2658.842	3282
2660.755	3229
2662.667	3261
2664.579	3225
2666.491	3265
2668.402	3215
2670.312	3241
2672.222	3187
2674.132	3284
2676.042	3181
2677.951	3160
2679.859	3165
2681.766	3226
2683.674	3157
2685.582	3296
2687.488	3212
2689.392	3272
2691.298	3236
2693.202	3244
2695.107	3224
2697.012	3195
2698.914	3206
2700.817	3140
2702.72	3160
2704.622	3182
2706.524	3191
2708.425	3134
2710.326	3140
2712.225	3182
2714.125	3139
2716.024	3130
2717.923	3228
2719.822	3136
2721.719	3169
2723.616	3170
2725.512	3166
2727.41	3163
2729.305	3190
2731.201	3241
2733.095	3188
2734.99	3255
2736.884	3174
2738.778	3177
2740.67	3190
2742.562	3165
2744.455	3158
2746.346	3182
2748.238	3194
2750.129	3225
2752.018	3142
2753.907	3135
2755.797	3222
2757.687	3274
2759.575	3086
2761.462	3174
2763.349	3182
2765.237	3119
2767.124	3234
2769.009	3111
2770.894	3210
2772.779	3156
2774.663	3188
2776.547	3186
2778.431	3185
2780.314	3161
2782.197	3117
2784.078	3147
2785.96	3093
2787.842	3118
2789.723	3142
2791.603	3155
2793.483	3107
2795.362	3175
2797.241	3145
2799.121	3138
2800.997	3094
2802.874	3147
2804.751	3154
2806.628	3160
2808.506	3120
2810.38	3108
2812.255	3175
2814.13	3153
2816.003	3206
2817.878	3097
2819.752	3121
2821.623	3176
2823.496	3147
2825.368	3139
2827.238	3146
2829.111	3151
2830.98	3134
2832.851	3121
2834.719	3147
2836.589	3088
2838.458	3108
2840.327	3125
2842.193	3110
2844.061	3162
2845.927	3128
2847.794	3089
2849.66	3121
2851.525	3138
2853.39	3238
2855.254	3115
2857.117	3190
2858.983	3246
2860.845	3157
2862.707	3192
2864.569	3187
2866.431	3233
2868.293	3213
2870.154	3230
2872.013	3270
2873.873	3258
2875.733	3274
2877.592	3251
2879.451	3255
2881.309	3272
2883.166	3297
2885.022	3339
2886.879	3327
2888.736	3355
2890.591	3339
2892.446	3317
2894.301	3423
2896.155	3346
2898.009	3402
2899.863	3309
2901.716	3362
2903.568	3381
2905.419	3307
2907.27	3383
2909.123	3310
2910.973	3251
2912.824	3291
2914.673	3356
2916.521	3335
2918.372	3372
2920.22	3410
2922.067	3399
2923.914	3441
2925.761	3421
2927.607	3492
2929.455	3564
2931.301	3383
2933.144	3490
2934.99	3488
2936.833	3569
2938.678	3565
2940.522	3561
2942.364	3581
2944.207	3580
2946.048	3691
2947.891	3631
2949.731	3620
2951.571	3610
2953.412	3625
2955.25	3666
2957.09	3551
2958.93	3607
2960.767	3592
2962.606	3544
2964.443	3470
2966.279	3591
2968.116	3431
2969.953	3364
2971.788	3453
2973.623	3323
2975.457	3400
2977.292	3349
2979.127	3369
2980.959	3404
2982.792	3393
2984.624	3302
2986.455	3268
2988.288	3388
2990.119	3323
2991.949	3313
2993.779	3308
2995.608	3251
2997.439	3186
2999.268	3243
3001.096	3240
3002.923	3165
3004.751	3201
3006.578	3192
3008.406	3228
3010.232	3124
3012.057	3163
3013.883	3090
3015.706	3141
3017.532	3095
3019.356	3037
3021.179	3082
3023.002	3018
3024.823	2980
3026.646	3036
3028.469	3027
3030.289	3025
3032.11	3050
3033.93	3038
3035.749	2992
3037.57	2999
3039.39	3027
3041.207	3005
3043.026	2911
3044.842	3028
3046.661	2918
3048.477	3038
3050.294	2904
3052.109	3036
3053.925	2999
3055.739	2972
3057.555	3018
3059.368	3009
3061.181	2962
3062.995	2991
3064.807	3044
3066.62	2973
3068.433	2947
3070.243	3039
3072.054	2950
3073.865	2915
3075.675	2929
3077.485	3021
3079.293	2966
3081.102	2922
3082.911	2958
3084.719	2826
3086.527	2936
3088.333	2953
3090.139	2981
3091.945	2901
3093.75	2893
3095.557	2916
3097.361	2905
3099.165	2884
3100.969	2924
3102.772	2944
3104.575	2967
3106.379	2897
3108.181	2940
3109.982	2868
3111.783	2877
3113.584	2964
3115.386	2808
3117.186	2853
3118.985	2854
3120.783	2906
3122.582	2899
3124.381	2859
3126.179	2863
3127.975	2908
3129.772	2836
3131.569	2900
3133.365	2807
3135.161	2856
3136.956	2815
3138.751	2918
3140.544	2838
3142.338	2830
3144.132	2918
3145.925	2912
3147.717	2823
3149.509	2819
3151.301	2819
3153.091	2830
3154.884	2895
3156.673	2873
3158.462	2857
3160.252	2871
3162.041	2832
3163.831	2942
3165.618	2844
3167.405	2803
3169.193	2868
3170.979	2778
3172.767	2872
3174.553	2839
3176.338	2772
3178.123	2813
3179.907	2860
3181.692	2876
3183.477	2867
3185.259	2843
3187.042	2731
3188.824	2768
3190.607	2804
3192.389	2817
3194.17	2802
3195.951	2777
3197.73	2715
3199.51	2801
3201.289	2802
3203.07	2743
3204.848	2799
3206.626	2809
3208.403	2894
3210.18	2776
3211.959	2819
3213.735	2828
3215.511	2812
3217.285	2827
3219.06	2869
3220.836	2728
3222.611	2826
3224.384	2836
3226.158	2788
3227.929	2790
3229.702	2791
3231.476	2763
3233.248	2816
3235.018	2700
3236.789	2785
3238.56	2791
3240.33	2839
3242.1	2779
3243.869	2765
3245.637	2802
3247.405	2740
3249.172	2786
3250.941	2824
3252.707	2799
3254.474	2732
3256.24	2776
3258.006	2780
3259.772	2784
3261.537	2707
3263.301	2792
3265.065	2732
3266.828	2716
3268.592	2762
3270.355	2798
3272.117	2808
3273.878	2828
3275.64	2714
3277.401	2761
3279.162	2852
3280.922	2749
3282.682	2769
3284.441	2759
3286.199	2833
3287.959	2746
3289.716	2738
3291.475	2838
3293.232	2763
3294.988	2768
3296.744	2769
3298.501	2787
3300.256	2831
3302.011	2766
3303.766	2711
3305.52	2742
3307.275	2813
3309.028	2765
3310.781	2776
3312.533	2751
3314.285	2803
3316.038	2715
3317.789	2810
3319.54	2747
3321.289	2738
3323.039	2850
3324.789	2758
3326.539	2798
3328.288	2747
3330.035	2853
3331.783	2790
3333.531	2784
3335.28	2821
3337.025	2806
3338.771	2719
3340.518	2714
3342.262	2726
3344.009	2759
3345.753	2731
3347.497	2750
3349.24	2749
3350.983	2735
3352.726	2754
3354.469	2795
3356.212	2757
3357.952	2843
3359.694	2801
3361.434	2691
3363.176	2737
3364.916	2750
3366.654	2731
3368.394	2730
3370.132	2716
3371.871	2666
3373.61	2791
3375.346	2683
3377.083	2702
3378.82	2711
3380.556	2743
3382.292	2689
3384.027	2665
3385.763	2739
3387.497	2675
3389.231	2772
3390.965	2688
3392.698	2701
3394.431	2696
3396.164	2746
3397.896	2703
3399.627	2642
3401.36	2721
3403.09	2725
3404.82	2739
3406.55	2610
3408.279	2715
3410.01	2664
3411.738	2651
3413.467	2659
3415.194	2671
3416.92	2700
3418.647	2651
3420.375	2660
3422.102	2640
3423.827	2678
3425.553	2640
3427.277	2663
3429.003	2739
3430.727	2659
3432.451	2653
3434.173	2715
3435.896	2693
3437.62	2663
3439.343	2672
3441.063	2632
3442.785	2592
3444.505	2668
3446.226	2721
3447.948	2669
3449.666	2605
3451.386	2564
3453.104	2624
3454.823	2676
3456.541	2521
3458.259	2646
3459.976	2586
3461.693	2642
3463.408	2704
3465.125	2586
3466.841	2563
3468.556	2594
3470.271	2663
3471.985	2575
3473.698	2532
3475.414	2640
3477.126	2615
3478.838	2582
3480.55	2575
3482.263	2606
3483.975	2601
3485.686	2667
3487.396	2598
3489.106	2559
3490.817	2580
3492.526	2523
3494.236	2601
3495.944	2470
3497.652	2594
3499.359	2610
3501.066	2550
3502.775	2622
3504.481	2470
3506.187	2477
3507.893	2568
3509.598	2538
3511.304	2541
3513.009	2471
3514.713	2518
3516.417	2479
3518.12	2533
3519.821	2463
3521.525	2550
3523.228	2482
3524.929	2494
3526.631	2550
3528.33	2551
3530.032	2529
3531.733	2582
3533.433	2516
3535.131	2499
3536.83	2501
3538.529	2480
3540.227	2495
3541.925	2495
3543.623	2508
3545.319	2493
3547.016	2473
3548.712	2508
3550.408	2454
3552.103	2497
3553.798	2471
3555.491	2442
3557.188	2481
3558.88	2468
3560.574	2509
3562.266	2442
3563.959	2457
3565.651	2503
3567.343	2454
3569.035	2446
3570.725	2430
3572.415	2485
3574.106	2389
3575.797	2418
3577.485	2482
3579.174	2414
3580.863	2404
3582.551	2421
3584.238	2398
3585.926	2390
3587.613	2482
3589.3	2348
3590.986	2435
3592.671	2411
3594.357	2450
3596.042	2394
3597.726	2385
3599.41	2443
3601.094	2484
3602.778	2338
3604.461	2406
3606.143	2377
3607.825	2382
3609.507	2424
3611.188	2396
3612.87	2395
3614.551	2374
3616.229	2330
3617.909	2340
3619.589	2374
3621.269	2373
3622.948	2397
3624.625	2401
3626.302	2366
3627.98	2367
3629.657	2357
3631.334	2324
3633.01	2303
3634.686	2338
3636.361	2262
3638.036	2320
3639.712	2360
3641.385	2328
3643.06	2370
3644.732	2373
3646.405	2341
3648.08	2343
3649.751	2266
3651.424	2377
3653.094	2344
3654.766	2288
3656.436	2260
3658.106	2291
3659.777	2358
3661.446	2299
3663.115	2342
3664.783	2323
3666.452	2293
3668.121	2298
3669.788	2320
3671.454	2254
3673.121	2248
3674.789	2281
3676.455	2293
3678.12	2330
3679.784	2296
3681.45	2276
3683.114	2253
3684.779	2245
3686.442	2244
3688.105	2230
3689.768	2243
3691.43	2237
3693.093	2272
3694.754	2255
3696.415	2268
3698.076	2173
3699.736	2301
3701.396	2268
3703.057	2279
3704.716	2308
3706.375	2311
3708.034	2269
3709.692	2254
3711.351	2281
3713.008	2228
3714.665	2282
3716.321	2211
3717.977	2247
3719.634	2234
3721.29	2248
3722.945	2248
3724.598	2230
3726.253	2276
3727.907	2312
3729.561	2130
3731.214	2203
3732.867	2186
3734.518	2196
3736.171	2228
3737.824	2275
3739.474	2258
3741.125	2201
3742.775	2189
3744.425	2218
3746.074	2198
3747.725	2230
3749.373	2188
3751.022	2160
3752.669	2190
3754.318	2255
3755.966	2162
3757.612	2191
3759.259	2212
3760.905	2218
3762.55	2242
3764.197	2154
3765.842	2247
3767.486	2246
3769.131	2200
3770.774	2199
3772.417	2185
3774.061	2201
3775.705	2196
3777.347	2238
3778.988	2151
3780.629	2222
3782.271	2170
3783.912	2216
3785.552	2145
3787.192	2155
3788.831	2199
3790.472	2136
3792.112	2158
3793.75	2182
3795.388	2151
3797.024	2150
3798.661	2183
3800.3	2137
3801.936	2143
3803.572	2132
3805.208	2174
3806.844	2181
3808.48	2182
3810.115	2125
3811.748	2068
3813.382	2162
3815.016	2110
3816.649	2159
3818.283	2129
3819.914	2168
3821.547	2095
3823.178	2127
3824.809	2125
3826.441	2107
3828.072	2133
3829.701	2119
3831.331	2135
3832.96	2123
3834.591	2134
3836.219	2113
3837.847	2130
3839.475	2115
3841.102	2107
3842.729	2121
3844.357	2075
3845.984	2117
3847.609	2103
3849.234	2039
3850.86	2088
3852.485	2120
3854.11	2076
3855.734	2072
3857.357	2131
3858.981	2096
3860.603	2076
3862.227	2078
3863.848	2111
3865.471	2049
3867.092	2114
3868.713	2071
3870.334	2083
3871.954	2043
3873.575	2099
3875.194	2117
3876.813	2129
3878.433	2070
3880.051	2052
3881.669	2102
3883.286	2057
3884.904	2045
3886.52	2059
3888.138	2061
3889.754	2074
3891.37	2048
3892.985	2066
3894.6	2052
3896.216	2054
3897.831	2008
3899.444	2054
3901.058	2052
3902.67	2091
3904.283	2062
3905.897	2081
3907.509	2026
3909.121	1984
3910.731	2075
3912.342	2026
3913.954	2110
3915.563	2025
3917.174	2046
3918.783	2010
3920.391	2018
3922.002	2031
3923.611	2051
3925.218	2015
3926.826	2062
3928.432	1981
3930.039	2061
3931.647	2054
3933.253	2032
3934.859	2034
3936.464	1997
3938.068	1996
3939.675	2060
3941.278	2058
3942.883	2058
3944.486	1962
3946.089	2054
3947.692	2028
3949.295	2009
3950.898	2019
3952.499	2001
3954.1	2023
3955.7	2033
3957.303	1998
3958.903	2027
3960.502	2013
3962.101	2008
3963.7	1971
3965.301	1989
3966.899	2019
3968.497	2048
3970.094	2011
3971.691	2008
3973.288	2013
3974.885	2023
3976.481	2019
3978.077	1940
3979.672	1952
3981.267	2005
3982.863	2028
3984.457	1927
3986.051	1888
3987.645	1913
3989.238	1954
3990.831	1941
3992.425	2015
3994.017	1965
3995.607	1971
3997.199	1930
3998.79	1984
4000.382	1933
4001.973	1939
4003.561	1938
4005.151	1879
4006.741	1963
4008.331	1950
4009.918	1946
4011.507	1951
4013.095	1921
4014.681	1921
4016.269	1891
4017.856	1974
4019.443	1932
4021.028	1879
4022.614	1908
4024.199	1956
4025.785	1933
4027.37	1942
4028.953	1938
4030.536	1898
4032.12	1896
4033.704	1912
4035.287	1964
4036.869	1917
4038.45	1910
4040.032	1893
4041.613	1903
4043.195	1909
4044.776	1953
4046.356	1863
4047.935	1883
4049.515	1922
4051.095	1883
4052.674	1929
4054.251	1891
4055.829	1898
4057.406	1823
4058.985	1901
4060.562	1908
4062.139	1862
4063.715	1886
4065.29	1924
4066.865	1886
4068.442	1848
4070.016	1873
4071.59	1901
4073.164	1888
4074.738	1921
4076.312	1863
4077.885	1906
4079.458	1886
4081.03	1839
4082.602	1845
4084.173	1872
4085.745	1911
4087.315	1910
4088.886	1847
4090.456	1867
4092.026	1854
4093.596	1864
4095.165	1865
4096.734	1800
4098.301	1855
4099.869	1850
4101.437	1820
4103.006	1830
4104.572	1866
4106.139	1818
4107.704	1828
4109.27	1872
4110.837	1839
4112.401	1845
4113.966	1858
4115.53	1829
4117.094	1832
4118.659	1792
4120.223	1804
4121.785	1811
4123.347	1838
4124.909	1888
4126.471	1833
4128.034	1824
4129.595	1840
4131.155	1822
4132.716	1846
4134.275	1798
4135.836	1779
4137.395	1801
4138.955	1805
4140.513	1827
4142.071	1776
4143.628	1801
4145.188	1813
4146.745	1805
4148.302	1818
4149.858	1748
4151.414	1780
4152.971	1760
4154.526	1777
4156.081	1774
4157.635	1766
4159.189	1766
4160.745	1784
4162.298	1773
4163.852	1773
4165.405	1801
4166.957	1789
4168.51	1805
4170.063	1756
4171.614	1775
4173.166	1795
4174.717	1759
4176.267	1811
4177.817	1735
4179.368	1770
4180.917	1768
4182.466	1769
4184.016	1790
4185.564	1760
4187.112	1763
4188.66	1729
4190.207	1724
4191.754	1773
4193.301	1728
4194.848	1764
4196.394	1743
4197.94	1701
4199.484	1762
4201.03	1754
4202.575	1742
4204.12	1752
4205.663	1764
4207.207	1675
4208.75	1780
4210.292	1742
4211.836	1776
4213.378	1742
4214.92	1746
4216.46	1724
4218.002	1722
4219.544	1714
4221.083	1734
4222.625	1738
4224.164	1662
4225.703	1686
4227.244	1769
4228.782	1730
4230.32	1750
4231.857	1735
4233.395	1728
4234.933	1672
4236.471	1690
4238.007	1703
4239.542	1703
4241.078	1697
4242.614	1713
4244.15	1757
4245.685	1742
4247.219	1693
4248.753	1693
4250.287	1684
4251.82	1713
4253.354	1666
4254.887	1708
4256.419	1658
4257.951	1695
4259.483	1703
4261.016	1680
4262.547	1698
4264.078	1658
4265.608	1690
4267.137	1712
4268.668	1678
4270.197	1659
4271.727	1666
4273.254	1705
4274.783	1703
4276.311	1711
4277.84	1677
4279.366	1619
4280.894	1657
4282.42	1654
4283.946	1664
4285.473	1663
4286.998	1663
4288.523	1647
4290.047	1690
4291.572	1651
4293.096	1672
4294.622	1619
4296.144	1681
4297.668	1580
4299.19	1645
4300.713	1612
4302.236	1676
4303.758	1679
4305.279	1664
4306.799	1662
4308.321	1685
4309.842	1620
4311.361	1645
4312.882	1633
4314.401	1639
