400.0961	5773
402.6185	5893
405.1424	5813
407.6635	5812
410.1838	5803
412.7035	5811
415.2225	5966
417.7388	5964
420.2585	5826
422.7754	6109
425.2917	6139
427.8072	6061
430.3221	6240
432.8363	6164
435.3498	6301
437.8626	6227
440.3727	6292
442.8841	6254
445.3969	6197
447.907	6277
450.4142	6239
452.9229	6141
455.4289	6195
457.9362	6335
460.4449	6225
462.9488	6194
465.454	6203
467.9566	6127
470.4604	6112
472.9637	6197
475.4662	6173
477.966	6301
480.4671	6270
482.9656	6215
485.4633	6266
487.9645	6167
490.4608	6261
492.9566	6415
495.4536	6382
497.948	6283
500.4437	6396
502.9387	6340
505.431	6409
507.9226	6315
510.4136	6402
512.9079	6384
515.3975	6414
517.8864	6422
520.3746	6393
522.8622	6336
525.3491	6353
527.8394	6488
530.3249	6504
532.8098	6515
535.2939	6416
537.7774	6392
540.2623	6496
542.7444	6486
545.2259	6332
547.7067	6481
550.1868	6458
552.6683	6516
555.147	6476
557.6231	6489
560.1005	6514
562.5773	6492
565.0534	6592
567.5308	6517
570.0056	6508
572.4776	6539
574.951	6684
577.4237	6652
579.8978	6809
582.3671	6668
584.8378	6670
587.3079	6742
589.7773	6799
592.244	6694
594.714	6686
597.1793	6818
599.6461	6590
602.1121	6569
604.5754	6621
607.0421	6688
609.5042	6713
611.9675	6775
614.4282	6728
616.8902	6615
619.3515	6691
621.8122	6652
624.2702	6710
626.7296	6719
629.1863	6644
631.6423	6655
634.1017	6698
636.5563	6571
639.0104	6562
641.4658	6710
643.9185	6722
646.3725	6636
648.8239	6616
651.2766	6729
653.7266	6747
656.176	6730
658.6247	6751
661.0748	6644
663.5242	6801
665.9709	6779
668.417	6808
670.8624	6851
673.3092	6804
675.7533	6806
678.1968	6817
680.6395	6748
683.0817	6804
685.5251	6933
687.9659	6933
690.4061	6947
692.8456	6847
695.2844	6859
697.7226	7042
700.1621	6861
702.599	6774
705.0332	7002
707.4688	6906
709.9036	7020
712.3399	6907
714.7735	7013
717.2044	7005
719.6367	6904
722.0683	7024
724.4993	6958
726.9296	6902
729.3593	7207
731.7883	7187
734.2147	7243
736.6423	7154
739.0714	7101
741.4958	7181
743.9216	7268
746.3447	7188
748.7691	7197
751.1929	7246
753.616	7383
756.0366	7341
758.4584	7390
760.8776	7366
763.2982	7394
765.718	7393
768.1373	7392
770.5539	7425
772.9698	7409
775.3871	7357
777.8038	7458
780.2178	7382
782.6332	7405
785.0459	7429
787.458	7234
789.8714	7289
792.2842	7462
794.6943	7395
797.1038	7355
799.5127	7413
801.9209	7457
804.3324	7402
806.7393	7494
809.1456	7429
811.5513	7494
813.9562	7470
816.3625	7517
818.7663	7550
821.1693	7610
823.5718	7620
825.9735	7456
828.3746	7419
830.7771	7504
833.177	7595
835.5762	7488
837.9747	7596
840.3727	7528
842.772	7680
845.1666	7604
847.5626	7523
849.958	7610
852.3527	7702
854.7488	7739
857.1403	7702
859.5331	7659
861.9253	7602
864.3168	7681
866.7057	7655
869.098	7629
871.4876	7622
873.8746	7607
876.263	7546
878.6487	7629
881.0378	7610
883.4243	7558
885.8081	7782
888.1933	7618
890.5759	7585
892.9598	7629
895.343	7645
897.7256	7629
900.1057	7643
902.4871	7716
904.8659	7615
907.246	7788
909.6254	7845
912.0023	7838
914.3786	7785
916.7562	7935
919.1331	8095
921.5074	8067
923.8831	8144
926.2562	8162
928.6287	8058
931.0005	8122
933.3757	8131
935.7462	8263
938.1162	8067
940.4855	8246
942.8542	8348
945.2242	8302
947.5916	8537
949.9584	8646
952.3266	8762
954.6921	9174
957.0571	9583
959.4233	10009
961.787	9948
964.15	9975
966.5125	9586
968.8742	9435
971.2354	8933
973.5959	8677
975.9559	8376
978.3151	8287
980.6738	8178
983.0338	8019
985.3912	7978
987.7461	7950
990.1022	7934
992.4578	7938
994.8127	7819
997.1689	8059
999.5207	7937
1001.874	8144
1004.226	8109
1006.576	7904
1008.929	7902
1011.28	8056
1013.628	8108
1015.977	8075
1018.324	7971
1020.674	8019
1023.019	8048
1025.366	7985
1027.713	8065
1030.056	8051
1032.399	8177
1034.746	8067
1037.087	8140
1039.431	8083
1041.771	8115
1044.113	8114
1046.454	8236
1048.793	8103
1051.133	8141
1053.471	8060
1055.807	8043
1058.146	8180
1060.483	8174
1062.818	8256
1065.153	8262
1067.489	8371
1069.822	8371
1072.156	8350
1074.488	8346
1076.82	8326
1079.15	8161
1081.48	8285
1083.814	8324
1086.143	8240
1088.471	8178
1090.799	8156
1093.126	8208
1095.452	8195
1097.78	8237
1100.105	8143
1102.43	8129
1104.754	8214
1107.077	8238
1109.4	8160
1111.722	8160
1114.044	8290
1116.365	8170
1118.685	8248
1121.005	8222
1123.324	8302
1125.643	8345
1127.961	8215
1130.278	8263
1132.595	8179
1134.911	8091
1137.226	8330
1139.541	8161
1141.854	8146
1144.167	8223
1146.482	8189
1148.793	8256
1151.105	8160
1153.414	8328
1155.725	8144
1158.033	8209
1160.344	8279
1162.651	8201
1164.959	8256
1167.265	8215
1169.572	8327
1171.878	8237
1174.184	8282
1176.488	8211
1178.79	8271
1181.094	8343
1183.396	8297
1185.699	8245
1188.001	8169
1190.301	8194
1192.6	8317
1194.9	8190
1197.2	8136
1199.497	8336
1201.794	8427
1204.09	8369
1206.387	8435
1208.684	8351
1210.978	8410
1213.272	8295
1215.565	8057
1217.858	8431
1220.15	8318
1222.443	8348
1224.734	8376
1227.024	8377
1229.313	8414
1231.602	8486
1233.892	8411
1236.18	8476
1238.467	8544
1240.754	8654
1243.04	8685
1245.325	8665
1247.612	8629
1249.896	8756
1252.178	8536
1254.461	8772
1256.743	8729
1259.027	8612
1261.308	8714
1263.587	8681
1265.867	8625
1268.146	8613
1270.425	8724
1272.703	8628
1274.981	8706
1277.256	8688
1279.532	8611
1281.808	8539
1284.083	8620
1286.358	8631
1288.63	8517
1290.904	8590
1293.175	8581
1295.449	8627
1297.719	8594
1299.99	8497
1302.259	8590
1304.529	8463
1306.798	8618
1309.065	8447
1311.333	8644
1313.599	8518
1315.866	8488
1318.131	8439
1320.396	8725
1322.66	8339
1324.925	8566
1327.187	8609
1329.448	8561
1331.711	8558
1333.974	8629
1336.234	8617
1338.493	8602
1340.752	8591
1343.01	8554
1345.269	8640
1347.526	8593
1349.784	8525
1352.04	8600
1354.295	8523
1356.552	8623
1358.806	8632
1361.059	8394
1363.312	8328
1365.564	8512
1367.818	8615
1370.069	8674
1372.318	8611
1374.568	8696
1376.817	8628
1379.066	8709
1381.316	8654
1383.564	8743
1385.809	8721
1388.056	8707
1390.301	8715
1392.549	8845
1394.793	8904
1397.036	8855
1399.279	9035
1401.522	8951
1403.763	8880
1406.007	8951
1408.248	8942
1410.487	8771
1412.727	9046
1414.965	8811
1417.205	8897
1419.442	8902
1421.68	8862
1423.915	8923
1426.152	8982
1428.388	8993
1430.623	8826
1432.857	9008
1435.091	9042
1437.323	9173
1439.556	9062
1441.789	9064
1444.019	8928
1446.25	9051
1448.48	8896
1450.708	9001
1452.938	9119
1455.167	9170
1457.394	9203
1459.62	9024
1461.846	9098
1464.073	9104
1466.299	8976
1468.523	8977
1470.746	8855
1472.969	8923
1475.191	8815
1477.415	8871
1479.636	8766
1481.858	8759
1484.078	8797
1486.298	8678
1488.518	8670
1490.736	8669
1492.954	8651
1495.169	8679
1497.386	8544
1499.602	8665
1501.819	8700
1504.034	8602
1506.248	8545
1508.462	8639
1510.675	8596
1512.888	8583
1515.1	8606
1517.311	8547
1519.522	8564
1521.732	8582
1523.942	8569
1526.151	8568
1528.36	8586
1530.566	8607
1532.773	8638
1534.98	8600
1537.187	8627
1539.392	8492
1541.596	8667
1543.801	8707
1546.005	8649
1548.208	8726
1550.411	8642
1552.612	8648
1554.814	8696
1557.013	8620
1559.212	8665
1561.414	8775
1563.612	8850
1565.811	8721
1568.007	8849
1570.203	8837
1572.403	8788
1574.598	8767
1576.792	8777
1578.988	8802
1581.181	8960
1583.376	8925
1585.568	8814
1587.761	8802
1589.952	8748
1592.143	8891
1594.333	8930
1596.524	8955
1598.715	8872
1600.903	8914
1603.091	8841
1605.278	9011
1607.466	8899
1609.652	8841
1611.838	8912
1614.023	8958
1616.207	8844
1618.391	9031
1620.576	8992
1622.759	8864
1624.941	8885
1627.123	8966
1629.304	8988
1631.484	8890
1633.664	9055
1635.844	9167
1638.022	9028
1640.201	8895
1642.38	9109
1644.556	9051
1646.732	9118
1648.908	8956
1651.084	8973
1653.257	8989
1655.433	9156
1657.607	9049
1659.779	9206
1661.951	8895
1664.122	9086
1666.295	8983
1668.467	9162
1670.635	9175
1672.805	9183
1674.973	9140
1677.142	9271
1679.31	9154
1681.478	9072
1683.644	9107
1685.81	9101
1687.975	8909
1690.142	8974
1692.305	9053
1694.468	9007
1696.632	9012
1698.794	8989
1700.957	9024
1703.119	8930
1705.279	8937
1707.439	9001
1709.598	8862
1711.758	8890
1713.917	8873
1716.075	8890
1718.231	8971
1720.388	9045
1722.543	8890
1724.702	8838
1726.856	8802
1729.01	8902
1731.164	8920
1733.317	8729
1735.471	8973
1737.623	8781
1739.774	8896
1741.925	8786
1744.075	8847
1746.225	8917
1748.376	8891
1750.524	8900
1752.672	8839
1754.82	8946
1756.965	8891
1759.113	8914
1761.259	8859
1763.405	8896
1765.549	8898
1767.694	8813
1769.836	8903
1771.981	8857
1774.123	8945
1776.264	8840
1778.405	8865
1780.546	8888
1782.687	8852
1784.827	9010
1786.966	8936
1789.103	8963
1791.242	8984
1793.381	8872
1795.517	8969
1797.653	8864
1799.788	8932
1801.923	8971
1804.057	8935
1806.193	8952
1808.326	8921
1810.457	8877
1812.59	8849
1814.721	8923
1816.855	8951
1818.984	8895
1821.113	8813
1823.244	8863
1825.372	8980
1827.499	8928
1829.63	9016
1831.756	8792
1833.882	8874
1836.007	8826
1838.132	8793
1840.26	8943
1842.384	8852
1844.507	8796
1846.63	8786
1848.752	8810
1850.875	8771
1852.996	8874
1855.118	8893
1857.238	8863
1859.358	8799
1861.477	8836
1863.597	8849
1865.715	8839
1867.832	8889
1869.948	8800
1872.064	8806
1874.181	8795
1876.297	8853
1878.411	8870
1880.526	8927
1882.639	8804
1884.752	8886
1886.865	8863
1888.977	8884
1891.089	8795
1893.2	8682
1895.308	8967
1897.42	8920
1899.53	8865
1901.639	9007
1903.745	8830
1905.853	8973
1907.962	8993
1910.067	8934
1912.174	8898
1914.278	8903
1916.383	8987
1918.486	8879
1920.592	8843
1922.694	8998
1924.797	8839
1926.898	8970
1929	8887
1931.102	9002
1933.203	9022
1935.301	8884
1937.401	8973
1939.499	9012
1941.598	8866
1943.697	8896
1945.793	8825
1947.888	8843
1949.985	8960
1952.08	9036
1954.176	8857
1956.269	8971
1958.364	8932
1960.457	8951
1962.549	8957
1964.642	8927
1966.733	8976
1968.823	8908
1970.913	8792
1973.005	8908
1975.093	8875
1977.184	8905
1979.271	8883
1981.359	8954
1983.446	8874
1985.532	8814
1987.619	8878
1989.705	8850
1991.789	8834
1993.874	8796
1995.956	8847
1998.041	8734
2000.123	8755
2002.206	8929
2004.287	8936
2006.368	8801
2008.449	8820
2010.529	8739
2012.609	8883
2014.688	8832
2016.766	8840
2018.843	8759
2020.922	8663
2022.999	8913
2025.074	8681
2027.15	8896
2029.225	8787
2031.299	8793
2033.375	8809
2035.447	8817
2037.52	8835
2039.592	8863
2041.664	8828
2043.736	8848
2045.807	8659
2047.876	8836
2049.947	8762
2052.015	8767
2054.086	8752
2056.153	8828
2058.221	8941
2060.288	8856
2062.353	8853
2064.42	8876
2066.486	8709
2068.55	8806
2070.614	8809
2072.678	8782
2074.741	8765
2076.805	8746
2078.866	8825
2080.929	8874
2082.99	8851
2085.049	8821
2087.109	8770
2089.17	8881
2091.228	8845
2093.286	8864
2095.344	8755
2097.4	8940
2099.46	8804
2101.516	8828
2103.572	8778
2105.626	8820
2107.679	8803
2109.735	8900
2111.788	8828
2113.841	8789
2115.894	8821
2117.945	8856
2119.997	8731
2122.049	8836
2124.1	8837
2126.148	8823
2128.197	8799
2130.246	8804
2132.296	8746
2134.342	8716
2136.39	8821
2138.437	8864
2140.483	8887
2142.527	8794
2144.574	8726
2146.619	8767
2148.661	8802
2150.705	8696
2152.747	8793
2154.792	8761
2156.832	8705
2158.874	8713
2160.915	8716
2162.954	8686
2164.995	8815
2167.034	8798
2169.072	8687
2171.111	8698
2173.148	8747
2175.186	8576
2177.223	8664
2179.258	8575
2181.294	8758
2183.328	8625
2185.362	8770
2187.398	8630
2189.431	8676
2191.463	8499
2193.495	8697
2195.528	8624
2197.56	8606
2199.59	8556
2201.62	8516
2203.649	8603
2205.678	8558
2207.708	8587
2209.737	8706
2211.764	8527
2213.791	8485
2215.817	8577
2217.843	8503
2219.87	8640
2221.895	8538
2223.919	8451
2225.942	8489
2227.966	8528
2229.988	8429
2232.012	8418
2234.032	8506
2236.054	8543
2238.074	8540
2240.095	8445
2242.116	8505
2244.135	8534
2246.153	8545
2248.171	8462
2250.188	8493
2252.208	8519
2254.223	8489
2256.239	8556
2258.255	8604
2260.269	8539
2262.283	8568
2264.3	8415
2266.312	8470
2268.325	8563
2270.336	8635
2272.349	8563
2274.362	8546
2276.372	8742
2278.383	8559
2280.392	8539
2282.402	8554
2284.409	8495
2286.418	8563
2288.427	8554
2290.433	8496
2292.441	8509
2294.446	8556
2296.453	8416
2298.459	8661
2300.463	8532
2302.466	8489
2304.471	8370
2306.475	8600
2308.477	8607
2310.478	8437
2312.481	8528
2314.481	8334
2316.481	8452
2318.482	8424
2320.482	8543
2322.48	8447
2324.48	8404
2326.478	8451
2328.476	8445
2330.473	8443
2332.469	8307
2334.465	8424
2336.46	8421
2338.454	8370
2340.45	8365
2342.444	8461
2344.437	8430
2346.43	8361
2348.421	8371
2350.414	8352
2352.405	8501
2354.396	8271
2356.386	8249
2358.376	8355
2360.366	8365
2362.355	8208
2364.343	8198
2366.331	8351
2368.317	8292
2370.304	8265
2372.292	8382
2374.278	8277
2376.262	8396
2378.247	8183
2380.23	8222
2382.216	8381
2384.199	8344
2386.181	8269
2388.163	8313
2390.144	8173
2392.127	8268
2394.107	8191
2396.087	8142
2398.066	8279
2400.046	8161
2402.023	8246
2404.004	8203
2405.981	8258
2407.957	8284
2409.934	8202
2411.91	8200
2413.886	8080
2415.862	8196
2417.836	8163
2419.809	8293
2421.784	8084
2423.756	8066
2425.73	8139
2427.701	8160
2429.672	8291
2431.644	8131
2433.615	8195
2435.586	8140
2437.555	8252
2439.523	8246
2441.491	8108
2443.459	8230
2445.428	8298
2447.395	8164
2449.361	8259
2451.327	8147
2453.292	8064
2455.257	7929
2457.223	8345
2459.187	8203
2461.15	8225
2463.113	8141
2465.076	8207
2467.039	8071
2468.999	8166
2470.96	8098
2472.921	8092
2474.881	8182
2476.841	8133
2478.8	8128
2480.759	8149
2482.717	8074
2484.675	8133
2486.63	8041
2488.589	8108
2490.545	8270
2492.5	7924
2494.455	8114
2496.408	8000
2498.364	7992
2500.318	8055
2502.27	8116
2504.223	7953
2506.174	7966
2508.126	8048
2510.078	8162
2512.03	7995
2513.979	8014
2515.927	8153
2517.877	8094
2519.826	8021
2521.775	7877
2523.722	7970
2525.668	7996
2527.616	7888
2529.561	8037
2531.508	8116
2533.452	8105
2535.398	8045
2537.342	8105
2539.284	8089
2541.229	8052
2543.173	8000
2545.114	7922
2547.055	7960
2548.996	7927
2550.938	8020
2552.878	8028
2554.817	7931
2556.756	7960
2558.695	7838
2560.633	8023
2562.572	8022
2564.509	8006
2566.445	7956
2568.382	8103
2570.317	7978
2572.254	8005
2574.189	8108
2576.123	7825
2578.057	7926
2579.99	7989
2581.923	8018
2583.855	8213
2585.788	7995
2587.719	7864
2589.65	8113
2591.579	8030
2593.511	7971
2595.44	7984
2597.37	7960
2599.297	8015
2601.225	8006
2603.153	7998
2605.08	7985
2607.007	7918
2608.932	8020
2610.858	8108
2612.782	8063
2614.709	8043
2616.632	8020
2618.556	8020
2620.478	8115
2622.401	8022
2624.324	8000
2626.247	8015
2628.167	8004
2630.088	8097
2632.008	8005
2633.928	8020
2635.848	7973
2637.766	8079
2639.684	8044
2641.603	7948
2643.519	8048
2645.437	8027
2647.353	8031
2649.27	7964
2651.184	8070
2653.099	8076
2655.014	7998
2656.928	8117
2658.842	7925
2660.755	7985
2662.667	7929
2664.579	7993
2666.491	7962
2668.402	7915
2670.312	7964
2672.222	7936
2674.132	7937
2676.042	8018
2677.951	8091
2679.859	7843
2681.766	7813
2683.674	7836
2685.582	7900
2687.488	7884
2689.392	7868
2691.298	7873
2693.202	7871
2695.107	7979
2697.012	7841
2698.914	7829
2700.817	7946
2702.72	7854
2704.622	7887
2706.524	8021
2708.425	7798
2710.326	7929
2712.225	7744
2714.125	7856
2716.024	7868
2717.923	7760
2719.822	7846
2721.719	7829
2723.616	7853
2725.512	7885
2727.41	7792
2729.305	7838
2731.201	7768
2733.095	7899
2734.99	7983
2736.884	7803
2738.778	7862
2740.67	7892
2742.562	7809
2744.455	7842
2746.346	7777
2748.238	7757
2750.129	7830
2752.018	7758
2753.907	7738
2755.797	7868
2757.687	7868
2759.575	7882
2761.462	7754
2763.349	7757
2765.237	7851
2767.124	7748
2769.009	7865
2770.894	7904
2772.779	7759
2774.663	7764
2776.547	7863
2778.431	7717
2780.314	7704
2782.197	7719
2784.078	7892
2785.96	7706
2787.842	7763
2789.723	7811
2791.603	7848
2793.483	7656
2795.362	7736
2797.241	7703
2799.121	7699
2800.997	7738
2802.874	7823
2804.751	7713
2806.628	7768
2808.506	7832
2810.38	7704
2812.255	7708
2814.13	7763
2816.003	7665
2817.878	7679
2819.752	7689
2821.623	7802
2823.496	7746
2825.368	7788
2827.238	7710
2829.111	7597
2830.98	7638
2832.851	7645
2834.719	7610
2836.589	7839
2838.458	7726
2840.327	7686
2842.193	7702
2844.061	7740
2845.927	7799
2847.794	7777
2849.66	7739
2851.525	7784
2853.39	7962
2855.254	7763
2857.117	7773
2858.983	7867
2860.845	7824
2862.707	7919
2864.569	7970
2866.431	7959
2868.293	8049
2870.154	8063
2872.013	8119
2873.873	8132
2875.733	8179
2877.592	8174
2879.451	8397
2881.309	8375
2883.166	8404
2885.022	8435
2886.879	8505
2888.736	8442
2890.591	8452
2892.446	8576
2894.301	8548
2896.155	8511
2898.009	8530
2899.863	8481
2901.716	8538
2903.568	8510
2905.419	8403
2907.27	8477
2909.123	8533
2910.973	8502
2912.824	8623
2914.673	8577
2916.521	8348
2918.372	8627
2920.22	8777
2922.067	8749
2923.914	8841
2925.761	8700
2927.607	9029
2929.455	9093
2931.301	9220
2933.144	9053
2934.99	9203
2936.833	9062
2938.678	9172
2940.522	9355
2942.364	9407
2944.207	9542
2946.048	9584
2947.891	9635
2949.731	9571
2951.571	9570
2953.412	9582
2955.25	9446
2957.09	9386
2958.93	9409
2960.767	9390
2962.606	9205
2964.443	9115
2966.279	9105
2968.116	8836
2969.953	8819
2971.788	8873
2973.623	8575
2975.457	8600
2977.292	8525
2979.127	8465
2980.959	8632
2982.792	8474
2984.624	8400
2986.455	8414
2988.288	8424
2990.119	8352
2991.949	8282
2993.779	8036
2995.608	8254
2997.439	8227
2999.268	8133
3001.096	8060
3002.923	7977
3004.751	7783
3006.578	7746
3008.406	7738
3010.232	7755
3012.057	7769
3013.883	7657
3015.706	7592
3017.532	7606
3019.356	7602
3021.179	7591
3023.002	7509
3024.823	7375
3026.646	7599
3028.469	7357
3030.289	7351
3032.11	7362
3033.93	7415
3035.749	7349
3037.57	7460
3039.39	7266
3041.207	7308
3043.026	7307
3044.842	7317
3046.661	7244
3048.477	7220
3050.294	7372
3052.109	7198
3053.925	7279
3055.739	7181
3057.555	7293
3059.368	7308
3061.181	7214
3062.995	7149
3064.807	7320
3066.62	7286
3068.433	7257
3070.243	7292
3072.054	7238
3073.865	7154
3075.675	7189
3077.485	7279
3079.293	7135
3081.102	7149
3082.911	7188
3084.719	7057
3086.527	7168
3088.333	7123
3090.139	7166
3091.945	7080
3093.75	7167
3095.557	7085
3097.361	7066
3099.165	7106
3100.969	7071
3102.772	6972
3104.575	7136
3106.379	6936
3108.181	6992
3109.982	7001
3111.783	6929
3113.584	7121
3115.386	6809
3117.186	6936
3118.985	6964
3120.783	7054
3122.582	7002
3124.381	6936
3126.179	6964
3127.975	6902
3129.772	6893
3131.569	6991
3133.365	6910
3135.161	6875
3136.956	6942
3138.751	6875
3140.544	6853
3142.338	6902
3144.132	6911
3145.925	6876
3147.717	6895
3149.509	6723
3151.301	6858
3153.091	6862
3154.884	6830
3156.673	6832
3158.462	6744
3160.252	6852
3162.041	6710
3163.831	6721
3165.618	6733
3167.405	6810
3169.193	6771
3170.979	6777
3172.767	6816
3174.553	6883
3176.338	6709
3178.123	6885
3179.907	6722
3181.692	6777
3183.477	6638
3185.259	6906
3187.042	6791
3188.824	6765
3190.607	6710
3192.389	6773
3194.17	6847
3195.951	6701
3197.73	6770
3199.51	6777
3201.289	6684
3203.07	6836
3204.848	6731
3206.626	6627
3208.403	6675
3210.18	6667
3211.959	6659
3213.735	6870
3215.511	6706
3217.285	6667
3219.06	6884
3220.836	6667
3222.611	6624
3224.384	6701
3226.158	6680
3227.929	6755
3229.702	6656
3231.476	6861
3233.248	6692
3235.018	6803
3236.789	6750
3238.56	6819
3240.33	6763
3242.1	6828
3243.869	6677
3245.637	6649
3247.405	6620
3249.172	6770
3250.941	6680
3252.707	6702
3254.474	6617
3256.24	6764
3258.006	6718
3259.772	6694
3261.537	6841
3263.301	6750
3265.065	6665
3266.828	6682
3268.592	6668
3270.355	6673
3272.117	6715
3273.878	6676
3275.64	6619
3277.401	6692
3279.162	6751
3280.922	6748
3282.682	6563
3284.441	6594
3286.199	6658
3287.959	6680
3289.716	6533
3291.475	6652
3293.232	6655
3294.988	6652
3296.744	6709
3298.501	6695
3300.256	6661
3302.011	6725
3303.766	6654
3305.52	6724
3307.275	6548
3309.028	6556
3310.781	6625
3312.533	6666
3314.285	6619
3316.038	6668
3317.789	6711
3319.54	6681
3321.289	6623
3323.039	6569
3324.789	6604
3326.539	6669
3328.288	6567
3330.035	6740
3331.783	6654
3333.531	6601
3335.28	6686
3337.025	6592
3338.771	6551
3340.518	6568
3342.262	6626
3344.009	6644
3345.753	6604
3347.497	6499
3349.24	6605
3350.983	6627
3352.726	6625
3354.469	6592
3356.212	6567
3357.952	6640
3359.694	6512
3361.434	6501
3363.176	6516
3364.916	6479
3366.654	6639
3368.394	6418
3370.132	6504
3371.871	6421
3373.61	6410
3375.346	6404
3377.083	6369
3378.82	6368
3380.556	6548
3382.292	6464
3384.027	6441
3385.763	6385
3387.497	6344
3389.231	6519
3390.965	6412
3392.698	6473
3394.431	6399
3396.164	6384
3397.896	6375
3399.627	6345
3401.36	6414
3403.09	6404
3404.82	6458
3406.55	6322
3408.279	6255
3410.01	6361
3411.738	6253
3413.467	6337
3415.194	6385
3416.92	6371
3418.647	6268
3420.375	6245
3422.102	6233
3423.827	6293
3425.553	6301
3427.277	6166
3429.003	6255
3430.727	6220
3432.451	6282
3434.173	6184
3435.896	6234
3437.62	6192
3439.343	6236
3441.063	6251
3442.785	6195
3444.505	6206
3446.226	6081
3447.948	6173
3449.666	6190
3451.386	6118
3453.104	6160
3454.823	6093
3456.541	6163
3458.259	6074
3459.976	6043
3461.693	6025
3463.408	6000
3465.125	6118
3466.841	6084
3468.556	6110
3470.271	6014
3471.985	5871
3473.698	6044
3475.414	6026
3477.126	6000
3478.838	6014
3480.55	6029
3482.263	5984
3483.975	5931
3485.686	5894
3487.396	5878
3489.106	5862
3490.817	5817
3492.526	5889
3494.236	5794
3495.944	5895
3497.652	5981
3499.359	5804
3501.066	5860
3502.775	5903
3504.481	5887
3506.187	5951
3507.893	5892
3509.598	5831
3511.304	5842
3513.009	5887
3514.713	5869
3516.417	5812
3518.12	5850
3519.821	5824
3521.525	5775
3523.228	5814
3524.929	5710
3526.631	5779
3528.33	5692
3530.032	5703
3531.733	5694
3533.433	5712
3535.131	5744
3536.83	5767
3538.529	5737
3540.227	5753
3541.925	5757
3543.623	5774
3545.319	5709
3547.016	5746
3548.712	5614
3550.408	5661
3552.103	5748
3553.798	5640
3555.491	5671
3557.188	5672
3558.88	5709
3560.574	5674
3562.266	5528
3563.959	5626
3565.651	5750
3567.343	5522
3569.035	5631
3570.725	5647
3572.415	5634
3574.106	5607
3575.797	5508
3577.485	5522
3579.174	5681
3580.863	5555
3582.551	5590
3584.238	5663
3585.926	5537
3587.613	5572
3589.3	5469
3590.986	5482
3592.671	5524
3594.357	5573
3596.042	5423
3597.726	5499
3599.41	5538
3601.094	5494
3602.778	5434
3604.461	5390
3606.143	5391
3607.825	5385
3609.507	5388
3611.188	5376
3612.87	5429
3614.551	5406
3616.229	5409
3617.909	5256
3619.589	5268
3621.269	5314
3622.948	5300
3624.625	5290
3626.302	5401
3627.98	5318
3629.657	5350
3631.334	5196
3633.01	5347
3634.686	5370
3636.361	5248
3638.036	5215
3639.712	5245
3641.385	5310
3643.06	5289
3644.732	5126
3646.405	5214
3648.08	5233
3649.751	5213
3651.424	5215
3653.094	5265
3654.766	5228
3656.436	5167
3658.106	5288
3659.777	5199
3661.446	5153
3663.115	5212
3664.783	5199
3666.452	5209
3668.121	5139
3669.788	5112
3671.454	5201
3673.121	5128
3674.789	5082
3676.455	5134
3678.12	5131
3679.784	5079
3681.45	5201
3683.114	5062
3684.779	5114
3686.442	5005
3688.105	5035
3689.768	5047
3691.43	5087
3693.093	5123
3694.754	5112
3696.415	5092
3698.076	5042
3699.736	5022
3701.396	5036
3703.057	5075
3704.716	4996
3706.375	5043
3708.034	5001
3709.692	5083
3711.351	4964
3713.008	5037
3714.665	5072
3716.321	5003
3717.977	5057
3719.634	5005
3721.29	4955
3722.945	5030
3724.598	4931
3726.253	5066
3727.907	4876
3729.561	5027
3731.214	5017
3732.867	4982
3734.518	4988
3736.171	4940
3737.824	4937
3739.474	5034
3741.125	4960
3742.775	4981
3744.425	4937
3746.074	4859
3747.725	4993
3749.373	4843
3751.022	4928
3752.669	4901
3754.318	4893
3755.966	4932
3757.612	4878
3759.259	4935
3760.905	4963
3762.55	4926
3764.197	4892
3765.842	4909
3767.486	4869
3769.131	4901
3770.774	4890
3772.417	4855
3774.061	4811
3775.705	4762
3777.347	4868
3778.988	4721
3780.629	4891
3782.271	4832
3783.912	4824
3785.552	4844
3787.192	4769
3788.831	4833
3790.472	4770
3792.112	4767
3793.75	4737
3795.388	4824
3797.024	4816
3798.661	4729
3800.3	4805
3801.936	4722
3803.572	4741
3805.208	4727
3806.844	4722
3808.48	4794
3810.115	4743
3811.748	4753
3813.382	4674
3815.016	4705
3816.649	4771
3818.283	4710
3819.914	4779
3821.547	4728
3823.178	4750
3824.809	4703
3826.441	4753
3828.072	4741
3829.701	4685
3831.331	4678
3832.96	4664
3834.591	4791
3836.219	4708
3837.847	4687
3839.475	4623
3841.102	4668
3842.729	4598
3844.357	4599
3845.984	4656
3847.609	4609
3849.234	4613
3850.86	4668
3852.485	4624
3854.11	4600
3855.734	4664
3857.357	4611
3858.981	4615
3860.603	4624
3862.227	4658
3863.848	4652
3865.471	4586
3867.092	4528
3868.713	4621
3870.334	4664
3871.954	4626
3873.575	4637
3875.194	4488
3876.813	4599
3878.433	4553
3880.051	4517
3881.669	4508
3883.286	4520
3884.904	4510
3886.52	4536
3888.138	4629
3889.754	4505
3891.37	4522
3892.985	4514
3894.6	4583
3896.216	4446
3897.831	4522
3899.444	4626
3901.058	4508
3902.67	4466
3904.283	4484
3905.897	4530
3907.509	4453
3909.121	4522
3910.731	4498
3912.342	4667
3913.954	4474
3915.563	4504
3917.174	4488
3918.783	4552
3920.391	4534
3922.002	4449
3923.611	4482
3925.218	4438
3926.826	4418
3928.432	4436
3930.039	4520
3931.647	4550
3933.253	4524
3934.859	4515
3936.464	4391
3938.068	4466
3939.675	4500
3941.278	4397
3942.883	4418
3944.486	4390
3946.089	4499
3947.692	4390
3949.295	4449
3950.898	4386
3952.499	4373
3954.1	4428
3955.7	4373
3957.303	4335
3958.903	4337
3960.502	4376
3962.101	4398
3963.7	4389
3965.301	4410
3966.899	4475
3968.497	4403
3970.094	4400
3971.691	4271
3973.288	4353
3974.885	4353
3976.481	4424
3978.077	4260
3979.672	4345
3981.267	4367
3982.863	4355
3984.457	4361
3986.051	4261
3987.645	4319
3989.238	4265
3990.831	4257
3992.425	4302
3994.017	4303
3995.607	4290
3997.199	4252
3998.79	4233
4000.382	4375
4001.973	4132
4003.561	4142
4005.151	4202
4006.741	4291
4008.331	4166
4009.918	4224
4011.507	4256
4013.095	4299
4014.681	4109
4016.269	4158
4017.856	4195
4019.443	4239
4021.028	4126
4022.614	4189
4024.199	4227
4025.785	4151
4027.37	4118
4028.953	4101
4030.536	4163
4032.12	4186
4033.704	4074
4035.287	4147
4036.869	4147
4038.45	4155
4040.032	4096
4041.613	4113
4043.195	4065
4044.776	4074
4046.356	4090
4047.935	4075
4049.515	4117
4051.095	4118
4052.674	3998
4054.251	4141
4055.829	4105
4057.406	4073
4058.985	4105
4060.562	4128
4062.139	3974
4063.715	4061
4065.29	4002
4066.865	3989
4068.442	4094
4070.016	4088
4071.59	4088
4073.164	4061
4074.738	4113
4076.312	4028
4077.885	4084
4079.458	4012
4081.03	4006
4082.602	4005
4084.173	4039
4085.745	4001
4087.315	4007
4088.886	4052
4090.456	3964
4092.026	3968
4093.596	3955
4095.165	4079
4096.734	3905
4098.301	3947
4099.869	3917
4101.437	3982
4103.006	3916
4104.572	3989
4106.139	3895
4107.704	3987
4109.27	3933
4110.837	3937
4112.401	3945
4113.966	3989
4115.53	3889
4117.094	3925
4118.659	3945
4120.223	3885
4121.785	3861
4123.347	3916
4124.909	3875
4126.471	3879
4128.034	3858
4129.595	3897
4131.155	3909
4132.716	3849
4134.275	3787
4135.836	3853
4137.395	3788
4138.955	3851
4140.513	3834
4142.071	3824
4143.628	3799
4145.188	3846
4146.745	3822
4148.302	3752
4149.858	3828
4151.414	3806
4152.971	3799
4154.526	3733
4156.081	3749
4157.635	3675
4159.189	3854
4160.745	3635
4162.298	3787
4163.852	3779
4165.405	3785
4166.957	3723
4168.51	3690
4170.063	3840
4171.614	3709
4173.166	3710
4174.717	3700
4176.267	3662
4177.817	3776
4179.368	3650
4180.917	3654
4182.466	3748
4184.016	3785
4185.564	3691
4187.112	3667
4188.66	3695
4190.207	3750
4191.754	3710
4193.301	3703
4194.848	3682
4196.394	3634
4197.94	3652
4199.484	3694
4201.03	3614
4202.575	3656
4204.12	3687
4205.663	3609
4207.207	3609
4208.75	3661
4210.292	3610
4211.836	3629
4213.378	3614
4214.92	3573
4216.46	3674
4218.002	3664
4219.544	3616
4221.083	3635
4222.625	3653
4224.164	3610
4225.703	3615
4227.244	3683
4228.782	3597
4230.32	3695
4231.857	3595
4233.395	3596
4234.933	3543
4236.471	3507
4238.007	3615
4239.542	3603
4241.078	3593
4242.614	3627
4244.15	3534
4245.685	3555
4247.219	3633
4248.753	3633
4250.287	3540
4251.82	3580
4253.354	3605
4254.887	3561
4256.419	3549
4257.951	3626
4259.483	3585
4261.016	3560
4262.547	3486
4264.078	3534
4265.608	3570
4267.137	3530
4268.668	3481
4270.197	3579
4271.727	3560
4273.254	3507
4274.783	3531
4276.311	3551
4277.84	3495
4279.366	3513
4280.894	3518
4282.42	3458
4283.946	3463
4285.473	3493
4286.998	3458
4288.523	3420
4290.047	3476
4291.572	3437
4293.096	3436
4294.622	3477
4296.144	3519
4297.668	3505
4299.19	3433
4300.713	3481
4302.236	3353
4303.758	3480
4305.279	3463
4306.799	3480
4308.321	3449
4309.842	3403
4311.361	3396
4312.882	3418
4314.401	3382
