400.0961	2926
402.6185	2929
405.1424	2998
407.6635	3001
410.1838	3058
412.7035	2976
415.2225	2967
417.7388	3026
420.2585	3117
422.7754	3049
425.2917	3182
427.8072	3184
430.3221	3171
432.8363	3167
435.3498	3193
437.8626	3137
440.3727	3206
442.8841	3157
445.3969	3146
447.907	3185
450.4142	3133
452.9229	3255
455.4289	3102
457.9362	3151
460.4449	3126
462.9488	3200
465.454	3073
467.9566	3171
470.4604	3204
472.9637	3103
475.4662	3157
477.966	3073
480.4671	3109
482.9656	3076
485.4633	3106
487.9645	3203
490.4608	3152
492.9566	3278
495.4536	3156
497.948	3156
500.4437	3171
502.9387	3201
505.431	3220
507.9226	3246
510.4136	3186
512.9079	3193
515.3975	3121
517.8864	3258
520.3746	3234
522.8622	3211
525.3491	3176
527.8394	3244
530.3249	3258
532.8098	3278
535.2939	3178
537.7774	3238
540.2623	3272
542.7444	3229
545.2259	3237
547.7067	3243
550.1868	3252
552.6683	3209
555.147	3236
557.6231	3310
560.1005	3230
562.5773	3339
565.0534	3313
567.5308	3312
570.0056	3314
572.4776	3334
574.951	3379
577.4237	3348
579.8978	3393
582.3671	3452
584.8378	3458
587.3079	3427
589.7773	3439
592.244	3427
594.714	3437
597.1793	3400
599.6461	3411
602.1121	3335
604.5754	3361
607.0421	3334
609.5042	3421
611.9675	3364
614.4282	3286
616.8902	3353
619.3515	3331
621.8122	3285
624.2702	3313
626.7296	3308
629.1863	3304
631.6423	3262
634.1017	3291
636.5563	3342
639.0104	3342
641.4658	3383
643.9185	3412
646.3725	3343
648.8239	3348
651.2766	3366
653.7266	3358
656.176	3298
658.6247	3423
661.0748	3355
663.5242	3384
665.9709	3369
668.417	3384
670.8624	3378
673.3092	3408
675.7533	3455
678.1968	3437
680.6395	3433
683.0817	3434
685.5251	3416
687.9659	3429
690.4061	3402
692.8456	3312
695.2844	3436
697.7226	3405
700.1621	3426
702.599	3468
705.0332	3497
707.4688	3466
709.9036	3495
712.3399	3454
714.7735	3428
717.2044	3484
719.6367	3510
722.0683	3494
724.4993	3604
726.9296	3448
729.3593	3529
731.7883	3539
734.2147	3493
736.6423	3534
739.0714	3549
741.4958	3468
743.9216	3640
746.3447	3646
748.7691	3611
751.1929	3605
753.616	3629
756.0366	3691
758.4584	3602
760.8776	3715
763.2982	3650
765.718	3613
768.1373	3632
770.5539	3645
772.9698	3723
775.3871	3664
777.8038	3677
780.2178	3649
782.6332	3667
785.0459	3647
787.458	3743
789.8714	3701
792.2842	3610
794.6943	3666
797.1038	3653
799.5127	3651
801.9209	3625
804.3324	3691
806.7393	3697
809.1456	3618
811.5513	3680
813.9562	3769
816.3625	3719
818.7663	3714
821.1693	3713
823.5718	3741
825.9735	3756
828.3746	3779
830.7771	3711
833.177	3713
835.5762	3798
837.9747	3760
840.3727	3714
842.772	3796
845.1666	3773
847.5626	3847
849.958	3879
852.3527	3817
854.7488	3871
857.1403	3871
859.5331	3861
861.9253	3786
864.3168	3764
866.7057	3790
869.098	3862
871.4876	3870
873.8746	3773
876.263	3759
878.6487	3880
881.0378	3757
883.4243	3865
885.8081	3751
888.1933	3838
890.5759	3822
892.9598	3853
895.343	3847
897.7256	3846
900.1057	3764
902.4871	3927
904.8659	3811
907.246	3940
909.6254	3873
912.0023	3906
914.3786	3853
916.7562	4035
919.1331	3995
921.5074	4094
923.8831	4038
926.2562	4160
928.6287	4026
931.0005	3983
933.3757	4032
935.7462	4149
938.1162	4032
940.4855	4105
942.8542	4159
945.2242	4247
947.5916	4346
949.9584	4479
952.3266	4695
954.6921	4961
957.0571	5128
959.4233	5310
961.787	5378
964.15	5369
966.5125	5162
968.8742	4891
971.2354	4581
973.5959	4492
975.9559	4295
978.3151	4166
980.6738	4117
983.0338	4040
985.3912	3956
987.7461	3967
990.1022	3962
992.4578	4003
994.8127	3925
997.1689	3882
999.5207	3986
1001.874	4108
1004.226	4024
1006.576	4020
1008.929	4101
1011.28	4015
1013.628	3987
1015.977	4020
1018.324	3907
1020.674	3952
1023.019	4083
1025.366	4052
1027.713	4052
1030.056	4079
1032.399	4082
1034.746	4071
1037.087	4119
1039.431	4076
1041.771	4035
1044.113	4097
1046.454	4100
1048.793	4127
1051.133	4077
1053.471	3997
1055.807	4043
1058.146	4201
1060.483	4045
1062.818	4288
1065.153	4209
1067.489	4221
1069.822	4234
1072.156	4135
1074.488	4220
1076.82	4236
1079.15	4091
1081.48	4182
1083.814	4117
1086.143	4071
1088.471	4088
1090.799	4182
1093.126	4030
1095.452	4042
1097.78	4018
1100.105	4057
1102.43	4084
1104.754	4112
1107.077	4018
1109.4	4075
1111.722	4083
1114.044	4193
1116.365	4072
1118.685	4131
1121.005	4087
1123.324	4089
1125.643	4020
1127.961	4082
1130.278	4026
1132.595	4032
1134.911	4099
1137.226	4010
1139.541	4041
1141.854	4099
1144.167	4045
1146.482	4099
1148.793	4062
1151.105	4092
1153.414	4118
1155.725	4079
1158.033	3963
1160.344	4077
1162.651	4043
1164.959	4004
1167.265	4101
1169.572	4094
1171.878	4059
1174.184	4051
1176.488	4130
1178.79	4053
1181.094	4139
1183.396	4062
1185.699	4059
1188.001	4076
1190.301	4081
1192.6	4061
1194.9	4097
1197.2	4063
1199.497	4072
1201.794	4114
1204.09	4138
1206.387	4036
1208.684	4047
1210.978	4163
1213.272	4156
1215.565	4145
1217.858	4076
1220.15	4141
1222.443	4150
1224.734	4084
1227.024	4191
1229.313	4056
1231.602	4263
1233.892	4162
1236.18	4214
1238.467	4186
1240.754	4272
1243.04	4271
1245.325	4210
1247.612	4240
1249.896	4262
1252.178	4338
1254.461	4369
1256.743	4329
1259.027	4308
1261.308	4260
1263.587	4209
1265.867	4171
1268.146	4303
1270.425	4232
1272.703	4379
1274.981	4293
1277.256	4227
1279.532	4265
1281.808	4281
1284.083	4262
1286.358	4182
1288.63	4378
1290.904	4228
1293.175	4205
1295.449	4266
1297.719	4222
1299.99	4087
1302.259	4182
1304.529	4166
1306.798	4184
1309.065	4165
1311.333	4259
1313.599	4195
1315.866	4156
1318.131	4183
1320.396	4126
1322.66	4225
1324.925	4210
1327.187	4123
1329.448	4216
1331.711	4199
1333.974	4224
1336.234	4218
1338.493	4242
1340.752	4177
1343.01	4196
1345.269	4203
1347.526	4248
1349.784	4259
1352.04	4187
1354.295	4191
1356.552	4218
1358.806	4094
1361.059	4268
1363.312	4115
1365.564	4177
1367.818	4162
1370.069	4105
1372.318	4203
1374.568	4255
1376.817	4239
1379.066	4197
1381.316	4257
1383.564	4221
1385.809	4294
1388.056	4303
1390.301	4342
1392.549	4335
1394.793	4312
1397.036	4265
1399.279	4361
1401.522	4343
1403.763	4371
1406.007	4356
1408.248	4287
1410.487	4343
1412.727	4312
1414.965	4286
1417.205	4383
1419.442	4430
1421.68	4394
1423.915	4343
1426.152	4379
1428.388	4404
1430.623	4328
1432.857	4413
1435.091	4413
1437.323	4483
1439.556	4427
1441.789	4420
1444.019	4410
1446.25	4434
1448.48	4420
1450.708	4469
1452.938	4452
1455.167	4473
1457.394	4551
1459.62	4479
1461.846	4432
1464.073	4397
1466.299	4572
1468.523	4431
1470.746	4399
1472.969	4431
1475.191	4299
1477.415	4304
1479.636	4327
1481.858	4364
1484.078	4257
1486.298	4228
1488.518	4198
1490.736	4277
1492.954	4245
1495.169	4177
1497.386	4242
1499.602	4257
1501.819	4240
1504.034	4209
1506.248	4295
1508.462	4172
1510.675	4170
1512.888	4145
1515.1	4200
1517.311	4103
1519.522	4231
1521.732	4113
1523.942	4233
1526.151	4163
1528.36	4219
1530.566	4219
1532.773	4323
1534.98	4219
1537.187	4170
1539.392	4317
1541.596	4130
1543.801	4284
1546.005	4226
1548.208	4238
1550.411	4210
1552.612	4167
1554.814	4373
1557.013	4220
1559.212	4318
1561.414	4310
1563.612	4249
1565.811	4310
1568.007	4326
1570.203	4305
1572.403	4320
1574.598	4331
1576.792	4288
1578.988	4326
1581.181	4284
1583.376	4337
1585.568	4390
1587.761	4359
1589.952	4409
1592.143	4332
1594.333	4345
1596.524	4283
1598.715	4386
1600.903	4316
1603.091	4335
1605.278	4350
1607.466	4278
1609.652	4385
1611.838	4457
1614.023	4393
1616.207	4442
1618.391	4319
1620.576	4376
1622.759	4397
1624.941	4452
1627.123	4399
1629.304	4426
1631.484	4351
1633.664	4508
1635.844	4389
1638.022	4477
1640.201	4444
1642.38	4428
1644.556	4398
1646.732	4463
1648.908	4373
1651.084	4420
1653.257	4460
1655.433	4541
1657.607	4468
1659.779	4531
1661.951	4524
1664.122	4444
1666.295	4518
1668.467	4531
1670.635	4556
1672.805	4567
1674.973	4550
1677.142	4512
1679.31	4546
1681.478	4426
1683.644	4520
1685.81	4531
1687.975	4481
1690.142	4495
1692.305	4412
1694.468	4453
1696.632	4413
1698.794	4418
1700.957	4392
1703.119	4441
1705.279	4408
1707.439	4361
1709.598	4483
1711.758	4327
1713.917	4325
1716.075	4295
1718.231	4334
1720.388	4302
1722.543	4305
1724.702	4426
1726.856	4383
1729.01	4337
1731.164	4336
1733.317	4373
1735.471	4380
1737.623	4321
1739.774	4341
1741.925	4271
1744.075	4320
1746.225	4302
1748.376	4174
1750.524	4326
1752.672	4382
1754.82	4403
1756.965	4332
1759.113	4377
1761.259	4372
1763.405	4297
1765.549	4366
1767.694	4340
1769.836	4324
1771.981	4394
1774.123	4341
1776.264	4281
1778.405	4365
1780.546	4419
1782.687	4412
1784.827	4439
1786.966	4329
1789.103	4425
1791.242	4423
1793.381	4439
1795.517	4473
1797.653	4421
1799.788	4438
1801.923	4305
1804.057	4487
1806.193	4470
1808.326	4511
1810.457	4290
1812.59	4381
1814.721	4344
1816.855	4477
1818.984	4431
1821.113	4410
1823.244	4398
1825.372	4369
1827.499	4418
1829.63	4324
1831.756	4374
1833.882	4368
1836.007	4367
1838.132	4335
1840.26	4422
1842.384	4374
1844.507	4297
1846.63	4387
1848.752	4328
1850.875	4312
1852.996	4423
1855.118	4398
1857.238	4415
1859.358	4264
1861.477	4339
1863.597	4228
1865.715	4324
1867.832	4377
1869.948	4314
1872.064	4253
1874.181	4386
1876.297	4260
1878.411	4346
1880.526	4314
1882.639	4309
1884.752	4366
1886.865	4458
1888.977	4392
1891.089	4288
1893.2	4391
1895.308	4313
1897.42	4345
1899.53	4389
1901.639	4414
1903.745	4342
1905.853	4381
1907.962	4331
1910.067	4485
1912.174	4425
1914.278	4371
1916.383	4302
1918.486	4369
1920.592	4384
1922.694	4437
1924.797	4418
1926.898	4411
1929	4441
1931.102	4424
1933.203	4445
1935.301	4391
1937.401	4539
1939.499	4456
1941.598	4400
1943.697	4484
1945.793	4447
1947.888	4499
1949.985	4353
1952.08	4362
1954.176	4470
1956.269	4425
1958.364	4450
1960.457	4378
1962.549	4430
1964.642	4414
1966.733	4361
1968.823	4456
1970.913	4398
1973.005	4451
1975.093	4512
1977.184	4391
1979.271	4402
1981.359	4367
1983.446	4464
1985.532	4394
1987.619	4376
1989.705	4321
1991.789	4333
1993.874	4431
1995.956	4455
1998.041	4394
2000.123	4367
2002.206	4306
2004.287	4431
2006.368	4358
2008.449	4320
2010.529	4305
2012.609	4429
2014.688	4476
2016.766	4441
2018.843	4428
2020.922	4405
2022.999	4330
2025.074	4322
2027.15	4326
2029.225	4291
2031.299	4355
2033.375	4327
2035.447	4373
2037.52	4482
2039.592	4364
2041.664	4308
2043.736	4432
2045.807	4433
2047.876	4435
2049.947	4312
2052.015	4408
2054.086	4468
2056.153	4413
2058.221	4425
2060.288	4349
2062.353	4291
2064.42	4436
2066.486	4456
2068.55	4432
2070.614	4386
2072.678	4434
2074.741	4410
2076.805	4432
2078.866	4399
2080.929	4412
2082.99	4407
2085.049	4442
2087.109	4384
2089.17	4383
2091.228	4354
2093.286	4459
2095.344	4389
2097.4	4385
2099.46	4340
2101.516	4429
2103.572	4428
2105.626	4379
2107.679	4282
2109.735	4366
2111.788	4274
2113.841	4460
2115.894	4397
2117.945	4451
2119.997	4363
2122.049	4358
2124.1	4317
2126.148	4454
2128.197	4361
2130.246	4350
2132.296	4370
2134.342	4414
2136.39	4360
2138.437	4367
2140.483	4326
2142.527	4348
2144.574	4304
2146.619	4257
2148.661	4423
2150.705	4349
2152.747	4362
2154.792	4268
2156.832	4437
2158.874	4371
2160.915	4311
2162.954	4340
2164.995	4333
2167.034	4262
2169.072	4450
2171.111	4359
2173.148	4358
2175.186	4462
2177.223	4330
2179.258	4337
2181.294	4301
2183.328	4398
2185.362	4280
2187.398	4319
2189.431	4317
2191.463	4434
2193.495	4373
2195.528	4235
2197.56	4349
2199.59	4343
2201.62	4253
2203.649	4241
2205.678	4337
2207.708	4237
2209.737	4369
2211.764	4268
2213.791	4254
2215.817	4211
2217.843	4278
2219.87	4310
2221.895	4344
2223.919	4341
2225.942	4275
2227.966	4247
2229.988	4264
2232.012	4336
2234.032	4303
2236.054	4202
2238.074	4267
2240.095	4250
2242.116	4331
2244.135	4403
2246.153	4301
2248.171	4303
2250.188	4343
2252.208	4281
2254.223	4293
2256.239	4347
2258.255	4335
2260.269	4215
2262.283	4281
2264.3	4269
2266.312	4321
2268.325	4294
2270.336	4331
2272.349	4248
2274.362	4331
2276.372	4312
2278.383	4221
2280.392	4246
2282.402	4278
2284.409	4263
2286.418	4278
2288.427	4361
2290.433	4283
2292.441	4366
2294.446	4231
2296.453	4314
2298.459	4414
2300.463	4285
2302.466	4305
2304.471	4203
2306.475	4384
2308.477	4172
2310.478	4277
2312.481	4323
2314.481	4176
2316.481	4289
2318.482	4264
2320.482	4260
2322.48	4270
2324.48	4291
2326.478	4232
2328.476	4244
2330.473	4288
2332.469	4233
2334.465	4180
2336.46	4244
2338.454	4260
2340.45	4265
2342.444	4217
2344.437	4253
2346.43	4264
2348.421	4210
2350.414	4236
2352.405	4207
2354.396	4257
2356.386	4184
2358.376	4206
2360.366	4205
2362.355	4243
2364.343	4219
2366.331	4148
2368.317	4160
2370.304	4214
2372.292	4173
2374.278	4215
2376.262	4149
2378.247	4177
2380.23	4202
2382.216	4155
2384.199	4089
2386.181	4150
2388.163	4170
2390.144	4180
2392.127	4211
2394.107	4096
2396.087	4208
2398.066	4096
2400.046	4117
2402.023	4214
2404.004	4160
2405.981	4172
2407.957	4194
2409.934	4169
2411.91	4081
2413.886	4076
2415.862	4073
2417.836	4146
2419.809	4078
2421.784	4147
2423.756	4143
2425.73	4245
2427.701	4167
2429.672	4214
2431.644	4121
2433.615	4147
2435.586	4133
2437.555	4120
2439.523	4159
2441.491	4112
2443.459	4147
2445.428	4201
2447.395	4135
2449.361	4237
2451.327	4148
2453.292	4056
2455.257	4148
2457.223	4176
2459.187	4110
2461.15	4195
2463.113	4111
2465.076	4185
2467.039	4111
2468.999	4142
2470.96	4076
2472.921	4244
2474.881	4108
2476.841	4135
2478.8	4039
2480.759	4135
2482.717	4063
2484.675	4141
2486.63	4028
2488.589	4206
2490.545	4101
2492.5	4061
2494.455	4072
2496.408	4115
2498.364	4106
2500.318	4093
2502.27	4115
2504.223	4077
2506.174	4042
2508.126	4067
2510.078	4120
2512.03	4027
2513.979	4119
2515.927	4110
2517.877	4074
2519.826	4063
2521.775	4079
2523.722	4022
2525.668	4136
2527.616	4051
2529.561	4017
2531.508	4073
2533.452	4126
2535.398	4091
2537.342	4029
2539.284	3997
2541.229	4113
2543.173	4059
2545.114	4061
2547.055	4072
2548.996	4095
2550.938	4002
2552.878	4086
2554.817	4061
2556.756	4045
2558.695	4124
2560.633	3979
2562.572	4184
2564.509	4078
2566.445	4026
2568.382	4106
2570.317	4146
2572.254	3995
2574.189	4024
2576.123	4107
2578.057	4003
2579.99	4091
2581.923	4064
2583.855	4068
2585.788	4119
2587.719	4085
2589.65	4096
2591.579	4113
2593.511	4128
2595.44	4103
2597.37	4027
2599.297	4064
2601.225	4031
2603.153	4077
2605.08	4096
2607.007	4003
2608.932	4081
2610.858	4039
2612.782	3996
2614.709	4128
2616.632	4103
2618.556	4005
2620.478	4113
2622.401	4073
2624.324	4038
2626.247	4068
2628.167	4124
2630.088	4116
2632.008	4050
2633.928	4141
2635.848	4019
2637.766	4086
2639.684	4073
2641.603	4014
2643.519	4035
2645.437	4038
2647.353	4097
2649.27	3941
2651.184	4063
2653.099	4142
2655.014	4011
2656.928	4039
2658.842	4111
2660.755	4118
2662.667	4046
2664.579	4049
2666.491	4124
2668.402	4052
2670.312	4106
2672.222	4072
2674.132	4045
2676.042	4026
2677.951	4036
2679.859	4066
2681.766	4103
2683.674	4049
2685.582	4082
2687.488	4030
2689.392	4005
2691.298	4003
2693.202	3996
2695.107	3942
2697.012	4090
2698.914	4145
2700.817	4043
2702.72	4018
2704.622	4058
2706.524	3917
2708.425	4060
2710.326	4058
2712.225	4086
2714.125	3982
2716.024	3963
2717.923	4043
2719.822	3962
2721.719	3976
2723.616	4030
2725.512	4072
2727.41	3912
2729.305	4025
2731.201	4014
2733.095	4026
2734.99	3923
2736.884	4031
2738.778	4026
2740.67	4022
2742.562	4055
2744.455	3989
2746.346	3937
2748.238	4008
2750.129	4058
2752.018	4003
2753.907	3990
2755.797	3916
2757.687	4006
2759.575	3927
2761.462	4002
2763.349	4041
2765.237	3915
2767.124	3975
2769.009	3918
2770.894	3957
2772.779	3964
2774.663	4071
2776.547	3928
2778.431	3963
2780.314	3943
2782.197	4031
2784.078	3920
2785.96	4006
2787.842	3932
2789.723	3977
2791.603	4032
2793.483	3907
2795.362	3897
2797.241	4130
2799.121	4003
2800.997	4041
2802.874	3896
2804.751	3927
2806.628	3942
2808.506	3990
2810.38	4006
2812.255	4002
2814.13	3964
2816.003	3858
2817.878	3951
2819.752	3998
2821.623	3961
2823.496	3915
2825.368	4041
2827.238	3989
2829.111	3928
2830.98	3908
2832.851	4005
2834.719	3986
2836.589	4069
2838.458	3890
2840.327	3965
2842.193	3976
2844.061	4012
2845.927	3993
2847.794	3974
2849.66	3943
2851.525	4002
2853.39	3991
2855.254	3948
2857.117	4057
2858.983	4085
2860.845	4101
2862.707	4047
2864.569	4120
2866.431	4108
2868.293	4067
2870.154	4215
2872.013	4229
2873.873	4165
2875.733	4382
2877.592	4269
2879.451	4316
2881.309	4432
2883.166	4362
2885.022	4448
2886.879	4457
2888.736	4431
2890.591	4430
2892.446	4555
2894.301	4499
2896.155	4510
2898.009	4515
2899.863	4463
2901.716	4401
2903.568	4506
2905.419	4512
2907.27	4372
2909.123	4491
2910.973	4425
2912.824	4450
2914.673	4526
2916.521	4551
2918.372	4672
2920.22	4733
2922.067	4691
2923.914	4737
2925.761	4839
2927.607	4847
2929.455	4950
2931.301	4952
2933.144	4931
2934.99	5024
2936.833	5084
2938.678	5086
2940.522	5129
2942.364	5155
2944.207	5248
2946.048	5216
2947.891	5308
2949.731	5188
2951.571	5246
2953.412	5262
2955.25	5190
2957.09	5053
2958.93	5081
2960.767	5028
2962.606	4911
2964.443	4885
2966.279	4868
2968.116	4768
2969.953	4801
2971.788	4783
2973.623	4636
2975.457	4679
2977.292	4731
2979.127	4689
2980.959	4640
2982.792	4581
2984.624	4545
2986.455	4495
2988.288	4622
2990.119	4538
2991.949	4446
2993.779	4423
2995.608	4364
2997.439	4362
2999.268	4253
3001.096	4306
3002.923	4178
3004.751	4179
3006.578	4137
3008.406	4218
3010.232	4178
3012.057	4123
3013.883	4056
3015.706	3918
3017.532	4033
3019.356	3926
3021.179	3947
3023.002	3893
3024.823	3898
3026.646	3885
3028.469	3845
3030.289	3882
3032.11	3882
3033.93	3841
3035.749	3851
3037.57	3736
3039.39	3885
3041.207	3813
3043.026	3801
3044.842	3867
3046.661	3811
3048.477	3772
3050.294	3730
3052.109	3848
3053.925	3833
3055.739	3758
3057.555	3768
3059.368	3794
3061.181	3823
3062.995	3723
3064.807	3745
3066.62	3829
3068.433	3754
3070.243	3775
3072.054	3743
3073.865	3815
3075.675	3750
3077.485	3805
3079.293	3775
3081.102	3746
3082.911	3675
3084.719	3714
3086.527	3767
3088.333	3724
3090.139	3657
3091.945	3696
3093.75	3790
3095.557	3717
3097.361	3779
3099.165	3694
3100.969	3686
3102.772	3684
3104.575	3694
3106.379	3743
3108.181	3630
3109.982	3732
3111.783	3635
3113.584	3599
3115.386	3604
3117.186	3613
3118.985	3690
3120.783	3716
3122.582	3585
3124.381	3612
3126.179	3644
3127.975	3665
3129.772	3573
3131.569	3668
3133.365	3600
3135.161	3618
3136.956	3596
3138.751	3604
3140.544	3625
3142.338	3646
3144.132	3625
3145.925	3685
3147.717	3573
3149.509	3620
3151.301	3595
3153.091	3481
3154.884	3670
3156.673	3559
3158.462	3633
3160.252	3599
3162.041	3586
3163.831	3572
3165.618	3559
3167.405	3634
3169.193	3539
3170.979	3585
3172.767	3554
3174.553	3607
3176.338	3602
3178.123	3589
3179.907	3605
3181.692	3559
3183.477	3716
3185.259	3640
3187.042	3474
3188.824	3555
3190.607	3619
3192.389	3580
3194.17	3667
3195.951	3537
3197.73	3546
3199.51	3542
3201.289	3525
3203.07	3605
3204.848	3649
3206.626	3497
3208.403	3568
3210.18	3522
3211.959	3606
3213.735	3536
3215.511	3585
3217.285	3571
3219.06	3526
3220.836	3594
3222.611	3570
3224.384	3584
3226.158	3575
3227.929	3610
3229.702	3551
3231.476	3588
3233.248	3550
3235.018	3577
3236.789	3586
3238.56	3607
3240.33	3537
3242.1	3582
3243.869	3466
3245.637	3569
3247.405	3569
3249.172	3602
3250.941	3561
3252.707	3559
3254.474	3582
3256.24	3553
3258.006	3583
3259.772	3508
3261.537	3591
3263.301	3588
3265.065	3587
3266.828	3584
3268.592	3461
3270.355	3635
3272.117	3600
3273.878	3590
3275.64	3566
3277.401	3602
3279.162	3509
3280.922	3566
3282.682	3547
3284.441	3583
3286.199	3509
3287.959	3537
3289.716	3628
3291.475	3637
3293.232	3566
3294.988	3599
3296.744	3628
3298.501	3635
3300.256	3668
3302.011	3566
3303.766	3569
3305.52	3619
3307.275	3592
3309.028	3588
3310.781	3596
3312.533	3569
3314.285	3521
3316.038	3618
3317.789	3563
3319.54	3569
3321.289	3598
3323.039	3665
3324.789	3643
3326.539	3610
3328.288	3550
3330.035	3596
3331.783	3616
3333.531	3614
3335.28	3526
3337.025	3618
3338.771	3585
3340.518	3546
3342.262	3500
3344.009	3584
3345.753	3527
3347.497	3543
3349.24	3535
3350.983	3535
3352.726	3550
3354.469	3554
3356.212	3461
3357.952	3438
3359.694	3582
3361.434	3485
3363.176	3477
3364.916	3571
3366.654	3459
3368.394	3457
3370.132	3487
3371.871	3521
3373.61	3513
3375.346	3441
3377.083	3474
3378.82	3520
3380.556	3452
3382.292	3497
3384.027	3467
3385.763	3469
3387.497	3417
3389.231	3454
3390.965	3513
3392.698	3470
3394.431	3423
3396.164	3440
3397.896	3495
3399.627	3474
3401.36	3427
3403.09	3473
3404.82	3397
3406.55	3400
3408.279	3388
3410.01	3425
3411.738	3443
3413.467	3457
3415.194	3367
3416.92	3390
3418.647	3411
3420.375	3443
3422.102	3430
3423.827	3322
3425.553	3370
3427.277	3429
3429.003	3396
3430.727	3358
3432.451	3408
3434.173	3394
3435.896	3357
3437.62	3407
3439.343	3380
3441.063	3327
3442.785	3410
3444.505	3332
3446.226	3361
3447.948	3333
3449.666	3319
3451.386	3260
3453.104	3356
3454.823	3325
3456.541	3346
3458.259	3326
3459.976	3235
3461.693	3400
3463.408	3280
3465.125	3281
3466.841	3274
3468.556	3313
3470.271	3241
3471.985	3221
3473.698	3275
3475.414	3258
3477.126	3292
3478.838	3237
3480.55	3285
3482.263	3234
3483.975	3275
3485.686	3269
3487.396	3218
3489.106	3278
3490.817	3131
3492.526	3252
3494.236	3148
3495.944	3235
3497.652	3254
3499.359	3207
3501.066	3215
3502.775	3207
3504.481	3119
3506.187	3173
3507.893	3132
3509.598	3137
3511.304	3164
3513.009	3131
3514.713	3138
3516.417	3200
3518.12	3108
3519.821	3161
3521.525	3084
3523.228	3171
3524.929	3128
3526.631	3148
3528.33	3191
3530.032	3172
3531.733	3177
3533.433	3133
3535.131	3150
3536.83	3051
3538.529	3070
3540.227	3093
3541.925	3144
3543.623	3132
3545.319	3057
3547.016	3067
3548.712	3062
3550.408	3107
3552.103	3159
3553.798	3091
3555.491	3067
3557.188	3083
3558.88	3054
3560.574	3071
3562.266	3062
3563.959	3064
3565.651	3013
3567.343	3039
3569.035	3048
3570.725	3032
3572.415	2960
3574.106	3027
3575.797	3063
3577.485	3054
3579.174	3074
3580.863	3014
3582.551	2953
3584.238	3056
3585.926	2916
3587.613	2915
3589.3	2938
3590.986	2976
3592.671	2933
3594.357	2967
3596.042	2933
3597.726	2994
3599.41	2928
3601.094	2963
3602.778	2899
3604.461	2953
3606.143	2952
3607.825	2946
3609.507	2910
3611.188	2909
3612.87	2958
3614.551	2968
3616.229	2884
3617.909	2869
3619.589	2964
3621.269	2905
3622.948	2932
3624.625	2805
3626.302	2903
3627.98	2886
3629.657	2909
3631.334	2891
3633.01	2805
3634.686	2847
3636.361	2822
3638.036	2875
3639.712	2911
3641.385	2835
3643.06	2902
3644.732	2902
3646.405	2827
3648.08	2838
3649.751	2814
3651.424	2766
3653.094	2768
3654.766	2777
3656.436	2792
3658.106	2822
3659.777	2748
3661.446	2803
3663.115	2749
3664.783	2817
3666.452	2847
3668.121	2805
3669.788	2836
3671.454	2782
3673.121	2791
3674.789	2792
3676.455	2740
3678.12	2698
3679.784	2786
3681.45	2778
3683.114	2741
3684.779	2784
3686.442	2773
3688.105	2759
3689.768	2762
3691.43	2686
3693.093	2755
3694.754	2752
3696.415	2754
3698.076	2786
3699.736	2799
3701.396	2696
3703.057	2694
3704.716	2766
3706.375	2816
3708.034	2678
3709.692	2793
3711.351	2729
3713.008	2723
3714.665	2705
3716.321	2714
3717.977	2743
3719.634	2710
3721.29	2785
3722.945	2739
3724.598	2736
3726.253	2720
3727.907	2698
3729.561	2711
3731.214	2685
3732.867	2652
3734.518	2680
3736.171	2669
3737.824	2650
3739.474	2630
3741.125	2676
3742.775	2676
3744.425	2734
3746.074	2646
3747.725	2635
3749.373	2583
3751.022	2675
3752.669	2634
3754.318	2632
3755.966	2640
3757.612	2621
3759.259	2654
3760.905	2670
3762.55	2670
3764.197	2686
3765.842	2698
3767.486	2627
3769.131	2654
3770.774	2672
3772.417	2617
3774.061	2656
3775.705	2604
3777.347	2651
3778.988	2600
3780.629	2637
3782.271	2683
3783.912	2676
3785.552	2657
3787.192	2621
3788.831	2604
3790.472	2624
3792.112	2560
3793.75	2590
3795.388	2620
3797.024	2604
3798.661	2596
3800.3	2614
3801.936	2548
3803.572	2603
3805.208	2528
3806.844	2657
3808.48	2580
3810.115	2550
3811.748	2550
3813.382	2589
3815.016	2559
3816.649	2621
3818.283	2583
3819.914	2486
3821.547	2536
3823.178	2550
3824.809	2522
3826.441	2583
3828.072	2604
3829.701	2576
3831.331	2566
3832.96	2524
3834.591	2474
3836.219	2517
3837.847	2549
3839.475	2532
3841.102	2576
3842.729	2565
3844.357	2566
3845.984	2480
3847.609	2586
3849.234	2492
3850.86	2494
3852.485	2464
3854.11	2542
3855.734	2480
3857.357	2573
3858.981	2587
3860.603	2452
3862.227	2499
3863.848	2491
3865.471	2557
3867.092	2459
3868.713	2495
3870.334	2496
3871.954	2451
3873.575	2448
3875.194	2516
3876.813	2468
3878.433	2509
3880.051	2460
3881.669	2497
3883.286	2451
3884.904	2475
3886.52	2469
3888.138	2476
3889.754	2440
3891.37	2566
3892.985	2474
3894.6	2472
3896.216	2483
3897.831	2432
3899.444	2485
3901.058	2430
3902.67	2489
3904.283	2495
3905.897	2462
3907.509	2430
3909.121	2404
3910.731	2433
3912.342	2470
3913.954	2464
3915.563	2401
3917.174	2462
3918.783	2474
3920.391	2400
3922.002	2512
3923.611	2449
3925.218	2453
3926.826	2430
3928.432	2458
3930.039	2502
3931.647	2444
3933.253	2449
3934.859	2427
3936.464	2435
3938.068	2435
3939.675	2526
3941.278	2470
3942.883	2432
3944.486	2407
3946.089	2473
3947.692	2404
3949.295	2424
3950.898	2377
3952.499	2419
3954.1	2478
3955.7	2431
3957.303	2406
3958.903	2420
3960.502	2430
3962.101	2383
3963.7	2421
3965.301	2398
3966.899	2355
3968.497	2457
3970.094	2381
3971.691	2396
3973.288	2382
3974.885	2417
3976.481	2354
3978.077	2387
3979.672	2355
3981.267	2358
3982.863	2396
3984.457	2401
3986.051	2399
3987.645	2358
3989.238	2372
3990.831	2304
3992.425	2331
3994.017	2348
3995.607	2340
3997.199	2331
3998.79	2262
4000.382	2315
4001.973	2375
4003.561	2303
4005.151	2284
4006.741	2328
4008.331	2322
4009.918	2235
4011.507	2370
4013.095	2331
4014.681	2401
4016.269	2331
4017.856	2335
4019.443	2321
4021.028	2310
4022.614	2261
4024.199	2250
4025.785	2370
4027.37	2328
4028.953	2234
4030.536	2283
4032.12	2266
4033.704	2320
4035.287	2262
4036.869	2324
4038.45	2313
4040.032	2243
4041.613	2253
4043.195	2239
4044.776	2297
4046.356	2185
4047.935	2242
4049.515	2238
4051.095	2204
4052.674	2197
4054.251	2321
4055.829	2234
4057.406	2294
4058.985	2243
4060.562	2215
4062.139	2218
4063.715	2210
4065.29	2244
4066.865	2263
4068.442	2256
4070.016	2189
4071.59	2293
4073.164	2190
4074.738	2204
4076.312	2197
4077.885	2274
4079.458	2224
4081.03	2228
4082.602	2219
4084.173	2193
4085.745	2184
4087.315	2236
4088.886	2178
4090.456	2211
4092.026	2229
4093.596	2173
4095.165	2173
4096.734	2212
4098.301	2202
4099.869	2193
4101.437	2192
4103.006	2236
4104.572	2159
4106.139	2180
4107.704	2123
4109.27	2246
4110.837	2191
4112.401	2153
4113.966	2162
4115.53	2231
4117.094	2178
4118.659	2145
4120.223	2166
4121.785	2110
4123.347	2157
4124.909	2110
4126.471	2168
4128.034	2148
4129.595	2159
4131.155	2181
4132.716	2119
4134.275	2151
4135.836	2181
4137.395	2103
4138.955	2078
4140.513	2181
4142.071	2173
4143.628	2094
4145.188	2133
4146.745	2139
4148.302	2160
4149.858	2103
4151.414	2178
4152.971	2098
4154.526	2119
4156.081	2092
4157.635	2147
4159.189	2120
4160.745	2098
4162.298	2172
4163.852	2059
4165.405	2096
4166.957	2059
4168.51	2104
4170.063	2112
4171.614	2120
4173.166	2028
4174.717	2102
4176.267	2121
4177.817	2057
4179.368	1981
4180.917	2058
4182.466	2132
4184.016	2066
4185.564	2089
4187.112	2097
4188.66	2124
4190.207	2042
4191.754	2030
4193.301	2065
4194.848	2077
4196.394	2047
4197.94	2080
4199.484	2050
4201.03	2107
4202.575	2086
4204.12	2069
4205.663	2061
4207.207	2034
4208.75	2080
4210.292	2085
4211.836	2064
4213.378	2052
4214.92	2050
4216.46	2045
4218.002	2007
4219.544	2100
4221.083	2035
4222.625	2030
4224.164	1967
4225.703	2023
4227.244	2005
4228.782	2089
4230.32	2011
4231.857	2017
4233.395	2025
4234.933	1985
4236.471	2026
4238.007	2013
4239.542	1980
4241.078	2005
4242.614	1955
4244.15	2025
4245.685	2024
4247.219	2027
4248.753	2014
4250.287	1986
4251.82	2011
4253.354	2030
4254.887	1998
4256.419	2018
4257.951	1994
4259.483	1968
4261.016	1999
4262.547	2006
4264.078	2054
4265.608	2007
4267.137	1998
4268.668	1964
4270.197	1937
4271.727	2005
4273.254	1913
4274.783	1980
4276.311	1992
4277.84	1960
4279.366	1959
4280.894	1976
4282.42	1990
4283.946	1969
4285.473	1916
4286.998	1978
4288.523	1926
4290.047	1964
4291.572	1921
4293.096	1993
4294.622	2038
4296.144	1959
4297.668	1941
4299.19	1926
4300.713	1899
4302.236	1943
4303.758	1889
4305.279	1936
4306.799	1937
4308.321	1957
4309.842	1961
4311.361	1903
4312.882	1941
4314.401	1947
