400.0961	4158
402.6185	4267
405.1424	4293
407.6635	4163
410.1838	4282
412.7035	4307
415.2225	4297
417.7388	4392
420.2585	4277
422.7754	4376
425.2917	4478
427.8072	4480
430.3221	4513
432.8363	4554
435.3498	4493
437.8626	4582
440.3727	4391
442.8841	4536
445.3969	4536
447.907	4519
450.4142	4566
452.9229	4536
455.4289	4591
457.9362	4502
460.4449	4489
462.9488	4551
465.454	4583
467.9566	4566
470.4604	4555
472.9637	4461
475.4662	4563
477.966	4599
480.4671	4536
482.9656	4585
485.4633	4510
487.9645	4598
490.4608	4621
492.9566	4621
495.4536	4550
497.948	4578
500.4437	4666
502.9387	4643
505.431	4622
507.9226	4637
510.4136	4657
512.9079	4587
515.3975	4661
517.8864	4721
520.3746	4601
522.8622	4623
525.3491	4619
527.8394	4646
530.3249	4758
532.8098	4704
535.2939	4753
537.7774	4665
540.2623	4748
542.7444	4714
545.2259	4644
547.7067	4635
550.1868	4712
552.6683	4653
555.147	4652
557.6231	4742
560.1005	4711
562.5773	4780
565.0534	4712
567.5308	4752
570.0056	4814
572.4776	4747
574.951	4798
577.4237	4794
579.8978	4874
582.3671	4979
584.8378	4990
587.3079	4904
589.7773	4913
592.244	4911
594.714	4940
597.1793	4905
599.6461	4853
602.1121	4867
604.5754	4864
607.0421	4890
609.5042	4843
611.9675	4849
614.4282	4891
616.8902	4859
619.3515	4906
621.8122	4831
624.2702	4804
626.7296	4830
629.1863	4781
631.6423	4876
634.1017	4741
636.5563	4739
639.0104	4892
641.4658	4804
643.9185	4777
646.3725	4887
648.8239	4905
651.2766	4932
653.7266	4847
656.176	4820
658.6247	4890
661.0748	4851
663.5242	4905
665.9709	4897
668.417	4963
670.8624	4991
673.3092	5009
675.7533	4995
678.1968	4931
680.6395	4932
683.0817	5081
685.5251	5043
687.9659	4955
690.4061	5033
692.8456	4864
695.2844	4899
697.7226	4948
700.1621	5085
702.599	5076
705.0332	5122
707.4688	5041
709.9036	5183
712.3399	5029
714.7735	5042
717.2044	5066
719.6367	5145
722.0683	5112
724.4993	5088
726.9296	5103
729.3593	5133
731.7883	5163
734.2147	5178
736.6423	5212
739.0714	5109
741.4958	5261
743.9216	5119
746.3447	5320
748.7691	5223
751.1929	5327
753.616	5295
756.0366	5376
758.4584	5284
760.8776	5327
763.2982	5284
765.718	5317
768.1373	5374
770.5539	5280
772.9698	5351
775.3871	5363
777.8038	5382
780.2178	5324
782.6332	5446
785.0459	5386
787.458	5265
789.8714	5387
792.2842	5374
794.6943	5315
797.1038	5286
799.5127	5338
801.9209	5310
804.3324	5342
806.7393	5377
809.1456	5491
811.5513	5341
813.9562	5439
816.3625	5353
818.7663	5433
821.1693	5365
823.5718	5417
825.9735	5449
828.3746	5401
830.7771	5449
833.177	5454
835.5762	5416
837.9747	5363
840.3727	5405
842.772	5489
845.1666	5575
847.5626	5606
849.958	5577
852.3527	5561
854.7488	5583
857.1403	5534
859.5331	5584
861.9253	5536
864.3168	5591
866.7057	5416
869.098	5525
871.4876	5574
873.8746	5535
876.263	5571
878.6487	5614
881.0378	5604
883.4243	5622
885.8081	5531
888.1933	5463
890.5759	5460
892.9598	5468
895.343	5484
897.7256	5535
900.1057	5568
902.4871	5609
904.8659	5528
907.246	5541
909.6254	5643
912.0023	5602
914.3786	5661
916.7562	5748
919.1331	5793
921.5074	5744
923.8831	5831
926.2562	5884
928.6287	5926
931.0005	5864
933.3757	5880
935.7462	5949
938.1162	6003
940.4855	5998
942.8542	5965
945.2242	6130
947.5916	6164
949.9584	6270
952.3266	6446
954.6921	6667
957.0571	7013
959.4233	7210
961.787	7416
964.15	7283
966.5125	7081
968.8742	6698
971.2354	6444
973.5959	6167
975.9559	6130
978.3151	5858
980.6738	5935
983.0338	5868
985.3912	5668
987.7461	5623
990.1022	5726
992.4578	5693
994.8127	5673
997.1689	5729
999.5207	5724
1001.874	5734
1004.226	5835
1006.576	5761
1008.929	5845
1011.28	5795
1013.628	5706
1015.977	5856
1018.324	5810
1020.674	5781
1023.019	5801
1025.366	5860
1027.713	5751
1030.056	5781
1032.399	5853
1034.746	5955
1037.087	5922
1039.431	5795
1041.771	5904
1044.113	5770
1046.454	5942
1048.793	5898
1051.133	5899
1053.471	5768
1055.807	5876
1058.146	5819
1060.483	5940
1062.818	5946
1065.153	6033
1067.489	5941
1069.822	6020
1072.156	6007
1074.488	6158
1076.82	5959
1079.15	6044
1081.48	5903
1083.814	6022
1086.143	5881
1088.471	5894
1090.799	5900
1093.126	5843
1095.452	5990
1097.78	5883
1100.105	5967
1102.43	5962
1104.754	6009
1107.077	5949
1109.4	5914
1111.722	5884
1114.044	5972
1116.365	5955
1118.685	5874
1121.005	5862
1123.324	5870
1125.643	5906
1127.961	6005
1130.278	5944
1132.595	5932
1134.911	5915
1137.226	5931
1139.541	5847
1141.854	5990
1144.167	5904
1146.482	5877
1148.793	5920
1151.105	5881
1153.414	5887
1155.725	5929
1158.033	5814
1160.344	5936
1162.651	5919
1164.959	5876
1167.265	5941
1169.572	5872
1171.878	5840
1174.184	5883
1176.488	5898
1178.79	5931
1181.094	5976
1183.396	5944
1185.699	6047
1188.001	5935
1190.301	5973
1192.6	5974
1194.9	5896
1197.2	5938
1199.497	5863
1201.794	5934
1204.09	6001
1206.387	5906
1208.684	5996
1210.978	5951
1213.272	5968
1215.565	5924
1217.858	6010
1220.15	5968
1222.443	5961
1224.734	6068
1227.024	5980
1229.313	6008
1231.602	6044
1233.892	6028
1236.18	6206
1238.467	6099
1240.754	6187
1243.04	6148
1245.325	6176
1247.612	6234
1249.896	6265
1252.178	6284
1254.461	6112
1256.743	6194
1259.027	6267
1261.308	6351
1263.587	6273
1265.867	6123
1268.146	6190
1270.425	6191
1272.703	6037
1274.981	6196
1277.256	6278
1279.532	6000
1281.808	6224
1284.083	6072
1286.358	6177
1288.63	6182
1290.904	6163
1293.175	6198
1295.449	6144
1297.719	6091
1299.99	5966
1302.259	6087
1304.529	6130
1306.798	6076
1309.065	6207
1311.333	6206
1313.599	6119
1315.866	6083
1318.131	6192
1320.396	6104
1322.66	6129
1324.925	6128
1327.187	6168
1329.448	6174
1331.711	6120
1333.974	6082
1336.234	6107
1338.493	6083
1340.752	6069
1343.01	6058
1345.269	6105
1347.526	6184
1349.784	6041
1352.04	6111
1354.295	6047
1356.552	6004
1358.806	6150
1361.059	6078
1363.312	6024
1365.564	6033
1367.818	6136
1370.069	6050
1372.318	6020
1374.568	6128
1376.817	6168
1379.066	6145
1381.316	6162
1383.564	6325
1385.809	6196
1388.056	6178
1390.301	6313
1392.549	6134
1394.793	6387
1397.036	6305
1399.279	6335
1401.522	6419
1403.763	6297
1406.007	6359
1408.248	6331
1410.487	6321
1412.727	6400
1414.965	6300
1417.205	6205
1419.442	6300
1421.68	6222
1423.915	6479
1426.152	6292
1428.388	6395
1430.623	6297
1432.857	6373
1435.091	6333
1437.323	6366
1439.556	6388
1441.789	6526
1444.019	6437
1446.25	6420
1448.48	6385
1450.708	6409
1452.938	6530
1455.167	6604
1457.394	6535
1459.62	6386
1461.846	6465
1464.073	6427
1466.299	6409
1468.523	6332
1470.746	6455
1472.969	6279
1475.191	6371
1477.415	6197
1479.636	6239
1481.858	6107
1484.078	6235
1486.298	6165
1488.518	6102
1490.736	6071
1492.954	6125
1495.169	6170
1497.386	6040
1499.602	6100
1501.819	6118
1504.034	6179
1506.248	6114
1508.462	6139
1510.675	6149
1512.888	6051
1515.1	6127
1517.311	6214
1519.522	6052
1521.732	6113
1523.942	6124
1526.151	6191
1528.36	6138
1530.566	6192
1532.773	6139
1534.98	6099
1537.187	6032
1539.392	6184
1541.596	6199
1543.801	6090
1546.005	6067
1548.208	6070
1550.411	6131
1552.612	6288
1554.814	6208
1557.013	6242
1559.212	6199
1561.414	6235
1563.612	6214
1565.811	6275
1568.007	6265
1570.203	6203
1572.403	6254
1574.598	6243
1576.792	6257
1578.988	6227
1581.181	6290
1583.376	6332
1585.568	6202
1587.761	6247
1589.952	6336
1592.143	6291
1594.333	6165
1596.524	6380
1598.715	6388
1600.903	6395
1603.091	6439
1605.278	6454
1607.466	6345
1609.652	6355
1611.838	6394
1614.023	6328
1616.207	6320
1618.391	6419
1620.576	6325
1622.759	6359
1624.941	6339
1627.123	6503
1629.304	6371
1631.484	6456
1633.664	6311
1635.844	6422
1638.022	6457
1640.201	6367
1642.38	6410
1644.556	6449
1646.732	6490
1648.908	6546
1651.084	6426
1653.257	6451
1655.433	6401
1657.607	6488
1659.779	6568
1661.951	6532
1664.122	6457
1666.295	6454
1668.467	6527
1670.635	6689
1672.805	6464
1674.973	6488
1677.142	6478
1679.31	6429
1681.478	6436
1683.644	6481
1685.81	6476
1687.975	6453
1690.142	6483
1692.305	6420
1694.468	6361
1696.632	6340
1698.794	6370
1700.957	6449
1703.119	6364
1705.279	6347
1707.439	6371
1709.598	6288
1711.758	6306
1713.917	6363
1716.075	6357
1718.231	6329
1720.388	6222
1722.543	6273
1724.702	6330
1726.856	6315
1729.01	6254
1731.164	6335
1733.317	6118
1735.471	6250
1737.623	6262
1739.774	6263
1741.925	6337
1744.075	6306
1746.225	6315
1748.376	6241
1750.524	6217
1752.672	6395
1754.82	6225
1756.965	6337
1759.113	6280
1761.259	6358
1763.405	6325
1765.549	6342
1767.694	6326
1769.836	6272
1771.981	6239
1774.123	6271
1776.264	6305
1778.405	6355
1780.546	6421
1782.687	6398
1784.827	6293
1786.966	6315
1789.103	6347
1791.242	6449
1793.381	6371
1795.517	6419
1797.653	6252
1799.788	6237
1801.923	6371
1804.057	6361
1806.193	6361
1808.326	6302
1810.457	6261
1812.59	6369
1814.721	6397
1816.855	6249
1818.984	6334
1821.113	6283
1823.244	6234
1825.372	6472
1827.499	6293
1829.63	6335
1831.756	6325
1833.882	6388
1836.007	6383
1838.132	6352
1840.26	6363
1842.384	6258
1844.507	6311
1846.63	6343
1848.752	6261
1850.875	6253
1852.996	6325
1855.118	6302
1857.238	6278
1859.358	6276
1861.477	6242
1863.597	6319
1865.715	6185
1867.832	6345
1869.948	6276
1872.064	6263
1874.181	6251
1876.297	6332
1878.411	6297
1880.526	6296
1882.639	6369
1884.752	6221
1886.865	6172
1888.977	6206
1891.089	6257
1893.2	6472
1895.308	6287
1897.42	6350
1899.53	6323
1901.639	6424
1903.745	6347
1905.853	6330
1907.962	6403
1910.067	6412
1912.174	6357
1914.278	6297
1916.383	6285
1918.486	6349
1920.592	6328
1922.694	6205
1924.797	6356
1926.898	6371
1929	6320
1931.102	6400
1933.203	6307
1935.301	6405
1937.401	6342
1939.499	6363
1941.598	6337
1943.697	6323
1945.793	6452
1947.888	6249
1949.985	6435
1952.08	6325
1954.176	6285
1956.269	6386
1958.364	6396
1960.457	6381
1962.549	6505
1964.642	6375
1966.733	6286
1968.823	6346
1970.913	6362
1973.005	6370
1975.093	6443
1977.184	6263
1979.271	6423
1981.359	6384
1983.446	6345
1985.532	6365
1987.619	6389
1989.705	6399
1991.789	6241
1993.874	6433
1995.956	6397
1998.041	6308
2000.123	6218
2002.206	6353
2004.287	6395
2006.368	6314
2008.449	6346
2010.529	6222
2012.609	6340
2014.688	6410
2016.766	6300
2018.843	6380
2020.922	6208
2022.999	6266
2025.074	6227
2027.15	6381
2029.225	6345
2031.299	6410
2033.375	6245
2035.447	6340
2037.52	6269
2039.592	6167
2041.664	6299
2043.736	6382
2045.807	6344
2047.876	6257
2049.947	6341
2052.015	6190
2054.086	6297
2056.153	6274
2058.221	6340
2060.288	6198
2062.353	6304
2064.42	6220
2066.486	6293
2068.55	6278
2070.614	6372
2072.678	6344
2074.741	6342
2076.805	6368
2078.866	6353
2080.929	6300
2082.99	6363
2085.049	6276
2087.109	6230
2089.17	6337
2091.228	6323
2093.286	6247
2095.344	6348
2097.4	6209
2099.46	6173
2101.516	6316
2103.572	6378
2105.626	6254
2107.679	6294
2109.735	6300
2111.788	6380
2113.841	6293
2115.894	6307
2117.945	6256
2119.997	6372
2122.049	6328
2124.1	6291
2126.148	6293
2128.197	6251
2130.246	6243
2132.296	6383
2134.342	6259
2136.39	6311
2138.437	6302
2140.483	6319
2142.527	6332
2144.574	6260
2146.619	6182
2148.661	6139
2150.705	6211
2152.747	6268
2154.792	6287
2156.832	6336
2158.874	6335
2160.915	6315
2162.954	6157
2164.995	6304
2167.034	6156
2169.072	6275
2171.111	6187
2173.148	6305
2175.186	6215
2177.223	6195
2179.258	6305
2181.294	6176
2183.328	6180
2185.362	6173
2187.398	6248
2189.431	6172
2191.463	6201
2193.495	6141
2195.528	6155
2197.56	6139
2199.59	6127
2201.62	6049
2203.649	6194
2205.678	6148
2207.708	6176
2209.737	6067
2211.764	6190
2213.791	6149
2215.817	6171
2217.843	6048
2219.87	6176
2221.895	6100
2223.919	6129
2225.942	6163
2227.966	6184
2229.988	6144
2232.012	6168
2234.032	6127
2236.054	6173
2238.074	6099
2240.095	6151
2242.116	6060
2244.135	6154
2246.153	6109
2248.171	6223
2250.188	6146
2252.208	6057
2254.223	6034
2256.239	6179
2258.255	6138
2260.269	6063
2262.283	6135
2264.3	6091
2266.312	6198
2268.325	6206
2270.336	6065
2272.349	6130
2274.362	6173
2276.372	6123
2278.383	6133
2280.392	6074
2282.402	6246
2284.409	6200
2286.418	6108
2288.427	6159
2290.433	6017
2292.441	6168
2294.446	6166
2296.453	6141
2298.459	6138
2300.463	6101
2302.466	6107
2304.471	6076
2306.475	6003
2308.477	6177
2310.478	6067
2312.481	6118
2314.481	6135
2316.481	6002
2318.482	6038
2320.482	6116
2322.48	6027
2324.48	6009
2326.478	6012
2328.476	6076
2330.473	6130
2332.469	6076
2334.465	6037
2336.46	6154
2338.454	5892
2340.45	5928
2342.444	5995
2344.437	5916
2346.43	5938
2348.421	5972
2350.414	6052
2352.405	6040
2354.396	6036
2356.386	6119
2358.376	5917
2360.366	5923
2362.355	6034
2364.343	5974
2366.331	5990
2368.317	5994
2370.304	5862
2372.292	5913
2374.278	5887
2376.262	5948
2378.247	5960
2380.23	5964
2382.216	5939
2384.199	5925
2386.181	5779
2388.163	5828
2390.144	5949
2392.127	5857
2394.107	5794
2396.087	5823
2398.066	5852
2400.046	5993
2402.023	5865
2404.004	5839
2405.981	5814
2407.957	5915
2409.934	5800
2411.91	5895
2413.886	5841
2415.862	5872
2417.836	5859
2419.809	5894
2421.784	5905
2423.756	5761
2425.73	5836
2427.701	5894
2429.672	5931
2431.644	5913
2433.615	5968
2435.586	5873
2437.555	5945
2439.523	5932
2441.491	5923
2443.459	5924
2445.428	5845
2447.395	5858
2449.361	5946
2451.327	5818
2453.292	5849
2455.257	5827
2457.223	5766
2459.187	5903
2461.15	5861
2463.113	5834
2465.076	5843
2467.039	5810
2468.999	5924
2470.96	5764
2472.921	5780
2474.881	5867
2476.841	5761
2478.8	5807
2480.759	5859
2482.717	5949
2484.675	5772
2486.63	5730
2488.589	5842
2490.545	5779
2492.5	5756
2494.455	5824
2496.408	5803
2498.364	5847
2500.318	5675
2502.27	5960
2504.223	5718
2506.174	5816
2508.126	5711
2510.078	5695
2512.03	5813
2513.979	5751
2515.927	5757
2517.877	5725
2519.826	5678
2521.775	5716
2523.722	5693
2525.668	5780
2527.616	5724
2529.561	5689
2531.508	5757
2533.452	5707
2535.398	5665
2537.342	5785
2539.284	5776
2541.229	5757
2543.173	5725
2545.114	5713
2547.055	5667
2548.996	5745
2550.938	5676
2552.878	5771
2554.817	5748
2556.756	5751
2558.695	5667
2560.633	5741
2562.572	5593
2564.509	5661
2566.445	5654
2568.382	5679
2570.317	5728
2572.254	5736
2574.189	5823
2576.123	5677
2578.057	5803
2579.99	5749
2581.923	5801
2583.855	5727
2585.788	5840
2587.719	5680
2589.65	5699
2591.579	5808
2593.511	5676
2595.44	5786
2597.37	5610
2599.297	5794
2601.225	5732
2603.153	5668
2605.08	5854
2607.007	5644
2608.932	5570
2610.858	5827
2612.782	5816
2614.709	5722
2616.632	5746
2618.556	5804
2620.478	5616
2622.401	5697
2624.324	5566
2626.247	5708
2628.167	5702
2630.088	5653
2632.008	5712
2633.928	5751
2635.848	5668
2637.766	5716
2639.684	5749
2641.603	5798
2643.519	5730
2645.437	5712
2647.353	5840
2649.27	5659
2651.184	5739
2653.099	5742
2655.014	5770
2656.928	5709
2658.842	5641
2660.755	5702
2662.667	5790
2664.579	5714
2666.491	5649
2668.402	5697
2670.312	5652
2672.222	5642
2674.132	5686
2676.042	5730
2677.951	5624
2679.859	5653
2681.766	5693
2683.674	5730
2685.582	5590
2687.488	5685
2689.392	5703
2691.298	5722
2693.202	5669
2695.107	5624
2697.012	5620
2698.914	5579
2700.817	5585
2702.72	5630
2704.622	5621
2706.524	5632
2708.425	5564
2710.326	5691
2712.225	5702
2714.125	5482
2716.024	5657
2717.923	5555
2719.822	5635
2721.719	5567
2723.616	5598
2725.512	5614
2727.41	5575
2729.305	5609
2731.201	5468
2733.095	5579
2734.99	5694
2736.884	5575
2738.778	5639
2740.67	5537
2742.562	5542
2744.455	5514
2746.346	5595
2748.238	5641
2750.129	5628
2752.018	5642
2753.907	5524
2755.797	5634
2757.687	5650
2759.575	5580
2761.462	5619
2763.349	5579
2765.237	5633
2767.124	5739
2769.009	5604
2770.894	5559
2772.779	5499
2774.663	5461
2776.547	5570
2778.431	5533
2780.314	5570
2782.197	5550
2784.078	5568
2785.96	5480
2787.842	5572
2789.723	5515
2791.603	5546
2793.483	5559
2795.362	5476
2797.241	5487
2799.121	5601
2800.997	5562
2802.874	5442
2804.751	5493
2806.628	5561
2808.506	5427
2810.38	5475
2812.255	5503
2814.13	5423
2816.003	5451
2817.878	5480
2819.752	5499
2821.623	5522
2823.496	5483
2825.368	5439
2827.238	5460
2829.111	5450
2830.98	5449
2832.851	5483
2834.719	5604
2836.589	5430
2838.458	5550
2840.327	5551
2842.193	5611
2844.061	5534
2845.927	5560
2847.794	5620
2849.66	5607
2851.525	5556
2853.39	5611
2855.254	5664
2857.117	5562
2858.983	5604
2860.845	5681
2862.707	5666
2864.569	5751
2866.431	5740
2868.293	5753
2870.154	5826
2872.013	5824
2873.873	5745
2875.733	5885
2877.592	5979
2879.451	6064
2881.309	5933
2883.166	6013
2885.022	6080
2886.879	6159
2888.736	6118
2890.591	6026
2892.446	6143
2894.301	6061
2896.155	6158
2898.009	6064
2899.863	6135
2901.716	6018
2903.568	6084
2905.419	6132
2907.27	6129
2909.123	6090
2910.973	6144
2912.824	6194
2914.673	6191
2916.521	6240
2918.372	6222
2920.22	6263
2922.067	6365
2923.914	6426
2925.761	6476
2927.607	6504
2929.455	6509
2931.301	6565
2933.144	6645
2934.99	6718
2936.833	6905
2938.678	6721
2940.522	6681
2942.364	6827
2944.207	6923
2946.048	6922
2947.891	7090
2949.731	6997
2951.571	6868
2953.412	7029
2955.25	6820
2957.09	6844
2958.93	6677
2960.767	6674
2962.606	6569
2964.443	6648
2966.279	6625
2968.116	6468
2969.953	6366
2971.788	6313
2973.623	6319
2975.457	6209
2977.292	6272
2979.127	6153
2980.959	6181
2982.792	6163
2984.624	6069
2986.455	6037
2988.288	6129
2990.119	6033
2991.949	5980
2993.779	6078
2995.608	6032
2997.439	5883
2999.268	5678
3001.096	5781
3002.923	5755
3004.751	5794
3006.578	5642
3008.406	5632
3010.232	5484
3012.057	5542
3013.883	5599
3015.706	5534
3017.532	5497
3019.356	5412
3021.179	5332
3023.002	5456
3024.823	5289
3026.646	5261
3028.469	5325
3030.289	5292
3032.11	5332
3033.93	5242
3035.749	5188
3037.57	5197
3039.39	5258
3041.207	5152
3043.026	5213
3044.842	5294
3046.661	5222
3048.477	5200
3050.294	5233
3052.109	5202
3053.925	5136
3055.739	5110
3057.555	5203
3059.368	5289
3061.181	5199
3062.995	5153
3064.807	5169
3066.62	5163
3068.433	5192
3070.243	5295
3072.054	5251
3073.865	5154
3075.675	5175
3077.485	5178
3079.293	5212
3081.102	5152
3082.911	5206
3084.719	5075
3086.527	5078
3088.333	5091
3090.139	5129
3091.945	5016
3093.75	5063
3095.557	5032
3097.361	5061
3099.165	4997
3100.969	5069
3102.772	4884
3104.575	5012
3106.379	5150
3108.181	5024
3109.982	4952
3111.783	4997
3113.584	5056
3115.386	5080
3117.186	4957
3118.985	5100
3120.783	5004
3122.582	4990
3124.381	4956
3126.179	4992
3127.975	4995
3129.772	5047
3131.569	4944
3133.365	4935
3135.161	4981
3136.956	4901
3138.751	4990
3140.544	5006
3142.338	4845
3144.132	4918
3145.925	4986
3147.717	4949
3149.509	4934
3151.301	4789
3153.091	4913
3154.884	4930
3156.673	4936
3158.462	4939
3160.252	4873
3162.041	4902
3163.831	4914
3165.618	4824
3167.405	4949
3169.193	4892
3170.979	4862
3172.767	4948
3174.553	4786
3176.338	4871
3178.123	4759
3179.907	4804
3181.692	4889
3183.477	4820
3185.259	4785
3187.042	4821
3188.824	4787
3190.607	4818
3192.389	4846
3194.17	4781
3195.951	4919
3197.73	4843
3199.51	4878
3201.289	4837
3203.07	4867
3204.848	4852
3206.626	4917
3208.403	4848
3210.18	4843
3211.959	4808
3213.735	4878
3215.511	4733
3217.285	4828
3219.06	4869
3220.836	4886
3222.611	4819
3224.384	4857
3226.158	4780
3227.929	4801
3229.702	4858
3231.476	4878
3233.248	4767
3235.018	4828
3236.789	4851
3238.56	4863
3240.33	4911
3242.1	4734
3243.869	4784
3245.637	4790
3247.405	4832
3249.172	4873
3250.941	4737
3252.707	4710
3254.474	4782
3256.24	4821
3258.006	4669
3259.772	4766
3261.537	4919
3263.301	4813
3265.065	4866
3266.828	4826
3268.592	4994
3270.355	4841
3272.117	4861
3273.878	4818
3275.64	4793
3277.401	4834
3279.162	4839
3280.922	4774
3282.682	4774
3284.441	4868
3286.199	4822
3287.959	4713
3289.716	4695
3291.475	4809
3293.232	4833
3294.988	4848
3296.744	4765
3298.501	4801
3300.256	4865
3302.011	4881
3303.766	4915
3305.52	4805
3307.275	4870
3309.028	4793
3310.781	4830
3312.533	4850
3314.285	4802
3316.038	4748
3317.789	4766
3319.54	4738
3321.289	4732
3323.039	4802
3324.789	4842
3326.539	4905
3328.288	4748
3330.035	4892
3331.783	4773
3333.531	4786
3335.28	4821
3337.025	4791
3338.771	4713
3340.518	4798
3342.262	4694
3344.009	4798
3345.753	4775
3347.497	4782
3349.24	4834
3350.983	4786
3352.726	4701
3354.469	4758
3356.212	4741
3357.952	4666
3359.694	4782
3361.434	4695
3363.176	4728
3364.916	4731
3366.654	4667
3368.394	4701
3370.132	4652
3371.871	4623
3373.61	4569
3375.346	4595
3377.083	4546
3378.82	4685
3380.556	4626
3382.292	4597
3384.027	4600
3385.763	4569
3387.497	4598
3389.231	4683
3390.965	4626
3392.698	4632
3394.431	4624
3396.164	4611
3397.896	4647
3399.627	4659
3401.36	4545
3403.09	4654
3404.82	4639
3406.55	4621
3408.279	4628
3410.01	4681
3411.738	4629
3413.467	4587
3415.194	4622
3416.92	4537
3418.647	4557
3420.375	4542
3422.102	4588
3423.827	4536
3425.553	4624
3427.277	4584
3429.003	4525
3430.727	4560
3432.451	4476
3434.173	4560
3435.896	4503
3437.62	4482
3439.343	4379
3441.063	4490
3442.785	4452
3444.505	4472
3446.226	4514
3447.948	4459
3449.666	4465
3451.386	4480
3453.104	4487
3454.823	4495
3456.541	4423
3458.259	4491
3459.976	4372
3461.693	4404
3463.408	4427
3465.125	4408
3466.841	4364
3468.556	4325
3470.271	4378
3471.985	4378
3473.698	4376
3475.414	4433
3477.126	4326
3478.838	4370
3480.55	4373
3482.263	4256
3483.975	4287
3485.686	4341
3487.396	4293
3489.106	4322
3490.817	4377
3492.526	4234
3494.236	4459
3495.944	4272
3497.652	4277
3499.359	4237
3501.066	4237
3502.775	4243
3504.481	4277
3506.187	4210
3507.893	4236
3509.598	4212
3511.304	4229
3513.009	4202
3514.713	4270
3516.417	4199
3518.12	4292
3519.821	4215
3521.525	4157
3523.228	4145
3524.929	4182
3526.631	4146
3528.33	4126
3530.032	4218
3531.733	4173
3533.433	4105
3535.131	4061
3536.83	4196
3538.529	3996
3540.227	4132
3541.925	4100
3543.623	4217
3545.319	4140
3547.016	4086
3548.712	4109
3550.408	4162
3552.103	4122
3553.798	4163
3555.491	4019
3557.188	4079
3558.88	4103
3560.574	4090
3562.266	4076
3563.959	4134
3565.651	4078
3567.343	4065
3569.035	4017
3570.725	4091
3572.415	4133
3574.106	4087
3575.797	4078
3577.485	4037
3579.174	3998
3580.863	4091
3582.551	4062
3584.238	4003
3585.926	3960
3587.613	3983
3589.3	3958
3590.986	3935
3592.671	3995
3594.357	3971
3596.042	3969
3597.726	3985
3599.41	3944
3601.094	3898
3602.778	3917
3604.461	3999
3606.143	3957
3607.825	3879
3609.507	3966
3611.188	3913
3612.87	3929
3614.551	3891
3616.229	3880
3617.909	3920
3619.589	3894
3621.269	3753
3622.948	3854
3624.625	3882
3626.302	3846
3627.98	3754
3629.657	3820
3631.334	3828
3633.01	3908
3634.686	3882
3636.361	3824
3638.036	3734
3639.712	3774
3641.385	3796
3643.06	3868
3644.732	3796
3646.405	3794
3648.08	3820
3649.751	3816
3651.424	3743
3653.094	3782
3654.766	3783
3656.436	3798
3658.106	3780
3659.777	3696
3661.446	3792
3663.115	3700
3664.783	3738
3666.452	3807
3668.121	3817
3669.788	3692
3671.454	3700
3673.121	3705
3674.789	3754
3676.455	3697
3678.12	3707
3679.784	3744
3681.45	3669
3683.114	3739
3684.779	3700
3686.442	3703
3688.105	3703
3689.768	3686
3691.43	3803
3693.093	3589
3694.754	3674
3696.415	3683
3698.076	3752
3699.736	3686
3701.396	3718
3703.057	3639
3704.716	3643
3706.375	3664
3708.034	3650
3709.692	3651
3711.351	3685
3713.008	3652
3714.665	3715
3716.321	3633
3717.977	3576
3719.634	3669
3721.29	3732
3722.945	3531
3724.598	3666
3726.253	3648
3727.907	3635
3729.561	3649
3731.214	3615
3732.867	3594
3734.518	3634
3736.171	3596
3737.824	3579
3739.474	3679
3741.125	3588
3742.775	3450
3744.425	3660
3746.074	3607
3747.725	3634
3749.373	3578
3751.022	3505
3752.669	3591
3754.318	3517
3755.966	3577
3757.612	3564
3759.259	3559
3760.905	3500
3762.55	3509
3764.197	3486
3765.842	3564
3767.486	3497
3769.131	3547
3770.774	3553
3772.417	3510
3774.061	3507
3775.705	3501
3777.347	3521
3778.988	3465
3780.629	3460
3782.271	3396
3783.912	3458
3785.552	3509
3787.192	3495
3788.831	3518
3790.472	3552
3792.112	3519
3793.75	3500
3795.388	3403
3797.024	3491
3798.661	3445
3800.3	3445
3801.936	3419
3803.572	3429
3805.208	3412
3806.844	3531
3808.48	3512
3810.115	3438
3811.748	3413
3813.382	3389
3815.016	3499
3816.649	3368
3818.283	3430
3819.914	3463
3821.547	3358
3823.178	3329
3824.809	3420
3826.441	3424
3828.072	3447
3829.701	3428
3831.331	3373
3832.96	3396
3834.591	3436
3836.219	3389
3837.847	3359
3839.475	3335
3841.102	3424
3842.729	3296
3844.357	3416
3845.984	3280
3847.609	3314
3849.234	3384
3850.86	3331
3852.485	3344
3854.11	3300
3855.734	3364
3857.357	3338
3858.981	3349
3860.603	3296
3862.227	3334
3863.848	3353
3865.471	3322
3867.092	3305
3868.713	3358
3870.334	3303
3871.954	3360
3873.575	3347
3875.194	3319
3876.813	3309
3878.433	3246
3880.051	3251
3881.669	3312
3883.286	3237
3884.904	3325
3886.52	3230
3888.138	3303
3889.754	3299
3891.37	3336
3892.985	3330
3894.6	3295
3896.216	3302
3897.831	3298
3899.444	3282
3901.058	3255
3902.67	3245
3904.283	3239
3905.897	3315
3907.509	3289
3909.121	3253
3910.731	3260
3912.342	3286
3913.954	3229
3915.563	3288
3917.174	3274
3918.783	3210
3920.391	3238
3922.002	3206
3923.611	3226
3925.218	3182
3926.826	3339
3928.432	3240
3930.039	3202
3931.647	3190
3933.253	3276
3934.859	3216
3936.464	3262
3938.068	3208
3939.675	3195
3941.278	3224
3942.883	3216
3944.486	3265
3946.089	3215
3947.692	3207
3949.295	3160
3950.898	3227
3952.499	3192
3954.1	3152
3955.7	3251
3957.303	3159
3958.903	3182
3960.502	3187
3962.101	3181
3963.7	3250
3965.301	3138
3966.899	3131
3968.497	3207
3970.094	3108
3971.691	3115
3973.288	3148
3974.885	3168
3976.481	3090
3978.077	3195
3979.672	3096
3981.267	3134
3982.863	3114
3984.457	3105
3986.051	3064
3987.645	3103
3989.238	3114
3990.831	3126
3992.425	3116
3994.017	3096
3995.607	3063
3997.199	3042
3998.79	3041
4000.382	3109
4001.973	3104
4003.561	3050
4005.151	3002
4006.741	2947
4008.331	3117
4009.918	3073
4011.507	3010
4013.095	3023
4014.681	2997
4016.269	2941
4017.856	3030
4019.443	3046
4021.028	3047
4022.614	3070
4024.199	2996
4025.785	3049
4027.37	2993
4028.953	3020
4030.536	2997
4032.12	2933
4033.704	3052
4035.287	2958
4036.869	2898
4038.45	3037
4040.032	2943
4041.613	2957
4043.195	2989
4044.776	2964
4046.356	2970
4047.935	2936
4049.515	2961
4051.095	3008
4052.674	2892
4054.251	2933
4055.829	2962
4057.406	3018
4058.985	2932
4060.562	2966
4062.139	2900
4063.715	2988
4065.29	2991
4066.865	2982
4068.442	2896
4070.016	3006
4071.59	2869
4073.164	2950
4074.738	2880
4076.312	2889
4077.885	2873
4079.458	2920
4081.03	2875
4082.602	2892
4084.173	2933
4085.745	2913
4087.315	2856
4088.886	2899
4090.456	2909
4092.026	2882
4093.596	2877
4095.165	2848
4096.734	2931
4098.301	2872
4099.869	2840
4101.437	2906
4103.006	2827
4104.572	2862
4106.139	2825
4107.704	2925
4109.27	2857
4110.837	2827
4112.401	2825
4113.966	2855
4115.53	2757
4117.094	2810
4118.659	2864
4120.223	2822
4121.785	2855
4123.347	2809
4124.909	2830
4126.471	2803
4128.034	2724
4129.595	2780
4131.155	2787
4132.716	2854
4134.275	2805
4135.836	2774
4137.395	2768
4138.955	2812
4140.513	2852
4142.071	2759
4143.628	2743
4145.188	2777
4146.745	2760
4148.302	2735
4149.858	2692
4151.414	2764
4152.971	2763
4154.526	2683
4156.081	2741
4157.635	2715
4159.189	2762
4160.745	2735
4162.298	2734
4163.852	2684
4165.405	2761
4166.957	2693
4168.51	2697
4170.063	2769
4171.614	2745
4173.166	2690
4174.717	2673
4176.267	2742
4177.817	2714
4179.368	2683
4180.917	2710
4182.466	2704
4184.016	2647
4185.564	2676
4187.112	2681
4188.66	2660
4190.207	2687
4191.754	2652
4193.301	2671
4194.848	2651
4196.394	2628
4197.94	2706
4199.484	2598
4201.03	2620
4202.575	2651
4204.12	2661
4205.663	2650
4207.207	2621
4208.75	2595
4210.292	2671
4211.836	2712
4213.378	2575
4214.92	2632
4216.46	2607
4218.002	2684
4219.544	2600
4221.083	2583
4222.625	2580
4224.164	2668
4225.703	2699
4227.244	2601
4228.782	2650
4230.32	2613
4231.857	2597
4233.395	2625
4234.933	2680
4236.471	2581
4238.007	2701
4239.542	2652
4241.078	2605
4242.614	2624
4244.15	2583
4245.685	2563
4247.219	2566
4248.753	2597
4250.287	2652
4251.82	2624
4253.354	2493
4254.887	2594
4256.419	2549
4257.951	2516
4259.483	2604
4261.016	2532
4262.547	2626
4264.078	2625
4265.608	2551
4267.137	2554
4268.668	2587
4270.197	2538
4271.727	2568
4273.254	2551
4274.783	2632
4276.311	2561
4277.84	2598
4279.366	2585
4280.894	2594
4282.42	2571
4283.946	2526
4285.473	2516
4286.998	2520
4288.523	2567
4290.047	2500
4291.572	2518
4293.096	2533
4294.622	2505
4296.144	2497
4297.668	2484
4299.19	2517
4300.713	2515
4302.236	2535
4303.758	2484
4305.279	2507
4306.799	2454
4308.321	2529
4309.842	2523
4311.361	2484
4312.882	2474
4314.401	2519
