400.0961	3310
402.6185	3381
405.1424	3455
407.6635	3467
410.1838	3398
412.7035	3478
415.2225	3441
417.7388	3427
420.2585	3445
422.7754	3490
425.2917	3532
427.8072	3560
430.3221	3540
432.8363	3589
435.3498	3567
437.8626	3535
440.3727	3583
442.8841	3539
445.3969	3582
447.907	3631
450.4142	3676
452.9229	3622
455.4289	3683
457.9362	3566
460.4449	3691
462.9488	3529
465.454	3722
467.9566	3625
470.4604	3587
472.9637	3630
475.4662	3654
477.966	3704
480.4671	3651
482.9656	3626
485.4633	3645
487.9645	3722
490.4608	3625
492.9566	3704
495.4536	3747
497.948	3684
500.4437	3708
502.9387	3716
505.431	3776
507.9226	3692
510.4136	3751
512.9079	3684
515.3975	3771
517.8864	3758
520.3746	3765
522.8622	3747
525.3491	3782
527.8394	3729
530.3249	3757
532.8098	3778
535.2939	3746
537.7774	3787
540.2623	3774
542.7444	3754
545.2259	3786
547.7067	3794
550.1868	3837
552.6683	3792
555.147	3747
557.6231	3807
560.1005	3794
562.5773	3868
565.0534	3854
567.5308	3873
570.0056	3825
572.4776	3917
574.951	3834
577.4237	3845
579.8978	3853
582.3671	3917
584.8378	3868
587.3079	3942
589.7773	3900
592.244	3975
594.714	3856
597.1793	3919
599.6461	3901
602.1121	3949
604.5754	3879
607.0421	3905
609.5042	3844
611.9675	3947
614.4282	3929
616.8902	3949
619.3515	3963
621.8122	3818
624.2702	3843
626.7296	3906
629.1863	3887
631.6423	3853
634.1017	3845
636.5563	3891
639.0104	3875
641.4658	3962
643.9185	3875
646.3725	3954
648.8239	3898
651.2766	3951
653.7266	3995
656.176	3903
658.6247	3980
661.0748	3961
663.5242	3989
665.9709	3948
668.417	4025
670.8624	3966
673.3092	3937
675.7533	4042
678.1968	4010
680.6395	3961
683.0817	3952
685.5251	3970
687.9659	3956
690.4061	4015
692.8456	3958
695.2844	4012
697.7226	4008
700.1621	4131
702.599	4088
705.0332	4126
707.4688	4109
709.9036	4095
712.3399	4131
714.7735	4132
717.2044	4172
719.6367	4146
722.0683	4269
724.4993	4157
726.9296	4159
729.3593	4189
731.7883	4166
734.2147	4247
736.6423	4223
739.0714	4267
741.4958	4272
743.9216	4173
746.3447	4276
748.7691	4177
751.1929	4230
753.616	4227
756.0366	4318
758.4584	4376
760.8776	4272
763.2982	4196
765.718	4271
768.1373	4312
770.5539	4253
772.9698	4185
775.3871	4290
777.8038	4276
780.2178	4404
782.6332	4284
785.0459	4424
787.458	4382
789.8714	4295
792.2842	4345
794.6943	4336
797.1038	4330
799.5127	4358
801.9209	4299
804.3324	4362
806.7393	4287
809.1456	4288
811.5513	4384
813.9562	4380
816.3625	4322
818.7663	4354
821.1693	4430
823.5718	4353
825.9735	4378
828.3746	4356
830.7771	4479
833.177	4320
835.5762	4357
837.9747	4307
840.3727	4393
842.772	4392
845.1666	4439
847.5626	4440
849.958	4455
852.3527	4432
854.7488	4531
857.1403	4438
859.5331	4520
861.9253	4492
864.3168	4475
866.7057	4343
869.098	4415
871.4876	4379
873.8746	4482
876.263	4510
878.6487	4390
881.0378	4453
883.4243	4442
885.8081	4435
888.1933	4403
890.5759	4390
892.9598	4571
895.343	4485
897.7256	4511
900.1057	4489
902.4871	4509
904.8659	4497
907.246	4421
909.6254	4393
912.0023	4498
914.3786	4395
916.7562	4593
919.1331	4532
921.5074	4713
923.8831	4653
926.2562	4650
928.6287	4628
931.0005	4600
933.3757	4739
935.7462	4646
938.1162	4618
940.4855	4711
942.8542	4651
945.2242	4704
947.5916	4788
949.9584	4863
952.3266	4927
954.6921	5044
957.0571	5072
959.4233	5066
961.787	5228
964.15	5216
966.5125	5029
968.8742	4984
971.2354	4922
973.5959	4832
975.9559	4722
978.3151	4736
980.6738	4638
983.0338	4654
985.3912	4586
987.7461	4676
990.1022	4599
992.4578	4582
994.8127	4596
997.1689	4613
999.5207	4686
1001.874	4671
1004.226	4626
1006.576	4596
1008.929	4629
1011.28	4601
1013.628	4585
1015.977	4538
1018.324	4536
1020.674	4562
1023.019	4666
1025.366	4752
1027.713	4740
1030.056	4723
1032.399	4821
1034.746	4645
1037.087	4723
1039.431	4707
1041.771	4598
1044.113	4693
1046.454	4742
1048.793	4728
1051.133	4660
1053.471	4705
1055.807	4771
1058.146	4699
1060.483	4643
1062.818	4656
1065.153	4789
1067.489	4759
1069.822	4768
1072.156	4720
1074.488	4788
1076.82	4716
1079.15	4777
1081.48	4729
1083.814	4740
1086.143	4757
1088.471	4705
1090.799	4804
1093.126	4697
1095.452	4704
1097.78	4696
1100.105	4801
1102.43	4828
1104.754	4718
1107.077	4690
1109.4	4673
1111.722	4883
1114.044	4727
1116.365	4793
1118.685	4698
1121.005	4928
1123.324	4714
1125.643	4825
1127.961	4936
1130.278	4818
1132.595	4773
1134.911	4767
1137.226	4679
1139.541	4839
1141.854	4760
1144.167	4756
1146.482	4833
1148.793	4742
1151.105	4783
1153.414	4742
1155.725	4816
1158.033	4802
1160.344	4848
1162.651	4874
1164.959	4773
1167.265	4892
1169.572	4799
1171.878	4727
1174.184	4789
1176.488	4729
1178.79	4743
1181.094	4836
1183.396	4874
1185.699	4845
1188.001	4798
1190.301	4836
1192.6	4725
1194.9	4905
1197.2	4790
1199.497	4878
1201.794	4859
1204.09	4944
1206.387	4755
1208.684	4753
1210.978	4818
1213.272	4839
1215.565	4826
1217.858	4950
1220.15	4886
1222.443	4874
1224.734	4813
1227.024	4855
1229.313	4773
1231.602	4908
1233.892	4860
1236.18	4975
1238.467	4958
1240.754	4998
1243.04	4924
1245.325	4989
1247.612	4904
1249.896	4950
1252.178	4964
1254.461	4976
1256.743	4927
1259.027	4995
1261.308	5004
1263.587	4946
1265.867	5009
1268.146	5077
1270.425	5013
1272.703	5001
1274.981	4989
1277.256	4910
1279.532	4996
1281.808	4950
1284.083	4962
1286.358	4918
1288.63	4991
1290.904	4876
1293.175	4928
1295.449	4921
1297.719	4932
1299.99	5019
1302.259	4804
1304.529	4896
1306.798	4921
1309.065	4809
1311.333	5026
1313.599	4952
1315.866	4872
1318.131	5011
1320.396	4909
1322.66	4880
1324.925	4938
1327.187	4846
1329.448	5006
1331.711	4884
1333.974	4878
1336.234	4938
1338.493	4972
1340.752	4870
1343.01	5006
1345.269	4981
1347.526	4900
1349.784	4887
1352.04	4899
1354.295	4959
1356.552	4981
1358.806	4869
1361.059	4984
1363.312	4908
1365.564	5018
1367.818	5013
1370.069	4943
1372.318	4977
1374.568	4982
1376.817	4960
1379.066	5039
1381.316	5015
1383.564	4953
1385.809	5000
1388.056	4970
1390.301	5020
1392.549	5099
1394.793	5146
1397.036	5171
1399.279	5078
1401.522	5105
1403.763	5073
1406.007	5110
1408.248	5019
1410.487	4993
1412.727	5001
1414.965	5088
1417.205	5147
1419.442	5010
1421.68	5111
1423.915	5143
1426.152	5148
1428.388	5083
1430.623	5116
1432.857	5116
1435.091	5122
1437.323	5069
1439.556	5158
1441.789	5249
1444.019	5057
1446.25	5150
1448.48	5165
1450.708	5203
1452.938	5129
1455.167	5250
1457.394	5137
1459.62	5089
1461.846	5138
1464.073	5108
1466.299	5104
1468.523	5126
1470.746	5160
1472.969	5095
1475.191	5141
1477.415	5060
1479.636	5065
1481.858	5069
1484.078	5123
1486.298	4987
1488.518	5025
1490.736	5099
1492.954	5083
1495.169	4983
1497.386	5029
1499.602	4970
1501.819	5005
1504.034	4927
1506.248	5043
1508.462	4971
1510.675	4998
1512.888	5083
1515.1	4971
1517.311	4992
1519.522	4994
1521.732	4993
1523.942	5005
1526.151	4970
1528.36	4979
1530.566	5150
1532.773	5039
1534.98	5071
1537.187	5079
1539.392	5073
1541.596	4952
1543.801	5006
1546.005	5057
1548.208	5063
1550.411	5147
1552.612	5068
1554.814	5062
1557.013	5167
1559.212	4979
1561.414	5091
1563.612	5066
1565.811	5160
1568.007	5154
1570.203	5115
1572.403	5045
1574.598	5213
1576.792	5003
1578.988	5143
1581.181	5172
1583.376	5063
1585.568	5236
1587.761	5022
1589.952	5124
1592.143	5260
1594.333	5195
1596.524	5180
1598.715	5199
1600.903	5102
1603.091	5152
1605.278	5227
1607.466	5255
1609.652	5124
1611.838	5263
1614.023	5214
1616.207	5088
1618.391	5265
1620.576	5078
1622.759	5183
1624.941	5172
1627.123	5141
1629.304	5314
1631.484	5246
1633.664	5239
1635.844	5175
1638.022	5183
1640.201	5194
1642.38	5324
1644.556	5181
1646.732	5183
1648.908	5241
1651.084	5331
1653.257	5229
1655.433	5167
1657.607	5189
1659.779	5284
1661.951	5181
1664.122	5246
1666.295	5240
1668.467	5210
1670.635	5222
1672.805	5194
1674.973	5308
1677.142	5279
1679.31	5312
1681.478	5240
1683.644	5247
1685.81	5365
1687.975	5394
1690.142	5181
1692.305	5299
1694.468	5182
1696.632	5236
1698.794	5297
1700.957	5111
1703.119	5223
1705.279	5209
1707.439	5292
1709.598	5183
1711.758	5129
1713.917	5160
1716.075	5174
1718.231	5139
1720.388	5101
1722.543	5130
1724.702	5116
1726.856	5129
1729.01	5167
1731.164	5122
1733.317	5107
1735.471	5227
1737.623	5222
1739.774	5148
1741.925	5202
1744.075	5212
1746.225	5181
1748.376	5172
1750.524	5238
1752.672	5142
1754.82	5104
1756.965	5136
1759.113	5150
1761.259	5132
1763.405	5220
1765.549	5212
1767.694	5047
1769.836	5208
1771.981	5241
1774.123	5193
1776.264	5244
1778.405	5286
1780.546	5243
1782.687	5211
1784.827	5165
1786.966	5223
1789.103	5274
1791.242	5256
1793.381	5188
1795.517	5319
1797.653	5308
1799.788	5317
1801.923	5188
1804.057	5325
1806.193	5144
1808.326	5207
1810.457	5323
1812.59	5257
1814.721	5212
1816.855	5197
1818.984	5216
1821.113	5120
1823.244	5261
1825.372	5280
1827.499	5127
1829.63	5244
1831.756	5160
1833.882	5188
1836.007	5218
1838.132	5163
1840.26	5170
1842.384	5171
1844.507	5192
1846.63	5156
1848.752	5205
1850.875	5144
1852.996	5274
1855.118	5118
1857.238	5197
1859.358	5223
1861.477	5195
1863.597	5192
1865.715	5146
1867.832	5136
1869.948	5170
1872.064	5076
1874.181	5223
1876.297	5107
1878.411	5183
1880.526	5144
1882.639	5092
1884.752	5182
1886.865	5218
1888.977	5136
1891.089	5128
1893.2	5098
1895.308	5207
1897.42	5262
1899.53	5287
1901.639	5261
1903.745	5233
1905.853	5282
1907.962	5183
1910.067	5272
1912.174	5206
1914.278	5284
1916.383	5213
1918.486	5201
1920.592	5338
1922.694	5301
1924.797	5311
1926.898	5181
1929	5287
1931.102	5211
1933.203	5395
1935.301	5252
1937.401	5230
1939.499	5282
1941.598	5327
1943.697	5241
1945.793	5263
1947.888	5210
1949.985	5331
1952.08	5241
1954.176	5246
1956.269	5254
1958.364	5198
1960.457	5161
1962.549	5264
1964.642	5151
1966.733	5246
1968.823	5260
1970.913	5299
1973.005	5202
1975.093	5187
1977.184	5160
1979.271	5184
1981.359	5112
1983.446	5195
1985.532	5207
1987.619	5252
1989.705	5238
1991.789	5204
1993.874	5199
1995.956	5229
1998.041	5222
2000.123	5160
2002.206	5273
2004.287	5176
2006.368	5222
2008.449	5188
2010.529	5133
2012.609	5119
2014.688	5173
2016.766	5144
2018.843	5217
2020.922	5252
2022.999	5187
2025.074	5180
2027.15	5213
2029.225	5269
2031.299	5066
2033.375	5060
2035.447	5271
2037.52	5219
2039.592	5178
2041.664	5111
2043.736	5220
2045.807	5158
2047.876	5245
2049.947	5247
2052.015	5122
2054.086	5173
2056.153	5175
2058.221	5217
2060.288	5245
2062.353	5215
2064.42	5217
2066.486	5200
2068.55	5194
2070.614	5200
2072.678	5209
2074.741	5238
2076.805	5141
2078.866	5166
2080.929	5168
2082.99	5221
2085.049	5149
2087.109	5164
2089.17	5344
2091.228	5217
2093.286	5252
2095.344	5194
2097.4	5190
2099.46	5163
2101.516	5165
2103.572	5168
2105.626	5188
2107.679	5169
2109.735	5164
2111.788	5174
2113.841	5113
2115.894	5104
2117.945	5294
2119.997	5169
2122.049	5080
2124.1	5190
2126.148	5196
2128.197	5255
2130.246	5144
2132.296	5119
2134.342	5231
2136.39	5255
2138.437	5179
2140.483	5127
2142.527	5095
2144.574	5239
2146.619	5192
2148.661	5187
2150.705	5147
2152.747	5230
2154.792	5127
2156.832	5162
2158.874	5118
2160.915	5213
2162.954	5003
2164.995	5102
2167.034	5241
2169.072	5111
2171.111	5126
2173.148	5049
2175.186	5126
2177.223	5079
2179.258	5156
2181.294	5212
2183.328	5126
2185.362	5128
2187.398	5063
2189.431	5058
2191.463	5128
2193.495	5149
2195.528	5039
2197.56	5100
2199.59	5120
2201.62	5188
2203.649	5164
2205.678	5077
2207.708	5087
2209.737	5088
2211.764	5021
2213.791	5062
2215.817	5090
2217.843	5063
2219.87	5144
2221.895	5103
2223.919	5032
2225.942	4954
2227.966	5095
2229.988	5044
2232.012	4965
2234.032	5074
2236.054	5117
2238.074	4922
2240.095	5007
2242.116	5048
2244.135	5073
2246.153	5027
2248.171	5007
2250.188	5080
2252.208	5086
2254.223	5065
2256.239	5011
2258.255	5039
2260.269	5088
2262.283	4995
2264.3	4975
2266.312	4996
2268.325	5052
2270.336	5101
2272.349	5115
2274.362	5106
2276.372	5049
2278.383	5059
2280.392	5097
2282.402	4993
2284.409	5087
2286.418	5004
2288.427	5028
2290.433	4950
2292.441	5085
2294.446	5007
2296.453	5045
2298.459	5070
2300.463	4991
2302.466	5100
2304.471	5087
2306.475	4960
2308.477	4962
2310.478	4952
2312.481	5132
2314.481	5025
2316.481	5075
2318.482	5084
2320.482	4973
2322.48	4982
2324.48	5037
2326.478	4958
2328.476	4922
2330.473	4980
2332.469	5010
2334.465	4951
2336.46	4919
2338.454	4955
2340.45	4888
2342.444	4961
2344.437	5061
2346.43	5092
2348.421	4983
2350.414	4947
2352.405	4936
2354.396	4949
2356.386	4895
2358.376	5063
2360.366	4942
2362.355	4940
2364.343	5039
2366.331	4875
2368.317	4972
2370.304	4938
2372.292	4947
2374.278	4888
2376.262	4871
2378.247	4951
2380.23	4942
2382.216	4968
2384.199	4963
2386.181	4863
2388.163	4903
2390.144	4857
2392.127	4836
2394.107	4871
2396.087	4799
2398.066	4874
2400.046	4952
2402.023	4868
2404.004	4795
2405.981	4880
2407.957	4878
2409.934	4995
2411.91	4906
2413.886	4863
2415.862	4858
2417.836	4965
2419.809	4855
2421.784	4853
2423.756	4921
2425.73	4831
2427.701	4909
2429.672	4848
2431.644	4875
2433.615	4831
2435.586	4880
2437.555	4873
2439.523	4881
2441.491	4875
2443.459	4822
2445.428	4948
2447.395	4868
2449.361	4900
2451.327	4840
2453.292	4868
2455.257	4817
2457.223	4866
2459.187	4715
2461.15	4877
2463.113	4837
2465.076	4843
2467.039	4854
2468.999	4828
2470.96	4854
2472.921	4868
2474.881	4848
2476.841	4832
2478.8	4879
2480.759	4859
2482.717	4893
2484.675	4773
2486.63	4824
2488.589	4799
2490.545	4782
2492.5	4705
2494.455	4761
2496.408	4739
2498.364	4861
2500.318	4713
2502.27	4849
2504.223	4742
2506.174	4726
2508.126	4862
2510.078	4794
2512.03	4742
2513.979	4824
2515.927	4842
2517.877	4774
2519.826	4874
2521.775	4775
2523.722	4714
2525.668	4774
2527.616	4690
2529.561	4916
2531.508	4690
2533.452	4841
2535.398	4848
2537.342	4764
2539.284	4741
2541.229	4781
2543.173	4851
2545.114	4707
2547.055	4793
2548.996	4728
2550.938	4727
2552.878	4697
2554.817	4787
2556.756	4808
2558.695	4701
2560.633	4792
2562.572	4718
2564.509	4703
2566.445	4802
2568.382	4626
2570.317	4707
2572.254	4788
2574.189	4712
2576.123	4778
2578.057	4766
2579.99	4709
2581.923	4764
2583.855	4691
2585.788	4816
2587.719	4748
2589.65	4748
2591.579	4722
2593.511	4853
2595.44	4799
2597.37	4699
2599.297	4788
2601.225	4887
2603.153	4784
2605.08	4770
2607.007	4846
2608.932	4826
2610.858	4683
2612.782	4767
2614.709	4715
2616.632	4720
2618.556	4738
2620.478	4795
2622.401	4728
2624.324	4863
2626.247	4841
2628.167	4766
2630.088	4812
2632.008	4754
2633.928	4817
2635.848	4725
2637.766	4755
2639.684	4713
2641.603	4712
2643.519	4685
2645.437	4780
2647.353	4774
2649.27	4709
2651.184	4757
2653.099	4758
2655.014	4813
2656.928	4655
2658.842	4795
2660.755	4765
2662.667	4833
2664.579	4698
2666.491	4746
2668.402	4686
2670.312	4655
2672.222	4709
2674.132	4744
2676.042	4731
2677.951	4714
2679.859	4741
2681.766	4718
2683.674	4686
2685.582	4748
2687.488	4786
2689.392	4673
2691.298	4685
2693.202	4739
2695.107	4659
2697.012	4675
2698.914	4656
2700.817	4581
2702.72	4733
2704.622	4693
2706.524	4663
2708.425	4591
2710.326	4735
2712.225	4523
2714.125	4703
2716.024	4697
2717.923	4744
2719.822	4649
2721.719	4635
2723.616	4608
2725.512	4615
2727.41	4663
2729.305	4604
2731.201	4671
2733.095	4731
2734.99	4620
2736.884	4652
2738.778	4664
2740.67	4635
2742.562	4597
2744.455	4544
2746.346	4670
2748.238	4629
2750.129	4543
2752.018	4674
2753.907	4504
2755.797	4566
2757.687	4663
2759.575	4567
2761.462	4677
2763.349	4499
2765.237	4687
2767.124	4671
2769.009	4544
2770.894	4592
2772.779	4731
2774.663	4709
2776.547	4626
2778.431	4599
2780.314	4559
2782.197	4627
2784.078	4587
2785.96	4507
2787.842	4602
2789.723	4654
2791.603	4533
2793.483	4561
2795.362	4639
2797.241	4670
2799.121	4621
2800.997	4624
2802.874	4552
2804.751	4518
2806.628	4568
2808.506	4615
2810.38	4571
2812.255	4581
2814.13	4513
2816.003	4580
2817.878	4646
2819.752	4564
2821.623	4704
2823.496	4542
2825.368	4657
2827.238	4564
2829.111	4554
2830.98	4512
2832.851	4442
2834.719	4624
2836.589	4586
2838.458	4535
2840.327	4557
2842.193	4521
2844.061	4486
2845.927	4527
2847.794	4541
2849.66	4510
2851.525	4610
2853.39	4483
2855.254	4569
2857.117	4526
2858.983	4632
2860.845	4660
2862.707	4561
2864.569	4553
2866.431	4712
2868.293	4589
2870.154	4659
2872.013	4595
2873.873	4711
2875.733	4680
2877.592	4724
2879.451	4706
2881.309	4722
2883.166	4691
2885.022	4810
2886.879	4907
2888.736	4771
2890.591	4945
2892.446	4880
2894.301	4799
2896.155	4762
2898.009	4802
2899.863	4872
2901.716	4788
2903.568	4843
2905.419	4781
2907.27	4770
2909.123	4862
2910.973	4739
2912.824	4837
2914.673	4799
2916.521	4796
2918.372	4953
2920.22	4929
2922.067	4929
2923.914	4900
2925.761	4966
2927.607	4956
2929.455	4900
2931.301	5055
2933.144	5076
2934.99	5037
2936.833	5052
2938.678	5147
2940.522	5069
2942.364	5187
2944.207	5157
2946.048	5191
2947.891	5228
2949.731	5217
2951.571	5158
2953.412	5109
2955.25	5135
2957.09	5132
2958.93	4982
2960.767	5148
2962.606	4911
2964.443	4984
2966.279	4962
2968.116	4940
2969.953	4882
2971.788	4848
2973.623	4855
2975.457	4867
2977.292	4937
2979.127	4790
2980.959	4741
2982.792	4810
2984.624	4623
2986.455	4666
2988.288	4701
2990.119	4614
2991.949	4693
2993.779	4676
2995.608	4606
2997.439	4642
2999.268	4580
3001.096	4556
3002.923	4562
3004.751	4523
3006.578	4416
3008.406	4484
3010.232	4473
3012.057	4470
3013.883	4439
3015.706	4475
3017.532	4465
3019.356	4514
3021.179	4323
3023.002	4407
3024.823	4294
3026.646	4394
3028.469	4295
3030.289	4422
3032.11	4284
3033.93	4363
3035.749	4323
3037.57	4351
3039.39	4249
3041.207	4341
3043.026	4248
3044.842	4409
3046.661	4339
3048.477	4268
3050.294	4375
3052.109	4297
3053.925	4287
3055.739	4213
3057.555	4286
3059.368	4278
3061.181	4259
3062.995	4198
3064.807	4176
3066.62	4290
3068.433	4279
3070.243	4175
3072.054	4251
3073.865	4212
3075.675	4296
3077.485	4211
3079.293	4265
3081.102	4278
3082.911	4200
3084.719	4140
3086.527	4196
3088.333	4162
3090.139	4254
3091.945	4122
3093.75	4143
3095.557	4155
3097.361	4183
3099.165	4196
3100.969	4169
3102.772	4067
3104.575	4230
3106.379	4140
3108.181	4084
3109.982	4183
3111.783	4101
3113.584	4180
3115.386	4101
3117.186	4098
3118.985	4097
3120.783	4120
3122.582	4133
3124.381	4077
3126.179	4149
3127.975	4146
3129.772	4064
3131.569	4109
3133.365	4032
3135.161	4125
3136.956	3961
3138.751	4041
3140.544	4094
3142.338	4078
3144.132	4007
3145.925	4057
3147.717	4098
3149.509	4110
3151.301	4105
3153.091	4066
3154.884	4060
3156.673	4055
3158.462	4028
3160.252	4112
3162.041	3994
3163.831	3965
3165.618	4005
3167.405	3980
3169.193	4050
3170.979	3949
3172.767	4034
3174.553	3940
3176.338	3999
3178.123	3974
3179.907	3935
3181.692	4091
3183.477	4021
3185.259	3952
3187.042	3922
3188.824	3907
3190.607	4002
3192.389	3897
3194.17	4001
3195.951	4042
3197.73	3928
3199.51	3983
3201.289	3946
3203.07	4000
3204.848	3954
3206.626	4052
3208.403	3943
3210.18	4085
3211.959	3936
3213.735	3981
3215.511	3934
3217.285	3990
3219.06	3981
3220.836	3960
3222.611	3941
3224.384	3920
3226.158	3981
3227.929	3930
3229.702	3891
3231.476	3961
3233.248	3934
3235.018	3872
3236.789	3966
3238.56	3943
3240.33	3901
3242.1	3919
3243.869	3964
3245.637	3886
3247.405	3943
3249.172	3880
3250.941	3863
3252.707	3979
3254.474	3968
3256.24	4007
3258.006	3887
3259.772	3908
3261.537	3884
3263.301	3866
3265.065	3863
3266.828	3918
3268.592	3895
3270.355	3881
3272.117	3849
3273.878	3925
3275.64	3902
3277.401	3882
3279.162	3967
3280.922	3912
3282.682	3831
3284.441	3946
3286.199	3915
3287.959	3918
3289.716	3912
3291.475	3915
3293.232	3876
3294.988	3819
3296.744	3956
3298.501	3949
3300.256	3883
3302.011	3865
3303.766	3955
3305.52	3991
3307.275	3852
3309.028	3853
3310.781	3882
3312.533	3804
3314.285	3822
3316.038	3836
3317.789	3829
3319.54	3856
3321.289	3836
3323.039	3903
3324.789	3823
3326.539	3909
3328.288	3843
3330.035	3796
3331.783	3867
3333.531	3886
3335.28	3928
3337.025	3790
3338.771	3843
3340.518	3831
3342.262	3813
3344.009	3860
3345.753	3853
3347.497	3736
3349.24	3816
3350.983	3817
3352.726	3769
3354.469	3789
3356.212	3863
3357.952	3870
3359.694	3783
3361.434	3781
3363.176	3747
3364.916	3808
3366.654	3772
3368.394	3829
3370.132	3881
3371.871	3697
3373.61	3755
3375.346	3794
3377.083	3757
3378.82	3795
3380.556	3760
3382.292	3783
3384.027	3765
3385.763	3723
3387.497	3699
3389.231	3720
3390.965	3731
3392.698	3720
3394.431	3700
3396.164	3736
3397.896	3817
3399.627	3696
3401.36	3686
3403.09	3709
3404.82	3716
3406.55	3671
3408.279	3679
3410.01	3688
3411.738	3719
3413.467	3722
3415.194	3778
3416.92	3671
3418.647	3748
3420.375	3652
3422.102	3645
3423.827	3709
3425.553	3655
3427.277	3655
3429.003	3722
3430.727	3691
3432.451	3635
3434.173	3657
3435.896	3596
3437.62	3657
3439.343	3658
3441.063	3664
3442.785	3706
3444.505	3591
3446.226	3680
3447.948	3622
3449.666	3567
3451.386	3588
3453.104	3587
3454.823	3571
3456.541	3603
3458.259	3590
3459.976	3583
3461.693	3586
3463.408	3577
3465.125	3522
3466.841	3585
3468.556	3617
3470.271	3442
3471.985	3538
3473.698	3586
3475.414	3534
3477.126	3608
3478.838	3505
3480.55	3493
3482.263	3514
3483.975	3579
3485.686	3562
3487.396	3497
3489.106	3569
3490.817	3467
3492.526	3537
3494.236	3517
3495.944	3500
3497.652	3503
3499.359	3482
3501.066	3407
3502.775	3519
3504.481	3496
3506.187	3499
3507.893	3542
3509.598	3463
3511.304	3396
3513.009	3444
3514.713	3452
3516.417	3523
3518.12	3433
3519.821	3474
3521.525	3508
3523.228	3498
3524.929	3452
3526.631	3399
3528.33	3434
3530.032	3420
3531.733	3389
3533.433	3450
3535.131	3421
3536.83	3420
3538.529	3461
3540.227	3431
3541.925	3355
3543.623	3404
3545.319	3431
3547.016	3390
3548.712	3414
3550.408	3399
3552.103	3441
3553.798	3447
3555.491	3408
3557.188	3377
3558.88	3343
3560.574	3340
3562.266	3306
3563.959	3327
3565.651	3437
3567.343	3401
3569.035	3366
3570.725	3321
3572.415	3411
3574.106	3282
3575.797	3383
3577.485	3396
3579.174	3328
3580.863	3299
3582.551	3306
3584.238	3258
3585.926	3375
3587.613	3332
3589.3	3317
3590.986	3259
3592.671	3313
3594.357	3327
3596.042	3397
3597.726	3307
3599.41	3277
3601.094	3270
3602.778	3285
3604.461	3277
3606.143	3251
3607.825	3375
3609.507	3245
3611.188	3236
3612.87	3206
3614.551	3112
3616.229	3223
3617.909	3218
3619.589	3197
3621.269	3270
3622.948	3236
3624.625	3263
3626.302	3173
3627.98	3185
3629.657	3212
3631.334	3180
3633.01	3185
3634.686	3276
3636.361	3118
3638.036	3238
3639.712	3186
3641.385	3192
3643.06	3145
3644.732	3078
3646.405	3249
3648.08	3159
3649.751	3237
3651.424	3155
3653.094	3191
3654.766	3164
3656.436	3131
3658.106	3171
3659.777	3124
3661.446	3175
3663.115	3177
3664.783	3101
3666.452	3133
3668.121	3143
3669.788	3230
3671.454	3150
3673.121	3113
3674.789	3112
3676.455	3053
3678.12	3109
3679.784	3135
3681.45	3092
3683.114	3126
3684.779	3119
3686.442	3218
3688.105	3072
3689.768	3134
3691.43	3128
3693.093	3063
3694.754	3080
3696.415	3057
3698.076	3124
3699.736	3073
3701.396	3052
3703.057	3089
3704.716	3091
3706.375	3005
3708.034	3027
3709.692	3077
3711.351	2985
3713.008	3160
3714.665	3111
3716.321	3122
3717.977	3091
3719.634	3101
3721.29	3060
3722.945	3072
3724.598	3067
3726.253	3003
3727.907	3043
3729.561	3074
3731.214	3055
3732.867	3032
3734.518	3054
3736.171	3033
3737.824	3029
3739.474	3084
3741.125	3004
3742.775	2978
3744.425	2990
3746.074	3028
3747.725	2970
3749.373	3067
3751.022	2994
3752.669	3030
3754.318	3089
3755.966	3082
3757.612	3001
3759.259	2970
3760.905	3046
3762.55	3059
3764.197	3025
3765.842	2951
3767.486	3008
3769.131	2987
3770.774	2971
3772.417	3034
3774.061	3045
3775.705	2951
3777.347	2955
3778.988	2948
3780.629	2929
3782.271	2959
3783.912	2977
3785.552	2888
3787.192	3016
3788.831	2911
3790.472	2868
3792.112	2919
3793.75	2939
3795.388	2907
3797.024	2901
3798.661	2998
3800.3	2924
3801.936	2941
3803.572	2960
3805.208	2867
3806.844	2898
3808.48	2965
3810.115	2960
3811.748	2883
3813.382	2883
3815.016	2972
3816.649	2923
3818.283	2965
3819.914	2876
3821.547	2913
3823.178	2924
3824.809	2865
3826.441	2857
3828.072	2864
3829.701	2805
3831.331	2857
3832.96	2893
3834.591	2868
3836.219	2875
3837.847	2830
3839.475	2826
3841.102	2870
3842.729	2901
3844.357	2893
3845.984	2860
3847.609	2876
3849.234	2829
3850.86	2783
3852.485	2858
3854.11	2779
3855.734	2802
3857.357	2826
3858.981	2783
3860.603	2765
3862.227	2839
3863.848	2804
3865.471	2844
3867.092	2836
3868.713	2784
3870.334	2880
3871.954	2779
3873.575	2839
3875.194	2816
3876.813	2840
3878.433	2768
3880.051	2823
3881.669	2756
3883.286	2794
3884.904	2772
3886.52	2791
3888.138	2793
3889.754	2769
3891.37	2811
3892.985	2833
3894.6	2751
3896.216	2782
3897.831	2764
3899.444	2818
3901.058	2748
3902.67	2784
3904.283	2784
3905.897	2857
3907.509	2747
3909.121	2758
3910.731	2742
3912.342	2794
3913.954	2769
3915.563	2825
3917.174	2765
3918.783	2756
3920.391	2691
3922.002	2733
3923.611	2772
3925.218	2780
3926.826	2722
3928.432	2731
3930.039	2761
3931.647	2702
3933.253	2727
3934.859	2748
3936.464	2712
3938.068	2757
3939.675	2734
3941.278	2677
3942.883	2768
3944.486	2743
3946.089	2721
3947.692	2724
3949.295	2728
3950.898	2695
3952.499	2684
3954.1	2702
3955.7	2672
3957.303	2646
3958.903	2711
3960.502	2708
3962.101	2723
3963.7	2712
3965.301	2730
3966.899	2623
3968.497	2662
3970.094	2730
3971.691	2711
3973.288	2653
3974.885	2676
3976.481	2660
3978.077	2591
3979.672	2775
3981.267	2608
3982.863	2534
3984.457	2666
3986.051	2642
3987.645	2582
3989.238	2587
3990.831	2654
3992.425	2686
3994.017	2557
3995.607	2631
3997.199	2608
3998.79	2642
4000.382	2649
4001.973	2617
4003.561	2576
4005.151	2564
4006.741	2550
4008.331	2584
4009.918	2538
4011.507	2569
4013.095	2563
4014.681	2597
4016.269	2545
4017.856	2562
4019.443	2662
4021.028	2582
4022.614	2539
4024.199	2541
4025.785	2479
4027.37	2572
4028.953	2583
4030.536	2532
4032.12	2556
4033.704	2603
4035.287	2509
4036.869	2557
4038.45	2542
4040.032	2585
4041.613	2466
4043.195	2558
4044.776	2466
4046.356	2568
4047.935	2558
4049.515	2509
4051.095	2533
4052.674	2493
4054.251	2543
4055.829	2519
4057.406	2493
4058.985	2467
4060.562	2473
4062.139	2518
4063.715	2480
4065.29	2492
4066.865	2460
4068.442	2508
4070.016	2493
4071.59	2459
4073.164	2476
4074.738	2504
4076.312	2499
4077.885	2519
4079.458	2501
4081.03	2505
4082.602	2482
4084.173	2484
4085.745	2484
4087.315	2453
4088.886	2440
4090.456	2454
4092.026	2448
4093.596	2469
4095.165	2449
4096.734	2426
4098.301	2426
4099.869	2437
4101.437	2445
4103.006	2477
4104.572	2428
4106.139	2459
4107.704	2484
4109.27	2411
4110.837	2417
4112.401	2488
4113.966	2435
4115.53	2404
4117.094	2488
4118.659	2453
4120.223	2435
4121.785	2338
4123.347	2379
4124.909	2411
4126.471	2381
4128.034	2390
4129.595	2430
4131.155	2407
4132.716	2394
4134.275	2426
4135.836	2425
4137.395	2451
4138.955	2358
4140.513	2351
4142.071	2455
4143.628	2369
4145.188	2328
4146.745	2344
4148.302	2369
4149.858	2339
4151.414	2346
4152.971	2378
4154.526	2366
4156.081	2374
4157.635	2309
4159.189	2328
4160.745	2275
4162.298	2387
4163.852	2327
4165.405	2305
4166.957	2380
4168.51	2403
4170.063	2366
4171.614	2285
4173.166	2318
4174.717	2269
4176.267	2274
4177.817	2386
4179.368	2351
4180.917	2375
4182.466	2335
4184.016	2332
4185.564	2272
4187.112	2281
4188.66	2304
4190.207	2284
4191.754	2302
4193.301	2299
4194.848	2272
4196.394	2280
4197.94	2292
4199.484	2275
4201.03	2324
4202.575	2291
4204.12	2250
4205.663	2270
4207.207	2295
4208.75	2199
4210.292	2168
4211.836	2280
4213.378	2219
4214.92	2228
4216.46	2274
4218.002	2291
4219.544	2223
4221.083	2222
4222.625	2271
4224.164	2290
4225.703	2277
4227.244	2229
4228.782	2227
4230.32	2282
4231.857	2215
4233.395	2194
4234.933	2261
4236.471	2234
4238.007	2269
4239.542	2195
4241.078	2196
4242.614	2255
4244.15	2186
4245.685	2222
4247.219	2193
4248.753	2224
4250.287	2120
4251.82	2224
4253.354	2198
4254.887	2165
4256.419	2247
4257.951	2149
4259.483	2229
4261.016	2162
4262.547	2192
4264.078	2216
4265.608	2161
4267.137	2237
4268.668	2239
4270.197	2163
4271.727	2166
4273.254	2148
4274.783	2150
4276.311	2156
4277.84	2151
4279.366	2100
4280.894	2195
4282.42	2152
4283.946	2215
4285.473	2213
4286.998	2165
4288.523	2152
4290.047	2191
4291.572	2186
4293.096	2112
4294.622	2149
4296.144	2176
4297.668	2143
4299.19	2209
4300.713	2099
4302.236	2164
4303.758	2141
4305.279	2184
4306.799	2139
4308.321	2179
4309.842	2172
4311.361	2165
4312.882	2111
4314.401	2095
