400.0961	5012
402.6185	5148
405.1424	5149
407.6635	5218
410.1838	5103
412.7035	5215
415.2225	5347
417.7388	5241
420.2585	5252
422.7754	5287
425.2917	5377
427.8072	5492
430.3221	5461
432.8363	5479
435.3498	5494
437.8626	5502
440.3727	5466
442.8841	5476
445.3969	5544
447.907	5490
450.4142	5443
452.9229	5641
455.4289	5488
457.9362	5469
460.4449	5441
462.9488	5541
465.454	5506
467.9566	5496
470.4604	5482
472.9637	5486
475.4662	5480
477.966	5497
480.4671	5488
482.9656	5556
485.4633	5572
487.9645	5550
490.4608	5563
492.9566	5580
495.4536	5566
497.948	5639
500.4437	5433
502.9387	5603
505.431	5714
507.9226	5694
510.4136	5678
512.9079	5675
515.3975	5643
517.8864	5659
520.3746	5749
522.8622	5589
525.3491	5583
527.8394	5693
530.3249	5708
532.8098	5795
535.2939	5763
537.7774	5772
540.2623	5739
542.7444	5651
545.2259	5728
547.7067	5679
550.1868	5695
552.6683	5734
555.147	5715
557.6231	5719
560.1005	5717
562.5773	5794
565.0534	5821
567.5308	5832
570.0056	5797
572.4776	5873
574.951	5862
577.4237	5906
579.8978	5916
582.3671	5989
584.8378	6024
587.3079	6027
589.7773	5971
592.244	5997
594.714	5975
597.1793	5921
599.6461	5872
602.1121	5921
604.5754	5929
607.0421	5949
609.5042	5881
611.9675	5877
614.4282	5850
616.8902	5944
619.3515	5929
621.8122	5898
624.2702	5920
626.7296	5926
629.1863	5887
631.6423	5843
634.1017	5928
636.5563	5847
639.0104	5779
641.4658	5979
643.9185	5935
646.3725	5878
648.8239	5878
651.2766	5887
653.7266	5924
656.176	5981
658.6247	6007
661.0748	5877
663.5242	5956
665.9709	6022
668.417	6018
670.8624	5951
673.3092	5975
675.7533	5999
678.1968	5974
680.6395	5994
683.0817	6111
685.5251	6102
687.9659	6085
690.4061	6115
692.8456	6036
695.2844	6209
697.7226	6133
700.1621	6135
702.599	6112
705.0332	6139
707.4688	6091
709.9036	6259
712.3399	6181
714.7735	6205
717.2044	6263
719.6367	6316
722.0683	6308
724.4993	6234
726.9296	6147
729.3593	6254
731.7883	6276
734.2147	6316
736.6423	6305
739.0714	6425
741.4958	6455
743.9216	6370
746.3447	6331
748.7691	6411
751.1929	6526
753.616	6424
756.0366	6412
758.4584	6408
760.8776	6493
763.2982	6598
765.718	6518
768.1373	6500
770.5539	6546
772.9698	6571
775.3871	6486
777.8038	6460
780.2178	6553
782.6332	6512
785.0459	6608
787.458	6578
789.8714	6558
792.2842	6544
794.6943	6581
797.1038	6520
799.5127	6470
801.9209	6482
804.3324	6501
806.7393	6519
809.1456	6562
811.5513	6631
813.9562	6808
816.3625	6787
818.7663	6723
821.1693	6685
823.5718	6508
825.9735	6676
828.3746	6634
830.7771	6586
833.177	6665
835.5762	6574
837.9747	6755
840.3727	6713
842.772	6633
845.1666	6763
847.5626	6777
849.958	6714
852.3527	6842
854.7488	6852
857.1403	6703
859.5331	6781
861.9253	6793
864.3168	6835
866.7057	6757
869.098	6769
871.4876	6760
873.8746	6720
876.263	6816
878.6487	6577
881.0378	6690
883.4243	6786
885.8081	6862
888.1933	6738
890.5759	6792
892.9598	6725
895.343	6713
897.7256	6668
900.1057	6840
902.4871	6736
904.8659	6819
907.246	6643
909.6254	6903
912.0023	6856
914.3786	7040
916.7562	6918
919.1331	6955
921.5074	7108
923.8831	7087
926.2562	7177
928.6287	7101
931.0005	7010
933.3757	7189
935.7462	7165
938.1162	7225
940.4855	7244
942.8542	7367
945.2242	7486
947.5916	7640
949.9584	7743
952.3266	7946
954.6921	8311
957.0571	8775
959.4233	8906
961.787	9041
964.15	8943
966.5125	8862
968.8742	8482
971.2354	8155
973.5959	7576
975.9559	7321
978.3151	7188
980.6738	7227
983.0338	7036
985.3912	6999
987.7461	7018
990.1022	6991
992.4578	6926
994.8127	7049
997.1689	6895
999.5207	7005
1001.874	7155
1004.226	7127
1006.576	7006
1008.929	7110
1011.28	7070
1013.628	7073
1015.977	7029
1018.324	7057
1020.674	7180
1023.019	7094
1025.366	7064
1027.713	7031
1030.056	7159
1032.399	6940
1034.746	7256
1037.087	7143
1039.431	7292
1041.771	7163
1044.113	7121
1046.454	7232
1048.793	7186
1051.133	7155
1053.471	7144
1055.807	7263
1058.146	7227
1060.483	7185
1062.818	7406
1065.153	7377
1067.489	7386
1069.822	7369
1072.156	7391
1074.488	7275
1076.82	7418
1079.15	7273
1081.48	7300
1083.814	7234
1086.143	7317
1088.471	7226
1090.799	7190
1093.126	7208
1095.452	7296
1097.78	7151
1100.105	7191
1102.43	7245
1104.754	7199
1107.077	7227
1109.4	7218
1111.722	7202
1114.044	7240
1116.365	7240
1118.685	7119
1121.005	7144
1123.324	7179
1125.643	7230
1127.961	7356
1130.278	7230
1132.595	7244
1134.911	7315
1137.226	7236
1139.541	7104
1141.854	7120
1144.167	7158
1146.482	7213
1148.793	7240
1151.105	7162
1153.414	7159
1155.725	7135
1158.033	7099
1160.344	7335
1162.651	7326
1164.959	7160
1167.265	7328
1169.572	7238
1171.878	7157
1174.184	7293
1176.488	7281
1178.79	7218
1181.094	7292
1183.396	7254
1185.699	7208
1188.001	7301
1190.301	7202
1192.6	7089
1194.9	7191
1197.2	7107
1199.497	7251
1201.794	7318
1204.09	7211
1206.387	7285
1208.684	7160
1210.978	7219
1213.272	7287
1215.565	7406
1217.858	7276
1220.15	7347
1222.443	7257
1224.734	7273
1227.024	7399
1229.313	7421
1231.602	7428
1233.892	7464
1236.18	7461
1238.467	7601
1240.754	7450
1243.04	7549
1245.325	7578
1247.612	7458
1249.896	7482
1252.178	7567
1254.461	7540
1256.743	7589
1259.027	7525
1261.308	7473
1263.587	7543
1265.867	7536
1268.146	7574
1270.425	7498
1272.703	7552
1274.981	7481
1277.256	7466
1279.532	7493
1281.808	7546
1284.083	7308
1286.358	7471
1288.63	7449
1290.904	7407
1293.175	7510
1295.449	7391
1297.719	7434
1299.99	7467
1302.259	7389
1304.529	7365
1306.798	7418
1309.065	7405
1311.333	7533
1313.599	7433
1315.866	7483
1318.131	7449
1320.396	7400
1322.66	7457
1324.925	7310
1327.187	7566
1329.448	7373
1331.711	7478
1333.974	7455
1336.234	7377
1338.493	7426
1340.752	7434
1343.01	7304
1345.269	7425
1347.526	7385
1349.784	7399
1352.04	7381
1354.295	7436
1356.552	7454
1358.806	7479
1361.059	7386
1363.312	7410
1365.564	7477
1367.818	7381
1370.069	7394
1372.318	7440
1374.568	7468
1376.817	7517
1379.066	7464
1381.316	7512
1383.564	7551
1385.809	7602
1388.056	7667
1390.301	7514
1392.549	7636
1394.793	7658
1397.036	7630
1399.279	7700
1401.522	7660
1403.763	7668
1406.007	7612
1408.248	7621
1410.487	7617
1412.727	7604
1414.965	7580
1417.205	7693
1419.442	7574
1421.68	7631
1423.915	7662
1426.152	7755
1428.388	7771
1430.623	7635
1432.857	7725
1435.091	7675
1437.323	7772
1439.556	7681
1441.789	7786
1444.019	7841
1446.25	7797
1448.48	7827
1450.708	7875
1452.938	7897
1455.167	7996
1457.394	7873
1459.62	7757
1461.846	7786
1464.073	7823
1466.299	7776
1468.523	7676
1470.746	7668
1472.969	7745
1475.191	7797
1477.415	7598
1479.636	7591
1481.858	7577
1484.078	7590
1486.298	7572
1488.518	7591
1490.736	7397
1492.954	7499
1495.169	7545
1497.386	7412
1499.602	7406
1501.819	7446
1504.034	7360
1506.248	7567
1508.462	7396
1510.675	7315
1512.888	7402
1515.1	7506
1517.311	7364
1519.522	7381
1521.732	7385
1523.942	7413
1526.151	7291
1528.36	7480
1530.566	7381
1532.773	7380
1534.98	7516
1537.187	7522
1539.392	7248
1541.596	7535
1543.801	7454
1546.005	7568
1548.208	7415
1550.411	7412
1552.612	7574
1554.814	7531
1557.013	7464
1559.212	7670
1561.414	7584
1563.612	7478
1565.811	7533
1568.007	7495
1570.203	7614
1572.403	7732
1574.598	7772
1576.792	7699
1578.988	7511
1581.181	7565
1583.376	7610
1585.568	7621
1587.761	7766
1589.952	7759
1592.143	7774
1594.333	7681
1596.524	7664
1598.715	7688
1600.903	7742
1603.091	7774
1605.278	7724
1607.466	7858
1609.652	7807
1611.838	7667
1614.023	7729
1616.207	7786
1618.391	7609
1620.576	7688
1622.759	7793
1624.941	7771
1627.123	7863
1629.304	7788
1631.484	7810
1633.664	7902
1635.844	7780
1638.022	7680
1640.201	7776
1642.38	7805
1644.556	7858
1646.732	7919
1648.908	7834
1651.084	7918
1653.257	7841
1655.433	7854
1657.607	7740
1659.779	7876
1661.951	7790
1664.122	7942
1666.295	7850
1668.467	7816
1670.635	7890
1672.805	7846
1674.973	7771
1677.142	7880
1679.31	7821
1681.478	7884
1683.644	8005
1685.81	7750
1687.975	7823
1690.142	7896
1692.305	7740
1694.468	7752
1696.632	7682
1698.794	7754
1700.957	7659
1703.119	7700
1705.279	7744
1707.439	7750
1709.598	7809
1711.758	7586
1713.917	7672
1716.075	7710
1718.231	7749
1720.388	7590
1722.543	7705
1724.702	7750
1726.856	7775
1729.01	7615
1731.164	7616
1733.317	7696
1735.471	7729
1737.623	7566
1739.774	7782
1741.925	7703
1744.075	7630
1746.225	7654
1748.376	7596
1750.524	7685
1752.672	7593
1754.82	7591
1756.965	7708
1759.113	7768
1761.259	7590
1763.405	7603
1765.549	7773
1767.694	7783
1769.836	7662
1771.981	7621
1774.123	7679
1776.264	7744
1778.405	7783
1780.546	7673
1782.687	7826
1784.827	7814
1786.966	7746
1789.103	7920
1791.242	7760
1793.381	7694
1795.517	7759
1797.653	7804
1799.788	7724
1801.923	7758
1804.057	7825
1806.193	7791
1808.326	7684
1810.457	7701
1812.59	7805
1814.721	7873
1816.855	7628
1818.984	7734
1821.113	7560
1823.244	7666
1825.372	7785
1827.499	7725
1829.63	7645
1831.756	7617
1833.882	7744
1836.007	7581
1838.132	7710
1840.26	7758
1842.384	7678
1844.507	7493
1846.63	7548
1848.752	7709
1850.875	7645
1852.996	7600
1855.118	7664
1857.238	7611
1859.358	7706
1861.477	7700
1863.597	7521
1865.715	7677
1867.832	7635
1869.948	7665
1872.064	7635
1874.181	7692
1876.297	7688
1878.411	7647
1880.526	7688
1882.639	7686
1884.752	7612
1886.865	7687
1888.977	7607
1891.089	7560
1893.2	7647
1895.308	7609
1897.42	7678
1899.53	7707
1901.639	7719
1903.745	7591
1905.853	7671
1907.962	7591
1910.067	7757
1912.174	7710
1914.278	7750
1916.383	7700
1918.486	7732
1920.592	7872
1922.694	7695
1924.797	7768
1926.898	7768
1929	7865
1931.102	7711
1933.203	7780
1935.301	7699
1937.401	7786
1939.499	7742
1941.598	7871
1943.697	7852
1945.793	7784
1947.888	7743
1949.985	7702
1952.08	7640
1954.176	7782
1956.269	7796
1958.364	7756
1960.457	7816
1962.549	7803
1964.642	7738
1966.733	7729
1968.823	7737
1970.913	7590
1973.005	7716
1975.093	7695
1977.184	7707
1979.271	7764
1981.359	7661
1983.446	7669
1985.532	7575
1987.619	7695
1989.705	7601
1991.789	7585
1993.874	7669
1995.956	7568
1998.041	7651
2000.123	7649
2002.206	7637
2004.287	7634
2006.368	7675
2008.449	7684
2010.529	7639
2012.609	7597
2014.688	7646
2016.766	7642
2018.843	7569
2020.922	7678
2022.999	7735
2025.074	7639
2027.15	7524
2029.225	7617
2031.299	7588
2033.375	7606
2035.447	7583
2037.52	7631
2039.592	7707
2041.664	7624
2043.736	7640
2045.807	7659
2047.876	7636
2049.947	7559
2052.015	7666
2054.086	7617
2056.153	7657
2058.221	7668
2060.288	7626
2062.353	7696
2064.42	7647
2066.486	7661
2068.55	7659
2070.614	7639
2072.678	7677
2074.741	7468
2076.805	7687
2078.866	7582
2080.929	7698
2082.99	7728
2085.049	7615
2087.109	7588
2089.17	7659
2091.228	7611
2093.286	7586
2095.344	7667
2097.4	7623
2099.46	7694
2101.516	7686
2103.572	7743
2105.626	7617
2107.679	7606
2109.735	7640
2111.788	7690
2113.841	7618
2115.894	7665
2117.945	7654
2119.997	7558
2122.049	7631
2124.1	7658
2126.148	7596
2128.197	7562
2130.246	7638
2132.296	7622
2134.342	7507
2136.39	7629
2138.437	7664
2140.483	7644
2142.527	7593
2144.574	7542
2146.619	7536
2148.661	7681
2150.705	7491
2152.747	7699
2154.792	7627
2156.832	7496
2158.874	7523
2160.915	7748
2162.954	7517
2164.995	7502
2167.034	7544
2169.072	7551
2171.111	7484
2173.148	7498
2175.186	7405
2177.223	7565
2179.258	7581
2181.294	7619
2183.328	7440
2185.362	7362
2187.398	7568
2189.431	7486
2191.463	7408
2193.495	7401
2195.528	7386
2197.56	7486
2199.59	7511
2201.62	7355
2203.649	7490
2205.678	7375
2207.708	7341
2209.737	7475
2211.764	7345
2213.791	7374
2215.817	7434
2217.843	7424
2219.87	7382
2221.895	7362
2223.919	7353
2225.942	7412
2227.966	7413
2229.988	7328
2232.012	7379
2234.032	7395
2236.054	7386
2238.074	7326
2240.095	7463
2242.116	7382
2244.135	7394
2246.153	7381
2248.171	7513
2250.188	7365
2252.208	7255
2254.223	7419
2256.239	7391
2258.255	7448
2260.269	7375
2262.283	7340
2264.3	7334
2266.312	7349
2268.325	7374
2270.336	7371
2272.349	7315
2274.362	7338
2276.372	7458
2278.383	7413
2280.392	7342
2282.402	7335
2284.409	7361
2286.418	7309
2288.427	7355
2290.433	7357
2292.441	7459
2294.446	7222
2296.453	7318
2298.459	7336
2300.463	7305
2302.466	7288
2304.471	7435
2306.475	7392
2308.477	7312
2310.478	7253
2312.481	7272
2314.481	7341
2316.481	7246
2318.482	7413
2320.482	7427
2322.48	7361
2324.48	7379
2326.478	7194
2328.476	7264
2330.473	7281
2332.469	7158
2334.465	7240
2336.46	7191
2338.454	7230
2340.45	7135
2342.444	7248
2344.437	7268
2346.43	7282
2348.421	7082
2350.414	7116
2352.405	7193
2354.396	7219
2356.386	7224
2358.376	7104
2360.366	7130
2362.355	7215
2364.343	7178
2366.331	7117
2368.317	7185
2370.304	7194
2372.292	7200
2374.278	7247
2376.262	7127
2378.247	7194
2380.23	7224
2382.216	7274
2384.199	7176
2386.181	7168
2388.163	7107
2390.144	7157
2392.127	7142
2394.107	7089
2396.087	7069
2398.066	7053
2400.046	7176
2402.023	6998
2404.004	7154
2405.981	7058
2407.957	7049
2409.934	7075
2411.91	7118
2413.886	7250
2415.862	7087
2417.836	7060
2419.809	7125
2421.784	6998
2423.756	7023
2425.73	7022
2427.701	7158
2429.672	7104
2431.644	7043
2433.615	6978
2435.586	7156
2437.555	6962
2439.523	7007
2441.491	7058
2443.459	7069
2445.428	6985
2447.395	7023
2449.361	7099
2451.327	7079
2453.292	7083
2455.257	6919
2457.223	7105
2459.187	7017
2461.15	6982
2463.113	7059
2465.076	7031
2467.039	7058
2468.999	6970
2470.96	7007
2472.921	7068
2474.881	7057
2476.841	6929
2478.8	6913
2480.759	6934
2482.717	6939
2484.675	6963
2486.63	6942
2488.589	6933
2490.545	7055
2492.5	6959
2494.455	6947
2496.408	6840
2498.364	6949
2500.318	6972
2502.27	6993
2504.223	6924
2506.174	6935
2508.126	6910
2510.078	6876
2512.03	6943
2513.979	6866
2515.927	6802
2517.877	6941
2519.826	6906
2521.775	6973
2523.722	6824
2525.668	6910
2527.616	6924
2529.561	6839
2531.508	6895
2533.452	6913
2535.398	6887
2537.342	6835
2539.284	6893
2541.229	6900
2543.173	6847
2545.114	6769
2547.055	6960
2548.996	6908
2550.938	6918
2552.878	6917
2554.817	6931
2556.756	7063
2558.695	6903
2560.633	6796
2562.572	6747
2564.509	6841
2566.445	6908
2568.382	6889
2570.317	6915
2572.254	6813
2574.189	7008
2576.123	6750
2578.057	6888
2579.99	6919
2581.923	6796
2583.855	6883
2585.788	6855
2587.719	6816
2589.65	7008
2591.579	6904
2593.511	6800
2595.44	6864
2597.37	6813
2599.297	6982
2601.225	6795
2603.153	6819
2605.08	6905
2607.007	6802
2608.932	6850
2610.858	6774
2612.782	6820
2614.709	6917
2616.632	6859
2618.556	6807
2620.478	6872
2622.401	6810
2624.324	6876
2626.247	6825
2628.167	6898
2630.088	6846
2632.008	6903
2633.928	6862
2635.848	6886
2637.766	6950
2639.684	6849
2641.603	6808
2643.519	6885
2645.437	6787
2647.353	6861
2649.27	6772
2651.184	6768
2653.099	6938
2655.014	6728
2656.928	6918
2658.842	6989
2660.755	6800
2662.667	7015
2664.579	6791
2666.491	6847
2668.402	6870
2670.312	6866
2672.222	6803
2674.132	6837
2676.042	6715
2677.951	6801
2679.859	6748
2681.766	6633
2683.674	6719
2685.582	6690
2687.488	6734
2689.392	6848
2691.298	6818
2693.202	6775
2695.107	6766
2697.012	6714
2698.914	6627
2700.817	6671
2702.72	6644
2704.622	6692
2706.524	6643
2708.425	6720
2710.326	6641
2712.225	6772
2714.125	6769
2716.024	6704
2717.923	6796
2719.822	6667
2721.719	6690
2723.616	6777
2725.512	6736
2727.41	6618
2729.305	6715
2731.201	6730
2733.095	6797
2734.99	6769
2736.884	6765
2738.778	6629
2740.67	6772
2742.562	6654
2744.455	6676
2746.346	6669
2748.238	6770
2750.129	6572
2752.018	6609
2753.907	6557
2755.797	6640
2757.687	6677
2759.575	6677
2761.462	6605
2763.349	6656
2765.237	6525
2767.124	6660
2769.009	6566
2770.894	6618
2772.779	6761
2774.663	6612
2776.547	6583
2778.431	6638
2780.314	6693
2782.197	6621
2784.078	6575
2785.96	6575
2787.842	6598
2789.723	6599
2791.603	6598
2793.483	6477
2795.362	6528
2797.241	6519
2799.121	6626
2800.997	6591
2802.874	6580
2804.751	6611
2806.628	6445
2808.506	6677
2810.38	6568
2812.255	6666
2814.13	6638
2816.003	6539
2817.878	6532
2819.752	6522
2821.623	6626
2823.496	6563
2825.368	6552
2827.238	6471
2829.111	6555
2830.98	6543
2832.851	6524
2834.719	6562
2836.589	6552
2838.458	6494
2840.327	6515
2842.193	6424
2844.061	6583
2845.927	6489
2847.794	6489
2849.66	6468
2851.525	6491
2853.39	6604
2855.254	6508
2857.117	6664
2858.983	6661
2860.845	6633
2862.707	6660
2864.569	6747
2866.431	6767
2868.293	6816
2870.154	6797
2872.013	6882
2873.873	6893
2875.733	6949
2877.592	7042
2879.451	7096
2881.309	7118
2883.166	7160
2885.022	7124
2886.879	7206
2888.736	7207
2890.591	7262
2892.446	7150
2894.301	7217
2896.155	7204
2898.009	7227
2899.863	7145
2901.716	7100
2903.568	7176
2905.419	7168
2907.27	7170
2909.123	7089
2910.973	7162
2912.824	7292
2914.673	7206
2916.521	7284
2918.372	7406
2920.22	7448
2922.067	7356
2923.914	7519
2925.761	7470
2927.607	7622
2929.455	7594
2931.301	7786
2933.144	7696
2934.99	7822
2936.833	7932
2938.678	7965
2940.522	7960
2942.364	8036
2944.207	8118
2946.048	8195
2947.891	8190
2949.731	8031
2951.571	8132
2953.412	8100
2955.25	8015
2957.09	7920
2958.93	7971
2960.767	7858
2962.606	7811
2964.443	7627
2966.279	7625
2968.116	7567
2969.953	7477
2971.788	7399
2973.623	7389
2975.457	7293
2977.292	7365
2979.127	7374
2980.959	7303
2982.792	7158
2984.624	7182
2986.455	7129
2988.288	7137
2990.119	7092
2991.949	6985
2993.779	7006
2995.608	7035
2997.439	6964
2999.268	6863
3001.096	6723
3002.923	6933
3004.751	6790
3006.578	6847
3008.406	6567
3010.232	6610
3012.057	6547
3013.883	6570
3015.706	6534
3017.532	6490
3019.356	6336
3021.179	6291
3023.002	6451
3024.823	6409
3026.646	6293
3028.469	6469
3030.289	6289
3032.11	6172
3033.93	6270
3035.749	6271
3037.57	6294
3039.39	6327
3041.207	6243
3043.026	6253
3044.842	6264
3046.661	6302
3048.477	6230
3050.294	6144
3052.109	6061
3053.925	6177
3055.739	6005
3057.555	6129
3059.368	6051
3061.181	6122
3062.995	6244
3064.807	6140
3066.62	6108
3068.433	6163
3070.243	6170
3072.054	6099
3073.865	6126
3075.675	6153
3077.485	6144
3079.293	6140
3081.102	6130
3082.911	6067
3084.719	5978
3086.527	6061
3088.333	5982
3090.139	6019
3091.945	5888
3093.75	6034
3095.557	5907
3097.361	5958
3099.165	5970
3100.969	5981
3102.772	5950
3104.575	6004
3106.379	6007
3108.181	5913
3109.982	5816
3111.783	5879
3113.584	5972
3115.386	5874
3117.186	5961
3118.985	5867
3120.783	5916
3122.582	5917
3124.381	5903
3126.179	5836
3127.975	5817
3129.772	5894
3131.569	5946
3133.365	5800
3135.161	5826
3136.956	5844
3138.751	5828
3140.544	5829
3142.338	5761
3144.132	5903
3145.925	5799
3147.717	5824
3149.509	5872
3151.301	5800
3153.091	5787
3154.884	5784
3156.673	5856
3158.462	5710
3160.252	5845
3162.041	5735
3163.831	5744
3165.618	5764
3167.405	5845
3169.193	5744
3170.979	5644
3172.767	5720
3174.553	5831
3176.338	5772
3178.123	5768
3179.907	5670
3181.692	5726
3183.477	5811
3185.259	5692
3187.042	5667
3188.824	5732
3190.607	5674
3192.389	5664
3194.17	5709
3195.951	5801
3197.73	5688
3199.51	5662
3201.289	5736
3203.07	5666
3204.848	5698
3206.626	5662
3208.403	5719
3210.18	5606
3211.959	5724
3213.735	5685
3215.511	5740
3217.285	5606
3219.06	5751
3220.836	5619
3222.611	5776
3224.384	5670
3226.158	5737
3227.929	5749
3229.702	5615
3231.476	5702
3233.248	5768
3235.018	5651
3236.789	5677
3238.56	5772
3240.33	5744
3242.1	5741
3243.869	5642
3245.637	5729
3247.405	5588
3249.172	5815
3250.941	5742
3252.707	5736
3254.474	5719
3256.24	5608
3258.006	5685
3259.772	5672
3261.537	5628
3263.301	5608
3265.065	5659
3266.828	5675
3268.592	5687
3270.355	5678
3272.117	5637
3273.878	5723
3275.64	5672
3277.401	5694
3279.162	5660
3280.922	5708
3282.682	5678
3284.441	5668
3286.199	5655
3287.959	5778
3289.716	5621
3291.475	5624
3293.232	5627
3294.988	5725
3296.744	5661
3298.501	5617
3300.256	5692
3302.011	5727
3303.766	5630
3305.52	5665
3307.275	5727
3309.028	5579
3310.781	5746
3312.533	5641
3314.285	5673
3316.038	5694
3317.789	5483
3319.54	5641
3321.289	5737
3323.039	5656
3324.789	5752
3326.539	5698
3328.288	5503
3330.035	5695
3331.783	5583
3333.531	5689
3335.28	5564
3337.025	5589
3338.771	5490
3340.518	5527
3342.262	5622
3344.009	5612
3345.753	5529
3347.497	5590
3349.24	5435
3350.983	5518
3352.726	5702
3354.469	5544
3356.212	5535
3357.952	5515
3359.694	5463
3361.434	5499
3363.176	5456
3364.916	5571
3366.654	5451
3368.394	5518
3370.132	5490
3371.871	5468
3373.61	5442
3375.346	5449
3377.083	5448
3378.82	5428
3380.556	5378
3382.292	5406
3384.027	5353
3385.763	5358
3387.497	5481
3389.231	5437
3390.965	5409
3392.698	5423
3394.431	5356
3396.164	5290
3397.896	5450
3399.627	5392
3401.36	5391
3403.09	5509
3404.82	5331
3406.55	5386
3408.279	5321
3410.01	5530
3411.738	5395
3413.467	5282
3415.194	5276
3416.92	5354
3418.647	5222
3420.375	5433
3422.102	5367
3423.827	5375
3425.553	5292
3427.277	5328
3429.003	5289
3430.727	5376
3432.451	5385
3434.173	5273
3435.896	5279
3437.62	5226
3439.343	5302
3441.063	5201
3442.785	5259
3444.505	5253
3446.226	5264
3447.948	5268
3449.666	5204
3451.386	5192
3453.104	5158
3454.823	5185
3456.541	5117
3458.259	5223
3459.976	5112
3461.693	5091
3463.408	5154
3465.125	5165
3466.841	5172
3468.556	5103
3470.271	5064
3471.985	5162
3473.698	5185
3475.414	5104
3477.126	5056
3478.838	5026
3480.55	5125
3482.263	5094
3483.975	5066
3485.686	5068
3487.396	5063
3489.106	5140
3490.817	4995
3492.526	4947
3494.236	5070
3495.944	4972
3497.652	5004
3499.359	4961
3501.066	5065
3502.775	4980
3504.481	5031
3506.187	4951
3507.893	4950
3509.598	4949
3511.304	4973
3513.009	4917
3514.713	4979
3516.417	4905
3518.12	4955
3519.821	4950
3521.525	4953
3523.228	4900
3524.929	4910
3526.631	4855
3528.33	4875
3530.032	4917
3531.733	4921
3533.433	4832
3535.131	4840
3536.83	4890
3538.529	4837
3540.227	4903
3541.925	4816
3543.623	4894
3545.319	4825
3547.016	4827
3548.712	4826
3550.408	4868
3552.103	4818
3553.798	4829
3555.491	4739
3557.188	4778
3558.88	4819
3560.574	4791
3562.266	4881
3563.959	4724
3565.651	4702
3567.343	4825
3569.035	4701
3570.725	4717
3572.415	4724
3574.106	4772
3575.797	4761
3577.485	4644
3579.174	4787
3580.863	4652
3582.551	4719
3584.238	4733
3585.926	4670
3587.613	4782
3589.3	4623
3590.986	4665
3592.671	4663
3594.357	4672
3596.042	4607
3597.726	4602
3599.41	4619
3601.094	4655
3602.778	4566
3604.461	4663
3606.143	4640
3607.825	4587
3609.507	4627
3611.188	4574
3612.87	4537
3614.551	4610
3616.229	4612
3617.909	4513
3619.589	4552
3621.269	4543
3622.948	4508
3624.625	4508
3626.302	4523
3627.98	4447
3629.657	4393
3631.334	4549
3633.01	4398
3634.686	4416
3636.361	4416
3638.036	4392
3639.712	4493
3641.385	4378
3643.06	4420
3644.732	4389
3646.405	4471
3648.08	4504
3649.751	4471
3651.424	4397
3653.094	4436
3654.766	4362
3656.436	4333
3658.106	4323
3659.777	4421
3661.446	4437
3663.115	4325
3664.783	4281
3666.452	4379
3668.121	4323
3669.788	4319
3671.454	4341
3673.121	4298
3674.789	4368
3676.455	4206
3678.12	4342
3679.784	4342
3681.45	4292
3683.114	4259
3684.779	4304
3686.442	4262
3688.105	4356
3689.768	4388
3691.43	4224
3693.093	4269
3694.754	4321
3696.415	4313
3698.076	4186
3699.736	4307
3701.396	4209
3703.057	4255
3704.716	4321
3706.375	4226
3708.034	4226
3709.692	4276
3711.351	4307
3713.008	4243
3714.665	4242
3716.321	4209
3717.977	4293
3719.634	4123
3721.29	4184
3722.945	4243
3724.598	4245
3726.253	4135
3727.907	4146
3729.561	4197
3731.214	4230
3732.867	4176
3734.518	4243
3736.171	4134
3737.824	4251
3739.474	4222
3741.125	4136
3742.775	4162
3744.425	4150
3746.074	4199
3747.725	4136
3749.373	4267
3751.022	4153
3752.669	4131
3754.318	4144
3755.966	4151
3757.612	4091
3759.259	4226
3760.905	4172
3762.55	4123
3764.197	4110
3765.842	4063
3767.486	4121
3769.131	4117
3770.774	4116
3772.417	4052
3774.061	4121
3775.705	4084
3777.347	4046
3778.988	4164
3780.629	4073
3782.271	4137
3783.912	4110
3785.552	4053
3787.192	4056
3788.831	4129
3790.472	4019
3792.112	3985
3793.75	4066
3795.388	4053
3797.024	4016
3798.661	4031
3800.3	4069
3801.936	3982
3803.572	4020
3805.208	3992
3806.844	4035
3808.48	4069
3810.115	3978
3811.748	4051
3813.382	3909
3815.016	4012
3816.649	3965
3818.283	3907
3819.914	3967
3821.547	3878
3823.178	3943
3824.809	4013
3826.441	3900
3828.072	4022
3829.701	3955
3831.331	4010
3832.96	3898
3834.591	3970
3836.219	3999
3837.847	3928
3839.475	3936
3841.102	4004
3842.729	3930
3844.357	3907
3845.984	3894
3847.609	3908
3849.234	3885
3850.86	3944
3852.485	3946
3854.11	3963
3855.734	3858
3857.357	4006
3858.981	3846
3860.603	3901
3862.227	3927
3863.848	3839
3865.471	3833
3867.092	3916
3868.713	3952
3870.334	3822
3871.954	3823
3873.575	3893
3875.194	3831
3876.813	3884
3878.433	3859
3880.051	3785
3881.669	3747
3883.286	3845
3884.904	3820
3886.52	3793
3888.138	3880
3889.754	3765
3891.37	3829
3892.985	3738
3894.6	3809
3896.216	3813
3897.831	3901
3899.444	3717
3901.058	3789
3902.67	3740
3904.283	3771
3905.897	3742
3907.509	3779
3909.121	3776
3910.731	3817
3912.342	3790
3913.954	3685
3915.563	3772
3917.174	3780
3918.783	3781
3920.391	3708
3922.002	3810
3923.611	3821
3925.218	3694
3926.826	3822
3928.432	3743
3930.039	3712
3931.647	3750
3933.253	3770
3934.859	3705
3936.464	3742
3938.068	3708
3939.675	3713
3941.278	3694
3942.883	3741
3944.486	3687
3946.089	3684
3947.692	3741
3949.295	3687
3950.898	3680
3952.499	3654
3954.1	3730
3955.7	3682
3957.303	3661
3958.903	3653
3960.502	3619
3962.101	3650
3963.7	3620
3965.301	3581
3966.899	3755
3968.497	3626
3970.094	3571
3971.691	3597
3973.288	3656
3974.885	3622
3976.481	3655
3978.077	3628
3979.672	3639
3981.267	3593
3982.863	3557
3984.457	3585
3986.051	3574
3987.645	3570
3989.238	3554
3990.831	3549
3992.425	3587
3994.017	3541
3995.607	3612
3997.199	3599
3998.79	3526
4000.382	3553
4001.973	3523
4003.561	3563
4005.151	3481
4006.741	3510
4008.331	3550
4009.918	3653
4011.507	3410
4013.095	3519
4014.681	3508
4016.269	3518
4017.856	3501
4019.443	3564
4021.028	3522
4022.614	3414
4024.199	3488
4025.785	3468
4027.37	3489
4028.953	3436
4030.536	3473
4032.12	3415
4033.704	3412
4035.287	3480
4036.869	3433
4038.45	3488
4040.032	3497
4041.613	3399
4043.195	3442
4044.776	3471
4046.356	3405
4047.935	3410
4049.515	3503
4051.095	3378
4052.674	3454
4054.251	3448
4055.829	3417
4057.406	3387
4058.985	3415
4060.562	3381
4062.139	3423
4063.715	3374
4065.29	3393
4066.865	3411
4068.442	3408
4070.016	3456
4071.59	3360
4073.164	3389
4074.738	3414
4076.312	3416
4077.885	3302
4079.458	3385
4081.03	3407
4082.602	3341
4084.173	3317
4085.745	3380
4087.315	3370
4088.886	3330
4090.456	3402
4092.026	3337
4093.596	3371
4095.165	3326
4096.734	3358
4098.301	3228
4099.869	3273
4101.437	3283
4103.006	3335
4104.572	3307
4106.139	3347
4107.704	3264
4109.27	3307
4110.837	3255
4112.401	3330
4113.966	3297
4115.53	3310
4117.094	3273
4118.659	3267
4120.223	3338
4121.785	3284
4123.347	3247
4124.909	3263
4126.471	3277
4128.034	3284
4129.595	3202
4131.155	3115
4132.716	3237
4134.275	3213
4135.836	3191
4137.395	3230
4138.955	3197
4140.513	3254
4142.071	3178
4143.628	3266
4145.188	3214
4146.745	3219
4148.302	3206
4149.858	3106
4151.414	3229
4152.971	3184
4154.526	3098
4156.081	3137
4157.635	3152
4159.189	3185
4160.745	3193
4162.298	3163
4163.852	3138
4165.405	3146
4166.957	3145
4168.51	3070
4170.063	3150
4171.614	3105
4173.166	3215
4174.717	3152
4176.267	3103
4177.817	3048
4179.368	3191
4180.917	3040
4182.466	3138
4184.016	3116
4185.564	3038
4187.112	3068
4188.66	3081
4190.207	3086
4191.754	3071
4193.301	3059
4194.848	3087
4196.394	3009
4197.94	3052
4199.484	3011
4201.03	3054
4202.575	3008
4204.12	3096
4205.663	3071
4207.207	3070
4208.75	3065
4210.292	3068
4211.836	3030
4213.378	3010
4214.92	3023
4216.46	3078
4218.002	3077
4219.544	3019
4221.083	3026
4222.625	3004
4224.164	3036
4225.703	3049
4227.244	2987
4228.782	3035
4230.32	3051
4231.857	2965
4233.395	3029
4234.933	2975
4236.471	2979
4238.007	3039
4239.542	3015
4241.078	2998
4242.614	3019
4244.15	2990
4245.685	2999
4247.219	2981
4248.753	2928
4250.287	2922
4251.82	3028
4253.354	2983
4254.887	2967
4256.419	2949
4257.951	2932
4259.483	2947
4261.016	2923
4262.547	2954
4264.078	2971
4265.608	2926
4267.137	2993
4268.668	2940
4270.197	2961
4271.727	2896
4273.254	2902
4274.783	2961
4276.311	2977
4277.84	2866
4279.366	2866
4280.894	2879
4282.42	2997
4283.946	2938
4285.473	2926
4286.998	2876
4288.523	2874
4290.047	2856
4291.572	2866
4293.096	2886
4294.622	2849
4296.144	2921
4297.668	2909
4299.19	2886
4300.713	2862
4302.236	2848
4303.758	2904
4305.279	2876
4306.799	2857
4308.321	2842
4309.842	2830
4311.361	2925
4312.882	2838
4314.401	2827
