400.0961	8400
402.6185	8318
405.1424	8540
407.6635	8427
410.1838	8619
412.7035	8467
415.2225	8659
417.7388	8662
420.2585	8586
422.7754	8714
425.2917	8839
427.8072	8781
430.3221	8894
432.8363	9091
435.3498	8914
437.8626	8908
440.3727	9000
442.8841	8922
445.3969	8920
447.907	8995
450.4142	9055
452.9229	9045
455.4289	9145
457.9362	9113
460.4449	9128
462.9488	9025
465.454	8996
467.9566	9110
470.4604	9070
472.9637	9077
475.4662	9135
477.966	9304
480.4671	9149
482.9656	9279
485.4633	9221
487.9645	9305
490.4608	9256
492.9566	9473
495.4536	9353
497.948	9441
500.4437	9467
502.9387	9372
505.431	9482
507.9226	9513
510.4136	9462
512.9079	9415
515.3975	9418
517.8864	9426
520.3746	9526
522.8622	9530
525.3491	9560
527.8394	9391
530.3249	9529
532.8098	9522
535.2939	9558
537.7774	9580
540.2623	9506
542.7444	9572
545.2259	9593
547.7067	9595
550.1868	9616
552.6683	9570
555.147	9539
557.6231	9694
560.1005	9494
562.5773	9642
565.0534	9538
567.5308	9546
570.0056	9711
572.4776	9785
574.951	9819
577.4237	9751
579.8978	9828
582.3671	9807
584.8378	9825
587.3079	10013
589.7773	9893
592.244	9905
594.714	9866
597.1793	9821
599.6461	9691
602.1121	9992
604.5754	9816
607.0421	9865
609.5042	9866
611.9675	9757
614.4282	9961
616.8902	9724
619.3515	9865
621.8122	9889
624.2702	9894
626.7296	9941
629.1863	9823
631.6423	9732
634.1017	9770
636.5563	9884
639.0104	9923
641.4658	9958
643.9185	9881
646.3725	10047
648.8239	10114
651.2766	9955
653.7266	10010
656.176	9969
658.6247	10082
661.0748	9938
663.5242	10165
665.9709	10067
668.417	10146
670.8624	10188
673.3092	10227
675.7533	10054
678.1968	10129
680.6395	10146
683.0817	10148
685.5251	10252
687.9659	10199
690.4061	10297
692.8456	10206
695.2844	10335
697.7226	10233
700.1621	10346
702.599	10349
705.0332	10311
707.4688	10444
709.9036	10523
712.3399	10411
714.7735	10550
717.2044	10524
719.6367	10502
722.0683	10324
724.4993	10745
726.9296	10659
729.3593	10628
731.7883	10669
734.2147	10589
736.6423	10797
739.0714	10590
741.4958	10817
743.9216	10778
746.3447	10830
748.7691	10871
751.1929	10958
753.616	10777
756.0366	10895
758.4584	10967
760.8776	10994
763.2982	10851
765.718	11063
768.1373	11027
770.5539	11084
772.9698	11130
775.3871	10950
777.8038	11056
780.2178	11021
782.6332	11137
785.0459	11075
787.458	11170
789.8714	11057
792.2842	11088
794.6943	11091
797.1038	11117
799.5127	11100
801.9209	11182
804.3324	11197
806.7393	11002
809.1456	11026
811.5513	11124
813.9562	11261
816.3625	11072
818.7663	11088
821.1693	11171
823.5718	11154
825.9735	11210
828.3746	11237
830.7771	11224
833.177	11381
835.5762	11312
837.9747	11230
840.3727	11260
842.772	11186
845.1666	11188
847.5626	11326
849.958	11363
852.3527	11276
854.7488	11491
857.1403	11457
859.5331	11452
861.9253	11353
864.3168	11264
866.7057	11424
869.098	11289
871.4876	11225
873.8746	11334
876.263	11329
878.6487	11237
881.0378	11327
883.4243	11381
885.8081	11469
888.1933	11291
890.5759	11288
892.9598	11303
895.343	11478
897.7256	11376
900.1057	11292
902.4871	11430
904.8659	11436
907.246	11267
909.6254	11594
912.0023	11595
914.3786	11621
916.7562	11654
919.1331	11797
921.5074	11857
923.8831	11926
926.2562	11928
928.6287	11814
931.0005	11721
933.3757	11787
935.7462	11865
938.1162	11887
940.4855	12066
942.8542	11870
945.2242	12065
947.5916	12073
949.9584	12244
952.3266	12350
954.6921	12407
957.0571	12754
959.4233	12985
961.787	12921
964.15	12961
966.5125	12739
968.8742	12450
971.2354	12377
973.5959	12146
975.9559	12025
978.3151	11902
980.6738	11844
983.0338	11570
985.3912	11872
987.7461	11782
990.1022	11770
992.4578	11888
994.8127	11768
997.1689	11918
999.5207	11686
1001.874	11834
1004.226	11821
1006.576	11699
1008.929	11926
1011.28	11883
1013.628	11764
1015.977	11785
1018.324	11896
1020.674	11924
1023.019	11925
1025.366	11785
1027.713	11867
1030.056	11743
1032.399	11980
1034.746	12004
1037.087	11930
1039.431	11958
1041.771	11948
1044.113	12016
1046.454	11962
1048.793	11972
1051.133	12082
1053.471	11859
1055.807	12045
1058.146	12073
1060.483	12029
1062.818	12051
1065.153	12039
1067.489	12212
1069.822	12005
1072.156	12062
1074.488	12282
1076.82	12207
1079.15	12199
1081.48	12251
1083.814	12109
1086.143	12087
1088.471	12327
1090.799	11987
1093.126	12068
1095.452	12143
1097.78	12158
1100.105	12121
1102.43	12205
1104.754	12247
1107.077	12136
1109.4	12191
1111.722	12287
1114.044	12292
1116.365	12156
1118.685	12279
1121.005	12381
1123.324	12408
1125.643	12239
1127.961	12297
1130.278	12488
1132.595	12320
1134.911	12398
1137.226	12410
1139.541	12218
1141.854	12265
1144.167	12307
1146.482	12287
1148.793	12232
1151.105	12331
1153.414	12427
1155.725	12263
1158.033	12208
1160.344	12345
1162.651	12503
1164.959	12347
1167.265	12381
1169.572	12441
1171.878	12326
1174.184	12351
1176.488	12449
1178.79	12389
1181.094	12516
1183.396	12486
1185.699	12196
1188.001	12460
1190.301	12455
1192.6	12376
1194.9	12398
1197.2	12327
1199.497	12527
1201.794	12457
1204.09	12386
1206.387	12335
1208.684	12554
1210.978	12558
1213.272	12554
1215.565	12655
1217.858	12465
1220.15	12443
1222.443	12508
1224.734	12497
1227.024	12626
1229.313	12688
1231.602	12602
1233.892	12697
1236.18	12832
1238.467	12716
1240.754	12875
1243.04	12799
1245.325	12837
1247.612	12954
1249.896	13021
1252.178	12876
1254.461	12918
1256.743	12919
1259.027	12928
1261.308	12778
1263.587	12832
1265.867	12822
1268.146	12825
1270.425	12859
1272.703	12927
1274.981	12983
1277.256	12930
1279.532	12904
1281.808	12836
1284.083	12746
1286.358	12815
1288.63	12739
1290.904	12875
1293.175	12864
1295.449	12826
1297.719	12821
1299.99	12856
1302.259	12870
1304.529	12786
1306.798	12950
1309.065	12687
1311.333	12836
1313.599	12882
1315.866	12944
1318.131	12750
1320.396	12958
1322.66	12894
1324.925	12764
1327.187	13039
1329.448	13028
1331.711	12984
1333.974	12924
1336.234	12943
1338.493	13090
1340.752	12935
1343.01	12805
1345.269	12854
1347.526	12905
1349.784	13033
1352.04	12946
1354.295	12958
1356.552	13013
1358.806	12833
1361.059	12962
1363.312	13032
1365.564	12792
1367.818	13135
1370.069	13010
1372.318	13035
1374.568	13060
1376.817	13213
1379.066	13080
1381.316	13246
1383.564	13247
1385.809	13168
1388.056	13072
1390.301	13275
1392.549	13126
1394.793	13353
1397.036	13465
1399.279	13410
1401.522	13386
1403.763	13298
1406.007	13346
1408.248	13311
1410.487	13418
1412.727	13353
1414.965	13224
1417.205	13410
1419.442	13307
1421.68	13332
1423.915	13413
1426.152	13262
1428.388	13352
1430.623	13495
1432.857	13655
1435.091	13220
1437.323	13799
1439.556	13532
1441.789	13539
1444.019	13431
1446.25	13456
1448.48	13425
1450.708	13691
1452.938	13657
1455.167	13625
1457.394	13704
1459.62	13650
1461.846	13648
1464.073	13505
1466.299	13625
1468.523	13383
1470.746	13363
1472.969	13642
1475.191	13368
1477.415	13509
1479.636	13345
1481.858	13371
1484.078	13325
1486.298	13148
1488.518	13313
1490.736	13149
1492.954	13198
1495.169	13183
1497.386	13306
1499.602	13127
1501.819	13220
1504.034	13175
1506.248	13160
1508.462	13146
1510.675	13197
1512.888	13143
1515.1	13258
1517.311	13168
1519.522	13132
1521.732	13319
1523.942	13171
1526.151	13180
1528.36	13258
1530.566	13135
1532.773	13110
1534.98	13193
1537.187	13077
1539.392	13158
1541.596	13353
1543.801	13370
1546.005	13226
1548.208	13295
1550.411	13344
1552.612	13334
1554.814	13444
1557.013	13243
1559.212	13442
1561.414	13215
1563.612	13391
1565.811	13468
1568.007	13332
1570.203	13363
1572.403	13550
1574.598	13616
1576.792	13443
1578.988	13476
1581.181	13660
1583.376	13491
1585.568	13477
1587.761	13496
1589.952	13594
1592.143	13501
1594.333	13443
1596.524	13586
1598.715	13735
1600.903	13789
1603.091	13444
1605.278	13699
1607.466	13597
1609.652	13688
1611.838	13727
1614.023	13774
1616.207	13797
1618.391	13820
1620.576	13548
1622.759	13843
1624.941	13609
1627.123	13718
1629.304	13704
1631.484	13742
1633.664	13699
1635.844	13579
1638.022	13719
1640.201	13909
1642.38	13624
1644.556	13651
1646.732	13820
1648.908	13691
1651.084	13541
1653.257	13798
1655.433	13716
1657.607	13698
1659.779	13717
1661.951	13636
1664.122	13758
1666.295	13839
1668.467	13829
1670.635	13930
1672.805	13701
1674.973	13892
1677.142	13770
1679.31	13795
1681.478	13687
1683.644	13737
1685.81	13907
1687.975	13522
1690.142	13662
1692.305	13728
1694.468	13634
1696.632	13579
1698.794	13694
1700.957	13398
1703.119	13566
1705.279	13597
1707.439	13570
1709.598	13678
1711.758	13598
1713.917	13655
1716.075	13627
1718.231	13683
1720.388	13720
1722.543	13596
1724.702	13430
1726.856	13377
1729.01	13570
1731.164	13449
1733.317	13623
1735.471	13543
1737.623	13597
1739.774	13674
1741.925	13431
1744.075	13789
1746.225	13438
1748.376	13470
1750.524	13756
1752.672	13640
1754.82	13458
1756.965	13809
1759.113	13709
1761.259	13616
1763.405	13813
1765.549	13622
1767.694	13465
1769.836	13633
1771.981	13678
1774.123	13610
1776.264	13929
1778.405	13797
1780.546	13648
1782.687	13634
1784.827	13539
1786.966	13883
1789.103	13670
1791.242	13772
1793.381	13670
1795.517	13692
1797.653	13789
1799.788	13653
1801.923	13688
1804.057	13660
1806.193	13472
1808.326	13918
1810.457	13604
1812.59	13742
1814.721	13704
1816.855	13572
1818.984	13819
1821.113	13771
1823.244	13637
1825.372	13550
1827.499	13630
1829.63	13790
1831.756	13539
1833.882	13641
1836.007	13563
1838.132	13567
1840.26	13460
1842.384	13457
1844.507	13556
1846.63	13625
1848.752	13645
1850.875	13466
1852.996	13522
1855.118	13570
1857.238	13511
1859.358	13631
1861.477	13433
1863.597	13454
1865.715	13635
1867.832	13460
1869.948	13526
1872.064	13484
1874.181	13547
1876.297	13461
1878.411	13461
1880.526	13530
1882.639	13567
1884.752	13631
1886.865	13605
1888.977	13699
1891.089	13312
1893.2	13637
1895.308	13581
1897.42	13646
1899.53	13617
1901.639	13613
1903.745	13571
1905.853	13724
1907.962	13581
1910.067	13628
1912.174	13631
1914.278	13818
1916.383	13562
1918.486	13603
1920.592	13841
1922.694	13793
1924.797	13868
1926.898	13757
1929	13737
1931.102	13536
1933.203	13860
1935.301	13686
1937.401	13680
1939.499	13630
1941.598	13661
1943.697	13724
1945.793	13631
1947.888	13783
1949.985	13773
1952.08	13643
1954.176	13704
1956.269	13520
1958.364	13723
1960.457	13797
1962.549	13821
1964.642	13652
1966.733	13814
1968.823	13662
1970.913	13639
1973.005	13677
1975.093	13559
1977.184	13564
1979.271	13561
1981.359	13524
1983.446	13632
1985.532	13466
1987.619	13652
1989.705	13593
1991.789	13508
1993.874	13504
1995.956	13493
1998.041	13465
2000.123	13618
2002.206	13629
2004.287	13550
2006.368	13291
2008.449	13420
2010.529	13397
2012.609	13682
2014.688	13443
2016.766	13333
2018.843	13444
2020.922	13451
2022.999	13399
2025.074	13527
2027.15	13527
2029.225	13552
2031.299	13552
2033.375	13421
2035.447	13413
2037.52	13348
2039.592	13400
2041.664	13492
2043.736	13476
2045.807	13416
2047.876	13423
2049.947	13430
2052.015	13306
2054.086	13567
2056.153	13347
2058.221	13490
2060.288	13398
2062.353	13481
2064.42	13355
2066.486	13461
2068.55	13522
2070.614	13433
2072.678	13578
2074.741	13448
2076.805	13574
2078.866	13237
2080.929	13326
2082.99	13458
2085.049	13478
2087.109	13319
2089.17	13446
2091.228	13360
2093.286	13249
2095.344	13569
2097.4	13495
2099.46	13540
2101.516	13296
2103.572	13492
2105.626	13336
2107.679	13552
2109.735	13353
2111.788	13590
2113.841	13293
2115.894	13516
2117.945	13471
2119.997	13485
2122.049	13405
2124.1	13322
2126.148	13478
2128.197	13440
2130.246	13336
2132.296	13283
2134.342	13312
2136.39	13288
2138.437	13500
2140.483	13507
2142.527	13342
2144.574	13153
2146.619	13372
2148.661	13375
2150.705	13438
2152.747	13362
2154.792	13208
2156.832	13454
2158.874	13248
2160.915	13231
2162.954	13283
2164.995	13328
2167.034	13097
2169.072	13314
2171.111	13240
2173.148	13201
2175.186	13198
2177.223	13251
2179.258	13319
2181.294	13160
2183.328	13310
2185.362	13130
2187.398	13050
2189.431	13078
2191.463	13171
2193.495	13053
2195.528	13093
2197.56	13012
2199.59	13106
2201.62	13005
2203.649	13027
2205.678	13059
2207.708	12840
2209.737	13086
2211.764	12965
2213.791	12963
2215.817	13101
2217.843	12981
2219.87	13097
2221.895	12965
2223.919	12999
2225.942	13090
2227.966	12884
2229.988	12914
2232.012	12994
2234.032	12919
2236.054	12848
2238.074	12955
2240.095	13157
2242.116	12941
2244.135	13019
2246.153	12928
2248.171	13004
2250.188	13050
2252.208	12966
2254.223	13089
2256.239	13108
2258.255	13047
2260.269	13016
2262.283	12905
2264.3	12934
2266.312	12749
2268.325	13010
2270.336	12911
2272.349	12832
2274.362	12863
2276.372	13003
2278.383	12893
2280.392	12773
2282.402	12767
2284.409	13035
2286.418	12933
2288.427	13020
2290.433	12896
2292.441	13082
2294.446	12876
2296.453	12860
2298.459	12822
2300.463	12978
2302.466	12772
2304.471	12857
2306.475	12893
2308.477	12801
2310.478	12845
2312.481	12989
2314.481	12781
2316.481	12775
2318.482	12844
2320.482	12771
2322.48	12792
2324.48	12709
2326.478	12891
2328.476	12756
2330.473	12754
2332.469	12857
2334.465	12675
2336.46	12740
2338.454	12677
2340.45	12751
2342.444	12428
2344.437	12723
2346.43	12555
2348.421	12693
2350.414	12696
2352.405	12689
2354.396	12652
2356.386	12725
2358.376	12796
2360.366	12546
2362.355	12523
2364.343	12672
2366.331	12718
2368.317	12605
2370.304	12528
2372.292	12649
2374.278	12356
2376.262	12623
2378.247	12556
2380.23	12638
2382.216	12554
2384.199	12498
2386.181	12500
2388.163	12516
2390.144	12501
2392.127	12628
2394.107	12290
2396.087	12401
2398.066	12316
2400.046	12455
2402.023	12332
2404.004	12406
2405.981	12377
2407.957	12498
2409.934	12355
2411.91	12487
2413.886	12485
2415.862	12558
2417.836	12388
2419.809	12348
2421.784	12382
2423.756	12350
2425.73	12496
2427.701	12291
2429.672	12493
2431.644	12461
2433.615	12293
2435.586	12228
2437.555	12555
2439.523	12367
2441.491	12364
2443.459	12391
2445.428	12425
2447.395	12220
2449.361	12405
2451.327	12369
2453.292	12415
2455.257	12459
2457.223	12436
2459.187	12325
2461.15	12399
2463.113	12322
2465.076	12315
2467.039	12174
2468.999	12297
2470.96	12138
2472.921	12345
2474.881	12283
2476.841	12040
2478.8	12152
2480.759	12143
2482.717	12289
2484.675	12274
2486.63	12230
2488.589	12236
2490.545	12220
2492.5	12109
2494.455	12308
2496.408	12220
2498.364	12180
2500.318	12282
2502.27	12169
2504.223	12028
2506.174	12307
2508.126	12055
2510.078	12061
2512.03	12300
2513.979	12051
2515.927	12122
2517.877	12313
2519.826	12180
2521.775	12065
2523.722	12112
2525.668	12331
2527.616	11925
2529.561	12062
2531.508	12190
2533.452	12178
2535.398	12069
2537.342	12085
2539.284	12135
2541.229	12059
2543.173	12068
2545.114	12190
2547.055	12156
2548.996	12004
2550.938	12088
2552.878	12117
2554.817	12248
2556.756	12097
2558.695	12002
2560.633	12130
2562.572	12043
2564.509	12097
2566.445	12043
2568.382	11973
2570.317	12031
2572.254	12036
2574.189	12119
2576.123	12093
2578.057	12004
2579.99	11981
2581.923	12086
2583.855	12078
2585.788	12092
2587.719	12006
2589.65	12097
2591.579	12104
2593.511	12071
2595.44	12057
2597.37	12103
2599.297	12209
2601.225	12119
2603.153	12165
2605.08	12202
2607.007	12140
2608.932	12072
2610.858	12075
2612.782	12126
2614.709	12185
2616.632	12111
2618.556	12123
2620.478	12087
2622.401	12078
2624.324	12143
2626.247	12163
2628.167	12208
2630.088	12049
2632.008	12293
2633.928	12038
2635.848	11931
2637.766	12241
2639.684	12174
2641.603	12030
2643.519	12135
2645.437	12200
2647.353	12342
2649.27	12084
2651.184	12066
2653.099	12075
2655.014	12127
2656.928	12017
2658.842	12242
2660.755	11964
2662.667	12132
2664.579	12198
2666.491	12135
2668.402	11985
2670.312	12046
2672.222	11955
2674.132	12045
2676.042	12026
2677.951	12180
2679.859	11993
2681.766	12059
2683.674	12031
2685.582	12009
2687.488	11978
2689.392	11959
2691.298	12132
2693.202	11904
2695.107	11873
2697.012	11713
2698.914	11865
2700.817	11995
2702.72	12055
2704.622	11796
2706.524	11865
2708.425	11943
2710.326	11947
2712.225	11899
2714.125	11918
2716.024	11929
2717.923	11906
2719.822	11863
2721.719	11990
2723.616	11754
2725.512	11949
2727.41	12032
2729.305	11925
2731.201	11833
2733.095	11784
2734.99	11830
2736.884	11671
2738.778	11784
2740.67	11769
2742.562	11750
2744.455	11883
2746.346	11827
2748.238	11723
2750.129	11855
2752.018	11770
2753.907	11789
2755.797	11769
2757.687	11891
2759.575	11745
2761.462	11511
2763.349	11594
2765.237	11792
2767.124	11752
2769.009	11723
2770.894	11774
2772.779	11726
2774.663	11745
2776.547	11626
2778.431	11653
2780.314	11721
2782.197	11826
2784.078	11747
2785.96	11674
2787.842	11801
2789.723	11716
2791.603	11700
2793.483	11582
2795.362	11713
2797.241	11661
2799.121	11728
2800.997	11660
2802.874	11731
2804.751	11546
2806.628	11584
2808.506	11699
2810.38	11627
2812.255	11733
2814.13	11737
2816.003	11559
2817.878	11508
2819.752	11540
2821.623	11638
2823.496	11448
2825.368	11679
2827.238	11572
2829.111	11434
2830.98	11763
2832.851	11607
2834.719	11615
2836.589	11581
2838.458	11657
2840.327	11512
2842.193	11559
2844.061	11618
2845.927	11632
2847.794	11627
2849.66	11787
2851.525	11676
2853.39	11687
2855.254	11769
2857.117	11701
2858.983	11633
2860.845	11735
2862.707	11807
2864.569	11700
2866.431	11733
2868.293	11855
2870.154	11733
2872.013	12049
2873.873	11799
2875.733	11891
2877.592	12038
2879.451	11928
2881.309	12005
2883.166	12007
2885.022	11920
2886.879	12055
2888.736	12074
2890.591	12117
2892.446	12324
2894.301	12036
2896.155	12202
2898.009	12265
2899.863	12365
2901.716	12178
2903.568	12114
2905.419	12089
2907.27	12147
2909.123	12054
2910.973	12052
2912.824	12169
2914.673	12192
2916.521	12204
2918.372	12330
2920.22	12468
2922.067	12227
2923.914	12203
2925.761	12469
2927.607	12438
2929.455	12307
2931.301	12406
2933.144	12420
2934.99	12557
2936.833	12523
2938.678	12473
2940.522	12587
2942.364	12861
2944.207	12602
2946.048	12698
2947.891	12855
2949.731	13048
2951.571	12850
2953.412	12917
2955.25	12871
2957.09	12631
2958.93	12646
2960.767	12762
2962.606	12497
2964.443	12488
2966.279	12591
2968.116	12450
2969.953	12205
2971.788	12178
2973.623	12048
2975.457	11949
2977.292	12083
2979.127	12109
2980.959	11992
2982.792	11807
2984.624	11915
2986.455	11759
2988.288	11776
2990.119	11672
2991.949	11832
2993.779	11746
2995.608	11513
2997.439	11636
2999.268	11605
3001.096	11455
3002.923	11482
3004.751	11449
3006.578	11326
3008.406	11363
3010.232	11212
3012.057	11317
3013.883	11197
3015.706	11256
3017.532	11168
3019.356	11246
3021.179	11084
3023.002	11150
3024.823	11051
3026.646	10951
3028.469	10824
3030.289	10925
3032.11	10945
3033.93	10996
3035.749	10944
3037.57	10856
3039.39	10839
3041.207	10756
3043.026	10971
3044.842	10866
3046.661	10879
3048.477	11048
3050.294	10949
3052.109	10794
3053.925	10811
3055.739	10822
3057.555	10969
3059.368	10897
3061.181	10813
3062.995	10683
3064.807	10694
3066.62	10721
3068.433	10671
3070.243	10670
3072.054	10615
3073.865	10719
3075.675	10891
3077.485	10740
3079.293	10614
3081.102	10577
3082.911	10713
3084.719	10491
3086.527	10652
3088.333	10616
3090.139	10673
3091.945	10550
3093.75	10701
3095.557	10361
3097.361	10516
3099.165	10506
3100.969	10473
3102.772	10534
3104.575	10521
3106.379	10430
3108.181	10437
3109.982	10594
3111.783	10446
3113.584	10501
3115.386	10374
3117.186	10373
3118.985	10334
3120.783	10283
3122.582	10365
3124.381	10346
3126.179	10257
3127.975	10152
3129.772	10251
3131.569	10390
3133.365	10176
3135.161	10308
3136.956	10283
3138.751	10281
3140.544	10216
3142.338	10275
3144.132	10151
3145.925	10195
3147.717	10185
3149.509	10248
3151.301	10223
3153.091	10258
3154.884	10113
3156.673	10324
3158.462	10045
3160.252	10160
3162.041	10202
3163.831	10129
3165.618	10099
3167.405	10111
3169.193	10130
3170.979	10133
3172.767	10010
3174.553	10093
3176.338	10106
3178.123	10151
3179.907	10101
3181.692	9960
3183.477	10020
3185.259	10033
3187.042	9955
3188.824	10019
3190.607	9898
3192.389	9842
3194.17	9985
3195.951	9969
3197.73	9906
3199.51	9999
3201.289	9793
3203.07	9939
3204.848	9965
3206.626	9998
3208.403	9987
3210.18	9939
3211.959	9858
3213.735	9846
3215.511	9859
3217.285	9908
3219.06	9973
3220.836	9889
3222.611	10092
3224.384	9895
3226.158	9980
3227.929	9851
3229.702	9908
3231.476	9910
3233.248	9769
3235.018	9834
3236.789	9778
3238.56	9851
3240.33	9694
3242.1	9669
3243.869	9881
3245.637	9899
3247.405	9627
3249.172	9844
3250.941	9862
3252.707	9845
3254.474	9792
3256.24	9879
3258.006	9719
3259.772	9664
3261.537	9786
3263.301	9830
3265.065	9773
3266.828	9731
3268.592	9849
3270.355	9739
3272.117	9641
3273.878	9756
3275.64	9691
3277.401	9752
3279.162	9787
3280.922	9887
3282.682	9740
3284.441	9645
3286.199	9639
3287.959	9773
3289.716	9527
3291.475	9749
3293.232	9580
3294.988	9656
3296.744	9723
3298.501	9698
3300.256	9573
3302.011	9667
3303.766	9678
3305.52	9766
3307.275	9710
3309.028	9732
3310.781	9616
3312.533	9697
3314.285	9659
3316.038	9561
3317.789	9591
3319.54	9476
3321.289	9597
3323.039	9670
3324.789	9582
3326.539	9595
3328.288	9652
3330.035	9611
3331.783	9675
3333.531	9510
3335.28	9469
3337.025	9446
3338.771	9606
3340.518	9462
3342.262	9522
3344.009	9513
3345.753	9512
3347.497	9434
3349.24	9473
3350.983	9630
3352.726	9450
3354.469	9514
3356.212	9422
3357.952	9447
3359.694	9346
3361.434	9504
3363.176	9391
3364.916	9357
3366.654	9304
3368.394	9328
3370.132	9424
3371.871	9403
3373.61	9469
3375.346	9422
3377.083	9334
3378.82	9389
3380.556	9443
3382.292	9287
3384.027	9454
3385.763	9265
3387.497	9224
3389.231	9303
3390.965	9459
3392.698	9295
3394.431	9365
3396.164	9383
3397.896	9283
3399.627	9166
3401.36	9242
3403.09	9359
3404.82	9091
3406.55	9300
3408.279	9115
3410.01	9245
3411.738	9210
3413.467	9081
3415.194	9144
3416.92	9241
3418.647	9225
3420.375	9055
3422.102	9084
3423.827	9087
3425.553	9131
3427.277	9065
3429.003	9224
3430.727	9038
3432.451	9156
3434.173	9037
3435.896	9122
3437.62	9060
3439.343	9186
3441.063	8992
3442.785	8878
3444.505	8850
3446.226	8899
3447.948	9055
3449.666	8972
3451.386	8912
3453.104	8937
3454.823	8913
3456.541	8765
3458.259	8869
3459.976	8783
3461.693	8926
3463.408	8729
3465.125	8834
3466.841	8868
3468.556	8713
3470.271	8741
3471.985	8939
3473.698	8805
3475.414	8857
3477.126	8757
3478.838	8700
3480.55	8814
3482.263	8657
3483.975	8707
3485.686	8812
3487.396	8664
3489.106	8678
3490.817	8719
3492.526	8686
3494.236	8566
3495.944	8675
3497.652	8666
3499.359	8543
3501.066	8563
3502.775	8641
3504.481	8569
3506.187	8561
3507.893	8581
3509.598	8562
3511.304	8583
3513.009	8652
3514.713	8555
3516.417	8552
3518.12	8576
3519.821	8536
3521.525	8741
3523.228	8631
3524.929	8523
3526.631	8417
3528.33	8510
3530.032	8505
3531.733	8494
3533.433	8558
3535.131	8492
3536.83	8363
3538.529	8429
3540.227	8333
3541.925	8359
3543.623	8349
3545.319	8536
3547.016	8352
3548.712	8392
3550.408	8503
3552.103	8477
3553.798	8433
3555.491	8468
3557.188	8345
3558.88	8464
3560.574	8424
3562.266	8397
3563.959	8335
3565.651	8308
3567.343	8352
3569.035	8217
3570.725	8399
3572.415	8343
3574.106	8206
3575.797	8292
3577.485	8331
3579.174	8151
3580.863	8226
3582.551	8202
3584.238	8177
3585.926	8142
3587.613	8313
3589.3	8159
3590.986	8345
3592.671	8159
3594.357	8222
3596.042	8211
3597.726	8111
3599.41	8206
3601.094	8094
3602.778	8055
3604.461	8110
3606.143	8110
3607.825	8050
3609.507	8086
3611.188	7975
3612.87	8051
3614.551	8092
3616.229	7954
3617.909	8035
3619.589	7932
3621.269	8117
3622.948	7925
3624.625	7991
3626.302	8008
3627.98	7902
3629.657	7874
3631.334	7927
3633.01	7865
3634.686	7872
3636.361	7845
3638.036	7980
3639.712	7990
3641.385	7858
3643.06	7785
3644.732	7944
3646.405	7863
3648.08	7790
3649.751	7824
3651.424	7745
3653.094	7896
3654.766	7810
3656.436	7855
3658.106	7815
3659.777	7759
3661.446	7822
3663.115	7764
3664.783	7881
3666.452	7870
3668.121	7666
3669.788	7713
3671.454	7691
3673.121	7600
3674.789	7718
3676.455	7833
3678.12	7839
3679.784	7697
3681.45	7710
3683.114	7704
3684.779	7697
3686.442	7681
3688.105	7629
3689.768	7732
3691.43	7695
3693.093	7598
3694.754	7669
3696.415	7713
3698.076	7681
3699.736	7630
3701.396	7555
3703.057	7608
3704.716	7608
3706.375	7577
3708.034	7667
3709.692	7562
3711.351	7645
3713.008	7609
3714.665	7615
3716.321	7585
3717.977	7686
3719.634	7527
3721.29	7609
3722.945	7492
3724.598	7589
3726.253	7419
3727.907	7536
3729.561	7623
3731.214	7511
3732.867	7556
3734.518	7581
3736.171	7548
3737.824	7455
3739.474	7634
3741.125	7448
3742.775	7415
3744.425	7366
3746.074	7524
3747.725	7473
3749.373	7518
3751.022	7475
3752.669	7508
3754.318	7429
3755.966	7430
3757.612	7439
3759.259	7474
3760.905	7454
3762.55	7379
3764.197	7316
3765.842	7394
3767.486	7271
3769.131	7372
3770.774	7328
3772.417	7293
3774.061	7386
3775.705	7172
3777.347	7453
3778.988	7332
3780.629	7317
3782.271	7285
3783.912	7243
3785.552	7283
3787.192	7209
3788.831	7318
3790.472	7156
3792.112	7226
3793.75	7215
3795.388	7185
3797.024	7114
3798.661	7239
3800.3	7160
3801.936	7373
3803.572	7137
3805.208	7173
3806.844	7162
3808.48	7245
3810.115	7180
3811.748	7228
3813.382	7217
3815.016	7105
3816.649	7101
3818.283	7230
3819.914	7105
3821.547	7048
3823.178	7188
3824.809	7062
3826.441	7127
3828.072	7072
3829.701	7073
3831.331	6997
3832.96	7124
3834.591	7165
3836.219	7079
3837.847	7041
3839.475	7163
3841.102	7113
3842.729	6946
3844.357	7052
3845.984	6898
3847.609	6909
3849.234	6917
3850.86	7023
3852.485	6900
3854.11	6972
3855.734	6970
3857.357	6895
3858.981	7070
3860.603	6882
3862.227	6912
3863.848	6969
3865.471	6906
3867.092	6929
3868.713	6935
3870.334	6898
3871.954	6931
3873.575	6881
3875.194	6804
3876.813	6851
3878.433	6983
3880.051	6971
3881.669	6933
3883.286	6899
3884.904	6864
3886.52	6817
3888.138	6945
3889.754	6826
3891.37	6837
3892.985	6818
3894.6	6906
3896.216	6828
3897.831	6854
3899.444	6945
3901.058	6806
3902.67	6874
3904.283	6810
3905.897	6786
3907.509	6771
3909.121	6740
3910.731	6778
3912.342	6789
3913.954	6787
3915.563	6669
3917.174	6685
3918.783	6829
3920.391	6713
3922.002	6749
3923.611	6734
3925.218	6718
3926.826	6735
3928.432	6745
3930.039	6688
3931.647	6727
3933.253	6687
3934.859	6696
3936.464	6756
3938.068	6684
3939.675	6720
3941.278	6614
3942.883	6768
3944.486	6610
3946.089	6725
3947.692	6650
3949.295	6711
3950.898	6610
3952.499	6698
3954.1	6615
3955.7	6569
3957.303	6583
3958.903	6535
3960.502	6697
3962.101	6582
3963.7	6626
3965.301	6580
3966.899	6528
3968.497	6596
3970.094	6659
3971.691	6507
3973.288	6518
3974.885	6668
3976.481	6443
3978.077	6571
3979.672	6478
3981.267	6546
3982.863	6521
3984.457	6624
3986.051	6363
3987.645	6413
3989.238	6456
3990.831	6467
3992.425	6363
3994.017	6430
3995.607	6417
3997.199	6416
3998.79	6514
4000.382	6279
4001.973	6349
4003.561	6315
4005.151	6381
4006.741	6484
4008.331	6450
4009.918	6268
4011.507	6354
4013.095	6376
4014.681	6408
4016.269	6184
4017.856	6312
4019.443	6237
4021.028	6383
4022.614	6318
4024.199	6243
4025.785	6254
4027.37	6190
4028.953	6283
4030.536	6350
4032.12	6170
4033.704	6262
4035.287	6259
4036.869	6245
4038.45	6141
4040.032	6177
4041.613	6171
4043.195	6239
4044.776	6192
4046.356	6222
4047.935	6175
4049.515	6215
4051.095	6071
4052.674	6097
4054.251	6035
4055.829	6098
4057.406	6127
4058.985	6210
4060.562	6117
4062.139	6146
4063.715	6155
4065.29	6212
4066.865	6111
4068.442	6019
4070.016	5979
4071.59	6059
4073.164	6147
4074.738	6012
4076.312	5908
4077.885	6079
4079.458	6115
4081.03	6032
4082.602	6025
4084.173	6020
4085.745	6045
4087.315	5972
4088.886	6050
4090.456	5941
4092.026	6037
4093.596	6010
4095.165	6008
4096.734	6020
4098.301	5900
4099.869	5958
4101.437	5952
4103.006	5980
4104.572	5835
4106.139	5905
4107.704	5956
4109.27	5862
4110.837	5877
4112.401	5926
4113.966	5883
4115.53	5884
4117.094	5936
4118.659	5873
4120.223	5905
4121.785	5823
4123.347	5879
4124.909	5768
4126.471	5873
4128.034	5817
4129.595	5771
4131.155	5759
4132.716	5758
4134.275	5840
4135.836	5747
4137.395	5813
4138.955	5713
4140.513	5814
4142.071	5808
4143.628	5772
4145.188	5632
4146.745	5730
4148.302	5665
4149.858	5834
4151.414	5680
4152.971	5616
4154.526	5667
4156.081	5756
4157.635	5628
4159.189	5608
4160.745	5726
4162.298	5701
4163.852	5663
4165.405	5669
4166.957	5645
4168.51	5702
4170.063	5689
4171.614	5556
4173.166	5555
4174.717	5651
4176.267	5569
4177.817	5576
4179.368	5480
4180.917	5633
4182.466	5589
4184.016	5601
4185.564	5611
4187.112	5613
4188.66	5503
4190.207	5545
4191.754	5613
4193.301	5478
4194.848	5578
4196.394	5528
4197.94	5497
4199.484	5520
4201.03	5508
4202.575	5541
4204.12	5492
4205.663	5537
4207.207	5465
4208.75	5491
4210.292	5500
4211.836	5463
4213.378	5466
4214.92	5499
4216.46	5382
4218.002	5444
4219.544	5430
4221.083	5333
4222.625	5449
4224.164	5497
4225.703	5370
4227.244	5439
4228.782	5366
4230.32	5414
4231.857	5499
4233.395	5565
4234.933	5436
4236.471	5341
4238.007	5329
4239.542	5409
4241.078	5378
4242.614	5315
4244.15	5372
4245.685	5311
4247.219	5432
4248.753	5379
4250.287	5318
4251.82	5309
4253.354	5349
4254.887	5290
4256.419	5349
4257.951	5364
4259.483	5429
4261.016	5272
4262.547	5282
4264.078	5351
4265.608	5264
4267.137	5354
4268.668	5245
4270.197	5314
4271.727	5291
4273.254	5331
4274.783	5311
4276.311	5247
4277.84	5327
4279.366	5225
4280.894	5324
4282.42	5281
4283.946	5284
4285.473	5281
4286.998	5256
4288.523	5171
4290.047	5236
4291.572	5250
4293.096	5231
4294.622	5236
4296.144	5157
4297.668	5217
4299.19	5226
4300.713	5142
4302.236	5255
4303.758	5189
4305.279	5201
4306.799	5243
4308.321	5118
4309.842	5046
4311.361	5108
4312.882	5039
4314.401	5119
