400.0961	2561
402.6185	2534
405.1424	2567
407.6635	2626
410.1838	2596
412.7035	2649
415.2225	2628
417.7388	2659
420.2585	2684
422.7754	2756
425.2917	2815
427.8072	2863
430.3221	2843
432.8363	2814
435.3498	2861
437.8626	2793
440.3727	2774
442.8841	2821
445.3969	2853
447.907	2837
450.4142	2783
452.9229	2790
455.4289	2779
457.9362	2722
460.4449	2744
462.9488	2739
465.454	2774
467.9566	2736
470.4604	2747
472.9637	2674
475.4662	2678
477.966	2669
480.4671	2715
482.9656	2737
485.4633	2801
487.9645	2752
490.4608	2784
492.9566	2703
495.4536	2764
497.948	2782
500.4437	2825
502.9387	2777
505.431	2810
507.9226	2773
510.4136	2715
512.9079	2709
515.3975	2791
517.8864	2800
520.3746	2800
522.8622	2801
525.3491	2767
527.8394	2814
530.3249	2811
532.8098	2813
535.2939	2823
537.7774	2801
540.2623	2813
542.7444	2804
545.2259	2840
547.7067	2815
550.1868	2817
552.6683	2800
555.147	2833
557.6231	2854
560.1005	2808
562.5773	2868
565.0534	2878
567.5308	2938
570.0056	2887
572.4776	2907
574.951	2952
577.4237	2937
579.8978	2910
582.3671	3000
584.8378	3017
587.3079	3052
589.7773	2961
592.244	3086
594.714	2998
597.1793	2968
599.6461	2946
602.1121	2879
604.5754	2929
607.0421	2936
609.5042	2849
611.9675	2929
614.4282	2962
616.8902	2907
619.3515	2906
621.8122	2924
624.2702	2955
626.7296	2860
629.1863	2799
631.6423	2855
634.1017	2926
636.5563	2847
639.0104	2877
641.4658	2820
643.9185	2912
646.3725	2888
648.8239	2892
651.2766	2906
653.7266	2901
656.176	2865
658.6247	2912
661.0748	2908
663.5242	2955
665.9709	3009
668.417	2926
670.8624	2910
673.3092	2909
675.7533	2927
678.1968	2931
680.6395	2953
683.0817	2903
685.5251	2997
687.9659	2951
690.4061	2954
692.8456	2986
695.2844	2953
697.7226	3001
700.1621	2989
702.599	3023
705.0332	2996
707.4688	3005
709.9036	2996
712.3399	2965
714.7735	3002
717.2044	2977
719.6367	3027
722.0683	2981
724.4993	3046
726.9296	3039
729.3593	3020
731.7883	3048
734.2147	3036
736.6423	3017
739.0714	3144
741.4958	3059
743.9216	3110
746.3447	3082
748.7691	3098
751.1929	3110
753.616	3134
756.0366	3022
758.4584	3114
760.8776	3114
763.2982	3135
765.718	3130
768.1373	3138
770.5539	3197
772.9698	3127
775.3871	3171
777.8038	3248
780.2178	3052
782.6332	3138
785.0459	3081
787.458	3199
789.8714	3206
792.2842	3153
794.6943	3215
797.1038	3049
799.5127	3174
801.9209	3157
804.3324	3154
806.7393	3182
809.1456	3153
811.5513	3208
813.9562	3165
816.3625	3243
818.7663	3207
821.1693	3182
823.5718	3196
825.9735	3190
828.3746	3256
830.7771	3185
833.177	3197
835.5762	3212
837.9747	3153
840.3727	3256
842.772	3276
845.1666	3191
847.5626	3201
849.958	3280
852.3527	3313
854.7488	3259
857.1403	3381
859.5331	3323
861.9253	3293
864.3168	3156
866.7057	3290
869.098	3263
871.4876	3363
873.8746	3303
876.263	3242
878.6487	3288
881.0378	3280
883.4243	3237
885.8081	3283
888.1933	3308
890.5759	3270
892.9598	3308
895.343	3328
897.7256	3276
900.1057	3246
902.4871	3241
904.8659	3259
907.246	3333
909.6254	3286
912.0023	3330
914.3786	3389
916.7562	3405
919.1331	3492
921.5074	3538
923.8831	3538
926.2562	3438
928.6287	3513
931.0005	3464
933.3757	3509
935.7462	3602
938.1162	3543
940.4855	3582
942.8542	3683
945.2242	3692
947.5916	3878
949.9584	4105
952.3266	4221
954.6921	4593
957.0571	4788
959.4233	5000
961.787	5082
964.15	5089
966.5125	4781
968.8742	4469
971.2354	4204
973.5959	3907
975.9559	3748
978.3151	3650
980.6738	3509
983.0338	3477
985.3912	3425
987.7461	3456
990.1022	3409
992.4578	3367
994.8127	3450
997.1689	3465
999.5207	3524
1001.874	3427
1004.226	3482
1006.576	3458
1008.929	3432
1011.28	3496
1013.628	3423
1015.977	3458
1018.324	3425
1020.674	3541
1023.019	3523
1025.366	3535
1027.713	3490
1030.056	3542
1032.399	3590
1034.746	3539
1037.087	3584
1039.431	3545
1041.771	3537
1044.113	3543
1046.454	3581
1048.793	3553
1051.133	3527
1053.471	3569
1055.807	3537
1058.146	3519
1060.483	3528
1062.818	3633
1065.153	3707
1067.489	3667
1069.822	3694
1072.156	3711
1074.488	3673
1076.82	3670
1079.15	3654
1081.48	3550
1083.814	3573
1086.143	3600
1088.471	3554
1090.799	3529
1093.126	3528
1095.452	3552
1097.78	3569
1100.105	3523
1102.43	3551
1104.754	3477
1107.077	3533
1109.4	3434
1111.722	3469
1114.044	3456
1116.365	3536
1118.685	3429
1121.005	3554
1123.324	3520
1125.643	3528
1127.961	3531
1130.278	3486
1132.595	3497
1134.911	3538
1137.226	3468
1139.541	3464
1141.854	3387
1144.167	3417
1146.482	3454
1148.793	3568
1151.105	3478
1153.414	3525
1155.725	3491
1158.033	3557
1160.344	3550
1162.651	3563
1164.959	3462
1167.265	3563
1169.572	3536
1171.878	3567
1174.184	3505
1176.488	3464
1178.79	3587
1181.094	3445
1183.396	3545
1185.699	3526
1188.001	3414
1190.301	3492
1192.6	3583
1194.9	3502
1197.2	3488
1199.497	3556
1201.794	3515
1204.09	3463
1206.387	3560
1208.684	3464
1210.978	3493
1213.272	3552
1215.565	3494
1217.858	3471
1220.15	3411
1222.443	3546
1224.734	3596
1227.024	3571
1229.313	3533
1231.602	3637
1233.892	3563
1236.18	3601
1238.467	3664
1240.754	3625
1243.04	3731
1245.325	3763
1247.612	3641
1249.896	3714
1252.178	3727
1254.461	3680
1256.743	3642
1259.027	3704
1261.308	3741
1263.587	3742
1265.867	3669
1268.146	3747
1270.425	3725
1272.703	3771
1274.981	3717
1277.256	3733
1279.532	3655
1281.808	3671
1284.083	3702
1286.358	3656
1288.63	3651
1290.904	3599
1293.175	3657
1295.449	3581
1297.719	3657
1299.99	3505
1302.259	3492
1304.529	3635
1306.798	3599
1309.065	3625
1311.333	3628
1313.599	3600
1315.866	3491
1318.131	3669
1320.396	3600
1322.66	3636
1324.925	3621
1327.187	3624
1329.448	3559
1331.711	3579
1333.974	3655
1336.234	3654
1338.493	3683
1340.752	3689
1343.01	3698
1345.269	3614
1347.526	3569
1349.784	3663
1352.04	3669
1354.295	3662
1356.552	3585
1358.806	3580
1361.059	3582
1363.312	3600
1365.564	3606
1367.818	3539
1370.069	3639
1372.318	3630
1374.568	3614
1376.817	3614
1379.066	3682
1381.316	3699
1383.564	3696
1385.809	3692
1388.056	3681
1390.301	3598
1392.549	3681
1394.793	3766
1397.036	3729
1399.279	3803
1401.522	3701
1403.763	3792
1406.007	3814
1408.248	3810
1410.487	3778
1412.727	3821
1414.965	3848
1417.205	3764
1419.442	3806
1421.68	3781
1423.915	3812
1426.152	3759
1428.388	3782
1430.623	3798
1432.857	3739
1435.091	3778
1437.323	3834
1439.556	3820
1441.789	3902
1444.019	3784
1446.25	3883
1448.48	3879
1450.708	3823
1452.938	3868
1455.167	3820
1457.394	3830
1459.62	3856
1461.846	3863
1464.073	3864
1466.299	3848
1468.523	3898
1470.746	3743
1472.969	3740
1475.191	3680
1477.415	3710
1479.636	3747
1481.858	3708
1484.078	3692
1486.298	3636
1488.518	3688
1490.736	3704
1492.954	3588
1495.169	3711
1497.386	3773
1499.602	3608
1501.819	3655
1504.034	3669
1506.248	3643
1508.462	3599
1510.675	3638
1512.888	3554
1515.1	3656
1517.311	3604
1519.522	3668
1521.732	3620
1523.942	3691
1526.151	3610
1528.36	3596
1530.566	3634
1532.773	3669
1534.98	3733
1537.187	3631
1539.392	3681
1541.596	3636
1543.801	3609
1546.005	3703
1548.208	3612
1550.411	3731
1552.612	3678
1554.814	3732
1557.013	3684
1559.212	3752
1561.414	3677
1563.612	3703
1565.811	3705
1568.007	3721
1570.203	3737
1572.403	3773
1574.598	3778
1576.792	3718
1578.988	3786
1581.181	3712
1583.376	3753
1585.568	3729
1587.761	3744
1589.952	3772
1592.143	3783
1594.333	3733
1596.524	3789
1598.715	3714
1600.903	3846
1603.091	3826
1605.278	3780
1607.466	3743
1609.652	3813
1611.838	3777
1614.023	3803
1616.207	3810
1618.391	3821
1620.576	3802
1622.759	3871
1624.941	3765
1627.123	3809
1629.304	3777
1631.484	3820
1633.664	3854
1635.844	3842
1638.022	3832
1640.201	3816
1642.38	3838
1644.556	3829
1646.732	3866
1648.908	3817
1651.084	3884
1653.257	3914
1655.433	3874
1657.607	3872
1659.779	3865
1661.951	3870
1664.122	3915
1666.295	3856
1668.467	3883
1670.635	3947
1672.805	3931
1674.973	3915
1677.142	3927
1679.31	3898
1681.478	3864
1683.644	3857
1685.81	3906
1687.975	3792
1690.142	3845
1692.305	3771
1694.468	3883
1696.632	3832
1698.794	3779
1700.957	3787
1703.119	3735
1705.279	3838
1707.439	3809
1709.598	3797
1711.758	3766
1713.917	3773
1716.075	3786
1718.231	3734
1720.388	3743
1722.543	3754
1724.702	3829
1726.856	3732
1729.01	3769
1731.164	3682
1733.317	3727
1735.471	3781
1737.623	3727
1739.774	3809
1741.925	3847
1744.075	3757
1746.225	3740
1748.376	3778
1750.524	3813
1752.672	3751
1754.82	3768
1756.965	3808
1759.113	3743
1761.259	3739
1763.405	3734
1765.549	3795
1767.694	3813
1769.836	3751
1771.981	3785
1774.123	3820
1776.264	3713
1778.405	3833
1780.546	3820
1782.687	3784
1784.827	3788
1786.966	3787
1789.103	3787
1791.242	3790
1793.381	3761
1795.517	3838
1797.653	3826
1799.788	3724
1801.923	3778
1804.057	3795
1806.193	3782
1808.326	3820
1810.457	3880
1812.59	3806
1814.721	3790
1816.855	3850
1818.984	3793
1821.113	3899
1823.244	3811
1825.372	3836
1827.499	3754
1829.63	3773
1831.756	3849
1833.882	3756
1836.007	3782
1838.132	3708
1840.26	3852
1842.384	3851
1844.507	3720
1846.63	3845
1848.752	3744
1850.875	3781
1852.996	3751
1855.118	3784
1857.238	3849
1859.358	3698
1861.477	3821
1863.597	3819
1865.715	3732
1867.832	3880
1869.948	3709
1872.064	3739
1874.181	3771
1876.297	3799
1878.411	3752
1880.526	3827
1882.639	3793
1884.752	3847
1886.865	3824
1888.977	3694
1891.089	3755
1893.2	3791
1895.308	3818
1897.42	3813
1899.53	3804
1901.639	3835
1903.745	3818
1905.853	3887
1907.962	3825
1910.067	3857
1912.174	3916
1914.278	3817
1916.383	3862
1918.486	3844
1920.592	3882
1922.694	3807
1924.797	3865
1926.898	3844
1929	3876
1931.102	3770
1933.203	3812
1935.301	3852
1937.401	3905
1939.499	3832
1941.598	3878
1943.697	3896
1945.793	3821
1947.888	3816
1949.985	3875
1952.08	3906
1954.176	3880
1956.269	3922
1958.364	3749
1960.457	3886
1962.549	3833
1964.642	3834
1966.733	3848
1968.823	3859
1970.913	3875
1973.005	3833
1975.093	3798
1977.184	3813
1979.271	3883
1981.359	3865
1983.446	3758
1985.532	3921
1987.619	3877
1989.705	3790
1991.789	3841
1993.874	3870
1995.956	3810
1998.041	3824
2000.123	3868
2002.206	3809
2004.287	3858
2006.368	3812
2008.449	3796
2010.529	3791
2012.609	3732
2014.688	3807
2016.766	3855
2018.843	3884
2020.922	3805
2022.999	3856
2025.074	3816
2027.15	3822
2029.225	3834
2031.299	3870
2033.375	3849
2035.447	3794
2037.52	3857
2039.592	3792
2041.664	3810
2043.736	3786
2045.807	3843
2047.876	3870
2049.947	3879
2052.015	3810
2054.086	3784
2056.153	3826
2058.221	3843
2060.288	3851
2062.353	3854
2064.42	3887
2066.486	3879
2068.55	3865
2070.614	3800
2072.678	3907
2074.741	3758
2076.805	3883
2078.866	3792
2080.929	3877
2082.99	3778
2085.049	3887
2087.109	3867
2089.17	3818
2091.228	3802
2093.286	3790
2095.344	3868
2097.4	3855
2099.46	3874
2101.516	3874
2103.572	3816
2105.626	3857
2107.679	3858
2109.735	3934
2111.788	3797
2113.841	3851
2115.894	3881
2117.945	3809
2119.997	3793
2122.049	3855
2124.1	3832
2126.148	3797
2128.197	3760
2130.246	3908
2132.296	3875
2134.342	3880
2136.39	3813
2138.437	3825
2140.483	3863
2142.527	3896
2144.574	3783
2146.619	3832
2148.661	3904
2150.705	3829
2152.747	3899
2154.792	3925
2156.832	3917
2158.874	3885
2160.915	3767
2162.954	3850
2164.995	3781
2167.034	3815
2169.072	3832
2171.111	3832
2173.148	3841
2175.186	3771
2177.223	3894
2179.258	3831
2181.294	3803
2183.328	3819
2185.362	3781
2187.398	3856
2189.431	3821
2191.463	3867
2193.495	3758
2195.528	3812
2197.56	3792
2199.59	3827
2201.62	3817
2203.649	3848
2205.678	3704
2207.708	3800
2209.737	3809
2211.764	3776
2213.791	3798
2215.817	3827
2217.843	3725
2219.87	3857
2221.895	3792
2223.919	3749
2225.942	3806
2227.966	3751
2229.988	3875
2232.012	3743
2234.032	3852
2236.054	3755
2238.074	3761
2240.095	3765
2242.116	3759
2244.135	3769
2246.153	3786
2248.171	3891
2250.188	3830
2252.208	3800
2254.223	3749
2256.239	3717
2258.255	3792
2260.269	3774
2262.283	3876
2264.3	3782
2266.312	3798
2268.325	3731
2270.336	3774
2272.349	3773
2274.362	3745
2276.372	3773
2278.383	3738
2280.392	3828
2282.402	3778
2284.409	3753
2286.418	3629
2288.427	3794
2290.433	3771
2292.441	3798
2294.446	3787
2296.453	3783
2298.459	3761
2300.463	3722
2302.466	3711
2304.471	3711
2306.475	3726
2308.477	3753
2310.478	3832
2312.481	3826
2314.481	3742
2316.481	3787
2318.482	3774
2320.482	3793
2322.48	3762
2324.48	3829
2326.478	3749
2328.476	3739
2330.473	3734
2332.469	3672
2334.465	3727
2336.46	3710
2338.454	3788
2340.45	3767
2342.444	3677
2344.437	3742
2346.43	3731
2348.421	3711
2350.414	3810
2352.405	3726
2354.396	3713
2356.386	3753
2358.376	3675
2360.366	3684
2362.355	3688
2364.343	3751
2366.331	3682
2368.317	3752
2370.304	3710
2372.292	3773
2374.278	3709
2376.262	3735
2378.247	3696
2380.23	3739
2382.216	3710
2384.199	3621
2386.181	3717
2388.163	3763
2390.144	3653
2392.127	3786
2394.107	3742
2396.087	3655
2398.066	3581
2400.046	3746
2402.023	3640
2404.004	3609
2405.981	3718
2407.957	3690
2409.934	3579
2411.91	3647
2413.886	3747
2415.862	3637
2417.836	3683
2419.809	3710
2421.784	3720
2423.756	3655
2425.73	3657
2427.701	3677
2429.672	3687
2431.644	3671
2433.615	3693
2435.586	3654
2437.555	3625
2439.523	3580
2441.491	3633
2443.459	3707
2445.428	3685
2447.395	3633
2449.361	3685
2451.327	3705
2453.292	3587
2455.257	3680
2457.223	3678
2459.187	3661
2461.15	3571
2463.113	3634
2465.076	3648
2467.039	3672
2468.999	3628
2470.96	3596
2472.921	3664
2474.881	3612
2476.841	3661
2478.8	3563
2480.759	3680
2482.717	3582
2484.675	3636
2486.63	3651
2488.589	3689
2490.545	3608
2492.5	3617
2494.455	3532
2496.408	3623
2498.364	3634
2500.318	3606
2502.27	3644
2504.223	3558
2506.174	3671
2508.126	3580
2510.078	3654
2512.03	3613
2513.979	3635
2515.927	3616
2517.877	3588
2519.826	3550
2521.775	3581
2523.722	3661
2525.668	3612
2527.616	3604
2529.561	3623
2531.508	3537
2533.452	3603
2535.398	3561
2537.342	3614
2539.284	3596
2541.229	3551
2543.173	3600
2545.114	3565
2547.055	3622
2548.996	3497
2550.938	3610
2552.878	3567
2554.817	3622
2556.756	3619
2558.695	3569
2560.633	3621
2562.572	3617
2564.509	3588
2566.445	3604
2568.382	3560
2570.317	3574
2572.254	3529
2574.189	3584
2576.123	3579
2578.057	3622
2579.99	3632
2581.923	3634
2583.855	3651
2585.788	3679
2587.719	3589
2589.65	3613
2591.579	3612
2593.511	3595
2595.44	3638
2597.37	3515
2599.297	3625
2601.225	3582
2603.153	3615
2605.08	3674
2607.007	3659
2608.932	3580
2610.858	3608
2612.782	3568
2614.709	3634
2616.632	3663
2618.556	3682
2620.478	3586
2622.401	3578
2624.324	3505
2626.247	3608
2628.167	3578
2630.088	3576
2632.008	3673
2633.928	3567
2635.848	3642
2637.766	3615
2639.684	3645
2641.603	3614
2643.519	3607
2645.437	3530
2647.353	3579
2649.27	3590
2651.184	3562
2653.099	3641
2655.014	3613
2656.928	3620
2658.842	3611
2660.755	3620
2662.667	3560
2664.579	3555
2666.491	3678
2668.402	3563
2670.312	3621
2672.222	3579
2674.132	3586
2676.042	3614
2677.951	3593
2679.859	3486
2681.766	3577
2683.674	3512
2685.582	3573
2687.488	3587
2689.392	3535
2691.298	3574
2693.202	3561
2695.107	3597
2697.012	3655
2698.914	3588
2700.817	3555
2702.72	3689
2704.622	3536
2706.524	3608
2708.425	3558
2710.326	3568
2712.225	3580
2714.125	3563
2716.024	3520
2717.923	3500
2719.822	3573
2721.719	3589
2723.616	3558
2725.512	3600
2727.41	3455
2729.305	3521
2731.201	3455
2733.095	3590
2734.99	3602
2736.884	3593
2738.778	3567
2740.67	3589
2742.562	3521
2744.455	3562
2746.346	3555
2748.238	3569
2750.129	3657
2752.018	3605
2753.907	3569
2755.797	3618
2757.687	3590
2759.575	3524
2761.462	3539
2763.349	3565
2765.237	3586
2767.124	3549
2769.009	3556
2770.894	3549
2772.779	3609
2774.663	3564
2776.547	3538
2778.431	3448
2780.314	3489
2782.197	3574
2784.078	3508
2785.96	3563
2787.842	3474
2789.723	3570
2791.603	3584
2793.483	3552
2795.362	3572
2797.241	3537
2799.121	3559
2800.997	3566
2802.874	3548
2804.751	3464
2806.628	3497
2808.506	3510
2810.38	3518
2812.255	3530
2814.13	3462
2816.003	3610
2817.878	3529
2819.752	3505
2821.623	3528
2823.496	3437
2825.368	3527
2827.238	3537
2829.111	3470
2830.98	3551
2832.851	3608
2834.719	3574
2836.589	3515
2838.458	3620
2840.327	3499
2842.193	3535
2844.061	3516
2845.927	3595
2847.794	3595
2849.66	3573
2851.525	3562
2853.39	3474
2855.254	3567
2857.117	3681
2858.983	3582
2860.845	3601
2862.707	3600
2864.569	3696
2866.431	3610
2868.293	3696
2870.154	3730
2872.013	3754
2873.873	3783
2875.733	3797
2877.592	3861
2879.451	3755
2881.309	3931
2883.166	3876
2885.022	3859
2886.879	3934
2888.736	3927
2890.591	3935
2892.446	3972
2894.301	3932
2896.155	3949
2898.009	3859
2899.863	3949
2901.716	3846
2903.568	3946
2905.419	3941
2907.27	3897
2909.123	3877
2910.973	3892
2912.824	3964
2914.673	3972
2916.521	4105
2918.372	4114
2920.22	4010
2922.067	4063
2923.914	4229
2925.761	4178
2927.607	4203
2929.455	4186
2931.301	4370
2933.144	4302
2934.99	4438
2936.833	4285
2938.678	4334
2940.522	4327
2942.364	4532
2944.207	4480
2946.048	4547
2947.891	4495
2949.731	4488
2951.571	4449
2953.412	4462
2955.25	4533
2957.09	4390
2958.93	4342
2960.767	4389
2962.606	4367
2964.443	4315
2966.279	4284
2968.116	4215
2969.953	4090
2971.788	4134
2973.623	4069
2975.457	4038
2977.292	3999
2979.127	3995
2980.959	3984
2982.792	4043
2984.624	3969
2986.455	3980
2988.288	3912
2990.119	3993
2991.949	3861
2993.779	3945
2995.608	3865
2997.439	3750
2999.268	3872
3001.096	3726
3002.923	3780
3004.751	3671
3006.578	3650
3008.406	3641
3010.232	3594
3012.057	3630
3013.883	3520
3015.706	3600
3017.532	3551
3019.356	3482
3021.179	3480
3023.002	3460
3024.823	3438
3026.646	3503
3028.469	3369
3030.289	3418
3032.11	3423
3033.93	3506
3035.749	3421
3037.57	3399
3039.39	3482
3041.207	3376
3043.026	3378
3044.842	3398
3046.661	3364
3048.477	3294
3050.294	3383
3052.109	3432
3053.925	3413
3055.739	3400
3057.555	3408
3059.368	3330
3061.181	3309
3062.995	3408
3064.807	3361
3066.62	3436
3068.433	3463
3070.243	3400
3072.054	3387
3073.865	3456
3075.675	3395
3077.485	3397
3079.293	3389
3081.102	3326
3082.911	3401
3084.719	3313
3086.527	3400
3088.333	3374
3090.139	3318
3091.945	3277
3093.75	3368
3095.557	3330
3097.361	3275
3099.165	3320
3100.969	3319
3102.772	3258
3104.575	3300
3106.379	3386
3108.181	3318
3109.982	3285
3111.783	3230
3113.584	3290
3115.386	3281
3117.186	3317
3118.985	3305
3120.783	3305
3122.582	3192
3124.381	3226
3126.179	3240
3127.975	3246
3129.772	3227
3131.569	3290
3133.365	3216
3135.161	3419
3136.956	3291
3138.751	3311
3140.544	3229
3142.338	3282
3144.132	3240
3145.925	3246
3147.717	3144
3149.509	3206
3151.301	3233
3153.091	3308
3154.884	3256
3156.673	3235
3158.462	3239
3160.252	3233
3162.041	3248
3163.831	3168
3165.618	3242
3167.405	3213
3169.193	3195
3170.979	3215
3172.767	3200
3174.553	3203
3176.338	3172
3178.123	3226
3179.907	3185
3181.692	3197
3183.477	3204
3185.259	3253
3187.042	3250
3188.824	3203
3190.607	3261
3192.389	3272
3194.17	3241
3195.951	3265
3197.73	3160
3199.51	3191
3201.289	3208
3203.07	3229
3204.848	3216
3206.626	3165
3208.403	3228
3210.18	3228
3211.959	3212
3213.735	3163
3215.511	3135
3217.285	3120
3219.06	3244
3220.836	3182
3222.611	3159
3224.384	3218
3226.158	3219
3227.929	3210
3229.702	3244
3231.476	3199
3233.248	3226
3235.018	3178
3236.789	3285
3238.56	3255
3240.33	3205
3242.1	3290
3243.869	3224
3245.637	3276
3247.405	3227
3249.172	3168
3250.941	3225
3252.707	3216
3254.474	3207
3256.24	3244
3258.006	3193
3259.772	3258
3261.537	3233
3263.301	3222
3265.065	3141
3266.828	3209
3268.592	3207
3270.355	3217
3272.117	3224
3273.878	3223
3275.64	3228
3277.401	3195
3279.162	3301
3280.922	3234
3282.682	3200
3284.441	3254
3286.199	3167
3287.959	3183
3289.716	3264
3291.475	3174
3293.232	3276
3294.988	3261
3296.744	3209
3298.501	3258
3300.256	3185
3302.011	3236
3303.766	3238
3305.52	3231
3307.275	3245
3309.028	3204
3310.781	3203
3312.533	3228
3314.285	3192
3316.038	3263
3317.789	3201
3319.54	3224
3321.289	3169
3323.039	3247
3324.789	3143
3326.539	3167
3328.288	3196
3330.035	3229
3331.783	3256
3333.531	3195
3335.28	3183
3337.025	3243
3338.771	3179
3340.518	3113
3342.262	3207
3344.009	3271
3345.753	3139
3347.497	3245
3349.24	3140
3350.983	3162
3352.726	3209
3354.469	3214
3356.212	3158
3357.952	3199
3359.694	3129
3361.434	3194
3363.176	3204
3364.916	3171
3366.654	3172
3368.394	3111
3370.132	3159
3371.871	3184
3373.61	3105
3375.346	3142
3377.083	3137
3378.82	3163
3380.556	3144
3382.292	3167
3384.027	3151
3385.763	3107
3387.497	3176
3389.231	3065
3390.965	3124
3392.698	3147
3394.431	3088
3396.164	3091
3397.896	3152
3399.627	3207
3401.36	3124
3403.09	3112
3404.82	3142
3406.55	3132
3408.279	3083
3410.01	3108
3411.738	3052
3413.467	3117
3415.194	3142
3416.92	3081
3418.647	3117
3420.375	3065
3422.102	3046
3423.827	3113
3425.553	3138
3427.277	3041
3429.003	3099
3430.727	2989
3432.451	3030
3434.173	3064
3435.896	3107
3437.62	3054
3439.343	3044
3441.063	3102
3442.785	3095
3444.505	2993
3446.226	3043
3447.948	3018
3449.666	3024
3451.386	2988
3453.104	3069
3454.823	3088
3456.541	3004
3458.259	3081
3459.976	3003
3461.693	3015
3463.408	2957
3465.125	2946
3466.841	2936
3468.556	3028
3470.271	2979
3471.985	2991
3473.698	2987
3475.414	2911
3477.126	2958
3478.838	2923
3480.55	2970
3482.263	2939
3483.975	2841
3485.686	2884
3487.396	2959
3489.106	2912
3490.817	2955
3492.526	2971
3494.236	2903
3495.944	2956
3497.652	2815
3499.359	2892
3501.066	2893
3502.775	2961
3504.481	2842
3506.187	2933
3507.893	2890
3509.598	2872
3511.304	2864
3513.009	2960
3514.713	2833
3516.417	2858
3518.12	2836
3519.821	2899
3521.525	2892
3523.228	2928
3524.929	2936
3526.631	2798
3528.33	2840
3530.032	2858
3531.733	2791
3533.433	2851
3535.131	2833
3536.83	2898
3538.529	2840
3540.227	2766
3541.925	2807
3543.623	2850
3545.319	2828
3547.016	2798
3548.712	2883
3550.408	2797
3552.103	2844
3553.798	2828
3555.491	2832
3557.188	2824
3558.88	2805
3560.574	2775
3562.266	2760
3563.959	2779
3565.651	2854
3567.343	2780
3569.035	2769
3570.725	2836
3572.415	2807
3574.106	2751
3575.797	2796
3577.485	2825
3579.174	2789
3580.863	2798
3582.551	2779
3584.238	2790
3585.926	2763
3587.613	2766
3589.3	2784
3590.986	2692
3592.671	2640
3594.357	2786
3596.042	2740
3597.726	2743
3599.41	2762
3601.094	2756
3602.778	2651
3604.461	2662
3606.143	2673
3607.825	2670
3609.507	2692
3611.188	2708
3612.87	2662
3614.551	2656
3616.229	2643
3617.909	2641
3619.589	2673
3621.269	2649
3622.948	2643
3624.625	2660
3626.302	2638
3627.98	2576
3629.657	2640
3631.334	2632
3633.01	2586
3634.686	2632
3636.361	2600
3638.036	2550
3639.712	2603
3641.385	2617
3643.06	2655
3644.732	2573
3646.405	2609
3648.08	2605
3649.751	2564
3651.424	2540
3653.094	2558
3654.766	2544
3656.436	2553
3658.106	2538
3659.777	2538
3661.446	2585
3663.115	2536
3664.783	2583
3666.452	2555
3668.121	2527
3669.788	2539
3671.454	2530
3673.121	2551
3674.789	2507
3676.455	2602
3678.12	2510
3679.784	2564
3681.45	2552
3683.114	2582
3684.779	2490
3686.442	2522
3688.105	2495
3689.768	2512
3691.43	2570
3693.093	2532
3694.754	2543
3696.415	2557
3698.076	2471
3699.736	2519
3701.396	2477
3703.057	2516
3704.716	2548
3706.375	2494
3708.034	2550
3709.692	2516
3711.351	2535
3713.008	2497
3714.665	2470
3716.321	2493
3717.977	2473
3719.634	2458
3721.29	2519
3722.945	2474
3724.598	2432
3726.253	2482
3727.907	2503
3729.561	2474
3731.214	2509
3732.867	2473
3734.518	2438
3736.171	2453
3737.824	2478
3739.474	2479
3741.125	2490
3742.775	2463
3744.425	2452
3746.074	2551
3747.725	2465
3749.373	2498
3751.022	2456
3752.669	2399
3754.318	2453
3755.966	2445
3757.612	2468
3759.259	2444
3760.905	2411
3762.55	2494
3764.197	2405
3765.842	2470
3767.486	2412
3769.131	2428
3770.774	2446
3772.417	2428
3774.061	2443
3775.705	2443
3777.347	2352
3778.988	2420
3780.629	2434
3782.271	2403
3783.912	2391
3785.552	2410
3787.192	2382
3788.831	2381
3790.472	2369
3792.112	2431
3793.75	2409
3795.388	2396
3797.024	2432
3798.661	2382
3800.3	2377
3801.936	2403
3803.572	2358
3805.208	2366
3806.844	2400
3808.48	2359
3810.115	2412
3811.748	2373
3813.382	2334
3815.016	2312
3816.649	2349
3818.283	2353
3819.914	2354
3821.547	2306
3823.178	2377
3824.809	2304
3826.441	2339
3828.072	2365
3829.701	2333
3831.331	2346
3832.96	2338
3834.591	2347
3836.219	2308
3837.847	2385
3839.475	2323
3841.102	2268
3842.729	2288
3844.357	2330
3845.984	2350
3847.609	2306
3849.234	2329
3850.86	2380
3852.485	2323
3854.11	2346
3855.734	2282
3857.357	2286
3858.981	2370
3860.603	2246
3862.227	2367
3863.848	2286
3865.471	2256
3867.092	2341
3868.713	2306
3870.334	2327
3871.954	2342
3873.575	2278
3875.194	2294
3876.813	2306
3878.433	2235
3880.051	2317
3881.669	2315
3883.286	2316
3884.904	2306
3886.52	2205
3888.138	2331
3889.754	2276
3891.37	2260
3892.985	2270
3894.6	2270
3896.216	2308
3897.831	2313
3899.444	2281
3901.058	2315
3902.67	2227
3904.283	2327
3905.897	2244
3907.509	2305
3909.121	2271
3910.731	2265
3912.342	2289
3913.954	2270
3915.563	2307
3917.174	2258
3918.783	2284
3920.391	2236
3922.002	2188
3923.611	2291
3925.218	2286
3926.826	2249
3928.432	2292
3930.039	2191
3931.647	2256
3933.253	2236
3934.859	2155
3936.464	2226
3938.068	2227
3939.675	2299
3941.278	2216
3942.883	2273
3944.486	2271
3946.089	2222
3947.692	2243
3949.295	2213
3950.898	2223
3952.499	2235
3954.1	2248
3955.7	2150
3957.303	2221
3958.903	2218
3960.502	2230
3962.101	2163
3963.7	2176
3965.301	2246
3966.899	2219
3968.497	2239
3970.094	2173
3971.691	2211
3973.288	2229
3974.885	2202
3976.481	2176
3978.077	2137
3979.672	2181
3981.267	2220
3982.863	2179
3984.457	2208
3986.051	2184
3987.645	2196
3989.238	2232
3990.831	2239
3992.425	2118
3994.017	2131
3995.607	2166
3997.199	2095
3998.79	2180
4000.382	2161
4001.973	2185
4003.561	2183
4005.151	2167
4006.741	2161
4008.331	2172
4009.918	2158
4011.507	2177
4013.095	2105
4014.681	2156
4016.269	2127
4017.856	2169
4019.443	2118
4021.028	2198
4022.614	2167
4024.199	2151
4025.785	2107
4027.37	2108
4028.953	2109
4030.536	2154
4032.12	2118
4033.704	2119
4035.287	2094
4036.869	2121
4038.45	2088
4040.032	2085
4041.613	2120
4043.195	2089
4044.776	2087
4046.356	2064
4047.935	2076
4049.515	2092
4051.095	2157
4052.674	2100
4054.251	2049
4055.829	2015
4057.406	2065
4058.985	2100
4060.562	2094
4062.139	2046
4063.715	2111
4065.29	2083
4066.865	2058
4068.442	2122
4070.016	2092
4071.59	2081
4073.164	2101
4074.738	2015
4076.312	2064
4077.885	2052
4079.458	2038
4081.03	2072
4082.602	2093
4084.173	2102
4085.745	2026
4087.315	2128
4088.886	2067
4090.456	2061
4092.026	2062
4093.596	2069
4095.165	2113
4096.734	2081
4098.301	2100
4099.869	2046
4101.437	2010
4103.006	2095
4104.572	2086
4106.139	1985
4107.704	2071
4109.27	2056
4110.837	1985
4112.401	2001
4113.966	2017
4115.53	2050
4117.094	2032
4118.659	1982
4120.223	2018
4121.785	2040
4123.347	1972
4124.909	2011
4126.471	2029
4128.034	2020
4129.595	1995
4131.155	1972
4132.716	1988
4134.275	2006
4135.836	2036
4137.395	1944
4138.955	1990
4140.513	2013
4142.071	1977
4143.628	1969
4145.188	2031
4146.745	1950
4148.302	1979
4149.858	1952
4151.414	1949
4152.971	1974
4154.526	1952
4156.081	1946
4157.635	1951
4159.189	1999
4160.745	1970
4162.298	1975
4163.852	1922
4165.405	1982
4166.957	1983
4168.51	1956
4170.063	1948
4171.614	1929
4173.166	1979
4174.717	1932
4176.267	1932
4177.817	1942
4179.368	1962
4180.917	1908
4182.466	1934
4184.016	1950
4185.564	1891
4187.112	1929
4188.66	1922
4190.207	1916
4191.754	1903
4193.301	1938
4194.848	1937
4196.394	1864
4197.94	1893
4199.484	1889
4201.03	1902
4202.575	1932
4204.12	1896
4205.663	1862
4207.207	1888
4208.75	1929
4210.292	1912
4211.836	1889
4213.378	1917
4214.92	1926
4216.46	1842
4218.002	1872
4219.544	1905
4221.083	1861
4222.625	1902
4224.164	1913
4225.703	1876
4227.244	1895
4228.782	1889
4230.32	1864
4231.857	1865
4233.395	1906
4234.933	1910
4236.471	1890
4238.007	1923
4239.542	1911
4241.078	1868
4242.614	1865
4244.15	1844
4245.685	1848
4247.219	1801
4248.753	1826
4250.287	1846
4251.82	1914
4253.354	1820
4254.887	1893
4256.419	1819
4257.951	1900
4259.483	1847
4261.016	1864
4262.547	1857
4264.078	1903
4265.608	1858
4267.137	1853
4268.668	1937
4270.197	1865
4271.727	1925
4273.254	1869
4274.783	1849
4276.311	1855
4277.84	1837
4279.366	1877
4280.894	1840
4282.42	1824
4283.946	1853
4285.473	1863
4286.998	1850
4288.523	1834
4290.047	1882
4291.572	1889
4293.096	1827
4294.622	1851
4296.144	1838
4297.668	1819
4299.19	1795
4300.713	1797
4302.236	1830
4303.758	1773
4305.279	1807
4306.799	1816
4308.321	1806
4309.842	1782
4311.361	1774
4312.882	1800
4314.401	1807
