400.0961	2362
402.6185	2349
405.1424	2343
407.6635	2380
410.1838	2368
412.7035	2366
415.2225	2352
417.7388	2395
420.2585	2425
422.7754	2422
425.2917	2436
427.8072	2448
430.3221	2470
432.8363	2488
435.3498	2509
437.8626	2506
440.3727	2497
442.8841	2514
445.3969	2510
447.907	2498
450.4142	2493
452.9229	2490
455.4289	2473
457.9362	2484
460.4449	2544
462.9488	2497
465.454	2512
467.9566	2460
470.4604	2470
472.9637	2465
475.4662	2459
477.966	2446
480.4671	2479
482.9656	2485
485.4633	2448
487.9645	2481
490.4608	2498
492.9566	2544
495.4536	2526
497.948	2590
500.4437	2541
502.9387	2571
505.431	2566
507.9226	2577
510.4136	2589
512.9079	2523
515.3975	2552
517.8864	2555
520.3746	2559
522.8622	2567
525.3491	2597
527.8394	2567
530.3249	2481
532.8098	2538
535.2939	2576
537.7774	2586
540.2623	2574
542.7444	2485
545.2259	2551
547.7067	2561
550.1868	2562
552.6683	2585
555.147	2623
557.6231	2645
560.1005	2596
562.5773	2585
565.0534	2550
567.5308	2631
570.0056	2608
572.4776	2555
574.951	2660
577.4237	2612
579.8978	2648
582.3671	2674
584.8378	2617
587.3079	2659
589.7773	2687
592.244	2691
594.714	2644
597.1793	2727
599.6461	2635
602.1121	2726
604.5754	2687
607.0421	2629
609.5042	2605
611.9675	2665
614.4282	2612
616.8902	2651
619.3515	2614
621.8122	2635
624.2702	2623
626.7296	2646
629.1863	2609
631.6423	2604
634.1017	2662
636.5563	2641
639.0104	2614
641.4658	2699
643.9185	2627
646.3725	2651
648.8239	2648
651.2766	2638
653.7266	2687
656.176	2619
658.6247	2651
661.0748	2656
663.5242	2699
665.9709	2729
668.417	2701
670.8624	2692
673.3092	2683
675.7533	2720
678.1968	2686
680.6395	2675
683.0817	2696
685.5251	2751
687.9659	2659
690.4061	2703
692.8456	2699
695.2844	2726
697.7226	2750
700.1621	2751
702.599	2809
705.0332	2726
707.4688	2771
709.9036	2765
712.3399	2737
714.7735	2790
717.2044	2793
719.6367	2779
722.0683	2787
724.4993	2841
726.9296	2720
729.3593	2733
731.7883	2829
734.2147	2822
736.6423	2806
739.0714	2787
741.4958	2837
743.9216	2844
746.3447	2823
748.7691	2824
751.1929	2816
753.616	2850
756.0366	2894
758.4584	2844
760.8776	2923
763.2982	2974
765.718	2877
768.1373	2897
770.5539	2901
772.9698	2942
775.3871	2853
777.8038	2870
780.2178	2960
782.6332	2926
785.0459	2853
787.458	2914
789.8714	2930
792.2842	2889
794.6943	2871
797.1038	2877
799.5127	2908
801.9209	2962
804.3324	2911
806.7393	3010
809.1456	2926
811.5513	2935
813.9562	2869
816.3625	2909
818.7663	2885
821.1693	2955
823.5718	2943
825.9735	2932
828.3746	2952
830.7771	2959
833.177	2940
835.5762	2884
837.9747	2965
840.3727	2986
842.772	3030
845.1666	2890
847.5626	2961
849.958	2994
852.3527	3036
854.7488	3107
857.1403	3027
859.5331	3070
861.9253	3091
864.3168	3007
866.7057	2976
869.098	3022
871.4876	3030
873.8746	2973
876.263	2999
878.6487	3053
881.0378	2981
883.4243	2939
885.8081	2956
888.1933	2971
890.5759	2976
892.9598	2960
895.343	2985
897.7256	3009
900.1057	2920
902.4871	3071
904.8659	3031
907.246	3028
909.6254	3009
912.0023	3075
914.3786	3075
916.7562	3060
919.1331	3190
921.5074	3152
923.8831	3202
926.2562	3163
928.6287	3155
931.0005	3175
933.3757	3096
935.7462	3116
938.1162	3226
940.4855	3194
942.8542	3205
945.2242	3271
947.5916	3278
949.9584	3315
952.3266	3418
954.6921	3454
957.0571	3588
959.4233	3623
961.787	3752
964.15	3665
966.5125	3631
968.8742	3512
971.2354	3388
973.5959	3335
975.9559	3275
978.3151	3187
980.6738	3206
983.0338	3178
985.3912	3008
987.7461	3130
990.1022	3122
992.4578	3081
994.8127	3090
997.1689	3125
999.5207	3175
1001.874	3182
1004.226	3194
1006.576	3072
1008.929	3168
1011.28	3183
1013.628	3128
1015.977	3169
1018.324	3036
1020.674	3140
1023.019	3164
1025.366	3139
1027.713	3214
1030.056	3128
1032.399	3111
1034.746	3158
1037.087	3107
1039.431	3184
1041.771	3104
1044.113	3234
1046.454	3126
1048.793	3216
1051.133	3145
1053.471	3223
1055.807	3199
1058.146	3133
1060.483	3149
1062.818	3236
1065.153	3140
1067.489	3302
1069.822	3236
1072.156	3288
1074.488	3225
1076.82	3236
1079.15	3203
1081.48	3210
1083.814	3252
1086.143	3166
1088.471	3189
1090.799	3153
1093.126	3189
1095.452	3179
1097.78	3215
1100.105	3225
1102.43	3201
1104.754	3127
1107.077	3213
1109.4	3176
1111.722	3203
1114.044	3210
1116.365	3197
1118.685	3221
1121.005	3191
1123.324	3249
1125.643	3292
1127.961	3205
1130.278	3348
1132.595	3171
1134.911	3230
1137.226	3184
1139.541	3242
1141.854	3227
1144.167	3276
1146.482	3314
1148.793	3108
1151.105	3219
1153.414	3296
1155.725	3184
1158.033	3283
1160.344	3167
1162.651	3193
1164.959	3273
1167.265	3230
1169.572	3230
1171.878	3187
1174.184	3223
1176.488	3208
1178.79	3287
1181.094	3198
1183.396	3238
1185.699	3198
1188.001	3149
1190.301	3213
1192.6	3250
1194.9	3291
1197.2	3152
1199.497	3232
1201.794	3193
1204.09	3210
1206.387	3234
1208.684	3211
1210.978	3203
1213.272	3271
1215.565	3282
1217.858	3200
1220.15	3281
1222.443	3299
1224.734	3257
1227.024	3289
1229.313	3215
1231.602	3312
1233.892	3299
1236.18	3310
1238.467	3312
1240.754	3308
1243.04	3388
1245.325	3400
1247.612	3333
1249.896	3386
1252.178	3352
1254.461	3385
1256.743	3440
1259.027	3332
1261.308	3392
1263.587	3387
1265.867	3403
1268.146	3390
1270.425	3410
1272.703	3351
1274.981	3395
1277.256	3437
1279.532	3366
1281.808	3406
1284.083	3266
1286.358	3340
1288.63	3297
1290.904	3304
1293.175	3320
1295.449	3351
1297.719	3334
1299.99	3295
1302.259	3337
1304.529	3270
1306.798	3294
1309.065	3240
1311.333	3331
1313.599	3292
1315.866	3318
1318.131	3318
1320.396	3311
1322.66	3278
1324.925	3413
1327.187	3360
1329.448	3355
1331.711	3317
1333.974	3388
1336.234	3334
1338.493	3414
1340.752	3422
1343.01	3340
1345.269	3353
1347.526	3331
1349.784	3403
1352.04	3290
1354.295	3361
1356.552	3306
1358.806	3346
1361.059	3366
1363.312	3414
1365.564	3290
1367.818	3366
1370.069	3340
1372.318	3349
1374.568	3326
1376.817	3384
1379.066	3335
1381.316	3400
1383.564	3373
1385.809	3338
1388.056	3357
1390.301	3413
1392.549	3410
1394.793	3468
1397.036	3469
1399.279	3391
1401.522	3469
1403.763	3467
1406.007	3457
1408.248	3462
1410.487	3380
1412.727	3472
1414.965	3417
1417.205	3398
1419.442	3444
1421.68	3428
1423.915	3418
1426.152	3401
1428.388	3471
1430.623	3519
1432.857	3447
1435.091	3472
1437.323	3481
1439.556	3488
1441.789	3448
1444.019	3527
1446.25	3520
1448.48	3520
1450.708	3441
1452.938	3533
1455.167	3566
1457.394	3477
1459.62	3536
1461.846	3503
1464.073	3549
1466.299	3550
1468.523	3552
1470.746	3455
1472.969	3476
1475.191	3398
1477.415	3451
1479.636	3436
1481.858	3424
1484.078	3356
1486.298	3311
1488.518	3401
1490.736	3459
1492.954	3322
1495.169	3441
1497.386	3311
1499.602	3317
1501.819	3359
1504.034	3370
1506.248	3403
1508.462	3345
1510.675	3407
1512.888	3312
1515.1	3336
1517.311	3341
1519.522	3487
1521.732	3424
1523.942	3367
1526.151	3321
1528.36	3365
1530.566	3329
1532.773	3367
1534.98	3382
1537.187	3385
1539.392	3430
1541.596	3359
1543.801	3391
1546.005	3376
1548.208	3396
1550.411	3364
1552.612	3425
1554.814	3445
1557.013	3367
1559.212	3428
1561.414	3402
1563.612	3488
1565.811	3350
1568.007	3389
1570.203	3468
1572.403	3298
1574.598	3457
1576.792	3433
1578.988	3488
1581.181	3441
1583.376	3423
1585.568	3380
1587.761	3475
1589.952	3463
1592.143	3513
1594.333	3485
1596.524	3455
1598.715	3492
1600.903	3465
1603.091	3509
1605.278	3516
1607.466	3497
1609.652	3561
1611.838	3467
1614.023	3502
1616.207	3496
1618.391	3508
1620.576	3517
1622.759	3543
1624.941	3458
1627.123	3510
1629.304	3493
1631.484	3515
1633.664	3517
1635.844	3557
1638.022	3638
1640.201	3509
1642.38	3589
1644.556	3473
1646.732	3513
1648.908	3511
1651.084	3593
1653.257	3521
1655.433	3533
1657.607	3574
1659.779	3524
1661.951	3505
1664.122	3619
1666.295	3562
1668.467	3451
1670.635	3640
1672.805	3567
1674.973	3467
1677.142	3528
1679.31	3568
1681.478	3491
1683.644	3560
1685.81	3552
1687.975	3485
1690.142	3567
1692.305	3494
1694.468	3561
1696.632	3543
1698.794	3563
1700.957	3492
1703.119	3454
1705.279	3512
1707.439	3455
1709.598	3533
1711.758	3472
1713.917	3466
1716.075	3495
1718.231	3565
1720.388	3527
1722.543	3542
1724.702	3429
1726.856	3487
1729.01	3503
1731.164	3444
1733.317	3528
1735.471	3517
1737.623	3537
1739.774	3498
1741.925	3458
1744.075	3512
1746.225	3447
1748.376	3524
1750.524	3495
1752.672	3441
1754.82	3517
1756.965	3513
1759.113	3465
1761.259	3607
1763.405	3509
1765.549	3518
1767.694	3527
1769.836	3562
1771.981	3456
1774.123	3432
1776.264	3507
1778.405	3478
1780.546	3540
1782.687	3427
1784.827	3572
1786.966	3457
1789.103	3554
1791.242	3576
1793.381	3525
1795.517	3501
1797.653	3526
1799.788	3588
1801.923	3540
1804.057	3500
1806.193	3555
1808.326	3571
1810.457	3514
1812.59	3587
1814.721	3538
1816.855	3560
1818.984	3522
1821.113	3494
1823.244	3520
1825.372	3516
1827.499	3518
1829.63	3469
1831.756	3532
1833.882	3536
1836.007	3530
1838.132	3541
1840.26	3562
1842.384	3548
1844.507	3541
1846.63	3563
1848.752	3498
1850.875	3552
1852.996	3547
1855.118	3499
1857.238	3532
1859.358	3445
1861.477	3548
1863.597	3505
1865.715	3498
1867.832	3491
1869.948	3503
1872.064	3489
1874.181	3483
1876.297	3477
1878.411	3585
1880.526	3431
1882.639	3544
1884.752	3513
1886.865	3542
1888.977	3498
1891.089	3506
1893.2	3494
1895.308	3490
1897.42	3499
1899.53	3518
1901.639	3504
1903.745	3578
1905.853	3482
1907.962	3591
1910.067	3532
1912.174	3605
1914.278	3562
1916.383	3601
1918.486	3574
1920.592	3622
1922.694	3559
1924.797	3626
1926.898	3566
1929	3609
1931.102	3530
1933.203	3573
1935.301	3537
1937.401	3583
1939.499	3587
1941.598	3600
1943.697	3622
1945.793	3514
1947.888	3587
1949.985	3591
1952.08	3597
1954.176	3566
1956.269	3566
1958.364	3568
1960.457	3530
1962.549	3547
1964.642	3545
1966.733	3572
1968.823	3595
1970.913	3554
1973.005	3537
1975.093	3567
1977.184	3625
1979.271	3521
1981.359	3563
1983.446	3548
1985.532	3548
1987.619	3537
1989.705	3556
1991.789	3499
1993.874	3634
1995.956	3528
1998.041	3582
2000.123	3548
2002.206	3494
2004.287	3596
2006.368	3576
2008.449	3530
2010.529	3543
2012.609	3476
2014.688	3583
2016.766	3512
2018.843	3552
2020.922	3531
2022.999	3538
2025.074	3535
2027.15	3574
2029.225	3524
2031.299	3576
2033.375	3511
2035.447	3551
2037.52	3534
2039.592	3597
2041.664	3591
2043.736	3511
2045.807	3484
2047.876	3561
2049.947	3564
2052.015	3530
2054.086	3544
2056.153	3565
2058.221	3526
2060.288	3646
2062.353	3508
2064.42	3511
2066.486	3532
2068.55	3560
2070.614	3582
2072.678	3538
2074.741	3654
2076.805	3544
2078.866	3603
2080.929	3547
2082.99	3536
2085.049	3590
2087.109	3482
2089.17	3582
2091.228	3591
2093.286	3592
2095.344	3507
2097.4	3564
2099.46	3514
2101.516	3527
2103.572	3561
2105.626	3505
2107.679	3547
2109.735	3566
2111.788	3605
2113.841	3554
2115.894	3568
2117.945	3656
2119.997	3559
2122.049	3619
2124.1	3611
2126.148	3530
2128.197	3554
2130.246	3527
2132.296	3483
2134.342	3624
2136.39	3553
2138.437	3630
2140.483	3530
2142.527	3555
2144.574	3535
2146.619	3546
2148.661	3524
2150.705	3572
2152.747	3456
2154.792	3543
2156.832	3571
2158.874	3519
2160.915	3634
2162.954	3583
2164.995	3594
2167.034	3567
2169.072	3590
2171.111	3594
2173.148	3566
2175.186	3563
2177.223	3598
2179.258	3537
2181.294	3494
2183.328	3558
2185.362	3562
2187.398	3482
2189.431	3571
2191.463	3498
2193.495	3501
2195.528	3547
2197.56	3504
2199.59	3524
2201.62	3402
2203.649	3513
2205.678	3500
2207.708	3498
2209.737	3492
2211.764	3544
2213.791	3549
2215.817	3476
2217.843	3487
2219.87	3535
2221.895	3516
2223.919	3463
2225.942	3485
2227.966	3492
2229.988	3471
2232.012	3440
2234.032	3560
2236.054	3464
2238.074	3489
2240.095	3515
2242.116	3424
2244.135	3456
2246.153	3452
2248.171	3463
2250.188	3525
2252.208	3539
2254.223	3572
2256.239	3571
2258.255	3502
2260.269	3504
2262.283	3530
2264.3	3478
2266.312	3487
2268.325	3448
2270.336	3526
2272.349	3521
2274.362	3491
2276.372	3481
2278.383	3470
2280.392	3450
2282.402	3461
2284.409	3462
2286.418	3439
2288.427	3538
2290.433	3417
2292.441	3482
2294.446	3603
2296.453	3453
2298.459	3408
2300.463	3459
2302.466	3480
2304.471	3431
2306.475	3410
2308.477	3519
2310.478	3389
2312.481	3507
2314.481	3497
2316.481	3488
2318.482	3465
2320.482	3408
2322.48	3442
2324.48	3432
2326.478	3485
2328.476	3466
2330.473	3523
2332.469	3474
2334.465	3543
2336.46	3367
2338.454	3466
2340.45	3514
2342.444	3453
2344.437	3481
2346.43	3515
2348.421	3430
2350.414	3501
2352.405	3366
2354.396	3507
2356.386	3437
2358.376	3416
2360.366	3512
2362.355	3505
2364.343	3428
2366.331	3378
2368.317	3429
2370.304	3530
2372.292	3435
2374.278	3421
2376.262	3500
2378.247	3425
2380.23	3468
2382.216	3396
2384.199	3409
2386.181	3447
2388.163	3441
2390.144	3349
2392.127	3422
2394.107	3394
2396.087	3367
2398.066	3345
2400.046	3394
2402.023	3368
2404.004	3441
2405.981	3399
2407.957	3412
2409.934	3398
2411.91	3409
2413.886	3458
2415.862	3400
2417.836	3417
2419.809	3404
2421.784	3393
2423.756	3405
2425.73	3444
2427.701	3337
2429.672	3331
2431.644	3422
2433.615	3391
2435.586	3386
2437.555	3403
2439.523	3429
2441.491	3499
2443.459	3465
2445.428	3336
2447.395	3349
2449.361	3404
2451.327	3348
2453.292	3338
2455.257	3295
2457.223	3359
2459.187	3347
2461.15	3427
2463.113	3343
2465.076	3436
2467.039	3352
2468.999	3443
2470.96	3349
2472.921	3314
2474.881	3385
2476.841	3332
2478.8	3356
2480.759	3436
2482.717	3311
2484.675	3443
2486.63	3334
2488.589	3346
2490.545	3379
2492.5	3360
2494.455	3368
2496.408	3291
2498.364	3388
2500.318	3371
2502.27	3335
2504.223	3323
2506.174	3363
2508.126	3371
2510.078	3272
2512.03	3350
2513.979	3405
2515.927	3374
2517.877	3322
2519.826	3355
2521.775	3285
2523.722	3355
2525.668	3282
2527.616	3327
2529.561	3276
2531.508	3347
2533.452	3310
2535.398	3407
2537.342	3351
2539.284	3337
2541.229	3347
2543.173	3408
2545.114	3351
2547.055	3341
2548.996	3367
2550.938	3266
2552.878	3327
2554.817	3372
2556.756	3351
2558.695	3350
2560.633	3322
2562.572	3351
2564.509	3369
2566.445	3348
2568.382	3322
2570.317	3348
2572.254	3245
2574.189	3324
2576.123	3362
2578.057	3273
2579.99	3343
2581.923	3308
2583.855	3344
2585.788	3386
2587.719	3339
2589.65	3346
2591.579	3356
2593.511	3348
2595.44	3365
2597.37	3332
2599.297	3365
2601.225	3390
2603.153	3317
2605.08	3342
2607.007	3416
2608.932	3295
2610.858	3349
2612.782	3379
2614.709	3358
2616.632	3339
2618.556	3364
2620.478	3360
2622.401	3405
2624.324	3439
2626.247	3383
2628.167	3313
2630.088	3412
2632.008	3461
2633.928	3414
2635.848	3379
2637.766	3342
2639.684	3410
2641.603	3317
2643.519	3352
2645.437	3380
2647.353	3384
2649.27	3350
2651.184	3371
2653.099	3286
2655.014	3259
2656.928	3403
2658.842	3397
2660.755	3406
2662.667	3453
2664.579	3389
2666.491	3370
2668.402	3360
2670.312	3308
2672.222	3360
2674.132	3302
2676.042	3325
2677.951	3321
2679.859	3341
2681.766	3361
2683.674	3278
2685.582	3343
2687.488	3314
2689.392	3327
2691.298	3304
2693.202	3323
2695.107	3406
2697.012	3367
2698.914	3365
2700.817	3282
2702.72	3376
2704.622	3342
2706.524	3374
2708.425	3305
2710.326	3265
2712.225	3397
2714.125	3290
2716.024	3328
2717.923	3264
2719.822	3338
2721.719	3266
2723.616	3286
2725.512	3369
2727.41	3283
2729.305	3377
2731.201	3241
2733.095	3293
2734.99	3268
2736.884	3302
2738.778	3343
2740.67	3289
2742.562	3316
2744.455	3292
2746.346	3364
2748.238	3276
2750.129	3350
2752.018	3280
2753.907	3331
2755.797	3291
2757.687	3368
2759.575	3318
2761.462	3294
2763.349	3224
2765.237	3236
2767.124	3348
2769.009	3299
2770.894	3287
2772.779	3263
2774.663	3303
2776.547	3302
2778.431	3257
2780.314	3315
2782.197	3229
2784.078	3216
2785.96	3266
2787.842	3328
2789.723	3242
2791.603	3308
2793.483	3283
2795.362	3290
2797.241	3333
2799.121	3294
2800.997	3279
2802.874	3263
2804.751	3327
2806.628	3288
2808.506	3288
2810.38	3240
2812.255	3259
2814.13	3246
2816.003	3284
2817.878	3284
2819.752	3233
2821.623	3334
2823.496	3328
2825.368	3340
2827.238	3187
2829.111	3306
2830.98	3267
2832.851	3210
2834.719	3336
2836.589	3274
2838.458	3282
2840.327	3273
2842.193	3271
2844.061	3261
2845.927	3300
2847.794	3278
2849.66	3306
2851.525	3314
2853.39	3357
2855.254	3314
2857.117	3380
2858.983	3364
2860.845	3424
2862.707	3420
2864.569	3418
2866.431	3397
2868.293	3440
2870.154	3373
2872.013	3438
2873.873	3503
2875.733	3450
2877.592	3471
2879.451	3523
2881.309	3478
2883.166	3574
2885.022	3687
2886.879	3643
2888.736	3609
2890.591	3621
2892.446	3718
2894.301	3701
2896.155	3710
2898.009	3610
2899.863	3602
2901.716	3645
2903.568	3590
2905.419	3621
2907.27	3589
2909.123	3609
2910.973	3573
2912.824	3518
2914.673	3612
2916.521	3627
2918.372	3687
2920.22	3691
2922.067	3660
2923.914	3683
2925.761	3756
2927.607	3726
2929.455	3662
2931.301	3812
2933.144	3772
2934.99	3778
2936.833	3784
2938.678	3912
2940.522	3762
2942.364	3894
2944.207	3939
2946.048	4030
2947.891	3964
2949.731	3959
2951.571	3971
2953.412	4063
2955.25	3989
2957.09	3972
2958.93	3851
2960.767	3993
2962.606	3987
2964.443	3864
2966.279	3928
2968.116	3857
2969.953	3763
2971.788	3796
2973.623	3642
2975.457	3726
2977.292	3655
2979.127	3688
2980.959	3572
2982.792	3597
2984.624	3551
2986.455	3570
2988.288	3560
2990.119	3427
2991.949	3441
2993.779	3439
2995.608	3448
2997.439	3421
2999.268	3471
3001.096	3331
3002.923	3389
3004.751	3335
3006.578	3368
3008.406	3328
3010.232	3274
3012.057	3302
3013.883	3167
3015.706	3196
3017.532	3209
3019.356	3243
3021.179	3126
3023.002	3205
3024.823	3088
3026.646	3195
3028.469	3124
3030.289	3095
3032.11	3153
3033.93	3114
3035.749	3150
3037.57	3163
3039.39	3185
3041.207	3201
3043.026	3153
3044.842	3140
3046.661	3164
3048.477	3144
3050.294	3168
3052.109	3112
3053.925	3123
3055.739	3125
3057.555	3096
3059.368	3106
3061.181	3179
3062.995	3065
3064.807	3135
3066.62	3107
3068.433	3109
3070.243	3117
3072.054	3105
3073.865	3140
3075.675	3099
3077.485	3097
3079.293	3148
3081.102	3051
3082.911	3108
3084.719	3098
3086.527	3141
3088.333	3048
3090.139	3088
3091.945	3076
3093.75	3072
3095.557	3032
3097.361	3101
3099.165	3095
3100.969	3030
3102.772	2988
3104.575	3055
3106.379	3070
3108.181	3037
3109.982	3031
3111.783	2999
3113.584	3057
3115.386	2999
3117.186	3116
3118.985	3036
3120.783	3116
3122.582	3052
3124.381	3115
3126.179	3112
3127.975	2992
3129.772	2977
3131.569	3011
3133.365	3021
3135.161	3001
3136.956	2949
3138.751	3022
3140.544	3001
3142.338	3064
3144.132	2981
3145.925	2997
3147.717	3041
3149.509	2957
3151.301	3014
3153.091	2955
3154.884	3002
3156.673	2989
3158.462	3034
3160.252	3072
3162.041	2979
3163.831	2939
3165.618	2980
3167.405	3005
3169.193	2970
3170.979	2981
3172.767	2930
3174.553	2961
3176.338	3001
3178.123	2982
3179.907	2902
3181.692	2988
3183.477	2961
3185.259	2994
3187.042	2917
3188.824	2947
3190.607	2918
3192.389	2931
3194.17	2976
3195.951	2969
3197.73	2970
3199.51	2926
3201.289	2918
3203.07	3033
3204.848	2930
3206.626	2888
3208.403	3005
3210.18	2964
3211.959	2958
3213.735	2965
3215.511	3002
3217.285	2961
3219.06	2942
3220.836	2973
3222.611	2946
3224.384	2938
3226.158	2980
3227.929	2881
3229.702	2994
3231.476	2909
3233.248	2976
3235.018	2988
3236.789	2935
3238.56	2974
3240.33	2872
3242.1	3009
3243.869	2943
3245.637	2929
3247.405	2950
3249.172	2950
3250.941	2941
3252.707	2885
3254.474	2951
3256.24	2906
3258.006	2866
3259.772	2866
3261.537	2907
3263.301	2983
3265.065	2954
3266.828	2942
3268.592	3003
3270.355	2846
3272.117	2920
3273.878	2985
3275.64	2955
3277.401	2950
3279.162	2936
3280.922	2946
3282.682	2922
3284.441	3012
3286.199	2917
3287.959	2941
3289.716	2918
3291.475	3006
3293.232	2878
3294.988	2945
3296.744	2959
3298.501	3022
3300.256	2906
3302.011	2983
3303.766	2902
3305.52	2906
3307.275	3009
3309.028	2888
3310.781	2928
3312.533	2846
3314.285	2897
3316.038	2985
3317.789	2875
3319.54	2881
3321.289	2855
3323.039	2921
3324.789	2871
3326.539	2916
3328.288	2917
3330.035	2980
3331.783	2959
3333.531	2855
3335.28	2906
3337.025	2881
3338.771	2864
3340.518	2938
3342.262	2869
3344.009	2878
3345.753	2885
3347.497	2886
3349.24	2946
3350.983	2846
3352.726	2858
3354.469	2931
3356.212	2865
3357.952	2885
3359.694	2914
3361.434	2884
3363.176	2889
3364.916	2847
3366.654	2807
3368.394	2888
3370.132	2823
3371.871	2842
3373.61	2898
3375.346	2759
3377.083	2948
3378.82	2856
3380.556	2841
3382.292	2882
3384.027	2874
3385.763	2819
3387.497	2830
3389.231	2872
3390.965	2806
3392.698	2875
3394.431	2890
3396.164	2871
3397.896	2792
3399.627	2854
3401.36	2866
3403.09	2848
3404.82	2843
3406.55	2863
3408.279	2821
3410.01	2832
3411.738	2803
3413.467	2752
3415.194	2812
3416.92	2782
3418.647	2824
3420.375	2885
3422.102	2829
3423.827	2816
3425.553	2747
3427.277	2853
3429.003	2744
3430.727	2749
3432.451	2753
3434.173	2768
3435.896	2761
3437.62	2742
3439.343	2791
3441.063	2822
3442.785	2802
3444.505	2705
3446.226	2746
3447.948	2745
3449.666	2769
3451.386	2766
3453.104	2721
3454.823	2821
3456.541	2814
3458.259	2771
3459.976	2759
3461.693	2739
3463.408	2712
3465.125	2744
3466.841	2693
3468.556	2741
3470.271	2722
3471.985	2725
3473.698	2645
3475.414	2730
3477.126	2686
3478.838	2681
3480.55	2693
3482.263	2724
3483.975	2621
3485.686	2659
3487.396	2650
3489.106	2615
3490.817	2708
3492.526	2617
3494.236	2707
3495.944	2649
3497.652	2674
3499.359	2630
3501.066	2683
3502.775	2654
3504.481	2652
3506.187	2624
3507.893	2616
3509.598	2665
3511.304	2664
3513.009	2617
3514.713	2682
3516.417	2620
3518.12	2588
3519.821	2620
3521.525	2566
3523.228	2645
3524.929	2600
3526.631	2568
3528.33	2682
3530.032	2668
3531.733	2620
3533.433	2669
3535.131	2582
3536.83	2614
3538.529	2580
3540.227	2570
3541.925	2538
3543.623	2546
3545.319	2584
3547.016	2583
3548.712	2649
3550.408	2561
3552.103	2601
3553.798	2584
3555.491	2552
3557.188	2643
3558.88	2593
3560.574	2552
3562.266	2611
3563.959	2582
3565.651	2569
3567.343	2614
3569.035	2518
3570.725	2584
3572.415	2551
3574.106	2553
3575.797	2543
3577.485	2529
3579.174	2495
3580.863	2577
3582.551	2534
3584.238	2612
3585.926	2523
3587.613	2487
3589.3	2522
3590.986	2492
3592.671	2466
3594.357	2528
3596.042	2466
3597.726	2481
3599.41	2536
3601.094	2478
3602.778	2469
3604.461	2515
3606.143	2519
3607.825	2515
3609.507	2547
3611.188	2433
3612.87	2434
3614.551	2571
3616.229	2515
3617.909	2496
3619.589	2419
3621.269	2458
3622.948	2401
3624.625	2497
3626.302	2439
3627.98	2456
3629.657	2500
3631.334	2408
3633.01	2415
3634.686	2496
3636.361	2405
3638.036	2431
3639.712	2420
3641.385	2419
3643.06	2501
3644.732	2497
3646.405	2414
3648.08	2420
3649.751	2404
3651.424	2427
3653.094	2395
3654.766	2440
3656.436	2431
3658.106	2372
3659.777	2494
3661.446	2475
3663.115	2437
3664.783	2476
3666.452	2366
3668.121	2428
3669.788	2424
3671.454	2319
3673.121	2377
3674.789	2375
3676.455	2424
3678.12	2435
3679.784	2410
3681.45	2391
3683.114	2363
3684.779	2324
3686.442	2335
3688.105	2361
3689.768	2446
3691.43	2375
3693.093	2405
3694.754	2371
3696.415	2331
3698.076	2381
3699.736	2371
3701.396	2377
3703.057	2334
3704.716	2352
3706.375	2326
3708.034	2350
3709.692	2364
3711.351	2301
3713.008	2335
3714.665	2297
3716.321	2331
3717.977	2335
3719.634	2311
3721.29	2401
3722.945	2363
3724.598	2385
3726.253	2287
3727.907	2382
3729.561	2351
3731.214	2374
3732.867	2314
3734.518	2403
3736.171	2314
3737.824	2354
3739.474	2342
3741.125	2277
3742.775	2318
3744.425	2347
3746.074	2271
3747.725	2297
3749.373	2331
3751.022	2279
3752.669	2268
3754.318	2294
3755.966	2312
3757.612	2366
3759.259	2271
3760.905	2333
3762.55	2263
3764.197	2260
3765.842	2393
3767.486	2323
3769.131	2278
3770.774	2292
3772.417	2286
3774.061	2279
3775.705	2200
3777.347	2244
3778.988	2260
3780.629	2295
3782.271	2253
3783.912	2231
3785.552	2266
3787.192	2301
3788.831	2238
3790.472	2257
3792.112	2281
3793.75	2237
3795.388	2314
3797.024	2284
3798.661	2306
3800.3	2265
3801.936	2224
3803.572	2249
3805.208	2226
3806.844	2202
3808.48	2235
3810.115	2215
3811.748	2209
3813.382	2242
3815.016	2173
3816.649	2251
3818.283	2224
3819.914	2233
3821.547	2245
3823.178	2188
3824.809	2167
3826.441	2156
3828.072	2243
3829.701	2250
3831.331	2185
3832.96	2235
3834.591	2149
3836.219	2237
3837.847	2170
3839.475	2194
3841.102	2276
3842.729	2160
3844.357	2221
3845.984	2220
3847.609	2201
3849.234	2225
3850.86	2236
3852.485	2209
3854.11	2220
3855.734	2223
3857.357	2173
3858.981	2156
3860.603	2172
3862.227	2210
3863.848	2150
3865.471	2180
3867.092	2232
3868.713	2160
3870.334	2216
3871.954	2165
3873.575	2158
3875.194	2145
3876.813	2239
3878.433	2145
3880.051	2191
3881.669	2189
3883.286	2153
3884.904	2188
3886.52	2197
3888.138	2158
3889.754	2180
3891.37	2204
3892.985	2192
3894.6	2188
3896.216	2144
3897.831	2105
3899.444	2116
3901.058	2148
3902.67	2117
3904.283	2162
3905.897	2146
3907.509	2105
3909.121	2155
3910.731	2121
3912.342	2120
3913.954	2180
3915.563	2179
3917.174	2161
3918.783	2103
3920.391	2196
3922.002	2181
3923.611	2205
3925.218	2105
3926.826	2237
3928.432	2081
3930.039	2137
3931.647	2181
3933.253	2133
3934.859	2183
3936.464	2120
3938.068	2159
3939.675	2124
3941.278	2162
3942.883	2160
3944.486	2098
3946.089	2120
3947.692	2093
3949.295	2136
3950.898	2027
3952.499	2088
3954.1	2091
3955.7	2096
3957.303	2126
3958.903	2145
3960.502	2127
3962.101	2154
3963.7	2090
3965.301	2119
3966.899	2091
3968.497	2113
3970.094	2097
3971.691	2045
3973.288	2097
3974.885	2109
3976.481	2039
3978.077	2090
3979.672	2028
3981.267	2077
3982.863	2055
3984.457	2100
3986.051	2076
3987.645	2056
3989.238	2133
3990.831	2070
3992.425	2038
3994.017	2035
3995.607	2061
3997.199	2107
3998.79	2047
4000.382	2031
4001.973	2094
4003.561	2028
4005.151	2044
4006.741	2011
4008.331	2085
4009.918	2039
4011.507	2051
4013.095	2022
4014.681	2029
4016.269	2036
4017.856	2009
4019.443	2051
4021.028	1994
4022.614	1954
4024.199	2025
4025.785	2008
4027.37	2054
4028.953	2020
4030.536	2009
4032.12	1973
4033.704	1967
4035.287	1974
4036.869	2005
4038.45	1997
4040.032	1971
4041.613	1993
4043.195	1995
4044.776	2031
4046.356	2003
4047.935	1986
4049.515	2005
4051.095	1926
4052.674	2022
4054.251	1961
4055.829	1961
4057.406	1995
4058.985	2019
4060.562	1991
4062.139	1923
4063.715	1947
4065.29	1986
4066.865	1981
4068.442	1952
4070.016	2003
4071.59	1947
4073.164	2020
4074.738	1913
4076.312	1956
4077.885	1916
4079.458	1921
4081.03	1938
4082.602	1962
4084.173	1971
4085.745	1999
4087.315	1996
4088.886	1967
4090.456	1974
4092.026	1928
4093.596	1935
4095.165	1895
4096.734	1884
4098.301	1952
4099.869	1940
4101.437	1941
4103.006	1920
4104.572	1956
4106.139	1963
4107.704	1980
4109.27	1945
4110.837	1907
4112.401	1933
4113.966	1904
4115.53	1929
4117.094	1940
4118.659	1879
4120.223	1897
4121.785	1918
4123.347	1905
4124.909	1948
4126.471	1880
4128.034	1903
4129.595	1940
4131.155	1900
4132.716	1872
4134.275	1901
4135.836	1896
4137.395	1857
4138.955	1951
4140.513	1881
4142.071	1907
4143.628	1857
4145.188	1922
4146.745	1920
4148.302	1890
4149.858	1894
4151.414	1924
4152.971	1860
4154.526	1865
4156.081	1844
4157.635	1901
4159.189	1866
4160.745	1858
4162.298	1858
4163.852	1806
4165.405	1838
4166.957	1895
4168.51	1907
4170.063	1905
4171.614	1888
4173.166	1902
4174.717	1857
4176.267	1861
4177.817	1806
4179.368	1811
4180.917	1869
4182.466	1875
4184.016	1871
4185.564	1851
4187.112	1809
4188.66	1807
4190.207	1832
4191.754	1860
4193.301	1801
4194.848	1846
4196.394	1813
4197.94	1894
4199.484	1795
4201.03	1765
4202.575	1811
4204.12	1779
4205.663	1815
4207.207	1768
4208.75	1826
4210.292	1799
4211.836	1761
4213.378	1843
4214.92	1792
4216.46	1806
4218.002	1792
4219.544	1815
4221.083	1796
4222.625	1783
4224.164	1758
4225.703	1834
4227.244	1792
4228.782	1784
4230.32	1800
4231.857	1766
4233.395	1808
4234.933	1743
4236.471	1847
4238.007	1806
4239.542	1793
4241.078	1820
4242.614	1774
4244.15	1753
4245.685	1756
4247.219	1817
4248.753	1787
4250.287	1803
4251.82	1829
4253.354	1817
4254.887	1803
4256.419	1771
4257.951	1757
4259.483	1777
4261.016	1778
4262.547	1792
4264.078	1747
4265.608	1815
4267.137	1744
4268.668	1779
4270.197	1768
4271.727	1794
4273.254	1730
4274.783	1750
4276.311	1758
4277.84	1795
4279.366	1780
4280.894	1727
4282.42	1772
4283.946	1805
4285.473	1743
4286.998	1721
4288.523	1783
4290.047	1756
4291.572	1775
4293.096	1758
4294.622	1767
4296.144	1750
4297.668	1789
4299.19	1751
4300.713	1751
4302.236	1742
4303.758	1727
4305.279	1760
4306.799	1710
4308.321	1693
4309.842	1710
4311.361	1713
4312.882	1690
4314.401	1708
