400.0961	3668
402.6185	3801
405.1424	3758
407.6635	3732
410.1838	3826
412.7035	3802
415.2225	3773
417.7388	3782
420.2585	3804
422.7754	3823
425.2917	3936
427.8072	3925
430.3221	4013
432.8363	3937
435.3498	3966
437.8626	3943
440.3727	3984
442.8841	3991
445.3969	3953
447.907	3924
450.4142	3997
452.9229	3976
455.4289	3881
457.9362	3922
460.4449	3915
462.9488	3881
465.454	3904
467.9566	3877
470.4604	3856
472.9637	3998
475.4662	4038
477.966	3972
480.4671	3875
482.9656	3941
485.4633	3931
487.9645	3955
490.4608	4030
492.9566	3964
495.4536	3993
497.948	4017
500.4437	4054
502.9387	4106
505.431	3977
507.9226	4030
510.4136	4177
512.9079	4044
515.3975	4014
517.8864	4113
520.3746	4022
522.8622	4000
525.3491	4035
527.8394	4065
530.3249	4066
532.8098	4056
535.2939	4013
537.7774	4082
540.2623	4127
542.7444	4023
545.2259	3989
547.7067	4097
550.1868	4189
552.6683	4047
555.147	4187
557.6231	4127
560.1005	4209
562.5773	4102
565.0534	4109
567.5308	4164
570.0056	4191
572.4776	4144
574.951	4163
577.4237	4198
579.8978	4250
582.3671	4334
584.8378	4213
587.3079	4311
589.7773	4250
592.244	4243
594.714	4308
597.1793	4232
599.6461	4208
602.1121	4368
604.5754	4242
607.0421	4344
609.5042	4198
611.9675	4270
614.4282	4338
616.8902	4276
619.3515	4224
621.8122	4243
624.2702	4220
626.7296	4216
629.1863	4256
631.6423	4181
634.1017	4189
636.5563	4163
639.0104	4235
641.4658	4170
643.9185	4201
646.3725	4299
648.8239	4196
651.2766	4230
653.7266	4205
656.176	4291
658.6247	4310
661.0748	4162
663.5242	4223
665.9709	4212
668.417	4293
670.8624	4362
673.3092	4319
675.7533	4236
678.1968	4355
680.6395	4349
683.0817	4335
685.5251	4347
687.9659	4267
690.4061	4398
692.8456	4314
695.2844	4373
697.7226	4460
700.1621	4364
702.599	4376
705.0332	4395
707.4688	4405
709.9036	4354
712.3399	4430
714.7735	4301
717.2044	4408
719.6367	4446
722.0683	4487
724.4993	4470
726.9296	4414
729.3593	4417
731.7883	4461
734.2147	4482
736.6423	4484
739.0714	4440
741.4958	4539
743.9216	4539
746.3447	4639
748.7691	4612
751.1929	4643
753.616	4572
756.0366	4610
758.4584	4620
760.8776	4678
763.2982	4573
765.718	4607
768.1373	4622
770.5539	4631
772.9698	4570
775.3871	4612
777.8038	4564
780.2178	4632
782.6332	4636
785.0459	4553
787.458	4704
789.8714	4659
792.2842	4643
794.6943	4662
797.1038	4669
799.5127	4638
801.9209	4695
804.3324	4734
806.7393	4623
809.1456	4667
811.5513	4753
813.9562	4718
816.3625	4731
818.7663	4736
821.1693	4725
823.5718	4687
825.9735	4766
828.3746	4760
830.7771	4673
833.177	4785
835.5762	4761
837.9747	4742
840.3727	4797
842.772	4853
845.1666	4809
847.5626	4772
849.958	4896
852.3527	4847
854.7488	4785
857.1403	4946
859.5331	4820
861.9253	4962
864.3168	4857
866.7057	4797
869.098	4778
871.4876	4794
873.8746	4813
876.263	4902
878.6487	4854
881.0378	4838
883.4243	4765
885.8081	4800
888.1933	4851
890.5759	4759
892.9598	4765
895.343	4851
897.7256	4831
900.1057	4746
902.4871	4811
904.8659	4988
907.246	4786
909.6254	4854
912.0023	4903
914.3786	5026
916.7562	4997
919.1331	5087
921.5074	5212
923.8831	5126
926.2562	5169
928.6287	5118
931.0005	5095
933.3757	5166
935.7462	5221
938.1162	5112
940.4855	5150
942.8542	5194
945.2242	5328
947.5916	5387
949.9584	5489
952.3266	5744
954.6921	6069
957.0571	6231
959.4233	6577
961.787	6489
964.15	6436
966.5125	6085
968.8742	5939
971.2354	5776
973.5959	5599
975.9559	5417
978.3151	5179
980.6738	5157
983.0338	5070
985.3912	5050
987.7461	5022
990.1022	4955
992.4578	4994
994.8127	4972
997.1689	4961
999.5207	5022
1001.874	5051
1004.226	5056
1006.576	4987
1008.929	5111
1011.28	4959
1013.628	4987
1015.977	5089
1018.324	5047
1020.674	5093
1023.019	5004
1025.366	5014
1027.713	5137
1030.056	5125
1032.399	5077
1034.746	5237
1037.087	5122
1039.431	5209
1041.771	5006
1044.113	5151
1046.454	5125
1048.793	5121
1051.133	5122
1053.471	5131
1055.807	5175
1058.146	5293
1060.483	5222
1062.818	5309
1065.153	5216
1067.489	5219
1069.822	5252
1072.156	5301
1074.488	5288
1076.82	5295
1079.15	5253
1081.48	5254
1083.814	5297
1086.143	5234
1088.471	5116
1090.799	5201
1093.126	5073
1095.452	5186
1097.78	5134
1100.105	5114
1102.43	5115
1104.754	5120
1107.077	5145
1109.4	5161
1111.722	5167
1114.044	5214
1116.365	5163
1118.685	5066
1121.005	5202
1123.324	5068
1125.643	5197
1127.961	5299
1130.278	5146
1132.595	5173
1134.911	5045
1137.226	5051
1139.541	5202
1141.854	5167
1144.167	5053
1146.482	5047
1148.793	5104
1151.105	5203
1153.414	5035
1155.725	5142
1158.033	5176
1160.344	5105
1162.651	5149
1164.959	5124
1167.265	5148
1169.572	5097
1171.878	5134
1174.184	5127
1176.488	5201
1178.79	5141
1181.094	5153
1183.396	5216
1185.699	5158
1188.001	5139
1190.301	5043
1192.6	5065
1194.9	5159
1197.2	5032
1199.497	5148
1201.794	5131
1204.09	5185
1206.387	5206
1208.684	5154
1210.978	5202
1213.272	5095
1215.565	5175
1217.858	5241
1220.15	5123
1222.443	5226
1224.734	5174
1227.024	5295
1229.313	5305
1231.602	5324
1233.892	5270
1236.18	5368
1238.467	5485
1240.754	5425
1243.04	5412
1245.325	5429
1247.612	5379
1249.896	5473
1252.178	5520
1254.461	5514
1256.743	5395
1259.027	5393
1261.308	5484
1263.587	5469
1265.867	5285
1268.146	5398
1270.425	5461
1272.703	5377
1274.981	5377
1277.256	5484
1279.532	5472
1281.808	5290
1284.083	5414
1286.358	5363
1288.63	5392
1290.904	5305
1293.175	5314
1295.449	5269
1297.719	5220
1299.99	5323
1302.259	5319
1304.529	5215
1306.798	5367
1309.065	5249
1311.333	5271
1313.599	5297
1315.866	5372
1318.131	5349
1320.396	5356
1322.66	5352
1324.925	5278
1327.187	5296
1329.448	5297
1331.711	5293
1333.974	5319
1336.234	5356
1338.493	5297
1340.752	5231
1343.01	5306
1345.269	5281
1347.526	5230
1349.784	5266
1352.04	5197
1354.295	5263
1356.552	5294
1358.806	5248
1361.059	5421
1363.312	5280
1365.564	5338
1367.818	5381
1370.069	5327
1372.318	5397
1374.568	5373
1376.817	5258
1379.066	5325
1381.316	5287
1383.564	5420
1385.809	5345
1388.056	5416
1390.301	5407
1392.549	5507
1394.793	5517
1397.036	5514
1399.279	5588
1401.522	5455
1403.763	5612
1406.007	5468
1408.248	5575
1410.487	5552
1412.727	5572
1414.965	5435
1417.205	5528
1419.442	5527
1421.68	5575
1423.915	5534
1426.152	5522
1428.388	5542
1430.623	5546
1432.857	5537
1435.091	5654
1437.323	5709
1439.556	5605
1441.789	5564
1444.019	5632
1446.25	5589
1448.48	5691
1450.708	5736
1452.938	5741
1455.167	5770
1457.394	5780
1459.62	5701
1461.846	5586
1464.073	5691
1466.299	5490
1468.523	5590
1470.746	5637
1472.969	5509
1475.191	5553
1477.415	5517
1479.636	5442
1481.858	5458
1484.078	5401
1486.298	5258
1488.518	5445
1490.736	5349
1492.954	5459
1495.169	5251
1497.386	5241
1499.602	5410
1501.819	5380
1504.034	5352
1506.248	5302
1508.462	5300
1510.675	5278
1512.888	5346
1515.1	5325
1517.311	5369
1519.522	5282
1521.732	5336
1523.942	5414
1526.151	5271
1528.36	5221
1530.566	5375
1532.773	5322
1534.98	5329
1537.187	5314
1539.392	5319
1541.596	5385
1543.801	5264
1546.005	5372
1548.208	5377
1550.411	5356
1552.612	5391
1554.814	5398
1557.013	5368
1559.212	5333
1561.414	5328
1563.612	5381
1565.811	5337
1568.007	5389
1570.203	5434
1572.403	5312
1574.598	5449
1576.792	5548
1578.988	5491
1581.181	5455
1583.376	5398
1585.568	5547
1587.761	5495
1589.952	5558
1592.143	5500
1594.333	5440
1596.524	5433
1598.715	5555
1600.903	5539
1603.091	5503
1605.278	5500
1607.466	5405
1609.652	5503
1611.838	5524
1614.023	5497
1616.207	5564
1618.391	5509
1620.576	5488
1622.759	5541
1624.941	5581
1627.123	5577
1629.304	5649
1631.484	5632
1633.664	5633
1635.844	5587
1638.022	5614
1640.201	5600
1642.38	5625
1644.556	5636
1646.732	5632
1648.908	5449
1651.084	5699
1653.257	5676
1655.433	5671
1657.607	5658
1659.779	5641
1661.951	5620
1664.122	5770
1666.295	5660
1668.467	5644
1670.635	5742
1672.805	5730
1674.973	5738
1677.142	5681
1679.31	5590
1681.478	5694
1683.644	5667
1685.81	5679
1687.975	5582
1690.142	5708
1692.305	5566
1694.468	5617
1696.632	5497
1698.794	5574
1700.957	5460
1703.119	5495
1705.279	5523
1707.439	5512
1709.598	5436
1711.758	5471
1713.917	5527
1716.075	5515
1718.231	5405
1720.388	5505
1722.543	5473
1724.702	5529
1726.856	5441
1729.01	5439
1731.164	5498
1733.317	5470
1735.471	5495
1737.623	5501
1739.774	5453
1741.925	5566
1744.075	5432
1746.225	5478
1748.376	5377
1750.524	5600
1752.672	5564
1754.82	5449
1756.965	5550
1759.113	5569
1761.259	5533
1763.405	5474
1765.549	5537
1767.694	5429
1769.836	5479
1771.981	5518
1774.123	5487
1776.264	5528
1778.405	5519
1780.546	5448
1782.687	5547
1784.827	5554
1786.966	5602
1789.103	5557
1791.242	5543
1793.381	5457
1795.517	5506
1797.653	5496
1799.788	5523
1801.923	5461
1804.057	5616
1806.193	5441
1808.326	5507
1810.457	5570
1812.59	5410
1814.721	5493
1816.855	5412
1818.984	5433
1821.113	5528
1823.244	5560
1825.372	5489
1827.499	5493
1829.63	5473
1831.756	5487
1833.882	5484
1836.007	5541
1838.132	5472
1840.26	5504
1842.384	5500
1844.507	5589
1846.63	5428
1848.752	5550
1850.875	5500
1852.996	5450
1855.118	5416
1857.238	5416
1859.358	5426
1861.477	5515
1863.597	5348
1865.715	5468
1867.832	5535
1869.948	5497
1872.064	5401
1874.181	5486
1876.297	5434
1878.411	5377
1880.526	5496
1882.639	5562
1884.752	5443
1886.865	5450
1888.977	5504
1891.089	5452
1893.2	5471
1895.308	5457
1897.42	5500
1899.53	5544
1901.639	5526
1903.745	5560
1905.853	5494
1907.962	5394
1910.067	5514
1912.174	5496
1914.278	5593
1916.383	5501
1918.486	5417
1920.592	5512
1922.694	5445
1924.797	5508
1926.898	5515
1929	5590
1931.102	5492
1933.203	5505
1935.301	5601
1937.401	5553
1939.499	5478
1941.598	5589
1943.697	5584
1945.793	5470
1947.888	5512
1949.985	5549
1952.08	5534
1954.176	5521
1956.269	5460
1958.364	5494
1960.457	5668
1962.549	5581
1964.642	5458
1966.733	5523
1968.823	5586
1970.913	5578
1973.005	5497
1975.093	5431
1977.184	5592
1979.271	5616
1981.359	5528
1983.446	5459
1985.532	5516
1987.619	5478
1989.705	5637
1991.789	5585
1993.874	5485
1995.956	5468
1998.041	5592
2000.123	5542
2002.206	5398
2004.287	5562
2006.368	5457
2008.449	5493
2010.529	5558
2012.609	5538
2014.688	5529
2016.766	5536
2018.843	5479
2020.922	5454
2022.999	5545
2025.074	5522
2027.15	5491
2029.225	5441
2031.299	5448
2033.375	5559
2035.447	5534
2037.52	5486
2039.592	5473
2041.664	5544
2043.736	5537
2045.807	5457
2047.876	5573
2049.947	5508
2052.015	5487
2054.086	5519
2056.153	5390
2058.221	5446
2060.288	5625
2062.353	5483
2064.42	5488
2066.486	5453
2068.55	5523
2070.614	5449
2072.678	5435
2074.741	5533
2076.805	5516
2078.866	5519
2080.929	5408
2082.99	5476
2085.049	5503
2087.109	5482
2089.17	5530
2091.228	5574
2093.286	5549
2095.344	5404
2097.4	5506
2099.46	5559
2101.516	5563
2103.572	5539
2105.626	5553
2107.679	5477
2109.735	5545
2111.788	5518
2113.841	5512
2115.894	5544
2117.945	5423
2119.997	5479
2122.049	5480
2124.1	5401
2126.148	5451
2128.197	5486
2130.246	5460
2132.296	5425
2134.342	5506
2136.39	5393
2138.437	5550
2140.483	5540
2142.527	5531
2144.574	5518
2146.619	5524
2148.661	5579
2150.705	5438
2152.747	5479
2154.792	5530
2156.832	5454
2158.874	5473
2160.915	5525
2162.954	5439
2164.995	5345
2167.034	5514
2169.072	5516
2171.111	5375
2173.148	5380
2175.186	5413
2177.223	5431
2179.258	5425
2181.294	5412
2183.328	5471
2185.362	5404
2187.398	5422
2189.431	5398
2191.463	5393
2193.495	5484
2195.528	5344
2197.56	5352
2199.59	5307
2201.62	5422
2203.649	5261
2205.678	5350
2207.708	5363
2209.737	5398
2211.764	5404
2213.791	5400
2215.817	5476
2217.843	5409
2219.87	5383
2221.895	5343
2223.919	5339
2225.942	5451
2227.966	5327
2229.988	5335
2232.012	5331
2234.032	5407
2236.054	5406
2238.074	5357
2240.095	5401
2242.116	5357
2244.135	5471
2246.153	5405
2248.171	5430
2250.188	5457
2252.208	5383
2254.223	5356
2256.239	5309
2258.255	5382
2260.269	5321
2262.283	5417
2264.3	5369
2266.312	5232
2268.325	5395
2270.336	5320
2272.349	5315
2274.362	5367
2276.372	5447
2278.383	5422
2280.392	5361
2282.402	5335
2284.409	5278
2286.418	5423
2288.427	5342
2290.433	5391
2292.441	5394
2294.446	5310
2296.453	5380
2298.459	5366
2300.463	5358
2302.466	5376
2304.471	5352
2306.475	5307
2308.477	5453
2310.478	5251
2312.481	5330
2314.481	5362
2316.481	5417
2318.482	5411
2320.482	5256
2322.48	5282
2324.48	5354
2326.478	5291
2328.476	5348
2330.473	5352
2332.469	5325
2334.465	5341
2336.46	5319
2338.454	5200
2340.45	5171
2342.444	5332
2344.437	5380
2346.43	5288
2348.421	5417
2350.414	5303
2352.405	5294
2354.396	5289
2356.386	5253
2358.376	5327
2360.366	5256
2362.355	5286
2364.343	5145
2366.331	5176
2368.317	5186
2370.304	5120
2372.292	5252
2374.278	5209
2376.262	5190
2378.247	5207
2380.23	5198
2382.216	5238
2384.199	5255
2386.181	5142
2388.163	5208
2390.144	5159
2392.127	5267
2394.107	5152
2396.087	5213
2398.066	5144
2400.046	5210
2402.023	5147
2404.004	5166
2405.981	5181
2407.957	5117
2409.934	5261
2411.91	5167
2413.886	5163
2415.862	5150
2417.836	5197
2419.809	5151
2421.784	5149
2423.756	5078
2425.73	5192
2427.701	5203
2429.672	5253
2431.644	5186
2433.615	5154
2435.586	5166
2437.555	5256
2439.523	5187
2441.491	5067
2443.459	5203
2445.428	5126
2447.395	5113
2449.361	5230
2451.327	5245
2453.292	5140
2455.257	5113
2457.223	5111
2459.187	5124
2461.15	5228
2463.113	5080
2465.076	5074
2467.039	5172
2468.999	5168
2470.96	5026
2472.921	5082
2474.881	5089
2476.841	5199
2478.8	5090
2480.759	5138
2482.717	5064
2484.675	5027
2486.63	5094
2488.589	5121
2490.545	5150
2492.5	5158
2494.455	4990
2496.408	5140
2498.364	5127
2500.318	5066
2502.27	5002
2504.223	5023
2506.174	5149
2508.126	5085
2510.078	5116
2512.03	5049
2513.979	5121
2515.927	5143
2517.877	5079
2519.826	5153
2521.775	5156
2523.722	5057
2525.668	5118
2527.616	5032
2529.561	4973
2531.508	5081
2533.452	5040
2535.398	5157
2537.342	5031
2539.284	5074
2541.229	5008
2543.173	5044
2545.114	4967
2547.055	5092
2548.996	5022
2550.938	5025
2552.878	5021
2554.817	5103
2556.756	4960
2558.695	5041
2560.633	5022
2562.572	4958
2564.509	5148
2566.445	5066
2568.382	5068
2570.317	5059
2572.254	5177
2574.189	5017
2576.123	4999
2578.057	5066
2579.99	5153
2581.923	5059
2583.855	5089
2585.788	5037
2587.719	5009
2589.65	5031
2591.579	5016
2593.511	5001
2595.44	5073
2597.37	4963
2599.297	5029
2601.225	5001
2603.153	5143
2605.08	4997
2607.007	5133
2608.932	5028
2610.858	5123
2612.782	5069
2614.709	4980
2616.632	5053
2618.556	5096
2620.478	5013
2622.401	5131
2624.324	5048
2626.247	5112
2628.167	5003
2630.088	5110
2632.008	5055
2633.928	5069
2635.848	5076
2637.766	5093
2639.684	5112
2641.603	5110
2643.519	5036
2645.437	5087
2647.353	5119
2649.27	5002
2651.184	5104
2653.099	5010
2655.014	4931
2656.928	5074
2658.842	5089
2660.755	5008
2662.667	5084
2664.579	5050
2666.491	5029
2668.402	4957
2670.312	5056
2672.222	4916
2674.132	5027
2676.042	4898
2677.951	4994
2679.859	5036
2681.766	5056
2683.674	5033
2685.582	5060
2687.488	4936
2689.392	5023
2691.298	5002
2693.202	4965
2695.107	5039
2697.012	4943
2698.914	5031
2700.817	4936
2702.72	5035
2704.622	5036
2706.524	5000
2708.425	4968
2710.326	4973
2712.225	4932
2714.125	4903
2716.024	5012
2717.923	4914
2719.822	4963
2721.719	4940
2723.616	4996
2725.512	5024
2727.41	5033
2729.305	4950
2731.201	4998
2733.095	5003
2734.99	5002
2736.884	4876
2738.778	4996
2740.67	5058
2742.562	4891
2744.455	4897
2746.346	5027
2748.238	4915
2750.129	4950
2752.018	4998
2753.907	4879
2755.797	4934
2757.687	4951
2759.575	4982
2761.462	4889
2763.349	4903
2765.237	4942
2767.124	4949
2769.009	4994
2770.894	4897
2772.779	4954
2774.663	4953
2776.547	4978
2778.431	4925
2780.314	4930
2782.197	4931
2784.078	4872
2785.96	4882
2787.842	4926
2789.723	4997
2791.603	4947
2793.483	4839
2795.362	4862
2797.241	4976
2799.121	4795
2800.997	4856
2802.874	4983
2804.751	4878
2806.628	4896
2808.506	4951
2810.38	4852
2812.255	4882
2814.13	4856
2816.003	5003
2817.878	4831
2819.752	4869
2821.623	4939
2823.496	4935
2825.368	4915
2827.238	4829
2829.111	4992
2830.98	4849
2832.851	4888
2834.719	4880
2836.589	4936
2838.458	4896
2840.327	4911
2842.193	4886
2844.061	4920
2845.927	4894
2847.794	4934
2849.66	4955
2851.525	4954
2853.39	5017
2855.254	4989
2857.117	5022
2858.983	5037
2860.845	5151
2862.707	5161
2864.569	5101
2866.431	5136
2868.293	5216
2870.154	5223
2872.013	5266
2873.873	5213
2875.733	5312
2877.592	5375
2879.451	5327
2881.309	5513
2883.166	5447
2885.022	5448
2886.879	5546
2888.736	5578
2890.591	5480
2892.446	5524
2894.301	5590
2896.155	5528
2898.009	5452
2899.863	5551
2901.716	5516
2903.568	5544
2905.419	5527
2907.27	5414
2909.123	5532
2910.973	5472
2912.824	5592
2914.673	5472
2916.521	5653
2918.372	5695
2920.22	5579
2922.067	5766
2923.914	5714
2925.761	5937
2927.607	5868
2929.455	6055
2931.301	6155
2933.144	6035
2934.99	6193
2936.833	6234
2938.678	6115
2940.522	6305
2942.364	6383
2944.207	6343
2946.048	6399
2947.891	6609
2949.731	6493
2951.571	6510
2953.412	6445
2955.25	6358
2957.09	6283
2958.93	6185
2960.767	6175
2962.606	6102
2964.443	6119
2966.279	6062
2968.116	5980
2969.953	5841
2971.788	5830
2973.623	5864
2975.457	5710
2977.292	5797
2979.127	5663
2980.959	5643
2982.792	5574
2984.624	5497
2986.455	5553
2988.288	5508
2990.119	5439
2991.949	5472
2993.779	5404
2995.608	5275
2997.439	5360
2999.268	5257
3001.096	5171
3002.923	5190
3004.751	5122
3006.578	5199
3008.406	5107
3010.232	5056
3012.057	4909
3013.883	5038
3015.706	4980
3017.532	4947
3019.356	4862
3021.179	4895
3023.002	4876
3024.823	4834
3026.646	4867
3028.469	4752
3030.289	4649
3032.11	4763
3033.93	4688
3035.749	4771
3037.57	4707
3039.39	4709
3041.207	4753
3043.026	4653
3044.842	4754
3046.661	4628
3048.477	4722
3050.294	4639
3052.109	4615
3053.925	4658
3055.739	4680
3057.555	4701
3059.368	4615
3061.181	4711
3062.995	4741
3064.807	4619
3066.62	4605
3068.433	4809
3070.243	4621
3072.054	4658
3073.865	4655
3075.675	4660
3077.485	4638
3079.293	4609
3081.102	4664
3082.911	4660
3084.719	4547
3086.527	4551
3088.333	4522
3090.139	4565
3091.945	4547
3093.75	4540
3095.557	4532
3097.361	4632
3099.165	4492
3100.969	4481
3102.772	4526
3104.575	4482
3106.379	4391
3108.181	4475
3109.982	4470
3111.783	4462
3113.584	4513
3115.386	4478
3117.186	4544
3118.985	4458
3120.783	4491
3122.582	4551
3124.381	4463
3126.179	4366
3127.975	4536
3129.772	4454
3131.569	4487
3133.365	4363
3135.161	4385
3136.956	4376
3138.751	4392
3140.544	4378
3142.338	4444
3144.132	4439
3145.925	4426
3147.717	4402
3149.509	4505
3151.301	4446
3153.091	4473
3154.884	4362
3156.673	4396
3158.462	4456
3160.252	4391
3162.041	4310
3163.831	4445
3165.618	4376
3167.405	4464
3169.193	4471
3170.979	4376
3172.767	4374
3174.553	4424
3176.338	4409
3178.123	4417
3179.907	4420
3181.692	4335
3183.477	4371
3185.259	4332
3187.042	4365
3188.824	4375
3190.607	4393
3192.389	4255
3194.17	4353
3195.951	4387
3197.73	4340
3199.51	4299
3201.289	4393
3203.07	4350
3204.848	4295
3206.626	4365
3208.403	4350
3210.18	4359
3211.959	4383
3213.735	4418
3215.511	4367
3217.285	4303
3219.06	4373
3220.836	4414
3222.611	4401
3224.384	4355
3226.158	4397
3227.929	4430
3229.702	4325
3231.476	4283
3233.248	4289
3235.018	4348
3236.789	4360
3238.56	4344
3240.33	4340
3242.1	4413
3243.869	4334
3245.637	4330
3247.405	4377
3249.172	4356
3250.941	4355
3252.707	4289
3254.474	4472
3256.24	4426
3258.006	4349
3259.772	4374
3261.537	4263
3263.301	4363
3265.065	4321
3266.828	4370
3268.592	4338
3270.355	4491
3272.117	4404
3273.878	4404
3275.64	4390
3277.401	4309
3279.162	4311
3280.922	4406
3282.682	4282
3284.441	4299
3286.199	4380
3287.959	4385
3289.716	4335
3291.475	4299
3293.232	4362
3294.988	4351
3296.744	4325
3298.501	4317
3300.256	4358
3302.011	4296
3303.766	4332
3305.52	4363
3307.275	4306
3309.028	4302
3310.781	4291
3312.533	4353
3314.285	4384
3316.038	4290
3317.789	4430
3319.54	4464
3321.289	4373
3323.039	4371
3324.789	4377
3326.539	4321
3328.288	4351
3330.035	4436
3331.783	4327
3333.531	4352
3335.28	4324
3337.025	4229
3338.771	4362
3340.518	4320
3342.262	4267
3344.009	4296
3345.753	4333
3347.497	4276
3349.24	4329
3350.983	4215
3352.726	4229
3354.469	4273
3356.212	4199
3357.952	4234
3359.694	4239
3361.434	4235
3363.176	4199
3364.916	4233
3366.654	4223
3368.394	4271
3370.132	4226
3371.871	4232
3373.61	4176
3375.346	4236
3377.083	4151
3378.82	4163
3380.556	4217
3382.292	4162
3384.027	4186
3385.763	4152
3387.497	4143
3389.231	4271
3390.965	4206
3392.698	4150
3394.431	4132
3396.164	4210
3397.896	4145
3399.627	4241
3401.36	4121
3403.09	4126
3404.82	4109
3406.55	4092
3408.279	4121
3410.01	4199
3411.738	4290
3413.467	4152
3415.194	4134
3416.92	4178
3418.647	4150
3420.375	4052
3422.102	4141
3423.827	4101
3425.553	4065
3427.277	4125
3429.003	4117
3430.727	4002
3432.451	4013
3434.173	4122
3435.896	4124
3437.62	4143
3439.343	4047
3441.063	4080
3442.785	4069
3444.505	4035
3446.226	4074
3447.948	4084
3449.666	3992
3451.386	4025
3453.104	3989
3454.823	4011
3456.541	3981
3458.259	3979
3459.976	4054
3461.693	3933
3463.408	4021
3465.125	3992
3466.841	3994
3468.556	3948
3470.271	3856
3471.985	4005
3473.698	3935
3475.414	3935
3477.126	3884
3478.838	3933
3480.55	3880
3482.263	3888
3483.975	3913
3485.686	3957
3487.396	3887
3489.106	3924
3490.817	3829
3492.526	3913
3494.236	3834
3495.944	3852
3497.652	3870
3499.359	3828
3501.066	3751
3502.775	3750
3504.481	3860
3506.187	3848
3507.893	3920
3509.598	3749
3511.304	3874
3513.009	3849
3514.713	3794
3516.417	3795
3518.12	3831
3519.821	3793
3521.525	3774
3523.228	3795
3524.929	3782
3526.631	3842
3528.33	3748
3530.032	3772
3531.733	3712
3533.433	3791
3535.131	3811
3536.83	3681
3538.529	3735
3540.227	3758
3541.925	3729
3543.623	3716
3545.319	3783
3547.016	3709
3548.712	3747
3550.408	3720
3552.103	3708
3553.798	3691
3555.491	3726
3557.188	3666
3558.88	3647
3560.574	3660
3562.266	3665
3563.959	3674
3565.651	3734
3567.343	3610
3569.035	3729
3570.725	3738
3572.415	3640
3574.106	3655
3575.797	3747
3577.485	3618
3579.174	3649
3580.863	3647
3582.551	3549
3584.238	3688
3585.926	3632
3587.613	3564
3589.3	3599
3590.986	3554
3592.671	3628
3594.357	3613
3596.042	3448
3597.726	3559
3599.41	3622
3601.094	3476
3602.778	3521
3604.461	3446
3606.143	3499
3607.825	3541
3609.507	3459
3611.188	3545
3612.87	3429
3614.551	3537
3616.229	3501
3617.909	3557
3619.589	3530
3621.269	3467
3622.948	3490
3624.625	3500
3626.302	3521
3627.98	3477
3629.657	3488
3631.334	3485
3633.01	3489
3634.686	3386
3636.361	3418
3638.036	3421
3639.712	3329
3641.385	3352
3643.06	3344
3644.732	3381
3646.405	3410
3648.08	3372
3649.751	3413
3651.424	3281
3653.094	3297
3654.766	3376
3656.436	3368
3658.106	3409
3659.777	3289
3661.446	3438
3663.115	3410
3664.783	3374
3666.452	3361
3668.121	3385
3669.788	3435
3671.454	3392
3673.121	3306
3674.789	3367
3676.455	3340
3678.12	3264
3679.784	3361
3681.45	3360
3683.114	3365
3684.779	3330
3686.442	3349
3688.105	3302
3689.768	3364
3691.43	3313
3693.093	3384
3694.754	3261
3696.415	3241
3698.076	3323
3699.736	3237
3701.396	3306
3703.057	3285
3704.716	3256
3706.375	3322
3708.034	3265
3709.692	3264
3711.351	3255
3713.008	3214
3714.665	3283
3716.321	3212
3717.977	3241
3719.634	3302
3721.29	3203
3722.945	3207
3724.598	3217
3726.253	3322
3727.907	3219
3729.561	3250
3731.214	3272
3732.867	3220
3734.518	3251
3736.171	3254
3737.824	3246
3739.474	3205
3741.125	3278
3742.775	3201
3744.425	3187
3746.074	3175
3747.725	3240
3749.373	3231
3751.022	3212
3752.669	3230
3754.318	3215
3755.966	3218
3757.612	3271
3759.259	3165
3760.905	3245
3762.55	3137
3764.197	3237
3765.842	3184
3767.486	3152
3769.131	3148
3770.774	3174
3772.417	3145
3774.061	3238
3775.705	3184
3777.347	3204
3778.988	3178
3780.629	3125
3782.271	3217
3783.912	3118
3785.552	3155
3787.192	3145
3788.831	3147
3790.472	3101
3792.112	3048
3793.75	3148
3795.388	3136
3797.024	3187
3798.661	3092
3800.3	3166
3801.936	3111
3803.572	3216
3805.208	3095
3806.844	3113
3808.48	3068
3810.115	3099
3811.748	3165
3813.382	3117
3815.016	3046
3816.649	3053
3818.283	3075
3819.914	3111
3821.547	3123
3823.178	3150
3824.809	3084
3826.441	3139
3828.072	3062
3829.701	3096
3831.331	3071
3832.96	3088
3834.591	3064
3836.219	3040
3837.847	3062
3839.475	3034
3841.102	3084
3842.729	3026
3844.357	3110
3845.984	3051
3847.609	3050
3849.234	3012
3850.86	3080
3852.485	3027
3854.11	2995
3855.734	3014
3857.357	2937
3858.981	3062
3860.603	3008
3862.227	3005
3863.848	2932
3865.471	3053
3867.092	3018
3868.713	2983
3870.334	3007
3871.954	3024
3873.575	3007
3875.194	2979
3876.813	2974
3878.433	2997
3880.051	2970
3881.669	2934
3883.286	2968
3884.904	2985
3886.52	2922
3888.138	2978
3889.754	2977
3891.37	2940
3892.985	2986
3894.6	2976
3896.216	2974
3897.831	2955
3899.444	2942
3901.058	2985
3902.67	2976
3904.283	2948
3905.897	3007
3907.509	2837
3909.121	3000
3910.731	2922
3912.342	2859
3913.954	2998
3915.563	2881
3917.174	2858
3918.783	2926
3920.391	2881
3922.002	2935
3923.611	2959
3925.218	2925
3926.826	2941
3928.432	2921
3930.039	2896
3931.647	2879
3933.253	2920
3934.859	2905
3936.464	2882
3938.068	2845
3939.675	2897
3941.278	2939
3942.883	2963
3944.486	2887
3946.089	2955
3947.692	2891
3949.295	2939
3950.898	2887
3952.499	2875
3954.1	2833
3955.7	2802
3957.303	2959
3958.903	2861
3960.502	2883
3962.101	2866
3963.7	2877
3965.301	2800
3966.899	2886
3968.497	2902
3970.094	2802
3971.691	2832
3973.288	2850
3974.885	2876
3976.481	2873
3978.077	2808
3979.672	2781
3981.267	2858
3982.863	2796
3984.457	2873
3986.051	2873
3987.645	2810
3989.238	2796
3990.831	2808
3992.425	2801
3994.017	2819
3995.607	2778
3997.199	2812
3998.79	2816
4000.382	2836
4001.973	2789
4003.561	2731
4005.151	2771
4006.741	2712
4008.331	2765
4009.918	2728
4011.507	2690
4013.095	2737
4014.681	2701
4016.269	2702
4017.856	2711
4019.443	2695
4021.028	2756
4022.614	2789
4024.199	2744
4025.785	2706
4027.37	2708
4028.953	2762
4030.536	2737
4032.12	2716
4033.704	2716
4035.287	2668
4036.869	2691
4038.45	2685
4040.032	2682
4041.613	2706
4043.195	2605
4044.776	2650
4046.356	2632
4047.935	2748
4049.515	2644
4051.095	2686
4052.674	2652
4054.251	2699
4055.829	2701
4057.406	2703
4058.985	2646
4060.562	2740
4062.139	2718
4063.715	2698
4065.29	2685
4066.865	2653
4068.442	2682
4070.016	2616
4071.59	2708
4073.164	2647
4074.738	2601
4076.312	2651
4077.885	2630
4079.458	2622
4081.03	2598
4082.602	2576
4084.173	2640
4085.745	2659
4087.315	2593
4088.886	2617
4090.456	2598
4092.026	2623
4093.596	2628
4095.165	2677
4096.734	2591
4098.301	2593
4099.869	2575
4101.437	2598
4103.006	2595
4104.572	2508
4106.139	2602
4107.704	2610
4109.27	2618
4110.837	2593
4112.401	2546
4113.966	2609
4115.53	2607
4117.094	2596
4118.659	2569
4120.223	2566
4121.785	2620
4123.347	2562
4124.909	2618
4126.471	2576
4128.034	2532
4129.595	2542
4131.155	2504
4132.716	2531
4134.275	2557
4135.836	2569
4137.395	2534
4138.955	2552
4140.513	2486
4142.071	2514
4143.628	2536
4145.188	2493
4146.745	2510
4148.302	2570
4149.858	2494
4151.414	2479
4152.971	2563
4154.526	2573
4156.081	2490
4157.635	2511
4159.189	2529
4160.745	2472
4162.298	2459
4163.852	2540
4165.405	2435
4166.957	2521
4168.51	2465
4170.063	2462
4171.614	2512
4173.166	2410
4174.717	2487
4176.267	2441
4177.817	2423
4179.368	2431
4180.917	2450
4182.466	2454
4184.016	2474
4185.564	2447
4187.112	2523
4188.66	2435
4190.207	2529
4191.754	2443
4193.301	2427
4194.848	2423
4196.394	2453
4197.94	2492
4199.484	2379
4201.03	2383
4202.575	2358
4204.12	2448
4205.663	2418
4207.207	2396
4208.75	2478
4210.292	2366
4211.836	2437
4213.378	2436
4214.92	2387
4216.46	2395
4218.002	2351
4219.544	2416
4221.083	2425
4222.625	2394
4224.164	2388
4225.703	2386
4227.244	2349
4228.782	2406
4230.32	2347
4231.857	2380
4233.395	2405
4234.933	2380
4236.471	2330
4238.007	2343
4239.542	2409
4241.078	2324
4242.614	2344
4244.15	2333
4245.685	2361
4247.219	2413
4248.753	2342
4250.287	2258
4251.82	2383
4253.354	2355
4254.887	2366
4256.419	2327
4257.951	2381
4259.483	2348
4261.016	2396
4262.547	2366
4264.078	2370
4265.608	2342
4267.137	2367
4268.668	2359
4270.197	2403
4271.727	2322
4273.254	2366
4274.783	2319
4276.311	2321
4277.84	2276
4279.366	2395
4280.894	2326
4282.42	2303
4283.946	2315
4285.473	2311
4286.998	2347
4288.523	2232
4290.047	2296
4291.572	2242
4293.096	2323
4294.622	2329
4296.144	2277
4297.668	2312
4299.19	2314
4300.713	2318
4302.236	2252
4303.758	2259
4305.279	2277
4306.799	2242
4308.321	2278
4309.842	2285
4311.361	2271
4312.882	2273
4314.401	2329
