400.0961	2357
402.6185	2338
405.1424	2368
407.6635	2362
410.1838	2395
412.7035	2386
415.2225	2414
417.7388	2423
420.2585	2442
422.7754	2436
425.2917	2481
427.8072	2563
430.3221	2484
432.8363	2502
435.3498	2467
437.8626	2519
440.3727	2530
442.8841	2455
445.3969	2539
447.907	2495
450.4142	2484
452.9229	2527
455.4289	2520
457.9362	2558
460.4449	2483
462.9488	2469
465.454	2502
467.9566	2515
470.4604	2539
472.9637	2466
475.4662	2532
477.966	2515
480.4671	2480
482.9656	2464
485.4633	2546
487.9645	2544
490.4608	2496
492.9566	2531
495.4536	2492
497.948	2502
500.4437	2542
502.9387	2573
505.431	2580
507.9226	2550
510.4136	2535
512.9079	2512
515.3975	2490
517.8864	2562
520.3746	2567
522.8622	2530
525.3491	2600
527.8394	2541
530.3249	2555
532.8098	2554
535.2939	2508
537.7774	2559
540.2623	2577
542.7444	2540
545.2259	2586
547.7067	2544
550.1868	2538
552.6683	2594
555.147	2568
557.6231	2585
560.1005	2631
562.5773	2588
565.0534	2579
567.5308	2642
570.0056	2620
572.4776	2572
574.951	2643
577.4237	2688
579.8978	2651
582.3671	2645
584.8378	2644
587.3079	2651
589.7773	2743
592.244	2659
594.714	2700
597.1793	2615
599.6461	2675
602.1121	2640
604.5754	2632
607.0421	2631
609.5042	2617
611.9675	2635
614.4282	2636
616.8902	2632
619.3515	2588
621.8122	2673
624.2702	2654
626.7296	2572
629.1863	2643
631.6423	2587
634.1017	2600
636.5563	2647
639.0104	2603
641.4658	2657
643.9185	2645
646.3725	2640
648.8239	2697
651.2766	2624
653.7266	2708
656.176	2706
658.6247	2709
661.0748	2657
663.5242	2695
665.9709	2686
668.417	2688
670.8624	2591
673.3092	2658
675.7533	2756
678.1968	2688
680.6395	2770
683.0817	2679
685.5251	2783
687.9659	2706
690.4061	2736
692.8456	2744
695.2844	2771
697.7226	2734
700.1621	2791
702.599	2742
705.0332	2699
707.4688	2797
709.9036	2767
712.3399	2770
714.7735	2812
717.2044	2775
719.6367	2832
722.0683	2808
724.4993	2778
726.9296	2865
729.3593	2818
731.7883	2832
734.2147	2797
736.6423	2827
739.0714	2802
741.4958	2815
743.9216	2831
746.3447	2905
748.7691	2801
751.1929	2956
753.616	2866
756.0366	2924
758.4584	2891
760.8776	2821
763.2982	2880
765.718	2922
768.1373	2925
770.5539	2843
772.9698	2902
775.3871	2926
777.8038	2922
780.2178	2855
782.6332	2934
785.0459	2978
787.458	2885
789.8714	2863
792.2842	2914
794.6943	2906
797.1038	2918
799.5127	2924
801.9209	2840
804.3324	2927
806.7393	2921
809.1456	2941
811.5513	2939
813.9562	2953
816.3625	2880
818.7663	2958
821.1693	2952
823.5718	2960
825.9735	2948
828.3746	2882
830.7771	2981
833.177	2904
835.5762	2950
837.9747	2997
840.3727	2981
842.772	2988
845.1666	2933
847.5626	2993
849.958	3024
852.3527	3035
854.7488	3009
857.1403	2977
859.5331	3044
861.9253	3036
864.3168	2942
866.7057	3079
869.098	2997
871.4876	3027
873.8746	3016
876.263	2998
878.6487	2995
881.0378	2999
883.4243	2983
885.8081	2958
888.1933	2999
890.5759	2999
892.9598	3036
895.343	3033
897.7256	2986
900.1057	2980
902.4871	3008
904.8659	2993
907.246	3008
909.6254	3018
912.0023	3041
914.3786	3155
916.7562	3079
919.1331	3160
921.5074	3141
923.8831	3181
926.2562	3161
928.6287	3210
931.0005	3163
933.3757	3130
935.7462	3196
938.1162	3194
940.4855	3287
942.8542	3242
945.2242	3241
947.5916	3324
949.9584	3336
952.3266	3449
954.6921	3573
957.0571	3681
959.4233	3724
961.787	3890
964.15	3857
966.5125	3694
968.8742	3590
971.2354	3483
973.5959	3341
975.9559	3298
978.3151	3177
980.6738	3190
983.0338	3207
985.3912	3077
987.7461	3093
990.1022	3085
992.4578	3102
994.8127	3122
997.1689	3081
999.5207	3160
1001.874	3111
1004.226	3098
1006.576	3059
1008.929	3191
1011.28	3146
1013.628	3154
1015.977	3140
1018.324	3158
1020.674	3132
1023.019	3178
1025.366	3197
1027.713	3090
1030.056	3159
1032.399	3234
1034.746	3182
1037.087	3230
1039.431	3179
1041.771	3149
1044.113	3192
1046.454	3185
1048.793	3185
1051.133	3243
1053.471	3230
1055.807	3191
1058.146	3191
1060.483	3214
1062.818	3237
1065.153	3186
1067.489	3250
1069.822	3240
1072.156	3252
1074.488	3293
1076.82	3261
1079.15	3304
1081.48	3301
1083.814	3263
1086.143	3186
1088.471	3277
1090.799	3240
1093.126	3178
1095.452	3264
1097.78	3158
1100.105	3179
1102.43	3249
1104.754	3176
1107.077	3137
1109.4	3237
1111.722	3228
1114.044	3277
1116.365	3219
1118.685	3269
1121.005	3148
1123.324	3291
1125.643	3237
1127.961	3241
1130.278	3207
1132.595	3256
1134.911	3184
1137.226	3155
1139.541	3159
1141.854	3222
1144.167	3228
1146.482	3212
1148.793	3202
1151.105	3291
1153.414	3220
1155.725	3113
1158.033	3269
1160.344	3225
1162.651	3223
1164.959	3238
1167.265	3195
1169.572	3236
1171.878	3235
1174.184	3198
1176.488	3236
1178.79	3222
1181.094	3233
1183.396	3240
1185.699	3182
1188.001	3351
1190.301	3308
1192.6	3206
1194.9	3198
1197.2	3178
1199.497	3220
1201.794	3209
1204.09	3267
1206.387	3242
1208.684	3248
1210.978	3301
1213.272	3291
1215.565	3196
1217.858	3248
1220.15	3277
1222.443	3285
1224.734	3268
1227.024	3294
1229.313	3274
1231.602	3293
1233.892	3218
1236.18	3270
1238.467	3327
1240.754	3344
1243.04	3357
1245.325	3342
1247.612	3375
1249.896	3380
1252.178	3379
1254.461	3394
1256.743	3370
1259.027	3287
1261.308	3407
1263.587	3478
1265.867	3411
1268.146	3329
1270.425	3358
1272.703	3355
1274.981	3399
1277.256	3429
1279.532	3460
1281.808	3393
1284.083	3309
1286.358	3358
1288.63	3388
1290.904	3302
1293.175	3353
1295.449	3320
1297.719	3349
1299.99	3351
1302.259	3303
1304.529	3390
1306.798	3322
1309.065	3373
1311.333	3352
1313.599	3312
1315.866	3334
1318.131	3357
1320.396	3385
1322.66	3361
1324.925	3425
1327.187	3342
1329.448	3299
1331.711	3347
1333.974	3326
1336.234	3371
1338.493	3387
1340.752	3390
1343.01	3255
1345.269	3325
1347.526	3324
1349.784	3379
1352.04	3267
1354.295	3416
1356.552	3393
1358.806	3358
1361.059	3287
1363.312	3376
1365.564	3309
1367.818	3385
1370.069	3311
1372.318	3387
1374.568	3375
1376.817	3326
1379.066	3332
1381.316	3399
1383.564	3387
1385.809	3386
1388.056	3331
1390.301	3317
1392.549	3412
1394.793	3477
1397.036	3482
1399.279	3468
1401.522	3499
1403.763	3445
1406.007	3491
1408.248	3439
1410.487	3461
1412.727	3433
1414.965	3453
1417.205	3495
1419.442	3485
1421.68	3413
1423.915	3441
1426.152	3484
1428.388	3487
1430.623	3459
1432.857	3445
1435.091	3420
1437.323	3501
1439.556	3498
1441.789	3521
1444.019	3568
1446.25	3427
1448.48	3604
1450.708	3566
1452.938	3578
1455.167	3587
1457.394	3542
1459.62	3565
1461.846	3529
1464.073	3579
1466.299	3512
1468.523	3583
1470.746	3443
1472.969	3495
1475.191	3483
1477.415	3451
1479.636	3391
1481.858	3382
1484.078	3433
1486.298	3466
1488.518	3368
1490.736	3377
1492.954	3349
1495.169	3371
1497.386	3419
1499.602	3365
1501.819	3341
1504.034	3316
1506.248	3358
1508.462	3314
1510.675	3453
1512.888	3384
1515.1	3326
1517.311	3290
1519.522	3313
1521.732	3337
1523.942	3351
1526.151	3428
1528.36	3390
1530.566	3362
1532.773	3383
1534.98	3416
1537.187	3375
1539.392	3369
1541.596	3369
1543.801	3362
1546.005	3395
1548.208	3394
1550.411	3354
1552.612	3455
1554.814	3459
1557.013	3392
1559.212	3444
1561.414	3430
1563.612	3475
1565.811	3300
1568.007	3479
1570.203	3416
1572.403	3521
1574.598	3421
1576.792	3439
1578.988	3454
1581.181	3372
1583.376	3488
1585.568	3405
1587.761	3440
1589.952	3527
1592.143	3476
1594.333	3452
1596.524	3450
1598.715	3465
1600.903	3503
1603.091	3499
1605.278	3596
1607.466	3505
1609.652	3386
1611.838	3487
1614.023	3451
1616.207	3502
1618.391	3474
1620.576	3567
1622.759	3515
1624.941	3512
1627.123	3474
1629.304	3521
1631.484	3479
1633.664	3490
1635.844	3482
1638.022	3486
1640.201	3577
1642.38	3512
1644.556	3529
1646.732	3599
1648.908	3517
1651.084	3522
1653.257	3489
1655.433	3599
1657.607	3459
1659.779	3601
1661.951	3514
1664.122	3506
1666.295	3564
1668.467	3510
1670.635	3621
1672.805	3577
1674.973	3601
1677.142	3653
1679.31	3522
1681.478	3563
1683.644	3608
1685.81	3518
1687.975	3567
1690.142	3504
1692.305	3493
1694.468	3519
1696.632	3520
1698.794	3466
1700.957	3469
1703.119	3487
1705.279	3489
1707.439	3513
1709.598	3529
1711.758	3394
1713.917	3481
1716.075	3549
1718.231	3485
1720.388	3464
1722.543	3483
1724.702	3498
1726.856	3462
1729.01	3517
1731.164	3518
1733.317	3498
1735.471	3456
1737.623	3470
1739.774	3434
1741.925	3479
1744.075	3525
1746.225	3478
1748.376	3472
1750.524	3414
1752.672	3581
1754.82	3507
1756.965	3541
1759.113	3447
1761.259	3500
1763.405	3497
1765.549	3470
1767.694	3519
1769.836	3547
1771.981	3443
1774.123	3543
1776.264	3579
1778.405	3555
1780.546	3494
1782.687	3630
1784.827	3522
1786.966	3517
1789.103	3544
1791.242	3573
1793.381	3500
1795.517	3431
1797.653	3502
1799.788	3484
1801.923	3552
1804.057	3538
1806.193	3615
1808.326	3540
1810.457	3588
1812.59	3548
1814.721	3594
1816.855	3536
1818.984	3555
1821.113	3510
1823.244	3527
1825.372	3617
1827.499	3525
1829.63	3458
1831.756	3519
1833.882	3496
1836.007	3496
1838.132	3520
1840.26	3579
1842.384	3512
1844.507	3535
1846.63	3437
1848.752	3484
1850.875	3474
1852.996	3525
1855.118	3531
1857.238	3474
1859.358	3482
1861.477	3481
1863.597	3535
1865.715	3546
1867.832	3410
1869.948	3533
1872.064	3457
1874.181	3587
1876.297	3463
1878.411	3523
1880.526	3530
1882.639	3537
1884.752	3539
1886.865	3563
1888.977	3489
1891.089	3530
1893.2	3496
1895.308	3476
1897.42	3494
1899.53	3507
1901.639	3607
1903.745	3462
1905.853	3543
1907.962	3480
1910.067	3541
1912.174	3561
1914.278	3519
1916.383	3586
1918.486	3556
1920.592	3586
1922.694	3600
1924.797	3584
1926.898	3610
1929	3583
1931.102	3590
1933.203	3598
1935.301	3511
1937.401	3484
1939.499	3557
1941.598	3633
1943.697	3577
1945.793	3528
1947.888	3497
1949.985	3553
1952.08	3555
1954.176	3583
1956.269	3592
1958.364	3584
1960.457	3544
1962.549	3610
1964.642	3507
1966.733	3565
1968.823	3585
1970.913	3545
1973.005	3564
1975.093	3572
1977.184	3575
1979.271	3541
1981.359	3535
1983.446	3640
1985.532	3513
1987.619	3612
1989.705	3536
1991.789	3532
1993.874	3529
1995.956	3556
1998.041	3534
2000.123	3561
2002.206	3478
2004.287	3519
2006.368	3500
2008.449	3503
2010.529	3620
2012.609	3520
2014.688	3608
2016.766	3578
2018.843	3590
2020.922	3437
2022.999	3592
2025.074	3558
2027.15	3533
2029.225	3550
2031.299	3544
2033.375	3481
2035.447	3506
2037.52	3554
2039.592	3463
2041.664	3496
2043.736	3567
2045.807	3578
2047.876	3484
2049.947	3541
2052.015	3580
2054.086	3509
2056.153	3563
2058.221	3584
2060.288	3481
2062.353	3582
2064.42	3551
2066.486	3480
2068.55	3530
2070.614	3514
2072.678	3488
2074.741	3442
2076.805	3603
2078.866	3547
2080.929	3549
2082.99	3588
2085.049	3566
2087.109	3524
2089.17	3591
2091.228	3570
2093.286	3573
2095.344	3633
2097.4	3535
2099.46	3566
2101.516	3574
2103.572	3547
2105.626	3518
2107.679	3609
2109.735	3636
2111.788	3587
2113.841	3485
2115.894	3522
2117.945	3546
2119.997	3620
2122.049	3514
2124.1	3511
2126.148	3537
2128.197	3555
2130.246	3594
2132.296	3534
2134.342	3604
2136.39	3554
2138.437	3559
2140.483	3518
2142.527	3467
2144.574	3556
2146.619	3527
2148.661	3515
2150.705	3555
2152.747	3516
2154.792	3551
2156.832	3515
2158.874	3592
2160.915	3555
2162.954	3444
2164.995	3564
2167.034	3536
2169.072	3492
2171.111	3581
2173.148	3526
2175.186	3486
2177.223	3484
2179.258	3526
2181.294	3502
2183.328	3460
2185.362	3429
2187.398	3520
2189.431	3484
2191.463	3551
2193.495	3494
2195.528	3416
2197.56	3468
2199.59	3444
2201.62	3444
2203.649	3527
2205.678	3505
2207.708	3483
2209.737	3563
2211.764	3543
2213.791	3422
2215.817	3545
2217.843	3468
2219.87	3473
2221.895	3491
2223.919	3557
2225.942	3472
2227.966	3401
2229.988	3476
2232.012	3426
2234.032	3503
2236.054	3498
2238.074	3451
2240.095	3478
2242.116	3498
2244.135	3524
2246.153	3459
2248.171	3518
2250.188	3470
2252.208	3451
2254.223	3477
2256.239	3571
2258.255	3511
2260.269	3454
2262.283	3443
2264.3	3550
2266.312	3510
2268.325	3469
2270.336	3430
2272.349	3473
2274.362	3431
2276.372	3540
2278.383	3442
2280.392	3559
2282.402	3474
2284.409	3596
2286.418	3441
2288.427	3445
2290.433	3501
2292.441	3445
2294.446	3481
2296.453	3422
2298.459	3467
2300.463	3494
2302.466	3412
2304.471	3447
2306.475	3452
2308.477	3503
2310.478	3432
2312.481	3415
2314.481	3435
2316.481	3379
2318.482	3442
2320.482	3500
2322.48	3435
2324.48	3538
2326.478	3434
2328.476	3418
2330.473	3418
2332.469	3451
2334.465	3473
2336.46	3463
2338.454	3509
2340.45	3444
2342.444	3451
2344.437	3450
2346.43	3388
2348.421	3407
2350.414	3338
2352.405	3448
2354.396	3355
2356.386	3398
2358.376	3457
2360.366	3397
2362.355	3457
2364.343	3362
2366.331	3432
2368.317	3363
2370.304	3369
2372.292	3475
2374.278	3462
2376.262	3449
2378.247	3342
2380.23	3439
2382.216	3469
2384.199	3468
2386.181	3406
2388.163	3377
2390.144	3406
2392.127	3385
2394.107	3374
2396.087	3410
2398.066	3365
2400.046	3363
2402.023	3335
2404.004	3446
2405.981	3382
2407.957	3373
2409.934	3402
2411.91	3360
2413.886	3481
2415.862	3391
2417.836	3427
2419.809	3385
2421.784	3364
2423.756	3408
2425.73	3419
2427.701	3340
2429.672	3411
2431.644	3422
2433.615	3428
2435.586	3372
2437.555	3390
2439.523	3383
2441.491	3417
2443.459	3420
2445.428	3430
2447.395	3407
2449.361	3408
2451.327	3357
2453.292	3424
2455.257	3439
2457.223	3385
2459.187	3337
2461.15	3448
2463.113	3398
2465.076	3340
2467.039	3341
2468.999	3396
2470.96	3282
2472.921	3369
2474.881	3353
2476.841	3360
2478.8	3377
2480.759	3324
2482.717	3351
2484.675	3398
2486.63	3303
2488.589	3309
2490.545	3353
2492.5	3328
2494.455	3352
2496.408	3308
2498.364	3359
2500.318	3319
2502.27	3382
2504.223	3331
2506.174	3431
2508.126	3390
2510.078	3288
2512.03	3374
2513.979	3335
2515.927	3292
2517.877	3315
2519.826	3332
2521.775	3366
2523.722	3290
2525.668	3333
2527.616	3288
2529.561	3286
2531.508	3301
2533.452	3318
2535.398	3353
2537.342	3280
2539.284	3352
2541.229	3367
2543.173	3291
2545.114	3276
2547.055	3396
2548.996	3304
2550.938	3314
2552.878	3299
2554.817	3345
2556.756	3356
2558.695	3374
2560.633	3251
2562.572	3358
2564.509	3352
2566.445	3302
2568.382	3325
2570.317	3325
2572.254	3350
2574.189	3336
2576.123	3362
2578.057	3338
2579.99	3301
2581.923	3356
2583.855	3334
2585.788	3318
2587.719	3340
2589.65	3381
2591.579	3295
2593.511	3254
2595.44	3306
2597.37	3316
2599.297	3366
2601.225	3316
2603.153	3322
2605.08	3325
2607.007	3318
2608.932	3300
2610.858	3338
2612.782	3354
2614.709	3321
2616.632	3371
2618.556	3378
2620.478	3363
2622.401	3361
2624.324	3362
2626.247	3378
2628.167	3327
2630.088	3346
2632.008	3399
2633.928	3327
2635.848	3297
2637.766	3318
2639.684	3370
2641.603	3250
2643.519	3299
2645.437	3373
2647.353	3399
2649.27	3274
2651.184	3365
2653.099	3366
2655.014	3329
2656.928	3316
2658.842	3307
2660.755	3316
2662.667	3381
2664.579	3282
2666.491	3394
2668.402	3330
2670.312	3344
2672.222	3334
2674.132	3330
2676.042	3283
2677.951	3298
2679.859	3429
2681.766	3406
2683.674	3318
2685.582	3291
2687.488	3287
2689.392	3316
2691.298	3327
2693.202	3396
2695.107	3356
2697.012	3291
2698.914	3342
2700.817	3308
2702.72	3336
2704.622	3278
2706.524	3342
2708.425	3309
2710.326	3310
2712.225	3313
2714.125	3210
2716.024	3323
2717.923	3309
2719.822	3313
2721.719	3271
2723.616	3346
2725.512	3350
2727.41	3318
2729.305	3295
2731.201	3290
2733.095	3291
2734.99	3263
2736.884	3394
2738.778	3308
2740.67	3292
2742.562	3294
2744.455	3377
2746.346	3267
2748.238	3206
2750.129	3291
2752.018	3218
2753.907	3250
2755.797	3274
2757.687	3284
2759.575	3250
2761.462	3340
2763.349	3281
2765.237	3257
2767.124	3358
2769.009	3276
2770.894	3230
2772.779	3349
2774.663	3222
2776.547	3243
2778.431	3240
2780.314	3284
2782.197	3308
2784.078	3237
2785.96	3284
2787.842	3253
2789.723	3233
2791.603	3255
2793.483	3264
2795.362	3281
2797.241	3361
2799.121	3293
2800.997	3263
2802.874	3225
2804.751	3285
2806.628	3265
2808.506	3240
2810.38	3262
2812.255	3253
2814.13	3286
2816.003	3177
2817.878	3235
2819.752	3320
2821.623	3316
2823.496	3243
2825.368	3274
2827.238	3262
2829.111	3270
2830.98	3274
2832.851	3226
2834.719	3299
2836.589	3212
2838.458	3250
2840.327	3318
2842.193	3228
2844.061	3322
2845.927	3247
2847.794	3191
2849.66	3259
2851.525	3308
2853.39	3318
2855.254	3277
2857.117	3237
2858.983	3323
2860.845	3319
2862.707	3358
2864.569	3393
2866.431	3356
2868.293	3350
2870.154	3380
2872.013	3421
2873.873	3433
2875.733	3386
2877.592	3409
2879.451	3476
2881.309	3497
2883.166	3575
2885.022	3565
2886.879	3513
2888.736	3521
2890.591	3584
2892.446	3552
2894.301	3569
2896.155	3425
2898.009	3532
2899.863	3497
2901.716	3560
2903.568	3563
2905.419	3524
2907.27	3554
2909.123	3524
2910.973	3562
2912.824	3559
2914.673	3546
2916.521	3598
2918.372	3638
2920.22	3676
2922.067	3598
2923.914	3658
2925.761	3696
2927.607	3747
2929.455	3734
2931.301	3762
2933.144	3782
2934.99	3809
2936.833	3940
2938.678	3864
2940.522	3824
2942.364	3877
2944.207	3955
2946.048	4080
2947.891	4055
2949.731	3972
2951.571	4003
2953.412	3942
2955.25	3879
2957.09	3875
2958.93	3857
2960.767	3920
2962.606	3834
2964.443	3752
2966.279	3714
2968.116	3697
2969.953	3637
2971.788	3785
2973.623	3697
2975.457	3628
2977.292	3634
2979.127	3650
2980.959	3607
2982.792	3462
2984.624	3610
2986.455	3574
2988.288	3477
2990.119	3558
2991.949	3529
2993.779	3445
2995.608	3450
2997.439	3463
2999.268	3426
3001.096	3345
3002.923	3387
3004.751	3345
3006.578	3308
3008.406	3306
3010.232	3249
3012.057	3325
3013.883	3265
3015.706	3220
3017.532	3215
3019.356	3219
3021.179	3206
3023.002	3201
3024.823	3230
3026.646	3135
3028.469	3228
3030.289	3119
3032.11	3113
3033.93	3179
3035.749	3132
3037.57	3229
3039.39	3188
3041.207	3132
3043.026	3175
3044.842	3135
3046.661	3140
3048.477	3136
3050.294	3109
3052.109	3152
3053.925	3156
3055.739	3133
3057.555	3190
3059.368	3055
3061.181	3113
3062.995	3127
3064.807	3097
3066.62	3111
3068.433	3146
3070.243	3025
3072.054	3085
3073.865	3069
3075.675	3064
3077.485	3049
3079.293	3075
3081.102	3095
3082.911	3064
3084.719	3059
3086.527	3128
3088.333	3088
3090.139	3137
3091.945	3055
3093.75	3102
3095.557	3062
3097.361	3067
3099.165	2971
3100.969	2990
3102.772	3004
3104.575	2991
3106.379	3023
3108.181	3014
3109.982	2968
3111.783	2982
3113.584	3049
3115.386	3070
3117.186	3027
3118.985	3112
3120.783	3038
3122.582	3012
3124.381	2957
3126.179	2953
3127.975	2978
3129.772	2979
3131.569	3074
3133.365	2996
3135.161	3012
3136.956	2964
3138.751	3002
3140.544	2912
3142.338	2945
3144.132	2961
3145.925	2951
3147.717	2939
3149.509	2998
3151.301	2947
3153.091	2989
3154.884	2959
3156.673	2979
3158.462	2897
3160.252	2963
3162.041	2936
3163.831	2888
3165.618	2917
3167.405	2957
3169.193	2933
3170.979	2936
3172.767	2921
3174.553	2975
3176.338	2945
3178.123	2917
3179.907	2958
3181.692	2951
3183.477	2973
3185.259	2949
3187.042	2893
3188.824	3007
3190.607	2941
3192.389	2990
3194.17	2859
3195.951	2894
3197.73	2918
3199.51	2920
3201.289	2930
3203.07	2923
3204.848	2967
3206.626	2940
3208.403	2958
3210.18	2877
3211.959	2957
3213.735	2914
3215.511	2996
3217.285	2869
3219.06	2975
3220.836	2930
3222.611	2924
3224.384	2899
3226.158	2950
3227.929	2974
3229.702	2913
3231.476	2981
3233.248	2898
3235.018	2923
3236.789	2930
3238.56	2906
3240.33	2952
3242.1	2947
3243.869	2986
3245.637	2905
3247.405	2893
3249.172	2875
3250.941	2941
3252.707	2924
3254.474	2967
3256.24	2909
3258.006	2924
3259.772	2903
3261.537	2807
3263.301	2936
3265.065	2965
3266.828	2893
3268.592	2977
3270.355	2938
3272.117	2842
3273.878	2888
3275.64	2881
3277.401	2897
3279.162	2836
3280.922	2947
3282.682	2861
3284.441	2930
3286.199	2943
3287.959	2963
3289.716	2893
3291.475	2893
3293.232	2971
3294.988	2863
3296.744	2948
3298.501	2973
3300.256	2884
3302.011	2883
3303.766	2911
3305.52	2953
3307.275	2938
3309.028	2916
3310.781	2937
3312.533	2984
3314.285	2942
3316.038	2925
3317.789	2958
3319.54	2913
3321.289	2906
3323.039	2989
3324.789	2851
3326.539	2938
3328.288	2933
3330.035	2904
3331.783	2897
3333.531	2954
3335.28	2852
3337.025	2971
3338.771	2909
3340.518	2837
3342.262	2879
3344.009	2817
3345.753	2870
3347.497	2864
3349.24	2871
3350.983	2861
3352.726	2909
3354.469	2895
3356.212	2790
3357.952	2943
3359.694	2854
3361.434	2816
3363.176	2851
3364.916	2902
3366.654	2853
3368.394	2891
3370.132	2825
3371.871	2843
3373.61	2843
3375.346	2820
3377.083	2794
3378.82	2822
3380.556	2868
3382.292	2869
3384.027	2851
3385.763	2844
3387.497	2898
3389.231	2793
3390.965	2793
3392.698	2815
3394.431	2838
3396.164	2851
3397.896	2780
3399.627	2808
3401.36	2822
3403.09	2805
3404.82	2829
3406.55	2828
3408.279	2839
3410.01	2850
3411.738	2734
3413.467	2809
3415.194	2805
3416.92	2839
3418.647	2810
3420.375	2734
3422.102	2795
3423.827	2831
3425.553	2785
3427.277	2790
3429.003	2766
3430.727	2809
3432.451	2749
3434.173	2747
3435.896	2742
3437.62	2735
3439.343	2771
3441.063	2772
3442.785	2759
3444.505	2764
3446.226	2824
3447.948	2799
3449.666	2726
3451.386	2714
3453.104	2728
3454.823	2718
3456.541	2698
3458.259	2722
3459.976	2663
3461.693	2731
3463.408	2746
3465.125	2750
3466.841	2700
3468.556	2725
3470.271	2698
3471.985	2774
3473.698	2673
3475.414	2641
3477.126	2676
3478.838	2703
3480.55	2734
3482.263	2708
3483.975	2753
3485.686	2647
3487.396	2616
3489.106	2697
3490.817	2667
3492.526	2626
3494.236	2696
3495.944	2689
3497.652	2596
3499.359	2657
3501.066	2647
3502.775	2625
3504.481	2683
3506.187	2611
3507.893	2606
3509.598	2579
3511.304	2672
3513.009	2594
3514.713	2595
3516.417	2605
3518.12	2613
3519.821	2617
3521.525	2676
3523.228	2605
3524.929	2611
3526.631	2665
3528.33	2582
3530.032	2608
3531.733	2544
3533.433	2588
3535.131	2594
3536.83	2591
3538.529	2670
3540.227	2634
3541.925	2566
3543.623	2592
3545.319	2592
3547.016	2581
3548.712	2552
3550.408	2590
3552.103	2560
3553.798	2651
3555.491	2610
3557.188	2578
3558.88	2562
3560.574	2557
3562.266	2494
3563.959	2613
3565.651	2529
3567.343	2542
3569.035	2580
3570.725	2567
3572.415	2581
3574.106	2539
3575.797	2489
3577.485	2556
3579.174	2603
3580.863	2459
3582.551	2536
3584.238	2501
3585.926	2544
3587.613	2533
3589.3	2500
3590.986	2519
3592.671	2508
3594.357	2525
3596.042	2496
3597.726	2535
3599.41	2579
3601.094	2502
3602.778	2499
3604.461	2538
3606.143	2493
3607.825	2503
3609.507	2507
3611.188	2445
3612.87	2467
3614.551	2440
3616.229	2475
3617.909	2429
3619.589	2476
3621.269	2445
3622.948	2420
3624.625	2419
3626.302	2498
3627.98	2405
3629.657	2379
3631.334	2438
3633.01	2459
3634.686	2487
3636.361	2399
3638.036	2412
3639.712	2361
3641.385	2370
3643.06	2380
3644.732	2405
3646.405	2524
3648.08	2423
3649.751	2404
3651.424	2404
3653.094	2381
3654.766	2377
3656.436	2424
3658.106	2387
3659.777	2452
3661.446	2346
3663.115	2361
3664.783	2465
3666.452	2388
3668.121	2427
3669.788	2413
3671.454	2365
3673.121	2432
3674.789	2416
3676.455	2383
3678.12	2331
3679.784	2358
3681.45	2370
3683.114	2454
3684.779	2327
3686.442	2378
3688.105	2408
3689.768	2372
3691.43	2329
3693.093	2338
3694.754	2380
3696.415	2315
3698.076	2355
3699.736	2390
3701.396	2299
3703.057	2275
3704.716	2347
3706.375	2323
3708.034	2407
3709.692	2351
3711.351	2368
3713.008	2332
3714.665	2330
3716.321	2319
3717.977	2318
3719.634	2299
3721.29	2359
3722.945	2325
3724.598	2326
3726.253	2278
3727.907	2345
3729.561	2347
3731.214	2344
3732.867	2253
3734.518	2391
3736.171	2274
3737.824	2334
3739.474	2341
3741.125	2335
3742.775	2318
3744.425	2264
3746.074	2343
3747.725	2294
3749.373	2353
3751.022	2304
3752.669	2337
3754.318	2319
3755.966	2318
3757.612	2251
3759.259	2328
3760.905	2313
3762.55	2270
3764.197	2361
3765.842	2283
3767.486	2273
3769.131	2315
3770.774	2250
3772.417	2284
3774.061	2341
3775.705	2272
3777.347	2252
3778.988	2277
3780.629	2308
3782.271	2207
3783.912	2258
3785.552	2292
3787.192	2280
3788.831	2255
3790.472	2221
3792.112	2267
3793.75	2251
3795.388	2243
3797.024	2172
3798.661	2211
3800.3	2249
3801.936	2280
3803.572	2253
3805.208	2244
3806.844	2257
3808.48	2269
3810.115	2219
3811.748	2241
3813.382	2252
3815.016	2261
3816.649	2244
3818.283	2203
3819.914	2235
3821.547	2242
3823.178	2220
3824.809	2220
3826.441	2194
3828.072	2272
3829.701	2232
3831.331	2206
3832.96	2188
3834.591	2170
3836.219	2207
3837.847	2268
3839.475	2192
3841.102	2173
3842.729	2140
3844.357	2205
3845.984	2220
3847.609	2215
3849.234	2231
3850.86	2199
3852.485	2209
3854.11	2229
3855.734	2147
3857.357	2220
3858.981	2186
3860.603	2168
3862.227	2162
3863.848	2185
3865.471	2159
3867.092	2200
3868.713	2202
3870.334	2124
3871.954	2164
3873.575	2197
3875.194	2148
3876.813	2136
3878.433	2149
3880.051	2136
3881.669	2142
3883.286	2150
3884.904	2214
3886.52	2144
3888.138	2176
3889.754	2124
3891.37	2175
3892.985	2221
3894.6	2148
3896.216	2144
3897.831	2137
3899.444	2206
3901.058	2128
3902.67	2146
3904.283	2132
3905.897	2187
3907.509	2133
3909.121	2152
3910.731	2131
3912.342	2111
3913.954	2134
3915.563	2101
3917.174	2128
3918.783	2104
3920.391	2126
3922.002	2170
3923.611	2167
3925.218	2076
3926.826	2031
3928.432	2074
3930.039	2155
3931.647	2076
3933.253	2118
3934.859	2127
3936.464	2133
3938.068	2131
3939.675	2126
3941.278	2092
3942.883	2088
3944.486	2098
3946.089	2145
3947.692	2100
3949.295	2134
3950.898	2078
3952.499	2159
3954.1	2126
3955.7	2063
3957.303	2153
3958.903	2020
3960.502	2135
3962.101	2076
3963.7	2085
3965.301	2072
3966.899	2105
3968.497	2078
3970.094	2089
3971.691	2006
3973.288	2112
3974.885	2091
3976.481	2110
3978.077	2093
3979.672	2064
3981.267	2056
3982.863	2050
3984.457	2114
3986.051	2067
3987.645	2085
3989.238	2033
3990.831	2079
3992.425	2035
3994.017	2064
3995.607	2035
3997.199	2047
3998.79	2060
4000.382	2017
4001.973	2080
4003.561	2073
4005.151	2044
4006.741	2046
4008.331	2028
4009.918	2029
4011.507	1991
4013.095	2016
4014.681	1997
4016.269	2074
4017.856	2066
4019.443	1985
4021.028	2087
4022.614	2062
4024.199	2044
4025.785	1993
4027.37	2027
4028.953	2042
4030.536	2031
4032.12	2009
4033.704	2058
4035.287	1985
4036.869	2019
4038.45	1967
4040.032	1972
4041.613	1973
4043.195	1966
4044.776	1977
4046.356	1966
4047.935	1921
4049.515	1973
4051.095	1951
4052.674	1948
4054.251	1961
4055.829	1952
4057.406	1998
4058.985	1945
4060.562	2007
4062.139	1983
4063.715	1880
4065.29	1986
4066.865	1995
4068.442	1930
4070.016	1949
4071.59	1906
4073.164	1971
4074.738	1960
4076.312	1965
4077.885	1880
4079.458	2022
4081.03	1971
4082.602	1888
4084.173	1970
4085.745	1926
4087.315	1960
4088.886	1936
4090.456	1978
4092.026	1925
4093.596	1914
4095.165	1978
4096.734	1937
4098.301	1958
4099.869	1947
4101.437	1961
4103.006	1889
4104.572	1963
4106.139	1916
4107.704	1963
4109.27	1928
4110.837	1897
4112.401	1935
4113.966	1901
4115.53	1932
4117.094	1943
4118.659	1942
4120.223	1869
4121.785	1866
4123.347	1860
4124.909	1941
4126.471	1890
4128.034	1887
4129.595	1894
4131.155	1839
4132.716	1935
4134.275	1863
4135.836	1894
4137.395	1918
4138.955	1845
4140.513	1837
4142.071	1956
4143.628	1901
4145.188	1848
4146.745	1884
4148.302	1889
4149.858	1889
4151.414	1877
4152.971	1881
4154.526	1815
4156.081	1901
4157.635	1803
4159.189	1841
4160.745	1865
4162.298	1836
4163.852	1861
4165.405	1863
4166.957	1872
4168.51	1862
4170.063	1807
4171.614	1857
4173.166	1813
4174.717	1809
4176.267	1818
4177.817	1815
4179.368	1839
4180.917	1877
4182.466	1852
4184.016	1841
4185.564	1790
4187.112	1821
4188.66	1890
4190.207	1837
4191.754	1813
4193.301	1830
4194.848	1905
4196.394	1802
4197.94	1891
4199.484	1798
4201.03	1809
4202.575	1815
4204.12	1810
4205.663	1798
4207.207	1826
4208.75	1854
4210.292	1804
4211.836	1824
4213.378	1781
4214.92	1797
4216.46	1768
4218.002	1816
4219.544	1803
4221.083	1753
4222.625	1765
4224.164	1784
4225.703	1796
4227.244	1816
4228.782	1773
4230.32	1821
4231.857	1766
4233.395	1794
4234.933	1805
4236.471	1803
4238.007	1795
4239.542	1811
4241.078	1797
4242.614	1755
4244.15	1805
4245.685	1763
4247.219	1740
4248.753	1753
4250.287	1776
4251.82	1768
4253.354	1733
4254.887	1746
4256.419	1809
4257.951	1802
4259.483	1733
4261.016	1753
4262.547	1749
4264.078	1792
4265.608	1772
4267.137	1748
4268.668	1791
4270.197	1781
4271.727	1737
4273.254	1748
4274.783	1777
4276.311	1746
4277.84	1779
4279.366	1746
4280.894	1748
4282.42	1738
4283.946	1752
4285.473	1771
4286.998	1688
4288.523	1702
4290.047	1776
4291.572	1707
4293.096	1778
4294.622	1728
4296.144	1747
4297.668	1689
4299.19	1731
4300.713	1751
4302.236	1736
4303.758	1746
4305.279	1774
4306.799	1700
4308.321	1745
4309.842	1727
4311.361	1725
4312.882	1723
4314.401	1738
