400.0961	4490
402.6185	4624
405.1424	4452
407.6635	4508
410.1838	4535
412.7035	4600
415.2225	4632
417.7388	4627
420.2585	4597
422.7754	4688
425.2917	4795
427.8072	4826
430.3221	4877
432.8363	4810
435.3498	4791
437.8626	4834
440.3727	4869
442.8841	4828
445.3969	4919
447.907	4893
450.4142	4850
452.9229	4757
455.4289	4762
457.9362	4923
460.4449	4866
462.9488	4853
465.454	4884
467.9566	4816
470.4604	4787
472.9637	4810
475.4662	4833
477.966	4772
480.4671	4835
482.9656	4858
485.4633	4874
487.9645	4819
490.4608	4850
492.9566	4847
495.4536	4961
497.948	4872
500.4437	4824
502.9387	5006
505.431	4908
507.9226	4886
510.4136	4937
512.9079	4882
515.3975	4921
517.8864	4932
520.3746	4957
522.8622	5043
525.3491	5003
527.8394	5022
530.3249	5015
532.8098	5006
535.2939	4987
537.7774	5022
540.2623	4961
542.7444	4920
545.2259	5038
547.7067	4998
550.1868	5057
552.6683	5013
555.147	5020
557.6231	5031
560.1005	4963
562.5773	4955
565.0534	5026
567.5308	5136
570.0056	5066
572.4776	5182
574.951	5184
577.4237	5134
579.8978	5179
582.3671	5237
584.8378	5201
587.3079	5148
589.7773	5264
592.244	5324
594.714	5233
597.1793	5262
599.6461	5118
602.1121	5184
604.5754	5229
607.0421	5170
609.5042	5171
611.9675	5139
614.4282	5148
616.8902	5171
619.3515	5131
621.8122	5215
624.2702	5192
626.7296	5102
629.1863	5155
631.6423	5143
634.1017	5063
636.5563	5058
639.0104	5120
641.4658	5120
643.9185	5156
646.3725	5184
648.8239	5087
651.2766	5208
653.7266	5208
656.176	5196
658.6247	5084
661.0748	5254
663.5242	5206
665.9709	5122
668.417	5360
670.8624	5269
673.3092	5233
675.7533	5199
678.1968	5282
680.6395	5346
683.0817	5307
685.5251	5360
687.9659	5358
690.4061	5294
692.8456	5326
695.2844	5434
697.7226	5343
700.1621	5295
702.599	5313
705.0332	5374
707.4688	5411
709.9036	5406
712.3399	5366
714.7735	5348
717.2044	5288
719.6367	5449
722.0683	5512
724.4993	5357
726.9296	5546
729.3593	5435
731.7883	5574
734.2147	5461
736.6423	5390
739.0714	5516
741.4958	5499
743.9216	5564
746.3447	5669
748.7691	5544
751.1929	5708
753.616	5639
756.0366	5501
758.4584	5661
760.8776	5683
763.2982	5585
765.718	5672
768.1373	5773
770.5539	5650
772.9698	5738
775.3871	5689
777.8038	5680
780.2178	5628
782.6332	5735
785.0459	5695
787.458	5772
789.8714	5709
792.2842	5694
794.6943	5759
797.1038	5602
799.5127	5702
801.9209	5680
804.3324	5647
806.7393	5655
809.1456	5722
811.5513	5737
813.9562	5744
816.3625	5797
818.7663	5763
821.1693	5803
823.5718	5816
825.9735	5733
828.3746	5832
830.7771	5789
833.177	5760
835.5762	5798
837.9747	5892
840.3727	5821
842.772	5821
845.1666	5787
847.5626	5915
849.958	5896
852.3527	5974
854.7488	5846
857.1403	5982
859.5331	5956
861.9253	5901
864.3168	5950
866.7057	5892
869.098	5890
871.4876	5907
873.8746	5890
876.263	5980
878.6487	5892
881.0378	5905
883.4243	5838
885.8081	5881
888.1933	5872
890.5759	5699
892.9598	5852
895.343	5928
897.7256	5927
900.1057	5878
902.4871	5892
904.8659	5972
907.246	5799
909.6254	6027
912.0023	5968
914.3786	6099
916.7562	6044
919.1331	6160
921.5074	6222
923.8831	6210
926.2562	6226
928.6287	6134
931.0005	6343
933.3757	6300
935.7462	6247
938.1162	6246
940.4855	6306
942.8542	6412
945.2242	6529
947.5916	6516
949.9584	6594
952.3266	6979
954.6921	7066
957.0571	7439
959.4233	7718
961.787	7821
964.15	7691
966.5125	7427
968.8742	7109
971.2354	6922
973.5959	6601
975.9559	6453
978.3151	6305
980.6738	6364
983.0338	6307
985.3912	6296
987.7461	6106
990.1022	6100
992.4578	6069
994.8127	6229
997.1689	6170
999.5207	6205
1001.874	6214
1004.226	6147
1006.576	6174
1008.929	6169
1011.28	6157
1013.628	6136
1015.977	6108
1018.324	6134
1020.674	6238
1023.019	6249
1025.366	6261
1027.713	6157
1030.056	6074
1032.399	6317
1034.746	6283
1037.087	6321
1039.431	6204
1041.771	6290
1044.113	6355
1046.454	6226
1048.793	6203
1051.133	6330
1053.471	6246
1055.807	6268
1058.146	6303
1060.483	6217
1062.818	6384
1065.153	6291
1067.489	6478
1069.822	6342
1072.156	6420
1074.488	6449
1076.82	6396
1079.15	6370
1081.48	6308
1083.814	6366
1086.143	6429
1088.471	6310
1090.799	6262
1093.126	6316
1095.452	6280
1097.78	6234
1100.105	6389
1102.43	6292
1104.754	6362
1107.077	6382
1109.4	6310
1111.722	6291
1114.044	6256
1116.365	6113
1118.685	6264
1121.005	6359
1123.324	6246
1125.643	6254
1127.961	6309
1130.278	6265
1132.595	6216
1134.911	6240
1137.226	6348
1139.541	6254
1141.854	6330
1144.167	6195
1146.482	6283
1148.793	6244
1151.105	6252
1153.414	6304
1155.725	6260
1158.033	6236
1160.344	6184
1162.651	6380
1164.959	6316
1167.265	6451
1169.572	6302
1171.878	6259
1174.184	6384
1176.488	6367
1178.79	6308
1181.094	6340
1183.396	6210
1185.699	6277
1188.001	6408
1190.301	6266
1192.6	6328
1194.9	6226
1197.2	6371
1199.497	6349
1201.794	6337
1204.09	6409
1206.387	6360
1208.684	6223
1210.978	6262
1213.272	6309
1215.565	6281
1217.858	6328
1220.15	6367
1222.443	6302
1224.734	6313
1227.024	6451
1229.313	6329
1231.602	6524
1233.892	6585
1236.18	6473
1238.467	6513
1240.754	6537
1243.04	6522
1245.325	6663
1247.612	6605
1249.896	6610
1252.178	6672
1254.461	6644
1256.743	6511
1259.027	6509
1261.308	6493
1263.587	6540
1265.867	6561
1268.146	6689
1270.425	6569
1272.703	6569
1274.981	6579
1277.256	6576
1279.532	6592
1281.808	6591
1284.083	6514
1286.358	6561
1288.63	6515
1290.904	6502
1293.175	6484
1295.449	6447
1297.719	6500
1299.99	6480
1302.259	6474
1304.529	6428
1306.798	6489
1309.065	6458
1311.333	6517
1313.599	6542
1315.866	6436
1318.131	6503
1320.396	6531
1322.66	6470
1324.925	6483
1327.187	6481
1329.448	6571
1331.711	6639
1333.974	6631
1336.234	6530
1338.493	6593
1340.752	6419
1343.01	6423
1345.269	6524
1347.526	6550
1349.784	6530
1352.04	6495
1354.295	6468
1356.552	6448
1358.806	6428
1361.059	6504
1363.312	6486
1365.564	6355
1367.818	6588
1370.069	6458
1372.318	6447
1374.568	6398
1376.817	6592
1379.066	6493
1381.316	6608
1383.564	6658
1385.809	6720
1388.056	6522
1390.301	6582
1392.549	6601
1394.793	6612
1397.036	6629
1399.279	6691
1401.522	6744
1403.763	6756
1406.007	6808
1408.248	6801
1410.487	6723
1412.727	6771
1414.965	6801
1417.205	6640
1419.442	6728
1421.68	6714
1423.915	6723
1426.152	6732
1428.388	6544
1430.623	6745
1432.857	6822
1435.091	6690
1437.323	6791
1439.556	6846
1441.789	6811
1444.019	6861
1446.25	6933
1448.48	6821
1450.708	6823
1452.938	6836
1455.167	7068
1457.394	7010
1459.62	6943
1461.846	6914
1464.073	6860
1466.299	6881
1468.523	6789
1470.746	6755
1472.969	6709
1475.191	6705
1477.415	6605
1479.636	6631
1481.858	6642
1484.078	6546
1486.298	6596
1488.518	6519
1490.736	6504
1492.954	6610
1495.169	6446
1497.386	6472
1499.602	6488
1501.819	6499
1504.034	6550
1506.248	6421
1508.462	6514
1510.675	6381
1512.888	6416
1515.1	6612
1517.311	6531
1519.522	6457
1521.732	6444
1523.942	6586
1526.151	6381
1528.36	6517
1530.566	6346
1532.773	6425
1534.98	6613
1537.187	6517
1539.392	6554
1541.596	6545
1543.801	6585
1546.005	6558
1548.208	6532
1550.411	6697
1552.612	6641
1554.814	6570
1557.013	6658
1559.212	6719
1561.414	6597
1563.612	6666
1565.811	6618
1568.007	6587
1570.203	6662
1572.403	6633
1574.598	6651
1576.792	6565
1578.988	6620
1581.181	6727
1583.376	6762
1585.568	6660
1587.761	6715
1589.952	6571
1592.143	6877
1594.333	6630
1596.524	6644
1598.715	6831
1600.903	6720
1603.091	6677
1605.278	6810
1607.466	6682
1609.652	6872
1611.838	6722
1614.023	6710
1616.207	6729
1618.391	6758
1620.576	6786
1622.759	6749
1624.941	6801
1627.123	6823
1629.304	6882
1631.484	6797
1633.664	6844
1635.844	6874
1638.022	6784
1640.201	6889
1642.38	6782
1644.556	6870
1646.732	6895
1648.908	6811
1651.084	6883
1653.257	6927
1655.433	6953
1657.607	6931
1659.779	6837
1661.951	6805
1664.122	6867
1666.295	6914
1668.467	6841
1670.635	6990
1672.805	6937
1674.973	6911
1677.142	6870
1679.31	7039
1681.478	6975
1683.644	6972
1685.81	6899
1687.975	6927
1690.142	6911
1692.305	6853
1694.468	6828
1696.632	6843
1698.794	6793
1700.957	6812
1703.119	6815
1705.279	6676
1707.439	6792
1709.598	6669
1711.758	6837
1713.917	6768
1716.075	6727
1718.231	6635
1720.388	6792
1722.543	6723
1724.702	6694
1726.856	6720
1729.01	6684
1731.164	6659
1733.317	6795
1735.471	6733
1737.623	6700
1739.774	6686
1741.925	6754
1744.075	6744
1746.225	6752
1748.376	6777
1750.524	6731
1752.672	6733
1754.82	6796
1756.965	6770
1759.113	6693
1761.259	6734
1763.405	6694
1765.549	6774
1767.694	6743
1769.836	6753
1771.981	6738
1774.123	6735
1776.264	6703
1778.405	6830
1780.546	6765
1782.687	6713
1784.827	6779
1786.966	6735
1789.103	6764
1791.242	6865
1793.381	6817
1795.517	6648
1797.653	6772
1799.788	6650
1801.923	6749
1804.057	6836
1806.193	6780
1808.326	6795
1810.457	6836
1812.59	6804
1814.721	6733
1816.855	6655
1818.984	6834
1821.113	6821
1823.244	6736
1825.372	6798
1827.499	6722
1829.63	6759
1831.756	6690
1833.882	6802
1836.007	6628
1838.132	6756
1840.26	6626
1842.384	6758
1844.507	6747
1846.63	6764
1848.752	6779
1850.875	6672
1852.996	6762
1855.118	6573
1857.238	6798
1859.358	6708
1861.477	6660
1863.597	6582
1865.715	6595
1867.832	6675
1869.948	6681
1872.064	6709
1874.181	6687
1876.297	6673
1878.411	6607
1880.526	6787
1882.639	6737
1884.752	6683
1886.865	6726
1888.977	6808
1891.089	6680
1893.2	6743
1895.308	6812
1897.42	6809
1899.53	6688
1901.639	6745
1903.745	6831
1905.853	6742
1907.962	6759
1910.067	6821
1912.174	6817
1914.278	6791
1916.383	6685
1918.486	6697
1920.592	6813
1922.694	6762
1924.797	6768
1926.898	6791
1929	6837
1931.102	6667
1933.203	6733
1935.301	6760
1937.401	6749
1939.499	6827
1941.598	6764
1943.697	6778
1945.793	6764
1947.888	6807
1949.985	6756
1952.08	6772
1954.176	6700
1956.269	6725
1958.364	6804
1960.457	6762
1962.549	6731
1964.642	6895
1966.733	6836
1968.823	6805
1970.913	6730
1973.005	6719
1975.093	6734
1977.184	6724
1979.271	6664
1981.359	6830
1983.446	6790
1985.532	6813
1987.619	6798
1989.705	6830
1991.789	6701
1993.874	6852
1995.956	6738
1998.041	6728
2000.123	6674
2002.206	6808
2004.287	6691
2006.368	6708
2008.449	6738
2010.529	6709
2012.609	6679
2014.688	6796
2016.766	6688
2018.843	6671
2020.922	6693
2022.999	6707
2025.074	6806
2027.15	6659
2029.225	6690
2031.299	6669
2033.375	6732
2035.447	6797
2037.52	6695
2039.592	6801
2041.664	6625
2043.736	6613
2045.807	6633
2047.876	6730
2049.947	6789
2052.015	6703
2054.086	6696
2056.153	6725
2058.221	6727
2060.288	6668
2062.353	6670
2064.42	6666
2066.486	6751
2068.55	6657
2070.614	6727
2072.678	6837
2074.741	6710
2076.805	6742
2078.866	6817
2080.929	6758
2082.99	6746
2085.049	6762
2087.109	6781
2089.17	6660
2091.228	6628
2093.286	6778
2095.344	6664
2097.4	6614
2099.46	6767
2101.516	6745
2103.572	6776
2105.626	6750
2107.679	6711
2109.735	6771
2111.788	6735
2113.841	6709
2115.894	6657
2117.945	6723
2119.997	6661
2122.049	6650
2124.1	6713
2126.148	6676
2128.197	6624
2130.246	6721
2132.296	6663
2134.342	6662
2136.39	6761
2138.437	6729
2140.483	6751
2142.527	6802
2144.574	6591
2146.619	6702
2148.661	6759
2150.705	6661
2152.747	6525
2154.792	6610
2156.832	6633
2158.874	6661
2160.915	6619
2162.954	6594
2164.995	6593
2167.034	6575
2169.072	6639
2171.111	6527
2173.148	6602
2175.186	6682
2177.223	6630
2179.258	6619
2181.294	6550
2183.328	6495
2185.362	6613
2187.398	6479
2189.431	6580
2191.463	6581
2193.495	6668
2195.528	6598
2197.56	6486
2199.59	6670
2201.62	6657
2203.649	6507
2205.678	6559
2207.708	6488
2209.737	6531
2211.764	6549
2213.791	6523
2215.817	6488
2217.843	6564
2219.87	6525
2221.895	6587
2223.919	6575
2225.942	6551
2227.966	6467
2229.988	6506
2232.012	6446
2234.032	6593
2236.054	6489
2238.074	6444
2240.095	6443
2242.116	6460
2244.135	6456
2246.153	6502
2248.171	6568
2250.188	6490
2252.208	6347
2254.223	6468
2256.239	6421
2258.255	6468
2260.269	6522
2262.283	6524
2264.3	6443
2266.312	6473
2268.325	6517
2270.336	6557
2272.349	6493
2274.362	6617
2276.372	6605
2278.383	6451
2280.392	6544
2282.402	6527
2284.409	6566
2286.418	6530
2288.427	6476
2290.433	6513
2292.441	6413
2294.446	6497
2296.453	6604
2298.459	6490
2300.463	6435
2302.466	6331
2304.471	6486
2306.475	6452
2308.477	6466
2310.478	6473
2312.481	6507
2314.481	6438
2316.481	6466
2318.482	6396
2320.482	6507
2322.48	6478
2324.48	6337
2326.478	6427
2328.476	6391
2330.473	6433
2332.469	6451
2334.465	6447
2336.46	6460
2338.454	6194
2340.45	6400
2342.444	6368
2344.437	6472
2346.43	6315
2348.421	6473
2350.414	6380
2352.405	6305
2354.396	6346
2356.386	6299
2358.376	6419
2360.366	6261
2362.355	6291
2364.343	6359
2366.331	6222
2368.317	6384
2370.304	6324
2372.292	6259
2374.278	6274
2376.262	6381
2378.247	6344
2380.23	6291
2382.216	6258
2384.199	6331
2386.181	6259
2388.163	6328
2390.144	6096
2392.127	6334
2394.107	6292
2396.087	6252
2398.066	6266
2400.046	6222
2402.023	6224
2404.004	6326
2405.981	6265
2407.957	6240
2409.934	6344
2411.91	6189
2413.886	6230
2415.862	6132
2417.836	6338
2419.809	6161
2421.784	6206
2423.756	6296
2425.73	6242
2427.701	6196
2429.672	6258
2431.644	6191
2433.615	6221
2435.586	6301
2437.555	6330
2439.523	6277
2441.491	6208
2443.459	6240
2445.428	6310
2447.395	6187
2449.361	6259
2451.327	6236
2453.292	6164
2455.257	6108
2457.223	6224
2459.187	6268
2461.15	6166
2463.113	6189
2465.076	6066
2467.039	6272
2468.999	6243
2470.96	6140
2472.921	6150
2474.881	6068
2476.841	6277
2478.8	6102
2480.759	6058
2482.717	6187
2484.675	6210
2486.63	6149
2488.589	6130
2490.545	6135
2492.5	6100
2494.455	6095
2496.408	6138
2498.364	6122
2500.318	6156
2502.27	6048
2504.223	6126
2506.174	6261
2508.126	6111
2510.078	6151
2512.03	6171
2513.979	6129
2515.927	6113
2517.877	6117
2519.826	6195
2521.775	6082
2523.722	6114
2525.668	6147
2527.616	6043
2529.561	6070
2531.508	6165
2533.452	6077
2535.398	6174
2537.342	6036
2539.284	6043
2541.229	6038
2543.173	6027
2545.114	6098
2547.055	6028
2548.996	6163
2550.938	6099
2552.878	6223
2554.817	6097
2556.756	6041
2558.695	6163
2560.633	6042
2562.572	6166
2564.509	6043
2566.445	6243
2568.382	6083
2570.317	6156
2572.254	6087
2574.189	6182
2576.123	5986
2578.057	6140
2579.99	6036
2581.923	6032
2583.855	6038
2585.788	6054
2587.719	5953
2589.65	6113
2591.579	6112
2593.511	6021
2595.44	5994
2597.37	6140
2599.297	6048
2601.225	6156
2603.153	6083
2605.08	6095
2607.007	6202
2608.932	6066
2610.858	6065
2612.782	6106
2614.709	5990
2616.632	6086
2618.556	6120
2620.478	6140
2622.401	5972
2624.324	6150
2626.247	6064
2628.167	6102
2630.088	6074
2632.008	6125
2633.928	6101
2635.848	6058
2637.766	6048
2639.684	6115
2641.603	6021
2643.519	5996
2645.437	6082
2647.353	6109
2649.27	6040
2651.184	6037
2653.099	6128
2655.014	6042
2656.928	6035
2658.842	6021
2660.755	6138
2662.667	6224
2664.579	6076
2666.491	6097
2668.402	6166
2670.312	6025
2672.222	6040
2674.132	6036
2676.042	6074
2677.951	6091
2679.859	6099
2681.766	6041
2683.674	5959
2685.582	6049
2687.488	5981
2689.392	6036
2691.298	5980
2693.202	6019
2695.107	5949
2697.012	6057
2698.914	5944
2700.817	5985
2702.72	5986
2704.622	6047
2706.524	5994
2708.425	5962
2710.326	6011
2712.225	5931
2714.125	6003
2716.024	5947
2717.923	5840
2719.822	6025
2721.719	5841
2723.616	5851
2725.512	5995
2727.41	5948
2729.305	6015
2731.201	5923
2733.095	5911
2734.99	5941
2736.884	5914
2738.778	5936
2740.67	5906
2742.562	5917
2744.455	5964
2746.346	5932
2748.238	5913
2750.129	5950
2752.018	5902
2753.907	5955
2755.797	5931
2757.687	5883
2759.575	5897
2761.462	5899
2763.349	5844
2765.237	5796
2767.124	6002
2769.009	5941
2770.894	5925
2772.779	5910
2774.663	5964
2776.547	5928
2778.431	5970
2780.314	5874
2782.197	5920
2784.078	5782
2785.96	5786
2787.842	5925
2789.723	5736
2791.603	5825
2793.483	5869
2795.362	5859
2797.241	5854
2799.121	5761
2800.997	5933
2802.874	5867
2804.751	5799
2806.628	5855
2808.506	5915
2810.38	5853
2812.255	5928
2814.13	5890
2816.003	5815
2817.878	5791
2819.752	5907
2821.623	5822
2823.496	5821
2825.368	5847
2827.238	5878
2829.111	5726
2830.98	5754
2832.851	5853
2834.719	5915
2836.589	5850
2838.458	5917
2840.327	5659
2842.193	5830
2844.061	5847
2845.927	5970
2847.794	5907
2849.66	5980
2851.525	5894
2853.39	5900
2855.254	5888
2857.117	5901
2858.983	5998
2860.845	6044
2862.707	5939
2864.569	6068
2866.431	6059
2868.293	5970
2870.154	6065
2872.013	6122
2873.873	6214
2875.733	6211
2877.592	6209
2879.451	6254
2881.309	6322
2883.166	6369
2885.022	6407
2886.879	6408
2888.736	6476
2890.591	6490
2892.446	6402
2894.301	6509
2896.155	6374
2898.009	6390
2899.863	6361
2901.716	6370
2903.568	6407
2905.419	6353
2907.27	6355
2909.123	6360
2910.973	6279
2912.824	6367
2914.673	6507
2916.521	6525
2918.372	6531
2920.22	6545
2922.067	6588
2923.914	6695
2925.761	6840
2927.607	6826
2929.455	6931
2931.301	6896
2933.144	6952
2934.99	7049
2936.833	7091
2938.678	7153
2940.522	7076
2942.364	7103
2944.207	7291
2946.048	7286
2947.891	7409
2949.731	7275
2951.571	7187
2953.412	7246
2955.25	7312
2957.09	7100
2958.93	7058
2960.767	7044
2962.606	7010
2964.443	6898
2966.279	6917
2968.116	6697
2969.953	6706
2971.788	6696
2973.623	6684
2975.457	6578
2977.292	6510
2979.127	6558
2980.959	6522
2982.792	6437
2984.624	6458
2986.455	6337
2988.288	6382
2990.119	6454
2991.949	6318
2993.779	6324
2995.608	6295
2997.439	6191
2999.268	6223
3001.096	6256
3002.923	6201
3004.751	6001
3006.578	5976
3008.406	5984
3010.232	5873
3012.057	5832
3013.883	5791
3015.706	5818
3017.532	5641
3019.356	5741
3021.179	5585
3023.002	5650
3024.823	5671
3026.646	5631
3028.469	5572
3030.289	5573
3032.11	5640
3033.93	5620
3035.749	5512
3037.57	5589
3039.39	5509
3041.207	5463
3043.026	5541
3044.842	5676
3046.661	5487
3048.477	5519
3050.294	5507
3052.109	5545
3053.925	5469
3055.739	5504
3057.555	5527
3059.368	5501
3061.181	5430
3062.995	5453
3064.807	5540
3066.62	5450
3068.433	5485
3070.243	5519
3072.054	5536
3073.865	5540
3075.675	5458
3077.485	5410
3079.293	5495
3081.102	5426
3082.911	5529
3084.719	5282
3086.527	5461
3088.333	5386
3090.139	5394
3091.945	5322
3093.75	5398
3095.557	5276
3097.361	5275
3099.165	5206
3100.969	5383
3102.772	5188
3104.575	5283
3106.379	5266
3108.181	5250
3109.982	5322
3111.783	5287
3113.584	5257
3115.386	5178
3117.186	5301
3118.985	5320
3120.783	5301
3122.582	5281
3124.381	5224
3126.179	5127
3127.975	5275
3129.772	5213
3131.569	5221
3133.365	5273
3135.161	5152
3136.956	5079
3138.751	5236
3140.544	5206
3142.338	5329
3144.132	5241
3145.925	5147
3147.717	5242
3149.509	5183
3151.301	5217
3153.091	5187
3154.884	5245
3156.673	5173
3158.462	5071
3160.252	5181
3162.041	5128
3163.831	5014
3165.618	5098
3167.405	5126
3169.193	5226
3170.979	5052
3172.767	5181
3174.553	5119
3176.338	5158
3178.123	5176
3179.907	5082
3181.692	5176
3183.477	5128
3185.259	5239
3187.042	5093
3188.824	4979
3190.607	5092
3192.389	5146
3194.17	5128
3195.951	5031
3197.73	5152
3199.51	5136
3201.289	5179
3203.07	5104
3204.848	5151
3206.626	5161
3208.403	5184
3210.18	5172
3211.959	5058
3213.735	5111
3215.511	5015
3217.285	5134
3219.06	5163
3220.836	5091
3222.611	5052
3224.384	5071
3226.158	5125
3227.929	5077
3229.702	5080
3231.476	5041
3233.248	5029
3235.018	5062
3236.789	5149
3238.56	5174
3240.33	5071
3242.1	5050
3243.869	5025
3245.637	5127
3247.405	5067
3249.172	5042
3250.941	5077
3252.707	5090
3254.474	5031
3256.24	5165
3258.006	5111
3259.772	5020
3261.537	5003
3263.301	5044
3265.065	5145
3266.828	5029
3268.592	5123
3270.355	5122
3272.117	5048
3273.878	5020
3275.64	5043
3277.401	5175
3279.162	5076
3280.922	5003
3282.682	5123
3284.441	5118
3286.199	5139
3287.959	5060
3289.716	5061
3291.475	5095
3293.232	5142
3294.988	5078
3296.744	5051
3298.501	5149
3300.256	5131
3302.011	5089
3303.766	5033
3305.52	5123
3307.275	5010
3309.028	5083
3310.781	5129
3312.533	5086
3314.285	5022
3316.038	5057
3317.789	5113
3319.54	5081
3321.289	5076
3323.039	5124
3324.789	5087
3326.539	5124
3328.288	4986
3330.035	5125
3331.783	5017
3333.531	5038
3335.28	4946
3337.025	5072
3338.771	5054
3340.518	5094
3342.262	4972
3344.009	5064
3345.753	5066
3347.497	4961
3349.24	4930
3350.983	4891
3352.726	4994
3354.469	4987
3356.212	4993
3357.952	4949
3359.694	4906
3361.434	4959
3363.176	4922
3364.916	5031
3366.654	4946
3368.394	4991
3370.132	4908
3371.871	4895
3373.61	4938
3375.346	4905
3377.083	4887
3378.82	4904
3380.556	4863
3382.292	4891
3384.027	4873
3385.763	4814
3387.497	4865
3389.231	4924
3390.965	4905
3392.698	4774
3394.431	4873
3396.164	4855
3397.896	4960
3399.627	4874
3401.36	4837
3403.09	4861
3404.82	4820
3406.55	4895
3408.279	4730
3410.01	4826
3411.738	4836
3413.467	4804
3415.194	4794
3416.92	4834
3418.647	4749
3420.375	4770
3422.102	4829
3423.827	4734
3425.553	4793
3427.277	4798
3429.003	4758
3430.727	4740
3432.451	4842
3434.173	4770
3435.896	4612
3437.62	4735
3439.343	4693
3441.063	4764
3442.785	4744
3444.505	4748
3446.226	4682
3447.948	4738
3449.666	4625
3451.386	4697
3453.104	4686
3454.823	4640
3456.541	4688
3458.259	4551
3459.976	4589
3461.693	4595
3463.408	4677
3465.125	4662
3466.841	4653
3468.556	4558
3470.271	4608
3471.985	4722
3473.698	4617
3475.414	4584
3477.126	4512
3478.838	4523
3480.55	4571
3482.263	4564
3483.975	4543
3485.686	4570
3487.396	4585
3489.106	4481
3490.817	4556
3492.526	4583
3494.236	4453
3495.944	4531
3497.652	4475
3499.359	4449
3501.066	4512
3502.775	4496
3504.481	4436
3506.187	4415
3507.893	4489
3509.598	4446
3511.304	4435
3513.009	4473
3514.713	4449
3516.417	4357
3518.12	4473
3519.821	4467
3521.525	4482
3523.228	4502
3524.929	4501
3526.631	4363
3528.33	4454
3530.032	4443
3531.733	4452
3533.433	4324
3535.131	4351
3536.83	4377
3538.529	4345
3540.227	4342
3541.925	4397
3543.623	4292
3545.319	4436
3547.016	4378
3548.712	4338
3550.408	4401
3552.103	4376
3553.798	4379
3555.491	4365
3557.188	4286
3558.88	4405
3560.574	4306
3562.266	4298
3563.959	4330
3565.651	4177
3567.343	4201
3569.035	4280
3570.725	4332
3572.415	4244
3574.106	4222
3575.797	4274
3577.485	4297
3579.174	4221
3580.863	4223
3582.551	4270
3584.238	4180
3585.926	4248
3587.613	4247
3589.3	4196
3590.986	4200
3592.671	4167
3594.357	4184
3596.042	4137
3597.726	4103
3599.41	4109
3601.094	4105
3602.778	4220
3604.461	4187
3606.143	4165
3607.825	4041
3609.507	4117
3611.188	4109
3612.87	4046
3614.551	4093
3616.229	4050
3617.909	4070
3619.589	4049
3621.269	4017
3622.948	4089
3624.625	4013
3626.302	4048
3627.98	4024
3629.657	4042
3631.334	4042
3633.01	4031
3634.686	3960
3636.361	3961
3638.036	4036
3639.712	3963
3641.385	3971
3643.06	3957
3644.732	3914
3646.405	4051
3648.08	4030
3649.751	4061
3651.424	3971
3653.094	3964
3654.766	3993
3656.436	4000
3658.106	3921
3659.777	3932
3661.446	3918
3663.115	3921
3664.783	3926
3666.452	3945
3668.121	3913
3669.788	3910
3671.454	3889
3673.121	3939
3674.789	3928
3676.455	3929
3678.12	3915
3679.784	3919
3681.45	3892
3683.114	3945
3684.779	3880
3686.442	3850
3688.105	3871
3689.768	3885
3691.43	3863
3693.093	3947
3694.754	3815
3696.415	3847
3698.076	3865
3699.736	3871
3701.396	3805
3703.057	3793
3704.716	3832
3706.375	3874
3708.034	3847
3709.692	3809
3711.351	3832
3713.008	3810
3714.665	3907
3716.321	3827
3717.977	3849
3719.634	3842
3721.29	3720
3722.945	3784
3724.598	3761
3726.253	3739
3727.907	3796
3729.561	3845
3731.214	3851
3732.867	3706
3734.518	3842
3736.171	3720
3737.824	3785
3739.474	3836
3741.125	3856
3742.775	3763
3744.425	3745
3746.074	3770
3747.725	3798
3749.373	3767
3751.022	3711
3752.669	3793
3754.318	3735
3755.966	3731
3757.612	3733
3759.259	3679
3760.905	3799
3762.55	3729
3764.197	3749
3765.842	3745
3767.486	3665
3769.131	3659
3770.774	3707
3772.417	3769
3774.061	3732
3775.705	3636
3777.347	3650
3778.988	3661
3780.629	3757
3782.271	3682
3783.912	3614
3785.552	3663
3787.192	3709
3788.831	3605
3790.472	3616
3792.112	3676
3793.75	3611
3795.388	3608
3797.024	3637
3798.661	3690
3800.3	3621
3801.936	3618
3803.572	3619
3805.208	3634
3806.844	3618
3808.48	3625
3810.115	3589
3811.748	3583
3813.382	3687
3815.016	3565
3816.649	3575
3818.283	3615
3819.914	3631
3821.547	3555
3823.178	3574
3824.809	3501
3826.441	3580
3828.072	3620
3829.701	3563
3831.331	3603
3832.96	3581
3834.591	3479
3836.219	3603
3837.847	3575
3839.475	3547
3841.102	3543
3842.729	3469
3844.357	3517
3845.984	3543
3847.609	3582
3849.234	3530
3850.86	3518
3852.485	3524
3854.11	3513
3855.734	3535
3857.357	3492
3858.981	3523
3860.603	3580
3862.227	3463
3863.848	3416
3865.471	3512
3867.092	3525
3868.713	3507
3870.334	3453
3871.954	3465
3873.575	3497
3875.194	3410
3876.813	3361
3878.433	3441
3880.051	3489
3881.669	3442
3883.286	3516
3884.904	3381
3886.52	3463
3888.138	3463
3889.754	3415
3891.37	3452
3892.985	3484
3894.6	3507
3896.216	3474
3897.831	3425
3899.444	3451
3901.058	3397
3902.67	3453
3904.283	3392
3905.897	3365
3907.509	3482
3909.121	3432
3910.731	3350
3912.342	3453
3913.954	3447
3915.563	3407
3917.174	3351
3918.783	3298
3920.391	3422
3922.002	3450
3923.611	3451
3925.218	3362
3926.826	3435
3928.432	3347
3930.039	3431
3931.647	3319
3933.253	3430
3934.859	3453
3936.464	3315
3938.068	3383
3939.675	3386
3941.278	3330
3942.883	3428
3944.486	3339
3946.089	3402
3947.692	3414
3949.295	3352
3950.898	3298
3952.499	3327
3954.1	3334
3955.7	3299
3957.303	3383
3958.903	3341
3960.502	3283
3962.101	3292
3963.7	3260
3965.301	3300
3966.899	3342
3968.497	3309
3970.094	3296
3971.691	3303
3973.288	3348
3974.885	3249
3976.481	3295
3978.077	3336
3979.672	3208
3981.267	3278
3982.863	3276
3984.457	3272
3986.051	3259
3987.645	3254
3989.238	3250
3990.831	3271
3992.425	3169
3994.017	3273
3995.607	3252
3997.199	3290
3998.79	3258
4000.382	3236
4001.973	3278
4003.561	3241
4005.151	3245
4006.741	3165
4008.331	3218
4009.918	3215
4011.507	3139
4013.095	3167
4014.681	3142
4016.269	3193
4017.856	3172
4019.443	3142
4021.028	3190
4022.614	3114
4024.199	3216
4025.785	3164
4027.37	3150
4028.953	3169
4030.536	3097
4032.12	3141
4033.704	3107
4035.287	3170
4036.869	3119
4038.45	3078
4040.032	3104
4041.613	3132
4043.195	3117
4044.776	3165
4046.356	3066
4047.935	3127
4049.515	3093
4051.095	3139
4052.674	3094
4054.251	3141
4055.829	3122
4057.406	3109
4058.985	3031
4060.562	3095
4062.139	3067
4063.715	3012
4065.29	3078
4066.865	3018
4068.442	3097
4070.016	3055
4071.59	3084
4073.164	3085
4074.738	3042
4076.312	3073
4077.885	3010
4079.458	3075
4081.03	3034
4082.602	3039
4084.173	3026
4085.745	3120
4087.315	3054
4088.886	3048
4090.456	3073
4092.026	3027
4093.596	3045
4095.165	3017
4096.734	3015
4098.301	2958
4099.869	2998
4101.437	3063
4103.006	2975
4104.572	2959
4106.139	2991
4107.704	2981
4109.27	2935
4110.837	2913
4112.401	2974
4113.966	3022
4115.53	2918
4117.094	2987
4118.659	2991
4120.223	2940
4121.785	2949
4123.347	2990
4124.909	2997
4126.471	2951
4128.034	3020
4129.595	2998
4131.155	2924
4132.716	2967
4134.275	2966
4135.836	2953
4137.395	2925
4138.955	2875
4140.513	2943
4142.071	2889
4143.628	2906
4145.188	2920
4146.745	2914
4148.302	2839
4149.858	2838
4151.414	2875
4152.971	2893
4154.526	2901
4156.081	2865
4157.635	2852
4159.189	2928
4160.745	2894
4162.298	2872
4163.852	2915
4165.405	2825
4166.957	2821
4168.51	2787
4170.063	2863
4171.614	2856
4173.166	2779
4174.717	2805
4176.267	2815
4177.817	2883
4179.368	2807
4180.917	2804
4182.466	2808
4184.016	2867
4185.564	2815
4187.112	2816
4188.66	2753
4190.207	2827
4191.754	2819
4193.301	2699
4194.848	2858
4196.394	2757
4197.94	2840
4199.484	2801
4201.03	2812
4202.575	2782
4204.12	2762
4205.663	2804
4207.207	2819
4208.75	2803
4210.292	2763
4211.836	2801
4213.378	2731
4214.92	2735
4216.46	2740
4218.002	2755
4219.544	2708
4221.083	2714
4222.625	2736
4224.164	2818
4225.703	2681
4227.244	2720
4228.782	2731
4230.32	2768
4231.857	2750
4233.395	2694
4234.933	2749
4236.471	2766
4238.007	2719
4239.542	2695
4241.078	2722
4242.614	2763
4244.15	2764
4245.685	2735
4247.219	2736
4248.753	2733
4250.287	2744
4251.82	2734
4253.354	2716
4254.887	2715
4256.419	2657
4257.951	2708
4259.483	2737
4261.016	2730
4262.547	2720
4264.078	2734
4265.608	2703
4267.137	2723
4268.668	2663
4270.197	2685
4271.727	2719
4273.254	2680
4274.783	2733
4276.311	2682
4277.84	2656
4279.366	2604
4280.894	2729
4282.42	2656
4283.946	2600
4285.473	2641
4286.998	2669
4288.523	2632
4290.047	2672
4291.572	2654
4293.096	2567
4294.622	2685
4296.144	2592
4297.668	2627
4299.19	2632
4300.713	2689
4302.236	2618
4303.758	2622
4305.279	2646
4306.799	2637
4308.321	2619
4309.842	2668
4311.361	2591
4312.882	2585
4314.401	2656
