400.0961	3261
402.6185	3278
405.1424	3348
407.6635	3311
410.1838	3293
412.7035	3373
415.2225	3405
417.7388	3394
420.2585	3393
422.7754	3506
425.2917	3480
427.8072	3460
430.3221	3498
432.8363	3535
435.3498	3493
437.8626	3556
440.3727	3505
442.8841	3482
445.3969	3548
447.907	3497
450.4142	3509
452.9229	3542
455.4289	3407
457.9362	3453
460.4449	3455
462.9488	3476
465.454	3586
467.9566	3480
470.4604	3505
472.9637	3495
475.4662	3485
477.966	3525
480.4671	3560
482.9656	3524
485.4633	3563
487.9645	3553
490.4608	3539
492.9566	3506
495.4536	3554
497.948	3523
500.4437	3584
502.9387	3472
505.431	3538
507.9226	3499
510.4136	3564
512.9079	3533
515.3975	3558
517.8864	3562
520.3746	3638
522.8622	3510
525.3491	3527
527.8394	3537
530.3249	3544
532.8098	3628
535.2939	3605
537.7774	3572
540.2623	3696
542.7444	3646
545.2259	3562
547.7067	3623
550.1868	3637
552.6683	3637
555.147	3641
557.6231	3553
560.1005	3588
562.5773	3554
565.0534	3590
567.5308	3755
570.0056	3770
572.4776	3754
574.951	3677
577.4237	3781
579.8978	3774
582.3671	3749
584.8378	3811
587.3079	3780
589.7773	3766
592.244	3811
594.714	3766
597.1793	3823
599.6461	3713
602.1121	3759
604.5754	3693
607.0421	3760
609.5042	3690
611.9675	3770
614.4282	3776
616.8902	3708
619.3515	3626
621.8122	3637
624.2702	3789
626.7296	3722
629.1863	3630
631.6423	3736
634.1017	3727
636.5563	3699
639.0104	3636
641.4658	3698
643.9185	3687
646.3725	3699
648.8239	3684
651.2766	3667
653.7266	3682
656.176	3759
658.6247	3725
661.0748	3673
663.5242	3675
665.9709	3746
668.417	3700
670.8624	3769
673.3092	3716
675.7533	3736
678.1968	3787
680.6395	3808
683.0817	3768
685.5251	3790
687.9659	3828
690.4061	3858
692.8456	3845
695.2844	3846
697.7226	3845
700.1621	3859
702.599	3725
705.0332	3887
707.4688	3895
709.9036	3864
712.3399	3964
714.7735	3895
717.2044	3981
719.6367	3980
722.0683	3871
724.4993	3866
726.9296	3859
729.3593	3876
731.7883	3969
734.2147	3963
736.6423	4008
739.0714	3980
741.4958	4052
743.9216	4014
746.3447	3961
748.7691	3942
751.1929	4114
753.616	3932
756.0366	4022
758.4584	4046
760.8776	4074
763.2982	4001
765.718	4099
768.1373	4020
770.5539	4099
772.9698	4031
775.3871	4062
777.8038	4039
780.2178	4004
782.6332	4068
785.0459	4035
787.458	4037
789.8714	4092
792.2842	4039
794.6943	4057
797.1038	4081
799.5127	4066
801.9209	4116
804.3324	4101
806.7393	4141
809.1456	4138
811.5513	4150
813.9562	4112
816.3625	4085
818.7663	4197
821.1693	4098
823.5718	4146
825.9735	4129
828.3746	4152
830.7771	4077
833.177	4208
835.5762	4079
837.9747	4200
840.3727	4147
842.772	4191
845.1666	4087
847.5626	4261
849.958	4367
852.3527	4306
854.7488	4284
857.1403	4321
859.5331	4350
861.9253	4240
864.3168	4207
866.7057	4301
869.098	4222
871.4876	4265
873.8746	4190
876.263	4329
878.6487	4264
881.0378	4178
883.4243	4155
885.8081	4280
888.1933	4227
890.5759	4236
892.9598	4249
895.343	4271
897.7256	4295
900.1057	4243
902.4871	4195
904.8659	4238
907.246	4272
909.6254	4227
912.0023	4371
914.3786	4361
916.7562	4413
919.1331	4523
921.5074	4555
923.8831	4571
926.2562	4675
928.6287	4585
931.0005	4503
933.3757	4531
935.7462	4561
938.1162	4512
940.4855	4603
942.8542	4648
945.2242	4674
947.5916	4784
949.9584	4831
952.3266	5071
954.6921	5353
957.0571	5477
959.4233	5693
961.787	5812
964.15	5700
966.5125	5563
968.8742	5306
971.2354	5032
973.5959	4762
975.9559	4582
978.3151	4583
980.6738	4490
983.0338	4389
985.3912	4463
987.7461	4407
990.1022	4385
992.4578	4386
994.8127	4355
997.1689	4390
999.5207	4440
1001.874	4410
1004.226	4428
1006.576	4482
1008.929	4488
1011.28	4381
1013.628	4417
1015.977	4405
1018.324	4493
1020.674	4416
1023.019	4420
1025.366	4464
1027.713	4419
1030.056	4463
1032.399	4454
1034.746	4487
1037.087	4536
1039.431	4563
1041.771	4560
1044.113	4564
1046.454	4499
1048.793	4576
1051.133	4531
1053.471	4437
1055.807	4477
1058.146	4486
1060.483	4601
1062.818	4501
1065.153	4556
1067.489	4682
1069.822	4687
1072.156	4558
1074.488	4668
1076.82	4524
1079.15	4644
1081.48	4586
1083.814	4615
1086.143	4503
1088.471	4487
1090.799	4618
1093.126	4518
1095.452	4482
1097.78	4447
1100.105	4522
1102.43	4606
1104.754	4539
1107.077	4553
1109.4	4450
1111.722	4587
1114.044	4498
1116.365	4534
1118.685	4419
1121.005	4423
1123.324	4652
1125.643	4469
1127.961	4541
1130.278	4506
1132.595	4567
1134.911	4526
1137.226	4405
1139.541	4482
1141.854	4616
1144.167	4535
1146.482	4504
1148.793	4545
1151.105	4500
1153.414	4414
1155.725	4477
1158.033	4561
1160.344	4445
1162.651	4466
1164.959	4524
1167.265	4432
1169.572	4512
1171.878	4549
1174.184	4532
1176.488	4512
1178.79	4579
1181.094	4590
1183.396	4471
1185.699	4545
1188.001	4546
1190.301	4519
1192.6	4506
1194.9	4517
1197.2	4453
1199.497	4526
1201.794	4507
1204.09	4476
1206.387	4551
1208.684	4524
1210.978	4432
1213.272	4466
1215.565	4575
1217.858	4510
1220.15	4520
1222.443	4565
1224.734	4640
1227.024	4566
1229.313	4649
1231.602	4726
1233.892	4534
1236.18	4668
1238.467	4658
1240.754	4677
1243.04	4797
1245.325	4711
1247.612	4720
1249.896	4739
1252.178	4843
1254.461	4755
1256.743	4759
1259.027	4769
1261.308	4762
1263.587	4701
1265.867	4831
1268.146	4778
1270.425	4804
1272.703	4771
1274.981	4729
1277.256	4655
1279.532	4715
1281.808	4740
1284.083	4726
1286.358	4684
1288.63	4700
1290.904	4622
1293.175	4655
1295.449	4604
1297.719	4675
1299.99	4729
1302.259	4616
1304.529	4659
1306.798	4655
1309.065	4631
1311.333	4697
1313.599	4686
1315.866	4649
1318.131	4635
1320.396	4741
1322.66	4654
1324.925	4746
1327.187	4681
1329.448	4756
1331.711	4686
1333.974	4707
1336.234	4707
1338.493	4738
1340.752	4674
1343.01	4636
1345.269	4574
1347.526	4642
1349.784	4653
1352.04	4640
1354.295	4626
1356.552	4643
1358.806	4642
1361.059	4580
1363.312	4633
1365.564	4672
1367.818	4631
1370.069	4672
1372.318	4730
1374.568	4742
1376.817	4709
1379.066	4610
1381.316	4659
1383.564	4664
1385.809	4694
1388.056	4644
1390.301	4794
1392.549	4865
1394.793	4960
1397.036	4892
1399.279	4843
1401.522	4932
1403.763	4870
1406.007	4972
1408.248	4860
1410.487	4961
1412.727	4938
1414.965	4960
1417.205	4870
1419.442	4862
1421.68	4867
1423.915	4838
1426.152	4935
1428.388	4847
1430.623	4808
1432.857	4900
1435.091	5005
1437.323	4855
1439.556	4958
1441.789	4946
1444.019	4919
1446.25	4928
1448.48	4839
1450.708	5092
1452.938	5048
1455.167	5065
1457.394	5060
1459.62	5049
1461.846	5083
1464.073	4950
1466.299	4911
1468.523	4834
1470.746	4899
1472.969	4864
1475.191	4875
1477.415	4853
1479.636	4857
1481.858	4796
1484.078	4653
1486.298	4802
1488.518	4719
1490.736	4745
1492.954	4784
1495.169	4655
1497.386	4689
1499.602	4750
1501.819	4789
1504.034	4622
1506.248	4618
1508.462	4657
1510.675	4678
1512.888	4598
1515.1	4652
1517.311	4738
1519.522	4616
1521.732	4614
1523.942	4660
1526.151	4751
1528.36	4740
1530.566	4644
1532.773	4577
1534.98	4655
1537.187	4680
1539.392	4692
1541.596	4733
1543.801	4748
1546.005	4706
1548.208	4694
1550.411	4693
1552.612	4794
1554.814	4772
1557.013	4710
1559.212	4788
1561.414	4800
1563.612	4806
1565.811	4743
1568.007	4765
1570.203	4862
1572.403	4842
1574.598	4852
1576.792	4817
1578.988	4853
1581.181	4792
1583.376	4792
1585.568	4890
1587.761	4748
1589.952	4730
1592.143	4737
1594.333	4758
1596.524	4851
1598.715	4867
1600.903	4749
1603.091	4805
1605.278	4879
1607.466	4814
1609.652	4816
1611.838	4919
1614.023	4907
1616.207	4808
1618.391	4820
1620.576	4845
1622.759	4929
1624.941	4910
1627.123	4885
1629.304	4837
1631.484	4851
1633.664	4972
1635.844	4884
1638.022	4973
1640.201	4860
1642.38	4917
1644.556	4893
1646.732	4913
1648.908	4862
1651.084	4997
1653.257	4878
1655.433	4987
1657.607	4924
1659.779	4986
1661.951	5019
1664.122	5083
1666.295	5004
1668.467	4999
1670.635	5079
1672.805	4967
1674.973	5036
1677.142	5051
1679.31	5117
1681.478	5014
1683.644	4984
1685.81	4986
1687.975	5045
1690.142	4982
1692.305	4928
1694.468	4928
1696.632	4860
1698.794	4956
1700.957	4769
1703.119	4822
1705.279	4792
1707.439	4889
1709.598	4864
1711.758	4793
1713.917	4912
1716.075	4774
1718.231	4755
1720.388	4736
1722.543	4825
1724.702	4911
1726.856	4788
1729.01	4823
1731.164	4784
1733.317	4844
1735.471	4869
1737.623	4691
1739.774	4848
1741.925	4841
1744.075	4739
1746.225	4759
1748.376	4751
1750.524	4797
1752.672	4818
1754.82	4828
1756.965	4924
1759.113	4783
1761.259	4774
1763.405	4824
1765.549	4805
1767.694	4868
1769.836	4929
1771.981	4813
1774.123	4852
1776.264	4843
1778.405	4834
1780.546	4986
1782.687	4907
1784.827	4819
1786.966	4957
1789.103	4835
1791.242	4871
1793.381	4825
1795.517	4735
1797.653	4927
1799.788	4843
1801.923	4957
1804.057	4911
1806.193	4912
1808.326	4853
1810.457	4883
1812.59	4871
1814.721	4928
1816.855	4889
1818.984	4889
1821.113	4805
1823.244	4853
1825.372	4895
1827.499	4822
1829.63	4762
1831.756	4921
1833.882	4854
1836.007	4927
1838.132	4833
1840.26	4883
1842.384	4959
1844.507	4849
1846.63	4856
1848.752	4812
1850.875	4897
1852.996	4842
1855.118	4761
1857.238	4839
1859.358	4881
1861.477	4807
1863.597	4855
1865.715	4837
1867.832	4845
1869.948	4821
1872.064	4753
1874.181	4825
1876.297	4869
1878.411	4785
1880.526	4906
1882.639	4860
1884.752	4853
1886.865	4843
1888.977	4863
1891.089	4932
1893.2	4846
1895.308	4828
1897.42	4941
1899.53	4833
1901.639	4835
1903.745	4860
1905.853	4869
1907.962	4863
1910.067	4826
1912.174	4826
1914.278	4906
1916.383	4928
1918.486	4967
1920.592	4953
1922.694	4957
1924.797	4868
1926.898	4960
1929	4913
1931.102	4893
1933.203	4973
1935.301	4870
1937.401	4914
1939.499	4927
1941.598	4988
1943.697	5015
1945.793	4833
1947.888	4879
1949.985	4951
1952.08	4939
1954.176	4881
1956.269	4852
1958.364	4875
1960.457	4963
1962.549	4859
1964.642	4872
1966.733	4923
1968.823	4948
1970.913	4909
1973.005	4864
1975.093	4947
1977.184	4868
1979.271	4905
1981.359	4982
1983.446	4857
1985.532	4968
1987.619	4954
1989.705	4891
1991.789	4883
1993.874	4802
1995.956	4783
1998.041	4987
2000.123	4839
2002.206	4776
2004.287	4858
2006.368	4766
2008.449	4809
2010.529	4960
2012.609	4918
2014.688	4810
2016.766	4795
2018.843	4893
2020.922	4889
2022.999	4900
2025.074	4853
2027.15	4828
2029.225	4880
2031.299	4780
2033.375	4835
2035.447	4914
2037.52	4840
2039.592	4836
2041.664	4970
2043.736	4813
2045.807	4795
2047.876	4970
2049.947	4811
2052.015	4952
2054.086	4930
2056.153	4918
2058.221	4831
2060.288	4915
2062.353	4887
2064.42	4831
2066.486	4863
2068.55	4855
2070.614	4920
2072.678	4943
2074.741	4883
2076.805	4914
2078.866	4907
2080.929	4963
2082.99	4751
2085.049	4851
2087.109	4915
2089.17	4800
2091.228	4882
2093.286	4907
2095.344	4939
2097.4	4856
2099.46	4856
2101.516	4974
2103.572	4858
2105.626	4847
2107.679	4886
2109.735	4952
2111.788	4872
2113.841	4886
2115.894	4844
2117.945	4821
2119.997	4900
2122.049	4858
2124.1	4929
2126.148	4831
2128.197	4776
2130.246	4932
2132.296	4787
2134.342	4944
2136.39	4839
2138.437	4841
2140.483	4860
2142.527	5002
2144.574	4772
2146.619	4831
2148.661	4875
2150.705	4858
2152.747	4823
2154.792	4854
2156.832	4872
2158.874	4789
2160.915	4781
2162.954	4848
2164.995	4819
2167.034	4766
2169.072	4783
2171.111	4892
2173.148	4806
2175.186	4877
2177.223	4813
2179.258	4853
2181.294	4812
2183.328	4847
2185.362	4797
2187.398	4827
2189.431	4750
2191.463	4809
2193.495	4728
2195.528	4687
2197.56	4820
2199.59	4693
2201.62	4736
2203.649	4770
2205.678	4757
2207.708	4727
2209.737	4715
2211.764	4820
2213.791	4837
2215.817	4783
2217.843	4735
2219.87	4764
2221.895	4770
2223.919	4708
2225.942	4867
2227.966	4852
2229.988	4822
2232.012	4783
2234.032	4732
2236.054	4722
2238.074	4825
2240.095	4805
2242.116	4737
2244.135	4731
2246.153	4780
2248.171	4781
2250.188	4695
2252.208	4801
2254.223	4734
2256.239	4743
2258.255	4794
2260.269	4759
2262.283	4796
2264.3	4726
2266.312	4768
2268.325	4808
2270.336	4767
2272.349	4745
2274.362	4698
2276.372	4798
2278.383	4801
2280.392	4653
2282.402	4815
2284.409	4771
2286.418	4731
2288.427	4796
2290.433	4678
2292.441	4758
2294.446	4694
2296.453	4675
2298.459	4771
2300.463	4820
2302.466	4782
2304.471	4699
2306.475	4772
2308.477	4673
2310.478	4770
2312.481	4831
2314.481	4802
2316.481	4684
2318.482	4735
2320.482	4743
2322.48	4764
2324.48	4736
2326.478	4761
2328.476	4661
2330.473	4755
2332.469	4718
2334.465	4652
2336.46	4639
2338.454	4633
2340.45	4715
2342.444	4673
2344.437	4588
2346.43	4668
2348.421	4548
2350.414	4654
2352.405	4726
2354.396	4708
2356.386	4737
2358.376	4623
2360.366	4518
2362.355	4704
2364.343	4759
2366.331	4657
2368.317	4715
2370.304	4696
2372.292	4647
2374.278	4611
2376.262	4669
2378.247	4620
2380.23	4598
2382.216	4651
2384.199	4524
2386.181	4660
2388.163	4577
2390.144	4672
2392.127	4694
2394.107	4556
2396.087	4590
2398.066	4541
2400.046	4641
2402.023	4623
2404.004	4537
2405.981	4713
2407.957	4627
2409.934	4586
2411.91	4570
2413.886	4564
2415.862	4752
2417.836	4640
2419.809	4572
2421.784	4597
2423.756	4702
2425.73	4691
2427.701	4563
2429.672	4630
2431.644	4570
2433.615	4600
2435.586	4574
2437.555	4655
2439.523	4612
2441.491	4594
2443.459	4639
2445.428	4596
2447.395	4564
2449.361	4626
2451.327	4524
2453.292	4577
2455.257	4488
2457.223	4581
2459.187	4526
2461.15	4497
2463.113	4633
2465.076	4490
2467.039	4611
2468.999	4627
2470.96	4509
2472.921	4570
2474.881	4423
2476.841	4533
2478.8	4553
2480.759	4519
2482.717	4556
2484.675	4532
2486.63	4516
2488.589	4559
2490.545	4602
2492.5	4605
2494.455	4555
2496.408	4592
2498.364	4609
2500.318	4563
2502.27	4480
2504.223	4523
2506.174	4607
2508.126	4568
2510.078	4536
2512.03	4588
2513.979	4396
2515.927	4395
2517.877	4563
2519.826	4499
2521.775	4616
2523.722	4517
2525.668	4573
2527.616	4458
2529.561	4461
2531.508	4611
2533.452	4473
2535.398	4487
2537.342	4528
2539.284	4502
2541.229	4673
2543.173	4559
2545.114	4559
2547.055	4666
2548.996	4527
2550.938	4503
2552.878	4561
2554.817	4497
2556.756	4500
2558.695	4608
2560.633	4557
2562.572	4538
2564.509	4484
2566.445	4491
2568.382	4507
2570.317	4520
2572.254	4537
2574.189	4537
2576.123	4528
2578.057	4500
2579.99	4502
2581.923	4514
2583.855	4507
2585.788	4550
2587.719	4523
2589.65	4510
2591.579	4489
2593.511	4546
2595.44	4544
2597.37	4541
2599.297	4553
2601.225	4563
2603.153	4495
2605.08	4597
2607.007	4493
2608.932	4525
2610.858	4570
2612.782	4469
2614.709	4623
2616.632	4426
2618.556	4548
2620.478	4616
2622.401	4538
2624.324	4574
2626.247	4468
2628.167	4503
2630.088	4512
2632.008	4513
2633.928	4477
2635.848	4516
2637.766	4521
2639.684	4569
2641.603	4592
2643.519	4570
2645.437	4525
2647.353	4547
2649.27	4526
2651.184	4501
2653.099	4585
2655.014	4479
2656.928	4519
2658.842	4589
2660.755	4557
2662.667	4584
2664.579	4546
2666.491	4477
2668.402	4523
2670.312	4498
2672.222	4493
2674.132	4548
2676.042	4492
2677.951	4564
2679.859	4498
2681.766	4480
2683.674	4596
2685.582	4417
2687.488	4552
2689.392	4439
2691.298	4363
2693.202	4509
2695.107	4467
2697.012	4507
2698.914	4561
2700.817	4561
2702.72	4474
2704.622	4496
2706.524	4473
2708.425	4443
2710.326	4457
2712.225	4395
2714.125	4440
2716.024	4410
2717.923	4445
2719.822	4458
2721.719	4469
2723.616	4466
2725.512	4416
2727.41	4429
2729.305	4428
2731.201	4491
2733.095	4519
2734.99	4494
2736.884	4508
2738.778	4572
2740.67	4528
2742.562	4414
2744.455	4406
2746.346	4420
2748.238	4373
2750.129	4365
2752.018	4516
2753.907	4403
2755.797	4357
2757.687	4391
2759.575	4510
2761.462	4376
2763.349	4425
2765.237	4556
2767.124	4402
2769.009	4505
2770.894	4480
2772.779	4477
2774.663	4466
2776.547	4417
2778.431	4361
2780.314	4512
2782.197	4399
2784.078	4399
2785.96	4402
2787.842	4439
2789.723	4392
2791.603	4344
2793.483	4450
2795.362	4364
2797.241	4497
2799.121	4479
2800.997	4423
2802.874	4455
2804.751	4438
2806.628	4355
2808.506	4403
2810.38	4412
2812.255	4395
2814.13	4340
2816.003	4537
2817.878	4398
2819.752	4536
2821.623	4422
2823.496	4446
2825.368	4510
2827.238	4338
2829.111	4462
2830.98	4406
2832.851	4548
2834.719	4406
2836.589	4399
2838.458	4511
2840.327	4491
2842.193	4515
2844.061	4455
2845.927	4459
2847.794	4443
2849.66	4526
2851.525	4520
2853.39	4554
2855.254	4542
2857.117	4497
2858.983	4590
2860.845	4572
2862.707	4568
2864.569	4715
2866.431	4691
2868.293	4679
2870.154	4763
2872.013	4792
2873.873	4840
2875.733	4838
2877.592	4917
2879.451	5013
2881.309	4929
2883.166	5018
2885.022	5065
2886.879	5050
2888.736	5156
2890.591	5179
2892.446	5201
2894.301	5213
2896.155	5068
2898.009	5216
2899.863	5134
2901.716	5091
2903.568	5139
2905.419	5114
2907.27	5066
2909.123	5121
2910.973	5222
2912.824	5215
2914.673	5110
2916.521	5216
2918.372	5290
2920.22	5208
2922.067	5231
2923.914	5252
2925.761	5395
2927.607	5528
2929.455	5525
2931.301	5478
2933.144	5492
2934.99	5584
2936.833	5513
2938.678	5668
2940.522	5629
2942.364	5863
2944.207	5858
2946.048	5874
2947.891	5904
2949.731	5984
2951.571	5947
2953.412	5908
2955.25	5905
2957.09	5792
2958.93	5748
2960.767	5770
2962.606	5629
2964.443	5617
2966.279	5587
2968.116	5487
2969.953	5391
2971.788	5411
2973.623	5297
2975.457	5213
2977.292	5137
2979.127	5056
2980.959	5138
2982.792	4998
2984.624	5054
2986.455	5030
2988.288	4950
2990.119	5054
2991.949	5037
2993.779	4926
2995.608	4912
2997.439	4898
2999.268	4809
3001.096	4667
3002.923	4670
3004.751	4690
3006.578	4653
3008.406	4601
3010.232	4513
3012.057	4500
3013.883	4516
3015.706	4458
3017.532	4502
3019.356	4407
3021.179	4338
3023.002	4383
3024.823	4301
3026.646	4425
3028.469	4310
3030.289	4367
3032.11	4327
3033.93	4306
3035.749	4355
3037.57	4276
3039.39	4412
3041.207	4274
3043.026	4233
3044.842	4351
3046.661	4246
3048.477	4272
3050.294	4167
3052.109	4154
3053.925	4191
3055.739	4237
3057.555	4287
3059.368	4275
3061.181	4149
3062.995	4224
3064.807	4261
3066.62	4275
3068.433	4287
3070.243	4279
3072.054	4133
3073.865	4179
3075.675	4222
3077.485	4188
3079.293	4238
3081.102	4129
3082.911	4129
3084.719	4295
3086.527	4226
3088.333	4136
3090.139	4134
3091.945	4070
3093.75	4100
3095.557	4144
3097.361	4057
3099.165	4127
3100.969	4188
3102.772	4145
3104.575	4186
3106.379	4082
3108.181	3988
3109.982	4057
3111.783	4078
3113.584	4116
3115.386	4086
3117.186	4098
3118.985	4134
3120.783	4147
3122.582	4150
3124.381	4074
3126.179	4048
3127.975	4109
3129.772	4126
3131.569	4009
3133.365	4008
3135.161	4066
3136.956	4111
3138.751	3990
3140.544	4040
3142.338	3994
3144.132	4033
3145.925	3964
3147.717	4027
3149.509	4037
3151.301	4078
3153.091	4023
3154.884	4001
3156.673	4019
3158.462	3937
3160.252	4025
3162.041	4045
3163.831	3961
3165.618	4010
3167.405	3922
3169.193	4110
3170.979	4048
3172.767	3998
3174.553	4031
3176.338	4085
3178.123	4117
3179.907	4048
3181.692	3970
3183.477	4019
3185.259	4084
3187.042	4069
3188.824	4106
3190.607	3892
3192.389	3996
3194.17	4057
3195.951	3983
3197.73	3926
3199.51	3999
3201.289	3953
3203.07	3946
3204.848	3972
3206.626	4054
3208.403	4026
3210.18	3980
3211.959	3968
3213.735	3984
3215.511	4014
3217.285	3954
3219.06	4034
3220.836	4007
3222.611	3953
3224.384	4050
3226.158	4024
3227.929	4026
3229.702	3952
3231.476	3909
3233.248	3993
3235.018	3959
3236.789	3955
3238.56	3956
3240.33	4003
3242.1	4065
3243.869	3928
3245.637	4029
3247.405	4052
3249.172	3997
3250.941	4010
3252.707	3936
3254.474	4038
3256.24	3891
3258.006	4069
3259.772	3943
3261.537	4041
3263.301	3990
3265.065	4005
3266.828	4022
3268.592	3973
3270.355	4015
3272.117	3959
3273.878	3978
3275.64	3970
3277.401	4009
3279.162	3987
3280.922	3941
3282.682	4025
3284.441	3982
3286.199	4013
3287.959	4051
3289.716	3950
3291.475	3987
3293.232	4063
3294.988	3999
3296.744	3971
3298.501	4087
3300.256	4034
3302.011	4042
3303.766	4022
3305.52	4105
3307.275	4116
3309.028	3989
3310.781	3941
3312.533	3977
3314.285	4021
3316.038	3977
3317.789	3951
3319.54	4003
3321.289	4049
3323.039	3996
3324.789	3915
3326.539	4018
3328.288	4044
3330.035	4080
3331.783	3859
3333.531	3985
3335.28	3933
3337.025	3982
3338.771	3919
3340.518	3857
3342.262	3909
3344.009	3872
3345.753	3910
3347.497	3896
3349.24	3942
3350.983	3859
3352.726	3931
3354.469	3942
3356.212	3893
3357.952	3908
3359.694	3943
3361.434	3879
3363.176	3883
3364.916	3945
3366.654	3891
3368.394	3830
3370.132	3969
3371.871	3816
3373.61	3871
3375.346	3892
3377.083	3864
3378.82	3867
3380.556	3826
3382.292	3875
3384.027	3880
3385.763	3903
3387.497	3834
3389.231	3865
3390.965	3845
3392.698	3819
3394.431	3829
3396.164	3821
3397.896	3864
3399.627	3831
3401.36	3769
3403.09	3779
3404.82	3898
3406.55	3793
3408.279	3792
3410.01	3746
3411.738	3788
3413.467	3759
3415.194	3809
3416.92	3874
3418.647	3832
3420.375	3765
3422.102	3763
3423.827	3835
3425.553	3783
3427.277	3760
3429.003	3696
3430.727	3771
3432.451	3815
3434.173	3706
3435.896	3753
3437.62	3784
3439.343	3730
3441.063	3814
3442.785	3763
3444.505	3696
3446.226	3826
3447.948	3691
3449.666	3646
3451.386	3787
3453.104	3716
3454.823	3770
3456.541	3727
3458.259	3640
3459.976	3690
3461.693	3656
3463.408	3659
3465.125	3605
3466.841	3662
3468.556	3633
3470.271	3573
3471.985	3601
3473.698	3598
3475.414	3644
3477.126	3622
3478.838	3613
3480.55	3601
3482.263	3550
3483.975	3647
3485.686	3596
3487.396	3573
3489.106	3705
3490.817	3541
3492.526	3615
3494.236	3578
3495.944	3608
3497.652	3616
3499.359	3474
3501.066	3552
3502.775	3535
3504.481	3515
3506.187	3530
3507.893	3557
3509.598	3499
3511.304	3504
3513.009	3456
3514.713	3458
3516.417	3524
3518.12	3456
3519.821	3489
3521.525	3527
3523.228	3499
3524.929	3433
3526.631	3468
3528.33	3477
3530.032	3426
3531.733	3514
3533.433	3504
3535.131	3412
3536.83	3486
3538.529	3479
3540.227	3395
3541.925	3377
3543.623	3452
3545.319	3440
3547.016	3329
3548.712	3438
3550.408	3393
3552.103	3390
3553.798	3408
3555.491	3444
3557.188	3449
3558.88	3457
3560.574	3375
3562.266	3420
3563.959	3372
3565.651	3355
3567.343	3383
3569.035	3317
3570.725	3312
3572.415	3339
3574.106	3308
3575.797	3346
3577.485	3318
3579.174	3318
3580.863	3402
3582.551	3284
3584.238	3303
3585.926	3346
3587.613	3309
3589.3	3313
3590.986	3276
3592.671	3345
3594.357	3328
3596.042	3338
3597.726	3300
3599.41	3272
3601.094	3268
3602.778	3282
3604.461	3286
3606.143	3225
3607.825	3307
3609.507	3265
3611.188	3234
3612.87	3226
3614.551	3221
3616.229	3223
3617.909	3175
3619.589	3256
3621.269	3251
3622.948	3138
3624.625	3269
3626.302	3232
3627.98	3136
3629.657	3187
3631.334	3206
3633.01	3195
3634.686	3137
3636.361	3147
3638.036	3225
3639.712	3187
3641.385	3172
3643.06	3146
3644.732	3142
3646.405	3186
3648.08	3159
3649.751	3124
3651.424	3108
3653.094	3137
3654.766	3023
3656.436	3119
3658.106	3167
3659.777	3126
3661.446	3056
3663.115	3123
3664.783	3094
3666.452	3215
3668.121	3133
3669.788	3106
3671.454	3073
3673.121	3075
3674.789	3113
3676.455	3040
3678.12	3083
3679.784	3085
3681.45	3112
3683.114	3068
3684.779	3073
3686.442	3029
3688.105	3073
3689.768	3101
3691.43	3060
3693.093	2998
3694.754	3017
3696.415	3110
3698.076	2978
3699.736	3067
3701.396	3107
3703.057	3100
3704.716	3002
3706.375	3140
3708.034	3048
3709.692	3030
3711.351	3035
3713.008	3029
3714.665	3034
3716.321	2960
3717.977	3006
3719.634	3088
3721.29	3047
3722.945	2958
3724.598	3022
3726.253	2992
3727.907	3073
3729.561	3007
3731.214	2981
3732.867	3010
3734.518	2977
3736.171	3004
3737.824	2989
3739.474	2944
3741.125	2932
3742.775	2973
3744.425	2981
3746.074	2958
3747.725	2932
3749.373	2995
3751.022	2994
3752.669	2921
3754.318	2978
3755.966	2911
3757.612	2987
3759.259	2937
3760.905	2926
3762.55	2965
3764.197	2901
3765.842	2920
3767.486	2906
3769.131	2976
3770.774	2893
3772.417	2938
3774.061	2887
3775.705	2875
3777.347	2954
3778.988	2966
3780.629	2885
3782.271	2946
3783.912	2803
3785.552	2917
3787.192	2872
3788.831	2926
3790.472	2876
3792.112	2939
3793.75	2907
3795.388	2873
3797.024	2908
3798.661	2915
3800.3	2868
3801.936	2894
3803.572	2836
3805.208	2873
3806.844	2841
3808.48	2839
3810.115	2841
3811.748	2866
3813.382	2880
3815.016	2875
3816.649	2869
3818.283	2768
3819.914	2886
3821.547	2877
3823.178	2822
3824.809	2872
3826.441	2950
3828.072	2873
3829.701	2822
3831.331	2805
3832.96	2817
3834.591	2739
3836.219	2828
3837.847	2836
3839.475	2865
3841.102	2862
3842.729	2785
3844.357	2788
3845.984	2811
3847.609	2785
3849.234	2825
3850.86	2713
3852.485	2792
3854.11	2746
3855.734	2802
3857.357	2786
3858.981	2814
3860.603	2827
3862.227	2741
3863.848	2755
3865.471	2753
3867.092	2813
3868.713	2749
3870.334	2724
3871.954	2810
3873.575	2718
3875.194	2710
3876.813	2804
3878.433	2768
3880.051	2771
3881.669	2791
3883.286	2776
3884.904	2809
3886.52	2782
3888.138	2720
3889.754	2745
3891.37	2804
3892.985	2783
3894.6	2746
3896.216	2743
3897.831	2732
3899.444	2790
3901.058	2675
3902.67	2712
3904.283	2704
3905.897	2644
3907.509	2721
3909.121	2771
3910.731	2741
3912.342	2772
3913.954	2727
3915.563	2752
3917.174	2658
3918.783	2651
3920.391	2737
3922.002	2743
3923.611	2766
3925.218	2717
3926.826	2750
3928.432	2748
3930.039	2686
3931.647	2689
3933.253	2661
3934.859	2677
3936.464	2707
3938.068	2658
3939.675	2719
3941.278	2766
3942.883	2701
3944.486	2686
3946.089	2735
3947.692	2639
3949.295	2740
3950.898	2703
3952.499	2678
3954.1	2694
3955.7	2649
3957.303	2658
3958.903	2653
3960.502	2683
3962.101	2626
3963.7	2721
3965.301	2629
3966.899	2686
3968.497	2670
3970.094	2631
3971.691	2621
3973.288	2647
3974.885	2656
3976.481	2624
3978.077	2651
3979.672	2605
3981.267	2662
3982.863	2654
3984.457	2630
3986.051	2634
3987.645	2576
3989.238	2598
3990.831	2557
3992.425	2667
3994.017	2537
3995.607	2577
3997.199	2638
3998.79	2623
4000.382	2542
4001.973	2562
4003.561	2582
4005.151	2593
4006.741	2596
4008.331	2618
4009.918	2579
4011.507	2542
4013.095	2528
4014.681	2520
4016.269	2589
4017.856	2535
4019.443	2573
4021.028	2532
4022.614	2612
4024.199	2579
4025.785	2547
4027.37	2573
4028.953	2534
4030.536	2516
4032.12	2544
4033.704	2544
4035.287	2531
4036.869	2540
4038.45	2608
4040.032	2518
4041.613	2503
4043.195	2490
4044.776	2538
4046.356	2448
4047.935	2513
4049.515	2503
4051.095	2494
4052.674	2471
4054.251	2473
4055.829	2493
4057.406	2517
4058.985	2485
4060.562	2497
4062.139	2458
4063.715	2495
4065.29	2424
4066.865	2502
4068.442	2529
4070.016	2458
4071.59	2539
4073.164	2434
4074.738	2435
4076.312	2503
4077.885	2450
4079.458	2485
4081.03	2466
4082.602	2497
4084.173	2489
4085.745	2429
4087.315	2449
4088.886	2405
4090.456	2411
4092.026	2399
4093.596	2505
4095.165	2473
4096.734	2446
4098.301	2444
4099.869	2378
4101.437	2452
4103.006	2405
4104.572	2347
4106.139	2469
4107.704	2401
4109.27	2417
4110.837	2501
4112.401	2440
4113.966	2419
4115.53	2407
4117.094	2420
4118.659	2368
4120.223	2474
4121.785	2438
4123.347	2385
4124.909	2395
4126.471	2390
4128.034	2358
4129.595	2379
4131.155	2360
4132.716	2405
4134.275	2404
4135.836	2403
4137.395	2339
4138.955	2395
4140.513	2382
4142.071	2370
4143.628	2431
4145.188	2267
4146.745	2394
4148.302	2328
4149.858	2295
4151.414	2417
4152.971	2316
4154.526	2333
4156.081	2286
4157.635	2393
4159.189	2324
4160.745	2387
4162.298	2237
4163.852	2332
4165.405	2263
4166.957	2324
4168.51	2297
4170.063	2290
4171.614	2286
4173.166	2286
4174.717	2348
4176.267	2327
4177.817	2277
4179.368	2301
4180.917	2282
4182.466	2323
4184.016	2300
4185.564	2280
4187.112	2305
4188.66	2297
4190.207	2240
4191.754	2321
4193.301	2200
4194.848	2298
4196.394	2290
4197.94	2291
4199.484	2288
4201.03	2243
4202.575	2302
4204.12	2285
4205.663	2293
4207.207	2321
4208.75	2237
4210.292	2306
4211.836	2293
4213.378	2270
4214.92	2301
4216.46	2235
4218.002	2254
4219.544	2239
4221.083	2234
4222.625	2268
4224.164	2220
4225.703	2185
4227.244	2301
4228.782	2271
4230.32	2271
4231.857	2190
4233.395	2293
4234.933	2267
4236.471	2240
4238.007	2209
4239.542	2278
4241.078	2177
4242.614	2247
4244.15	2187
4245.685	2269
4247.219	2203
4248.753	2215
4250.287	2224
4251.82	2225
4253.354	2247
4254.887	2177
4256.419	2184
4257.951	2197
4259.483	2241
4261.016	2179
4262.547	2226
4264.078	2248
4265.608	2159
4267.137	2204
4268.668	2152
4270.197	2259
4271.727	2223
4273.254	2267
4274.783	2240
4276.311	2266
4277.84	2132
4279.366	2178
4280.894	2194
4282.42	2164
4283.946	2164
4285.473	2169
4286.998	2200
4288.523	2145
4290.047	2262
4291.572	2168
4293.096	2147
4294.622	2169
4296.144	2196
4297.668	2145
4299.19	2165
4300.713	2100
4302.236	2131
4303.758	2170
4305.279	2110
4306.799	2148
4308.321	2110
4309.842	2148
4311.361	2109
4312.882	2142
4314.401	2134
