400.0961	2400
402.6185	2425
405.1424	2454
407.6635	2430
410.1838	2435
412.7035	2430
415.2225	2506
417.7388	2423
420.2585	2508
422.7754	2454
425.2917	2523
427.8072	2538
430.3221	2598
432.8363	2596
435.3498	2654
437.8626	2635
440.3727	2613
442.8841	2594
445.3969	2558
447.907	2623
450.4142	2573
452.9229	2580
455.4289	2533
457.9362	2618
460.4449	2561
462.9488	2509
465.454	2511
467.9566	2542
470.4604	2545
472.9637	2514
475.4662	2517
477.966	2547
480.4671	2559
482.9656	2587
485.4633	2519
487.9645	2568
490.4608	2600
492.9566	2562
495.4536	2554
497.948	2593
500.4437	2550
502.9387	2604
505.431	2578
507.9226	2538
510.4136	2606
512.9079	2565
515.3975	2567
517.8864	2557
520.3746	2632
522.8622	2574
525.3491	2648
527.8394	2612
530.3249	2604
532.8098	2596
535.2939	2593
537.7774	2675
540.2623	2572
542.7444	2580
545.2259	2579
547.7067	2677
550.1868	2685
552.6683	2697
555.147	2562
557.6231	2671
560.1005	2637
562.5773	2655
565.0534	2667
567.5308	2645
570.0056	2682
572.4776	2771
574.951	2649
577.4237	2694
579.8978	2760
582.3671	2741
584.8378	2705
587.3079	2799
589.7773	2756
592.244	2731
594.714	2754
597.1793	2762
599.6461	2744
602.1121	2720
604.5754	2718
607.0421	2760
609.5042	2753
611.9675	2676
614.4282	2767
616.8902	2656
619.3515	2683
621.8122	2752
624.2702	2629
626.7296	2706
629.1863	2712
631.6423	2713
634.1017	2690
636.5563	2662
639.0104	2715
641.4658	2712
643.9185	2673
646.3725	2661
648.8239	2677
651.2766	2658
653.7266	2689
656.176	2718
658.6247	2734
661.0748	2692
663.5242	2742
665.9709	2738
668.417	2818
670.8624	2760
673.3092	2798
675.7533	2738
678.1968	2683
680.6395	2753
683.0817	2768
685.5251	2737
687.9659	2790
690.4061	2776
692.8456	2715
695.2844	2850
697.7226	2747
700.1621	2759
702.599	2774
705.0332	2818
707.4688	2781
709.9036	2754
712.3399	2775
714.7735	2824
717.2044	2872
719.6367	2764
722.0683	2833
724.4993	2820
726.9296	2817
729.3593	2874
731.7883	2806
734.2147	2807
736.6423	2743
739.0714	2819
741.4958	2909
743.9216	2825
746.3447	2911
748.7691	2879
751.1929	2910
753.616	2887
756.0366	2951
758.4584	2911
760.8776	2961
763.2982	2882
765.718	2920
768.1373	2991
770.5539	2961
772.9698	2939
775.3871	2920
777.8038	2916
780.2178	2983
782.6332	2947
785.0459	2919
787.458	2897
789.8714	2969
792.2842	2970
794.6943	2844
797.1038	2977
799.5127	2917
801.9209	2978
804.3324	2993
806.7393	2965
809.1456	2986
811.5513	3007
813.9562	2977
816.3625	2947
818.7663	2977
821.1693	3009
823.5718	3024
825.9735	2961
828.3746	2922
830.7771	3005
833.177	2977
835.5762	3003
837.9747	3042
840.3727	2962
842.772	2962
845.1666	3081
847.5626	3091
849.958	3082
852.3527	3072
854.7488	3074
857.1403	3113
859.5331	3148
861.9253	3062
864.3168	3013
866.7057	3009
869.098	3124
871.4876	3076
873.8746	3072
876.263	3021
878.6487	3086
881.0378	3042
883.4243	3070
885.8081	3036
888.1933	3104
890.5759	3065
892.9598	3100
895.343	3028
897.7256	3149
900.1057	3116
902.4871	3103
904.8659	3077
907.246	3094
909.6254	3137
912.0023	3080
914.3786	3138
916.7562	3244
919.1331	3181
921.5074	3284
923.8831	3276
926.2562	3351
928.6287	3321
931.0005	3383
933.3757	3305
935.7462	3291
938.1162	3274
940.4855	3318
942.8542	3354
945.2242	3441
947.5916	3420
949.9584	3522
952.3266	3596
954.6921	3827
957.0571	3894
959.4233	4009
961.787	4005
964.15	4059
966.5125	3984
968.8742	3816
971.2354	3648
973.5959	3495
975.9559	3423
978.3151	3429
980.6738	3331
983.0338	3287
985.3912	3213
987.7461	3243
990.1022	3180
992.4578	3171
994.8127	3172
997.1689	3159
999.5207	3217
1001.874	3205
1004.226	3215
1006.576	3180
1008.929	3205
1011.28	3206
1013.628	3199
1015.977	3255
1018.324	3237
1020.674	3227
1023.019	3237
1025.366	3247
1027.713	3304
1030.056	3224
1032.399	3274
1034.746	3248
1037.087	3296
1039.431	3290
1041.771	3208
1044.113	3254
1046.454	3289
1048.793	3275
1051.133	3306
1053.471	3249
1055.807	3236
1058.146	3294
1060.483	3322
1062.818	3320
1065.153	3342
1067.489	3296
1069.822	3295
1072.156	3353
1074.488	3416
1076.82	3261
1079.15	3333
1081.48	3358
1083.814	3305
1086.143	3276
1088.471	3278
1090.799	3244
1093.126	3313
1095.452	3269
1097.78	3225
1100.105	3235
1102.43	3294
1104.754	3221
1107.077	3235
1109.4	3300
1111.722	3324
1114.044	3298
1116.365	3237
1118.685	3271
1121.005	3288
1123.324	3211
1125.643	3261
1127.961	3321
1130.278	3317
1132.595	3269
1134.911	3266
1137.226	3288
1139.541	3194
1141.854	3190
1144.167	3274
1146.482	3232
1148.793	3247
1151.105	3242
1153.414	3238
1155.725	3278
1158.033	3345
1160.344	3251
1162.651	3271
1164.959	3257
1167.265	3270
1169.572	3356
1171.878	3258
1174.184	3313
1176.488	3235
1178.79	3281
1181.094	3307
1183.396	3380
1185.699	3264
1188.001	3264
1190.301	3207
1192.6	3268
1194.9	3324
1197.2	3303
1199.497	3143
1201.794	3328
1204.09	3237
1206.387	3323
1208.684	3242
1210.978	3273
1213.272	3324
1215.565	3312
1217.858	3286
1220.15	3306
1222.443	3322
1224.734	3355
1227.024	3320
1229.313	3305
1231.602	3396
1233.892	3327
1236.18	3425
1238.467	3385
1240.754	3448
1243.04	3357
1245.325	3446
1247.612	3488
1249.896	3509
1252.178	3400
1254.461	3448
1256.743	3484
1259.027	3501
1261.308	3439
1263.587	3499
1265.867	3427
1268.146	3432
1270.425	3526
1272.703	3450
1274.981	3486
1277.256	3455
1279.532	3488
1281.808	3419
1284.083	3386
1286.358	3364
1288.63	3441
1290.904	3448
1293.175	3410
1295.449	3404
1297.719	3456
1299.99	3390
1302.259	3465
1304.529	3315
1306.798	3382
1309.065	3377
1311.333	3397
1313.599	3468
1315.866	3318
1318.131	3441
1320.396	3426
1322.66	3421
1324.925	3361
1327.187	3376
1329.448	3401
1331.711	3386
1333.974	3453
1336.234	3375
1338.493	3403
1340.752	3456
1343.01	3357
1345.269	3355
1347.526	3377
1349.784	3369
1352.04	3381
1354.295	3314
1356.552	3445
1358.806	3364
1361.059	3422
1363.312	3443
1365.564	3353
1367.818	3394
1370.069	3412
1372.318	3435
1374.568	3441
1376.817	3445
1379.066	3412
1381.316	3472
1383.564	3454
1385.809	3494
1388.056	3391
1390.301	3490
1392.549	3542
1394.793	3609
1397.036	3579
1399.279	3614
1401.522	3547
1403.763	3616
1406.007	3629
1408.248	3663
1410.487	3578
1412.727	3558
1414.965	3579
1417.205	3559
1419.442	3647
1421.68	3530
1423.915	3528
1426.152	3509
1428.388	3518
1430.623	3574
1432.857	3582
1435.091	3547
1437.323	3616
1439.556	3668
1441.789	3647
1444.019	3634
1446.25	3665
1448.48	3620
1450.708	3643
1452.938	3702
1455.167	3605
1457.394	3686
1459.62	3653
1461.846	3674
1464.073	3630
1466.299	3581
1468.523	3584
1470.746	3499
1472.969	3567
1475.191	3500
1477.415	3448
1479.636	3466
1481.858	3473
1484.078	3436
1486.298	3348
1488.518	3386
1490.736	3428
1492.954	3429
1495.169	3381
1497.386	3362
1499.602	3382
1501.819	3382
1504.034	3311
1506.248	3443
1508.462	3378
1510.675	3395
1512.888	3334
1515.1	3395
1517.311	3407
1519.522	3355
1521.732	3383
1523.942	3284
1526.151	3404
1528.36	3332
1530.566	3430
1532.773	3375
1534.98	3453
1537.187	3372
1539.392	3311
1541.596	3469
1543.801	3423
1546.005	3313
1548.208	3416
1550.411	3398
1552.612	3431
1554.814	3460
1557.013	3459
1559.212	3434
1561.414	3499
1563.612	3456
1565.811	3483
1568.007	3536
1570.203	3489
1572.403	3513
1574.598	3520
1576.792	3498
1578.988	3425
1581.181	3459
1583.376	3369
1585.568	3458
1587.761	3474
1589.952	3564
1592.143	3460
1594.333	3508
1596.524	3519
1598.715	3584
1600.903	3484
1603.091	3490
1605.278	3564
1607.466	3555
1609.652	3505
1611.838	3548
1614.023	3523
1616.207	3613
1618.391	3554
1620.576	3576
1622.759	3545
1624.941	3481
1627.123	3550
1629.304	3567
1631.484	3522
1633.664	3614
1635.844	3591
1638.022	3598
1640.201	3676
1642.38	3573
1644.556	3575
1646.732	3623
1648.908	3586
1651.084	3629
1653.257	3595
1655.433	3572
1657.607	3695
1659.779	3581
1661.951	3586
1664.122	3616
1666.295	3608
1668.467	3726
1670.635	3695
1672.805	3716
1674.973	3700
1677.142	3740
1679.31	3655
1681.478	3687
1683.644	3614
1685.81	3573
1687.975	3669
1690.142	3620
1692.305	3612
1694.468	3592
1696.632	3635
1698.794	3566
1700.957	3574
1703.119	3533
1705.279	3583
1707.439	3546
1709.598	3551
1711.758	3484
1713.917	3505
1716.075	3482
1718.231	3482
1720.388	3553
1722.543	3539
1724.702	3571
1726.856	3480
1729.01	3562
1731.164	3518
1733.317	3523
1735.471	3456
1737.623	3595
1739.774	3466
1741.925	3570
1744.075	3481
1746.225	3575
1748.376	3455
1750.524	3529
1752.672	3533
1754.82	3444
1756.965	3533
1759.113	3530
1761.259	3580
1763.405	3498
1765.549	3528
1767.694	3545
1769.836	3413
1771.981	3491
1774.123	3530
1776.264	3572
1778.405	3535
1780.546	3575
1782.687	3551
1784.827	3556
1786.966	3467
1789.103	3530
1791.242	3513
1793.381	3611
1795.517	3497
1797.653	3570
1799.788	3529
1801.923	3621
1804.057	3549
1806.193	3565
1808.326	3528
1810.457	3455
1812.59	3538
1814.721	3596
1816.855	3544
1818.984	3595
1821.113	3508
1823.244	3528
1825.372	3601
1827.499	3541
1829.63	3499
1831.756	3531
1833.882	3575
1836.007	3510
1838.132	3598
1840.26	3560
1842.384	3504
1844.507	3595
1846.63	3522
1848.752	3568
1850.875	3526
1852.996	3555
1855.118	3588
1857.238	3536
1859.358	3471
1861.477	3596
1863.597	3503
1865.715	3514
1867.832	3524
1869.948	3546
1872.064	3466
1874.181	3528
1876.297	3576
1878.411	3516
1880.526	3488
1882.639	3537
1884.752	3508
1886.865	3536
1888.977	3551
1891.089	3594
1893.2	3538
1895.308	3576
1897.42	3558
1899.53	3619
1901.639	3502
1903.745	3606
1905.853	3510
1907.962	3594
1910.067	3513
1912.174	3515
1914.278	3580
1916.383	3642
1918.486	3638
1920.592	3563
1922.694	3543
1924.797	3525
1926.898	3557
1929	3581
1931.102	3527
1933.203	3558
1935.301	3578
1937.401	3617
1939.499	3636
1941.598	3652
1943.697	3569
1945.793	3550
1947.888	3626
1949.985	3570
1952.08	3589
1954.176	3566
1956.269	3571
1958.364	3559
1960.457	3632
1962.549	3562
1964.642	3602
1966.733	3545
1968.823	3617
1970.913	3594
1973.005	3608
1975.093	3576
1977.184	3581
1979.271	3576
1981.359	3553
1983.446	3585
1985.532	3587
1987.619	3638
1989.705	3619
1991.789	3563
1993.874	3578
1995.956	3521
1998.041	3584
2000.123	3552
2002.206	3561
2004.287	3550
2006.368	3525
2008.449	3603
2010.529	3500
2012.609	3634
2014.688	3618
2016.766	3558
2018.843	3559
2020.922	3526
2022.999	3452
2025.074	3595
2027.15	3498
2029.225	3591
2031.299	3497
2033.375	3628
2035.447	3553
2037.52	3588
2039.592	3564
2041.664	3591
2043.736	3553
2045.807	3549
2047.876	3528
2049.947	3520
2052.015	3507
2054.086	3603
2056.153	3590
2058.221	3552
2060.288	3560
2062.353	3540
2064.42	3594
2066.486	3562
2068.55	3617
2070.614	3510
2072.678	3605
2074.741	3629
2076.805	3611
2078.866	3606
2080.929	3523
2082.99	3636
2085.049	3544
2087.109	3643
2089.17	3528
2091.228	3597
2093.286	3584
2095.344	3590
2097.4	3587
2099.46	3635
2101.516	3589
2103.572	3556
2105.626	3669
2107.679	3576
2109.735	3648
2111.788	3592
2113.841	3600
2115.894	3611
2117.945	3568
2119.997	3513
2122.049	3523
2124.1	3617
2126.148	3574
2128.197	3584
2130.246	3623
2132.296	3562
2134.342	3541
2136.39	3655
2138.437	3566
2140.483	3545
2142.527	3587
2144.574	3545
2146.619	3625
2148.661	3554
2150.705	3548
2152.747	3558
2154.792	3573
2156.832	3464
2158.874	3591
2160.915	3600
2162.954	3492
2164.995	3481
2167.034	3627
2169.072	3525
2171.111	3574
2173.148	3517
2175.186	3596
2177.223	3501
2179.258	3514
2181.294	3570
2183.328	3505
2185.362	3540
2187.398	3482
2189.431	3476
2191.463	3556
2193.495	3627
2195.528	3480
2197.56	3539
2199.59	3589
2201.62	3498
2203.649	3501
2205.678	3549
2207.708	3522
2209.737	3588
2211.764	3522
2213.791	3478
2215.817	3516
2217.843	3509
2219.87	3589
2221.895	3574
2223.919	3518
2225.942	3572
2227.966	3576
2229.988	3494
2232.012	3441
2234.032	3513
2236.054	3524
2238.074	3512
2240.095	3560
2242.116	3520
2244.135	3443
2246.153	3504
2248.171	3479
2250.188	3466
2252.208	3474
2254.223	3488
2256.239	3496
2258.255	3576
2260.269	3523
2262.283	3548
2264.3	3467
2266.312	3621
2268.325	3508
2270.336	3489
2272.349	3576
2274.362	3420
2276.372	3511
2278.383	3455
2280.392	3416
2282.402	3502
2284.409	3534
2286.418	3543
2288.427	3555
2290.433	3459
2292.441	3460
2294.446	3447
2296.453	3454
2298.459	3537
2300.463	3466
2302.466	3506
2304.471	3485
2306.475	3433
2308.477	3455
2310.478	3462
2312.481	3512
2314.481	3492
2316.481	3557
2318.482	3514
2320.482	3474
2322.48	3512
2324.48	3489
2326.478	3561
2328.476	3459
2330.473	3596
2332.469	3453
2334.465	3448
2336.46	3529
2338.454	3459
2340.45	3500
2342.444	3446
2344.437	3370
2346.43	3479
2348.421	3394
2350.414	3445
2352.405	3420
2354.396	3449
2356.386	3495
2358.376	3480
2360.366	3478
2362.355	3432
2364.343	3469
2366.331	3465
2368.317	3428
2370.304	3430
2372.292	3514
2374.278	3402
2376.262	3426
2378.247	3441
2380.23	3514
2382.216	3514
2384.199	3463
2386.181	3472
2388.163	3411
2390.144	3382
2392.127	3449
2394.107	3368
2396.087	3431
2398.066	3392
2400.046	3466
2402.023	3411
2404.004	3524
2405.981	3359
2407.957	3456
2409.934	3338
2411.91	3379
2413.886	3412
2415.862	3435
2417.836	3421
2419.809	3446
2421.784	3402
2423.756	3334
2425.73	3487
2427.701	3373
2429.672	3423
2431.644	3411
2433.615	3416
2435.586	3434
2437.555	3437
2439.523	3421
2441.491	3499
2443.459	3366
2445.428	3339
2447.395	3382
2449.361	3430
2451.327	3332
2453.292	3403
2455.257	3450
2457.223	3389
2459.187	3411
2461.15	3388
2463.113	3395
2465.076	3395
2467.039	3415
2468.999	3353
2470.96	3362
2472.921	3329
2474.881	3374
2476.841	3367
2478.8	3440
2480.759	3350
2482.717	3379
2484.675	3354
2486.63	3380
2488.589	3354
2490.545	3405
2492.5	3352
2494.455	3396
2496.408	3390
2498.364	3463
2500.318	3370
2502.27	3349
2504.223	3368
2506.174	3359
2508.126	3345
2510.078	3359
2512.03	3446
2513.979	3402
2515.927	3382
2517.877	3373
2519.826	3394
2521.775	3320
2523.722	3399
2525.668	3351
2527.616	3361
2529.561	3322
2531.508	3331
2533.452	3387
2535.398	3390
2537.342	3312
2539.284	3316
2541.229	3264
2543.173	3326
2545.114	3306
2547.055	3317
2548.996	3393
2550.938	3336
2552.878	3272
2554.817	3312
2556.756	3455
2558.695	3318
2560.633	3406
2562.572	3309
2564.509	3469
2566.445	3359
2568.382	3353
2570.317	3312
2572.254	3345
2574.189	3365
2576.123	3386
2578.057	3331
2579.99	3392
2581.923	3331
2583.855	3410
2585.788	3295
2587.719	3354
2589.65	3376
2591.579	3378
2593.511	3358
2595.44	3385
2597.37	3312
2599.297	3386
2601.225	3374
2603.153	3424
2605.08	3380
2607.007	3408
2608.932	3366
2610.858	3365
2612.782	3309
2614.709	3327
2616.632	3357
2618.556	3388
2620.478	3350
2622.401	3377
2624.324	3413
2626.247	3364
2628.167	3334
2630.088	3461
2632.008	3481
2633.928	3419
2635.848	3402
2637.766	3427
2639.684	3329
2641.603	3414
2643.519	3427
2645.437	3483
2647.353	3380
2649.27	3326
2651.184	3318
2653.099	3396
2655.014	3344
2656.928	3302
2658.842	3367
2660.755	3424
2662.667	3304
2664.579	3392
2666.491	3388
2668.402	3348
2670.312	3368
2672.222	3440
2674.132	3457
2676.042	3288
2677.951	3330
2679.859	3358
2681.766	3354
2683.674	3428
2685.582	3289
2687.488	3366
2689.392	3429
2691.298	3290
2693.202	3285
2695.107	3361
2697.012	3377
2698.914	3409
2700.817	3407
2702.72	3370
2704.622	3344
2706.524	3400
2708.425	3310
2710.326	3407
2712.225	3329
2714.125	3350
2716.024	3350
2717.923	3296
2719.822	3354
2721.719	3356
2723.616	3369
2725.512	3313
2727.41	3385
2729.305	3342
2731.201	3419
2733.095	3347
2734.99	3297
2736.884	3366
2738.778	3326
2740.67	3324
2742.562	3342
2744.455	3369
2746.346	3283
2748.238	3386
2750.129	3336
2752.018	3325
2753.907	3388
2755.797	3423
2757.687	3406
2759.575	3224
2761.462	3311
2763.349	3293
2765.237	3439
2767.124	3403
2769.009	3394
2770.894	3377
2772.779	3261
2774.663	3291
2776.547	3273
2778.431	3401
2780.314	3301
2782.197	3322
2784.078	3397
2785.96	3398
2787.842	3335
2789.723	3268
2791.603	3312
2793.483	3295
2795.362	3306
2797.241	3397
2799.121	3324
2800.997	3357
2802.874	3302
2804.751	3335
2806.628	3323
2808.506	3263
2810.38	3229
2812.255	3339
2814.13	3311
2816.003	3348
2817.878	3379
2819.752	3361
2821.623	3245
2823.496	3346
2825.368	3347
2827.238	3319
2829.111	3372
2830.98	3338
2832.851	3380
2834.719	3304
2836.589	3323
2838.458	3367
2840.327	3290
2842.193	3283
2844.061	3347
2845.927	3400
2847.794	3305
2849.66	3400
2851.525	3334
2853.39	3401
2855.254	3362
2857.117	3445
2858.983	3443
2860.845	3440
2862.707	3459
2864.569	3483
2866.431	3505
2868.293	3417
2870.154	3622
2872.013	3612
2873.873	3565
2875.733	3591
2877.592	3659
2879.451	3727
2881.309	3596
2883.166	3724
2885.022	3740
2886.879	3720
2888.736	3784
2890.591	3811
2892.446	3902
2894.301	3945
2896.155	3850
2898.009	3766
2899.863	3766
2901.716	3847
2903.568	3847
2905.419	3809
2907.27	3834
2909.123	3847
2910.973	3864
2912.824	3820
2914.673	3785
2916.521	3945
2918.372	3914
2920.22	3905
2922.067	4008
2923.914	3973
2925.761	4054
2927.607	4134
2929.455	4076
2931.301	4092
2933.144	4191
2934.99	4148
2936.833	4314
2938.678	4295
2940.522	4347
2942.364	4404
2944.207	4441
2946.048	4491
2947.891	4565
2949.731	4529
2951.571	4474
2953.412	4578
2955.25	4522
2957.09	4367
2958.93	4357
2960.767	4375
2962.606	4380
2964.443	4220
2966.279	4375
2968.116	4235
2969.953	4062
2971.788	4034
2973.623	4002
2975.457	4026
2977.292	3951
2979.127	3899
2980.959	3976
2982.792	3892
2984.624	3819
2986.455	3804
2988.288	3787
2990.119	3819
2991.949	3786
2993.779	3720
2995.608	3691
2997.439	3554
2999.268	3670
3001.096	3638
3002.923	3594
3004.751	3562
3006.578	3527
3008.406	3519
3010.232	3490
3012.057	3447
3013.883	3391
3015.706	3408
3017.532	3322
3019.356	3332
3021.179	3329
3023.002	3298
3024.823	3306
3026.646	3279
3028.469	3302
3030.289	3261
3032.11	3215
3033.93	3339
3035.749	3293
3037.57	3255
3039.39	3165
3041.207	3201
3043.026	3141
3044.842	3277
3046.661	3235
3048.477	3215
3050.294	3242
3052.109	3189
3053.925	3195
3055.739	3230
3057.555	3221
3059.368	3183
3061.181	3199
3062.995	3203
3064.807	3178
3066.62	3211
3068.433	3265
3070.243	3230
3072.054	3211
3073.865	3212
3075.675	3204
3077.485	3179
3079.293	3173
3081.102	3239
3082.911	3180
3084.719	3145
3086.527	3190
3088.333	3202
3090.139	3288
3091.945	3113
3093.75	3154
3095.557	3171
3097.361	3164
3099.165	3191
3100.969	3064
3102.772	3097
3104.575	3033
3106.379	3114
3108.181	3091
3109.982	3141
3111.783	3046
3113.584	3165
3115.386	3129
3117.186	3077
3118.985	3110
3120.783	3040
3122.582	3078
3124.381	3029
3126.179	3033
3127.975	3043
3129.772	3049
3131.569	3057
3133.365	2984
3135.161	3118
3136.956	3033
3138.751	3021
3140.544	3128
3142.338	3069
3144.132	3050
3145.925	3092
3147.717	3006
3149.509	3092
3151.301	3089
3153.091	2986
3154.884	3023
3156.673	3021
3158.462	3038
3160.252	3091
3162.041	3064
3163.831	3020
3165.618	3038
3167.405	3094
3169.193	3050
3170.979	3034
3172.767	3054
3174.553	3106
3176.338	3006
3178.123	3009
3179.907	3081
3181.692	3058
3183.477	3017
3185.259	3042
3187.042	3006
3188.824	3064
3190.607	3096
3192.389	2954
3194.17	3027
3195.951	3060
3197.73	3060
3199.51	2988
3201.289	3053
3203.07	3024
3204.848	3065
3206.626	2992
3208.403	3087
3210.18	3031
3211.959	2997
3213.735	3035
3215.511	3022
3217.285	2953
3219.06	3048
3220.836	3044
3222.611	3024
3224.384	2962
3226.158	3128
3227.929	2991
3229.702	3038
3231.476	3006
3233.248	2951
3235.018	3036
3236.789	3016
3238.56	3102
3240.33	2995
3242.1	3052
3243.869	2990
3245.637	3076
3247.405	2939
3249.172	2939
3250.941	3013
3252.707	2985
3254.474	3032
3256.24	3040
3258.006	3057
3259.772	3068
3261.537	3019
3263.301	3017
3265.065	2969
3266.828	3054
3268.592	3131
3270.355	3029
3272.117	3035
3273.878	3074
3275.64	3020
3277.401	3053
3279.162	3015
3280.922	3012
3282.682	3018
3284.441	3086
3286.199	3050
3287.959	3042
3289.716	3107
3291.475	3026
3293.232	3063
3294.988	3020
3296.744	3004
3298.501	3004
3300.256	3030
3302.011	3091
3303.766	3027
3305.52	3067
3307.275	3007
3309.028	3032
3310.781	3129
3312.533	3019
3314.285	3096
3316.038	2975
3317.789	3069
3319.54	3103
3321.289	3017
3323.039	3054
3324.789	2970
3326.539	3015
3328.288	2965
3330.035	3067
3331.783	2921
3333.531	3044
3335.28	3021
3337.025	2983
3338.771	3015
3340.518	2988
3342.262	2963
3344.009	2990
3345.753	3002
3347.497	3031
3349.24	3005
3350.983	3013
3352.726	2940
3354.469	2978
3356.212	2963
3357.952	2961
3359.694	3000
3361.434	2960
3363.176	2906
3364.916	2961
3366.654	2998
3368.394	2968
3370.132	2933
3371.871	2874
3373.61	2969
3375.346	2919
3377.083	2940
3378.82	2980
3380.556	2961
3382.292	2968
3384.027	2973
3385.763	2850
3387.497	3006
3389.231	2871
3390.965	2938
3392.698	2915
3394.431	2917
3396.164	2950
3397.896	2949
3399.627	2959
3401.36	2891
3403.09	2936
3404.82	2879
3406.55	2886
3408.279	2928
3410.01	2836
3411.738	2888
3413.467	2911
3415.194	2918
3416.92	2881
3418.647	2892
3420.375	2878
3422.102	2890
3423.827	2927
3425.553	2905
3427.277	2933
3429.003	2898
3430.727	2898
3432.451	2935
3434.173	2784
3435.896	2871
3437.62	2899
3439.343	2827
3441.063	2923
3442.785	2862
3444.505	2893
3446.226	2874
3447.948	2860
3449.666	2769
3451.386	2866
3453.104	2859
3454.823	2836
3456.541	2812
3458.259	2779
3459.976	2794
3461.693	2797
3463.408	2867
3465.125	2746
3466.841	2829
3468.556	2818
3470.271	2725
3471.985	2794
3473.698	2782
3475.414	2848
3477.126	2765
3478.838	2797
3480.55	2791
3482.263	2740
3483.975	2809
3485.686	2789
3487.396	2773
3489.106	2678
3490.817	2750
3492.526	2684
3494.236	2783
3495.944	2755
3497.652	2660
3499.359	2710
3501.066	2701
3502.775	2684
3504.481	2676
3506.187	2671
3507.893	2703
3509.598	2699
3511.304	2767
3513.009	2702
3514.713	2706
3516.417	2680
3518.12	2648
3519.821	2621
3521.525	2633
3523.228	2719
3524.929	2686
3526.631	2668
3528.33	2668
3530.032	2645
3531.733	2650
3533.433	2676
3535.131	2683
3536.83	2578
3538.529	2596
3540.227	2617
3541.925	2635
3543.623	2681
3545.319	2593
3547.016	2632
3548.712	2590
3550.408	2553
3552.103	2674
3553.798	2620
3555.491	2624
3557.188	2616
3558.88	2676
3560.574	2615
3562.266	2594
3563.959	2701
3565.651	2607
3567.343	2615
3569.035	2585
3570.725	2676
3572.415	2590
3574.106	2589
3575.797	2576
3577.485	2646
3579.174	2703
3580.863	2541
3582.551	2555
3584.238	2575
3585.926	2560
3587.613	2581
3589.3	2545
3590.986	2571
3592.671	2506
3594.357	2587
3596.042	2535
3597.726	2623
3599.41	2468
3601.094	2537
3602.778	2529
3604.461	2513
3606.143	2550
3607.825	2493
3609.507	2436
3611.188	2429
3612.87	2502
3614.551	2478
3616.229	2485
3617.909	2499
3619.589	2475
3621.269	2448
3622.948	2437
3624.625	2475
3626.302	2431
3627.98	2478
3629.657	2430
3631.334	2437
3633.01	2457
3634.686	2493
3636.361	2477
3638.036	2442
3639.712	2463
3641.385	2504
3643.06	2471
3644.732	2404
3646.405	2412
3648.08	2424
3649.751	2385
3651.424	2442
3653.094	2409
3654.766	2414
3656.436	2400
3658.106	2471
3659.777	2355
3661.446	2362
3663.115	2332
3664.783	2446
3666.452	2449
3668.121	2416
3669.788	2353
3671.454	2422
3673.121	2436
3674.789	2404
3676.455	2395
3678.12	2348
3679.784	2315
3681.45	2353
3683.114	2355
3684.779	2389
3686.442	2378
3688.105	2416
3689.768	2368
3691.43	2393
3693.093	2400
3694.754	2358
3696.415	2333
3698.076	2388
3699.736	2329
3701.396	2368
3703.057	2377
3704.716	2375
3706.375	2308
3708.034	2428
3709.692	2387
3711.351	2340
3713.008	2333
3714.665	2328
3716.321	2374
3717.977	2310
3719.634	2416
3721.29	2376
3722.945	2285
3724.598	2269
3726.253	2302
3727.907	2356
3729.561	2319
3731.214	2307
3732.867	2273
3734.518	2333
3736.171	2309
3737.824	2349
3739.474	2288
3741.125	2300
3742.775	2282
3744.425	2355
3746.074	2278
3747.725	2391
3749.373	2340
3751.022	2362
3752.669	2296
3754.318	2239
3755.966	2245
3757.612	2268
3759.259	2278
3760.905	2359
3762.55	2310
3764.197	2259
3765.842	2296
3767.486	2289
3769.131	2274
3770.774	2310
3772.417	2275
3774.061	2269
3775.705	2223
3777.347	2298
3778.988	2243
3780.629	2268
3782.271	2270
3783.912	2242
3785.552	2242
3787.192	2283
3788.831	2277
3790.472	2236
3792.112	2298
3793.75	2259
3795.388	2211
3797.024	2287
3798.661	2258
3800.3	2255
3801.936	2191
3803.572	2207
3805.208	2252
3806.844	2231
3808.48	2214
3810.115	2210
3811.748	2300
3813.382	2205
3815.016	2234
3816.649	2223
3818.283	2243
3819.914	2297
3821.547	2219
3823.178	2206
3824.809	2243
3826.441	2241
3828.072	2245
3829.701	2302
3831.331	2180
3832.96	2205
3834.591	2209
3836.219	2223
3837.847	2219
3839.475	2213
3841.102	2197
3842.729	2247
3844.357	2170
3845.984	2270
3847.609	2178
3849.234	2136
3850.86	2199
3852.485	2144
3854.11	2194
3855.734	2154
3857.357	2167
3858.981	2197
3860.603	2211
3862.227	2205
3863.848	2178
3865.471	2164
3867.092	2195
3868.713	2230
3870.334	2215
3871.954	2158
3873.575	2206
3875.194	2184
3876.813	2119
3878.433	2119
3880.051	2158
3881.669	2132
3883.286	2120
3884.904	2110
3886.52	2154
3888.138	2198
3889.754	2172
3891.37	2098
3892.985	2182
3894.6	2139
3896.216	2202
3897.831	2147
3899.444	2168
3901.058	2120
3902.67	2121
3904.283	2142
3905.897	2137
3907.509	2155
3909.121	2157
3910.731	2117
3912.342	2172
3913.954	2155
3915.563	2153
3917.174	2070
3918.783	2158
3920.391	2102
3922.002	2124
3923.611	2174
3925.218	2184
3926.826	2071
3928.432	2172
3930.039	2109
3931.647	2106
3933.253	2145
3934.859	2133
3936.464	2159
3938.068	2117
3939.675	2128
3941.278	2057
3942.883	2129
3944.486	2160
3946.089	2136
3947.692	2089
3949.295	2196
3950.898	2094
3952.499	2139
3954.1	2057
3955.7	2117
3957.303	2152
3958.903	2081
3960.502	2068
3962.101	2035
3963.7	2122
3965.301	2077
3966.899	2042
3968.497	2081
3970.094	2067
3971.691	2091
3973.288	2055
3974.885	2108
3976.481	2085
3978.077	2053
3979.672	2086
3981.267	2086
3982.863	1979
3984.457	2066
3986.051	2085
3987.645	1996
3989.238	2071
3990.831	2076
3992.425	2041
3994.017	2052
3995.607	2077
3997.199	2058
3998.79	2001
4000.382	2047
4001.973	2029
4003.561	2049
4005.151	2065
4006.741	2037
4008.331	1971
4009.918	2018
4011.507	2011
4013.095	2036
4014.681	2029
4016.269	2033
4017.856	1992
4019.443	2043
4021.028	2026
4022.614	1960
4024.199	2040
4025.785	2014
4027.37	1989
4028.953	1976
4030.536	2067
4032.12	2006
4033.704	2069
4035.287	1933
4036.869	1991
4038.45	1989
4040.032	1965
4041.613	1999
4043.195	1962
4044.776	1979
4046.356	2006
4047.935	2008
4049.515	1974
4051.095	1939
4052.674	2031
4054.251	1961
4055.829	1916
4057.406	1915
4058.985	1966
4060.562	1915
4062.139	1973
4063.715	1935
4065.29	1944
4066.865	1929
4068.442	1968
4070.016	1939
4071.59	1986
4073.164	1979
4074.738	1917
4076.312	1927
4077.885	1973
4079.458	1928
4081.03	1878
4082.602	1983
4084.173	1964
4085.745	1929
4087.315	1911
4088.886	1915
4090.456	1934
4092.026	1926
4093.596	1943
4095.165	1904
4096.734	1960
4098.301	1934
4099.869	1865
4101.437	1958
4103.006	1955
4104.572	1895
4106.139	1907
4107.704	1910
4109.27	1871
4110.837	1924
4112.401	1880
4113.966	1953
4115.53	1938
4117.094	1909
4118.659	1913
4120.223	1925
4121.785	1911
4123.347	1907
4124.909	1903
4126.471	1924
4128.034	1931
4129.595	1921
4131.155	1868
4132.716	1902
4134.275	1898
4135.836	1908
4137.395	1864
4138.955	1910
4140.513	1893
4142.071	1906
4143.628	1883
4145.188	1890
4146.745	1909
4148.302	1897
4149.858	1867
4151.414	1837
4152.971	1883
4154.526	1854
4156.081	1877
4157.635	1802
4159.189	1817
4160.745	1869
4162.298	1870
4163.852	1879
4165.405	1824
4166.957	1844
4168.51	1818
4170.063	1841
4171.614	1817
4173.166	1862
4174.717	1819
4176.267	1819
4177.817	1833
4179.368	1803
4180.917	1786
4182.466	1883
4184.016	1869
4185.564	1860
4187.112	1788
4188.66	1833
4190.207	1830
4191.754	1805
4193.301	1842
4194.848	1794
4196.394	1834
4197.94	1814
4199.484	1761
4201.03	1784
4202.575	1821
4204.12	1853
4205.663	1804
4207.207	1790
4208.75	1807
4210.292	1813
4211.836	1811
4213.378	1800
4214.92	1803
4216.46	1824
4218.002	1781
4219.544	1752
4221.083	1773
4222.625	1786
4224.164	1745
4225.703	1804
4227.244	1818
4228.782	1764
4230.32	1843
4231.857	1858
4233.395	1766
4234.933	1793
4236.471	1723
4238.007	1757
4239.542	1814
4241.078	1762
4242.614	1791
4244.15	1747
4245.685	1769
4247.219	1782
4248.753	1793
4250.287	1744
4251.82	1744
4253.354	1775
4254.887	1730
4256.419	1761
4257.951	1780
4259.483	1759
4261.016	1770
4262.547	1762
4264.078	1778
4265.608	1764
4267.137	1768
4268.668	1773
4270.197	1705
4271.727	1714
4273.254	1748
4274.783	1777
4276.311	1785
4277.84	1691
4279.366	1711
4280.894	1739
4282.42	1740
4283.946	1697
4285.473	1778
4286.998	1758
4288.523	1705
4290.047	1789
4291.572	1791
4293.096	1743
4294.622	1717
4296.144	1720
4297.668	1725
4299.19	1728
4300.713	1742
4302.236	1723
4303.758	1710
4305.279	1738
4306.799	1717
4308.321	1727
4309.842	1745
4311.361	1764
4312.882	1763
4314.401	1683
