400.0961	3008
402.6185	2921
405.1424	2989
407.6635	2932
410.1838	3019
412.7035	2949
415.2225	2943
417.7388	3031
420.2585	3046
422.7754	3137
425.2917	3106
427.8072	3122
430.3221	3233
432.8363	3187
435.3498	3135
437.8626	3189
440.3727	3164
442.8841	3180
445.3969	3095
447.907	3150
450.4142	3144
452.9229	3158
455.4289	3107
457.9362	3142
460.4449	3104
462.9488	3155
465.454	3177
467.9566	3094
470.4604	3078
472.9637	3118
475.4662	3153
477.966	3106
480.4671	3171
482.9656	3063
485.4633	3149
487.9645	3121
490.4608	3145
492.9566	3114
495.4536	3240
497.948	3070
500.4437	3192
502.9387	3130
505.431	3175
507.9226	3166
510.4136	3160
512.9079	3203
515.3975	3151
517.8864	3240
520.3746	3136
522.8622	3236
525.3491	3216
527.8394	3236
530.3249	3199
532.8098	3271
535.2939	3236
537.7774	3198
540.2623	3247
542.7444	3259
545.2259	3231
547.7067	3211
550.1868	3252
552.6683	3343
555.147	3186
557.6231	3264
560.1005	3257
562.5773	3359
565.0534	3356
567.5308	3313
570.0056	3344
572.4776	3273
574.951	3367
577.4237	3362
579.8978	3312
582.3671	3475
584.8378	3348
587.3079	3447
589.7773	3364
592.244	3359
594.714	3332
597.1793	3407
599.6461	3353
602.1121	3342
604.5754	3425
607.0421	3362
609.5042	3357
611.9675	3315
614.4282	3351
616.8902	3365
619.3515	3287
621.8122	3328
624.2702	3364
626.7296	3283
629.1863	3272
631.6423	3211
634.1017	3336
636.5563	3358
639.0104	3333
641.4658	3286
643.9185	3290
646.3725	3322
648.8239	3304
651.2766	3301
653.7266	3302
656.176	3389
658.6247	3323
661.0748	3359
663.5242	3442
665.9709	3388
668.417	3360
670.8624	3381
673.3092	3472
675.7533	3356
678.1968	3445
680.6395	3463
683.0817	3531
685.5251	3409
687.9659	3429
690.4061	3484
692.8456	3400
695.2844	3393
697.7226	3405
700.1621	3419
702.599	3425
705.0332	3319
707.4688	3520
709.9036	3462
712.3399	3479
714.7735	3505
717.2044	3426
719.6367	3498
722.0683	3558
724.4993	3545
726.9296	3536
729.3593	3496
731.7883	3505
734.2147	3496
736.6423	3536
739.0714	3544
741.4958	3588
743.9216	3586
746.3447	3596
748.7691	3621
751.1929	3468
753.616	3566
756.0366	3707
758.4584	3602
760.8776	3585
763.2982	3585
765.718	3728
768.1373	3656
770.5539	3622
772.9698	3621
775.3871	3676
777.8038	3587
780.2178	3676
782.6332	3623
785.0459	3655
787.458	3653
789.8714	3674
792.2842	3608
794.6943	3725
797.1038	3665
799.5127	3683
801.9209	3611
804.3324	3700
806.7393	3705
809.1456	3695
811.5513	3659
813.9562	3784
816.3625	3678
818.7663	3690
821.1693	3754
823.5718	3701
825.9735	3721
828.3746	3647
830.7771	3611
833.177	3673
835.5762	3751
837.9747	3769
840.3727	3800
842.772	3681
845.1666	3746
847.5626	3786
849.958	3767
852.3527	3731
854.7488	3798
857.1403	3719
859.5331	3893
861.9253	3815
864.3168	3847
866.7057	3852
869.098	3831
871.4876	3814
873.8746	3773
876.263	3809
878.6487	3807
881.0378	3845
883.4243	3793
885.8081	3810
888.1933	3735
890.5759	3760
892.9598	3748
895.343	3790
897.7256	3760
900.1057	3736
902.4871	3797
904.8659	3821
907.246	3829
909.6254	3772
912.0023	3875
914.3786	3856
916.7562	3919
919.1331	4060
921.5074	4010
923.8831	4020
926.2562	4065
928.6287	4036
931.0005	4034
933.3757	4007
935.7462	4016
938.1162	4000
940.4855	4055
942.8542	4180
945.2242	4168
947.5916	4187
949.9584	4313
952.3266	4532
954.6921	4690
957.0571	4782
959.4233	5037
961.787	4993
964.15	4973
966.5125	4861
968.8742	4746
971.2354	4456
973.5959	4209
975.9559	4268
978.3151	4035
980.6738	4064
983.0338	3966
985.3912	3923
987.7461	3974
990.1022	3932
992.4578	3914
994.8127	3959
997.1689	3938
999.5207	3905
1001.874	3976
1004.226	4016
1006.576	3969
1008.929	3980
1011.28	3979
1013.628	3973
1015.977	3949
1018.324	3977
1020.674	4034
1023.019	4040
1025.366	3979
1027.713	4061
1030.056	4040
1032.399	4049
1034.746	3953
1037.087	3982
1039.431	4066
1041.771	4034
1044.113	4110
1046.454	3984
1048.793	4001
1051.133	4064
1053.471	4009
1055.807	4002
1058.146	4070
1060.483	4096
1062.818	4078
1065.153	4096
1067.489	4108
1069.822	4128
1072.156	4149
1074.488	4190
1076.82	4122
1079.15	4158
1081.48	4076
1083.814	4085
1086.143	4043
1088.471	4104
1090.799	4086
1093.126	4043
1095.452	4073
1097.78	4143
1100.105	4046
1102.43	4084
1104.754	4094
1107.077	4028
1109.4	4048
1111.722	4159
1114.044	4060
1116.365	4013
1118.685	3975
1121.005	4102
1123.324	4079
1125.643	4056
1127.961	3977
1130.278	4041
1132.595	4039
1134.911	3998
1137.226	4039
1139.541	3998
1141.854	4068
1144.167	4009
1146.482	4049
1148.793	4050
1151.105	4064
1153.414	3995
1155.725	4074
1158.033	4094
1160.344	4086
1162.651	4070
1164.959	4056
1167.265	4135
1169.572	4005
1171.878	4032
1174.184	4037
1176.488	4057
1178.79	4020
1181.094	4077
1183.396	4077
1185.699	4096
1188.001	3985
1190.301	4030
1192.6	4056
1194.9	4136
1197.2	3968
1199.497	4060
1201.794	4080
1204.09	4125
1206.387	4078
1208.684	4083
1210.978	4056
1213.272	4036
1215.565	4099
1217.858	4116
1220.15	4084
1222.443	4128
1224.734	4167
1227.024	4125
1229.313	4189
1231.602	4196
1233.892	4196
1236.18	4213
1238.467	4166
1240.754	4235
1243.04	4275
1245.325	4215
1247.612	4266
1249.896	4325
1252.178	4297
1254.461	4329
1256.743	4329
1259.027	4280
1261.308	4239
1263.587	4353
1265.867	4189
1268.146	4284
1270.425	4373
1272.703	4280
1274.981	4353
1277.256	4318
1279.532	4223
1281.808	4239
1284.083	4181
1286.358	4179
1288.63	4327
1290.904	4244
1293.175	4076
1295.449	4161
1297.719	4247
1299.99	4260
1302.259	4195
1304.529	4145
1306.798	4218
1309.065	4200
1311.333	4189
1313.599	4156
1315.866	4197
1318.131	4282
1320.396	4213
1322.66	4248
1324.925	4171
1327.187	4271
1329.448	4235
1331.711	4238
1333.974	4202
1336.234	4234
1338.493	4274
1340.752	4220
1343.01	4206
1345.269	4164
1347.526	4159
1349.784	4208
1352.04	4215
1354.295	4155
1356.552	4260
1358.806	4253
1361.059	4166
1363.312	4251
1365.564	4166
1367.818	4132
1370.069	4178
1372.318	4280
1374.568	4131
1376.817	4290
1379.066	4214
1381.316	4167
1383.564	4342
1385.809	4220
1388.056	4300
1390.301	4338
1392.549	4378
1394.793	4353
1397.036	4335
1399.279	4406
1401.522	4438
1403.763	4373
1406.007	4318
1408.248	4430
1410.487	4299
1412.727	4303
1414.965	4284
1417.205	4340
1419.442	4342
1421.68	4343
1423.915	4382
1426.152	4443
1428.388	4397
1430.623	4430
1432.857	4420
1435.091	4408
1437.323	4379
1439.556	4480
1441.789	4404
1444.019	4450
1446.25	4475
1448.48	4454
1450.708	4489
1452.938	4519
1455.167	4460
1457.394	4495
1459.62	4541
1461.846	4528
1464.073	4502
1466.299	4494
1468.523	4457
1470.746	4402
1472.969	4306
1475.191	4345
1477.415	4379
1479.636	4270
1481.858	4304
1484.078	4255
1486.298	4293
1488.518	4247
1490.736	4229
1492.954	4238
1495.169	4221
1497.386	4254
1499.602	4232
1501.819	4223
1504.034	4112
1506.248	4127
1508.462	4160
1510.675	4158
1512.888	4230
1515.1	4212
1517.311	4240
1519.522	4270
1521.732	4175
1523.942	4218
1526.151	4173
1528.36	4184
1530.566	4209
1532.773	4225
1534.98	4249
1537.187	4202
1539.392	4202
1541.596	4192
1543.801	4277
1546.005	4305
1548.208	4253
1550.411	4234
1552.612	4210
1554.814	4190
1557.013	4292
1559.212	4209
1561.414	4331
1563.612	4236
1565.811	4296
1568.007	4364
1570.203	4365
1572.403	4314
1574.598	4396
1576.792	4287
1578.988	4367
1581.181	4323
1583.376	4400
1585.568	4321
1587.761	4352
1589.952	4453
1592.143	4301
1594.333	4431
1596.524	4375
1598.715	4345
1600.903	4362
1603.091	4352
1605.278	4410
1607.466	4383
1609.652	4379
1611.838	4413
1614.023	4439
1616.207	4424
1618.391	4463
1620.576	4418
1622.759	4406
1624.941	4445
1627.123	4462
1629.304	4405
1631.484	4409
1633.664	4476
1635.844	4391
1638.022	4432
1640.201	4447
1642.38	4511
1644.556	4469
1646.732	4450
1648.908	4453
1651.084	4471
1653.257	4434
1655.433	4437
1657.607	4474
1659.779	4526
1661.951	4512
1664.122	4535
1666.295	4607
1668.467	4452
1670.635	4525
1672.805	4532
1674.973	4583
1677.142	4560
1679.31	4509
1681.478	4449
1683.644	4470
1685.81	4461
1687.975	4548
1690.142	4490
1692.305	4489
1694.468	4385
1696.632	4413
1698.794	4396
1700.957	4427
1703.119	4466
1705.279	4396
1707.439	4447
1709.598	4332
1711.758	4350
1713.917	4466
1716.075	4280
1718.231	4331
1720.388	4333
1722.543	4321
1724.702	4434
1726.856	4412
1729.01	4339
1731.164	4431
1733.317	4254
1735.471	4284
1737.623	4326
1739.774	4310
1741.925	4310
1744.075	4392
1746.225	4318
1748.376	4284
1750.524	4267
1752.672	4374
1754.82	4424
1756.965	4414
1759.113	4324
1761.259	4360
1763.405	4340
1765.549	4419
1767.694	4365
1769.836	4361
1771.981	4386
1774.123	4396
1776.264	4361
1778.405	4331
1780.546	4349
1782.687	4359
1784.827	4392
1786.966	4459
1789.103	4382
1791.242	4454
1793.381	4439
1795.517	4316
1797.653	4448
1799.788	4431
1801.923	4406
1804.057	4434
1806.193	4417
1808.326	4343
1810.457	4441
1812.59	4387
1814.721	4412
1816.855	4368
1818.984	4350
1821.113	4419
1823.244	4413
1825.372	4419
1827.499	4405
1829.63	4334
1831.756	4425
1833.882	4366
1836.007	4365
1838.132	4330
1840.26	4352
1842.384	4377
1844.507	4368
1846.63	4318
1848.752	4477
1850.875	4369
1852.996	4484
1855.118	4355
1857.238	4386
1859.358	4353
1861.477	4382
1863.597	4364
1865.715	4309
1867.832	4306
1869.948	4399
1872.064	4378
1874.181	4393
1876.297	4385
1878.411	4375
1880.526	4250
1882.639	4426
1884.752	4298
1886.865	4408
1888.977	4432
1891.089	4342
1893.2	4342
1895.308	4320
1897.42	4466
1899.53	4343
1901.639	4403
1903.745	4452
1905.853	4401
1907.962	4387
1910.067	4365
1912.174	4344
1914.278	4495
1916.383	4411
1918.486	4398
1920.592	4502
1922.694	4463
1924.797	4307
1926.898	4416
1929	4444
1931.102	4434
1933.203	4528
1935.301	4357
1937.401	4413
1939.499	4407
1941.598	4535
1943.697	4523
1945.793	4444
1947.888	4491
1949.985	4515
1952.08	4397
1954.176	4482
1956.269	4482
1958.364	4435
1960.457	4494
1962.549	4448
1964.642	4454
1966.733	4358
1968.823	4398
1970.913	4484
1973.005	4487
1975.093	4330
1977.184	4374
1979.271	4532
1981.359	4422
1983.446	4371
1985.532	4464
1987.619	4423
1989.705	4386
1991.789	4384
1993.874	4393
1995.956	4422
1998.041	4486
2000.123	4391
2002.206	4457
2004.287	4479
2006.368	4385
2008.449	4457
2010.529	4433
2012.609	4351
2014.688	4390
2016.766	4359
2018.843	4398
2020.922	4413
2022.999	4417
2025.074	4454
2027.15	4381
2029.225	4425
2031.299	4381
2033.375	4470
2035.447	4432
2037.52	4402
2039.592	4427
2041.664	4396
2043.736	4347
2045.807	4345
2047.876	4485
2049.947	4357
2052.015	4403
2054.086	4467
2056.153	4484
2058.221	4372
2060.288	4443
2062.353	4426
2064.42	4375
2066.486	4360
2068.55	4485
2070.614	4492
2072.678	4410
2074.741	4409
2076.805	4451
2078.866	4503
2080.929	4473
2082.99	4348
2085.049	4498
2087.109	4425
2089.17	4418
2091.228	4430
2093.286	4484
2095.344	4433
2097.4	4456
2099.46	4489
2101.516	4500
2103.572	4415
2105.626	4454
2107.679	4411
2109.735	4369
2111.788	4455
2113.841	4424
2115.894	4397
2117.945	4515
2119.997	4431
2122.049	4344
2124.1	4403
2126.148	4416
2128.197	4515
2130.246	4481
2132.296	4283
2134.342	4399
2136.39	4458
2138.437	4328
2140.483	4364
2142.527	4326
2144.574	4416
2146.619	4515
2148.661	4409
2150.705	4494
2152.747	4340
2154.792	4373
2156.832	4530
2158.874	4422
2160.915	4381
2162.954	4455
2164.995	4397
2167.034	4457
2169.072	4358
2171.111	4379
2173.148	4381
2175.186	4336
2177.223	4373
2179.258	4396
2181.294	4515
2183.328	4342
2185.362	4443
2187.398	4310
2189.431	4310
2191.463	4300
2193.495	4264
2195.528	4336
2197.56	4420
2199.59	4323
2201.62	4333
2203.649	4362
2205.678	4313
2207.708	4438
2209.737	4389
2211.764	4425
2213.791	4235
2215.817	4320
2217.843	4302
2219.87	4323
2221.895	4295
2223.919	4408
2225.942	4310
2227.966	4260
2229.988	4349
2232.012	4235
2234.032	4337
2236.054	4349
2238.074	4278
2240.095	4310
2242.116	4322
2244.135	4238
2246.153	4350
2248.171	4419
2250.188	4307
2252.208	4235
2254.223	4343
2256.239	4371
2258.255	4381
2260.269	4326
2262.283	4338
2264.3	4269
2266.312	4326
2268.325	4257
2270.336	4258
2272.349	4415
2274.362	4291
2276.372	4348
2278.383	4346
2280.392	4328
2282.402	4311
2284.409	4382
2286.418	4349
2288.427	4205
2290.433	4329
2292.441	4257
2294.446	4253
2296.453	4330
2298.459	4339
2300.463	4401
2302.466	4346
2304.471	4327
2306.475	4401
2308.477	4261
2310.478	4357
2312.481	4323
2314.481	4363
2316.481	4374
2318.482	4284
2320.482	4335
2322.48	4216
2324.48	4347
2326.478	4286
2328.476	4241
2330.473	4338
2332.469	4234
2334.465	4280
2336.46	4268
2338.454	4229
2340.45	4302
2342.444	4317
2344.437	4254
2346.43	4238
2348.421	4239
2350.414	4190
2352.405	4327
2354.396	4338
2356.386	4193
2358.376	4282
2360.366	4254
2362.355	4251
2364.343	4306
2366.331	4256
2368.317	4220
2370.304	4253
2372.292	4269
2374.278	4144
2376.262	4209
2378.247	4171
2380.23	4206
2382.216	4248
2384.199	4195
2386.181	4227
2388.163	4262
2390.144	4235
2392.127	4250
2394.107	4096
2396.087	4176
2398.066	4264
2400.046	4262
2402.023	4188
2404.004	4233
2405.981	4163
2407.957	4244
2409.934	4195
2411.91	4157
2413.886	4364
2415.862	4127
2417.836	4209
2419.809	4165
2421.784	4229
2423.756	4191
2425.73	4170
2427.701	4160
2429.672	4274
2431.644	4092
2433.615	4154
2435.586	4187
2437.555	4179
2439.523	4155
2441.491	4168
2443.459	4275
2445.428	4178
2447.395	4140
2449.361	4176
2451.327	4242
2453.292	4147
2455.257	4244
2457.223	4187
2459.187	4110
2461.15	4195
2463.113	4124
2465.076	4231
2467.039	4248
2468.999	4245
2470.96	4164
2472.921	4146
2474.881	4181
2476.841	4083
2478.8	4179
2480.759	4279
2482.717	4130
2484.675	4247
2486.63	4158
2488.589	4106
2490.545	4182
2492.5	4102
2494.455	4100
2496.408	4194
2498.364	4051
2500.318	4142
2502.27	4114
2504.223	4179
2506.174	4067
2508.126	4116
2510.078	4137
2512.03	4129
2513.979	4114
2515.927	3998
2517.877	4106
2519.826	4058
2521.775	4098
2523.722	4137
2525.668	4165
2527.616	4048
2529.561	4123
2531.508	4125
2533.452	4145
2535.398	4070
2537.342	4098
2539.284	4116
2541.229	4130
2543.173	4079
2545.114	4094
2547.055	4116
2548.996	4103
2550.938	4008
2552.878	4092
2554.817	4126
2556.756	4148
2558.695	4049
2560.633	4128
2562.572	4185
2564.509	4040
2566.445	4071
2568.382	4135
2570.317	4084
2572.254	4121
2574.189	4166
2576.123	4136
2578.057	4177
2579.99	4089
2581.923	4128
2583.855	4138
2585.788	4171
2587.719	4053
2589.65	4159
2591.579	4150
2593.511	4141
2595.44	4121
2597.37	4151
2599.297	4162
2601.225	4097
2603.153	4135
2605.08	4034
2607.007	4196
2608.932	4105
2610.858	4111
2612.782	4129
2614.709	4179
2616.632	4116
2618.556	4045
2620.478	4197
2622.401	4148
2624.324	4165
2626.247	4090
2628.167	4134
2630.088	4194
2632.008	4087
2633.928	4086
2635.848	4069
2637.766	4140
2639.684	4152
2641.603	4194
2643.519	4219
2645.437	4064
2647.353	4054
2649.27	4157
2651.184	4150
2653.099	4141
2655.014	4185
2656.928	4155
2658.842	4192
2660.755	4090
2662.667	4089
2664.579	4102
2666.491	4143
2668.402	4096
2670.312	4128
2672.222	4129
2674.132	4101
2676.042	4114
2677.951	4162
2679.859	4159
2681.766	4084
2683.674	4085
2685.582	4153
2687.488	4040
2689.392	4115
2691.298	4065
2693.202	4117
2695.107	4080
2697.012	4076
2698.914	4087
2700.817	3996
2702.72	4062
2704.622	3983
2706.524	4170
2708.425	3980
2710.326	4054
2712.225	4024
2714.125	4050
2716.024	4075
2717.923	4081
2719.822	4106
2721.719	4030
2723.616	4085
2725.512	4060
2727.41	4101
2729.305	4087
2731.201	4143
2733.095	4091
2734.99	4022
2736.884	4075
2738.778	4090
2740.67	4013
2742.562	4098
2744.455	4080
2746.346	4078
2748.238	4064
2750.129	4014
2752.018	4064
2753.907	4030
2755.797	4071
2757.687	3956
2759.575	4107
2761.462	4049
2763.349	4066
2765.237	4052
2767.124	4062
2769.009	4091
2770.894	4004
2772.779	4118
2774.663	4081
2776.547	4079
2778.431	4014
2780.314	3995
2782.197	4125
2784.078	4039
2785.96	3951
2787.842	4014
2789.723	4088
2791.603	4085
2793.483	4044
2795.362	3996
2797.241	4110
2799.121	4057
2800.997	3901
2802.874	4053
2804.751	4028
2806.628	4091
2808.506	4034
2810.38	4020
2812.255	3988
2814.13	4012
2816.003	4004
2817.878	4073
2819.752	3937
2821.623	4067
2823.496	4018
2825.368	4084
2827.238	3988
2829.111	4022
2830.98	4044
2832.851	4033
2834.719	3938
2836.589	4044
2838.458	4055
2840.327	4017
2842.193	4088
2844.061	4053
2845.927	4067
2847.794	4017
2849.66	4056
2851.525	4130
2853.39	4083
2855.254	4099
2857.117	4166
2858.983	4108
2860.845	4121
2862.707	4226
2864.569	4192
2866.431	4168
2868.293	4268
2870.154	4226
2872.013	4200
2873.873	4353
2875.733	4295
2877.592	4327
2879.451	4420
2881.309	4407
2883.166	4451
2885.022	4451
2886.879	4483
2888.736	4506
2890.591	4481
2892.446	4554
2894.301	4521
2896.155	4504
2898.009	4532
2899.863	4549
2901.716	4445
2903.568	4520
2905.419	4393
2907.27	4431
2909.123	4517
2910.973	4535
2912.824	4432
2914.673	4501
2916.521	4538
2918.372	4675
2920.22	4726
2922.067	4662
2923.914	4614
2925.761	4711
2927.607	4753
2929.455	4871
2931.301	4804
2933.144	4859
2934.99	4922
2936.833	4991
2938.678	5013
2940.522	4917
2942.364	5069
2944.207	5092
2946.048	5039
2947.891	5239
2949.731	5169
2951.571	5050
2953.412	5108
2955.25	5168
2957.09	5141
2958.93	5027
2960.767	5007
2962.606	4902
2964.443	4932
2966.279	4804
2968.116	4670
2969.953	4777
2971.788	4653
2973.623	4673
2975.457	4617
2977.292	4673
2979.127	4502
2980.959	4618
2982.792	4468
2984.624	4534
2986.455	4486
2988.288	4457
2990.119	4479
2991.949	4418
2993.779	4411
2995.608	4342
2997.439	4262
2999.268	4339
3001.096	4246
3002.923	4139
3004.751	4174
3006.578	3988
3008.406	4071
3010.232	4081
3012.057	4021
3013.883	4067
3015.706	4052
3017.532	3971
3019.356	3936
3021.179	4027
3023.002	3999
3024.823	4027
3026.646	3953
3028.469	3919
3030.289	3917
3032.11	3863
3033.93	3848
3035.749	3820
3037.57	3758
3039.39	3776
3041.207	3844
3043.026	3924
3044.842	3816
3046.661	3852
3048.477	3889
3050.294	3757
3052.109	3829
3053.925	3899
3055.739	3809
3057.555	3893
3059.368	3771
3061.181	3848
3062.995	3860
3064.807	3886
3066.62	3874
3068.433	3827
3070.243	3810
3072.054	3859
3073.865	3772
3075.675	3828
3077.485	3755
3079.293	3768
3081.102	3782
3082.911	3777
3084.719	3731
3086.527	3756
3088.333	3853
3090.139	3883
3091.945	3657
3093.75	3812
3095.557	3641
3097.361	3715
3099.165	3683
3100.969	3663
3102.772	3737
3104.575	3638
3106.379	3838
3108.181	3678
3109.982	3718
3111.783	3677
3113.584	3674
3115.386	3721
3117.186	3745
3118.985	3730
3120.783	3649
3122.582	3710
3124.381	3695
3126.179	3694
3127.975	3658
3129.772	3607
3131.569	3725
3133.365	3644
3135.161	3731
3136.956	3750
3138.751	3609
3140.544	3665
3142.338	3723
3144.132	3670
3145.925	3635
3147.717	3626
3149.509	3648
3151.301	3641
3153.091	3685
3154.884	3618
3156.673	3655
3158.462	3650
3160.252	3660
3162.041	3635
3163.831	3662
3165.618	3557
3167.405	3618
3169.193	3641
3170.979	3574
3172.767	3650
3174.553	3658
3176.338	3528
3178.123	3676
3179.907	3609
3181.692	3615
3183.477	3665
3185.259	3717
3187.042	3574
3188.824	3634
3190.607	3638
3192.389	3556
3194.17	3581
3195.951	3544
3197.73	3592
3199.51	3611
3201.289	3636
3203.07	3682
3204.848	3634
3206.626	3588
3208.403	3587
3210.18	3590
3211.959	3596
3213.735	3586
3215.511	3625
3217.285	3571
3219.06	3571
3220.836	3551
3222.611	3569
3224.384	3623
3226.158	3568
3227.929	3612
3229.702	3623
3231.476	3588
3233.248	3575
3235.018	3651
3236.789	3657
3238.56	3680
3240.33	3520
3242.1	3547
3243.869	3621
3245.637	3515
3247.405	3622
3249.172	3589
3250.941	3580
3252.707	3609
3254.474	3577
3256.24	3597
3258.006	3551
3259.772	3595
3261.537	3552
3263.301	3643
3265.065	3588
3266.828	3652
3268.592	3572
3270.355	3630
3272.117	3559
3273.878	3639
3275.64	3563
3277.401	3619
3279.162	3434
3280.922	3596
3282.682	3515
3284.441	3594
3286.199	3593
3287.959	3547
3289.716	3571
3291.475	3607
3293.232	3622
3294.988	3582
3296.744	3602
3298.501	3611
3300.256	3665
3302.011	3610
3303.766	3603
3305.52	3561
3307.275	3626
3309.028	3609
3310.781	3579
3312.533	3574
3314.285	3576
3316.038	3611
3317.789	3618
3319.54	3640
3321.289	3557
3323.039	3614
3324.789	3624
3326.539	3654
3328.288	3626
3330.035	3584
3331.783	3566
3333.531	3536
3335.28	3577
3337.025	3529
3338.771	3523
3340.518	3606
3342.262	3489
3344.009	3586
3345.753	3553
3347.497	3576
3349.24	3570
3350.983	3551
3352.726	3521
3354.469	3598
3356.212	3565
3357.952	3633
3359.694	3457
3361.434	3564
3363.176	3498
3364.916	3558
3366.654	3511
3368.394	3508
3370.132	3468
3371.871	3514
3373.61	3548
3375.346	3495
3377.083	3558
3378.82	3507
3380.556	3437
3382.292	3473
3384.027	3426
3385.763	3543
3387.497	3536
3389.231	3468
3390.965	3521
3392.698	3468
3394.431	3445
3396.164	3487
3397.896	3477
3399.627	3489
3401.36	3467
3403.09	3457
3404.82	3404
3406.55	3385
3408.279	3442
3410.01	3400
3411.738	3460
3413.467	3450
3415.194	3399
3416.92	3364
3418.647	3391
3420.375	3447
3422.102	3412
3423.827	3436
3425.553	3376
3427.277	3434
3429.003	3434
3430.727	3453
3432.451	3425
3434.173	3383
3435.896	3362
3437.62	3454
3439.343	3353
3441.063	3436
3442.785	3399
3444.505	3373
3446.226	3285
3447.948	3434
3449.666	3276
3451.386	3347
3453.104	3345
3454.823	3388
3456.541	3377
3458.259	3285
3459.976	3320
3461.693	3274
3463.408	3312
3465.125	3281
3466.841	3278
3468.556	3318
3470.271	3255
3471.985	3272
3473.698	3287
3475.414	3302
3477.126	3275
3478.838	3202
3480.55	3305
3482.263	3310
3483.975	3240
3485.686	3239
3487.396	3236
3489.106	3270
3490.817	3205
3492.526	3187
3494.236	3196
3495.944	3167
3497.652	3193
3499.359	3216
3501.066	3219
3502.775	3301
3504.481	3144
3506.187	3219
3507.893	3199
3509.598	3215
3511.304	3154
3513.009	3179
3514.713	3125
3516.417	3136
3518.12	3187
3519.821	3190
3521.525	3152
3523.228	3216
3524.929	3176
3526.631	3117
3528.33	3177
3530.032	3175
3531.733	3133
3533.433	3164
3535.131	3116
3536.83	3112
3538.529	3161
3540.227	3045
3541.925	3117
3543.623	3090
3545.319	3171
3547.016	3162
3548.712	3140
3550.408	3147
3552.103	3084
3553.798	3165
3555.491	3133
3557.188	3084
3558.88	3155
3560.574	3049
3562.266	3056
3563.959	3178
3565.651	3093
3567.343	3091
3569.035	3180
3570.725	3072
3572.415	3059
3574.106	3051
3575.797	3042
3577.485	3022
3579.174	3113
3580.863	3073
3582.551	3007
3584.238	3070
3585.926	3087
3587.613	3044
3589.3	2975
3590.986	3028
3592.671	2938
3594.357	3084
3596.042	3021
3597.726	3001
3599.41	3017
3601.094	3020
3602.778	2994
3604.461	2987
3606.143	3041
3607.825	2957
3609.507	2905
3611.188	2902
3612.87	2921
3614.551	2985
3616.229	2944
3617.909	2943
3619.589	2944
3621.269	2917
3622.948	2972
3624.625	2942
3626.302	2912
3627.98	2967
3629.657	2955
3631.334	2891
3633.01	2792
3634.686	2927
3636.361	2883
3638.036	2932
3639.712	2902
3641.385	2940
3643.06	2851
3644.732	2972
3646.405	2941
3648.08	2839
3649.751	2850
3651.424	2858
3653.094	2878
3654.766	2885
3656.436	2890
3658.106	2860
3659.777	2902
3661.446	2854
3663.115	2830
3664.783	2822
3666.452	2800
3668.121	2871
3669.788	2772
3671.454	2806
3673.121	2876
3674.789	2821
3676.455	2812
3678.12	2856
3679.784	2820
3681.45	2749
3683.114	2841
3684.779	2820
3686.442	2883
3688.105	2801
3689.768	2780
3691.43	2729
3693.093	2764
3694.754	2917
3696.415	2782
3698.076	2819
3699.736	2791
3701.396	2770
3703.057	2797
3704.716	2801
3706.375	2763
3708.034	2885
3709.692	2787
3711.351	2835
3713.008	2815
3714.665	2762
3716.321	2754
3717.977	2821
3719.634	2800
3721.29	2741
3722.945	2814
3724.598	2696
3726.253	2779
3727.907	2777
3729.561	2738
3731.214	2836
3732.867	2787
3734.518	2771
3736.171	2742
3737.824	2788
3739.474	2784
3741.125	2752
3742.775	2765
3744.425	2760
3746.074	2727
3747.725	2770
3749.373	2778
3751.022	2774
3752.669	2787
3754.318	2714
3755.966	2775
3757.612	2717
3759.259	2773
3760.905	2762
3762.55	2775
3764.197	2704
3765.842	2691
3767.486	2723
3769.131	2720
3770.774	2697
3772.417	2678
3774.061	2731
3775.705	2692
3777.347	2699
3778.988	2667
3780.629	2701
3782.271	2683
3783.912	2658
3785.552	2650
3787.192	2685
3788.831	2679
3790.472	2664
3792.112	2661
3793.75	2716
3795.388	2660
3797.024	2676
3798.661	2670
3800.3	2697
3801.936	2640
3803.572	2657
3805.208	2644
3806.844	2692
3808.48	2692
3810.115	2621
3811.748	2603
3813.382	2677
3815.016	2667
3816.649	2586
3818.283	2595
3819.914	2651
3821.547	2653
3823.178	2660
3824.809	2665
3826.441	2620
3828.072	2640
3829.701	2620
3831.331	2608
3832.96	2645
3834.591	2549
3836.219	2644
3837.847	2595
3839.475	2608
3841.102	2656
3842.729	2610
3844.357	2607
3845.984	2675
3847.609	2607
3849.234	2553
3850.86	2574
3852.485	2555
3854.11	2587
3855.734	2663
3857.357	2625
3858.981	2609
3860.603	2542
3862.227	2528
3863.848	2589
3865.471	2532
3867.092	2582
3868.713	2604
3870.334	2578
3871.954	2638
3873.575	2504
3875.194	2560
3876.813	2588
3878.433	2608
3880.051	2576
3881.669	2565
3883.286	2588
3884.904	2644
3886.52	2543
3888.138	2574
3889.754	2546
3891.37	2563
3892.985	2542
3894.6	2590
3896.216	2515
3897.831	2514
3899.444	2597
3901.058	2580
3902.67	2519
3904.283	2496
3905.897	2602
3907.509	2558
3909.121	2570
3910.731	2499
3912.342	2498
3913.954	2573
3915.563	2528
3917.174	2479
3918.783	2531
3920.391	2452
3922.002	2546
3923.611	2491
3925.218	2552
3926.826	2505
3928.432	2569
3930.039	2407
3931.647	2533
3933.253	2510
3934.859	2426
3936.464	2524
3938.068	2473
3939.675	2520
3941.278	2500
3942.883	2479
3944.486	2520
3946.089	2534
3947.692	2467
3949.295	2454
3950.898	2559
3952.499	2512
3954.1	2537
3955.7	2458
3957.303	2502
3958.903	2550
3960.502	2499
3962.101	2466
3963.7	2425
3965.301	2463
3966.899	2475
3968.497	2377
3970.094	2505
3971.691	2431
3973.288	2429
3974.885	2419
3976.481	2435
3978.077	2457
3979.672	2454
3981.267	2423
3982.863	2490
3984.457	2441
3986.051	2434
3987.645	2417
3989.238	2396
3990.831	2385
3992.425	2415
3994.017	2446
3995.607	2410
3997.199	2437
3998.79	2413
4000.382	2373
4001.973	2416
4003.561	2410
4005.151	2442
4006.741	2435
4008.331	2425
4009.918	2392
4011.507	2388
4013.095	2360
4014.681	2411
4016.269	2334
4017.856	2424
4019.443	2388
4021.028	2389
4022.614	2359
4024.199	2342
4025.785	2418
4027.37	2317
4028.953	2322
4030.536	2328
4032.12	2310
4033.704	2378
4035.287	2383
4036.869	2404
4038.45	2362
4040.032	2329
4041.613	2342
4043.195	2341
4044.776	2290
4046.356	2355
4047.935	2370
4049.515	2342
4051.095	2307
4052.674	2386
4054.251	2312
4055.829	2349
4057.406	2295
4058.985	2334
4060.562	2319
4062.139	2311
4063.715	2293
4065.29	2282
4066.865	2328
4068.442	2303
4070.016	2300
4071.59	2332
4073.164	2247
4074.738	2275
4076.312	2259
4077.885	2291
4079.458	2249
4081.03	2325
4082.602	2307
4084.173	2278
4085.745	2222
4087.315	2294
4088.886	2317
4090.456	2299
4092.026	2268
4093.596	2327
4095.165	2282
4096.734	2259
4098.301	2288
4099.869	2268
4101.437	2253
4103.006	2270
4104.572	2225
4106.139	2205
4107.704	2285
4109.27	2243
4110.837	2212
4112.401	2250
4113.966	2279
4115.53	2198
4117.094	2271
4118.659	2243
4120.223	2158
4121.785	2202
4123.347	2263
4124.909	2315
4126.471	2171
4128.034	2203
4129.595	2208
4131.155	2197
4132.716	2236
4134.275	2192
4135.836	2172
4137.395	2238
4138.955	2204
4140.513	2148
4142.071	2190
4143.628	2196
4145.188	2216
4146.745	2210
4148.302	2223
4149.858	2168
4151.414	2223
4152.971	2160
4154.526	2264
4156.081	2151
4157.635	2146
4159.189	2173
4160.745	2194
4162.298	2199
4163.852	2161
4165.405	2183
4166.957	2195
4168.51	2108
4170.063	2172
4171.614	2109
4173.166	2124
4174.717	2124
4176.267	2115
4177.817	2171
4179.368	2141
4180.917	2131
4182.466	2147
4184.016	2165
4185.564	2139
4187.112	2143
4188.66	2185
4190.207	2143
4191.754	2098
4193.301	2092
4194.848	2122
4196.394	2130
4197.94	2122
4199.484	2130
4201.03	2105
4202.575	2114
4204.12	2147
4205.663	2167
4207.207	2087
4208.75	2143
4210.292	2117
4211.836	2131
4213.378	2139
4214.92	2082
4216.46	2093
4218.002	2085
4219.544	2090
4221.083	2104
4222.625	2145
4224.164	2079
4225.703	2086
4227.244	2129
4228.782	2077
4230.32	2129
4231.857	2089
4233.395	2067
4234.933	2051
4236.471	2079
4238.007	2035
4239.542	2127
4241.078	2057
4242.614	2106
4244.15	2023
4245.685	2064
4247.219	2080
4248.753	2061
4250.287	2046
4251.82	2066
4253.354	2030
4254.887	2022
4256.419	2012
4257.951	2030
4259.483	2079
4261.016	2047
4262.547	2055
4264.078	2037
4265.608	2072
4267.137	2059
4268.668	2040
4270.197	2004
4271.727	2014
4273.254	2073
4274.783	2091
4276.311	2031
4277.84	2052
4279.366	2030
4280.894	2036
4282.42	1987
4283.946	2004
4285.473	2051
4286.998	2022
4288.523	2039
4290.047	1995
4291.572	2039
4293.096	2036
4294.622	1999
4296.144	2005
4297.668	2001
4299.19	2033
4300.713	2050
4302.236	2026
4303.758	1997
4305.279	1994
4306.799	1950
4308.321	1953
4309.842	1946
4311.361	2041
4312.882	1936
4314.401	1980
