400.0961	2363
402.6185	2470
405.1424	2426
407.6635	2447
410.1838	2458
412.7035	2550
415.2225	2470
417.7388	2504
420.2585	2521
422.7754	2530
425.2917	2524
427.8072	2629
430.3221	2576
432.8363	2657
435.3498	2553
437.8626	2637
440.3727	2685
442.8841	2557
445.3969	2567
447.907	2622
450.4142	2599
452.9229	2655
455.4289	2611
457.9362	2594
460.4449	2614
462.9488	2624
465.454	2616
467.9566	2568
470.4604	2645
472.9637	2615
475.4662	2614
477.966	2629
480.4671	2628
482.9656	2639
485.4633	2607
487.9645	2646
490.4608	2606
492.9566	2660
495.4536	2673
497.948	2630
500.4437	2644
502.9387	2703
505.431	2688
507.9226	2697
510.4136	2608
512.9079	2668
515.3975	2612
517.8864	2648
520.3746	2748
522.8622	2645
525.3491	2723
527.8394	2738
530.3249	2628
532.8098	2713
535.2939	2687
537.7774	2695
540.2623	2721
542.7444	2643
545.2259	2683
547.7067	2638
550.1868	2706
552.6683	2708
555.147	2682
557.6231	2736
560.1005	2733
562.5773	2768
565.0534	2684
567.5308	2768
570.0056	2711
572.4776	2791
574.951	2792
577.4237	2835
579.8978	2848
582.3671	2815
584.8378	2880
587.3079	2743
589.7773	2823
592.244	2812
594.714	2840
597.1793	2834
599.6461	2835
602.1121	2787
604.5754	2793
607.0421	2844
609.5042	2801
611.9675	2814
614.4282	2760
616.8902	2819
619.3515	2797
621.8122	2811
624.2702	2749
626.7296	2797
629.1863	2765
631.6423	2878
634.1017	2728
636.5563	2764
639.0104	2772
641.4658	2751
643.9185	2828
646.3725	2805
648.8239	2743
651.2766	2838
653.7266	2817
656.176	2745
658.6247	2800
661.0748	2808
663.5242	2838
665.9709	2812
668.417	2791
670.8624	2856
673.3092	2830
675.7533	2888
678.1968	2826
680.6395	2859
683.0817	2833
685.5251	2892
687.9659	2857
690.4061	2869
692.8456	2840
695.2844	2825
697.7226	2915
700.1621	2867
702.599	2863
705.0332	2870
707.4688	2867
709.9036	2845
712.3399	2886
714.7735	2919
717.2044	2902
719.6367	2928
722.0683	2890
724.4993	2995
726.9296	2981
729.3593	2952
731.7883	2969
734.2147	2962
736.6423	2943
739.0714	2974
741.4958	2914
743.9216	2948
746.3447	2921
748.7691	3031
751.1929	2927
753.616	3024
756.0366	3037
758.4584	3049
760.8776	2980
763.2982	3035
765.718	3023
768.1373	3027
770.5539	3038
772.9698	3038
775.3871	3061
777.8038	3113
780.2178	3103
782.6332	3095
785.0459	3070
787.458	3028
789.8714	3054
792.2842	3151
794.6943	3084
797.1038	3055
799.5127	3055
801.9209	3060
804.3324	3097
806.7393	3013
809.1456	2986
811.5513	3001
813.9562	3079
816.3625	3093
818.7663	3115
821.1693	3150
823.5718	3126
825.9735	3117
828.3746	3053
830.7771	3077
833.177	3080
835.5762	3136
837.9747	3056
840.3727	3136
842.772	3115
845.1666	3103
847.5626	3058
849.958	3122
852.3527	3159
854.7488	3200
857.1403	3139
859.5331	3199
861.9253	3076
864.3168	3189
866.7057	3180
869.098	3174
871.4876	3138
873.8746	3130
876.263	3164
878.6487	3111
881.0378	3194
883.4243	3147
885.8081	3118
888.1933	3235
890.5759	3152
892.9598	3130
895.343	3153
897.7256	3241
900.1057	3168
902.4871	3167
904.8659	3243
907.246	3165
909.6254	3153
912.0023	3156
914.3786	3166
916.7562	3248
919.1331	3208
921.5074	3289
923.8831	3229
926.2562	3304
928.6287	3293
931.0005	3255
933.3757	3278
935.7462	3392
938.1162	3377
940.4855	3327
942.8542	3389
945.2242	3429
947.5916	3463
949.9584	3541
952.3266	3661
954.6921	3787
957.0571	4042
959.4233	4108
961.787	4100
964.15	4138
966.5125	4034
968.8742	3906
971.2354	3716
973.5959	3626
975.9559	3380
978.3151	3445
980.6738	3291
983.0338	3279
985.3912	3299
987.7461	3316
990.1022	3224
992.4578	3223
994.8127	3319
997.1689	3210
999.5207	3250
1001.874	3241
1004.226	3289
1006.576	3330
1008.929	3190
1011.28	3251
1013.628	3251
1015.977	3354
1018.324	3351
1020.674	3310
1023.019	3287
1025.366	3307
1027.713	3311
1030.056	3311
1032.399	3300
1034.746	3312
1037.087	3342
1039.431	3363
1041.771	3337
1044.113	3323
1046.454	3345
1048.793	3338
1051.133	3390
1053.471	3341
1055.807	3407
1058.146	3412
1060.483	3410
1062.818	3380
1065.153	3417
1067.489	3398
1069.822	3453
1072.156	3463
1074.488	3453
1076.82	3422
1079.15	3375
1081.48	3387
1083.814	3378
1086.143	3425
1088.471	3376
1090.799	3422
1093.126	3359
1095.452	3444
1097.78	3344
1100.105	3275
1102.43	3348
1104.754	3376
1107.077	3337
1109.4	3498
1111.722	3329
1114.044	3316
1116.365	3429
1118.685	3351
1121.005	3380
1123.324	3361
1125.643	3399
1127.961	3393
1130.278	3389
1132.595	3446
1134.911	3400
1137.226	3388
1139.541	3307
1141.854	3382
1144.167	3370
1146.482	3438
1148.793	3389
1151.105	3389
1153.414	3357
1155.725	3467
1158.033	3376
1160.344	3414
1162.651	3385
1164.959	3400
1167.265	3401
1169.572	3336
1171.878	3392
1174.184	3437
1176.488	3409
1178.79	3262
1181.094	3388
1183.396	3481
1185.699	3330
1188.001	3317
1190.301	3359
1192.6	3351
1194.9	3437
1197.2	3320
1199.497	3413
1201.794	3379
1204.09	3525
1206.387	3382
1208.684	3346
1210.978	3404
1213.272	3458
1215.565	3445
1217.858	3421
1220.15	3394
1222.443	3437
1224.734	3432
1227.024	3446
1229.313	3453
1231.602	3480
1233.892	3346
1236.18	3594
1238.467	3461
1240.754	3498
1243.04	3426
1245.325	3491
1247.612	3521
1249.896	3428
1252.178	3566
1254.461	3417
1256.743	3440
1259.027	3513
1261.308	3481
1263.587	3564
1265.867	3420
1268.146	3506
1270.425	3519
1272.703	3548
1274.981	3547
1277.256	3470
1279.532	3540
1281.808	3508
1284.083	3454
1286.358	3540
1288.63	3534
1290.904	3471
1293.175	3470
1295.449	3505
1297.719	3583
1299.99	3509
1302.259	3456
1304.529	3457
1306.798	3535
1309.065	3511
1311.333	3507
1313.599	3519
1315.866	3495
1318.131	3520
1320.396	3434
1322.66	3520
1324.925	3438
1327.187	3472
1329.448	3497
1331.711	3496
1333.974	3545
1336.234	3440
1338.493	3513
1340.752	3511
1343.01	3479
1345.269	3515
1347.526	3474
1349.784	3449
1352.04	3529
1354.295	3497
1356.552	3458
1358.806	3451
1361.059	3436
1363.312	3407
1365.564	3490
1367.818	3564
1370.069	3476
1372.318	3485
1374.568	3545
1376.817	3583
1379.066	3470
1381.316	3503
1383.564	3495
1385.809	3470
1388.056	3568
1390.301	3549
1392.549	3528
1394.793	3624
1397.036	3561
1399.279	3567
1401.522	3516
1403.763	3572
1406.007	3625
1408.248	3510
1410.487	3533
1412.727	3638
1414.965	3646
1417.205	3554
1419.442	3523
1421.68	3560
1423.915	3567
1426.152	3612
1428.388	3593
1430.623	3615
1432.857	3618
1435.091	3640
1437.323	3588
1439.556	3587
1441.789	3641
1444.019	3578
1446.25	3559
1448.48	3695
1450.708	3608
1452.938	3682
1455.167	3720
1457.394	3654
1459.62	3610
1461.846	3659
1464.073	3620
1466.299	3623
1468.523	3656
1470.746	3622
1472.969	3578
1475.191	3581
1477.415	3575
1479.636	3571
1481.858	3486
1484.078	3559
1486.298	3619
1488.518	3586
1490.736	3542
1492.954	3492
1495.169	3489
1497.386	3562
1499.602	3497
1501.819	3501
1504.034	3518
1506.248	3510
1508.462	3461
1510.675	3548
1512.888	3526
1515.1	3513
1517.311	3520
1519.522	3491
1521.732	3473
1523.942	3539
1526.151	3526
1528.36	3468
1530.566	3554
1532.773	3557
1534.98	3614
1537.187	3515
1539.392	3555
1541.596	3512
1543.801	3555
1546.005	3500
1548.208	3493
1550.411	3599
1552.612	3557
1554.814	3566
1557.013	3562
1559.212	3596
1561.414	3647
1563.612	3598
1565.811	3569
1568.007	3596
1570.203	3583
1572.403	3587
1574.598	3622
1576.792	3590
1578.988	3626
1581.181	3577
1583.376	3602
1585.568	3636
1587.761	3594
1589.952	3574
1592.143	3589
1594.333	3597
1596.524	3566
1598.715	3593
1600.903	3635
1603.091	3645
1605.278	3646
1607.466	3626
1609.652	3596
1611.838	3721
1614.023	3697
1616.207	3674
1618.391	3731
1620.576	3628
1622.759	3752
1624.941	3721
1627.123	3698
1629.304	3599
1631.484	3657
1633.664	3678
1635.844	3745
1638.022	3700
1640.201	3700
1642.38	3670
1644.556	3775
1646.732	3644
1648.908	3704
1651.084	3728
1653.257	3636
1655.433	3698
1657.607	3666
1659.779	3755
1661.951	3694
1664.122	3740
1666.295	3705
1668.467	3724
1670.635	3667
1672.805	3716
1674.973	3705
1677.142	3700
1679.31	3796
1681.478	3771
1683.644	3724
1685.81	3605
1687.975	3660
1690.142	3723
1692.305	3699
1694.468	3699
1696.632	3662
1698.794	3703
1700.957	3609
1703.119	3685
1705.279	3717
1707.439	3671
1709.598	3700
1711.758	3652
1713.917	3675
1716.075	3695
1718.231	3626
1720.388	3670
1722.543	3705
1724.702	3629
1726.856	3709
1729.01	3677
1731.164	3672
1733.317	3690
1735.471	3655
1737.623	3677
1739.774	3622
1741.925	3662
1744.075	3615
1746.225	3670
1748.376	3662
1750.524	3644
1752.672	3695
1754.82	3657
1756.965	3719
1759.113	3738
1761.259	3678
1763.405	3651
1765.549	3713
1767.694	3720
1769.836	3671
1771.981	3759
1774.123	3620
1776.264	3663
1778.405	3764
1780.546	3648
1782.687	3622
1784.827	3759
1786.966	3722
1789.103	3675
1791.242	3667
1793.381	3722
1795.517	3792
1797.653	3718
1799.788	3698
1801.923	3734
1804.057	3751
1806.193	3643
1808.326	3704
1810.457	3761
1812.59	3644
1814.721	3772
1816.855	3704
1818.984	3684
1821.113	3720
1823.244	3700
1825.372	3730
1827.499	3723
1829.63	3616
1831.756	3659
1833.882	3700
1836.007	3750
1838.132	3655
1840.26	3732
1842.384	3700
1844.507	3701
1846.63	3709
1848.752	3655
1850.875	3698
1852.996	3647
1855.118	3711
1857.238	3575
1859.358	3702
1861.477	3740
1863.597	3660
1865.715	3647
1867.832	3674
1869.948	3682
1872.064	3642
1874.181	3623
1876.297	3693
1878.411	3660
1880.526	3689
1882.639	3651
1884.752	3637
1886.865	3659
1888.977	3698
1891.089	3667
1893.2	3675
1895.308	3657
1897.42	3722
1899.53	3697
1901.639	3748
1903.745	3751
1905.853	3801
1907.962	3698
1910.067	3667
1912.174	3673
1914.278	3737
1916.383	3666
1918.486	3799
1920.592	3683
1922.694	3700
1924.797	3793
1926.898	3679
1929	3716
1931.102	3711
1933.203	3636
1935.301	3654
1937.401	3691
1939.499	3696
1941.598	3728
1943.697	3788
1945.793	3657
1947.888	3734
1949.985	3741
1952.08	3727
1954.176	3737
1956.269	3725
1958.364	3708
1960.457	3778
1962.549	3750
1964.642	3727
1966.733	3731
1968.823	3757
1970.913	3711
1973.005	3711
1975.093	3753
1977.184	3723
1979.271	3726
1981.359	3717
1983.446	3667
1985.532	3661
1987.619	3745
1989.705	3686
1991.789	3776
1993.874	3715
1995.956	3736
1998.041	3709
2000.123	3743
2002.206	3668
2004.287	3712
2006.368	3741
2008.449	3679
2010.529	3721
2012.609	3710
2014.688	3741
2016.766	3712
2018.843	3643
2020.922	3715
2022.999	3701
2025.074	3692
2027.15	3718
2029.225	3686
2031.299	3713
2033.375	3643
2035.447	3725
2037.52	3682
2039.592	3689
2041.664	3698
2043.736	3724
2045.807	3667
2047.876	3688
2049.947	3738
2052.015	3725
2054.086	3677
2056.153	3717
2058.221	3708
2060.288	3687
2062.353	3666
2064.42	3751
2066.486	3708
2068.55	3716
2070.614	3664
2072.678	3721
2074.741	3747
2076.805	3758
2078.866	3764
2080.929	3663
2082.99	3640
2085.049	3799
2087.109	3737
2089.17	3670
2091.228	3714
2093.286	3713
2095.344	3746
2097.4	3748
2099.46	3707
2101.516	3783
2103.572	3770
2105.626	3689
2107.679	3758
2109.735	3701
2111.788	3693
2113.841	3712
2115.894	3598
2117.945	3738
2119.997	3697
2122.049	3673
2124.1	3653
2126.148	3704
2128.197	3654
2130.246	3680
2132.296	3713
2134.342	3695
2136.39	3660
2138.437	3655
2140.483	3763
2142.527	3654
2144.574	3724
2146.619	3643
2148.661	3730
2150.705	3721
2152.747	3652
2154.792	3658
2156.832	3710
2158.874	3679
2160.915	3651
2162.954	3752
2164.995	3727
2167.034	3752
2169.072	3710
2171.111	3619
2173.148	3716
2175.186	3643
2177.223	3635
2179.258	3638
2181.294	3652
2183.328	3752
2185.362	3661
2187.398	3734
2189.431	3624
2191.463	3666
2193.495	3666
2195.528	3670
2197.56	3571
2199.59	3659
2201.62	3592
2203.649	3605
2205.678	3703
2207.708	3621
2209.737	3625
2211.764	3601
2213.791	3659
2215.817	3586
2217.843	3609
2219.87	3694
2221.895	3693
2223.919	3577
2225.942	3632
2227.966	3624
2229.988	3622
2232.012	3605
2234.032	3740
2236.054	3599
2238.074	3604
2240.095	3582
2242.116	3641
2244.135	3591
2246.153	3630
2248.171	3585
2250.188	3640
2252.208	3642
2254.223	3619
2256.239	3607
2258.255	3623
2260.269	3681
2262.283	3567
2264.3	3718
2266.312	3640
2268.325	3629
2270.336	3643
2272.349	3680
2274.362	3738
2276.372	3607
2278.383	3683
2280.392	3630
2282.402	3551
2284.409	3624
2286.418	3630
2288.427	3615
2290.433	3703
2292.441	3690
2294.446	3635
2296.453	3640
2298.459	3682
2300.463	3597
2302.466	3721
2304.471	3589
2306.475	3675
2308.477	3611
2310.478	3593
2312.481	3644
2314.481	3559
2316.481	3597
2318.482	3629
2320.482	3605
2322.48	3578
2324.48	3584
2326.478	3547
2328.476	3593
2330.473	3616
2332.469	3581
2334.465	3538
2336.46	3679
2338.454	3550
2340.45	3603
2342.444	3642
2344.437	3558
2346.43	3566
2348.421	3593
2350.414	3603
2352.405	3563
2354.396	3559
2356.386	3557
2358.376	3698
2360.366	3572
2362.355	3487
2364.343	3520
2366.331	3558
2368.317	3531
2370.304	3571
2372.292	3600
2374.278	3567
2376.262	3582
2378.247	3586
2380.23	3475
2382.216	3487
2384.199	3598
2386.181	3535
2388.163	3488
2390.144	3541
2392.127	3553
2394.107	3487
2396.087	3554
2398.066	3550
2400.046	3470
2402.023	3537
2404.004	3483
2405.981	3534
2407.957	3533
2409.934	3481
2411.91	3570
2413.886	3507
2415.862	3492
2417.836	3534
2419.809	3605
2421.784	3518
2423.756	3449
2425.73	3467
2427.701	3455
2429.672	3485
2431.644	3599
2433.615	3539
2435.586	3544
2437.555	3524
2439.523	3504
2441.491	3427
2443.459	3574
2445.428	3570
2447.395	3476
2449.361	3492
2451.327	3569
2453.292	3517
2455.257	3519
2457.223	3541
2459.187	3450
2461.15	3506
2463.113	3498
2465.076	3536
2467.039	3548
2468.999	3481
2470.96	3467
2472.921	3436
2474.881	3493
2476.841	3521
2478.8	3461
2480.759	3470
2482.717	3482
2484.675	3424
2486.63	3449
2488.589	3491
2490.545	3523
2492.5	3468
2494.455	3445
2496.408	3486
2498.364	3503
2500.318	3500
2502.27	3478
2504.223	3484
2506.174	3431
2508.126	3467
2510.078	3460
2512.03	3481
2513.979	3462
2515.927	3516
2517.877	3491
2519.826	3473
2521.775	3444
2523.722	3475
2525.668	3443
2527.616	3456
2529.561	3409
2531.508	3492
2533.452	3414
2535.398	3414
2537.342	3448
2539.284	3474
2541.229	3385
2543.173	3444
2545.114	3507
2547.055	3490
2548.996	3402
2550.938	3409
2552.878	3424
2554.817	3503
2556.756	3490
2558.695	3405
2560.633	3416
2562.572	3397
2564.509	3494
2566.445	3495
2568.382	3500
2570.317	3484
2572.254	3351
2574.189	3474
2576.123	3384
2578.057	3408
2579.99	3440
2581.923	3400
2583.855	3385
2585.788	3509
2587.719	3456
2589.65	3435
2591.579	3473
2593.511	3513
2595.44	3405
2597.37	3465
2599.297	3443
2601.225	3539
2603.153	3490
2605.08	3481
2607.007	3441
2608.932	3446
2610.858	3469
2612.782	3459
2614.709	3407
2616.632	3421
2618.556	3426
2620.478	3451
2622.401	3384
2624.324	3459
2626.247	3442
2628.167	3478
2630.088	3453
2632.008	3478
2633.928	3460
2635.848	3385
2637.766	3516
2639.684	3434
2641.603	3468
2643.519	3476
2645.437	3409
2647.353	3417
2649.27	3493
2651.184	3520
2653.099	3493
2655.014	3453
2656.928	3477
2658.842	3448
2660.755	3370
2662.667	3424
2664.579	3434
2666.491	3396
2668.402	3448
2670.312	3468
2672.222	3403
2674.132	3477
2676.042	3425
2677.951	3455
2679.859	3490
2681.766	3449
2683.674	3435
2685.582	3455
2687.488	3377
2689.392	3441
2691.298	3446
2693.202	3345
2695.107	3402
2697.012	3355
2698.914	3419
2700.817	3461
2702.72	3441
2704.622	3285
2706.524	3427
2708.425	3375
2710.326	3468
2712.225	3457
2714.125	3329
2716.024	3389
2717.923	3364
2719.822	3423
2721.719	3489
2723.616	3434
2725.512	3420
2727.41	3391
2729.305	3372
2731.201	3348
2733.095	3323
2734.99	3345
2736.884	3351
2738.778	3301
2740.67	3365
2742.562	3433
2744.455	3381
2746.346	3314
2748.238	3368
2750.129	3412
2752.018	3378
2753.907	3475
2755.797	3392
2757.687	3378
2759.575	3331
2761.462	3391
2763.349	3318
2765.237	3382
2767.124	3395
2769.009	3321
2770.894	3360
2772.779	3385
2774.663	3356
2776.547	3379
2778.431	3357
2780.314	3308
2782.197	3346
2784.078	3392
2785.96	3313
2787.842	3345
2789.723	3373
2791.603	3366
2793.483	3314
2795.362	3334
2797.241	3326
2799.121	3347
2800.997	3305
2802.874	3307
2804.751	3327
2806.628	3197
2808.506	3337
2810.38	3333
2812.255	3306
2814.13	3339
2816.003	3309
2817.878	3354
2819.752	3345
2821.623	3323
2823.496	3289
2825.368	3391
2827.238	3242
2829.111	3321
2830.98	3292
2832.851	3322
2834.719	3401
2836.589	3311
2838.458	3388
2840.327	3339
2842.193	3303
2844.061	3338
2845.927	3283
2847.794	3353
2849.66	3330
2851.525	3329
2853.39	3345
2855.254	3307
2857.117	3374
2858.983	3306
2860.845	3339
2862.707	3376
2864.569	3404
2866.431	3359
2868.293	3333
2870.154	3368
2872.013	3416
2873.873	3406
2875.733	3471
2877.592	3462
2879.451	3426
2881.309	3484
2883.166	3524
2885.022	3479
2886.879	3470
2888.736	3432
2890.591	3416
2892.446	3530
2894.301	3503
2896.155	3513
2898.009	3556
2899.863	3457
2901.716	3520
2903.568	3472
2905.419	3493
2907.27	3515
2909.123	3458
2910.973	3479
2912.824	3562
2914.673	3498
2916.521	3508
2918.372	3591
2920.22	3565
2922.067	3664
2923.914	3505
2925.761	3654
2927.607	3672
2929.455	3609
2931.301	3663
2933.144	3637
2934.99	3735
2936.833	3762
2938.678	3748
2940.522	3754
2942.364	3895
2944.207	3751
2946.048	3777
2947.891	3810
2949.731	3832
2951.571	3773
2953.412	3772
2955.25	3797
2957.09	3713
2958.93	3753
2960.767	3779
2962.606	3697
2964.443	3690
2966.279	3686
2968.116	3702
2969.953	3593
2971.788	3629
2973.623	3514
2975.457	3602
2977.292	3531
2979.127	3618
2980.959	3489
2982.792	3458
2984.624	3496
2986.455	3587
2988.288	3596
2990.119	3462
2991.949	3493
2993.779	3520
2995.608	3471
2997.439	3471
2999.268	3347
3001.096	3459
3002.923	3408
3004.751	3376
3006.578	3386
3008.406	3350
3010.232	3317
3012.057	3315
3013.883	3254
3015.706	3313
3017.532	3279
3019.356	3309
3021.179	3284
3023.002	3243
3024.823	3244
3026.646	3199
3028.469	3215
3030.289	3263
3032.11	3152
3033.93	3148
3035.749	3208
3037.57	3200
3039.39	3126
3041.207	3171
3043.026	3131
3044.842	3147
3046.661	3150
3048.477	3185
3050.294	3167
3052.109	3138
3053.925	3174
3055.739	3117
3057.555	3264
3059.368	3178
3061.181	3163
3062.995	3119
3064.807	3158
3066.62	3115
3068.433	3107
3070.243	3159
3072.054	3166
3073.865	3099
3075.675	3110
3077.485	3208
3079.293	3138
3081.102	3087
3082.911	3188
3084.719	3124
3086.527	3177
3088.333	3088
3090.139	3134
3091.945	3132
3093.75	3123
3095.557	3142
3097.361	3150
3099.165	3111
3100.969	3097
3102.772	3068
3104.575	3086
3106.379	3086
3108.181	3079
3109.982	3057
3111.783	3091
3113.584	3058
3115.386	3050
3117.186	3010
3118.985	3024
3120.783	2998
3122.582	3081
3124.381	2973
3126.179	3026
3127.975	3076
3129.772	2956
3131.569	3102
3133.365	3053
3135.161	3071
3136.956	3009
3138.751	3008
3140.544	3019
3142.338	2965
3144.132	3012
3145.925	2963
3147.717	2978
3149.509	2981
3151.301	3015
3153.091	3048
3154.884	3036
3156.673	3056
3158.462	2989
3160.252	3024
3162.041	3032
3163.831	2952
3165.618	2964
3167.405	2873
3169.193	3001
3170.979	3021
3172.767	3017
3174.553	2994
3176.338	2986
3178.123	2967
3179.907	2979
3181.692	2972
3183.477	2923
3185.259	3024
3187.042	2996
3188.824	3001
3190.607	3009
3192.389	2852
3194.17	2995
3195.951	2998
3197.73	2964
3199.51	3014
3201.289	2954
3203.07	2933
3204.848	2910
3206.626	2929
3208.403	3004
3210.18	2955
3211.959	2980
3213.735	2966
3215.511	2975
3217.285	2965
3219.06	3021
3220.836	3024
3222.611	2941
3224.384	2917
3226.158	2994
3227.929	2976
3229.702	2877
3231.476	2933
3233.248	2933
3235.018	2919
3236.789	2909
3238.56	2938
3240.33	2877
3242.1	2910
3243.869	3042
3245.637	2986
3247.405	2944
3249.172	2948
3250.941	2971
3252.707	2965
3254.474	2949
3256.24	2971
3258.006	2912
3259.772	2947
3261.537	2897
3263.301	2902
3265.065	3007
3266.828	2968
3268.592	2941
3270.355	3054
3272.117	2898
3273.878	2941
3275.64	2958
3277.401	2940
3279.162	2914
3280.922	2952
3282.682	2939
3284.441	2985
3286.199	2959
3287.959	2869
3289.716	2910
3291.475	2880
3293.232	2932
3294.988	2923
3296.744	2925
3298.501	2937
3300.256	2968
3302.011	2929
3303.766	2919
3305.52	2937
3307.275	2863
3309.028	2950
3310.781	2870
3312.533	2917
3314.285	2930
3316.038	2852
3317.789	2888
3319.54	2913
3321.289	2932
3323.039	2917
3324.789	2913
3326.539	2886
3328.288	2928
3330.035	2913
3331.783	2941
3333.531	2951
3335.28	2906
3337.025	2885
3338.771	2859
3340.518	2929
3342.262	2880
3344.009	2908
3345.753	2950
3347.497	2957
3349.24	2872
3350.983	2845
3352.726	2901
3354.469	2841
3356.212	2867
3357.952	2867
3359.694	2840
3361.434	2960
3363.176	2876
3364.916	2868
3366.654	2837
3368.394	2912
3370.132	2912
3371.871	2751
3373.61	2833
3375.346	2784
3377.083	2872
3378.82	2825
3380.556	2879
3382.292	2883
3384.027	2906
3385.763	2827
3387.497	2809
3389.231	2893
3390.965	2925
3392.698	2851
3394.431	2795
3396.164	2835
3397.896	2880
3399.627	2847
3401.36	2890
3403.09	2865
3404.82	2854
3406.55	2819
3408.279	2817
3410.01	2913
3411.738	2879
3413.467	2862
3415.194	2737
3416.92	2797
3418.647	2850
3420.375	2803
3422.102	2787
3423.827	2744
3425.553	2783
3427.277	2841
3429.003	2774
3430.727	2773
3432.451	2760
3434.173	2774
3435.896	2756
3437.62	2776
3439.343	2884
3441.063	2852
3442.785	2824
3444.505	2709
3446.226	2787
3447.948	2800
3449.666	2767
3451.386	2756
3453.104	2703
3454.823	2749
3456.541	2785
3458.259	2685
3459.976	2774
3461.693	2804
3463.408	2745
3465.125	2763
3466.841	2644
3468.556	2753
3470.271	2710
3471.985	2726
3473.698	2756
3475.414	2696
3477.126	2714
3478.838	2649
3480.55	2733
3482.263	2668
3483.975	2624
3485.686	2729
3487.396	2696
3489.106	2621
3490.817	2621
3492.526	2665
3494.236	2680
3495.944	2670
3497.652	2677
3499.359	2653
3501.066	2657
3502.775	2680
3504.481	2702
3506.187	2613
3507.893	2673
3509.598	2680
3511.304	2645
3513.009	2705
3514.713	2635
3516.417	2678
3518.12	2603
3519.821	2583
3521.525	2663
3523.228	2672
3524.929	2599
3526.631	2603
3528.33	2612
3530.032	2570
3531.733	2606
3533.433	2647
3535.131	2607
3536.83	2675
3538.529	2652
3540.227	2668
3541.925	2624
3543.623	2566
3545.319	2600
3547.016	2626
3548.712	2581
3550.408	2615
3552.103	2627
3553.798	2639
3555.491	2554
3557.188	2573
3558.88	2532
3560.574	2606
3562.266	2535
3563.959	2562
3565.651	2625
3567.343	2522
3569.035	2581
3570.725	2613
3572.415	2589
3574.106	2519
3575.797	2590
3577.485	2571
3579.174	2516
3580.863	2475
3582.551	2574
3584.238	2566
3585.926	2473
3587.613	2580
3589.3	2527
3590.986	2546
3592.671	2503
3594.357	2529
3596.042	2571
3597.726	2479
3599.41	2504
3601.094	2530
3602.778	2439
3604.461	2519
3606.143	2465
3607.825	2545
3609.507	2535
3611.188	2427
3612.87	2456
3614.551	2601
3616.229	2523
3617.909	2404
3619.589	2495
3621.269	2515
3622.948	2467
3624.625	2466
3626.302	2472
3627.98	2505
3629.657	2379
3631.334	2468
3633.01	2414
3634.686	2467
3636.361	2358
3638.036	2385
3639.712	2460
3641.385	2412
3643.06	2418
3644.732	2402
3646.405	2384
3648.08	2444
3649.751	2467
3651.424	2414
3653.094	2423
3654.766	2435
3656.436	2496
3658.106	2383
3659.777	2427
3661.446	2426
3663.115	2427
3664.783	2398
3666.452	2409
3668.121	2355
3669.788	2382
3671.454	2359
3673.121	2361
3674.789	2365
3676.455	2407
3678.12	2345
3679.784	2382
3681.45	2414
3683.114	2456
3684.779	2412
3686.442	2346
3688.105	2377
3689.768	2334
3691.43	2417
3693.093	2382
3694.754	2434
3696.415	2359
3698.076	2401
3699.736	2372
3701.396	2385
3703.057	2384
3704.716	2343
3706.375	2369
3708.034	2402
3709.692	2307
3711.351	2327
3713.008	2352
3714.665	2289
3716.321	2354
3717.977	2288
3719.634	2304
3721.29	2358
3722.945	2348
3724.598	2330
3726.253	2341
3727.907	2335
3729.561	2332
3731.214	2339
3732.867	2372
3734.518	2357
3736.171	2279
3737.824	2317
3739.474	2308
3741.125	2360
3742.775	2386
3744.425	2318
3746.074	2300
3747.725	2276
3749.373	2320
3751.022	2336
3752.669	2307
3754.318	2331
3755.966	2224
3757.612	2288
3759.259	2273
3760.905	2285
3762.55	2304
3764.197	2300
3765.842	2342
3767.486	2321
3769.131	2263
3770.774	2344
3772.417	2286
3774.061	2277
3775.705	2283
3777.347	2254
3778.988	2278
3780.629	2300
3782.271	2290
3783.912	2224
3785.552	2292
3787.192	2302
3788.831	2299
3790.472	2297
3792.112	2266
3793.75	2260
3795.388	2194
3797.024	2221
3798.661	2234
3800.3	2282
3801.936	2214
3803.572	2237
3805.208	2227
3806.844	2293
3808.48	2299
3810.115	2200
3811.748	2231
3813.382	2280
3815.016	2248
3816.649	2244
3818.283	2303
3819.914	2144
3821.547	2195
3823.178	2177
3824.809	2200
3826.441	2188
3828.072	2260
3829.701	2251
3831.331	2184
3832.96	2180
3834.591	2182
3836.219	2206
3837.847	2225
3839.475	2165
3841.102	2120
3842.729	2177
3844.357	2193
3845.984	2186
3847.609	2219
3849.234	2192
3850.86	2161
3852.485	2198
3854.11	2137
3855.734	2146
3857.357	2162
3858.981	2133
3860.603	2175
3862.227	2225
3863.848	2174
3865.471	2126
3867.092	2164
3868.713	2160
3870.334	2168
3871.954	2137
3873.575	2171
3875.194	2113
3876.813	2172
3878.433	2125
3880.051	2143
3881.669	2213
3883.286	2148
3884.904	2191
3886.52	2137
3888.138	2121
3889.754	2171
3891.37	2153
3892.985	2176
3894.6	2123
3896.216	2141
3897.831	2132
3899.444	2159
3901.058	2117
3902.67	2148
3904.283	2147
3905.897	2135
3907.509	2147
3909.121	2165
3910.731	2071
3912.342	2157
3913.954	2151
3915.563	2121
3917.174	2156
3918.783	2093
3920.391	2128
3922.002	2105
3923.611	2135
3925.218	2140
3926.826	2114
3928.432	2088
3930.039	2084
3931.647	2087
3933.253	2086
3934.859	2111
3936.464	2081
3938.068	2097
3939.675	2113
3941.278	2068
3942.883	2137
3944.486	2076
3946.089	2097
3947.692	2061
3949.295	2113
3950.898	2130
3952.499	2074
3954.1	2072
3955.7	2081
3957.303	2111
3958.903	2056
3960.502	2112
3962.101	2076
3963.7	2023
3965.301	2077
3966.899	2060
3968.497	2080
3970.094	2137
3971.691	2034
3973.288	2012
3974.885	2088
3976.481	2055
3978.077	2065
3979.672	2068
3981.267	2008
3982.863	2035
3984.457	1984
3986.051	2004
3987.645	2031
3989.238	2030
3990.831	2106
3992.425	2045
3994.017	2017
3995.607	2026
3997.199	2061
3998.79	2042
4000.382	1994
4001.973	2027
4003.561	2043
4005.151	1990
4006.741	2003
4008.331	2018
4009.918	1960
4011.507	2007
4013.095	1978
4014.681	1987
4016.269	1992
4017.856	1998
4019.443	2039
4021.028	2032
4022.614	1953
4024.199	2025
4025.785	1980
4027.37	1946
4028.953	2013
4030.536	2049
4032.12	1995
4033.704	1957
4035.287	1966
4036.869	2010
4038.45	2000
4040.032	1941
4041.613	1994
4043.195	2017
4044.776	1906
4046.356	1971
4047.935	1948
4049.515	1971
4051.095	1981
4052.674	1949
4054.251	2000
4055.829	1940
4057.406	1987
4058.985	1915
4060.562	1931
4062.139	1974
4063.715	1985
4065.29	1927
4066.865	1977
4068.442	1937
4070.016	2010
4071.59	1904
4073.164	1954
4074.738	1953
4076.312	1966
4077.885	1917
4079.458	1973
4081.03	1950
4082.602	1948
4084.173	1911
4085.745	1909
4087.315	1919
4088.886	1910
4090.456	1846
4092.026	1946
4093.596	1894
4095.165	1893
4096.734	1950
4098.301	1875
4099.869	1920
4101.437	1972
4103.006	1872
4104.572	1880
4106.139	1922
4107.704	1901
4109.27	1875
4110.837	1840
4112.401	1961
4113.966	1942
4115.53	1928
4117.094	1896
4118.659	1919
4120.223	1893
4121.785	1871
4123.347	1860
4124.909	1869
4126.471	1870
4128.034	1887
4129.595	1915
4131.155	1884
4132.716	1893
4134.275	1884
4135.836	1864
4137.395	1849
4138.955	1879
4140.513	1882
4142.071	1865
4143.628	1856
4145.188	1844
4146.745	1867
4148.302	1826
4149.858	1832
4151.414	1843
4152.971	1834
4154.526	1889
4156.081	1843
4157.635	1881
4159.189	1815
4160.745	1833
4162.298	1826
4163.852	1837
4165.405	1812
4166.957	1828
4168.51	1857
4170.063	1838
4171.614	1823
4173.166	1789
4174.717	1808
4176.267	1838
4177.817	1867
4179.368	1813
4180.917	1783
4182.466	1835
4184.016	1830
4185.564	1791
4187.112	1816
4188.66	1817
4190.207	1797
4191.754	1779
4193.301	1774
4194.848	1803
4196.394	1761
4197.94	1803
4199.484	1816
4201.03	1791
4202.575	1777
4204.12	1713
4205.663	1801
4207.207	1776
4208.75	1822
4210.292	1781
4211.836	1812
4213.378	1765
4214.92	1743
4216.46	1770
4218.002	1767
4219.544	1796
4221.083	1818
4222.625	1779
4224.164	1723
4225.703	1777
4227.244	1726
4228.782	1739
4230.32	1779
4231.857	1754
4233.395	1779
4234.933	1714
4236.471	1753
4238.007	1792
4239.542	1727
4241.078	1741
4242.614	1753
4244.15	1787
4245.685	1757
4247.219	1814
4248.753	1723
4250.287	1719
4251.82	1797
4253.354	1753
4254.887	1677
4256.419	1693
4257.951	1731
4259.483	1756
4261.016	1749
4262.547	1656
4264.078	1779
4265.608	1722
4267.137	1684
4268.668	1781
4270.197	1715
4271.727	1743
4273.254	1759
4274.783	1757
4276.311	1716
4277.84	1728
4279.366	1750
4280.894	1710
4282.42	1703
4283.946	1732
4285.473	1738
4286.998	1693
4288.523	1710
4290.047	1746
4291.572	1691
4293.096	1701
4294.622	1707
4296.144	1708
4297.668	1687
4299.19	1716
4300.713	1686
4302.236	1682
4303.758	1702
4305.279	1686
4306.799	1710
4308.321	1655
4309.842	1707
4311.361	1708
4312.882	1658
4314.401	1667
