400.0961	4115
402.6185	4234
405.1424	4208
407.6635	4245
410.1838	4231
412.7035	4220
415.2225	4185
417.7388	4242
420.2585	4353
422.7754	4395
425.2917	4359
427.8072	4398
430.3221	4429
432.8363	4496
435.3498	4509
437.8626	4479
440.3727	4458
442.8841	4442
445.3969	4562
447.907	4374
450.4142	4408
452.9229	4490
455.4289	4489
457.9362	4400
460.4449	4362
462.9488	4418
465.454	4470
467.9566	4485
470.4604	4399
472.9637	4405
475.4662	4490
477.966	4296
480.4671	4417
482.9656	4381
485.4633	4451
487.9645	4398
490.4608	4439
492.9566	4417
495.4536	4512
497.948	4475
500.4437	4478
502.9387	4394
505.431	4533
507.9226	4414
510.4136	4498
512.9079	4573
515.3975	4532
517.8864	4542
520.3746	4453
522.8622	4420
525.3491	4499
527.8394	4518
530.3249	4569
532.8098	4615
535.2939	4520
537.7774	4568
540.2623	4540
542.7444	4588
545.2259	4499
547.7067	4646
550.1868	4577
552.6683	4608
555.147	4536
557.6231	4561
560.1005	4606
562.5773	4655
565.0534	4712
567.5308	4686
570.0056	4715
572.4776	4788
574.951	4735
577.4237	4799
579.8978	4827
582.3671	4821
584.8378	4761
587.3079	4786
589.7773	4794
592.244	4859
594.714	4829
597.1793	4767
599.6461	4715
602.1121	4819
604.5754	4742
607.0421	4785
609.5042	4751
611.9675	4700
614.4282	4778
616.8902	4782
619.3515	4676
621.8122	4766
624.2702	4589
626.7296	4799
629.1863	4723
631.6423	4663
634.1017	4636
636.5563	4612
639.0104	4597
641.4658	4814
643.9185	4674
646.3725	4601
648.8239	4744
651.2766	4761
653.7266	4630
656.176	4791
658.6247	4718
661.0748	4838
663.5242	4795
665.9709	4830
668.417	4766
670.8624	4732
673.3092	4790
675.7533	4884
678.1968	4770
680.6395	4798
683.0817	4799
685.5251	4881
687.9659	4812
690.4061	4890
692.8456	4850
695.2844	4905
697.7226	4892
700.1621	4914
702.599	4842
705.0332	4956
707.4688	4867
709.9036	4943
712.3399	4984
714.7735	4935
717.2044	4936
719.6367	4995
722.0683	4972
724.4993	4995
726.9296	5027
729.3593	5045
731.7883	4957
734.2147	5067
736.6423	4970
739.0714	5027
741.4958	5034
743.9216	5039
746.3447	5126
748.7691	5057
751.1929	5161
753.616	5122
756.0366	5164
758.4584	5174
760.8776	5122
763.2982	5250
765.718	5221
768.1373	5240
770.5539	5176
772.9698	5201
775.3871	5167
777.8038	5199
780.2178	5217
782.6332	5224
785.0459	5186
787.458	5179
789.8714	5200
792.2842	5163
794.6943	5136
797.1038	5253
799.5127	5278
801.9209	5148
804.3324	5223
806.7393	5217
809.1456	5233
811.5513	5247
813.9562	5315
816.3625	5337
818.7663	5303
821.1693	5378
823.5718	5367
825.9735	5362
828.3746	5203
830.7771	5222
833.177	5248
835.5762	5323
837.9747	5273
840.3727	5263
842.772	5332
845.1666	5282
847.5626	5385
849.958	5404
852.3527	5474
854.7488	5443
857.1403	5439
859.5331	5454
861.9253	5432
864.3168	5405
866.7057	5475
869.098	5356
871.4876	5384
873.8746	5552
876.263	5551
878.6487	5407
881.0378	5452
883.4243	5483
885.8081	5433
888.1933	5431
890.5759	5363
892.9598	5333
895.343	5494
897.7256	5347
900.1057	5427
902.4871	5347
904.8659	5386
907.246	5442
909.6254	5589
912.0023	5469
914.3786	5687
916.7562	5533
919.1331	5735
921.5074	5682
923.8831	5710
926.2562	5757
928.6287	5870
931.0005	5728
933.3757	5804
935.7462	5725
938.1162	5753
940.4855	6015
942.8542	5926
945.2242	6014
947.5916	6105
949.9584	6416
952.3266	6563
954.6921	6818
957.0571	7074
959.4233	7470
961.787	7482
964.15	7356
966.5125	7088
968.8742	6932
971.2354	6499
973.5959	6284
975.9559	6075
978.3151	5764
980.6738	5808
983.0338	5663
985.3912	5678
987.7461	5591
990.1022	5635
992.4578	5560
994.8127	5611
997.1689	5640
999.5207	5622
1001.874	5708
1004.226	5737
1006.576	5644
1008.929	5559
1011.28	5685
1013.628	5581
1015.977	5594
1018.324	5662
1020.674	5657
1023.019	5685
1025.366	5755
1027.713	5740
1030.056	5746
1032.399	5779
1034.746	5871
1037.087	5769
1039.431	5723
1041.771	5727
1044.113	5733
1046.454	5706
1048.793	5702
1051.133	5778
1053.471	5664
1055.807	5698
1058.146	5861
1060.483	5746
1062.818	5886
1065.153	5868
1067.489	5972
1069.822	5871
1072.156	5939
1074.488	5936
1076.82	6031
1079.15	5793
1081.48	5803
1083.814	5764
1086.143	5857
1088.471	5781
1090.799	5731
1093.126	5652
1095.452	5728
1097.78	5734
1100.105	5761
1102.43	5874
1104.754	5714
1107.077	5792
1109.4	5836
1111.722	5717
1114.044	5749
1116.365	5781
1118.685	5721
1121.005	5810
1123.324	5771
1125.643	5644
1127.961	5823
1130.278	5758
1132.595	5749
1134.911	5733
1137.226	5804
1139.541	5703
1141.854	5756
1144.167	5754
1146.482	5799
1148.793	5698
1151.105	5842
1153.414	5769
1155.725	5765
1158.033	5788
1160.344	5704
1162.651	5732
1164.959	5794
1167.265	5739
1169.572	5704
1171.878	5767
1174.184	5782
1176.488	5692
1178.79	5807
1181.094	5764
1183.396	5831
1185.699	5817
1188.001	5821
1190.301	5757
1192.6	5840
1194.9	5744
1197.2	5782
1199.497	5801
1201.794	5821
1204.09	5783
1206.387	5755
1208.684	5875
1210.978	5760
1213.272	5752
1215.565	5713
1217.858	5813
1220.15	5858
1222.443	5728
1224.734	5845
1227.024	5850
1229.313	6012
1231.602	5904
1233.892	5928
1236.18	5874
1238.467	6065
1240.754	5995
1243.04	6079
1245.325	5963
1247.612	6037
1249.896	6104
1252.178	6083
1254.461	6090
1256.743	6153
1259.027	6060
1261.308	6044
1263.587	6091
1265.867	6091
1268.146	6153
1270.425	6013
1272.703	6032
1274.981	6049
1277.256	6052
1279.532	6121
1281.808	6025
1284.083	6060
1286.358	6020
1288.63	5952
1290.904	5949
1293.175	6047
1295.449	5959
1297.719	5970
1299.99	5977
1302.259	5982
1304.529	5886
1306.798	5944
1309.065	5925
1311.333	5945
1313.599	5968
1315.866	5960
1318.131	5928
1320.396	5936
1322.66	5904
1324.925	6040
1327.187	5956
1329.448	6023
1331.711	5906
1333.974	5975
1336.234	6035
1338.493	5904
1340.752	5964
1343.01	5904
1345.269	6005
1347.526	5904
1349.784	6051
1352.04	5937
1354.295	6002
1356.552	5957
1358.806	5937
1361.059	5896
1363.312	5917
1365.564	5964
1367.818	6026
1370.069	5945
1372.318	5835
1374.568	5950
1376.817	6052
1379.066	5993
1381.316	6013
1383.564	6020
1385.809	6038
1388.056	6061
1390.301	6158
1392.549	6017
1394.793	6159
1397.036	6149
1399.279	6203
1401.522	6231
1403.763	6217
1406.007	6099
1408.248	6123
1410.487	6151
1412.727	6152
1414.965	6233
1417.205	6069
1419.442	6231
1421.68	5994
1423.915	6151
1426.152	6206
1428.388	6144
1430.623	6213
1432.857	6121
1435.091	6156
1437.323	6239
1439.556	6335
1441.789	6359
1444.019	6331
1446.25	6254
1448.48	6334
1450.708	6266
1452.938	6361
1455.167	6325
1457.394	6432
1459.62	6387
1461.846	6417
1464.073	6256
1466.299	6375
1468.523	6260
1470.746	6166
1472.969	6330
1475.191	6200
1477.415	6106
1479.636	6135
1481.858	5994
1484.078	5935
1486.298	6000
1488.518	5997
1490.736	6038
1492.954	5927
1495.169	5976
1497.386	5910
1499.602	5921
1501.819	6010
1504.034	5946
1506.248	5947
1508.462	5915
1510.675	5955
1512.888	5899
1515.1	5945
1517.311	5919
1519.522	5874
1521.732	5954
1523.942	6037
1526.151	5882
1528.36	5928
1530.566	5952
1532.773	5907
1534.98	5769
1537.187	6076
1539.392	6047
1541.596	6028
1543.801	5926
1546.005	6074
1548.208	5909
1550.411	6007
1552.612	6043
1554.814	6053
1557.013	6036
1559.212	6093
1561.414	6008
1563.612	6107
1565.811	6053
1568.007	6094
1570.203	6128
1572.403	6036
1574.598	6056
1576.792	5943
1578.988	6066
1581.181	6112
1583.376	6119
1585.568	6065
1587.761	6121
1589.952	6155
1592.143	6184
1594.333	6074
1596.524	6168
1598.715	6158
1600.903	6239
1603.091	6245
1605.278	6289
1607.466	6151
1609.652	6200
1611.838	6144
1614.023	6197
1616.207	6247
1618.391	6194
1620.576	6191
1622.759	6240
1624.941	6303
1627.123	6327
1629.304	6218
1631.484	6246
1633.664	6270
1635.844	6331
1638.022	6362
1640.201	6202
1642.38	6274
1644.556	6262
1646.732	6274
1648.908	6250
1651.084	6316
1653.257	6313
1655.433	6340
1657.607	6321
1659.779	6419
1661.951	6277
1664.122	6526
1666.295	6332
1668.467	6315
1670.635	6404
1672.805	6380
1674.973	6206
1677.142	6249
1679.31	6362
1681.478	6363
1683.644	6432
1685.81	6296
1687.975	6294
1690.142	6338
1692.305	6352
1694.468	6242
1696.632	6367
1698.794	6349
1700.957	6210
1703.119	6226
1705.279	6235
1707.439	6128
1709.598	6155
1711.758	6150
1713.917	6138
1716.075	6169
1718.231	6007
1720.388	6205
1722.543	6111
1724.702	6285
1726.856	6121
1729.01	6132
1731.164	6179
1733.317	6188
1735.471	6175
1737.623	6111
1739.774	6101
1741.925	6141
1744.075	6199
1746.225	6072
1748.376	6039
1750.524	6023
1752.672	6138
1754.82	6280
1756.965	6110
1759.113	6128
1761.259	6162
1763.405	6096
1765.549	6187
1767.694	6168
1769.836	6248
1771.981	6165
1774.123	6177
1776.264	6193
1778.405	6274
1780.546	6182
1782.687	6207
1784.827	6229
1786.966	6218
1789.103	6193
1791.242	6187
1793.381	6188
1795.517	6226
1797.653	6179
1799.788	6081
1801.923	6004
1804.057	6076
1806.193	6144
1808.326	6184
1810.457	6163
1812.59	6219
1814.721	6254
1816.855	6193
1818.984	6191
1821.113	6213
1823.244	6024
1825.372	6106
1827.499	6162
1829.63	6057
1831.756	6169
1833.882	6183
1836.007	6242
1838.132	6018
1840.26	6220
1842.384	6130
1844.507	6182
1846.63	6105
1848.752	6072
1850.875	6073
1852.996	6205
1855.118	6094
1857.238	6145
1859.358	6197
1861.477	6126
1863.597	6174
1865.715	6041
1867.832	6078
1869.948	6096
1872.064	6118
1874.181	6025
1876.297	6099
1878.411	6094
1880.526	6119
1882.639	6166
1884.752	6096
1886.865	6028
1888.977	6145
1891.089	6059
1893.2	6242
1895.308	6142
1897.42	6118
1899.53	6213
1901.639	6165
1903.745	6212
1905.853	6220
1907.962	6181
1910.067	6142
1912.174	6226
1914.278	6265
1916.383	6094
1918.486	6127
1920.592	6195
1922.694	6196
1924.797	6277
1926.898	6164
1929	6275
1931.102	6152
1933.203	6220
1935.301	6315
1937.401	6107
1939.499	6117
1941.598	6220
1943.697	6290
1945.793	6268
1947.888	6155
1949.985	6317
1952.08	6271
1954.176	6262
1956.269	6218
1958.364	6248
1960.457	6228
1962.549	6152
1964.642	6214
1966.733	6162
1968.823	6229
1970.913	6195
1973.005	6268
1975.093	6200
1977.184	6161
1979.271	6169
1981.359	6222
1983.446	6249
1985.532	6166
1987.619	6090
1989.705	6155
1991.789	6139
1993.874	6156
1995.956	6242
1998.041	6117
2000.123	6081
2002.206	6160
2004.287	6059
2006.368	6214
2008.449	6116
2010.529	6100
2012.609	6051
2014.688	6074
2016.766	6165
2018.843	6212
2020.922	6233
2022.999	6146
2025.074	6093
2027.15	6157
2029.225	6126
2031.299	6059
2033.375	6117
2035.447	6082
2037.52	6130
2039.592	6068
2041.664	6139
2043.736	6162
2045.807	6083
2047.876	6248
2049.947	6082
2052.015	6163
2054.086	6174
2056.153	6198
2058.221	6147
2060.288	6042
2062.353	6227
2064.42	6168
2066.486	6187
2068.55	6222
2070.614	6122
2072.678	6144
2074.741	6102
2076.805	6101
2078.866	6093
2080.929	6204
2082.99	6232
2085.049	6080
2087.109	6182
2089.17	6028
2091.228	6213
2093.286	6093
2095.344	6151
2097.4	6159
2099.46	6162
2101.516	6177
2103.572	6121
2105.626	6130
2107.679	6245
2109.735	6022
2111.788	6212
2113.841	6216
2115.894	6219
2117.945	6096
2119.997	6184
2122.049	6150
2124.1	6093
2126.148	6161
2128.197	6206
2130.246	6079
2132.296	6146
2134.342	6242
2136.39	6201
2138.437	6043
2140.483	6143
2142.527	6036
2144.574	6122
2146.619	6148
2148.661	6221
2150.705	6054
2152.747	6171
2154.792	6063
2156.832	6179
2158.874	6070
2160.915	6089
2162.954	6135
2164.995	6282
2167.034	6048
2169.072	6102
2171.111	6122
2173.148	5987
2175.186	6057
2177.223	6268
2179.258	6027
2181.294	6170
2183.328	6060
2185.362	6026
2187.398	6117
2189.431	6085
2191.463	6048
2193.495	6029
2195.528	5921
2197.56	6082
2199.59	6045
2201.62	6013
2203.649	6032
2205.678	5960
2207.708	6005
2209.737	6006
2211.764	5982
2213.791	5899
2215.817	6051
2217.843	6003
2219.87	6052
2221.895	5936
2223.919	5818
2225.942	5961
2227.966	5910
2229.988	6011
2232.012	5907
2234.032	5914
2236.054	5920
2238.074	5933
2240.095	6057
2242.116	5935
2244.135	5948
2246.153	5931
2248.171	5988
2250.188	6009
2252.208	6041
2254.223	5924
2256.239	5887
2258.255	6104
2260.269	6004
2262.283	5920
2264.3	5926
2266.312	6003
2268.325	6085
2270.336	6010
2272.349	5890
2274.362	5911
2276.372	5927
2278.383	5876
2280.392	5976
2282.402	6029
2284.409	6002
2286.418	5962
2288.427	5988
2290.433	5872
2292.441	6033
2294.446	5960
2296.453	5820
2298.459	5926
2300.463	5907
2302.466	5887
2304.471	5969
2306.475	6061
2308.477	5976
2310.478	5951
2312.481	5926
2314.481	5952
2316.481	5852
2318.482	5869
2320.482	6022
2322.48	5754
2324.48	5891
2326.478	5952
2328.476	5843
2330.473	5879
2332.469	5816
2334.465	5900
2336.46	5828
2338.454	5823
2340.45	5926
2342.444	5833
2344.437	5910
2346.43	5808
2348.421	5844
2350.414	5910
2352.405	5858
2354.396	5782
2356.386	5824
2358.376	5830
2360.366	5907
2362.355	5767
2364.343	5745
2366.331	5814
2368.317	5783
2370.304	5729
2372.292	5806
2374.278	5881
2376.262	5891
2378.247	5861
2380.23	5727
2382.216	5716
2384.199	5739
2386.181	5729
2388.163	5824
2390.144	5802
2392.127	5792
2394.107	5665
2396.087	5773
2398.066	5677
2400.046	5783
2402.023	5718
2404.004	5671
2405.981	5705
2407.957	5705
2409.934	5673
2411.91	5657
2413.886	5791
2415.862	5707
2417.836	5733
2419.809	5826
2421.784	5736
2423.756	5763
2425.73	5693
2427.701	5675
2429.672	5864
2431.644	5724
2433.615	5754
2435.586	5726
2437.555	5736
2439.523	5724
2441.491	5745
2443.459	5830
2445.428	5696
2447.395	5755
2449.361	5736
2451.327	5753
2453.292	5704
2455.257	5633
2457.223	5734
2459.187	5679
2461.15	5709
2463.113	5641
2465.076	5725
2467.039	5670
2468.999	5787
2470.96	5673
2472.921	5616
2474.881	5690
2476.841	5560
2478.8	5673
2480.759	5647
2482.717	5633
2484.675	5773
2486.63	5729
2488.589	5654
2490.545	5642
2492.5	5605
2494.455	5675
2496.408	5677
2498.364	5630
2500.318	5611
2502.27	5581
2504.223	5655
2506.174	5587
2508.126	5661
2510.078	5657
2512.03	5641
2513.979	5619
2515.927	5715
2517.877	5697
2519.826	5602
2521.775	5623
2523.722	5628
2525.668	5510
2527.616	5590
2529.561	5661
2531.508	5659
2533.452	5567
2535.398	5674
2537.342	5629
2539.284	5580
2541.229	5529
2543.173	5644
2545.114	5593
2547.055	5614
2548.996	5586
2550.938	5559
2552.878	5662
2554.817	5621
2556.756	5611
2558.695	5533
2560.633	5576
2562.572	5518
2564.509	5680
2566.445	5533
2568.382	5560
2570.317	5508
2572.254	5583
2574.189	5755
2576.123	5515
2578.057	5667
2579.99	5599
2581.923	5713
2583.855	5619
2585.788	5711
2587.719	5689
2589.65	5543
2591.579	5471
2593.511	5483
2595.44	5661
2597.37	5655
2599.297	5610
2601.225	5749
2603.153	5581
2605.08	5639
2607.007	5616
2608.932	5586
2610.858	5699
2612.782	5731
2614.709	5556
2616.632	5613
2618.556	5681
2620.478	5642
2622.401	5612
2624.324	5566
2626.247	5662
2628.167	5697
2630.088	5581
2632.008	5645
2633.928	5694
2635.848	5575
2637.766	5605
2639.684	5569
2641.603	5625
2643.519	5630
2645.437	5542
2647.353	5668
2649.27	5515
2651.184	5648
2653.099	5675
2655.014	5729
2656.928	5609
2658.842	5672
2660.755	5555
2662.667	5554
2664.579	5594
2666.491	5628
2668.402	5682
2670.312	5549
2672.222	5461
2674.132	5616
2676.042	5697
2677.951	5574
2679.859	5570
2681.766	5619
2683.674	5540
2685.582	5599
2687.488	5537
2689.392	5628
2691.298	5521
2693.202	5502
2695.107	5524
2697.012	5487
2698.914	5581
2700.817	5476
2702.72	5475
2704.622	5611
2706.524	5500
2708.425	5453
2710.326	5476
2712.225	5514
2714.125	5451
2716.024	5476
2717.923	5465
2719.822	5422
2721.719	5489
2723.616	5530
2725.512	5572
2727.41	5513
2729.305	5501
2731.201	5523
2733.095	5381
2734.99	5501
2736.884	5535
2738.778	5521
2740.67	5475
2742.562	5420
2744.455	5416
2746.346	5422
2748.238	5482
2750.129	5493
2752.018	5478
2753.907	5533
2755.797	5376
2757.687	5445
2759.575	5599
2761.462	5434
2763.349	5513
2765.237	5445
2767.124	5435
2769.009	5454
2770.894	5430
2772.779	5548
2774.663	5410
2776.547	5457
2778.431	5496
2780.314	5432
2782.197	5510
2784.078	5467
2785.96	5350
2787.842	5426
2789.723	5425
2791.603	5420
2793.483	5426
2795.362	5356
2797.241	5479
2799.121	5405
2800.997	5399
2802.874	5361
2804.751	5415
2806.628	5371
2808.506	5433
2810.38	5527
2812.255	5478
2814.13	5345
2816.003	5359
2817.878	5334
2819.752	5361
2821.623	5437
2823.496	5378
2825.368	5364
2827.238	5469
2829.111	5422
2830.98	5410
2832.851	5320
2834.719	5385
2836.589	5415
2838.458	5535
2840.327	5409
2842.193	5376
2844.061	5349
2845.927	5514
2847.794	5411
2849.66	5509
2851.525	5471
2853.39	5424
2855.254	5437
2857.117	5611
2858.983	5504
2860.845	5483
2862.707	5638
2864.569	5734
2866.431	5654
2868.293	5654
2870.154	5837
2872.013	5789
2873.873	5803
2875.733	5847
2877.592	5848
2879.451	5911
2881.309	5972
2883.166	5979
2885.022	6182
2886.879	6008
2888.736	6135
2890.591	6204
2892.446	6176
2894.301	6138
2896.155	6229
2898.009	6152
2899.863	6184
2901.716	6076
2903.568	6125
2905.419	6163
2907.27	6078
2909.123	6196
2910.973	6180
2912.824	6094
2914.673	6220
2916.521	6315
2918.372	6281
2920.22	6327
2922.067	6557
2923.914	6555
2925.761	6484
2927.607	6729
2929.455	6632
2931.301	6816
2933.144	6785
2934.99	6814
2936.833	6754
2938.678	6995
2940.522	6986
2942.364	7087
2944.207	7214
2946.048	7213
2947.891	7331
2949.731	7248
2951.571	7115
2953.412	7110
2955.25	7071
2957.09	6993
2958.93	7017
2960.767	6853
2962.606	6812
2964.443	6717
2966.279	6652
2968.116	6610
2969.953	6519
2971.788	6458
2973.623	6452
2975.457	6368
2977.292	6369
2979.127	6337
2980.959	6217
2982.792	6300
2984.624	6146
2986.455	6289
2988.288	6189
2990.119	6127
2991.949	5972
2993.779	5991
2995.608	6002
2997.439	5860
2999.268	5935
3001.096	5870
3002.923	5804
3004.751	5758
3006.578	5665
3008.406	5650
3010.232	5595
3012.057	5599
3013.883	5520
3015.706	5474
3017.532	5448
3019.356	5314
3021.179	5401
3023.002	5341
3024.823	5303
3026.646	5228
3028.469	5237
3030.289	5325
3032.11	5264
3033.93	5263
3035.749	5214
3037.57	5154
3039.39	5194
3041.207	5289
3043.026	5158
3044.842	5104
3046.661	5068
3048.477	5226
3050.294	5085
3052.109	5197
3053.925	5146
3055.739	5143
3057.555	5232
3059.368	5179
3061.181	5164
3062.995	5099
3064.807	5226
3066.62	5075
3068.433	5199
3070.243	5175
3072.054	5278
3073.865	5144
3075.675	5103
3077.485	5142
3079.293	5073
3081.102	5005
3082.911	4998
3084.719	5019
3086.527	5081
3088.333	4970
3090.139	5024
3091.945	5011
3093.75	4993
3095.557	5028
3097.361	5029
3099.165	5036
3100.969	5043
3102.772	5039
3104.575	4882
3106.379	4973
3108.181	4988
3109.982	4964
3111.783	4972
3113.584	4906
3115.386	4969
3117.186	4969
3118.985	4965
3120.783	4854
3122.582	4977
3124.381	4957
3126.179	4886
3127.975	4998
3129.772	4957
3131.569	4893
3133.365	4859
3135.161	4912
3136.956	4913
3138.751	4949
3140.544	4792
3142.338	4842
3144.132	4832
3145.925	4904
3147.717	4811
3149.509	4865
3151.301	5010
3153.091	4842
3154.884	4848
3156.673	4850
3158.462	4850
3160.252	4943
3162.041	4803
3163.831	4872
3165.618	4934
3167.405	4877
3169.193	4784
3170.979	4771
3172.767	4805
3174.553	4828
3176.338	4817
3178.123	4890
3179.907	4833
3181.692	4808
3183.477	4748
3185.259	4846
3187.042	4848
3188.824	4836
3190.607	4775
3192.389	4821
3194.17	4777
3195.951	4797
3197.73	4844
3199.51	4835
3201.289	4802
3203.07	4869
3204.848	4733
3206.626	4801
3208.403	4841
3210.18	4724
3211.959	4783
3213.735	4770
3215.511	4805
3217.285	4841
3219.06	4757
3220.836	4755
3222.611	4828
3224.384	4815
3226.158	4816
3227.929	4633
3229.702	4914
3231.476	4898
3233.248	4826
3235.018	4878
3236.789	4871
3238.56	4752
3240.33	4787
3242.1	4786
3243.869	4804
3245.637	4790
3247.405	4737
3249.172	4926
3250.941	4823
3252.707	4811
3254.474	4838
3256.24	4813
3258.006	4875
3259.772	4925
3261.537	4749
3263.301	4809
3265.065	4787
3266.828	4901
3268.592	4824
3270.355	4799
3272.117	4751
3273.878	4752
3275.64	4804
3277.401	4782
3279.162	4780
3280.922	4804
3282.682	4861
3284.441	4907
3286.199	4860
3287.959	4840
3289.716	4803
3291.475	4840
3293.232	4868
3294.988	4803
3296.744	4812
3298.501	4866
3300.256	4881
3302.011	4807
3303.766	4807
3305.52	4865
3307.275	4862
3309.028	4834
3310.781	4804
3312.533	4761
3314.285	4745
3316.038	4790
3317.789	4791
3319.54	4715
3321.289	4826
3323.039	4863
3324.789	4790
3326.539	4791
3328.288	4797
3330.035	4794
3331.783	4842
3333.531	4846
3335.28	4812
3337.025	4821
3338.771	4765
3340.518	4707
3342.262	4743
3344.009	4809
3345.753	4815
3347.497	4718
3349.24	4718
3350.983	4761
3352.726	4810
3354.469	4741
3356.212	4850
3357.952	4807
3359.694	4629
3361.434	4704
3363.176	4652
3364.916	4773
3366.654	4670
3368.394	4592
3370.132	4644
3371.871	4658
3373.61	4614
3375.346	4586
3377.083	4732
3378.82	4652
3380.556	4662
3382.292	4711
3384.027	4651
3385.763	4656
3387.497	4661
3389.231	4613
3390.965	4676
3392.698	4615
3394.431	4563
3396.164	4641
3397.896	4659
3399.627	4625
3401.36	4625
3403.09	4616
3404.82	4614
3406.55	4673
3408.279	4650
3410.01	4478
3411.738	4579
3413.467	4495
3415.194	4475
3416.92	4529
3418.647	4554
3420.375	4522
3422.102	4604
3423.827	4518
3425.553	4562
3427.277	4474
3429.003	4513
3430.727	4462
3432.451	4510
3434.173	4542
3435.896	4441
3437.62	4489
3439.343	4521
3441.063	4531
3442.785	4535
3444.505	4427
3446.226	4566
3447.948	4453
3449.666	4449
3451.386	4534
3453.104	4351
3454.823	4448
3456.541	4403
3458.259	4326
3459.976	4355
3461.693	4357
3463.408	4428
3465.125	4389
3466.841	4388
3468.556	4403
3470.271	4362
3471.985	4413
3473.698	4241
3475.414	4329
3477.126	4277
3478.838	4331
3480.55	4306
3482.263	4352
3483.975	4320
3485.686	4325
3487.396	4340
3489.106	4295
3490.817	4225
3492.526	4299
3494.236	4298
3495.944	4312
3497.652	4280
3499.359	4290
3501.066	4327
3502.775	4231
3504.481	4263
3506.187	4308
3507.893	4321
3509.598	4157
3511.304	4238
3513.009	4166
3514.713	4227
3516.417	4179
3518.12	4149
3519.821	4138
3521.525	4225
3523.228	4170
3524.929	4241
3526.631	4183
3528.33	4193
3530.032	4087
3531.733	4203
3533.433	4189
3535.131	4105
3536.83	4119
3538.529	4097
3540.227	4094
3541.925	4092
3543.623	4056
3545.319	4129
3547.016	4092
3548.712	4143
3550.408	4137
3552.103	4110
3553.798	4149
3555.491	4101
3557.188	4089
3558.88	4051
3560.574	4070
3562.266	4013
3563.959	4051
3565.651	4071
3567.343	4062
3569.035	4056
3570.725	4000
3572.415	3948
3574.106	4071
3575.797	4047
3577.485	4004
3579.174	4008
3580.863	3950
3582.551	3989
3584.238	3999
3585.926	4034
3587.613	3960
3589.3	3971
3590.986	4033
3592.671	3950
3594.357	4026
3596.042	3912
3597.726	3975
3599.41	3933
3601.094	3904
3602.778	3940
3604.461	3938
3606.143	3934
3607.825	3891
3609.507	3902
3611.188	3895
3612.87	3918
3614.551	3888
3616.229	3809
3617.909	3841
3619.589	3790
3621.269	3918
3622.948	3841
3624.625	3838
3626.302	3790
3627.98	3813
3629.657	3872
3631.334	3847
3633.01	3782
3634.686	3793
3636.361	3819
3638.036	3795
3639.712	3826
3641.385	3797
3643.06	3788
3644.732	3756
3646.405	3813
3648.08	3718
3649.751	3731
3651.424	3687
3653.094	3733
3654.766	3765
3656.436	3688
3658.106	3718
3659.777	3672
3661.446	3763
3663.115	3721
3664.783	3701
3666.452	3718
3668.121	3687
3669.788	3766
3671.454	3666
3673.121	3717
3674.789	3677
3676.455	3660
3678.12	3676
3679.784	3660
3681.45	3589
3683.114	3659
3684.779	3609
3686.442	3726
3688.105	3668
3689.768	3600
3691.43	3671
3693.093	3643
3694.754	3717
3696.415	3561
3698.076	3557
3699.736	3617
3701.396	3646
3703.057	3640
3704.716	3626
3706.375	3573
3708.034	3615
3709.692	3589
3711.351	3575
3713.008	3595
3714.665	3556
3716.321	3579
3717.977	3576
3719.634	3513
3721.29	3615
3722.945	3530
3724.598	3547
3726.253	3545
3727.907	3567
3729.561	3576
3731.214	3597
3732.867	3463
3734.518	3601
3736.171	3567
3737.824	3578
3739.474	3562
3741.125	3520
3742.775	3471
3744.425	3537
3746.074	3604
3747.725	3535
3749.373	3523
3751.022	3483
3752.669	3536
3754.318	3564
3755.966	3450
3757.612	3489
3759.259	3538
3760.905	3483
3762.55	3583
3764.197	3506
3765.842	3442
3767.486	3562
3769.131	3521
3770.774	3509
3772.417	3437
3774.061	3408
3775.705	3477
3777.347	3490
3778.988	3409
3780.629	3443
3782.271	3429
3783.912	3442
3785.552	3392
3787.192	3460
3788.831	3368
3790.472	3446
3792.112	3431
3793.75	3432
3795.388	3473
3797.024	3417
3798.661	3481
3800.3	3383
3801.936	3354
3803.572	3348
3805.208	3389
3806.844	3448
3808.48	3424
3810.115	3377
3811.748	3387
3813.382	3376
3815.016	3454
3816.649	3326
3818.283	3418
3819.914	3395
3821.547	3362
3823.178	3356
3824.809	3365
3826.441	3312
3828.072	3370
3829.701	3310
3831.331	3303
3832.96	3346
3834.591	3350
3836.219	3395
3837.847	3321
3839.475	3337
3841.102	3335
3842.729	3293
3844.357	3341
3845.984	3327
3847.609	3326
3849.234	3280
3850.86	3243
3852.485	3314
3854.11	3260
3855.734	3310
3857.357	3308
3858.981	3321
3860.603	3256
3862.227	3344
3863.848	3352
3865.471	3210
3867.092	3341
3868.713	3321
3870.334	3258
3871.954	3240
3873.575	3258
3875.194	3301
3876.813	3282
3878.433	3230
3880.051	3208
3881.669	3260
3883.286	3284
3884.904	3256
3886.52	3260
3888.138	3250
3889.754	3298
3891.37	3257
3892.985	3200
3894.6	3216
3896.216	3244
3897.831	3216
3899.444	3296
3901.058	3236
3902.67	3204
3904.283	3188
3905.897	3261
3907.509	3212
3909.121	3262
3910.731	3149
3912.342	3199
3913.954	3174
3915.563	3212
3917.174	3185
3918.783	3195
3920.391	3291
3922.002	3229
3923.611	3211
3925.218	3170
3926.826	3147
3928.432	3235
3930.039	3177
3931.647	3232
3933.253	3236
3934.859	3198
3936.464	3198
3938.068	3157
3939.675	3231
3941.278	3145
3942.883	3210
3944.486	3160
3946.089	3125
3947.692	3133
3949.295	3158
3950.898	3119
3952.499	3212
3954.1	3172
3955.7	3164
3957.303	3178
3958.903	3161
3960.502	3139
3962.101	3163
3963.7	3115
3965.301	3148
3966.899	3126
3968.497	3097
3970.094	3116
3971.691	3132
3973.288	3159
3974.885	3157
3976.481	3090
3978.077	3068
3979.672	3070
3981.267	3065
3982.863	3071
3984.457	3197
3986.051	3051
3987.645	3131
3989.238	3069
3990.831	3175
3992.425	3048
3994.017	3017
3995.607	3066
3997.199	3005
3998.79	3094
4000.382	3070
4001.973	3046
4003.561	3043
4005.151	2950
4006.741	3066
4008.331	3047
4009.918	3007
4011.507	3010
4013.095	3055
4014.681	2911
4016.269	2968
4017.856	3014
4019.443	2998
4021.028	2995
4022.614	2923
4024.199	3003
4025.785	2924
4027.37	2973
4028.953	2937
4030.536	2970
4032.12	2949
4033.704	2997
4035.287	2954
4036.869	2922
4038.45	2963
4040.032	2977
4041.613	2979
4043.195	2965
4044.776	2912
4046.356	2969
4047.935	2949
4049.515	2904
4051.095	2960
4052.674	2954
4054.251	2973
4055.829	2934
4057.406	2912
4058.985	2937
4060.562	2991
4062.139	2984
4063.715	2936
4065.29	2940
4066.865	2902
4068.442	2902
4070.016	2891
4071.59	2935
4073.164	2910
4074.738	2928
4076.312	2911
4077.885	2860
4079.458	2848
4081.03	2878
4082.602	2784
4084.173	2887
4085.745	2884
4087.315	2861
4088.886	2839
4090.456	2844
4092.026	2874
4093.596	2837
4095.165	2875
4096.734	2791
4098.301	2891
4099.869	2847
4101.437	2854
4103.006	2918
4104.572	2791
4106.139	2813
4107.704	2894
4109.27	2813
4110.837	2815
4112.401	2791
4113.966	2752
4115.53	2787
4117.094	2821
4118.659	2817
4120.223	2795
4121.785	2787
4123.347	2807
4124.909	2798
4126.471	2787
4128.034	2806
4129.595	2828
4131.155	2778
4132.716	2770
4134.275	2778
4135.836	2842
4137.395	2754
4138.955	2794
4140.513	2815
4142.071	2806
4143.628	2745
4145.188	2785
4146.745	2771
4148.302	2729
4149.858	2720
4151.414	2690
4152.971	2753
4154.526	2682
4156.081	2725
4157.635	2691
4159.189	2797
4160.745	2731
4162.298	2672
4163.852	2720
4165.405	2722
4166.957	2745
4168.51	2658
4170.063	2782
4171.614	2698
4173.166	2622
4174.717	2653
4176.267	2721
4177.817	2670
4179.368	2659
4180.917	2703
4182.466	2711
4184.016	2674
4185.564	2673
4187.112	2644
4188.66	2670
4190.207	2648
4191.754	2626
4193.301	2616
4194.848	2612
4196.394	2631
4197.94	2590
4199.484	2626
4201.03	2692
4202.575	2632
4204.12	2612
4205.663	2650
4207.207	2602
4208.75	2674
4210.292	2600
4211.836	2637
4213.378	2646
4214.92	2561
4216.46	2581
4218.002	2571
4219.544	2646
4221.083	2594
4222.625	2684
4224.164	2553
4225.703	2590
4227.244	2648
4228.782	2584
4230.32	2595
4231.857	2583
4233.395	2616
4234.933	2615
4236.471	2633
4238.007	2565
4239.542	2578
4241.078	2572
4242.614	2568
4244.15	2563
4245.685	2623
4247.219	2588
4248.753	2535
4250.287	2581
4251.82	2594
4253.354	2615
4254.887	2593
4256.419	2520
4257.951	2526
4259.483	2574
4261.016	2515
4262.547	2572
4264.078	2515
4265.608	2579
4267.137	2552
4268.668	2510
4270.197	2577
4271.727	2547
4273.254	2480
4274.783	2580
4276.311	2557
4277.84	2533
4279.366	2547
4280.894	2555
4282.42	2533
4283.946	2521
4285.473	2571
4286.998	2548
4288.523	2490
4290.047	2504
4291.572	2545
4293.096	2459
4294.622	2574
4296.144	2492
4297.668	2453
4299.19	2537
4300.713	2473
4302.236	2489
4303.758	2465
4305.279	2476
4306.799	2468
4308.321	2530
4309.842	2530
4311.361	2457
4312.882	2467
4314.401	2416
