400.0961	3160
402.6185	3318
405.1424	3238
407.6635	3298
410.1838	3333
412.7035	3357
415.2225	3242
417.7388	3442
420.2585	3366
422.7754	3313
425.2917	3423
427.8072	3407
430.3221	3404
432.8363	3518
435.3498	3456
437.8626	3479
440.3727	3485
442.8841	3517
445.3969	3575
447.907	3468
450.4142	3484
452.9229	3433
455.4289	3399
457.9362	3406
460.4449	3500
462.9488	3455
465.454	3505
467.9566	3474
470.4604	3512
472.9637	3404
475.4662	3435
477.966	3441
480.4671	3559
482.9656	3508
485.4633	3537
487.9645	3594
490.4608	3528
492.9566	3527
495.4536	3642
497.948	3510
500.4437	3552
502.9387	3635
505.431	3561
507.9226	3581
510.4136	3648
512.9079	3571
515.3975	3655
517.8864	3620
520.3746	3632
522.8622	3579
525.3491	3644
527.8394	3603
530.3249	3637
532.8098	3601
535.2939	3618
537.7774	3607
540.2623	3615
542.7444	3721
545.2259	3615
547.7067	3671
550.1868	3626
552.6683	3564
555.147	3611
557.6231	3659
560.1005	3694
562.5773	3738
565.0534	3567
567.5308	3686
570.0056	3668
572.4776	3758
574.951	3686
577.4237	3722
579.8978	3750
582.3671	3828
584.8378	3771
587.3079	3748
589.7773	3838
592.244	3740
594.714	3742
597.1793	3798
599.6461	3794
602.1121	3695
604.5754	3731
607.0421	3779
609.5042	3741
611.9675	3698
614.4282	3750
616.8902	3737
619.3515	3740
621.8122	3784
624.2702	3770
626.7296	3704
629.1863	3680
631.6423	3669
634.1017	3719
636.5563	3693
639.0104	3759
641.4658	3725
643.9185	3808
646.3725	3855
648.8239	3796
651.2766	3723
653.7266	3773
656.176	3865
658.6247	3731
661.0748	3767
663.5242	3801
665.9709	3760
668.417	3818
670.8624	3814
673.3092	3899
675.7533	3874
678.1968	3834
680.6395	3774
683.0817	3789
685.5251	3783
687.9659	3807
690.4061	3909
692.8456	3872
695.2844	3773
697.7226	3839
700.1621	3901
702.599	3926
705.0332	3853
707.4688	3908
709.9036	3878
712.3399	3842
714.7735	3879
717.2044	3896
719.6367	3946
722.0683	3909
724.4993	3858
726.9296	3976
729.3593	3929
731.7883	4022
734.2147	4000
736.6423	4025
739.0714	4072
741.4958	3961
743.9216	4019
746.3447	4055
748.7691	4068
751.1929	4140
753.616	4086
756.0366	4088
758.4584	4094
760.8776	4062
763.2982	4063
765.718	4140
768.1373	4064
770.5539	4119
772.9698	4137
775.3871	4120
777.8038	4094
780.2178	4066
782.6332	4129
785.0459	4187
787.458	4186
789.8714	4082
792.2842	4104
794.6943	4122
797.1038	4086
799.5127	4148
801.9209	4174
804.3324	4196
806.7393	4120
809.1456	4143
811.5513	4164
813.9562	4171
816.3625	4211
818.7663	4155
821.1693	4191
823.5718	4162
825.9735	4213
828.3746	4147
830.7771	4251
833.177	4165
835.5762	4273
837.9747	4209
840.3727	4209
842.772	4232
845.1666	4247
847.5626	4208
849.958	4233
852.3527	4241
854.7488	4281
857.1403	4180
859.5331	4203
861.9253	4260
864.3168	4190
866.7057	4233
869.098	4261
871.4876	4269
873.8746	4251
876.263	4200
878.6487	4216
881.0378	4275
883.4243	4131
885.8081	4299
888.1933	4306
890.5759	4268
892.9598	4195
895.343	4203
897.7256	4226
900.1057	4297
902.4871	4239
904.8659	4212
907.246	4273
909.6254	4361
912.0023	4297
914.3786	4351
916.7562	4405
919.1331	4458
921.5074	4419
923.8831	4391
926.2562	4554
928.6287	4466
931.0005	4457
933.3757	4407
935.7462	4501
938.1162	4533
940.4855	4579
942.8542	4514
945.2242	4595
947.5916	4640
949.9584	4696
952.3266	4951
954.6921	5020
957.0571	5178
959.4233	5241
961.787	5421
964.15	5335
966.5125	5187
968.8742	4992
971.2354	4909
973.5959	4672
975.9559	4542
978.3151	4567
980.6738	4467
983.0338	4539
985.3912	4466
987.7461	4462
990.1022	4331
992.4578	4360
994.8127	4398
997.1689	4382
999.5207	4492
1001.874	4453
1004.226	4491
1006.576	4414
1008.929	4479
1011.28	4379
1013.628	4372
1015.977	4400
1018.324	4483
1020.674	4474
1023.019	4476
1025.366	4483
1027.713	4435
1030.056	4372
1032.399	4468
1034.746	4585
1037.087	4500
1039.431	4472
1041.771	4500
1044.113	4478
1046.454	4505
1048.793	4564
1051.133	4512
1053.471	4547
1055.807	4475
1058.146	4490
1060.483	4526
1062.818	4494
1065.153	4527
1067.489	4540
1069.822	4604
1072.156	4700
1074.488	4641
1076.82	4643
1079.15	4634
1081.48	4535
1083.814	4592
1086.143	4604
1088.471	4542
1090.799	4574
1093.126	4498
1095.452	4558
1097.78	4541
1100.105	4475
1102.43	4567
1104.754	4521
1107.077	4557
1109.4	4574
1111.722	4565
1114.044	4549
1116.365	4552
1118.685	4571
1121.005	4632
1123.324	4529
1125.643	4584
1127.961	4493
1130.278	4552
1132.595	4567
1134.911	4531
1137.226	4567
1139.541	4534
1141.854	4592
1144.167	4472
1146.482	4529
1148.793	4565
1151.105	4550
1153.414	4604
1155.725	4561
1158.033	4503
1160.344	4632
1162.651	4530
1164.959	4558
1167.265	4618
1169.572	4528
1171.878	4497
1174.184	4563
1176.488	4442
1178.79	4565
1181.094	4588
1183.396	4653
1185.699	4565
1188.001	4508
1190.301	4534
1192.6	4467
1194.9	4565
1197.2	4474
1199.497	4574
1201.794	4604
1204.09	4571
1206.387	4620
1208.684	4513
1210.978	4633
1213.272	4573
1215.565	4656
1217.858	4585
1220.15	4598
1222.443	4677
1224.734	4554
1227.024	4690
1229.313	4655
1231.602	4668
1233.892	4644
1236.18	4683
1238.467	4836
1240.754	4739
1243.04	4754
1245.325	4708
1247.612	4686
1249.896	4710
1252.178	4745
1254.461	4844
1256.743	4783
1259.027	4759
1261.308	4666
1263.587	4685
1265.867	4784
1268.146	4862
1270.425	4869
1272.703	4715
1274.981	4756
1277.256	4863
1279.532	4759
1281.808	4752
1284.083	4855
1286.358	4652
1288.63	4802
1290.904	4748
1293.175	4745
1295.449	4718
1297.719	4720
1299.99	4596
1302.259	4619
1304.529	4655
1306.798	4642
1309.065	4611
1311.333	4633
1313.599	4728
1315.866	4707
1318.131	4760
1320.396	4762
1322.66	4691
1324.925	4671
1327.187	4613
1329.448	4818
1331.711	4617
1333.974	4755
1336.234	4666
1338.493	4729
1340.752	4726
1343.01	4722
1345.269	4703
1347.526	4726
1349.784	4781
1352.04	4711
1354.295	4705
1356.552	4719
1358.806	4642
1361.059	4660
1363.312	4715
1365.564	4789
1367.818	4651
1370.069	4747
1372.318	4728
1374.568	4706
1376.817	4753
1379.066	4676
1381.316	4769
1383.564	4699
1385.809	4783
1388.056	4753
1390.301	4803
1392.549	4814
1394.793	4895
1397.036	4842
1399.279	4905
1401.522	4808
1403.763	4831
1406.007	4898
1408.248	4918
1410.487	4764
1412.727	4860
1414.965	4850
1417.205	4820
1419.442	4834
1421.68	4846
1423.915	4842
1426.152	4863
1428.388	4843
1430.623	4826
1432.857	4930
1435.091	4863
1437.323	4910
1439.556	4887
1441.789	4946
1444.019	4874
1446.25	4892
1448.48	4903
1450.708	4898
1452.938	4998
1455.167	4927
1457.394	4937
1459.62	4971
1461.846	5019
1464.073	4980
1466.299	5019
1468.523	5009
1470.746	4949
1472.969	4792
1475.191	4867
1477.415	4854
1479.636	4872
1481.858	4797
1484.078	4808
1486.298	4747
1488.518	4743
1490.736	4818
1492.954	4749
1495.169	4765
1497.386	4726
1499.602	4750
1501.819	4818
1504.034	4770
1506.248	4719
1508.462	4760
1510.675	4749
1512.888	4771
1515.1	4821
1517.311	4771
1519.522	4715
1521.732	4705
1523.942	4676
1526.151	4681
1528.36	4789
1530.566	4735
1532.773	4720
1534.98	4770
1537.187	4755
1539.392	4771
1541.596	4750
1543.801	4783
1546.005	4777
1548.208	4773
1550.411	4848
1552.612	4855
1554.814	4880
1557.013	4844
1559.212	4778
1561.414	4790
1563.612	4774
1565.811	4680
1568.007	4917
1570.203	4895
1572.403	4894
1574.598	4876
1576.792	4829
1578.988	4857
1581.181	4889
1583.376	4894
1585.568	4862
1587.761	4924
1589.952	4963
1592.143	4981
1594.333	4871
1596.524	4938
1598.715	4934
1600.903	4899
1603.091	4962
1605.278	4980
1607.466	4967
1609.652	4895
1611.838	4920
1614.023	4929
1616.207	4903
1618.391	4881
1620.576	4949
1622.759	5025
1624.941	4997
1627.123	4963
1629.304	4956
1631.484	4978
1633.664	4882
1635.844	4912
1638.022	4976
1640.201	4943
1642.38	4929
1644.556	4932
1646.732	5065
1648.908	4925
1651.084	5046
1653.257	4933
1655.433	4937
1657.607	5028
1659.779	4910
1661.951	4926
1664.122	5084
1666.295	5116
1668.467	5023
1670.635	5011
1672.805	4962
1674.973	4919
1677.142	5050
1679.31	5055
1681.478	4996
1683.644	4972
1685.81	5064
1687.975	5000
1690.142	5019
1692.305	4918
1694.468	4891
1696.632	4961
1698.794	5020
1700.957	4892
1703.119	4944
1705.279	4944
1707.439	5003
1709.598	4967
1711.758	4962
1713.917	4919
1716.075	4947
1718.231	4945
1720.388	4850
1722.543	4905
1724.702	4927
1726.856	4859
1729.01	4846
1731.164	4942
1733.317	4944
1735.471	4847
1737.623	4913
1739.774	5014
1741.925	4993
1744.075	4883
1746.225	4857
1748.376	4919
1750.524	4911
1752.672	4948
1754.82	4916
1756.965	4946
1759.113	4937
1761.259	4908
1763.405	4924
1765.549	4935
1767.694	4912
1769.836	4883
1771.981	4925
1774.123	4936
1776.264	4957
1778.405	4948
1780.546	4916
1782.687	4999
1784.827	4940
1786.966	4881
1789.103	4931
1791.242	4883
1793.381	4893
1795.517	4954
1797.653	4963
1799.788	4959
1801.923	4950
1804.057	4921
1806.193	4906
1808.326	5041
1810.457	4965
1812.59	4986
1814.721	4957
1816.855	4918
1818.984	4902
1821.113	4878
1823.244	4905
1825.372	5024
1827.499	4986
1829.63	4961
1831.756	4876
1833.882	4976
1836.007	4967
1838.132	4873
1840.26	4936
1842.384	4855
1844.507	4986
1846.63	4980
1848.752	4893
1850.875	4882
1852.996	4820
1855.118	4847
1857.238	4872
1859.358	4812
1861.477	4873
1863.597	4888
1865.715	4913
1867.832	4913
1869.948	4826
1872.064	4965
1874.181	4937
1876.297	4879
1878.411	4927
1880.526	5023
1882.639	4923
1884.752	4878
1886.865	4878
1888.977	4885
1891.089	4822
1893.2	4945
1895.308	4835
1897.42	4914
1899.53	4951
1901.639	4993
1903.745	4893
1905.853	4985
1907.962	5010
1910.067	4969
1912.174	4903
1914.278	4971
1916.383	4940
1918.486	4972
1920.592	5035
1922.694	4972
1924.797	4862
1926.898	5057
1929	5011
1931.102	4955
1933.203	5023
1935.301	5040
1937.401	5091
1939.499	5007
1941.598	4991
1943.697	4976
1945.793	5021
1947.888	5022
1949.985	5027
1952.08	4922
1954.176	4992
1956.269	4981
1958.364	4912
1960.457	4915
1962.549	5024
1964.642	4923
1966.733	4977
1968.823	5004
1970.913	4951
1973.005	5027
1975.093	4949
1977.184	4916
1979.271	4933
1981.359	5014
1983.446	4930
1985.532	4938
1987.619	4936
1989.705	4985
1991.789	4905
1993.874	4993
1995.956	4966
1998.041	5024
2000.123	4831
2002.206	4969
2004.287	4899
2006.368	4923
2008.449	4949
2010.529	4939
2012.609	4988
2014.688	4873
2016.766	4928
2018.843	4918
2020.922	4902
2022.999	4927
2025.074	4877
2027.15	4983
2029.225	4898
2031.299	4924
2033.375	4934
2035.447	4952
2037.52	4988
2039.592	5011
2041.664	4904
2043.736	4933
2045.807	4921
2047.876	4955
2049.947	4934
2052.015	5002
2054.086	4949
2056.153	4864
2058.221	4916
2060.288	4945
2062.353	4970
2064.42	4908
2066.486	4931
2068.55	4942
2070.614	4993
2072.678	4869
2074.741	4888
2076.805	4952
2078.866	4912
2080.929	4957
2082.99	4984
2085.049	5014
2087.109	4940
2089.17	4914
2091.228	4937
2093.286	4999
2095.344	4902
2097.4	4992
2099.46	4900
2101.516	4919
2103.572	5017
2105.626	4951
2107.679	5017
2109.735	4936
2111.788	4954
2113.841	4965
2115.894	4894
2117.945	4927
2119.997	4915
2122.049	4900
2124.1	4968
2126.148	4825
2128.197	4940
2130.246	4938
2132.296	4935
2134.342	4950
2136.39	4973
2138.437	4912
2140.483	4902
2142.527	4940
2144.574	4932
2146.619	4993
2148.661	4972
2150.705	4834
2152.747	4936
2154.792	4953
2156.832	4853
2158.874	4918
2160.915	4910
2162.954	4904
2164.995	5059
2167.034	4928
2169.072	4870
2171.111	4907
2173.148	4944
2175.186	4850
2177.223	4968
2179.258	4813
2181.294	5048
2183.328	4822
2185.362	4820
2187.398	4929
2189.431	4957
2191.463	4844
2193.495	4955
2195.528	4865
2197.56	4823
2199.59	4870
2201.62	4835
2203.649	4779
2205.678	4844
2207.708	4857
2209.737	4902
2211.764	4743
2213.791	4870
2215.817	4865
2217.843	4801
2219.87	4816
2221.895	4851
2223.919	4862
2225.942	4812
2227.966	4764
2229.988	4751
2232.012	4980
2234.032	4849
2236.054	4746
2238.074	4841
2240.095	4900
2242.116	4850
2244.135	4846
2246.153	4748
2248.171	4752
2250.188	4854
2252.208	4772
2254.223	4719
2256.239	4812
2258.255	4883
2260.269	4779
2262.283	4877
2264.3	4759
2266.312	4875
2268.325	4881
2270.336	4682
2272.349	4827
2274.362	4849
2276.372	4811
2278.383	4818
2280.392	4845
2282.402	4875
2284.409	4797
2286.418	4821
2288.427	4894
2290.433	4739
2292.441	4850
2294.446	4822
2296.453	4847
2298.459	4816
2300.463	4751
2302.466	4842
2304.471	4803
2306.475	4796
2308.477	4824
2310.478	4789
2312.481	4738
2314.481	4745
2316.481	4815
2318.482	4753
2320.482	4818
2322.48	4772
2324.48	4800
2326.478	4736
2328.476	4712
2330.473	4745
2332.469	4753
2334.465	4856
2336.46	4642
2338.454	4675
2340.45	4798
2342.444	4734
2344.437	4685
2346.43	4842
2348.421	4656
2350.414	4730
2352.405	4717
2354.396	4661
2356.386	4701
2358.376	4681
2360.366	4767
2362.355	4723
2364.343	4684
2366.331	4758
2368.317	4767
2370.304	4628
2372.292	4750
2374.278	4596
2376.262	4709
2378.247	4741
2380.23	4630
2382.216	4650
2384.199	4654
2386.181	4686
2388.163	4693
2390.144	4738
2392.127	4719
2394.107	4627
2396.087	4662
2398.066	4631
2400.046	4590
2402.023	4678
2404.004	4654
2405.981	4618
2407.957	4683
2409.934	4573
2411.91	4710
2413.886	4659
2415.862	4704
2417.836	4666
2419.809	4722
2421.784	4648
2423.756	4619
2425.73	4717
2427.701	4632
2429.672	4717
2431.644	4597
2433.615	4627
2435.586	4629
2437.555	4665
2439.523	4657
2441.491	4692
2443.459	4607
2445.428	4617
2447.395	4578
2449.361	4590
2451.327	4691
2453.292	4667
2455.257	4622
2457.223	4686
2459.187	4603
2461.15	4631
2463.113	4596
2465.076	4669
2467.039	4624
2468.999	4495
2470.96	4593
2472.921	4691
2474.881	4543
2476.841	4605
2478.8	4523
2480.759	4688
2482.717	4518
2484.675	4665
2486.63	4607
2488.589	4612
2490.545	4640
2492.5	4628
2494.455	4610
2496.408	4523
2498.364	4637
2500.318	4518
2502.27	4596
2504.223	4583
2506.174	4492
2508.126	4565
2510.078	4490
2512.03	4510
2513.979	4632
2515.927	4599
2517.877	4559
2519.826	4546
2521.775	4602
2523.722	4493
2525.668	4513
2527.616	4618
2529.561	4567
2531.508	4609
2533.452	4504
2535.398	4567
2537.342	4463
2539.284	4635
2541.229	4550
2543.173	4568
2545.114	4533
2547.055	4512
2548.996	4630
2550.938	4476
2552.878	4538
2554.817	4545
2556.756	4558
2558.695	4536
2560.633	4544
2562.572	4639
2564.509	4532
2566.445	4541
2568.382	4537
2570.317	4563
2572.254	4470
2574.189	4533
2576.123	4564
2578.057	4566
2579.99	4529
2581.923	4471
2583.855	4586
2585.788	4496
2587.719	4554
2589.65	4517
2591.579	4509
2593.511	4600
2595.44	4576
2597.37	4508
2599.297	4547
2601.225	4531
2603.153	4548
2605.08	4593
2607.007	4522
2608.932	4606
2610.858	4632
2612.782	4531
2614.709	4549
2616.632	4508
2618.556	4587
2620.478	4504
2622.401	4466
2624.324	4592
2626.247	4466
2628.167	4683
2630.088	4567
2632.008	4490
2633.928	4532
2635.848	4499
2637.766	4554
2639.684	4563
2641.603	4559
2643.519	4585
2645.437	4561
2647.353	4596
2649.27	4525
2651.184	4557
2653.099	4451
2655.014	4547
2656.928	4527
2658.842	4620
2660.755	4535
2662.667	4545
2664.579	4594
2666.491	4517
2668.402	4616
2670.312	4521
2672.222	4531
2674.132	4530
2676.042	4594
2677.951	4577
2679.859	4467
2681.766	4603
2683.674	4554
2685.582	4482
2687.488	4502
2689.392	4663
2691.298	4526
2693.202	4425
2695.107	4483
2697.012	4495
2698.914	4463
2700.817	4399
2702.72	4538
2704.622	4458
2706.524	4516
2708.425	4505
2710.326	4470
2712.225	4513
2714.125	4441
2716.024	4486
2717.923	4385
2719.822	4496
2721.719	4495
2723.616	4455
2725.512	4506
2727.41	4478
2729.305	4447
2731.201	4485
2733.095	4573
2734.99	4478
2736.884	4363
2738.778	4476
2740.67	4514
2742.562	4428
2744.455	4391
2746.346	4459
2748.238	4459
2750.129	4446
2752.018	4457
2753.907	4341
2755.797	4382
2757.687	4438
2759.575	4459
2761.462	4432
2763.349	4491
2765.237	4409
2767.124	4457
2769.009	4511
2770.894	4412
2772.779	4443
2774.663	4404
2776.547	4346
2778.431	4421
2780.314	4306
2782.197	4391
2784.078	4361
2785.96	4425
2787.842	4475
2789.723	4511
2791.603	4328
2793.483	4337
2795.362	4452
2797.241	4467
2799.121	4377
2800.997	4406
2802.874	4350
2804.751	4470
2806.628	4349
2808.506	4331
2810.38	4346
2812.255	4420
2814.13	4312
2816.003	4439
2817.878	4409
2819.752	4340
2821.623	4386
2823.496	4417
2825.368	4413
2827.238	4354
2829.111	4310
2830.98	4369
2832.851	4407
2834.719	4295
2836.589	4387
2838.458	4354
2840.327	4401
2842.193	4403
2844.061	4438
2845.927	4456
2847.794	4391
2849.66	4413
2851.525	4360
2853.39	4395
2855.254	4422
2857.117	4438
2858.983	4499
2860.845	4500
2862.707	4459
2864.569	4579
2866.431	4466
2868.293	4468
2870.154	4487
2872.013	4536
2873.873	4550
2875.733	4654
2877.592	4620
2879.451	4651
2881.309	4648
2883.166	4605
2885.022	4686
2886.879	4699
2888.736	4741
2890.591	4744
2892.446	4761
2894.301	4838
2896.155	4704
2898.009	4750
2899.863	4743
2901.716	4576
2903.568	4756
2905.419	4671
2907.27	4679
2909.123	4730
2910.973	4631
2912.824	4756
2914.673	4687
2916.521	4816
2918.372	4744
2920.22	4845
2922.067	4830
2923.914	4867
2925.761	4886
2927.607	4934
2929.455	4910
2931.301	4948
2933.144	5139
2934.99	4996
2936.833	5173
2938.678	5173
2940.522	5205
2942.364	5238
2944.207	5160
2946.048	5226
2947.891	5277
2949.731	5335
2951.571	5325
2953.412	5201
2955.25	5196
2957.09	5084
2958.93	5118
2960.767	5097
2962.606	5074
2964.443	4954
2966.279	4968
2968.116	4996
2969.953	4995
2971.788	4888
2973.623	4782
2975.457	4754
2977.292	4767
2979.127	4846
2980.959	4728
2982.792	4657
2984.624	4807
2986.455	4650
2988.288	4703
2990.119	4658
2991.949	4629
2993.779	4610
2995.608	4534
2997.439	4590
2999.268	4549
3001.096	4558
3002.923	4475
3004.751	4429
3006.578	4392
3008.406	4454
3010.232	4269
3012.057	4385
3013.883	4315
3015.706	4332
3017.532	4285
3019.356	4287
3021.179	4195
3023.002	4222
3024.823	4300
3026.646	4298
3028.469	4267
3030.289	4240
3032.11	4123
3033.93	4219
3035.749	4150
3037.57	4172
3039.39	4250
3041.207	4229
3043.026	4122
3044.842	4165
3046.661	4146
3048.477	4082
3050.294	4171
3052.109	4151
3053.925	4073
3055.739	4162
3057.555	4247
3059.368	4188
3061.181	4158
3062.995	4084
3064.807	4150
3066.62	4091
3068.433	4209
3070.243	4107
3072.054	4172
3073.865	4052
3075.675	4132
3077.485	4147
3079.293	4119
3081.102	4139
3082.911	4115
3084.719	4016
3086.527	4122
3088.333	4078
3090.139	4105
3091.945	4062
3093.75	4033
3095.557	4128
3097.361	4035
3099.165	4063
3100.969	4001
3102.772	4013
3104.575	3985
3106.379	4019
3108.181	4065
3109.982	3942
3111.783	3959
3113.584	4068
3115.386	4009
3117.186	4001
3118.985	3943
3120.783	4031
3122.582	4001
3124.381	3986
3126.179	3978
3127.975	4050
3129.772	3971
3131.569	3915
3133.365	3927
3135.161	3941
3136.956	3982
3138.751	3945
3140.544	3842
3142.338	3919
3144.132	3927
3145.925	3894
3147.717	3839
3149.509	3981
3151.301	3939
3153.091	3953
3154.884	3949
3156.673	3857
3158.462	3890
3160.252	3843
3162.041	3858
3163.831	3997
3165.618	3815
3167.405	3830
3169.193	3929
3170.979	3886
3172.767	3944
3174.553	4009
3176.338	3858
3178.123	3864
3179.907	3849
3181.692	3919
3183.477	3898
3185.259	3840
3187.042	3907
3188.824	3801
3190.607	3949
3192.389	3852
3194.17	3833
3195.951	3916
3197.73	3936
3199.51	3898
3201.289	3810
3203.07	3848
3204.848	3925
3206.626	3862
3208.403	3884
3210.18	3856
3211.959	3912
3213.735	3790
3215.511	3845
3217.285	3898
3219.06	3905
3220.836	3937
3222.611	3781
3224.384	3863
3226.158	3870
3227.929	3844
3229.702	3808
3231.476	3865
3233.248	3863
3235.018	3861
3236.789	3864
3238.56	3932
3240.33	3907
3242.1	3824
3243.869	3881
3245.637	3961
3247.405	3873
3249.172	3845
3250.941	3821
3252.707	3796
3254.474	3895
3256.24	3820
3258.006	3849
3259.772	3843
3261.537	3852
3263.301	3866
3265.065	3804
3266.828	3922
3268.592	3818
3270.355	3816
3272.117	3774
3273.878	3856
3275.64	3885
3277.401	3784
3279.162	3841
3280.922	3820
3282.682	3857
3284.441	3882
3286.199	3839
3287.959	3845
3289.716	3834
3291.475	3910
3293.232	3869
3294.988	3757
3296.744	3818
3298.501	3861
3300.256	3720
3302.011	3847
3303.766	3835
3305.52	3763
3307.275	3847
3309.028	3848
3310.781	3828
3312.533	3851
3314.285	3926
3316.038	3814
3317.789	3856
3319.54	3855
3321.289	3928
3323.039	3792
3324.789	3827
3326.539	3820
3328.288	3820
3330.035	3836
3331.783	3812
3333.531	3761
3335.28	3831
3337.025	3788
3338.771	3772
3340.518	3786
3342.262	3745
3344.009	3806
3345.753	3847
3347.497	3759
3349.24	3760
3350.983	3781
3352.726	3707
3354.469	3759
3356.212	3756
3357.952	3815
3359.694	3671
3361.434	3798
3363.176	3705
3364.916	3715
3366.654	3686
3368.394	3809
3370.132	3779
3371.871	3732
3373.61	3661
3375.346	3694
3377.083	3731
3378.82	3699
3380.556	3696
3382.292	3699
3384.027	3642
3385.763	3731
3387.497	3701
3389.231	3659
3390.965	3750
3392.698	3682
3394.431	3686
3396.164	3689
3397.896	3717
3399.627	3689
3401.36	3687
3403.09	3563
3404.82	3659
3406.55	3630
3408.279	3618
3410.01	3626
3411.738	3632
3413.467	3716
3415.194	3674
3416.92	3697
3418.647	3691
3420.375	3625
3422.102	3601
3423.827	3567
3425.553	3659
3427.277	3557
3429.003	3665
3430.727	3606
3432.451	3651
3434.173	3613
3435.896	3632
3437.62	3643
3439.343	3602
3441.063	3575
3442.785	3587
3444.505	3608
3446.226	3554
3447.948	3619
3449.666	3563
3451.386	3537
3453.104	3597
3454.823	3603
3456.541	3581
3458.259	3513
3459.976	3536
3461.693	3468
3463.408	3431
3465.125	3608
3466.841	3506
3468.556	3482
3470.271	3484
3471.985	3484
3473.698	3476
3475.414	3464
3477.126	3487
3478.838	3478
3480.55	3450
3482.263	3483
3483.975	3507
3485.686	3437
3487.396	3515
3489.106	3485
3490.817	3541
3492.526	3472
3494.236	3439
3495.944	3517
3497.652	3463
3499.359	3419
3501.066	3429
3502.775	3486
3504.481	3399
3506.187	3461
3507.893	3524
3509.598	3444
3511.304	3488
3513.009	3434
3514.713	3342
3516.417	3400
3518.12	3410
3519.821	3337
3521.525	3366
3523.228	3419
3524.929	3419
3526.631	3290
3528.33	3391
3530.032	3373
3531.733	3355
3533.433	3345
3535.131	3322
3536.83	3359
3538.529	3343
3540.227	3376
3541.925	3298
3543.623	3376
3545.319	3380
3547.016	3307
3548.712	3376
3550.408	3393
3552.103	3374
3553.798	3308
3555.491	3306
3557.188	3259
3558.88	3331
3560.574	3300
3562.266	3304
3563.959	3283
3565.651	3329
3567.343	3261
3569.035	3300
3570.725	3304
3572.415	3310
3574.106	3233
3575.797	3196
3577.485	3315
3579.174	3347
3580.863	3195
3582.551	3253
3584.238	3279
3585.926	3254
3587.613	3333
3589.3	3272
3590.986	3290
3592.671	3306
3594.357	3282
3596.042	3260
3597.726	3271
3599.41	3178
3601.094	3201
3602.778	3229
3604.461	3214
3606.143	3249
3607.825	3218
3609.507	3135
3611.188	3206
3612.87	3247
3614.551	3122
3616.229	3236
3617.909	3104
3619.589	3171
3621.269	3167
3622.948	3161
3624.625	3069
3626.302	3136
3627.98	3156
3629.657	3108
3631.334	3161
3633.01	3096
3634.686	3192
3636.361	3110
3638.036	3126
3639.712	3044
3641.385	3126
3643.06	3157
3644.732	3169
3646.405	3148
3648.08	3006
3649.751	3120
3651.424	3084
3653.094	3151
3654.766	2965
3656.436	3017
3658.106	3092
3659.777	3007
3661.446	3044
3663.115	3063
3664.783	3046
3666.452	3027
3668.121	3051
3669.788	3032
3671.454	3080
3673.121	3028
3674.789	3049
3676.455	3051
3678.12	3080
3679.784	3063
3681.45	3027
3683.114	2990
3684.779	3091
3686.442	3032
3688.105	3068
3689.768	2980
3691.43	3030
3693.093	3022
3694.754	3005
3696.415	2982
3698.076	3050
3699.736	2981
3701.396	3072
3703.057	3008
3704.716	2997
3706.375	2943
3708.034	2982
3709.692	2987
3711.351	3005
3713.008	3021
3714.665	3009
3716.321	2998
3717.977	3035
3719.634	3032
3721.29	2985
3722.945	2976
3724.598	2973
3726.253	3023
3727.907	2951
3729.561	2925
3731.214	2991
3732.867	2900
3734.518	2982
3736.171	2909
3737.824	2993
3739.474	2990
3741.125	2959
3742.775	2886
3744.425	2933
3746.074	2985
3747.725	2912
3749.373	2965
3751.022	2961
3752.669	3000
3754.318	2933
3755.966	2925
3757.612	2973
3759.259	2863
3760.905	2918
3762.55	2960
3764.197	2979
3765.842	2908
3767.486	2909
3769.131	2891
3770.774	2851
3772.417	2887
3774.061	2905
3775.705	2893
3777.347	2852
3778.988	2862
3780.629	2898
3782.271	2796
3783.912	2933
3785.552	2926
3787.192	2862
3788.831	2847
3790.472	2911
3792.112	2889
3793.75	2834
3795.388	2860
3797.024	2858
3798.661	2879
3800.3	2858
3801.936	2815
3803.572	2853
3805.208	2968
3806.844	2858
3808.48	2807
3810.115	2820
3811.748	2806
3813.382	2781
3815.016	2894
3816.649	2859
3818.283	2882
3819.914	2900
3821.547	2765
3823.178	2894
3824.809	2796
3826.441	2863
3828.072	2812
3829.701	2789
3831.331	2803
3832.96	2779
3834.591	2772
3836.219	2782
3837.847	2877
3839.475	2793
3841.102	2776
3842.729	2723
3844.357	2781
3845.984	2767
3847.609	2754
3849.234	2759
3850.86	2736
3852.485	2750
3854.11	2741
3855.734	2686
3857.357	2763
3858.981	2700
3860.603	2783
3862.227	2756
3863.848	2743
3865.471	2819
3867.092	2744
3868.713	2758
3870.334	2821
3871.954	2692
3873.575	2706
3875.194	2764
3876.813	2764
3878.433	2766
3880.051	2740
3881.669	2732
3883.286	2677
3884.904	2783
3886.52	2686
3888.138	2723
3889.754	2752
3891.37	2717
3892.985	2786
3894.6	2725
3896.216	2718
3897.831	2707
3899.444	2749
3901.058	2701
3902.67	2666
3904.283	2767
3905.897	2675
3907.509	2688
3909.121	2681
3910.731	2772
3912.342	2718
3913.954	2665
3915.563	2691
3917.174	2658
3918.783	2758
3920.391	2685
3922.002	2715
3923.611	2668
3925.218	2728
3926.826	2670
3928.432	2711
3930.039	2718
3931.647	2640
3933.253	2664
3934.859	2635
3936.464	2667
3938.068	2616
3939.675	2666
3941.278	2612
3942.883	2672
3944.486	2669
3946.089	2695
3947.692	2617
3949.295	2613
3950.898	2670
3952.499	2638
3954.1	2722
3955.7	2617
3957.303	2675
3958.903	2647
3960.502	2642
3962.101	2628
3963.7	2608
3965.301	2610
3966.899	2610
3968.497	2617
3970.094	2554
3971.691	2639
3973.288	2569
3974.885	2624
3976.481	2595
3978.077	2619
3979.672	2592
3981.267	2591
3982.863	2580
3984.457	2560
3986.051	2590
3987.645	2606
3989.238	2596
3990.831	2567
3992.425	2579
3994.017	2571
3995.607	2510
3997.199	2526
3998.79	2595
4000.382	2551
4001.973	2553
4003.561	2536
4005.151	2610
4006.741	2569
4008.331	2574
4009.918	2559
4011.507	2486
4013.095	2511
4014.681	2576
4016.269	2552
4017.856	2490
4019.443	2596
4021.028	2500
4022.614	2530
4024.199	2474
4025.785	2527
4027.37	2512
4028.953	2477
4030.536	2546
4032.12	2536
4033.704	2565
4035.287	2504
4036.869	2501
4038.45	2479
4040.032	2487
4041.613	2558
4043.195	2474
4044.776	2418
4046.356	2488
4047.935	2465
4049.515	2459
4051.095	2490
4052.674	2432
4054.251	2446
4055.829	2427
4057.406	2459
4058.985	2479
4060.562	2489
4062.139	2433
4063.715	2463
4065.29	2445
4066.865	2398
4068.442	2429
4070.016	2491
4071.59	2490
4073.164	2422
4074.738	2376
4076.312	2439
4077.885	2496
4079.458	2414
4081.03	2409
4082.602	2416
4084.173	2374
4085.745	2417
4087.315	2397
4088.886	2403
4090.456	2465
4092.026	2385
4093.596	2339
4095.165	2414
4096.734	2461
4098.301	2390
4099.869	2447
4101.437	2352
4103.006	2445
4104.572	2416
4106.139	2385
4107.704	2360
4109.27	2428
4110.837	2366
4112.401	2384
4113.966	2417
4115.53	2372
4117.094	2431
4118.659	2341
4120.223	2339
4121.785	2345
4123.347	2364
4124.909	2279
4126.471	2400
4128.034	2362
4129.595	2335
4131.155	2342
4132.716	2410
4134.275	2321
4135.836	2336
4137.395	2324
4138.955	2366
4140.513	2346
4142.071	2306
4143.628	2330
4145.188	2258
4146.745	2295
4148.302	2323
4149.858	2324
4151.414	2335
4152.971	2287
4154.526	2317
4156.081	2314
4157.635	2314
4159.189	2298
4160.745	2352
4162.298	2291
4163.852	2289
4165.405	2325
4166.957	2294
4168.51	2293
4170.063	2322
4171.614	2314
4173.166	2340
4174.717	2306
4176.267	2291
4177.817	2300
4179.368	2190
4180.917	2278
4182.466	2362
4184.016	2266
4185.564	2290
4187.112	2241
4188.66	2236
4190.207	2304
4191.754	2265
4193.301	2263
4194.848	2227
4196.394	2290
4197.94	2256
4199.484	2298
4201.03	2211
4202.575	2282
4204.12	2211
4205.663	2282
4207.207	2148
4208.75	2202
4210.292	2209
4211.836	2204
4213.378	2174
4214.92	2301
4216.46	2204
4218.002	2208
4219.544	2185
4221.083	2215
4222.625	2155
4224.164	2225
4225.703	2245
4227.244	2274
4228.782	2246
4230.32	2192
4231.857	2134
4233.395	2172
4234.933	2194
4236.471	2173
4238.007	2249
4239.542	2213
4241.078	2166
4242.614	2176
4244.15	2225
4245.685	2248
4247.219	2188
4248.753	2158
4250.287	2147
4251.82	2212
4253.354	2159
4254.887	2163
4256.419	2159
4257.951	2174
4259.483	2230
4261.016	2176
4262.547	2185
4264.078	2206
4265.608	2145
4267.137	2183
4268.668	2129
4270.197	2153
4271.727	2206
4273.254	2167
4274.783	2184
4276.311	2125
4277.84	2144
4279.366	2168
4280.894	2145
4282.42	2114
4283.946	2132
4285.473	2177
4286.998	2100
4288.523	2125
4290.047	2162
4291.572	2118
4293.096	2146
4294.622	2095
4296.144	2128
4297.668	2108
4299.19	2104
4300.713	2102
4302.236	2088
4303.758	2093
4305.279	2128
4306.799	2050
4308.321	2108
4309.842	2107
4311.361	2108
4312.882	2049
4314.401	2086
