400.0961	2585
402.6185	2582
405.1424	2553
407.6635	2612
410.1838	2555
412.7035	2611
415.2225	2621
417.7388	2646
420.2585	2772
422.7754	2795
425.2917	2776
427.8072	2804
430.3221	2783
432.8363	2788
435.3498	2826
437.8626	2778
440.3727	2782
442.8841	2797
445.3969	2802
447.907	2740
450.4142	2772
452.9229	2785
455.4289	2790
457.9362	2774
460.4449	2760
462.9488	2715
465.454	2750
467.9566	2768
470.4604	2769
472.9637	2704
475.4662	2767
477.966	2800
480.4671	2789
482.9656	2774
485.4633	2759
487.9645	2765
490.4608	2774
492.9566	2725
495.4536	2812
497.948	2780
500.4437	2775
502.9387	2808
505.431	2753
507.9226	2794
510.4136	2857
512.9079	2835
515.3975	2794
517.8864	2840
520.3746	2753
522.8622	2746
525.3491	2805
527.8394	2783
530.3249	2834
532.8098	2871
535.2939	2847
537.7774	2828
540.2623	2909
542.7444	2865
545.2259	2948
547.7067	2842
550.1868	2802
552.6683	2831
555.147	2795
557.6231	2790
560.1005	2827
562.5773	2867
565.0534	2945
567.5308	2845
570.0056	2950
572.4776	2923
574.951	2958
577.4237	2978
579.8978	2880
582.3671	2961
584.8378	2930
587.3079	2968
589.7773	3011
592.244	3007
594.714	2988
597.1793	2937
599.6461	2952
602.1121	2948
604.5754	2955
607.0421	2925
609.5042	2881
611.9675	2909
614.4282	2897
616.8902	2874
619.3515	2910
621.8122	2891
624.2702	2892
626.7296	2814
629.1863	2928
631.6423	2927
634.1017	2899
636.5563	2899
639.0104	2890
641.4658	2960
643.9185	2995
646.3725	2882
648.8239	2883
651.2766	2862
653.7266	2934
656.176	2917
658.6247	3001
661.0748	2917
663.5242	2885
665.9709	2934
668.417	2985
670.8624	2987
673.3092	2982
675.7533	2968
678.1968	2958
680.6395	2995
683.0817	3033
685.5251	2948
687.9659	3008
690.4061	2979
692.8456	2993
695.2844	3051
697.7226	3013
700.1621	3019
702.599	3091
705.0332	3066
707.4688	2941
709.9036	3049
712.3399	3022
714.7735	3036
717.2044	3006
719.6367	3056
722.0683	3002
724.4993	3118
726.9296	3050
729.3593	3005
731.7883	3006
734.2147	3133
736.6423	3170
739.0714	3202
741.4958	3155
743.9216	3142
746.3447	3192
748.7691	3090
751.1929	3122
753.616	3170
756.0366	3212
758.4584	3138
760.8776	3138
763.2982	3150
765.718	3138
768.1373	3251
770.5539	3177
772.9698	3216
775.3871	3228
777.8038	3233
780.2178	3189
782.6332	3186
785.0459	3211
787.458	3269
789.8714	3213
792.2842	3187
794.6943	3229
797.1038	3152
799.5127	3159
801.9209	3276
804.3324	3223
806.7393	3185
809.1456	3232
811.5513	3210
813.9562	3270
816.3625	3191
818.7663	3361
821.1693	3272
823.5718	3285
825.9735	3206
828.3746	3304
830.7771	3273
833.177	3285
835.5762	3276
837.9747	3208
840.3727	3253
842.772	3303
845.1666	3266
847.5626	3322
849.958	3229
852.3527	3344
854.7488	3333
857.1403	3264
859.5331	3395
861.9253	3348
864.3168	3304
866.7057	3315
869.098	3358
871.4876	3262
873.8746	3346
876.263	3246
878.6487	3296
881.0378	3309
883.4243	3306
885.8081	3289
888.1933	3337
890.5759	3348
892.9598	3268
895.343	3299
897.7256	3327
900.1057	3320
902.4871	3294
904.8659	3310
907.246	3326
909.6254	3353
912.0023	3404
914.3786	3440
916.7562	3471
919.1331	3463
921.5074	3454
923.8831	3492
926.2562	3497
928.6287	3469
931.0005	3538
933.3757	3507
935.7462	3548
938.1162	3597
940.4855	3565
942.8542	3548
945.2242	3773
947.5916	3759
949.9584	3893
952.3266	4043
954.6921	4173
957.0571	4378
959.4233	4594
961.787	4640
964.15	4580
966.5125	4374
968.8742	4186
971.2354	3948
973.5959	3849
975.9559	3678
978.3151	3614
980.6738	3517
983.0338	3461
985.3912	3433
987.7461	3487
990.1022	3323
992.4578	3388
994.8127	3471
997.1689	3498
999.5207	3506
1001.874	3531
1004.226	3537
1006.576	3446
1008.929	3514
1011.28	3469
1013.628	3466
1015.977	3552
1018.324	3522
1020.674	3469
1023.019	3554
1025.366	3446
1027.713	3522
1030.056	3571
1032.399	3495
1034.746	3524
1037.087	3491
1039.431	3558
1041.771	3512
1044.113	3524
1046.454	3542
1048.793	3602
1051.133	3519
1053.471	3531
1055.807	3549
1058.146	3631
1060.483	3529
1062.818	3608
1065.153	3577
1067.489	3509
1069.822	3703
1072.156	3577
1074.488	3750
1076.82	3596
1079.15	3755
1081.48	3568
1083.814	3625
1086.143	3531
1088.471	3632
1090.799	3569
1093.126	3565
1095.452	3493
1097.78	3594
1100.105	3542
1102.43	3536
1104.754	3499
1107.077	3537
1109.4	3565
1111.722	3546
1114.044	3401
1116.365	3462
1118.685	3481
1121.005	3623
1123.324	3628
1125.643	3528
1127.961	3552
1130.278	3502
1132.595	3484
1134.911	3515
1137.226	3553
1139.541	3488
1141.854	3523
1144.167	3491
1146.482	3551
1148.793	3525
1151.105	3626
1153.414	3518
1155.725	3544
1158.033	3553
1160.344	3531
1162.651	3575
1164.959	3551
1167.265	3506
1169.572	3549
1171.878	3523
1174.184	3526
1176.488	3657
1178.79	3541
1181.094	3571
1183.396	3536
1185.699	3545
1188.001	3488
1190.301	3540
1192.6	3545
1194.9	3481
1197.2	3500
1199.497	3628
1201.794	3588
1204.09	3523
1206.387	3589
1208.684	3565
1210.978	3498
1213.272	3538
1215.565	3566
1217.858	3623
1220.15	3508
1222.443	3596
1224.734	3567
1227.024	3583
1229.313	3627
1231.602	3607
1233.892	3681
1236.18	3622
1238.467	3637
1240.754	3691
1243.04	3690
1245.325	3714
1247.612	3718
1249.896	3695
1252.178	3751
1254.461	3813
1256.743	3706
1259.027	3737
1261.308	3665
1263.587	3755
1265.867	3740
1268.146	3707
1270.425	3745
1272.703	3727
1274.981	3716
1277.256	3701
1279.532	3743
1281.808	3583
1284.083	3656
1286.358	3664
1288.63	3732
1290.904	3680
1293.175	3705
1295.449	3733
1297.719	3680
1299.99	3718
1302.259	3721
1304.529	3701
1306.798	3585
1309.065	3687
1311.333	3627
1313.599	3630
1315.866	3629
1318.131	3643
1320.396	3612
1322.66	3670
1324.925	3667
1327.187	3688
1329.448	3666
1331.711	3770
1333.974	3721
1336.234	3704
1338.493	3681
1340.752	3680
1343.01	3677
1345.269	3726
1347.526	3644
1349.784	3674
1352.04	3679
1354.295	3704
1356.552	3700
1358.806	3635
1361.059	3672
1363.312	3641
1365.564	3625
1367.818	3667
1370.069	3568
1372.318	3759
1374.568	3647
1376.817	3627
1379.066	3707
1381.316	3721
1383.564	3768
1385.809	3728
1388.056	3674
1390.301	3714
1392.549	3712
1394.793	3752
1397.036	3753
1399.279	3792
1401.522	3793
1403.763	3752
1406.007	3776
1408.248	3738
1410.487	3728
1412.727	3800
1414.965	3774
1417.205	3735
1419.442	3811
1421.68	3763
1423.915	3846
1426.152	3791
1428.388	3824
1430.623	3872
1432.857	3805
1435.091	3799
1437.323	3911
1439.556	3809
1441.789	3947
1444.019	3900
1446.25	3816
1448.48	3852
1450.708	3827
1452.938	3897
1455.167	4055
1457.394	3923
1459.62	3909
1461.846	3887
1464.073	3879
1466.299	3965
1468.523	3891
1470.746	3879
1472.969	3735
1475.191	3684
1477.415	3753
1479.636	3746
1481.858	3743
1484.078	3806
1486.298	3680
1488.518	3659
1490.736	3727
1492.954	3634
1495.169	3636
1497.386	3714
1499.602	3676
1501.819	3744
1504.034	3670
1506.248	3638
1508.462	3675
1510.675	3704
1512.888	3689
1515.1	3635
1517.311	3763
1519.522	3706
1521.732	3689
1523.942	3766
1526.151	3652
1528.36	3720
1530.566	3718
1532.773	3678
1534.98	3653
1537.187	3673
1539.392	3768
1541.596	3632
1543.801	3751
1546.005	3776
1548.208	3689
1550.411	3712
1552.612	3755
1554.814	3701
1557.013	3710
1559.212	3652
1561.414	3738
1563.612	3814
1565.811	3733
1568.007	3712
1570.203	3860
1572.403	3745
1574.598	3855
1576.792	3780
1578.988	3766
1581.181	3850
1583.376	3760
1585.568	3787
1587.761	3790
1589.952	3847
1592.143	3795
1594.333	3897
1596.524	3816
1598.715	3865
1600.903	3772
1603.091	3890
1605.278	3756
1607.466	3769
1609.652	3873
1611.838	3772
1614.023	3832
1616.207	3916
1618.391	3850
1620.576	3775
1622.759	3832
1624.941	3839
1627.123	3860
1629.304	3914
1631.484	3800
1633.664	3871
1635.844	3886
1638.022	3930
1640.201	3911
1642.38	3878
1644.556	3922
1646.732	3887
1648.908	3888
1651.084	3856
1653.257	3946
1655.433	3868
1657.607	3932
1659.779	3881
1661.951	3911
1664.122	3936
1666.295	3916
1668.467	3935
1670.635	4053
1672.805	3949
1674.973	3936
1677.142	3954
1679.31	3987
1681.478	3931
1683.644	3937
1685.81	3933
1687.975	3954
1690.142	3887
1692.305	3919
1694.468	3930
1696.632	3927
1698.794	3769
1700.957	3820
1703.119	3872
1705.279	3828
1707.439	3897
1709.598	3846
1711.758	3924
1713.917	3817
1716.075	3812
1718.231	3815
1720.388	3849
1722.543	3863
1724.702	3881
1726.856	3782
1729.01	3849
1731.164	3829
1733.317	3793
1735.471	3907
1737.623	3755
1739.774	3824
1741.925	3821
1744.075	3806
1746.225	3875
1748.376	3826
1750.524	3739
1752.672	3879
1754.82	3830
1756.965	3867
1759.113	3853
1761.259	3823
1763.405	3891
1765.549	3804
1767.694	3883
1769.836	3878
1771.981	3816
1774.123	3938
1776.264	3850
1778.405	3869
1780.546	3965
1782.687	3903
1784.827	3878
1786.966	3913
1789.103	3840
1791.242	3871
1793.381	3842
1795.517	3896
1797.653	3880
1799.788	3910
1801.923	3800
1804.057	3861
1806.193	3845
1808.326	3841
1810.457	3853
1812.59	3958
1814.721	3876
1816.855	3947
1818.984	3848
1821.113	3807
1823.244	3815
1825.372	3891
1827.499	3833
1829.63	3827
1831.756	3905
1833.882	3956
1836.007	3900
1838.132	3857
1840.26	3878
1842.384	3828
1844.507	3852
1846.63	3901
1848.752	3890
1850.875	3808
1852.996	3873
1855.118	3806
1857.238	3895
1859.358	3906
1861.477	3822
1863.597	3932
1865.715	3834
1867.832	3808
1869.948	3831
1872.064	3723
1874.181	3782
1876.297	3864
1878.411	3879
1880.526	3896
1882.639	3803
1884.752	3919
1886.865	3879
1888.977	3805
1891.089	3798
1893.2	3928
1895.308	3885
1897.42	3848
1899.53	3875
1901.639	3889
1903.745	3886
1905.853	3909
1907.962	3892
1910.067	3844
1912.174	3921
1914.278	3913
1916.383	3849
1918.486	3999
1920.592	3948
1922.694	3928
1924.797	3862
1926.898	3931
1929	4031
1931.102	3907
1933.203	3887
1935.301	3930
1937.401	3953
1939.499	3979
1941.598	3950
1943.697	3865
1945.793	3945
1947.888	3950
1949.985	3928
1952.08	3845
1954.176	3935
1956.269	3876
1958.364	3923
1960.457	3869
1962.549	3906
1964.642	3877
1966.733	3924
1968.823	3889
1970.913	3905
1973.005	3975
1975.093	3904
1977.184	3898
1979.271	3884
1981.359	3897
1983.446	3946
1985.532	3898
1987.619	3951
1989.705	3889
1991.789	3870
1993.874	3910
1995.956	3932
1998.041	3871
2000.123	3873
2002.206	3895
2004.287	3825
2006.368	3906
2008.449	3819
2010.529	3957
2012.609	3758
2014.688	3880
2016.766	3800
2018.843	3736
2020.922	3884
2022.999	3899
2025.074	3818
2027.15	3891
2029.225	3858
2031.299	3879
2033.375	3867
2035.447	3840
2037.52	3833
2039.592	3948
2041.664	3832
2043.736	3908
2045.807	3838
2047.876	3785
2049.947	3874
2052.015	3863
2054.086	3945
2056.153	3791
2058.221	3927
2060.288	3933
2062.353	3913
2064.42	3852
2066.486	3922
2068.55	3866
2070.614	4011
2072.678	3876
2074.741	3933
2076.805	3884
2078.866	3906
2080.929	3968
2082.99	3855
2085.049	3817
2087.109	3986
2089.17	3920
2091.228	3814
2093.286	3949
2095.344	3881
2097.4	3994
2099.46	3873
2101.516	3895
2103.572	3897
2105.626	3856
2107.679	3880
2109.735	3862
2111.788	3938
2113.841	3865
2115.894	3889
2117.945	3895
2119.997	3885
2122.049	3941
2124.1	3883
2126.148	3800
2128.197	3902
2130.246	3912
2132.296	3952
2134.342	3818
2136.39	3886
2138.437	3884
2140.483	3871
2142.527	3956
2144.574	3849
2146.619	3888
2148.661	3836
2150.705	3885
2152.747	3861
2154.792	3877
2156.832	3926
2158.874	3930
2160.915	3841
2162.954	3887
2164.995	3936
2167.034	3846
2169.072	3822
2171.111	3881
2173.148	3874
2175.186	3906
2177.223	3858
2179.258	3831
2181.294	3886
2183.328	3895
2185.362	3864
2187.398	3850
2189.431	3868
2191.463	3857
2193.495	3858
2195.528	3841
2197.56	3838
2199.59	3848
2201.62	3791
2203.649	3900
2205.678	3795
2207.708	3818
2209.737	3795
2211.764	3852
2213.791	3858
2215.817	3838
2217.843	3839
2219.87	3811
2221.895	3773
2223.919	3778
2225.942	3775
2227.966	3861
2229.988	3819
2232.012	3863
2234.032	3843
2236.054	3738
2238.074	3814
2240.095	3755
2242.116	3864
2244.135	3786
2246.153	3887
2248.171	3731
2250.188	3821
2252.208	3821
2254.223	3840
2256.239	3795
2258.255	3806
2260.269	3823
2262.283	3759
2264.3	3857
2266.312	3796
2268.325	3757
2270.336	3803
2272.349	3826
2274.362	3828
2276.372	3845
2278.383	3892
2280.392	3790
2282.402	3818
2284.409	3864
2286.418	3815
2288.427	3769
2290.433	3823
2292.441	3949
2294.446	3791
2296.453	3912
2298.459	3659
2300.463	3840
2302.466	3731
2304.471	3876
2306.475	3839
2308.477	3782
2310.478	3763
2312.481	3771
2314.481	3835
2316.481	3743
2318.482	3811
2320.482	3785
2322.48	3773
2324.48	3819
2326.478	3741
2328.476	3842
2330.473	3805
2332.469	3785
2334.465	3813
2336.46	3800
2338.454	3693
2340.45	3751
2342.444	3828
2344.437	3840
2346.43	3750
2348.421	3690
2350.414	3789
2352.405	3759
2354.396	3775
2356.386	3684
2358.376	3647
2360.366	3771
2362.355	3729
2364.343	3741
2366.331	3772
2368.317	3755
2370.304	3821
2372.292	3761
2374.278	3727
2376.262	3768
2378.247	3833
2380.23	3736
2382.216	3833
2384.199	3754
2386.181	3687
2388.163	3780
2390.144	3791
2392.127	3720
2394.107	3740
2396.087	3737
2398.066	3644
2400.046	3729
2402.023	3727
2404.004	3705
2405.981	3736
2407.957	3710
2409.934	3735
2411.91	3777
2413.886	3650
2415.862	3758
2417.836	3704
2419.809	3717
2421.784	3766
2423.756	3776
2425.73	3706
2427.701	3712
2429.672	3693
2431.644	3754
2433.615	3713
2435.586	3660
2437.555	3689
2439.523	3692
2441.491	3744
2443.459	3694
2445.428	3760
2447.395	3701
2449.361	3690
2451.327	3653
2453.292	3695
2455.257	3716
2457.223	3740
2459.187	3697
2461.15	3648
2463.113	3621
2465.076	3732
2467.039	3721
2468.999	3687
2470.96	3625
2472.921	3694
2474.881	3689
2476.841	3711
2478.8	3708
2480.759	3663
2482.717	3634
2484.675	3708
2486.63	3645
2488.589	3700
2490.545	3590
2492.5	3658
2494.455	3683
2496.408	3619
2498.364	3664
2500.318	3645
2502.27	3647
2504.223	3617
2506.174	3740
2508.126	3628
2510.078	3670
2512.03	3734
2513.979	3721
2515.927	3681
2517.877	3695
2519.826	3686
2521.775	3656
2523.722	3629
2525.668	3684
2527.616	3654
2529.561	3619
2531.508	3648
2533.452	3614
2535.398	3664
2537.342	3626
2539.284	3673
2541.229	3670
2543.173	3616
2545.114	3658
2547.055	3692
2548.996	3618
2550.938	3642
2552.878	3627
2554.817	3652
2556.756	3658
2558.695	3613
2560.633	3637
2562.572	3656
2564.509	3630
2566.445	3576
2568.382	3662
2570.317	3651
2572.254	3663
2574.189	3674
2576.123	3632
2578.057	3743
2579.99	3681
2581.923	3706
2583.855	3628
2585.788	3684
2587.719	3707
2589.65	3665
2591.579	3703
2593.511	3741
2595.44	3622
2597.37	3706
2599.297	3598
2601.225	3625
2603.153	3635
2605.08	3668
2607.007	3721
2608.932	3676
2610.858	3686
2612.782	3645
2614.709	3709
2616.632	3590
2618.556	3709
2620.478	3602
2622.401	3761
2624.324	3601
2626.247	3680
2628.167	3694
2630.088	3673
2632.008	3691
2633.928	3651
2635.848	3703
2637.766	3662
2639.684	3629
2641.603	3718
2643.519	3619
2645.437	3724
2647.353	3656
2649.27	3563
2651.184	3604
2653.099	3664
2655.014	3702
2656.928	3729
2658.842	3664
2660.755	3573
2662.667	3688
2664.579	3629
2666.491	3708
2668.402	3660
2670.312	3693
2672.222	3654
2674.132	3665
2676.042	3689
2677.951	3668
2679.859	3621
2681.766	3676
2683.674	3599
2685.582	3649
2687.488	3674
2689.392	3716
2691.298	3683
2693.202	3652
2695.107	3684
2697.012	3635
2698.914	3595
2700.817	3615
2702.72	3699
2704.622	3613
2706.524	3629
2708.425	3553
2710.326	3620
2712.225	3589
2714.125	3529
2716.024	3652
2717.923	3617
2719.822	3613
2721.719	3627
2723.616	3622
2725.512	3669
2727.41	3609
2729.305	3658
2731.201	3582
2733.095	3625
2734.99	3581
2736.884	3614
2738.778	3563
2740.67	3676
2742.562	3645
2744.455	3618
2746.346	3626
2748.238	3656
2750.129	3672
2752.018	3629
2753.907	3617
2755.797	3601
2757.687	3654
2759.575	3609
2761.462	3638
2763.349	3571
2765.237	3553
2767.124	3637
2769.009	3589
2770.894	3588
2772.779	3650
2774.663	3579
2776.547	3656
2778.431	3573
2780.314	3605
2782.197	3623
2784.078	3671
2785.96	3587
2787.842	3580
2789.723	3559
2791.603	3657
2793.483	3586
2795.362	3561
2797.241	3565
2799.121	3618
2800.997	3578
2802.874	3577
2804.751	3592
2806.628	3620
2808.506	3639
2810.38	3563
2812.255	3532
2814.13	3511
2816.003	3557
2817.878	3539
2819.752	3569
2821.623	3658
2823.496	3564
2825.368	3658
2827.238	3626
2829.111	3671
2830.98	3621
2832.851	3661
2834.719	3568
2836.589	3590
2838.458	3648
2840.327	3508
2842.193	3620
2844.061	3652
2845.927	3627
2847.794	3634
2849.66	3639
2851.525	3711
2853.39	3646
2855.254	3600
2857.117	3686
2858.983	3696
2860.845	3687
2862.707	3688
2864.569	3630
2866.431	3747
2868.293	3803
2870.154	3767
2872.013	3869
2873.873	3770
2875.733	3887
2877.592	3906
2879.451	3924
2881.309	3949
2883.166	3969
2885.022	3951
2886.879	4007
2888.736	3913
2890.591	4015
2892.446	3979
2894.301	4138
2896.155	4081
2898.009	4062
2899.863	4041
2901.716	4000
2903.568	3944
2905.419	3999
2907.27	3998
2909.123	4030
2910.973	4025
2912.824	4031
2914.673	4028
2916.521	4047
2918.372	4107
2920.22	4148
2922.067	4181
2923.914	4200
2925.761	4217
2927.607	4352
2929.455	4316
2931.301	4276
2933.144	4310
2934.99	4443
2936.833	4344
2938.678	4415
2940.522	4509
2942.364	4575
2944.207	4422
2946.048	4560
2947.891	4582
2949.731	4554
2951.571	4568
2953.412	4572
2955.25	4454
2957.09	4534
2958.93	4470
2960.767	4539
2962.606	4465
2964.443	4481
2966.279	4454
2968.116	4309
2969.953	4335
2971.788	4236
2973.623	4181
2975.457	4098
2977.292	4187
2979.127	4131
2980.959	4144
2982.792	4056
2984.624	4063
2986.455	4040
2988.288	3978
2990.119	4011
2991.949	3845
2993.779	3931
2995.608	3884
2997.439	3898
2999.268	3794
3001.096	3805
3002.923	3793
3004.751	3755
3006.578	3661
3008.406	3765
3010.232	3677
3012.057	3596
3013.883	3678
3015.706	3596
3017.532	3644
3019.356	3543
3021.179	3557
3023.002	3519
3024.823	3556
3026.646	3484
3028.469	3467
3030.289	3495
3032.11	3477
3033.93	3408
3035.749	3560
3037.57	3505
3039.39	3506
3041.207	3457
3043.026	3409
3044.842	3467
3046.661	3524
3048.477	3461
3050.294	3408
3052.109	3436
3053.925	3470
3055.739	3439
3057.555	3460
3059.368	3364
3061.181	3479
3062.995	3486
3064.807	3414
3066.62	3460
3068.433	3465
3070.243	3469
3072.054	3357
3073.865	3406
3075.675	3443
3077.485	3451
3079.293	3404
3081.102	3477
3082.911	3386
3084.719	3391
3086.527	3427
3088.333	3408
3090.139	3435
3091.945	3416
3093.75	3345
3095.557	3344
3097.361	3323
3099.165	3290
3100.969	3435
3102.772	3324
3104.575	3345
3106.379	3388
3108.181	3364
3109.982	3406
3111.783	3317
3113.584	3320
3115.386	3327
3117.186	3429
3118.985	3333
3120.783	3324
3122.582	3344
3124.381	3263
3126.179	3267
3127.975	3306
3129.772	3276
3131.569	3313
3133.365	3308
3135.161	3306
3136.956	3297
3138.751	3340
3140.544	3273
3142.338	3281
3144.132	3288
3145.925	3262
3147.717	3306
3149.509	3252
3151.301	3275
3153.091	3236
3154.884	3268
3156.673	3292
3158.462	3292
3160.252	3285
3162.041	3242
3163.831	3261
3165.618	3274
3167.405	3219
3169.193	3279
3170.979	3211
3172.767	3245
3174.553	3238
3176.338	3279
3178.123	3272
3179.907	3211
3181.692	3261
3183.477	3254
3185.259	3239
3187.042	3318
3188.824	3304
3190.607	3277
3192.389	3279
3194.17	3285
3195.951	3322
3197.73	3236
3199.51	3208
3201.289	3233
3203.07	3215
3204.848	3267
3206.626	3258
3208.403	3343
3210.18	3310
3211.959	3295
3213.735	3235
3215.511	3251
3217.285	3182
3219.06	3194
3220.836	3262
3222.611	3229
3224.384	3224
3226.158	3228
3227.929	3259
3229.702	3231
3231.476	3223
3233.248	3280
3235.018	3305
3236.789	3310
3238.56	3220
3240.33	3261
3242.1	3258
3243.869	3183
3245.637	3258
3247.405	3272
3249.172	3310
3250.941	3328
3252.707	3182
3254.474	3268
3256.24	3282
3258.006	3250
3259.772	3236
3261.537	3303
3263.301	3259
3265.065	3233
3266.828	3290
3268.592	3184
3270.355	3244
3272.117	3219
3273.878	3193
3275.64	3280
3277.401	3308
3279.162	3239
3280.922	3258
3282.682	3197
3284.441	3264
3286.199	3268
3287.959	3334
3289.716	3196
3291.475	3227
3293.232	3295
3294.988	3169
3296.744	3242
3298.501	3262
3300.256	3377
3302.011	3252
3303.766	3217
3305.52	3301
3307.275	3347
3309.028	3261
3310.781	3228
3312.533	3324
3314.285	3134
3316.038	3223
3317.789	3278
3319.54	3247
3321.289	3283
3323.039	3238
3324.789	3281
3326.539	3175
3328.288	3218
3330.035	3318
3331.783	3253
3333.531	3223
3335.28	3247
3337.025	3198
3338.771	3205
3340.518	3286
3342.262	3227
3344.009	3234
3345.753	3257
3347.497	3252
3349.24	3234
3350.983	3208
3352.726	3147
3354.469	3192
3356.212	3253
3357.952	3184
3359.694	3241
3361.434	3210
3363.176	3220
3364.916	3249
3366.654	3068
3368.394	3193
3370.132	3199
3371.871	3148
3373.61	3254
3375.346	3198
3377.083	3165
3378.82	3166
3380.556	3196
3382.292	3139
3384.027	3156
3385.763	3147
3387.497	3223
3389.231	3175
3390.965	3185
3392.698	3151
3394.431	3122
3396.164	3105
3397.896	3126
3399.627	3188
3401.36	3115
3403.09	3145
3404.82	3099
3406.55	3183
3408.279	3160
3410.01	3211
3411.738	3085
3413.467	3148
3415.194	3191
3416.92	3181
3418.647	3154
3420.375	3174
3422.102	3104
3423.827	3109
3425.553	3054
3427.277	3059
3429.003	3113
3430.727	3059
3432.451	3103
3434.173	3090
3435.896	3044
3437.62	2993
3439.343	3051
3441.063	3097
3442.785	3033
3444.505	3101
3446.226	3103
3447.948	3082
3449.666	3094
3451.386	3009
3453.104	3065
3454.823	3078
3456.541	3029
3458.259	3096
3459.976	3003
3461.693	3071
3463.408	3000
3465.125	2995
3466.841	2962
3468.556	2986
3470.271	3024
3471.985	2949
3473.698	3046
3475.414	2915
3477.126	2971
3478.838	3042
3480.55	2999
3482.263	2990
3483.975	2923
3485.686	3024
3487.396	2969
3489.106	3031
3490.817	2979
3492.526	3000
3494.236	3028
3495.944	2995
3497.652	2971
3499.359	2965
3501.066	2950
3502.775	2888
3504.481	2852
3506.187	2822
3507.893	2979
3509.598	2924
3511.304	2935
3513.009	2932
3514.713	2918
3516.417	2919
3518.12	2952
3519.821	2923
3521.525	2913
3523.228	2894
3524.929	2933
3526.631	2886
3528.33	2826
3530.032	2931
3531.733	2902
3533.433	2877
3535.131	2896
3536.83	2823
3538.529	2847
3540.227	2847
3541.925	2852
3543.623	2827
3545.319	2830
3547.016	2923
3548.712	2841
3550.408	2822
3552.103	2819
3553.798	2831
3555.491	2819
3557.188	2817
3558.88	2855
3560.574	2801
3562.266	2834
3563.959	2853
3565.651	2787
3567.343	2791
3569.035	2841
3570.725	2785
3572.415	2806
3574.106	2766
3575.797	2787
3577.485	2832
3579.174	2797
3580.863	2770
3582.551	2800
3584.238	2776
3585.926	2714
3587.613	2766
3589.3	2868
3590.986	2790
3592.671	2783
3594.357	2794
3596.042	2779
3597.726	2770
3599.41	2738
3601.094	2743
3602.778	2778
3604.461	2685
3606.143	2796
3607.825	2793
3609.507	2746
3611.188	2704
3612.87	2765
3614.551	2723
3616.229	2685
3617.909	2726
3619.589	2674
3621.269	2723
3622.948	2722
3624.625	2666
3626.302	2698
3627.98	2682
3629.657	2674
3631.334	2712
3633.01	2640
3634.686	2660
3636.361	2699
3638.036	2666
3639.712	2651
3641.385	2664
3643.06	2687
3644.732	2607
3646.405	2684
3648.08	2610
3649.751	2581
3651.424	2641
3653.094	2619
3654.766	2654
3656.436	2631
3658.106	2621
3659.777	2672
3661.446	2645
3663.115	2602
3664.783	2609
3666.452	2623
3668.121	2599
3669.788	2624
3671.454	2607
3673.121	2564
3674.789	2616
3676.455	2564
3678.12	2619
3679.784	2568
3681.45	2527
3683.114	2683
3684.779	2638
3686.442	2577
3688.105	2611
3689.768	2564
3691.43	2586
3693.093	2501
3694.754	2570
3696.415	2584
3698.076	2587
3699.736	2507
3701.396	2573
3703.057	2604
3704.716	2594
3706.375	2596
3708.034	2606
3709.692	2536
3711.351	2629
3713.008	2533
3714.665	2621
3716.321	2631
3717.977	2529
3719.634	2534
3721.29	2576
3722.945	2558
3724.598	2531
3726.253	2538
3727.907	2521
3729.561	2532
3731.214	2550
3732.867	2542
3734.518	2543
3736.171	2557
3737.824	2532
3739.474	2513
3741.125	2537
3742.775	2540
3744.425	2521
3746.074	2511
3747.725	2501
3749.373	2527
3751.022	2508
3752.669	2563
3754.318	2540
3755.966	2574
3757.612	2461
3759.259	2516
3760.905	2575
3762.55	2519
3764.197	2483
3765.842	2517
3767.486	2562
3769.131	2466
3770.774	2437
3772.417	2556
3774.061	2442
3775.705	2453
3777.347	2493
3778.988	2452
3780.629	2397
3782.271	2496
3783.912	2474
3785.552	2508
3787.192	2477
3788.831	2506
3790.472	2430
3792.112	2468
3793.75	2469
3795.388	2431
3797.024	2468
3798.661	2414
3800.3	2478
3801.936	2442
3803.572	2489
3805.208	2422
3806.844	2411
3808.48	2459
3810.115	2388
3811.748	2447
3813.382	2418
3815.016	2456
3816.649	2437
3818.283	2440
3819.914	2415
3821.547	2393
3823.178	2445
3824.809	2449
3826.441	2458
3828.072	2443
3829.701	2383
3831.331	2411
3832.96	2407
3834.591	2415
3836.219	2404
3837.847	2408
3839.475	2390
3841.102	2422
3842.729	2436
3844.357	2349
3845.984	2348
3847.609	2375
3849.234	2379
3850.86	2316
3852.485	2397
3854.11	2364
3855.734	2367
3857.357	2402
3858.981	2357
3860.603	2433
3862.227	2383
3863.848	2341
3865.471	2346
3867.092	2335
3868.713	2337
3870.334	2345
3871.954	2346
3873.575	2394
3875.194	2354
3876.813	2382
3878.433	2387
3880.051	2318
3881.669	2398
3883.286	2422
3884.904	2380
3886.52	2387
3888.138	2357
3889.754	2350
3891.37	2356
3892.985	2284
3894.6	2324
3896.216	2266
3897.831	2304
3899.444	2315
3901.058	2397
3902.67	2340
3904.283	2433
3905.897	2355
3907.509	2304
3909.121	2307
3910.731	2343
3912.342	2341
3913.954	2367
3915.563	2377
3917.174	2318
3918.783	2323
3920.391	2275
3922.002	2306
3923.611	2269
3925.218	2299
3926.826	2309
3928.432	2336
3930.039	2282
3931.647	2378
3933.253	2228
3934.859	2299
3936.464	2289
3938.068	2303
3939.675	2290
3941.278	2281
3942.883	2299
3944.486	2298
3946.089	2316
3947.692	2362
3949.295	2215
3950.898	2322
3952.499	2266
3954.1	2305
3955.7	2239
3957.303	2194
3958.903	2243
3960.502	2281
3962.101	2264
3963.7	2328
3965.301	2256
3966.899	2252
3968.497	2278
3970.094	2251
3971.691	2206
3973.288	2270
3974.885	2227
3976.481	2215
3978.077	2225
3979.672	2209
3981.267	2259
3982.863	2218
3984.457	2249
3986.051	2169
3987.645	2327
3989.238	2239
3990.831	2214
3992.425	2272
3994.017	2172
3995.607	2199
3997.199	2200
3998.79	2201
4000.382	2248
4001.973	2178
4003.561	2180
4005.151	2190
4006.741	2208
4008.331	2229
4009.918	2186
4011.507	2252
4013.095	2208
4014.681	2195
4016.269	2116
4017.856	2170
4019.443	2169
4021.028	2180
4022.614	2208
4024.199	2179
4025.785	2176
4027.37	2149
4028.953	2189
4030.536	2176
4032.12	2170
4033.704	2174
4035.287	2229
4036.869	2166
4038.45	2194
4040.032	2163
4041.613	2169
4043.195	2130
4044.776	2158
4046.356	2126
4047.935	2158
4049.515	2146
4051.095	2188
4052.674	2100
4054.251	2123
4055.829	2148
4057.406	2132
4058.985	2122
4060.562	2150
4062.139	2122
4063.715	2164
4065.29	2130
4066.865	2174
4068.442	2112
4070.016	2129
4071.59	2117
4073.164	2135
4074.738	2153
4076.312	2088
4077.885	2143
4079.458	2081
4081.03	2075
4082.602	2083
4084.173	2098
4085.745	2089
4087.315	2157
4088.886	2131
4090.456	2130
4092.026	2112
4093.596	2106
4095.165	2091
4096.734	2117
4098.301	2121
4099.869	2092
4101.437	2070
4103.006	2113
4104.572	2012
4106.139	2108
4107.704	2068
4109.27	2034
4110.837	2062
4112.401	2064
4113.966	2120
4115.53	2045
4117.094	2118
4118.659	2081
4120.223	2068
4121.785	1983
4123.347	2057
4124.909	2056
4126.471	2081
4128.034	2064
4129.595	2075
4131.155	2038
4132.716	2099
4134.275	2081
4135.836	2043
4137.395	2048
4138.955	2072
4140.513	2036
4142.071	2023
4143.628	2035
4145.188	2000
4146.745	2010
4148.302	1986
4149.858	2053
4151.414	2052
4152.971	2036
4154.526	1999
4156.081	1996
4157.635	1985
4159.189	1995
4160.745	2027
4162.298	1970
4163.852	2017
4165.405	2004
4166.957	1994
4168.51	1984
4170.063	2037
4171.614	2056
4173.166	1962
4174.717	2008
4176.267	1989
4177.817	1947
4179.368	1964
4180.917	1979
4182.466	1987
4184.016	2047
4185.564	1930
4187.112	1970
4188.66	1996
4190.207	2046
4191.754	1961
4193.301	1943
4194.848	1963
4196.394	1909
4197.94	1930
4199.484	1991
4201.03	1974
4202.575	1948
4204.12	1982
4205.663	2003
4207.207	1909
4208.75	1967
4210.292	1979
4211.836	1946
4213.378	1912
4214.92	1939
4216.46	1933
4218.002	1969
4219.544	1930
4221.083	1961
4222.625	1883
4224.164	1876
4225.703	1954
4227.244	1903
4228.782	1956
4230.32	1955
4231.857	1889
4233.395	1943
4234.933	1946
4236.471	1940
4238.007	1952
4239.542	1920
4241.078	1886
4242.614	1925
4244.15	1901
4245.685	1920
4247.219	1944
4248.753	1876
4250.287	1942
4251.82	1923
4253.354	1909
4254.887	1871
4256.419	1983
4257.951	1948
4259.483	1909
4261.016	1916
4262.547	1913
4264.078	1936
4265.608	1908
4267.137	1921
4268.668	1881
4270.197	1984
4271.727	1890
4273.254	1932
4274.783	1874
4276.311	1924
4277.84	1896
4279.366	1925
4280.894	1929
4282.42	1878
4283.946	1890
4285.473	1883
4286.998	1956
4288.523	1854
4290.047	1911
4291.572	1873
4293.096	1866
4294.622	1875
4296.144	1935
4297.668	1874
4299.19	1826
4300.713	1895
4302.236	1849
4303.758	1891
4305.279	1807
4306.799	1846
4308.321	1883
4309.842	1874
4311.361	1798
4312.882	1894
4314.401	1823
