400.0961	2512
402.6185	2547
405.1424	2466
407.6635	2501
410.1838	2551
412.7035	2535
415.2225	2619
417.7388	2599
420.2585	2662
422.7754	2678
425.2917	2702
427.8072	2689
430.3221	2701
432.8363	2816
435.3498	2733
437.8626	2744
440.3727	2777
442.8841	2656
445.3969	2766
447.907	2708
450.4142	2729
452.9229	2651
455.4289	2711
457.9362	2628
460.4449	2555
462.9488	2672
465.454	2684
467.9566	2572
470.4604	2693
472.9637	2637
475.4662	2670
477.966	2633
480.4671	2642
482.9656	2600
485.4633	2681
487.9645	2630
490.4608	2661
492.9566	2614
495.4536	2708
497.948	2698
500.4437	2681
502.9387	2674
505.431	2662
507.9226	2710
510.4136	2726
512.9079	2666
515.3975	2647
517.8864	2669
520.3746	2699
522.8622	2726
525.3491	2763
527.8394	2721
530.3249	2769
532.8098	2759
535.2939	2691
537.7774	2725
540.2623	2675
542.7444	2733
545.2259	2796
547.7067	2807
550.1868	2701
552.6683	2713
555.147	2785
557.6231	2736
560.1005	2749
562.5773	2767
565.0534	2775
567.5308	2772
570.0056	2782
572.4776	2819
574.951	2827
577.4237	2805
579.8978	2913
582.3671	2843
584.8378	2905
587.3079	2834
589.7773	2939
592.244	2901
594.714	2912
597.1793	2922
599.6461	2864
602.1121	2772
604.5754	2834
607.0421	2821
609.5042	2797
611.9675	2845
614.4282	2838
616.8902	2918
619.3515	2776
621.8122	2798
624.2702	2877
626.7296	2826
629.1863	2836
631.6423	2803
634.1017	2785
636.5563	2728
639.0104	2840
641.4658	2799
643.9185	2792
646.3725	2863
648.8239	2752
651.2766	2808
653.7266	2776
656.176	2802
658.6247	2836
661.0748	2838
663.5242	2807
665.9709	2865
668.417	2803
670.8624	2806
673.3092	2829
675.7533	2878
678.1968	2907
680.6395	2793
683.0817	2833
685.5251	2873
687.9659	2854
690.4061	2844
692.8456	2856
695.2844	2935
697.7226	2884
700.1621	2904
702.599	2824
705.0332	2934
707.4688	2949
709.9036	2900
712.3399	2964
714.7735	2893
717.2044	2925
719.6367	2975
722.0683	2912
724.4993	2954
726.9296	2997
729.3593	2981
731.7883	2977
734.2147	2936
736.6423	3007
739.0714	3003
741.4958	3005
743.9216	2982
746.3447	2988
748.7691	2939
751.1929	3072
753.616	2962
756.0366	2971
758.4584	3055
760.8776	2979
763.2982	3129
765.718	3067
768.1373	2996
770.5539	3019
772.9698	3140
775.3871	3149
777.8038	3037
780.2178	3080
782.6332	3064
785.0459	3042
787.458	3153
789.8714	3084
792.2842	3079
794.6943	3097
797.1038	2984
799.5127	3091
801.9209	3082
804.3324	3185
806.7393	3085
809.1456	3084
811.5513	3105
813.9562	3134
816.3625	3180
818.7663	3042
821.1693	3146
823.5718	3110
825.9735	3171
828.3746	3114
830.7771	3061
833.177	3213
835.5762	3099
837.9747	3145
840.3727	3142
842.772	3152
845.1666	3243
847.5626	3154
849.958	3213
852.3527	3263
854.7488	3217
857.1403	3216
859.5331	3296
861.9253	3222
864.3168	3197
866.7057	3187
869.098	3271
871.4876	3203
873.8746	3223
876.263	3212
878.6487	3255
881.0378	3201
883.4243	3272
885.8081	3164
888.1933	3265
890.5759	3187
892.9598	3169
895.343	3184
897.7256	3149
900.1057	3231
902.4871	3206
904.8659	3240
907.246	3259
909.6254	3259
912.0023	3278
914.3786	3309
916.7562	3344
919.1331	3404
921.5074	3401
923.8831	3479
926.2562	3418
928.6287	3412
931.0005	3331
933.3757	3498
935.7462	3491
938.1162	3445
940.4855	3528
942.8542	3615
945.2242	3608
947.5916	3737
949.9584	3823
952.3266	4056
954.6921	4246
957.0571	4479
959.4233	4651
961.787	4749
964.15	4730
966.5125	4525
968.8742	4280
971.2354	4025
973.5959	3783
975.9559	3696
978.3151	3626
980.6738	3433
983.0338	3435
985.3912	3326
987.7461	3437
990.1022	3342
992.4578	3401
994.8127	3326
997.1689	3299
999.5207	3348
1001.874	3375
1004.226	3472
1006.576	3346
1008.929	3383
1011.28	3332
1013.628	3378
1015.977	3377
1018.324	3377
1020.674	3369
1023.019	3374
1025.366	3412
1027.713	3448
1030.056	3405
1032.399	3412
1034.746	3371
1037.087	3458
1039.431	3417
1041.771	3417
1044.113	3458
1046.454	3446
1048.793	3388
1051.133	3521
1053.471	3433
1055.807	3442
1058.146	3455
1060.483	3477
1062.818	3450
1065.153	3518
1067.489	3582
1069.822	3566
1072.156	3508
1074.488	3497
1076.82	3563
1079.15	3535
1081.48	3433
1083.814	3499
1086.143	3406
1088.471	3393
1090.799	3411
1093.126	3420
1095.452	3413
1097.78	3432
1100.105	3386
1102.43	3389
1104.754	3407
1107.077	3434
1109.4	3336
1111.722	3446
1114.044	3365
1116.365	3409
1118.685	3359
1121.005	3400
1123.324	3301
1125.643	3418
1127.961	3409
1130.278	3390
1132.595	3402
1134.911	3424
1137.226	3393
1139.541	3420
1141.854	3412
1144.167	3304
1146.482	3401
1148.793	3348
1151.105	3432
1153.414	3293
1155.725	3368
1158.033	3415
1160.344	3400
1162.651	3440
1164.959	3367
1167.265	3432
1169.572	3406
1171.878	3388
1174.184	3399
1176.488	3414
1178.79	3417
1181.094	3406
1183.396	3488
1185.699	3403
1188.001	3377
1190.301	3408
1192.6	3331
1194.9	3383
1197.2	3402
1199.497	3385
1201.794	3484
1204.09	3391
1206.387	3428
1208.684	3399
1210.978	3401
1213.272	3407
1215.565	3420
1217.858	3384
1220.15	3438
1222.443	3428
1224.734	3406
1227.024	3492
1229.313	3509
1231.602	3458
1233.892	3527
1236.18	3533
1238.467	3438
1240.754	3610
1243.04	3597
1245.325	3623
1247.612	3627
1249.896	3580
1252.178	3620
1254.461	3675
1256.743	3574
1259.027	3522
1261.308	3601
1263.587	3599
1265.867	3589
1268.146	3592
1270.425	3657
1272.703	3597
1274.981	3612
1277.256	3587
1279.532	3642
1281.808	3502
1284.083	3584
1286.358	3543
1288.63	3582
1290.904	3491
1293.175	3434
1295.449	3541
1297.719	3540
1299.99	3488
1302.259	3524
1304.529	3466
1306.798	3606
1309.065	3505
1311.333	3610
1313.599	3489
1315.866	3542
1318.131	3530
1320.396	3535
1322.66	3521
1324.925	3559
1327.187	3572
1329.448	3568
1331.711	3597
1333.974	3532
1336.234	3492
1338.493	3503
1340.752	3521
1343.01	3518
1345.269	3448
1347.526	3512
1349.784	3557
1352.04	3493
1354.295	3461
1356.552	3531
1358.806	3449
1361.059	3534
1363.312	3604
1365.564	3537
1367.818	3578
1370.069	3586
1372.318	3568
1374.568	3566
1376.817	3604
1379.066	3556
1381.316	3553
1383.564	3467
1385.809	3574
1388.056	3614
1390.301	3649
1392.549	3633
1394.793	3609
1397.036	3684
1399.279	3580
1401.522	3711
1403.763	3703
1406.007	3659
1408.248	3700
1410.487	3673
1412.727	3696
1414.965	3623
1417.205	3626
1419.442	3702
1421.68	3674
1423.915	3613
1426.152	3617
1428.388	3716
1430.623	3595
1432.857	3713
1435.091	3670
1437.323	3679
1439.556	3771
1441.789	3724
1444.019	3730
1446.25	3699
1448.48	3768
1450.708	3746
1452.938	3691
1455.167	3788
1457.394	3714
1459.62	3790
1461.846	3721
1464.073	3775
1466.299	3724
1468.523	3721
1470.746	3724
1472.969	3718
1475.191	3610
1477.415	3663
1479.636	3580
1481.858	3631
1484.078	3545
1486.298	3634
1488.518	3506
1490.736	3572
1492.954	3493
1495.169	3459
1497.386	3554
1499.602	3533
1501.819	3487
1504.034	3507
1506.248	3571
1508.462	3462
1510.675	3525
1512.888	3454
1515.1	3625
1517.311	3516
1519.522	3529
1521.732	3584
1523.942	3501
1526.151	3569
1528.36	3522
1530.566	3598
1532.773	3466
1534.98	3488
1537.187	3542
1539.392	3571
1541.596	3507
1543.801	3564
1546.005	3550
1548.208	3517
1550.411	3596
1552.612	3519
1554.814	3569
1557.013	3633
1559.212	3570
1561.414	3496
1563.612	3549
1565.811	3614
1568.007	3646
1570.203	3531
1572.403	3611
1574.598	3580
1576.792	3660
1578.988	3643
1581.181	3567
1583.376	3613
1585.568	3588
1587.761	3598
1589.952	3647
1592.143	3665
1594.333	3663
1596.524	3683
1598.715	3752
1600.903	3712
1603.091	3571
1605.278	3653
1607.466	3756
1609.652	3617
1611.838	3673
1614.023	3713
1616.207	3641
1618.391	3688
1620.576	3672
1622.759	3670
1624.941	3720
1627.123	3645
1629.304	3722
1631.484	3813
1633.664	3787
1635.844	3805
1638.022	3739
1640.201	3687
1642.38	3687
1644.556	3693
1646.732	3693
1648.908	3659
1651.084	3731
1653.257	3796
1655.433	3751
1657.607	3720
1659.779	3775
1661.951	3773
1664.122	3757
1666.295	3782
1668.467	3872
1670.635	3864
1672.805	3750
1674.973	3842
1677.142	3805
1679.31	3734
1681.478	3838
1683.644	3770
1685.81	3763
1687.975	3716
1690.142	3702
1692.305	3766
1694.468	3760
1696.632	3750
1698.794	3690
1700.957	3714
1703.119	3762
1705.279	3715
1707.439	3648
1709.598	3626
1711.758	3586
1713.917	3682
1716.075	3624
1718.231	3652
1720.388	3646
1722.543	3602
1724.702	3701
1726.856	3624
1729.01	3578
1731.164	3601
1733.317	3628
1735.471	3659
1737.623	3631
1739.774	3719
1741.925	3623
1744.075	3702
1746.225	3657
1748.376	3651
1750.524	3723
1752.672	3624
1754.82	3688
1756.965	3592
1759.113	3602
1761.259	3640
1763.405	3597
1765.549	3686
1767.694	3616
1769.836	3668
1771.981	3772
1774.123	3695
1776.264	3680
1778.405	3653
1780.546	3703
1782.687	3725
1784.827	3658
1786.966	3568
1789.103	3677
1791.242	3663
1793.381	3657
1795.517	3653
1797.653	3653
1799.788	3624
1801.923	3732
1804.057	3741
1806.193	3651
1808.326	3680
1810.457	3671
1812.59	3705
1814.721	3728
1816.855	3675
1818.984	3674
1821.113	3692
1823.244	3597
1825.372	3734
1827.499	3632
1829.63	3703
1831.756	3603
1833.882	3692
1836.007	3703
1838.132	3690
1840.26	3708
1842.384	3677
1844.507	3651
1846.63	3670
1848.752	3651
1850.875	3638
1852.996	3729
1855.118	3680
1857.238	3622
1859.358	3668
1861.477	3708
1863.597	3728
1865.715	3611
1867.832	3741
1869.948	3604
1872.064	3578
1874.181	3613
1876.297	3665
1878.411	3577
1880.526	3647
1882.639	3684
1884.752	3696
1886.865	3608
1888.977	3620
1891.089	3678
1893.2	3721
1895.308	3677
1897.42	3673
1899.53	3647
1901.639	3729
1903.745	3705
1905.853	3760
1907.962	3675
1910.067	3725
1912.174	3612
1914.278	3692
1916.383	3776
1918.486	3640
1920.592	3691
1922.694	3743
1924.797	3671
1926.898	3708
1929	3757
1931.102	3705
1933.203	3728
1935.301	3726
1937.401	3708
1939.499	3768
1941.598	3750
1943.697	3744
1945.793	3724
1947.888	3755
1949.985	3685
1952.08	3764
1954.176	3750
1956.269	3710
1958.364	3718
1960.457	3636
1962.549	3664
1964.642	3741
1966.733	3773
1968.823	3725
1970.913	3709
1973.005	3644
1975.093	3708
1977.184	3697
1979.271	3687
1981.359	3672
1983.446	3726
1985.532	3688
1987.619	3781
1989.705	3616
1991.789	3707
1993.874	3689
1995.956	3713
1998.041	3664
2000.123	3640
2002.206	3736
2004.287	3725
2006.368	3627
2008.449	3744
2010.529	3608
2012.609	3740
2014.688	3716
2016.766	3640
2018.843	3666
2020.922	3605
2022.999	3752
2025.074	3656
2027.15	3732
2029.225	3646
2031.299	3628
2033.375	3684
2035.447	3727
2037.52	3683
2039.592	3622
2041.664	3747
2043.736	3632
2045.807	3673
2047.876	3578
2049.947	3681
2052.015	3656
2054.086	3682
2056.153	3687
2058.221	3734
2060.288	3697
2062.353	3673
2064.42	3689
2066.486	3721
2068.55	3727
2070.614	3715
2072.678	3724
2074.741	3607
2076.805	3689
2078.866	3748
2080.929	3675
2082.99	3765
2085.049	3623
2087.109	3743
2089.17	3699
2091.228	3631
2093.286	3631
2095.344	3723
2097.4	3699
2099.46	3653
2101.516	3806
2103.572	3718
2105.626	3772
2107.679	3699
2109.735	3707
2111.788	3681
2113.841	3650
2115.894	3638
2117.945	3693
2119.997	3743
2122.049	3782
2124.1	3632
2126.148	3631
2128.197	3700
2130.246	3728
2132.296	3585
2134.342	3685
2136.39	3666
2138.437	3737
2140.483	3755
2142.527	3685
2144.574	3713
2146.619	3669
2148.661	3764
2150.705	3761
2152.747	3611
2154.792	3645
2156.832	3740
2158.874	3717
2160.915	3621
2162.954	3702
2164.995	3635
2167.034	3607
2169.072	3575
2171.111	3689
2173.148	3632
2175.186	3715
2177.223	3600
2179.258	3732
2181.294	3761
2183.328	3727
2185.362	3585
2187.398	3611
2189.431	3607
2191.463	3561
2193.495	3709
2195.528	3643
2197.56	3663
2199.59	3583
2201.62	3632
2203.649	3611
2205.678	3597
2207.708	3586
2209.737	3739
2211.764	3607
2213.791	3650
2215.817	3633
2217.843	3609
2219.87	3635
2221.895	3609
2223.919	3618
2225.942	3640
2227.966	3646
2229.988	3651
2232.012	3581
2234.032	3667
2236.054	3644
2238.074	3637
2240.095	3588
2242.116	3541
2244.135	3622
2246.153	3594
2248.171	3631
2250.188	3666
2252.208	3612
2254.223	3586
2256.239	3620
2258.255	3585
2260.269	3574
2262.283	3592
2264.3	3568
2266.312	3658
2268.325	3629
2270.336	3601
2272.349	3599
2274.362	3550
2276.372	3622
2278.383	3640
2280.392	3643
2282.402	3658
2284.409	3648
2286.418	3613
2288.427	3665
2290.433	3591
2292.441	3573
2294.446	3563
2296.453	3686
2298.459	3623
2300.463	3659
2302.466	3660
2304.471	3609
2306.475	3697
2308.477	3554
2310.478	3597
2312.481	3664
2314.481	3610
2316.481	3591
2318.482	3608
2320.482	3641
2322.48	3636
2324.48	3645
2326.478	3563
2328.476	3650
2330.473	3558
2332.469	3550
2334.465	3630
2336.46	3515
2338.454	3545
2340.45	3551
2342.444	3618
2344.437	3661
2346.43	3575
2348.421	3587
2350.414	3547
2352.405	3610
2354.396	3559
2356.386	3565
2358.376	3576
2360.366	3607
2362.355	3561
2364.343	3554
2366.331	3531
2368.317	3518
2370.304	3531
2372.292	3503
2374.278	3588
2376.262	3588
2378.247	3618
2380.23	3616
2382.216	3508
2384.199	3517
2386.181	3547
2388.163	3482
2390.144	3524
2392.127	3549
2394.107	3547
2396.087	3605
2398.066	3611
2400.046	3530
2402.023	3544
2404.004	3469
2405.981	3500
2407.957	3544
2409.934	3538
2411.91	3491
2413.886	3477
2415.862	3429
2417.836	3438
2419.809	3392
2421.784	3456
2423.756	3535
2425.73	3517
2427.701	3450
2429.672	3529
2431.644	3504
2433.615	3608
2435.586	3614
2437.555	3532
2439.523	3495
2441.491	3474
2443.459	3580
2445.428	3583
2447.395	3528
2449.361	3500
2451.327	3518
2453.292	3546
2455.257	3472
2457.223	3485
2459.187	3485
2461.15	3587
2463.113	3498
2465.076	3510
2467.039	3485
2468.999	3474
2470.96	3438
2472.921	3479
2474.881	3558
2476.841	3418
2478.8	3468
2480.759	3491
2482.717	3523
2484.675	3410
2486.63	3466
2488.589	3465
2490.545	3460
2492.5	3420
2494.455	3405
2496.408	3402
2498.364	3526
2500.318	3483
2502.27	3514
2504.223	3424
2506.174	3458
2508.126	3408
2510.078	3511
2512.03	3440
2513.979	3467
2515.927	3504
2517.877	3363
2519.826	3372
2521.775	3458
2523.722	3428
2525.668	3466
2527.616	3483
2529.561	3407
2531.508	3464
2533.452	3457
2535.398	3532
2537.342	3552
2539.284	3440
2541.229	3455
2543.173	3427
2545.114	3445
2547.055	3486
2548.996	3454
2550.938	3459
2552.878	3444
2554.817	3444
2556.756	3564
2558.695	3387
2560.633	3368
2562.572	3398
2564.509	3470
2566.445	3445
2568.382	3430
2570.317	3437
2572.254	3556
2574.189	3468
2576.123	3446
2578.057	3459
2579.99	3460
2581.923	3479
2583.855	3393
2585.788	3438
2587.719	3382
2589.65	3406
2591.579	3435
2593.511	3480
2595.44	3472
2597.37	3378
2599.297	3476
2601.225	3468
2603.153	3416
2605.08	3526
2607.007	3375
2608.932	3475
2610.858	3381
2612.782	3508
2614.709	3438
2616.632	3435
2618.556	3481
2620.478	3472
2622.401	3513
2624.324	3449
2626.247	3404
2628.167	3477
2630.088	3389
2632.008	3485
2633.928	3485
2635.848	3517
2637.766	3397
2639.684	3421
2641.603	3450
2643.519	3498
2645.437	3522
2647.353	3529
2649.27	3494
2651.184	3500
2653.099	3431
2655.014	3426
2656.928	3497
2658.842	3512
2660.755	3463
2662.667	3471
2664.579	3426
2666.491	3482
2668.402	3447
2670.312	3473
2672.222	3408
2674.132	3515
2676.042	3434
2677.951	3420
2679.859	3412
2681.766	3560
2683.674	3417
2685.582	3423
2687.488	3364
2689.392	3460
2691.298	3449
2693.202	3482
2695.107	3453
2697.012	3397
2698.914	3433
2700.817	3475
2702.72	3446
2704.622	3392
2706.524	3523
2708.425	3422
2710.326	3375
2712.225	3510
2714.125	3418
2716.024	3498
2717.923	3395
2719.822	3353
2721.719	3420
2723.616	3462
2725.512	3449
2727.41	3369
2729.305	3395
2731.201	3455
2733.095	3509
2734.99	3509
2736.884	3416
2738.778	3463
2740.67	3439
2742.562	3464
2744.455	3458
2746.346	3466
2748.238	3447
2750.129	3467
2752.018	3496
2753.907	3377
2755.797	3424
2757.687	3419
2759.575	3346
2761.462	3340
2763.349	3432
2765.237	3410
2767.124	3464
2769.009	3414
2770.894	3396
2772.779	3504
2774.663	3388
2776.547	3528
2778.431	3385
2780.314	3310
2782.197	3412
2784.078	3379
2785.96	3414
2787.842	3426
2789.723	3379
2791.603	3392
2793.483	3399
2795.362	3390
2797.241	3397
2799.121	3412
2800.997	3345
2802.874	3383
2804.751	3465
2806.628	3382
2808.506	3395
2810.38	3391
2812.255	3341
2814.13	3392
2816.003	3352
2817.878	3397
2819.752	3419
2821.623	3421
2823.496	3394
2825.368	3431
2827.238	3305
2829.111	3440
2830.98	3385
2832.851	3431
2834.719	3414
2836.589	3367
2838.458	3474
2840.327	3428
2842.193	3424
2844.061	3410
2845.927	3408
2847.794	3408
2849.66	3559
2851.525	3520
2853.39	3514
2855.254	3534
2857.117	3440
2858.983	3380
2860.845	3462
2862.707	3523
2864.569	3567
2866.431	3526
2868.293	3665
2870.154	3546
2872.013	3723
2873.873	3695
2875.733	3693
2877.592	3843
2879.451	3693
2881.309	3763
2883.166	3749
2885.022	3889
2886.879	3889
2888.736	3908
2890.591	3897
2892.446	3899
2894.301	3905
2896.155	3936
2898.009	3954
2899.863	3851
2901.716	3790
2903.568	3726
2905.419	3841
2907.27	3795
2909.123	3943
2910.973	3837
2912.824	3899
2914.673	3949
2916.521	4047
2918.372	4051
2920.22	4108
2922.067	4130
2923.914	4158
2925.761	4256
2927.607	4327
2929.455	4304
2931.301	4341
2933.144	4410
2934.99	4440
2936.833	4360
2938.678	4423
2940.522	4472
2942.364	4512
2944.207	4571
2946.048	4621
2947.891	4695
2949.731	4635
2951.571	4658
2953.412	4625
2955.25	4579
2957.09	4533
2958.93	4565
2960.767	4395
2962.606	4311
2964.443	4322
2966.279	4385
2968.116	4251
2969.953	4279
2971.788	4137
2973.623	4181
2975.457	4086
2977.292	4129
2979.127	3969
2980.959	4032
2982.792	3950
2984.624	3956
2986.455	3848
2988.288	3895
2990.119	3902
2991.949	3889
2993.779	3891
2995.608	3771
2997.439	3791
2999.268	3801
3001.096	3739
3002.923	3700
3004.751	3656
3006.578	3631
3008.406	3569
3010.232	3561
3012.057	3549
3013.883	3481
3015.706	3466
3017.532	3396
3019.356	3441
3021.179	3400
3023.002	3385
3024.823	3427
3026.646	3408
3028.469	3385
3030.289	3358
3032.11	3318
3033.93	3352
3035.749	3320
3037.57	3323
3039.39	3332
3041.207	3405
3043.026	3298
3044.842	3315
3046.661	3294
3048.477	3295
3050.294	3320
3052.109	3327
3053.925	3283
3055.739	3226
3057.555	3343
3059.368	3273
3061.181	3262
3062.995	3274
3064.807	3285
3066.62	3289
3068.433	3348
3070.243	3275
3072.054	3290
3073.865	3306
3075.675	3358
3077.485	3292
3079.293	3248
3081.102	3258
3082.911	3284
3084.719	3178
3086.527	3213
3088.333	3286
3090.139	3246
3091.945	3206
3093.75	3185
3095.557	3208
3097.361	3171
3099.165	3199
3100.969	3250
3102.772	3208
3104.575	3184
3106.379	3157
3108.181	3186
3109.982	3167
3111.783	3217
3113.584	3212
3115.386	3273
3117.186	3187
3118.985	3118
3120.783	3132
3122.582	3282
3124.381	3223
3126.179	3179
3127.975	3181
3129.772	3210
3131.569	3179
3133.365	3200
3135.161	3166
3136.956	3132
3138.751	3190
3140.544	3145
3142.338	3091
3144.132	3074
3145.925	3099
3147.717	3146
3149.509	3131
3151.301	3195
3153.091	3072
3154.884	3103
3156.673	3092
3158.462	3182
3160.252	3146
3162.041	3097
3163.831	3132
3165.618	3186
3167.405	3090
3169.193	3124
3170.979	3130
3172.767	3153
3174.553	3124
3176.338	3154
3178.123	3190
3179.907	3123
3181.692	3131
3183.477	3058
3185.259	3081
3187.042	3117
3188.824	3108
3190.607	3149
3192.389	3077
3194.17	3148
3195.951	3097
3197.73	3019
3199.51	3134
3201.289	3141
3203.07	3063
3204.848	3099
3206.626	3144
3208.403	3130
3210.18	3100
3211.959	3120
3213.735	3120
3215.511	3140
3217.285	3050
3219.06	3163
3220.836	3120
3222.611	3134
3224.384	3062
3226.158	3219
3227.929	3094
3229.702	3107
3231.476	3024
3233.248	3134
3235.018	3169
3236.789	3146
3238.56	3098
3240.33	3204
3242.1	3159
3243.869	3095
3245.637	3126
3247.405	3120
3249.172	3182
3250.941	3173
3252.707	3100
3254.474	3104
3256.24	3133
3258.006	3137
3259.772	3124
3261.537	3119
3263.301	3137
3265.065	3106
3266.828	3059
3268.592	3132
3270.355	3156
3272.117	3124
3273.878	3063
3275.64	3155
3277.401	3122
3279.162	3143
3280.922	3179
3282.682	3136
3284.441	3129
3286.199	3150
3287.959	3158
3289.716	3098
3291.475	3189
3293.232	3121
3294.988	3187
3296.744	3205
3298.501	3145
3300.256	3136
3302.011	3134
3303.766	3175
3305.52	3181
3307.275	3144
3309.028	3140
3310.781	3209
3312.533	3148
3314.285	3198
3316.038	3177
3317.789	3150
3319.54	3160
3321.289	3174
3323.039	3117
3324.789	3224
3326.539	3172
3328.288	3127
3330.035	3080
3331.783	3115
3333.531	3094
3335.28	3140
3337.025	3087
3338.771	3185
3340.518	3059
3342.262	3157
3344.009	3118
3345.753	3137
3347.497	3153
3349.24	3147
3350.983	3153
3352.726	3099
3354.469	3030
3356.212	3097
3357.952	3053
3359.694	3088
3361.434	3054
3363.176	3066
3364.916	3100
3366.654	3099
3368.394	3063
3370.132	3080
3371.871	3017
3373.61	3025
3375.346	3039
3377.083	3025
3378.82	2976
3380.556	3039
3382.292	3035
3384.027	2988
3385.763	2981
3387.497	2971
3389.231	3057
3390.965	3026
3392.698	3072
3394.431	2983
3396.164	3002
3397.896	2948
3399.627	3010
3401.36	3083
3403.09	3007
3404.82	3070
3406.55	3027
3408.279	3006
3410.01	3002
3411.738	3055
3413.467	2924
3415.194	3035
3416.92	2979
3418.647	2982
3420.375	2957
3422.102	2964
3423.827	3003
3425.553	2949
3427.277	3010
3429.003	2967
3430.727	2963
3432.451	2913
3434.173	2976
3435.896	2947
3437.62	2939
3439.343	2999
3441.063	2900
3442.785	2994
3444.505	2892
3446.226	2953
3447.948	2937
3449.666	2982
3451.386	2932
3453.104	2984
3454.823	2943
3456.541	2977
3458.259	2883
3459.976	2928
3461.693	2824
3463.408	2872
3465.125	2867
3466.841	2875
3468.556	2821
3470.271	2912
3471.985	2888
3473.698	2907
3475.414	2816
3477.126	2858
3478.838	2857
3480.55	2847
3482.263	2881
3483.975	2842
3485.686	2818
3487.396	2879
3489.106	2866
3490.817	2863
3492.526	2834
3494.236	2760
3495.944	2782
3497.652	2850
3499.359	2873
3501.066	2843
3502.775	2784
3504.481	2795
3506.187	2837
3507.893	2878
3509.598	2812
3511.304	2782
3513.009	2733
3514.713	2756
3516.417	2764
3518.12	2783
3519.821	2755
3521.525	2803
3523.228	2729
3524.929	2767
3526.631	2742
3528.33	2713
3530.032	2756
3531.733	2800
3533.433	2776
3535.131	2752
3536.83	2698
3538.529	2778
3540.227	2717
3541.925	2691
3543.623	2733
3545.319	2726
3547.016	2696
3548.712	2712
3550.408	2649
3552.103	2666
3553.798	2699
3555.491	2680
3557.188	2669
3558.88	2676
3560.574	2689
3562.266	2710
3563.959	2711
3565.651	2689
3567.343	2658
3569.035	2691
3570.725	2730
3572.415	2694
3574.106	2682
3575.797	2580
3577.485	2630
3579.174	2678
3580.863	2627
3582.551	2631
3584.238	2705
3585.926	2717
3587.613	2666
3589.3	2659
3590.986	2609
3592.671	2627
3594.357	2606
3596.042	2621
3597.726	2556
3599.41	2628
3601.094	2572
3602.778	2558
3604.461	2572
3606.143	2591
3607.825	2558
3609.507	2528
3611.188	2491
3612.87	2545
3614.551	2542
3616.229	2521
3617.909	2550
3619.589	2570
3621.269	2494
3622.948	2482
3624.625	2521
3626.302	2567
3627.98	2530
3629.657	2509
3631.334	2535
3633.01	2445
3634.686	2507
3636.361	2515
3638.036	2532
3639.712	2464
3641.385	2469
3643.06	2506
3644.732	2540
3646.405	2566
3648.08	2448
3649.751	2475
3651.424	2492
3653.094	2513
3654.766	2519
3656.436	2511
3658.106	2513
3659.777	2440
3661.446	2516
3663.115	2461
3664.783	2461
3666.452	2436
3668.121	2471
3669.788	2509
3671.454	2480
3673.121	2398
3674.789	2432
3676.455	2421
3678.12	2490
3679.784	2476
3681.45	2400
3683.114	2403
3684.779	2367
3686.442	2465
3688.105	2355
3689.768	2387
3691.43	2408
3693.093	2373
3694.754	2408
3696.415	2421
3698.076	2414
3699.736	2394
3701.396	2393
3703.057	2369
3704.716	2396
3706.375	2371
3708.034	2351
3709.692	2400
3711.351	2388
3713.008	2433
3714.665	2397
3716.321	2342
3717.977	2379
3719.634	2383
3721.29	2376
3722.945	2414
3724.598	2373
3726.253	2405
3727.907	2366
3729.561	2424
3731.214	2399
3732.867	2403
3734.518	2402
3736.171	2343
3737.824	2396
3739.474	2331
3741.125	2312
3742.775	2394
3744.425	2334
3746.074	2311
3747.725	2347
3749.373	2384
3751.022	2327
3752.669	2277
3754.318	2361
3755.966	2281
3757.612	2344
3759.259	2321
3760.905	2295
3762.55	2316
3764.197	2322
3765.842	2314
3767.486	2318
3769.131	2327
3770.774	2359
3772.417	2248
3774.061	2305
3775.705	2297
3777.347	2339
3778.988	2281
3780.629	2302
3782.271	2278
3783.912	2257
3785.552	2364
3787.192	2265
3788.831	2271
3790.472	2287
3792.112	2290
3793.75	2269
3795.388	2317
3797.024	2320
3798.661	2320
3800.3	2240
3801.936	2315
3803.572	2237
3805.208	2253
3806.844	2287
3808.48	2253
3810.115	2282
3811.748	2221
3813.382	2246
3815.016	2289
3816.649	2329
3818.283	2241
3819.914	2252
3821.547	2245
3823.178	2234
3824.809	2253
3826.441	2242
3828.072	2225
3829.701	2245
3831.331	2282
3832.96	2239
3834.591	2282
3836.219	2248
3837.847	2258
3839.475	2215
3841.102	2294
3842.729	2229
3844.357	2253
3845.984	2287
3847.609	2262
3849.234	2236
3850.86	2259
3852.485	2249
3854.11	2253
3855.734	2220
3857.357	2254
3858.981	2177
3860.603	2249
3862.227	2177
3863.848	2261
3865.471	2188
3867.092	2221
3868.713	2220
3870.334	2155
3871.954	2239
3873.575	2179
3875.194	2177
3876.813	2224
3878.433	2188
3880.051	2227
3881.669	2200
3883.286	2229
3884.904	2144
3886.52	2216
3888.138	2192
3889.754	2163
3891.37	2177
3892.985	2197
3894.6	2217
3896.216	2174
3897.831	2159
3899.444	2157
3901.058	2194
3902.67	2169
3904.283	2132
3905.897	2182
3907.509	2257
3909.121	2209
3910.731	2163
3912.342	2153
3913.954	2187
3915.563	2172
3917.174	2174
3918.783	2175
3920.391	2138
3922.002	2190
3923.611	2178
3925.218	2167
3926.826	2098
3928.432	2199
3930.039	2130
3931.647	2171
3933.253	2162
3934.859	2156
3936.464	2182
3938.068	2162
3939.675	2106
3941.278	2121
3942.883	2124
3944.486	2171
3946.089	2128
3947.692	2122
3949.295	2164
3950.898	2128
3952.499	2186
3954.1	2162
3955.7	2155
3957.303	2058
3958.903	2066
3960.502	2139
3962.101	2116
3963.7	2115
3965.301	2169
3966.899	2103
3968.497	2090
3970.094	2079
3971.691	2116
3973.288	2116
3974.885	2147
3976.481	2087
3978.077	2118
3979.672	2118
3981.267	2049
3982.863	2080
3984.457	2122
3986.051	2141
3987.645	2097
3989.238	2096
3990.831	2113
3992.425	2113
3994.017	2079
3995.607	2065
3997.199	2073
3998.79	2045
4000.382	2045
4001.973	2058
4003.561	2038
4005.151	2058
4006.741	2042
4008.331	2034
4009.918	2023
4011.507	2019
4013.095	2017
4014.681	2071
4016.269	2073
4017.856	2053
4019.443	2022
4021.028	2082
4022.614	2007
4024.199	2066
4025.785	2013
4027.37	2022
4028.953	2023
4030.536	1980
4032.12	1997
4033.704	2031
4035.287	2022
4036.869	2021
4038.45	1984
4040.032	1966
4041.613	1976
4043.195	1993
4044.776	2019
4046.356	2017
4047.935	1973
4049.515	1998
4051.095	1961
4052.674	2023
4054.251	1987
4055.829	1985
4057.406	2047
4058.985	2018
4060.562	1995
4062.139	1992
4063.715	2037
4065.29	2007
4066.865	1994
4068.442	1997
4070.016	1984
4071.59	2014
4073.164	1983
4074.738	1985
4076.312	1968
4077.885	1982
4079.458	1970
4081.03	1972
4082.602	1956
4084.173	1968
4085.745	1968
4087.315	1934
4088.886	1991
4090.456	1973
4092.026	1950
4093.596	1936
4095.165	2011
4096.734	1975
4098.301	1961
4099.869	1944
4101.437	1941
4103.006	1976
4104.572	1955
4106.139	1900
4107.704	1914
4109.27	1908
4110.837	1939
4112.401	1926
4113.966	1919
4115.53	1882
4117.094	1889
4118.659	1953
4120.223	1927
4121.785	1883
4123.347	1929
4124.909	1950
4126.471	1928
4128.034	1921
4129.595	1965
4131.155	1915
4132.716	1893
4134.275	1892
4135.836	1842
4137.395	1910
4138.955	1830
4140.513	1951
4142.071	1893
4143.628	1906
4145.188	1895
4146.745	1856
4148.302	1936
4149.858	1864
4151.414	1984
4152.971	1856
4154.526	1904
4156.081	1885
4157.635	1845
4159.189	1871
4160.745	1877
4162.298	1909
4163.852	1925
4165.405	1839
4166.957	1874
4168.51	1904
4170.063	1877
4171.614	1867
4173.166	1858
4174.717	1873
4176.267	1801
4177.817	1820
4179.368	1879
4180.917	1861
4182.466	1898
4184.016	1861
4185.564	1881
4187.112	1828
4188.66	1865
4190.207	1783
4191.754	1839
4193.301	1822
4194.848	1852
4196.394	1855
4197.94	1832
4199.484	1854
4201.03	1847
4202.575	1850
4204.12	1830
4205.663	1825
4207.207	1813
4208.75	1820
4210.292	1842
4211.836	1841
4213.378	1804
4214.92	1857
4216.46	1782
4218.002	1771
4219.544	1799
4221.083	1801
4222.625	1775
4224.164	1787
4225.703	1812
4227.244	1818
4228.782	1831
4230.32	1796
4231.857	1806
4233.395	1831
4234.933	1835
4236.471	1798
4238.007	1814
4239.542	1855
4241.078	1719
4242.614	1791
4244.15	1778
4245.685	1760
4247.219	1770
4248.753	1782
4250.287	1774
4251.82	1870
4253.354	1781
4254.887	1811
4256.419	1800
4257.951	1806
4259.483	1785
4261.016	1746
4262.547	1808
4264.078	1783
4265.608	1757
4267.137	1773
4268.668	1814
4270.197	1722
4271.727	1788
4273.254	1801
4274.783	1780
4276.311	1778
4277.84	1719
4279.366	1769
4280.894	1783
4282.42	1749
4283.946	1747
4285.473	1748
4286.998	1726
4288.523	1742
4290.047	1800
4291.572	1765
4293.096	1765
4294.622	1812
4296.144	1742
4297.668	1726
4299.19	1756
4300.713	1768
4302.236	1769
4303.758	1708
4305.279	1790
4306.799	1768
4308.321	1737
4309.842	1805
4311.361	1766
4312.882	1697
4314.401	1727
