400.0961	2416
402.6185	2463
405.1424	2390
407.6635	2462
410.1838	2393
412.7035	2387
415.2225	2437
417.7388	2490
420.2585	2485
422.7754	2599
425.2917	2489
427.8072	2527
430.3221	2649
432.8363	2555
435.3498	2594
437.8626	2580
440.3727	2620
442.8841	2553
445.3969	2662
447.907	2574
450.4142	2626
452.9229	2528
455.4289	2499
457.9362	2549
460.4449	2597
462.9488	2536
465.454	2599
467.9566	2546
470.4604	2518
472.9637	2489
475.4662	2584
477.966	2529
480.4671	2566
482.9656	2549
485.4633	2559
487.9645	2541
490.4608	2528
492.9566	2500
495.4536	2616
497.948	2490
500.4437	2609
502.9387	2620
505.431	2585
507.9226	2593
510.4136	2625
512.9079	2654
515.3975	2598
517.8864	2599
520.3746	2620
522.8622	2596
525.3491	2570
527.8394	2635
530.3249	2566
532.8098	2560
535.2939	2616
537.7774	2577
540.2623	2691
542.7444	2627
545.2259	2585
547.7067	2663
550.1868	2640
552.6683	2620
555.147	2603
557.6231	2668
560.1005	2646
562.5773	2670
565.0534	2629
567.5308	2691
570.0056	2737
572.4776	2748
574.951	2725
577.4237	2762
579.8978	2758
582.3671	2683
584.8378	2746
587.3079	2723
589.7773	2808
592.244	2729
594.714	2707
597.1793	2728
599.6461	2808
602.1121	2697
604.5754	2643
607.0421	2755
609.5042	2668
611.9675	2750
614.4282	2722
616.8902	2736
619.3515	2690
621.8122	2696
624.2702	2649
626.7296	2673
629.1863	2677
631.6423	2671
634.1017	2627
636.5563	2553
639.0104	2743
641.4658	2636
643.9185	2655
646.3725	2601
648.8239	2632
651.2766	2571
653.7266	2683
656.176	2691
658.6247	2634
661.0748	2640
663.5242	2687
665.9709	2708
668.417	2745
670.8624	2708
673.3092	2773
675.7533	2709
678.1968	2740
680.6395	2789
683.0817	2716
685.5251	2707
687.9659	2783
690.4061	2757
692.8456	2802
695.2844	2763
697.7226	2755
700.1621	2755
702.599	2746
705.0332	2816
707.4688	2761
709.9036	2790
712.3399	2767
714.7735	2781
717.2044	2822
719.6367	2830
722.0683	2788
724.4993	2857
726.9296	2795
729.3593	2893
731.7883	2873
734.2147	2809
736.6423	2798
739.0714	2911
741.4958	2875
743.9216	2893
746.3447	2789
748.7691	2982
751.1929	2859
753.616	2917
756.0366	2940
758.4584	2932
760.8776	2945
763.2982	2904
765.718	2934
768.1373	2934
770.5539	3004
772.9698	2868
775.3871	2882
777.8038	2891
780.2178	2913
782.6332	2917
785.0459	3018
787.458	2968
789.8714	2962
792.2842	2975
794.6943	2971
797.1038	2896
799.5127	2866
801.9209	2912
804.3324	3016
806.7393	2987
809.1456	3025
811.5513	2944
813.9562	2988
816.3625	2930
818.7663	2996
821.1693	2977
823.5718	3041
825.9735	2928
828.3746	2951
830.7771	3003
833.177	2974
835.5762	3047
837.9747	2990
840.3727	3002
842.772	3030
845.1666	3014
847.5626	3002
849.958	2971
852.3527	3070
854.7488	3115
857.1403	3093
859.5331	3152
861.9253	3175
864.3168	3017
866.7057	3022
869.098	3078
871.4876	2978
873.8746	3083
876.263	3130
878.6487	3147
881.0378	3035
883.4243	3044
885.8081	3106
888.1933	3086
890.5759	2940
892.9598	3064
895.343	2963
897.7256	3050
900.1057	3093
902.4871	3020
904.8659	3107
907.246	2980
909.6254	3145
912.0023	3161
914.3786	3171
916.7562	3190
919.1331	3124
921.5074	3280
923.8831	3313
926.2562	3241
928.6287	3287
931.0005	3302
933.3757	3288
935.7462	3275
938.1162	3324
940.4855	3286
942.8542	3338
945.2242	3367
947.5916	3473
949.9584	3662
952.3266	3654
954.6921	3898
957.0571	4045
959.4233	4286
961.787	4285
964.15	4308
966.5125	4195
968.8742	3915
971.2354	3714
973.5959	3582
975.9559	3371
978.3151	3412
980.6738	3313
983.0338	3303
985.3912	3269
987.7461	3232
990.1022	3221
992.4578	3146
994.8127	3235
997.1689	3191
999.5207	3200
1001.874	3191
1004.226	3237
1006.576	3244
1008.929	3257
1011.28	3185
1013.628	3254
1015.977	3155
1018.324	3173
1020.674	3252
1023.019	3260
1025.366	3195
1027.713	3314
1030.056	3267
1032.399	3271
1034.746	3266
1037.087	3200
1039.431	3296
1041.771	3259
1044.113	3234
1046.454	3274
1048.793	3293
1051.133	3282
1053.471	3228
1055.807	3296
1058.146	3210
1060.483	3242
1062.818	3395
1065.153	3264
1067.489	3329
1069.822	3337
1072.156	3473
1074.488	3481
1076.82	3428
1079.15	3317
1081.48	3303
1083.814	3266
1086.143	3325
1088.471	3303
1090.799	3292
1093.126	3258
1095.452	3270
1097.78	3273
1100.105	3306
1102.43	3322
1104.754	3275
1107.077	3289
1109.4	3182
1111.722	3229
1114.044	3311
1116.365	3245
1118.685	3277
1121.005	3258
1123.324	3251
1125.643	3330
1127.961	3268
1130.278	3302
1132.595	3298
1134.911	3251
1137.226	3231
1139.541	3174
1141.854	3202
1144.167	3287
1146.482	3232
1148.793	3202
1151.105	3186
1153.414	3304
1155.725	3234
1158.033	3300
1160.344	3275
1162.651	3255
1164.959	3268
1167.265	3255
1169.572	3304
1171.878	3215
1174.184	3291
1176.488	3220
1178.79	3342
1181.094	3259
1183.396	3295
1185.699	3308
1188.001	3298
1190.301	3282
1192.6	3231
1194.9	3325
1197.2	3297
1199.497	3243
1201.794	3232
1204.09	3265
1206.387	3296
1208.684	3266
1210.978	3374
1213.272	3322
1215.565	3279
1217.858	3305
1220.15	3327
1222.443	3309
1224.734	3330
1227.024	3355
1229.313	3377
1231.602	3414
1233.892	3381
1236.18	3366
1238.467	3418
1240.754	3500
1243.04	3492
1245.325	3396
1247.612	3347
1249.896	3364
1252.178	3348
1254.461	3464
1256.743	3455
1259.027	3478
1261.308	3378
1263.587	3521
1265.867	3447
1268.146	3460
1270.425	3503
1272.703	3421
1274.981	3529
1277.256	3511
1279.532	3473
1281.808	3450
1284.083	3424
1286.358	3414
1288.63	3427
1290.904	3414
1293.175	3368
1295.449	3461
1297.719	3421
1299.99	3313
1302.259	3372
1304.529	3415
1306.798	3333
1309.065	3392
1311.333	3395
1313.599	3343
1315.866	3344
1318.131	3431
1320.396	3420
1322.66	3402
1324.925	3481
1327.187	3380
1329.448	3391
1331.711	3452
1333.974	3442
1336.234	3440
1338.493	3399
1340.752	3422
1343.01	3357
1345.269	3358
1347.526	3406
1349.784	3415
1352.04	3356
1354.295	3297
1356.552	3457
1358.806	3362
1361.059	3293
1363.312	3367
1365.564	3344
1367.818	3387
1370.069	3428
1372.318	3420
1374.568	3406
1376.817	3407
1379.066	3473
1381.316	3398
1383.564	3446
1385.809	3435
1388.056	3510
1390.301	3471
1392.549	3464
1394.793	3524
1397.036	3569
1399.279	3512
1401.522	3701
1403.763	3620
1406.007	3621
1408.248	3466
1410.487	3557
1412.727	3610
1414.965	3566
1417.205	3667
1419.442	3566
1421.68	3515
1423.915	3509
1426.152	3517
1428.388	3503
1430.623	3531
1432.857	3582
1435.091	3528
1437.323	3576
1439.556	3601
1441.789	3611
1444.019	3648
1446.25	3537
1448.48	3729
1450.708	3682
1452.938	3685
1455.167	3629
1457.394	3701
1459.62	3747
1461.846	3695
1464.073	3532
1466.299	3600
1468.523	3596
1470.746	3531
1472.969	3533
1475.191	3473
1477.415	3483
1479.636	3468
1481.858	3434
1484.078	3474
1486.298	3434
1488.518	3434
1490.736	3435
1492.954	3352
1495.169	3352
1497.386	3365
1499.602	3437
1501.819	3348
1504.034	3457
1506.248	3357
1508.462	3388
1510.675	3454
1512.888	3390
1515.1	3419
1517.311	3388
1519.522	3334
1521.732	3339
1523.942	3446
1526.151	3398
1528.36	3418
1530.566	3390
1532.773	3382
1534.98	3350
1537.187	3352
1539.392	3467
1541.596	3479
1543.801	3421
1546.005	3419
1548.208	3458
1550.411	3455
1552.612	3433
1554.814	3405
1557.013	3406
1559.212	3434
1561.414	3428
1563.612	3407
1565.811	3481
1568.007	3457
1570.203	3428
1572.403	3486
1574.598	3509
1576.792	3390
1578.988	3539
1581.181	3460
1583.376	3430
1585.568	3443
1587.761	3513
1589.952	3552
1592.143	3524
1594.333	3534
1596.524	3468
1598.715	3532
1600.903	3526
1603.091	3525
1605.278	3536
1607.466	3580
1609.652	3492
1611.838	3555
1614.023	3620
1616.207	3476
1618.391	3627
1620.576	3556
1622.759	3548
1624.941	3567
1627.123	3532
1629.304	3570
1631.484	3605
1633.664	3617
1635.844	3613
1638.022	3612
1640.201	3565
1642.38	3600
1644.556	3601
1646.732	3601
1648.908	3667
1651.084	3602
1653.257	3644
1655.433	3640
1657.607	3644
1659.779	3643
1661.951	3634
1664.122	3663
1666.295	3666
1668.467	3692
1670.635	3651
1672.805	3720
1674.973	3664
1677.142	3565
1679.31	3715
1681.478	3607
1683.644	3584
1685.81	3585
1687.975	3611
1690.142	3650
1692.305	3589
1694.468	3556
1696.632	3570
1698.794	3633
1700.957	3520
1703.119	3568
1705.279	3585
1707.439	3523
1709.598	3489
1711.758	3575
1713.917	3577
1716.075	3560
1718.231	3528
1720.388	3566
1722.543	3467
1724.702	3495
1726.856	3536
1729.01	3531
1731.164	3504
1733.317	3547
1735.471	3526
1737.623	3464
1739.774	3592
1741.925	3474
1744.075	3569
1746.225	3540
1748.376	3467
1750.524	3425
1752.672	3521
1754.82	3565
1756.965	3526
1759.113	3465
1761.259	3502
1763.405	3499
1765.549	3611
1767.694	3455
1769.836	3527
1771.981	3553
1774.123	3451
1776.264	3609
1778.405	3422
1780.546	3485
1782.687	3449
1784.827	3512
1786.966	3513
1789.103	3592
1791.242	3527
1793.381	3502
1795.517	3668
1797.653	3557
1799.788	3456
1801.923	3488
1804.057	3592
1806.193	3445
1808.326	3547
1810.457	3549
1812.59	3504
1814.721	3509
1816.855	3532
1818.984	3483
1821.113	3486
1823.244	3542
1825.372	3584
1827.499	3503
1829.63	3563
1831.756	3508
1833.882	3546
1836.007	3470
1838.132	3552
1840.26	3533
1842.384	3520
1844.507	3527
1846.63	3622
1848.752	3463
1850.875	3459
1852.996	3552
1855.118	3547
1857.238	3476
1859.358	3483
1861.477	3565
1863.597	3525
1865.715	3572
1867.832	3543
1869.948	3578
1872.064	3495
1874.181	3556
1876.297	3487
1878.411	3567
1880.526	3495
1882.639	3495
1884.752	3584
1886.865	3539
1888.977	3603
1891.089	3454
1893.2	3492
1895.308	3501
1897.42	3501
1899.53	3564
1901.639	3554
1903.745	3555
1905.853	3536
1907.962	3513
1910.067	3598
1912.174	3570
1914.278	3626
1916.383	3588
1918.486	3510
1920.592	3554
1922.694	3543
1924.797	3534
1926.898	3569
1929	3586
1931.102	3543
1933.203	3502
1935.301	3569
1937.401	3592
1939.499	3520
1941.598	3555
1943.697	3545
1945.793	3566
1947.888	3535
1949.985	3660
1952.08	3598
1954.176	3526
1956.269	3593
1958.364	3580
1960.457	3578
1962.549	3547
1964.642	3537
1966.733	3581
1968.823	3643
1970.913	3520
1973.005	3590
1975.093	3588
1977.184	3630
1979.271	3547
1981.359	3483
1983.446	3575
1985.532	3572
1987.619	3472
1989.705	3509
1991.789	3545
1993.874	3546
1995.956	3598
1998.041	3569
2000.123	3557
2002.206	3595
2004.287	3530
2006.368	3545
2008.449	3508
2010.529	3523
2012.609	3560
2014.688	3593
2016.766	3522
2018.843	3659
2020.922	3514
2022.999	3484
2025.074	3525
2027.15	3523
2029.225	3582
2031.299	3595
2033.375	3577
2035.447	3589
2037.52	3501
2039.592	3581
2041.664	3511
2043.736	3613
2045.807	3516
2047.876	3645
2049.947	3601
2052.015	3569
2054.086	3640
2056.153	3575
2058.221	3597
2060.288	3587
2062.353	3587
2064.42	3624
2066.486	3571
2068.55	3541
2070.614	3518
2072.678	3554
2074.741	3575
2076.805	3578
2078.866	3621
2080.929	3623
2082.99	3595
2085.049	3493
2087.109	3547
2089.17	3613
2091.228	3566
2093.286	3540
2095.344	3554
2097.4	3552
2099.46	3592
2101.516	3571
2103.572	3603
2105.626	3524
2107.679	3544
2109.735	3561
2111.788	3532
2113.841	3549
2115.894	3604
2117.945	3613
2119.997	3501
2122.049	3542
2124.1	3617
2126.148	3588
2128.197	3621
2130.246	3571
2132.296	3577
2134.342	3611
2136.39	3563
2138.437	3553
2140.483	3466
2142.527	3542
2144.574	3519
2146.619	3586
2148.661	3577
2150.705	3530
2152.747	3634
2154.792	3581
2156.832	3569
2158.874	3582
2160.915	3643
2162.954	3562
2164.995	3590
2167.034	3554
2169.072	3499
2171.111	3513
2173.148	3513
2175.186	3583
2177.223	3629
2179.258	3603
2181.294	3546
2183.328	3560
2185.362	3502
2187.398	3543
2189.431	3497
2191.463	3501
2193.495	3504
2195.528	3566
2197.56	3593
2199.59	3563
2201.62	3567
2203.649	3494
2205.678	3582
2207.708	3460
2209.737	3469
2211.764	3529
2213.791	3502
2215.817	3518
2217.843	3536
2219.87	3473
2221.895	3598
2223.919	3501
2225.942	3478
2227.966	3431
2229.988	3558
2232.012	3521
2234.032	3469
2236.054	3467
2238.074	3516
2240.095	3485
2242.116	3526
2244.135	3495
2246.153	3537
2248.171	3592
2250.188	3485
2252.208	3539
2254.223	3434
2256.239	3490
2258.255	3492
2260.269	3567
2262.283	3499
2264.3	3447
2266.312	3503
2268.325	3535
2270.336	3463
2272.349	3519
2274.362	3451
2276.372	3530
2278.383	3559
2280.392	3458
2282.402	3488
2284.409	3474
2286.418	3514
2288.427	3451
2290.433	3457
2292.441	3525
2294.446	3567
2296.453	3497
2298.459	3617
2300.463	3528
2302.466	3396
2304.471	3447
2306.475	3516
2308.477	3486
2310.478	3517
2312.481	3519
2314.481	3469
2316.481	3482
2318.482	3498
2320.482	3471
2322.48	3528
2324.48	3415
2326.478	3475
2328.476	3442
2330.473	3550
2332.469	3446
2334.465	3415
2336.46	3599
2338.454	3536
2340.45	3454
2342.444	3535
2344.437	3516
2346.43	3546
2348.421	3465
2350.414	3395
2352.405	3453
2354.396	3515
2356.386	3428
2358.376	3457
2360.366	3410
2362.355	3433
2364.343	3459
2366.331	3469
2368.317	3422
2370.304	3540
2372.292	3405
2374.278	3377
2376.262	3419
2378.247	3410
2380.23	3457
2382.216	3418
2384.199	3400
2386.181	3524
2388.163	3402
2390.144	3367
2392.127	3412
2394.107	3324
2396.087	3338
2398.066	3432
2400.046	3440
2402.023	3478
2404.004	3361
2405.981	3339
2407.957	3306
2409.934	3413
2411.91	3418
2413.886	3415
2415.862	3338
2417.836	3413
2419.809	3386
2421.784	3412
2423.756	3446
2425.73	3446
2427.701	3424
2429.672	3416
2431.644	3398
2433.615	3420
2435.586	3424
2437.555	3415
2439.523	3432
2441.491	3430
2443.459	3472
2445.428	3403
2447.395	3310
2449.361	3476
2451.327	3416
2453.292	3436
2455.257	3321
2457.223	3450
2459.187	3401
2461.15	3296
2463.113	3379
2465.076	3424
2467.039	3442
2468.999	3397
2470.96	3305
2472.921	3359
2474.881	3375
2476.841	3472
2478.8	3361
2480.759	3378
2482.717	3356
2484.675	3450
2486.63	3360
2488.589	3423
2490.545	3443
2492.5	3341
2494.455	3485
2496.408	3419
2498.364	3373
2500.318	3385
2502.27	3344
2504.223	3334
2506.174	3361
2508.126	3371
2510.078	3343
2512.03	3352
2513.979	3388
2515.927	3372
2517.877	3371
2519.826	3346
2521.775	3356
2523.722	3304
2525.668	3404
2527.616	3349
2529.561	3267
2531.508	3309
2533.452	3397
2535.398	3406
2537.342	3350
2539.284	3350
2541.229	3386
2543.173	3340
2545.114	3356
2547.055	3374
2548.996	3279
2550.938	3338
2552.878	3407
2554.817	3348
2556.756	3325
2558.695	3309
2560.633	3357
2562.572	3394
2564.509	3368
2566.445	3357
2568.382	3320
2570.317	3294
2572.254	3380
2574.189	3389
2576.123	3358
2578.057	3336
2579.99	3368
2581.923	3343
2583.855	3278
2585.788	3325
2587.719	3293
2589.65	3334
2591.579	3435
2593.511	3382
2595.44	3366
2597.37	3310
2599.297	3364
2601.225	3428
2603.153	3341
2605.08	3275
2607.007	3329
2608.932	3370
2610.858	3342
2612.782	3391
2614.709	3377
2616.632	3382
2618.556	3390
2620.478	3325
2622.401	3370
2624.324	3319
2626.247	3419
2628.167	3356
2630.088	3368
2632.008	3410
2633.928	3322
2635.848	3348
2637.766	3464
2639.684	3396
2641.603	3333
2643.519	3324
2645.437	3398
2647.353	3452
2649.27	3364
2651.184	3377
2653.099	3425
2655.014	3381
2656.928	3423
2658.842	3395
2660.755	3333
2662.667	3416
2664.579	3408
2666.491	3376
2668.402	3370
2670.312	3396
2672.222	3387
2674.132	3350
2676.042	3386
2677.951	3344
2679.859	3414
2681.766	3378
2683.674	3391
2685.582	3386
2687.488	3366
2689.392	3387
2691.298	3363
2693.202	3388
2695.107	3386
2697.012	3331
2698.914	3371
2700.817	3339
2702.72	3257
2704.622	3262
2706.524	3286
2708.425	3367
2710.326	3277
2712.225	3351
2714.125	3325
2716.024	3345
2717.923	3345
2719.822	3270
2721.719	3397
2723.616	3294
2725.512	3383
2727.41	3284
2729.305	3325
2731.201	3300
2733.095	3272
2734.99	3391
2736.884	3350
2738.778	3328
2740.67	3368
2742.562	3372
2744.455	3280
2746.346	3357
2748.238	3360
2750.129	3340
2752.018	3381
2753.907	3306
2755.797	3386
2757.687	3358
2759.575	3317
2761.462	3372
2763.349	3426
2765.237	3252
2767.124	3305
2769.009	3308
2770.894	3347
2772.779	3288
2774.663	3346
2776.547	3360
2778.431	3321
2780.314	3349
2782.197	3223
2784.078	3310
2785.96	3288
2787.842	3298
2789.723	3307
2791.603	3262
2793.483	3280
2795.362	3281
2797.241	3403
2799.121	3266
2800.997	3261
2802.874	3352
2804.751	3260
2806.628	3350
2808.506	3322
2810.38	3251
2812.255	3312
2814.13	3243
2816.003	3262
2817.878	3241
2819.752	3339
2821.623	3332
2823.496	3301
2825.368	3338
2827.238	3294
2829.111	3355
2830.98	3322
2832.851	3299
2834.719	3337
2836.589	3248
2838.458	3324
2840.327	3318
2842.193	3414
2844.061	3369
2845.927	3266
2847.794	3362
2849.66	3384
2851.525	3387
2853.39	3384
2855.254	3344
2857.117	3351
2858.983	3433
2860.845	3397
2862.707	3537
2864.569	3472
2866.431	3490
2868.293	3468
2870.154	3531
2872.013	3612
2873.873	3578
2875.733	3655
2877.592	3653
2879.451	3694
2881.309	3704
2883.166	3723
2885.022	3727
2886.879	3801
2888.736	3767
2890.591	3852
2892.446	3838
2894.301	3817
2896.155	3845
2898.009	3910
2899.863	3827
2901.716	3792
2903.568	3830
2905.419	3806
2907.27	3780
2909.123	3841
2910.973	3888
2912.824	3954
2914.673	3860
2916.521	3856
2918.372	3908
2920.22	4008
2922.067	4016
2923.914	4100
2925.761	4107
2927.607	4125
2929.455	4104
2931.301	4207
2933.144	4250
2934.99	4274
2936.833	4268
2938.678	4328
2940.522	4312
2942.364	4464
2944.207	4461
2946.048	4580
2947.891	4548
2949.731	4621
2951.571	4484
2953.412	4617
2955.25	4515
2957.09	4478
2958.93	4277
2960.767	4342
2962.606	4293
2964.443	4304
2966.279	4186
2968.116	4199
2969.953	4068
2971.788	4010
2973.623	4059
2975.457	4011
2977.292	3997
2979.127	3967
2980.959	3933
2982.792	3896
2984.624	3911
2986.455	3729
2988.288	3867
2990.119	3891
2991.949	3753
2993.779	3821
2995.608	3740
2997.439	3708
2999.268	3629
3001.096	3581
3002.923	3633
3004.751	3560
3006.578	3526
3008.406	3512
3010.232	3477
3012.057	3394
3013.883	3354
3015.706	3380
3017.532	3421
3019.356	3382
3021.179	3375
3023.002	3288
3024.823	3332
3026.646	3363
3028.469	3344
3030.289	3349
3032.11	3252
3033.93	3232
3035.749	3260
3037.57	3222
3039.39	3242
3041.207	3199
3043.026	3232
3044.842	3251
3046.661	3200
3048.477	3230
3050.294	3190
3052.109	3190
3053.925	3245
3055.739	3236
3057.555	3253
3059.368	3223
3061.181	3245
3062.995	3244
3064.807	3246
3066.62	3238
3068.433	3263
3070.243	3185
3072.054	3214
3073.865	3201
3075.675	3261
3077.485	3294
3079.293	3204
3081.102	3214
3082.911	3168
3084.719	3178
3086.527	3178
3088.333	3170
3090.139	3184
3091.945	3077
3093.75	3093
3095.557	3102
3097.361	3155
3099.165	3163
3100.969	3192
3102.772	3157
3104.575	3135
3106.379	3136
3108.181	3066
3109.982	3147
3111.783	3115
3113.584	3078
3115.386	3035
3117.186	3048
3118.985	3109
3120.783	3152
3122.582	3083
3124.381	3064
3126.179	3114
3127.975	3056
3129.772	3037
3131.569	3124
3133.365	3085
3135.161	3038
3136.956	3101
3138.751	3076
3140.544	3094
3142.338	3104
3144.132	3029
3145.925	3017
3147.717	3025
3149.509	3049
3151.301	3050
3153.091	3003
3154.884	3082
3156.673	3169
3158.462	3059
3160.252	3080
3162.041	3119
3163.831	3068
3165.618	3018
3167.405	3017
3169.193	3081
3170.979	2965
3172.767	3088
3174.553	3063
3176.338	3099
3178.123	3099
3179.907	3003
3181.692	3058
3183.477	3065
3185.259	3075
3187.042	2944
3188.824	3044
3190.607	3070
3192.389	2974
3194.17	3029
3195.951	3032
3197.73	2998
3199.51	3052
3201.289	2994
3203.07	3114
3204.848	3108
3206.626	3074
3208.403	2995
3210.18	3050
3211.959	3027
3213.735	3071
3215.511	3034
3217.285	3038
3219.06	3045
3220.836	2986
3222.611	3074
3224.384	3018
3226.158	3147
3227.929	3072
3229.702	3103
3231.476	3023
3233.248	2955
3235.018	3038
3236.789	3088
3238.56	3029
3240.33	3017
3242.1	3059
3243.869	3032
3245.637	3076
3247.405	3034
3249.172	3138
3250.941	3039
3252.707	3032
3254.474	3069
3256.24	2951
3258.006	3066
3259.772	3024
3261.537	3100
3263.301	3096
3265.065	3055
3266.828	2997
3268.592	3187
3270.355	3103
3272.117	3056
3273.878	3052
3275.64	3030
3277.401	3073
3279.162	3065
3280.922	3027
3282.682	3064
3284.441	2999
3286.199	3051
3287.959	3064
3289.716	3023
3291.475	3020
3293.232	3104
3294.988	2998
3296.744	3087
3298.501	3081
3300.256	3057
3302.011	3049
3303.766	3056
3305.52	3088
3307.275	3031
3309.028	3034
3310.781	3013
3312.533	3110
3314.285	3113
3316.038	3096
3317.789	3081
3319.54	3065
3321.289	3091
3323.039	3021
3324.789	3067
3326.539	3025
3328.288	3033
3330.035	3130
3331.783	3073
3333.531	3043
3335.28	3041
3337.025	2997
3338.771	2988
3340.518	3018
3342.262	3078
3344.009	2978
3345.753	3004
3347.497	2964
3349.24	3006
3350.983	3022
3352.726	2932
3354.469	2992
3356.212	2979
3357.952	3006
3359.694	3010
3361.434	3024
3363.176	3002
3364.916	3024
3366.654	3015
3368.394	2989
3370.132	2966
3371.871	2946
3373.61	2956
3375.346	2952
3377.083	2915
3378.82	2936
3380.556	2910
3382.292	2916
3384.027	3012
3385.763	2979
3387.497	2990
3389.231	3044
3390.965	2974
3392.698	2975
3394.431	2949
3396.164	2995
3397.896	2998
3399.627	3027
3401.36	2909
3403.09	2889
3404.82	2941
3406.55	2952
3408.279	2963
3410.01	2918
3411.738	2953
3413.467	2931
3415.194	2940
3416.92	2967
3418.647	2975
3420.375	2844
3422.102	2928
3423.827	2942
3425.553	2979
3427.277	2899
3429.003	2894
3430.727	2912
3432.451	2869
3434.173	2929
3435.896	2848
3437.62	2886
3439.343	2946
3441.063	2819
3442.785	2944
3444.505	2820
3446.226	2906
3447.948	2863
3449.666	2854
3451.386	2883
3453.104	2872
3454.823	2789
3456.541	2858
3458.259	2838
3459.976	2840
3461.693	2818
3463.408	2861
3465.125	2889
3466.841	2763
3468.556	2841
3470.271	2780
3471.985	2792
3473.698	2851
3475.414	2826
3477.126	2792
3478.838	2769
3480.55	2764
3482.263	2776
3483.975	2863
3485.686	2740
3487.396	2804
3489.106	2710
3490.817	2651
3492.526	2782
3494.236	2758
3495.944	2759
3497.652	2770
3499.359	2708
3501.066	2656
3502.775	2783
3504.481	2719
3506.187	2713
3507.893	2793
3509.598	2666
3511.304	2825
3513.009	2707
3514.713	2658
3516.417	2724
3518.12	2763
3519.821	2734
3521.525	2652
3523.228	2679
3524.929	2712
3526.631	2617
3528.33	2694
3530.032	2690
3531.733	2715
3533.433	2731
3535.131	2586
3536.83	2627
3538.529	2721
3540.227	2665
3541.925	2641
3543.623	2627
3545.319	2734
3547.016	2599
3548.712	2614
3550.408	2657
3552.103	2733
3553.798	2706
3555.491	2687
3557.188	2627
3558.88	2666
3560.574	2719
3562.266	2634
3563.959	2673
3565.651	2611
3567.343	2584
3569.035	2660
3570.725	2559
3572.415	2655
3574.106	2598
3575.797	2574
3577.485	2667
3579.174	2623
3580.863	2543
3582.551	2577
3584.238	2594
3585.926	2608
3587.613	2639
3589.3	2595
3590.986	2498
3592.671	2571
3594.357	2593
3596.042	2536
3597.726	2500
3599.41	2537
3601.094	2488
3602.778	2607
3604.461	2469
3606.143	2521
3607.825	2489
3609.507	2539
3611.188	2512
3612.87	2490
3614.551	2495
3616.229	2499
3617.909	2514
3619.589	2468
3621.269	2482
3622.948	2547
3624.625	2491
3626.302	2453
3627.98	2468
3629.657	2472
3631.334	2484
3633.01	2530
3634.686	2477
3636.361	2436
3638.036	2429
3639.712	2428
3641.385	2432
3643.06	2494
3644.732	2440
3646.405	2472
3648.08	2378
3649.751	2368
3651.424	2385
3653.094	2419
3654.766	2434
3656.436	2355
3658.106	2402
3659.777	2467
3661.446	2414
3663.115	2458
3664.783	2376
3666.452	2422
3668.121	2406
3669.788	2447
3671.454	2392
3673.121	2394
3674.789	2336
3676.455	2368
3678.12	2364
3679.784	2378
3681.45	2360
3683.114	2366
3684.779	2367
3686.442	2405
3688.105	2373
3689.768	2395
3691.43	2392
3693.093	2335
3694.754	2418
3696.415	2372
3698.076	2379
3699.736	2357
3701.396	2356
3703.057	2293
3704.716	2337
3706.375	2431
3708.034	2396
3709.692	2384
3711.351	2336
3713.008	2374
3714.665	2343
3716.321	2351
3717.977	2324
3719.634	2383
3721.29	2325
3722.945	2350
3724.598	2321
3726.253	2342
3727.907	2399
3729.561	2296
3731.214	2354
3732.867	2380
3734.518	2325
3736.171	2321
3737.824	2310
3739.474	2276
3741.125	2344
3742.775	2341
3744.425	2261
3746.074	2347
3747.725	2335
3749.373	2280
3751.022	2262
3752.669	2274
3754.318	2243
3755.966	2298
3757.612	2306
3759.259	2293
3760.905	2253
3762.55	2318
3764.197	2249
3765.842	2325
3767.486	2328
3769.131	2248
3770.774	2334
3772.417	2326
3774.061	2241
3775.705	2246
3777.347	2331
3778.988	2330
3780.629	2222
3782.271	2203
3783.912	2249
3785.552	2257
3787.192	2267
3788.831	2304
3790.472	2267
3792.112	2272
3793.75	2348
3795.388	2275
3797.024	2287
3798.661	2217
3800.3	2240
3801.936	2189
3803.572	2298
3805.208	2283
3806.844	2261
3808.48	2226
3810.115	2257
3811.748	2212
3813.382	2189
3815.016	2169
3816.649	2287
3818.283	2206
3819.914	2207
3821.547	2217
3823.178	2186
3824.809	2250
3826.441	2218
3828.072	2259
3829.701	2188
3831.331	2217
3832.96	2198
3834.591	2167
3836.219	2239
3837.847	2232
3839.475	2245
3841.102	2210
3842.729	2172
3844.357	2193
3845.984	2250
3847.609	2212
3849.234	2201
3850.86	2189
3852.485	2169
3854.11	2212
3855.734	2183
3857.357	2119
3858.981	2177
3860.603	2233
3862.227	2174
3863.848	2139
3865.471	2118
3867.092	2229
3868.713	2193
3870.334	2162
3871.954	2172
3873.575	2101
3875.194	2135
3876.813	2186
3878.433	2141
3880.051	2142
3881.669	2142
3883.286	2175
3884.904	2146
3886.52	2153
3888.138	2130
3889.754	2160
3891.37	2138
3892.985	2108
3894.6	2112
3896.216	2134
3897.831	2143
3899.444	2187
3901.058	2127
3902.67	2112
3904.283	2183
3905.897	2156
3907.509	2142
3909.121	2099
3910.731	2125
3912.342	2123
3913.954	2097
3915.563	2096
3917.174	2118
3918.783	2116
3920.391	2130
3922.002	2192
3923.611	2099
3925.218	2134
3926.826	2100
3928.432	2090
3930.039	2157
3931.647	2151
3933.253	2123
3934.859	2132
3936.464	2080
3938.068	2087
3939.675	2157
3941.278	2114
3942.883	2196
3944.486	2116
3946.089	2123
3947.692	2088
3949.295	2056
3950.898	2101
3952.499	2129
3954.1	2057
3955.7	2112
3957.303	2043
3958.903	2145
3960.502	2056
3962.101	2074
3963.7	2020
3965.301	2103
3966.899	2063
3968.497	2080
3970.094	2113
3971.691	2085
3973.288	2015
3974.885	2080
3976.481	2084
3978.077	2073
3979.672	2094
3981.267	2066
3982.863	2088
3984.457	2128
3986.051	2018
3987.645	2079
3989.238	2053
3990.831	2083
3992.425	2061
3994.017	2044
3995.607	2078
3997.199	2026
3998.79	1979
4000.382	2095
4001.973	2006
4003.561	2013
4005.151	2025
4006.741	2021
4008.331	2082
4009.918	2001
4011.507	1995
4013.095	2059
4014.681	2024
4016.269	2050
4017.856	2044
4019.443	2046
4021.028	1965
4022.614	1968
4024.199	2026
4025.785	1952
4027.37	2004
4028.953	2009
4030.536	2017
4032.12	2029
4033.704	1957
4035.287	2018
4036.869	1978
4038.45	1989
4040.032	1984
4041.613	1962
4043.195	1997
4044.776	1953
4046.356	1896
4047.935	2010
4049.515	1967
4051.095	1974
4052.674	1994
4054.251	1951
4055.829	1969
4057.406	1925
4058.985	1959
4060.562	2000
4062.139	1971
4063.715	1912
4065.29	1979
4066.865	1954
4068.442	1979
4070.016	1991
4071.59	1996
4073.164	1929
4074.738	1951
4076.312	1921
4077.885	1974
4079.458	1918
4081.03	1970
4082.602	1927
4084.173	1969
4085.745	1924
4087.315	1944
4088.886	1935
4090.456	1934
4092.026	1945
4093.596	1958
4095.165	1960
4096.734	1922
4098.301	1928
4099.869	1881
4101.437	1848
4103.006	1953
4104.572	1934
4106.139	1915
4107.704	1984
4109.27	1939
4110.837	1913
4112.401	1951
4113.966	1920
4115.53	1875
4117.094	1871
4118.659	1952
4120.223	1892
4121.785	1900
4123.347	1907
4124.909	1867
4126.471	1883
4128.034	1902
4129.595	1913
4131.155	1823
4132.716	1902
4134.275	1902
4135.836	1836
4137.395	1850
4138.955	1867
4140.513	1886
4142.071	1909
4143.628	1918
4145.188	1889
4146.745	1827
4148.302	1855
4149.858	1848
4151.414	1801
4152.971	1860
4154.526	1913
4156.081	1834
4157.635	1838
4159.189	1831
4160.745	1796
4162.298	1831
4163.852	1835
4165.405	1831
4166.957	1887
4168.51	1884
4170.063	1876
4171.614	1793
4173.166	1881
4174.717	1882
4176.267	1810
4177.817	1856
4179.368	1888
4180.917	1825
4182.466	1812
4184.016	1894
4185.564	1866
4187.112	1801
4188.66	1821
4190.207	1813
4191.754	1782
4193.301	1800
4194.848	1850
4196.394	1847
4197.94	1789
4199.484	1823
4201.03	1837
4202.575	1770
4204.12	1775
4205.663	1816
4207.207	1823
4208.75	1840
4210.292	1867
4211.836	1751
4213.378	1795
4214.92	1830
4216.46	1816
4218.002	1771
4219.544	1837
4221.083	1763
4222.625	1768
4224.164	1754
4225.703	1814
4227.244	1744
4228.782	1805
4230.32	1814
4231.857	1749
4233.395	1776
4234.933	1748
4236.471	1799
4238.007	1791
4239.542	1786
4241.078	1796
4242.614	1750
4244.15	1771
4245.685	1737
4247.219	1754
4248.753	1801
4250.287	1790
4251.82	1779
4253.354	1755
4254.887	1717
4256.419	1774
4257.951	1767
4259.483	1773
4261.016	1768
4262.547	1765
4264.078	1765
4265.608	1739
4267.137	1737
4268.668	1739
4270.197	1733
4271.727	1713
4273.254	1730
4274.783	1754
4276.311	1797
4277.84	1710
4279.366	1721
4280.894	1799
4282.42	1751
4283.946	1741
4285.473	1705
4286.998	1700
4288.523	1774
4290.047	1724
4291.572	1732
4293.096	1740
4294.622	1737
4296.144	1717
4297.668	1745
4299.19	1781
4300.713	1758
4302.236	1673
4303.758	1715
4305.279	1751
4306.799	1703
4308.321	1679
4309.842	1717
4311.361	1767
4312.882	1679
4314.401	1706
