400.0961	2879
402.6185	2830
405.1424	2917
407.6635	2850
410.1838	2869
412.7035	2960
415.2225	2936
417.7388	2909
420.2585	3007
422.7754	3049
425.2917	3117
427.8072	3078
430.3221	3134
432.8363	3092
435.3498	3159
437.8626	3122
440.3727	3092
442.8841	3134
445.3969	3125
447.907	3156
450.4142	3089
452.9229	3122
455.4289	3073
457.9362	3115
460.4449	3070
462.9488	3050
465.454	3014
467.9566	3060
470.4604	3055
472.9637	3110
475.4662	3016
477.966	3026
480.4671	3083
482.9656	2964
485.4633	3060
487.9645	2971
490.4608	3035
492.9566	3117
495.4536	3078
497.948	3157
500.4437	3066
502.9387	3102
505.431	3135
507.9226	3042
510.4136	3158
512.9079	3061
515.3975	3075
517.8864	3189
520.3746	3115
522.8622	3132
525.3491	3094
527.8394	3100
530.3249	3137
532.8098	3152
535.2939	3166
537.7774	3185
540.2623	3132
542.7444	3160
545.2259	3182
547.7067	3222
550.1868	3124
552.6683	3095
555.147	3198
557.6231	3204
560.1005	3226
562.5773	3210
565.0534	3217
567.5308	3249
570.0056	3214
572.4776	3195
574.951	3270
577.4237	3286
579.8978	3403
582.3671	3342
584.8378	3347
587.3079	3321
589.7773	3339
592.244	3416
594.714	3365
597.1793	3295
599.6461	3300
602.1121	3235
604.5754	3248
607.0421	3287
609.5042	3235
611.9675	3270
614.4282	3197
616.8902	3269
619.3515	3274
621.8122	3239
624.2702	3230
626.7296	3229
629.1863	3265
631.6423	3178
634.1017	3185
636.5563	3146
639.0104	3238
641.4658	3213
643.9185	3191
646.3725	3152
648.8239	3225
651.2766	3278
653.7266	3179
656.176	3310
658.6247	3158
661.0748	3288
663.5242	3183
665.9709	3299
668.417	3314
670.8624	3267
673.3092	3300
675.7533	3386
678.1968	3319
680.6395	3340
683.0817	3342
685.5251	3315
687.9659	3280
690.4061	3249
692.8456	3338
695.2844	3351
697.7226	3384
700.1621	3333
702.599	3298
705.0332	3285
707.4688	3387
709.9036	3388
712.3399	3282
714.7735	3282
717.2044	3391
719.6367	3404
722.0683	3392
724.4993	3391
726.9296	3446
729.3593	3463
731.7883	3478
734.2147	3483
736.6423	3480
739.0714	3471
741.4958	3407
743.9216	3480
746.3447	3501
748.7691	3497
751.1929	3462
753.616	3580
756.0366	3560
758.4584	3541
760.8776	3501
763.2982	3614
765.718	3496
768.1373	3539
770.5539	3651
772.9698	3574
775.3871	3461
777.8038	3578
780.2178	3503
782.6332	3645
785.0459	3554
787.458	3597
789.8714	3514
792.2842	3581
794.6943	3546
797.1038	3583
799.5127	3596
801.9209	3541
804.3324	3492
806.7393	3700
809.1456	3652
811.5513	3614
813.9562	3568
816.3625	3595
818.7663	3541
821.1693	3578
823.5718	3626
825.9735	3567
828.3746	3703
830.7771	3607
833.177	3665
835.5762	3642
837.9747	3638
840.3727	3684
842.772	3607
845.1666	3710
847.5626	3714
849.958	3789
852.3527	3666
854.7488	3862
857.1403	3806
859.5331	3845
861.9253	3672
864.3168	3740
866.7057	3721
869.098	3672
871.4876	3661
873.8746	3780
876.263	3693
878.6487	3715
881.0378	3665
883.4243	3706
885.8081	3651
888.1933	3715
890.5759	3712
892.9598	3650
895.343	3713
897.7256	3664
900.1057	3612
902.4871	3729
904.8659	3757
907.246	3695
909.6254	3806
912.0023	3810
914.3786	3834
916.7562	3906
919.1331	3988
921.5074	3980
923.8831	4024
926.2562	4016
928.6287	4018
931.0005	3914
933.3757	3949
935.7462	4011
938.1162	3987
940.4855	4110
942.8542	4135
945.2242	4220
947.5916	4260
949.9584	4458
952.3266	4617
954.6921	4864
957.0571	5189
959.4233	5370
961.787	5544
964.15	5390
966.5125	5218
968.8742	4915
971.2354	4610
973.5959	4294
975.9559	4099
978.3151	4054
980.6738	3914
983.0338	3899
985.3912	3933
987.7461	3855
990.1022	3879
992.4578	3821
994.8127	3872
997.1689	3952
999.5207	3943
1001.874	3965
1004.226	3914
1006.576	3910
1008.929	3985
1011.28	3857
1013.628	3906
1015.977	3932
1018.324	3828
1020.674	3887
1023.019	3873
1025.366	3909
1027.713	3941
1030.056	3946
1032.399	3990
1034.746	3917
1037.087	3994
1039.431	3931
1041.771	3921
1044.113	4045
1046.454	3943
1048.793	4028
1051.133	4007
1053.471	4018
1055.807	4024
1058.146	4005
1060.483	4036
1062.818	4079
1065.153	4115
1067.489	3980
1069.822	4044
1072.156	4097
1074.488	4093
1076.82	4111
1079.15	4028
1081.48	4090
1083.814	3996
1086.143	3967
1088.471	3976
1090.799	4081
1093.126	3938
1095.452	3928
1097.78	3972
1100.105	3961
1102.43	4039
1104.754	3886
1107.077	3894
1109.4	3949
1111.722	4016
1114.044	3834
1116.365	3974
1118.685	3922
1121.005	3970
1123.324	4038
1125.643	3919
1127.961	4028
1130.278	4001
1132.595	3976
1134.911	3948
1137.226	3936
1139.541	3948
1141.854	3894
1144.167	3810
1146.482	3936
1148.793	3923
1151.105	3982
1153.414	3943
1155.725	4021
1158.033	4058
1160.344	3895
1162.651	4031
1164.959	3941
1167.265	3991
1169.572	3964
1171.878	3941
1174.184	4006
1176.488	3890
1178.79	4090
1181.094	4083
1183.396	3925
1185.699	4004
1188.001	3909
1190.301	3815
1192.6	4027
1194.9	3971
1197.2	3917
1199.497	3950
1201.794	3968
1204.09	3949
1206.387	3921
1208.684	3954
1210.978	3985
1213.272	4054
1215.565	4019
1217.858	3960
1220.15	4062
1222.443	3908
1224.734	3989
1227.024	4060
1229.313	4091
1231.602	4131
1233.892	4055
1236.18	4088
1238.467	4090
1240.754	4093
1243.04	4166
1245.325	4242
1247.612	4192
1249.896	4199
1252.178	4269
1254.461	4291
1256.743	4127
1259.027	4183
1261.308	4142
1263.587	4174
1265.867	4174
1268.146	4276
1270.425	4279
1272.703	4301
1274.981	4181
1277.256	4233
1279.532	4237
1281.808	4182
1284.083	4063
1286.358	4085
1288.63	4030
1290.904	4128
1293.175	4052
1295.449	4116
1297.719	4089
1299.99	4127
1302.259	4143
1304.529	4153
1306.798	4086
1309.065	4101
1311.333	4092
1313.599	4132
1315.866	4046
1318.131	4092
1320.396	4093
1322.66	4065
1324.925	4070
1327.187	4118
1329.448	4166
1331.711	3989
1333.974	4162
1336.234	4106
1338.493	4105
1340.752	4098
1343.01	4058
1345.269	4135
1347.526	4104
1349.784	4162
1352.04	4051
1354.295	4120
1356.552	4136
1358.806	4077
1361.059	4070
1363.312	4009
1365.564	4017
1367.818	4072
1370.069	4163
1372.318	4161
1374.568	4062
1376.817	4200
1379.066	4051
1381.316	4206
1383.564	4132
1385.809	4155
1388.056	4107
1390.301	4187
1392.549	4254
1394.793	4301
1397.036	4243
1399.279	4300
1401.522	4325
1403.763	4305
1406.007	4313
1408.248	4179
1410.487	4284
1412.727	4330
1414.965	4262
1417.205	4253
1419.442	4256
1421.68	4151
1423.915	4337
1426.152	4297
1428.388	4282
1430.623	4233
1432.857	4361
1435.091	4374
1437.323	4338
1439.556	4353
1441.789	4477
1444.019	4483
1446.25	4321
1448.48	4419
1450.708	4419
1452.938	4383
1455.167	4521
1457.394	4475
1459.62	4367
1461.846	4421
1464.073	4469
1466.299	4367
1468.523	4350
1470.746	4268
1472.969	4351
1475.191	4323
1477.415	4345
1479.636	4194
1481.858	4159
1484.078	4129
1486.298	4183
1488.518	4157
1490.736	4071
1492.954	4192
1495.169	4120
1497.386	4167
1499.602	4024
1501.819	4041
1504.034	4082
1506.248	4149
1508.462	4088
1510.675	4164
1512.888	4082
1515.1	4123
1517.311	4070
1519.522	4139
1521.732	4010
1523.942	4195
1526.151	4065
1528.36	4091
1530.566	4102
1532.773	4133
1534.98	4071
1537.187	4082
1539.392	4126
1541.596	4133
1543.801	4085
1546.005	4094
1548.208	4117
1550.411	4206
1552.612	4198
1554.814	4180
1557.013	4117
1559.212	4200
1561.414	4219
1563.612	4204
1565.811	4155
1568.007	4104
1570.203	4242
1572.403	4113
1574.598	4237
1576.792	4189
1578.988	4292
1581.181	4110
1583.376	4261
1585.568	4154
1587.761	4215
1589.952	4260
1592.143	4230
1594.333	4156
1596.524	4252
1598.715	4264
1600.903	4255
1603.091	4280
1605.278	4261
1607.466	4316
1609.652	4260
1611.838	4270
1614.023	4301
1616.207	4311
1618.391	4248
1620.576	4268
1622.759	4211
1624.941	4368
1627.123	4304
1629.304	4279
1631.484	4322
1633.664	4348
1635.844	4312
1638.022	4315
1640.201	4359
1642.38	4410
1644.556	4419
1646.732	4380
1648.908	4323
1651.084	4311
1653.257	4345
1655.433	4396
1657.607	4364
1659.779	4427
1661.951	4358
1664.122	4456
1666.295	4573
1668.467	4441
1670.635	4413
1672.805	4380
1674.973	4450
1677.142	4372
1679.31	4410
1681.478	4326
1683.644	4403
1685.81	4406
1687.975	4337
1690.142	4414
1692.305	4310
1694.468	4384
1696.632	4339
1698.794	4284
1700.957	4287
1703.119	4254
1705.279	4267
1707.439	4280
1709.598	4255
1711.758	4268
1713.917	4262
1716.075	4247
1718.231	4184
1720.388	4282
1722.543	4269
1724.702	4219
1726.856	4199
1729.01	4135
1731.164	4098
1733.317	4196
1735.471	4220
1737.623	4284
1739.774	4202
1741.925	4240
1744.075	4206
1746.225	4178
1748.376	4205
1750.524	4214
1752.672	4226
1754.82	4226
1756.965	4235
1759.113	4319
1761.259	4297
1763.405	4253
1765.549	4353
1767.694	4242
1769.836	4250
1771.981	4289
1774.123	4243
1776.264	4312
1778.405	4275
1780.546	4275
1782.687	4219
1784.827	4192
1786.966	4182
1789.103	4281
1791.242	4295
1793.381	4341
1795.517	4361
1797.653	4343
1799.788	4245
1801.923	4288
1804.057	4282
1806.193	4268
1808.326	4383
1810.457	4271
1812.59	4214
1814.721	4262
1816.855	4407
1818.984	4296
1821.113	4237
1823.244	4309
1825.372	4288
1827.499	4211
1829.63	4267
1831.756	4284
1833.882	4241
1836.007	4242
1838.132	4180
1840.26	4281
1842.384	4218
1844.507	4235
1846.63	4203
1848.752	4181
1850.875	4189
1852.996	4281
1855.118	4231
1857.238	4219
1859.358	4309
1861.477	4230
1863.597	4191
1865.715	4278
1867.832	4309
1869.948	4240
1872.064	4248
1874.181	4277
1876.297	4192
1878.411	4344
1880.526	4212
1882.639	4283
1884.752	4202
1886.865	4276
1888.977	4180
1891.089	4266
1893.2	4246
1895.308	4247
1897.42	4303
1899.53	4320
1901.639	4263
1903.745	4236
1905.853	4296
1907.962	4357
1910.067	4336
1912.174	4232
1914.278	4271
1916.383	4291
1918.486	4314
1920.592	4248
1922.694	4369
1924.797	4408
1926.898	4335
1929	4352
1931.102	4368
1933.203	4359
1935.301	4351
1937.401	4306
1939.499	4340
1941.598	4406
1943.697	4331
1945.793	4297
1947.888	4295
1949.985	4319
1952.08	4284
1954.176	4423
1956.269	4331
1958.364	4312
1960.457	4389
1962.549	4240
1964.642	4342
1966.733	4422
1968.823	4330
1970.913	4367
1973.005	4241
1975.093	4336
1977.184	4336
1979.271	4274
1981.359	4336
1983.446	4297
1985.532	4296
1987.619	4257
1989.705	4293
1991.789	4272
1993.874	4269
1995.956	4287
1998.041	4229
2000.123	4281
2002.206	4259
2004.287	4234
2006.368	4277
2008.449	4306
2010.529	4313
2012.609	4331
2014.688	4267
2016.766	4337
2018.843	4349
2020.922	4309
2022.999	4250
2025.074	4233
2027.15	4287
2029.225	4206
2031.299	4352
2033.375	4279
2035.447	4292
2037.52	4297
2039.592	4297
2041.664	4298
2043.736	4311
2045.807	4294
2047.876	4253
2049.947	4206
2052.015	4200
2054.086	4261
2056.153	4346
2058.221	4344
2060.288	4280
2062.353	4232
2064.42	4335
2066.486	4314
2068.55	4323
2070.614	4323
2072.678	4337
2074.741	4274
2076.805	4311
2078.866	4316
2080.929	4288
2082.99	4339
2085.049	4284
2087.109	4379
2089.17	4373
2091.228	4233
2093.286	4278
2095.344	4323
2097.4	4397
2099.46	4263
2101.516	4265
2103.572	4364
2105.626	4262
2107.679	4294
2109.735	4314
2111.788	4289
2113.841	4302
2115.894	4267
2117.945	4377
2119.997	4303
2122.049	4266
2124.1	4296
2126.148	4290
2128.197	4310
2130.246	4406
2132.296	4293
2134.342	4321
2136.39	4278
2138.437	4374
2140.483	4311
2142.527	4219
2144.574	4258
2146.619	4213
2148.661	4325
2150.705	4281
2152.747	4240
2154.792	4322
2156.832	4280
2158.874	4323
2160.915	4277
2162.954	4290
2164.995	4351
2167.034	4263
2169.072	4190
2171.111	4162
2173.148	4210
2175.186	4290
2177.223	4258
2179.258	4293
2181.294	4278
2183.328	4250
2185.362	4311
2187.398	4225
2189.431	4215
2191.463	4229
2193.495	4216
2195.528	4188
2197.56	4186
2199.59	4275
2201.62	4205
2203.649	4187
2205.678	4209
2207.708	4230
2209.737	4174
2211.764	4154
2213.791	4101
2215.817	4184
2217.843	4242
2219.87	4238
2221.895	4187
2223.919	4218
2225.942	4229
2227.966	4180
2229.988	4102
2232.012	4103
2234.032	4151
2236.054	4226
2238.074	4150
2240.095	4211
2242.116	4157
2244.135	4235
2246.153	4234
2248.171	4202
2250.188	4157
2252.208	4229
2254.223	4180
2256.239	4154
2258.255	4204
2260.269	4229
2262.283	4218
2264.3	4197
2266.312	4236
2268.325	4262
2270.336	4186
2272.349	4250
2274.362	4201
2276.372	4257
2278.383	4181
2280.392	4281
2282.402	4160
2284.409	4150
2286.418	4201
2288.427	4192
2290.433	4166
2292.441	4171
2294.446	4132
2296.453	4242
2298.459	4207
2300.463	4179
2302.466	4196
2304.471	4170
2306.475	4267
2308.477	4134
2310.478	4184
2312.481	4206
2314.481	4187
2316.481	4150
2318.482	4058
2320.482	4220
2322.48	4161
2324.48	4182
2326.478	4248
2328.476	4202
2330.473	4215
2332.469	4155
2334.465	4108
2336.46	4108
2338.454	4163
2340.45	4135
2342.444	4097
2344.437	4124
2346.43	4151
2348.421	4153
2350.414	4094
2352.405	4027
2354.396	4130
2356.386	4173
2358.376	4072
2360.366	4089
2362.355	4100
2364.343	4169
2366.331	4173
2368.317	4213
2370.304	3998
2372.292	4193
2374.278	4180
2376.262	4042
2378.247	4101
2380.23	4086
2382.216	4083
2384.199	4176
2386.181	4104
2388.163	4169
2390.144	4098
2392.127	4153
2394.107	4044
2396.087	4060
2398.066	3980
2400.046	4092
2402.023	4029
2404.004	4151
2405.981	4082
2407.957	4125
2409.934	4071
2411.91	4171
2413.886	4102
2415.862	4069
2417.836	4103
2419.809	4141
2421.784	4186
2423.756	4008
2425.73	4203
2427.701	4055
2429.672	4068
2431.644	4108
2433.615	4149
2435.586	4052
2437.555	4124
2439.523	4052
2441.491	4026
2443.459	4102
2445.428	4066
2447.395	4055
2449.361	4115
2451.327	4082
2453.292	4022
2455.257	4062
2457.223	4031
2459.187	4046
2461.15	4017
2463.113	4149
2465.076	4078
2467.039	4068
2468.999	3971
2470.96	4000
2472.921	4041
2474.881	4009
2476.841	4013
2478.8	4009
2480.759	3996
2482.717	4057
2484.675	4171
2486.63	4016
2488.589	4121
2490.545	3962
2492.5	3987
2494.455	4100
2496.408	4065
2498.364	3888
2500.318	4023
2502.27	3981
2504.223	3991
2506.174	4045
2508.126	4116
2510.078	4017
2512.03	4140
2513.979	4043
2515.927	4018
2517.877	3956
2519.826	4025
2521.775	3979
2523.722	3992
2525.668	4074
2527.616	4015
2529.561	3960
2531.508	4016
2533.452	4019
2535.398	4043
2537.342	4007
2539.284	3951
2541.229	4030
2543.173	3979
2545.114	4056
2547.055	3982
2548.996	3964
2550.938	4024
2552.878	4002
2554.817	3948
2556.756	4043
2558.695	4029
2560.633	4018
2562.572	4001
2564.509	4105
2566.445	3987
2568.382	4040
2570.317	3983
2572.254	3956
2574.189	4125
2576.123	4069
2578.057	4099
2579.99	4017
2581.923	3995
2583.855	4081
2585.788	3943
2587.719	3986
2589.65	4090
2591.579	4103
2593.511	4068
2595.44	4076
2597.37	3959
2599.297	4041
2601.225	4089
2603.153	3994
2605.08	3967
2607.007	4046
2608.932	4060
2610.858	4029
2612.782	4110
2614.709	4094
2616.632	4036
2618.556	4019
2620.478	4055
2622.401	4055
2624.324	4047
2626.247	3996
2628.167	4048
2630.088	4112
2632.008	4038
2633.928	4029
2635.848	4029
2637.766	4033
2639.684	4105
2641.603	4073
2643.519	4085
2645.437	4035
2647.353	4072
2649.27	3992
2651.184	4077
2653.099	4006
2655.014	4078
2656.928	4020
2658.842	4083
2660.755	4067
2662.667	3970
2664.579	3960
2666.491	4026
2668.402	4038
2670.312	3957
2672.222	4017
2674.132	3986
2676.042	4014
2677.951	3982
2679.859	4044
2681.766	4013
2683.674	3977
2685.582	4000
2687.488	4029
2689.392	4007
2691.298	4069
2693.202	3963
2695.107	3955
2697.012	3982
2698.914	4092
2700.817	3910
2702.72	4025
2704.622	4009
2706.524	3975
2708.425	3993
2710.326	3959
2712.225	3920
2714.125	3941
2716.024	3885
2717.923	3936
2719.822	4002
2721.719	3957
2723.616	4027
2725.512	4020
2727.41	3952
2729.305	3892
2731.201	3905
2733.095	4028
2734.99	3986
2736.884	3946
2738.778	4024
2740.67	3963
2742.562	3951
2744.455	4005
2746.346	3977
2748.238	3881
2750.129	4089
2752.018	3857
2753.907	3927
2755.797	3885
2757.687	4024
2759.575	3987
2761.462	3982
2763.349	3959
2765.237	4024
2767.124	3930
2769.009	3924
2770.894	3952
2772.779	3974
2774.663	3876
2776.547	3984
2778.431	3999
2780.314	3985
2782.197	3967
2784.078	3983
2785.96	4007
2787.842	3915
2789.723	3929
2791.603	4020
2793.483	3896
2795.362	3933
2797.241	3941
2799.121	3916
2800.997	3873
2802.874	3960
2804.751	3913
2806.628	3930
2808.506	3985
2810.38	3879
2812.255	3979
2814.13	3918
2816.003	3969
2817.878	3907
2819.752	3945
2821.623	3942
2823.496	3943
2825.368	3992
2827.238	3933
2829.111	4078
2830.98	3939
2832.851	4054
2834.719	4010
2836.589	3981
2838.458	4100
2840.327	3917
2842.193	4034
2844.061	3893
2845.927	3979
2847.794	3971
2849.66	3968
2851.525	4150
2853.39	4069
2855.254	4107
2857.117	4088
2858.983	4013
2860.845	4206
2862.707	4108
2864.569	4189
2866.431	4138
2868.293	4217
2870.154	4225
2872.013	4326
2873.873	4258
2875.733	4287
2877.592	4360
2879.451	4412
2881.309	4524
2883.166	4456
2885.022	4535
2886.879	4533
2888.736	4483
2890.591	4654
2892.446	4634
2894.301	4615
2896.155	4670
2898.009	4644
2899.863	4561
2901.716	4521
2903.568	4558
2905.419	4526
2907.27	4536
2909.123	4518
2910.973	4545
2912.824	4647
2914.673	4661
2916.521	4718
2918.372	4734
2920.22	4711
2922.067	4694
2923.914	4866
2925.761	4960
2927.607	4970
2929.455	5068
2931.301	5032
2933.144	5114
2934.99	5073
2936.833	5163
2938.678	5276
2940.522	5068
2942.364	5298
2944.207	5347
2946.048	5469
2947.891	5436
2949.731	5482
2951.571	5439
2953.412	5504
2955.25	5416
2957.09	5224
2958.93	5265
2960.767	5152
2962.606	5028
2964.443	5133
2966.279	5063
2968.116	4922
2969.953	4856
2971.788	4845
2973.623	4701
2975.457	4819
2977.292	4725
2979.127	4755
2980.959	4712
2982.792	4589
2984.624	4603
2986.455	4673
2988.288	4602
2990.119	4591
2991.949	4516
2993.779	4418
2995.608	4482
2997.439	4358
2999.268	4386
3001.096	4356
3002.923	4315
3004.751	4269
3006.578	4161
3008.406	4134
3010.232	4122
3012.057	4163
3013.883	4046
3015.706	4057
3017.532	4014
3019.356	3929
3021.179	4037
3023.002	3998
3024.823	3998
3026.646	4014
3028.469	3914
3030.289	3927
3032.11	3902
3033.93	3857
3035.749	3896
3037.57	3773
3039.39	3842
3041.207	3802
3043.026	3892
3044.842	3933
3046.661	3825
3048.477	3823
3050.294	3849
3052.109	3859
3053.925	3860
3055.739	3831
3057.555	3826
3059.368	3846
3061.181	3829
3062.995	3733
3064.807	3840
3066.62	3730
3068.433	3860
3070.243	3914
3072.054	3805
3073.865	3793
3075.675	3802
3077.485	3854
3079.293	3770
3081.102	3757
3082.911	3831
3084.719	3713
3086.527	3796
3088.333	3747
3090.139	3847
3091.945	3669
3093.75	3726
3095.557	3785
3097.361	3797
3099.165	3752
3100.969	3737
3102.772	3737
3104.575	3762
3106.379	3755
3108.181	3692
3109.982	3677
3111.783	3659
3113.584	3711
3115.386	3753
3117.186	3643
3118.985	3747
3120.783	3712
3122.582	3669
3124.381	3693
3126.179	3662
3127.975	3689
3129.772	3701
3131.569	3643
3133.365	3708
3135.161	3672
3136.956	3683
3138.751	3679
3140.544	3666
3142.338	3638
3144.132	3690
3145.925	3657
3147.717	3606
3149.509	3617
3151.301	3641
3153.091	3532
3154.884	3560
3156.673	3558
3158.462	3647
3160.252	3696
3162.041	3663
3163.831	3564
3165.618	3648
3167.405	3570
3169.193	3649
3170.979	3621
3172.767	3647
3174.553	3647
3176.338	3601
3178.123	3634
3179.907	3571
3181.692	3549
3183.477	3653
3185.259	3609
3187.042	3542
3188.824	3665
3190.607	3692
3192.389	3603
3194.17	3593
3195.951	3529
3197.73	3645
3199.51	3644
3201.289	3598
3203.07	3642
3204.848	3665
3206.626	3631
3208.403	3568
3210.18	3600
3211.959	3645
3213.735	3493
3215.511	3664
3217.285	3584
3219.06	3635
3220.836	3681
3222.611	3618
3224.384	3652
3226.158	3621
3227.929	3630
3229.702	3594
3231.476	3693
3233.248	3668
3235.018	3658
3236.789	3659
3238.56	3645
3240.33	3585
3242.1	3626
3243.869	3690
3245.637	3615
3247.405	3586
3249.172	3668
3250.941	3627
3252.707	3666
3254.474	3614
3256.24	3636
3258.006	3679
3259.772	3579
3261.537	3703
3263.301	3730
3265.065	3611
3266.828	3591
3268.592	3688
3270.355	3673
3272.117	3544
3273.878	3615
3275.64	3623
3277.401	3707
3279.162	3609
3280.922	3608
3282.682	3714
3284.441	3552
3286.199	3716
3287.959	3590
3289.716	3550
3291.475	3581
3293.232	3593
3294.988	3607
3296.744	3611
3298.501	3669
3300.256	3647
3302.011	3711
3303.766	3659
3305.52	3650
3307.275	3680
3309.028	3641
3310.781	3582
3312.533	3587
3314.285	3603
3316.038	3676
3317.789	3650
3319.54	3608
3321.289	3701
3323.039	3765
3324.789	3698
3326.539	3645
3328.288	3604
3330.035	3621
3331.783	3690
3333.531	3657
3335.28	3691
3337.025	3593
3338.771	3596
3340.518	3659
3342.262	3579
3344.009	3639
3345.753	3619
3347.497	3580
3349.24	3634
3350.983	3596
3352.726	3613
3354.469	3549
3356.212	3624
3357.952	3568
3359.694	3528
3361.434	3679
3363.176	3559
3364.916	3633
3366.654	3509
3368.394	3640
3370.132	3599
3371.871	3516
3373.61	3548
3375.346	3554
3377.083	3462
3378.82	3529
3380.556	3520
3382.292	3503
3384.027	3543
3385.763	3535
3387.497	3528
3389.231	3533
3390.965	3527
3392.698	3502
3394.431	3540
3396.164	3512
3397.896	3550
3399.627	3538
3401.36	3510
3403.09	3593
3404.82	3520
3406.55	3447
3408.279	3447
3410.01	3500
3411.738	3483
3413.467	3463
3415.194	3454
3416.92	3516
3418.647	3445
3420.375	3512
3422.102	3409
3423.827	3424
3425.553	3401
3427.277	3510
3429.003	3528
3430.727	3462
3432.451	3454
3434.173	3416
3435.896	3408
3437.62	3385
3439.343	3426
3441.063	3443
3442.785	3407
3444.505	3391
3446.226	3467
3447.948	3418
3449.666	3396
3451.386	3426
3453.104	3341
3454.823	3440
3456.541	3418
3458.259	3358
3459.976	3460
3461.693	3383
3463.408	3457
3465.125	3375
3466.841	3419
3468.556	3366
3470.271	3341
3471.985	3365
3473.698	3387
3475.414	3337
3477.126	3294
3478.838	3316
3480.55	3341
3482.263	3306
3483.975	3322
3485.686	3338
3487.396	3324
3489.106	3338
3490.817	3305
3492.526	3316
3494.236	3266
3495.944	3264
3497.652	3260
3499.359	3248
3501.066	3326
3502.775	3276
3504.481	3234
3506.187	3272
3507.893	3261
3509.598	3248
3511.304	3201
3513.009	3206
3514.713	3206
3516.417	3229
3518.12	3218
3519.821	3260
3521.525	3194
3523.228	3190
3524.929	3162
3526.631	3166
3528.33	3159
3530.032	3105
3531.733	3201
3533.433	3147
3535.131	3200
3536.83	3174
3538.529	3176
3540.227	3164
3541.925	3150
3543.623	3105
3545.319	3173
3547.016	3128
3548.712	3217
3550.408	3083
3552.103	3123
3553.798	3165
3555.491	3112
3557.188	3160
3558.88	3112
3560.574	3112
3562.266	3065
3563.959	3149
3565.651	3090
3567.343	3104
3569.035	3096
3570.725	3108
3572.415	3089
3574.106	3160
3575.797	3102
3577.485	3119
3579.174	3094
3580.863	3083
3582.551	3035
3584.238	3111
3585.926	3081
3587.613	3018
3589.3	3113
3590.986	3003
3592.671	3079
3594.357	3048
3596.042	3060
3597.726	3093
3599.41	3080
3601.094	3015
3602.778	3002
3604.461	2965
3606.143	3007
3607.825	3106
3609.507	3027
3611.188	3053
3612.87	2911
3614.551	2912
3616.229	2936
3617.909	2910
3619.589	3003
3621.269	2948
3622.948	2957
3624.625	2941
3626.302	2952
3627.98	2902
3629.657	2925
3631.334	2991
3633.01	2990
3634.686	2887
3636.361	2875
3638.036	2879
3639.712	2893
3641.385	2935
3643.06	2850
3644.732	2848
3646.405	2913
3648.08	2896
3649.751	2867
3651.424	2806
3653.094	2892
3654.766	2926
3656.436	2841
3658.106	2877
3659.777	2859
3661.446	2794
3663.115	2814
3664.783	2799
3666.452	2846
3668.121	2924
3669.788	2794
3671.454	2811
3673.121	2853
3674.789	2865
3676.455	2858
3678.12	2874
3679.784	2783
3681.45	2801
3683.114	2835
3684.779	2807
3686.442	2807
3688.105	2860
3689.768	2815
3691.43	2854
3693.093	2766
3694.754	2806
3696.415	2808
3698.076	2785
3699.736	2809
3701.396	2751
3703.057	2834
3704.716	2752
3706.375	2901
3708.034	2782
3709.692	2832
3711.351	2711
3713.008	2780
3714.665	2823
3716.321	2783
3717.977	2778
3719.634	2790
3721.29	2791
3722.945	2746
3724.598	2794
3726.253	2740
3727.907	2775
3729.561	2722
3731.214	2791
3732.867	2742
3734.518	2759
3736.171	2770
3737.824	2715
3739.474	2697
3741.125	2751
3742.775	2821
3744.425	2713
3746.074	2767
3747.725	2667
3749.373	2728
3751.022	2740
3752.669	2766
3754.318	2755
3755.966	2743
3757.612	2745
3759.259	2661
3760.905	2670
3762.55	2681
3764.197	2689
3765.842	2750
3767.486	2691
3769.131	2639
3770.774	2719
3772.417	2673
3774.061	2666
3775.705	2666
3777.347	2661
3778.988	2658
3780.629	2669
3782.271	2726
3783.912	2681
3785.552	2702
3787.192	2715
3788.831	2651
3790.472	2646
3792.112	2653
3793.75	2623
3795.388	2646
3797.024	2677
3798.661	2678
3800.3	2767
3801.936	2637
3803.572	2647
3805.208	2657
3806.844	2605
3808.48	2636
3810.115	2588
3811.748	2614
3813.382	2677
3815.016	2628
3816.649	2577
3818.283	2671
3819.914	2600
3821.547	2584
3823.178	2684
3824.809	2676
3826.441	2555
3828.072	2629
3829.701	2588
3831.331	2678
3832.96	2558
3834.591	2656
3836.219	2526
3837.847	2635
3839.475	2608
3841.102	2604
3842.729	2655
3844.357	2587
3845.984	2537
3847.609	2600
3849.234	2569
3850.86	2627
3852.485	2597
3854.11	2521
3855.734	2645
3857.357	2581
3858.981	2606
3860.603	2545
3862.227	2587
3863.848	2559
3865.471	2536
3867.092	2546
3868.713	2557
3870.334	2572
3871.954	2582
3873.575	2554
3875.194	2562
3876.813	2479
3878.433	2590
3880.051	2588
3881.669	2528
3883.286	2616
3884.904	2523
3886.52	2466
3888.138	2516
3889.754	2522
3891.37	2578
3892.985	2516
3894.6	2587
3896.216	2489
3897.831	2520
3899.444	2499
3901.058	2526
3902.67	2609
3904.283	2530
3905.897	2571
3907.509	2529
3909.121	2535
3910.731	2471
3912.342	2493
3913.954	2490
3915.563	2538
3917.174	2563
3918.783	2556
3920.391	2575
3922.002	2552
3923.611	2541
3925.218	2545
3926.826	2523
3928.432	2567
3930.039	2487
3931.647	2547
3933.253	2482
3934.859	2496
3936.464	2490
3938.068	2453
3939.675	2508
3941.278	2482
3942.883	2500
3944.486	2476
3946.089	2455
3947.692	2483
3949.295	2486
3950.898	2388
3952.499	2485
3954.1	2555
3955.7	2511
3957.303	2504
3958.903	2503
3960.502	2477
3962.101	2502
3963.7	2429
3965.301	2509
3966.899	2413
3968.497	2506
3970.094	2499
3971.691	2424
3973.288	2483
3974.885	2494
3976.481	2407
3978.077	2482
3979.672	2467
3981.267	2436
3982.863	2441
3984.457	2410
3986.051	2427
3987.645	2477
3989.238	2482
3990.831	2430
3992.425	2480
3994.017	2424
3995.607	2459
3997.199	2427
3998.79	2425
4000.382	2351
4001.973	2403
4003.561	2388
4005.151	2422
4006.741	2370
4008.331	2409
4009.918	2408
4011.507	2297
4013.095	2375
4014.681	2348
4016.269	2403
4017.856	2391
4019.443	2390
4021.028	2387
4022.614	2353
4024.199	2431
4025.785	2329
4027.37	2399
4028.953	2356
4030.536	2335
4032.12	2261
4033.704	2336
4035.287	2356
4036.869	2384
4038.45	2295
4040.032	2333
4041.613	2337
4043.195	2313
4044.776	2381
4046.356	2340
4047.935	2297
4049.515	2342
4051.095	2332
4052.674	2307
4054.251	2279
4055.829	2305
4057.406	2291
4058.985	2321
4060.562	2322
4062.139	2327
4063.715	2333
4065.29	2322
4066.865	2273
4068.442	2249
4070.016	2210
4071.59	2324
4073.164	2360
4074.738	2286
4076.312	2317
4077.885	2300
4079.458	2301
4081.03	2312
4082.602	2341
4084.173	2299
4085.745	2303
4087.315	2324
4088.886	2331
4090.456	2238
4092.026	2340
4093.596	2239
4095.165	2292
4096.734	2249
4098.301	2293
4099.869	2281
4101.437	2271
4103.006	2315
4104.572	2273
4106.139	2274
4107.704	2278
4109.27	2265
4110.837	2285
4112.401	2270
4113.966	2237
4115.53	2269
4117.094	2225
4118.659	2273
4120.223	2286
4121.785	2188
4123.347	2235
4124.909	2256
4126.471	2230
4128.034	2215
4129.595	2244
4131.155	2281
4132.716	2233
4134.275	2265
4135.836	2262
4137.395	2205
4138.955	2221
4140.513	2218
4142.071	2259
4143.628	2210
4145.188	2220
4146.745	2265
4148.302	2248
4149.858	2211
4151.414	2166
4152.971	2219
4154.526	2220
4156.081	2189
4157.635	2202
4159.189	2203
4160.745	2194
4162.298	2135
4163.852	2164
4165.405	2167
4166.957	2173
4168.51	2175
4170.063	2164
4171.614	2194
4173.166	2168
4174.717	2147
4176.267	2173
4177.817	2188
4179.368	2197
4180.917	2142
4182.466	2190
4184.016	2197
4185.564	2136
4187.112	2231
4188.66	2135
4190.207	2167
4191.754	2112
4193.301	2118
4194.848	2144
4196.394	2166
4197.94	2093
4199.484	2129
4201.03	2115
4202.575	2098
4204.12	2177
4205.663	2126
4207.207	2149
4208.75	2182
4210.292	2076
4211.836	2138
4213.378	2080
4214.92	2090
4216.46	2152
4218.002	2132
4219.544	2058
4221.083	2132
4222.625	2098
4224.164	2120
4225.703	2129
4227.244	2073
4228.782	2089
4230.32	2144
4231.857	2134
4233.395	2101
4234.933	2101
4236.471	2065
4238.007	2100
4239.542	2089
4241.078	2119
4242.614	2096
4244.15	2119
4245.685	2068
4247.219	2065
4248.753	2077
4250.287	2084
4251.82	2096
4253.354	2053
4254.887	2146
4256.419	2121
4257.951	2046
4259.483	2019
4261.016	2055
4262.547	2082
4264.078	2042
4265.608	1987
4267.137	2098
4268.668	2030
4270.197	2097
4271.727	2085
4273.254	2078
4274.783	2100
4276.311	2083
4277.84	2043
4279.366	2056
4280.894	2049
4282.42	2087
4283.946	2054
4285.473	2035
4286.998	2036
4288.523	2039
4290.047	2011
4291.572	2076
4293.096	2064
4294.622	2056
4296.144	2047
4297.668	2017
4299.19	2071
4300.713	2092
4302.236	2034
4303.758	2030
4305.279	2050
4306.799	1995
4308.321	2023
4309.842	2017
4311.361	1986
4312.882	2017
4314.401	1986
