400.0961	2866
402.6185	2922
405.1424	2913
407.6635	2881
410.1838	2876
412.7035	2959
415.2225	2974
417.7388	3042
420.2585	2986
422.7754	3033
425.2917	3069
427.8072	3104
430.3221	3125
432.8363	3163
435.3498	3147
437.8626	3147
440.3727	3098
442.8841	3133
445.3969	3063
447.907	3131
450.4142	3179
452.9229	3037
455.4289	3105
457.9362	3054
460.4449	3078
462.9488	3090
465.454	3003
467.9566	3020
470.4604	3034
472.9637	3039
475.4662	2936
477.966	2978
480.4671	2955
482.9656	3028
485.4633	3049
487.9645	3017
490.4608	3135
492.9566	3070
495.4536	3096
497.948	3056
500.4437	3122
502.9387	3045
505.431	3082
507.9226	2985
510.4136	3066
512.9079	3115
515.3975	3046
517.8864	3142
520.3746	3088
522.8622	3081
525.3491	3041
527.8394	3105
530.3249	3105
532.8098	3119
535.2939	3131
537.7774	3035
540.2623	3092
542.7444	3075
545.2259	3032
547.7067	3144
550.1868	3153
552.6683	3225
555.147	3142
557.6231	3171
560.1005	3163
562.5773	3204
565.0534	3220
567.5308	3201
570.0056	3258
572.4776	3222
574.951	3258
577.4237	3333
579.8978	3214
582.3671	3402
584.8378	3356
587.3079	3323
589.7773	3270
592.244	3317
594.714	3260
597.1793	3296
599.6461	3272
602.1121	3253
604.5754	3220
607.0421	3169
609.5042	3272
611.9675	3248
614.4282	3197
616.8902	3232
619.3515	3216
621.8122	3178
624.2702	3194
626.7296	3153
629.1863	3180
631.6423	3179
634.1017	3209
636.5563	3189
639.0104	3156
641.4658	3205
643.9185	3179
646.3725	3225
648.8239	3234
651.2766	3204
653.7266	3218
656.176	3251
658.6247	3277
661.0748	3295
663.5242	3173
665.9709	3278
668.417	3259
670.8624	3291
673.3092	3289
675.7533	3271
678.1968	3325
680.6395	3236
683.0817	3251
685.5251	3310
687.9659	3331
690.4061	3342
692.8456	3319
695.2844	3228
697.7226	3322
700.1621	3377
702.599	3347
705.0332	3378
707.4688	3397
709.9036	3350
712.3399	3356
714.7735	3342
717.2044	3372
719.6367	3422
722.0683	3374
724.4993	3372
726.9296	3322
729.3593	3347
731.7883	3416
734.2147	3386
736.6423	3413
739.0714	3451
741.4958	3452
743.9216	3401
746.3447	3479
748.7691	3449
751.1929	3454
753.616	3499
756.0366	3481
758.4584	3524
760.8776	3554
763.2982	3551
765.718	3548
768.1373	3593
770.5539	3546
772.9698	3570
775.3871	3571
777.8038	3587
780.2178	3526
782.6332	3535
785.0459	3542
787.458	3573
789.8714	3588
792.2842	3553
794.6943	3558
797.1038	3568
799.5127	3620
801.9209	3434
804.3324	3514
806.7393	3534
809.1456	3617
811.5513	3500
813.9562	3582
816.3625	3553
818.7663	3622
821.1693	3544
823.5718	3543
825.9735	3596
828.3746	3616
830.7771	3526
833.177	3547
835.5762	3563
837.9747	3555
840.3727	3625
842.772	3630
845.1666	3759
847.5626	3635
849.958	3732
852.3527	3775
854.7488	3747
857.1403	3636
859.5331	3779
861.9253	3741
864.3168	3672
866.7057	3738
869.098	3677
871.4876	3737
873.8746	3733
876.263	3701
878.6487	3633
881.0378	3731
883.4243	3669
885.8081	3659
888.1933	3678
890.5759	3673
892.9598	3619
895.343	3689
897.7256	3678
900.1057	3692
902.4871	3669
904.8659	3857
907.246	3701
909.6254	3673
912.0023	3716
914.3786	3854
916.7562	3828
919.1331	3907
921.5074	3834
923.8831	3946
926.2562	3933
928.6287	3956
931.0005	3992
933.3757	3947
935.7462	3986
938.1162	4027
940.4855	4091
942.8542	4075
945.2242	4204
947.5916	4323
949.9584	4469
952.3266	4651
954.6921	4883
957.0571	5094
959.4233	5473
961.787	5552
964.15	5515
966.5125	5334
968.8742	5036
971.2354	4747
973.5959	4378
975.9559	4304
978.3151	4030
980.6738	3920
983.0338	3902
985.3912	3897
987.7461	3905
990.1022	3930
992.4578	3729
994.8127	3880
997.1689	3893
999.5207	3833
1001.874	3860
1004.226	3871
1006.576	3842
1008.929	3951
1011.28	3805
1013.628	3797
1015.977	3834
1018.324	3904
1020.674	3877
1023.019	3990
1025.366	3863
1027.713	3905
1030.056	3903
1032.399	3985
1034.746	3925
1037.087	3922
1039.431	3967
1041.771	3942
1044.113	3961
1046.454	4054
1048.793	3992
1051.133	3945
1053.471	3923
1055.807	3925
1058.146	4051
1060.483	4011
1062.818	4025
1065.153	4097
1067.489	4131
1069.822	4072
1072.156	4107
1074.488	4142
1076.82	4112
1079.15	4115
1081.48	4038
1083.814	4042
1086.143	3994
1088.471	3964
1090.799	3917
1093.126	3948
1095.452	3933
1097.78	3937
1100.105	3957
1102.43	3864
1104.754	3911
1107.077	3906
1109.4	3950
1111.722	4063
1114.044	3910
1116.365	3885
1118.685	3787
1121.005	3898
1123.324	3956
1125.643	3998
1127.961	3939
1130.278	3986
1132.595	3952
1134.911	3976
1137.226	3915
1139.541	3951
1141.854	3878
1144.167	3912
1146.482	3864
1148.793	3898
1151.105	3956
1153.414	3864
1155.725	3877
1158.033	3973
1160.344	4003
1162.651	3953
1164.959	3997
1167.265	3975
1169.572	3940
1171.878	3855
1174.184	3993
1176.488	3930
1178.79	3984
1181.094	3920
1183.396	3886
1185.699	3950
1188.001	3951
1190.301	3925
1192.6	4012
1194.9	3800
1197.2	3937
1199.497	3953
1201.794	3954
1204.09	3912
1206.387	3874
1208.684	3859
1210.978	4002
1213.272	3987
1215.565	3959
1217.858	3918
1220.15	3934
1222.443	3953
1224.734	3880
1227.024	4056
1229.313	4000
1231.602	4033
1233.892	4126
1236.18	4103
1238.467	4129
1240.754	4107
1243.04	4103
1245.325	4092
1247.612	4219
1249.896	4230
1252.178	4187
1254.461	4164
1256.743	4222
1259.027	4075
1261.308	4130
1263.587	4116
1265.867	4164
1268.146	4138
1270.425	4120
1272.703	4131
1274.981	4200
1277.256	4176
1279.532	4258
1281.808	4123
1284.083	4116
1286.358	4131
1288.63	4058
1290.904	4090
1293.175	4042
1295.449	4102
1297.719	4080
1299.99	4001
1302.259	4060
1304.529	4024
1306.798	4041
1309.065	3999
1311.333	4029
1313.599	4147
1315.866	4061
1318.131	4147
1320.396	4070
1322.66	4044
1324.925	4025
1327.187	4080
1329.448	4115
1331.711	4093
1333.974	4123
1336.234	4035
1338.493	4080
1340.752	4038
1343.01	4055
1345.269	4027
1347.526	4156
1349.784	4106
1352.04	3905
1354.295	3961
1356.552	4077
1358.806	4038
1361.059	4158
1363.312	4083
1365.564	4078
1367.818	4055
1370.069	4073
1372.318	4073
1374.568	4115
1376.817	4047
1379.066	4230
1381.316	4057
1383.564	4089
1385.809	4136
1388.056	4177
1390.301	4292
1392.549	4126
1394.793	4243
1397.036	4187
1399.279	4198
1401.522	4160
1403.763	4190
1406.007	4276
1408.248	4244
1410.487	4212
1412.727	4164
1414.965	4138
1417.205	4220
1419.442	4246
1421.68	4138
1423.915	4235
1426.152	4204
1428.388	4207
1430.623	4264
1432.857	4285
1435.091	4223
1437.323	4265
1439.556	4237
1441.789	4391
1444.019	4238
1446.25	4309
1448.48	4385
1450.708	4371
1452.938	4401
1455.167	4314
1457.394	4453
1459.62	4322
1461.846	4383
1464.073	4390
1466.299	4414
1468.523	4330
1470.746	4317
1472.969	4225
1475.191	4248
1477.415	4223
1479.636	4142
1481.858	4172
1484.078	4128
1486.298	4067
1488.518	4106
1490.736	4142
1492.954	4100
1495.169	4005
1497.386	4063
1499.602	4038
1501.819	4147
1504.034	4107
1506.248	4047
1508.462	3991
1510.675	4096
1512.888	4045
1515.1	4080
1517.311	4087
1519.522	3963
1521.732	4023
1523.942	4065
1526.151	4067
1528.36	4007
1530.566	4127
1532.773	4084
1534.98	4036
1537.187	4002
1539.392	4132
1541.596	4058
1543.801	4001
1546.005	4051
1548.208	4094
1550.411	4097
1552.612	4139
1554.814	4107
1557.013	4140
1559.212	4143
1561.414	4147
1563.612	4063
1565.811	4112
1568.007	4224
1570.203	4106
1572.403	4138
1574.598	4140
1576.792	4141
1578.988	4106
1581.181	4113
1583.376	4144
1585.568	4184
1587.761	4186
1589.952	4187
1592.143	4106
1594.333	4209
1596.524	4201
1598.715	4216
1600.903	4261
1603.091	4160
1605.278	4195
1607.466	4195
1609.652	4214
1611.838	4250
1614.023	4220
1616.207	4198
1618.391	4280
1620.576	4179
1622.759	4354
1624.941	4205
1627.123	4295
1629.304	4245
1631.484	4259
1633.664	4351
1635.844	4340
1638.022	4312
1640.201	4332
1642.38	4360
1644.556	4388
1646.732	4292
1648.908	4287
1651.084	4366
1653.257	4406
1655.433	4373
1657.607	4369
1659.779	4458
1661.951	4358
1664.122	4430
1666.295	4408
1668.467	4344
1670.635	4424
1672.805	4399
1674.973	4394
1677.142	4375
1679.31	4347
1681.478	4323
1683.644	4423
1685.81	4318
1687.975	4323
1690.142	4428
1692.305	4282
1694.468	4377
1696.632	4227
1698.794	4281
1700.957	4293
1703.119	4215
1705.279	4231
1707.439	4241
1709.598	4265
1711.758	4261
1713.917	4150
1716.075	4215
1718.231	4159
1720.388	4221
1722.543	4202
1724.702	4113
1726.856	4238
1729.01	4213
1731.164	4162
1733.317	4169
1735.471	4231
1737.623	4183
1739.774	4261
1741.925	4135
1744.075	4131
1746.225	4203
1748.376	4208
1750.524	4177
1752.672	4247
1754.82	4223
1756.965	4183
1759.113	4151
1761.259	4235
1763.405	4204
1765.549	4138
1767.694	4200
1769.836	4274
1771.981	4205
1774.123	4249
1776.264	4282
1778.405	4226
1780.546	4169
1782.687	4200
1784.827	4291
1786.966	4226
1789.103	4127
1791.242	4218
1793.381	4247
1795.517	4243
1797.653	4231
1799.788	4191
1801.923	4238
1804.057	4229
1806.193	4225
1808.326	4242
1810.457	4284
1812.59	4263
1814.721	4240
1816.855	4206
1818.984	4155
1821.113	4222
1823.244	4241
1825.372	4192
1827.499	4277
1829.63	4172
1831.756	4207
1833.882	4246
1836.007	4218
1838.132	4186
1840.26	4158
1842.384	4158
1844.507	4224
1846.63	4259
1848.752	4210
1850.875	4171
1852.996	4205
1855.118	4201
1857.238	4220
1859.358	4249
1861.477	4179
1863.597	4262
1865.715	4175
1867.832	4227
1869.948	4194
1872.064	4181
1874.181	4256
1876.297	4111
1878.411	4201
1880.526	4189
1882.639	4199
1884.752	4179
1886.865	4194
1888.977	4202
1891.089	4226
1893.2	4199
1895.308	4240
1897.42	4161
1899.53	4119
1901.639	4176
1903.745	4233
1905.853	4274
1907.962	4184
1910.067	4268
1912.174	4265
1914.278	4291
1916.383	4288
1918.486	4251
1920.592	4381
1922.694	4339
1924.797	4308
1926.898	4229
1929	4289
1931.102	4262
1933.203	4315
1935.301	4285
1937.401	4228
1939.499	4296
1941.598	4244
1943.697	4333
1945.793	4321
1947.888	4379
1949.985	4257
1952.08	4276
1954.176	4282
1956.269	4295
1958.364	4341
1960.457	4262
1962.549	4403
1964.642	4309
1966.733	4300
1968.823	4223
1970.913	4212
1973.005	4288
1975.093	4382
1977.184	4230
1979.271	4267
1981.359	4264
1983.446	4213
1985.532	4245
1987.619	4202
1989.705	4305
1991.789	4183
1993.874	4234
1995.956	4244
1998.041	4280
2000.123	4223
2002.206	4243
2004.287	4335
2006.368	4128
2008.449	4182
2010.529	4166
2012.609	4269
2014.688	4178
2016.766	4189
2018.843	4197
2020.922	4196
2022.999	4262
2025.074	4292
2027.15	4224
2029.225	4297
2031.299	4221
2033.375	4290
2035.447	4142
2037.52	4322
2039.592	4277
2041.664	4202
2043.736	4216
2045.807	4278
2047.876	4185
2049.947	4160
2052.015	4237
2054.086	4239
2056.153	4213
2058.221	4198
2060.288	4192
2062.353	4358
2064.42	4298
2066.486	4296
2068.55	4359
2070.614	4210
2072.678	4098
2074.741	4231
2076.805	4258
2078.866	4280
2080.929	4279
2082.99	4240
2085.049	4298
2087.109	4228
2089.17	4185
2091.228	4241
2093.286	4229
2095.344	4296
2097.4	4263
2099.46	4153
2101.516	4254
2103.572	4299
2105.626	4381
2107.679	4235
2109.735	4279
2111.788	4307
2113.841	4316
2115.894	4338
2117.945	4251
2119.997	4214
2122.049	4190
2124.1	4312
2126.148	4220
2128.197	4252
2130.246	4197
2132.296	4237
2134.342	4270
2136.39	4224
2138.437	4219
2140.483	4273
2142.527	4282
2144.574	4294
2146.619	4202
2148.661	4258
2150.705	4152
2152.747	4292
2154.792	4283
2156.832	4190
2158.874	4219
2160.915	4208
2162.954	4207
2164.995	4237
2167.034	4247
2169.072	4229
2171.111	4249
2173.148	4239
2175.186	4175
2177.223	4158
2179.258	4198
2181.294	4144
2183.328	4287
2185.362	4254
2187.398	4168
2189.431	4206
2191.463	4201
2193.495	4082
2195.528	4190
2197.56	4195
2199.59	4124
2201.62	4177
2203.649	4140
2205.678	4228
2207.708	4161
2209.737	4113
2211.764	4147
2213.791	4094
2215.817	4099
2217.843	4199
2219.87	4171
2221.895	4147
2223.919	4132
2225.942	4126
2227.966	4196
2229.988	4121
2232.012	4161
2234.032	4218
2236.054	4146
2238.074	4143
2240.095	4175
2242.116	4150
2244.135	4173
2246.153	4165
2248.171	4093
2250.188	4079
2252.208	4170
2254.223	4158
2256.239	4210
2258.255	4162
2260.269	4182
2262.283	4118
2264.3	4084
2266.312	4178
2268.325	4170
2270.336	4183
2272.349	4201
2274.362	4141
2276.372	4176
2278.383	4144
2280.392	4196
2282.402	4164
2284.409	4196
2286.418	4149
2288.427	4179
2290.433	4095
2292.441	4180
2294.446	4186
2296.453	4128
2298.459	4080
2300.463	4168
2302.466	4143
2304.471	4150
2306.475	4092
2308.477	4106
2310.478	4123
2312.481	4191
2314.481	4123
2316.481	4103
2318.482	4059
2320.482	4090
2322.48	4112
2324.48	4216
2326.478	4148
2328.476	4126
2330.473	4037
2332.469	4059
2334.465	4164
2336.46	4077
2338.454	4045
2340.45	4097
2342.444	4094
2344.437	4131
2346.43	4160
2348.421	4054
2350.414	4124
2352.405	4045
2354.396	4057
2356.386	4091
2358.376	4055
2360.366	4146
2362.355	4092
2364.343	4078
2366.331	4137
2368.317	3986
2370.304	4032
2372.292	4111
2374.278	4105
2376.262	4149
2378.247	4121
2380.23	4080
2382.216	4073
2384.199	3991
2386.181	4013
2388.163	4104
2390.144	4014
2392.127	4029
2394.107	4041
2396.087	4105
2398.066	3966
2400.046	4146
2402.023	3999
2404.004	4017
2405.981	4014
2407.957	4018
2409.934	4004
2411.91	4029
2413.886	3989
2415.862	4022
2417.836	3988
2419.809	4033
2421.784	4059
2423.756	4077
2425.73	4019
2427.701	4097
2429.672	3996
2431.644	4034
2433.615	3948
2435.586	3995
2437.555	4093
2439.523	3981
2441.491	4056
2443.459	3992
2445.428	4066
2447.395	3987
2449.361	4049
2451.327	3970
2453.292	4088
2455.257	3976
2457.223	3932
2459.187	4005
2461.15	3990
2463.113	3990
2465.076	4004
2467.039	3997
2468.999	3979
2470.96	3956
2472.921	4041
2474.881	4055
2476.841	3906
2478.8	4068
2480.759	4017
2482.717	3920
2484.675	3991
2486.63	4076
2488.589	4022
2490.545	3972
2492.5	4050
2494.455	3981
2496.408	3974
2498.364	3941
2500.318	4080
2502.27	3966
2504.223	3917
2506.174	4009
2508.126	3928
2510.078	4056
2512.03	4008
2513.979	3950
2515.927	3840
2517.877	4002
2519.826	3976
2521.775	3946
2523.722	3936
2525.668	3988
2527.616	3924
2529.561	3970
2531.508	3874
2533.452	3960
2535.398	3847
2537.342	3961
2539.284	4055
2541.229	4003
2543.173	3960
2545.114	3942
2547.055	3949
2548.996	3975
2550.938	3977
2552.878	3906
2554.817	3978
2556.756	3974
2558.695	3903
2560.633	3921
2562.572	3919
2564.509	3916
2566.445	3978
2568.382	3945
2570.317	3915
2572.254	3920
2574.189	3911
2576.123	3900
2578.057	3941
2579.99	3892
2581.923	4009
2583.855	4002
2585.788	3993
2587.719	3927
2589.65	4002
2591.579	3953
2593.511	3968
2595.44	3888
2597.37	4028
2599.297	4084
2601.225	4024
2603.153	3973
2605.08	3988
2607.007	4012
2608.932	3960
2610.858	3999
2612.782	4043
2614.709	3965
2616.632	3936
2618.556	4012
2620.478	3925
2622.401	3959
2624.324	4001
2626.247	3919
2628.167	3975
2630.088	3958
2632.008	3990
2633.928	4062
2635.848	3908
2637.766	3904
2639.684	3920
2641.603	4006
2643.519	3971
2645.437	4068
2647.353	3957
2649.27	3962
2651.184	4017
2653.099	3991
2655.014	3997
2656.928	3995
2658.842	3996
2660.755	3957
2662.667	3868
2664.579	4023
2666.491	4001
2668.402	3893
2670.312	3993
2672.222	3967
2674.132	3945
2676.042	3897
2677.951	3971
2679.859	3908
2681.766	3874
2683.674	3947
2685.582	3977
2687.488	3912
2689.392	3959
2691.298	3941
2693.202	3854
2695.107	3897
2697.012	4013
2698.914	3985
2700.817	3888
2702.72	3906
2704.622	3880
2706.524	3989
2708.425	3880
2710.326	3861
2712.225	3916
2714.125	3965
2716.024	3917
2717.923	3930
2719.822	3902
2721.719	3943
2723.616	3893
2725.512	3941
2727.41	3926
2729.305	3933
2731.201	3891
2733.095	4008
2734.99	3936
2736.884	3926
2738.778	3918
2740.67	3923
2742.562	3943
2744.455	3918
2746.346	3953
2748.238	3876
2750.129	3889
2752.018	3974
2753.907	3884
2755.797	3856
2757.687	3991
2759.575	3859
2761.462	3852
2763.349	3868
2765.237	3995
2767.124	3905
2769.009	3875
2770.894	3887
2772.779	3820
2774.663	3844
2776.547	3909
2778.431	3894
2780.314	3860
2782.197	3877
2784.078	3916
2785.96	3853
2787.842	3859
2789.723	3855
2791.603	3888
2793.483	3849
2795.362	3834
2797.241	3851
2799.121	3903
2800.997	3870
2802.874	3907
2804.751	3893
2806.628	3879
2808.506	3857
2810.38	3812
2812.255	3899
2814.13	3772
2816.003	3873
2817.878	3881
2819.752	3878
2821.623	3919
2823.496	3831
2825.368	3939
2827.238	3896
2829.111	3932
2830.98	3916
2832.851	3915
2834.719	3867
2836.589	3901
2838.458	3931
2840.327	3878
2842.193	3967
2844.061	3924
2845.927	3959
2847.794	4021
2849.66	3989
2851.525	3926
2853.39	3967
2855.254	3996
2857.117	4044
2858.983	3978
2860.845	4064
2862.707	4102
2864.569	4010
2866.431	4080
2868.293	4041
2870.154	4184
2872.013	4146
2873.873	4265
2875.733	4278
2877.592	4295
2879.451	4318
2881.309	4441
2883.166	4438
2885.022	4464
2886.879	4386
2888.736	4509
2890.591	4424
2892.446	4506
2894.301	4474
2896.155	4536
2898.009	4458
2899.863	4525
2901.716	4479
2903.568	4458
2905.419	4479
2907.27	4480
2909.123	4417
2910.973	4464
2912.824	4461
2914.673	4522
2916.521	4448
2918.372	4703
2920.22	4714
2922.067	4791
2923.914	4793
2925.761	4894
2927.607	4951
2929.455	4924
2931.301	4851
2933.144	5009
2934.99	5048
2936.833	5106
2938.678	5186
2940.522	5237
2942.364	5299
2944.207	5263
2946.048	5280
2947.891	5427
2949.731	5383
2951.571	5291
2953.412	5416
2955.25	5201
2957.09	5228
2958.93	5099
2960.767	5032
2962.606	5024
2964.443	5012
2966.279	5001
2968.116	4837
2969.953	4728
2971.788	4776
2973.623	4778
2975.457	4673
2977.292	4714
2979.127	4709
2980.959	4739
2982.792	4615
2984.624	4601
2986.455	4521
2988.288	4522
2990.119	4600
2991.949	4431
2993.779	4515
2995.608	4413
2997.439	4339
2999.268	4414
3001.096	4267
3002.923	4240
3004.751	4146
3006.578	4250
3008.406	4186
3010.232	4080
3012.057	4135
3013.883	4066
3015.706	4024
3017.532	4038
3019.356	3984
3021.179	3947
3023.002	3918
3024.823	3835
3026.646	3922
3028.469	3795
3030.289	3845
3032.11	3827
3033.93	3826
3035.749	3803
3037.57	3826
3039.39	3777
3041.207	3752
3043.026	3784
3044.842	3742
3046.661	3724
3048.477	3774
3050.294	3779
3052.109	3749
3053.925	3734
3055.739	3798
3057.555	3793
3059.368	3732
3061.181	3797
3062.995	3762
3064.807	3682
3066.62	3714
3068.433	3795
3070.243	3754
3072.054	3728
3073.865	3671
3075.675	3690
3077.485	3741
3079.293	3726
3081.102	3713
3082.911	3654
3084.719	3636
3086.527	3684
3088.333	3687
3090.139	3713
3091.945	3619
3093.75	3632
3095.557	3714
3097.361	3665
3099.165	3690
3100.969	3622
3102.772	3614
3104.575	3668
3106.379	3573
3108.181	3568
3109.982	3614
3111.783	3672
3113.584	3579
3115.386	3615
3117.186	3658
3118.985	3572
3120.783	3630
3122.582	3616
3124.381	3583
3126.179	3607
3127.975	3603
3129.772	3563
3131.569	3524
3133.365	3486
3135.161	3604
3136.956	3577
3138.751	3626
3140.544	3562
3142.338	3481
3144.132	3561
3145.925	3537
3147.717	3516
3149.509	3600
3151.301	3554
3153.091	3547
3154.884	3521
3156.673	3626
3158.462	3608
3160.252	3636
3162.041	3595
3163.831	3583
3165.618	3530
3167.405	3544
3169.193	3568
3170.979	3577
3172.767	3560
3174.553	3548
3176.338	3575
3178.123	3560
3179.907	3585
3181.692	3575
3183.477	3502
3185.259	3551
3187.042	3534
3188.824	3492
3190.607	3594
3192.389	3576
3194.17	3553
3195.951	3506
3197.73	3569
3199.51	3573
3201.289	3557
3203.07	3542
3204.848	3527
3206.626	3590
3208.403	3492
3210.18	3538
3211.959	3543
3213.735	3609
3215.511	3519
3217.285	3535
3219.06	3612
3220.836	3616
3222.611	3529
3224.384	3495
3226.158	3588
3227.929	3591
3229.702	3543
3231.476	3584
3233.248	3638
3235.018	3574
3236.789	3497
3238.56	3547
3240.33	3523
3242.1	3570
3243.869	3511
3245.637	3614
3247.405	3523
3249.172	3539
3250.941	3534
3252.707	3496
3254.474	3479
3256.24	3553
3258.006	3622
3259.772	3492
3261.537	3510
3263.301	3542
3265.065	3544
3266.828	3572
3268.592	3618
3270.355	3561
3272.117	3516
3273.878	3544
3275.64	3553
3277.401	3545
3279.162	3529
3280.922	3472
3282.682	3566
3284.441	3606
3286.199	3551
3287.959	3561
3289.716	3559
3291.475	3578
3293.232	3624
3294.988	3569
3296.744	3536
3298.501	3617
3300.256	3581
3302.011	3598
3303.766	3596
3305.52	3554
3307.275	3637
3309.028	3568
3310.781	3654
3312.533	3609
3314.285	3631
3316.038	3642
3317.789	3582
3319.54	3510
3321.289	3668
3323.039	3674
3324.789	3664
3326.539	3583
3328.288	3579
3330.035	3597
3331.783	3520
3333.531	3544
3335.28	3599
3337.025	3521
3338.771	3526
3340.518	3612
3342.262	3549
3344.009	3548
3345.753	3583
3347.497	3606
3349.24	3572
3350.983	3538
3352.726	3522
3354.469	3623
3356.212	3516
3357.952	3502
3359.694	3559
3361.434	3448
3363.176	3524
3364.916	3538
3366.654	3543
3368.394	3564
3370.132	3444
3371.871	3528
3373.61	3507
3375.346	3518
3377.083	3529
3378.82	3485
3380.556	3471
3382.292	3476
3384.027	3469
3385.763	3448
3387.497	3450
3389.231	3515
3390.965	3530
3392.698	3398
3394.431	3351
3396.164	3526
3397.896	3510
3399.627	3456
3401.36	3474
3403.09	3422
3404.82	3404
3406.55	3416
3408.279	3373
3410.01	3370
3411.738	3510
3413.467	3336
3415.194	3419
3416.92	3413
3418.647	3434
3420.375	3369
3422.102	3450
3423.827	3418
3425.553	3472
3427.277	3464
3429.003	3400
3430.727	3408
3432.451	3418
3434.173	3430
3435.896	3396
3437.62	3450
3439.343	3429
3441.063	3411
3442.785	3404
3444.505	3355
3446.226	3319
3447.948	3362
3449.666	3356
3451.386	3327
3453.104	3334
3454.823	3245
3456.541	3400
3458.259	3350
3459.976	3334
3461.693	3347
3463.408	3268
3465.125	3251
3466.841	3368
3468.556	3324
3470.271	3245
3471.985	3303
3473.698	3244
3475.414	3255
3477.126	3202
3478.838	3231
3480.55	3240
3482.263	3255
3483.975	3213
3485.686	3167
3487.396	3214
3489.106	3291
3490.817	3246
3492.526	3210
3494.236	3263
3495.944	3202
3497.652	3181
3499.359	3121
3501.066	3128
3502.775	3239
3504.481	3186
3506.187	3191
3507.893	3139
3509.598	3201
3511.304	3185
3513.009	3209
3514.713	3110
3516.417	3163
3518.12	3175
3519.821	3133
3521.525	3133
3523.228	3195
3524.929	3143
3526.631	3094
3528.33	3157
3530.032	3151
3531.733	3130
3533.433	3147
3535.131	3154
3536.83	3167
3538.529	3136
3540.227	3122
3541.925	3058
3543.623	3073
3545.319	3071
3547.016	3015
3548.712	3038
3550.408	3111
3552.103	3062
3553.798	3089
3555.491	3062
3557.188	3051
3558.88	3050
3560.574	3098
3562.266	3022
3563.959	3024
3565.651	3040
3567.343	3022
3569.035	3076
3570.725	3047
3572.415	2981
3574.106	3005
3575.797	3034
3577.485	3037
3579.174	3036
3580.863	3017
3582.551	3054
3584.238	3014
3585.926	3024
3587.613	3022
3589.3	3026
3590.986	3020
3592.671	2926
3594.357	2939
3596.042	2941
3597.726	2963
3599.41	2945
3601.094	2961
3602.778	2918
3604.461	2908
3606.143	2934
3607.825	2868
3609.507	2885
3611.188	2873
3612.87	2882
3614.551	2910
3616.229	2909
3617.909	2987
3619.589	2915
3621.269	2861
3622.948	2874
3624.625	2862
3626.302	2826
3627.98	2818
3629.657	2852
3631.334	2903
3633.01	2825
3634.686	2858
3636.361	2851
3638.036	2905
3639.712	2902
3641.385	2868
3643.06	2838
3644.732	2844
3646.405	2870
3648.08	2735
3649.751	2753
3651.424	2845
3653.094	2811
3654.766	2719
3656.436	2815
3658.106	2806
3659.777	2824
3661.446	2850
3663.115	2786
3664.783	2730
3666.452	2754
3668.121	2796
3669.788	2768
3671.454	2704
3673.121	2772
3674.789	2750
3676.455	2704
3678.12	2775
3679.784	2722
3681.45	2761
3683.114	2736
3684.779	2787
3686.442	2685
3688.105	2725
3689.768	2702
3691.43	2691
3693.093	2736
3694.754	2685
3696.415	2778
3698.076	2740
3699.736	2743
3701.396	2693
3703.057	2656
3704.716	2733
3706.375	2628
3708.034	2712
3709.692	2720
3711.351	2781
3713.008	2699
3714.665	2762
3716.321	2680
3717.977	2693
3719.634	2664
3721.29	2699
3722.945	2735
3724.598	2686
3726.253	2621
3727.907	2644
3729.561	2652
3731.214	2660
3732.867	2629
3734.518	2676
3736.171	2666
3737.824	2626
3739.474	2715
3741.125	2646
3742.775	2604
3744.425	2709
3746.074	2599
3747.725	2732
3749.373	2659
3751.022	2663
3752.669	2695
3754.318	2666
3755.966	2681
3757.612	2575
3759.259	2700
3760.905	2668
3762.55	2600
3764.197	2607
3765.842	2606
3767.486	2610
3769.131	2629
3770.774	2623
3772.417	2617
3774.061	2625
3775.705	2566
3777.347	2623
3778.988	2559
3780.629	2665
3782.271	2611
3783.912	2617
3785.552	2581
3787.192	2607
3788.831	2609
3790.472	2578
3792.112	2624
3793.75	2605
3795.388	2605
3797.024	2580
3798.661	2644
3800.3	2620
3801.936	2574
3803.572	2571
3805.208	2528
3806.844	2591
3808.48	2627
3810.115	2558
3811.748	2538
3813.382	2591
3815.016	2560
3816.649	2575
3818.283	2578
3819.914	2560
3821.547	2551
3823.178	2610
3824.809	2562
3826.441	2470
3828.072	2548
3829.701	2529
3831.331	2562
3832.96	2487
3834.591	2548
3836.219	2587
3837.847	2543
3839.475	2481
3841.102	2461
3842.729	2542
3844.357	2556
3845.984	2495
3847.609	2504
3849.234	2532
3850.86	2482
3852.485	2431
3854.11	2461
3855.734	2491
3857.357	2518
3858.981	2497
3860.603	2565
3862.227	2501
3863.848	2553
3865.471	2463
3867.092	2470
3868.713	2493
3870.334	2452
3871.954	2517
3873.575	2461
3875.194	2426
3876.813	2520
3878.433	2467
3880.051	2415
3881.669	2423
3883.286	2514
3884.904	2443
3886.52	2442
3888.138	2510
3889.754	2441
3891.37	2422
3892.985	2442
3894.6	2452
3896.216	2490
3897.831	2459
3899.444	2468
3901.058	2473
3902.67	2492
3904.283	2406
3905.897	2456
3907.509	2444
3909.121	2479
3910.731	2402
3912.342	2502
3913.954	2460
3915.563	2429
3917.174	2414
3918.783	2412
3920.391	2457
3922.002	2468
3923.611	2410
3925.218	2435
3926.826	2498
3928.432	2426
3930.039	2477
3931.647	2391
3933.253	2407
3934.859	2449
3936.464	2447
3938.068	2399
3939.675	2415
3941.278	2371
3942.883	2430
3944.486	2450
3946.089	2433
3947.692	2397
3949.295	2372
3950.898	2418
3952.499	2384
3954.1	2414
3955.7	2416
3957.303	2404
3958.903	2399
3960.502	2432
3962.101	2341
3963.7	2373
3965.301	2370
3966.899	2417
3968.497	2390
3970.094	2355
3971.691	2426
3973.288	2343
3974.885	2363
3976.481	2386
3978.077	2314
3979.672	2372
3981.267	2385
3982.863	2372
3984.457	2361
3986.051	2299
3987.645	2309
3989.238	2343
3990.831	2312
3992.425	2329
3994.017	2296
3995.607	2338
3997.199	2305
3998.79	2333
4000.382	2360
4001.973	2310
4003.561	2315
4005.151	2383
4006.741	2322
4008.331	2309
4009.918	2344
4011.507	2341
4013.095	2345
4014.681	2313
4016.269	2349
4017.856	2282
4019.443	2330
4021.028	2291
4022.614	2238
4024.199	2304
4025.785	2323
4027.37	2277
4028.953	2274
4030.536	2275
4032.12	2321
4033.704	2256
4035.287	2320
4036.869	2250
4038.45	2221
4040.032	2251
4041.613	2259
4043.195	2204
4044.776	2282
4046.356	2221
4047.935	2297
4049.515	2281
4051.095	2264
4052.674	2214
4054.251	2161
4055.829	2246
4057.406	2250
4058.985	2242
4060.562	2208
4062.139	2221
4063.715	2214
4065.29	2234
4066.865	2231
4068.442	2249
4070.016	2295
4071.59	2245
4073.164	2254
4074.738	2236
4076.312	2195
4077.885	2210
4079.458	2234
4081.03	2217
4082.602	2212
4084.173	2255
4085.745	2167
4087.315	2233
4088.886	2188
4090.456	2172
4092.026	2181
4093.596	2204
4095.165	2207
4096.734	2156
4098.301	2245
4099.869	2214
4101.437	2185
4103.006	2234
4104.572	2167
4106.139	2148
4107.704	2207
4109.27	2193
4110.837	2138
4112.401	2217
4113.966	2239
4115.53	2166
4117.094	2104
4118.659	2150
4120.223	2159
4121.785	2196
4123.347	2178
4124.909	2187
4126.471	2148
4128.034	2135
4129.595	2172
4131.155	2202
4132.716	2204
4134.275	2141
4135.836	2173
4137.395	2120
4138.955	2164
4140.513	2119
4142.071	2120
4143.628	2146
4145.188	2103
4146.745	2123
4148.302	2124
4149.858	2103
4151.414	2037
4152.971	2119
4154.526	2132
4156.081	2124
4157.635	2149
4159.189	2131
4160.745	2111
4162.298	2127
4163.852	2134
4165.405	2129
4166.957	2055
4168.51	2160
4170.063	2117
4171.614	2124
4173.166	2058
4174.717	2084
4176.267	2085
4177.817	2098
4179.368	2023
4180.917	2094
4182.466	2066
4184.016	2067
4185.564	2102
4187.112	2082
4188.66	2036
4190.207	2069
4191.754	2054
4193.301	2119
4194.848	2081
4196.394	2073
4197.94	2077
4199.484	2090
4201.03	2069
4202.575	2129
4204.12	2008
4205.663	2007
4207.207	2080
4208.75	1990
4210.292	2106
4211.836	2089
4213.378	2052
4214.92	2077
4216.46	2017
4218.002	2102
4219.544	2047
4221.083	2014
4222.625	2063
4224.164	2033
4225.703	2071
4227.244	2040
4228.782	2051
4230.32	2037
4231.857	2013
4233.395	1971
4234.933	2040
4236.471	1967
4238.007	1976
4239.542	1984
4241.078	1983
4242.614	1971
4244.15	1999
4245.685	2051
4247.219	2008
4248.753	2033
4250.287	1993
4251.82	2019
4253.354	1977
4254.887	1999
4256.419	1996
4257.951	2014
4259.483	2009
4261.016	1971
4262.547	1995
4264.078	1945
4265.608	1970
4267.137	2003
4268.668	1967
4270.197	1970
4271.727	1998
4273.254	2004
4274.783	1986
4276.311	2041
4277.84	1925
4279.366	1982
4280.894	1955
4282.42	1994
4283.946	1974
4285.473	1991
4286.998	1950
4288.523	1959
4290.047	1976
4291.572	1951
4293.096	1979
4294.622	1939
4296.144	1961
4297.668	1965
4299.19	1927
4300.713	1963
4302.236	1937
4303.758	1969
4305.279	1937
4306.799	1937
4308.321	1937
4309.842	1963
4311.361	1938
4312.882	1996
4314.401	1992
