400.0961	4481
402.6185	4495
405.1424	4320
407.6635	4365
410.1838	4484
412.7035	4492
415.2225	4475
417.7388	4601
420.2585	4572
422.7754	4553
425.2917	4553
427.8072	4628
430.3221	4718
432.8363	4789
435.3498	4709
437.8626	4727
440.3727	4667
442.8841	4736
445.3969	4628
447.907	4725
450.4142	4717
452.9229	4781
455.4289	4678
457.9362	4630
460.4449	4686
462.9488	4687
465.454	4681
467.9566	4708
470.4604	4690
472.9637	4690
475.4662	4700
477.966	4693
480.4671	4721
482.9656	4689
485.4633	4661
487.9645	4726
490.4608	4699
492.9566	4737
495.4536	4764
497.948	4668
500.4437	4694
502.9387	4735
505.431	4884
507.9226	4645
510.4136	4769
512.9079	4819
515.3975	4800
517.8864	4827
520.3746	4810
522.8622	4853
525.3491	4761
527.8394	4872
530.3249	4850
532.8098	4909
535.2939	4865
537.7774	4891
540.2623	4810
542.7444	4859
545.2259	4899
547.7067	4826
550.1868	4772
552.6683	4890
555.147	4898
557.6231	4869
560.1005	4873
562.5773	4778
565.0534	4985
567.5308	4973
570.0056	4927
572.4776	4965
574.951	5043
577.4237	5026
579.8978	5215
582.3671	5071
584.8378	5136
587.3079	5178
589.7773	5034
592.244	5094
594.714	5116
597.1793	5147
599.6461	5119
602.1121	5089
604.5754	4939
607.0421	5020
609.5042	4962
611.9675	5064
614.4282	5083
616.8902	5006
619.3515	5046
621.8122	4984
624.2702	4988
626.7296	4961
629.1863	4970
631.6423	5005
634.1017	4931
636.5563	5000
639.0104	4994
641.4658	4983
643.9185	4993
646.3725	5090
648.8239	5062
651.2766	5031
653.7266	5075
656.176	5079
658.6247	5034
661.0748	5097
663.5242	5056
665.9709	5096
668.417	5093
670.8624	5076
673.3092	5158
675.7533	5112
678.1968	5116
680.6395	5069
683.0817	5115
685.5251	5122
687.9659	5207
690.4061	5204
692.8456	5258
695.2844	5184
697.7226	5220
700.1621	5196
702.599	5218
705.0332	5236
707.4688	5356
709.9036	5191
712.3399	5344
714.7735	5244
717.2044	5196
719.6367	5366
722.0683	5348
724.4993	5278
726.9296	5279
729.3593	5356
731.7883	5391
734.2147	5315
736.6423	5296
739.0714	5450
741.4958	5360
743.9216	5431
746.3447	5457
748.7691	5523
751.1929	5454
753.616	5439
756.0366	5448
758.4584	5504
760.8776	5546
763.2982	5542
765.718	5520
768.1373	5476
770.5539	5558
772.9698	5460
775.3871	5518
777.8038	5499
780.2178	5596
782.6332	5545
785.0459	5626
787.458	5564
789.8714	5483
792.2842	5493
794.6943	5483
797.1038	5577
799.5127	5554
801.9209	5591
804.3324	5529
806.7393	5603
809.1456	5556
811.5513	5627
813.9562	5547
816.3625	5713
818.7663	5635
821.1693	5643
823.5718	5587
825.9735	5621
828.3746	5638
830.7771	5549
833.177	5574
835.5762	5574
837.9747	5621
840.3727	5690
842.772	5635
845.1666	5690
847.5626	5684
849.958	5655
852.3527	5803
854.7488	5838
857.1403	5798
859.5331	5838
861.9253	5788
864.3168	5772
866.7057	5732
869.098	5881
871.4876	5772
873.8746	5804
876.263	5690
878.6487	5765
881.0378	5725
883.4243	5710
885.8081	5799
888.1933	5652
890.5759	5768
892.9598	5754
895.343	5748
897.7256	5742
900.1057	5697
902.4871	5783
904.8659	5823
907.246	5823
909.6254	5780
912.0023	5818
914.3786	5844
916.7562	5883
919.1331	5988
921.5074	5999
923.8831	5977
926.2562	5944
928.6287	6047
931.0005	6042
933.3757	6047
935.7462	6131
938.1162	6098
940.4855	6171
942.8542	6212
945.2242	6478
947.5916	6470
949.9584	6754
952.3266	6796
954.6921	7097
957.0571	7348
959.4233	7648
961.787	7676
964.15	7581
966.5125	7567
968.8742	6986
971.2354	6856
973.5959	6531
975.9559	6392
978.3151	6158
980.6738	6130
983.0338	6018
985.3912	5923
987.7461	5949
990.1022	5907
992.4578	5942
994.8127	5925
997.1689	5976
999.5207	6023
1001.874	5998
1004.226	6155
1006.576	5869
1008.929	6027
1011.28	5940
1013.628	6051
1015.977	6034
1018.324	5906
1020.674	5934
1023.019	6018
1025.366	6123
1027.713	6134
1030.056	6016
1032.399	6109
1034.746	6128
1037.087	6065
1039.431	6109
1041.771	6088
1044.113	6192
1046.454	6191
1048.793	6184
1051.133	6087
1053.471	6080
1055.807	6074
1058.146	6173
1060.483	6143
1062.818	6246
1065.153	6194
1067.489	6263
1069.822	6326
1072.156	6349
1074.488	6297
1076.82	6336
1079.15	6179
1081.48	6230
1083.814	6116
1086.143	6290
1088.471	6164
1090.799	6160
1093.126	6083
1095.452	6037
1097.78	6181
1100.105	6052
1102.43	6148
1104.754	6190
1107.077	6110
1109.4	6032
1111.722	6121
1114.044	6157
1116.365	6126
1118.685	6127
1121.005	6152
1123.324	6240
1125.643	6197
1127.961	6087
1130.278	6091
1132.595	6057
1134.911	6055
1137.226	6092
1139.541	6153
1141.854	6188
1144.167	6132
1146.482	6203
1148.793	6091
1151.105	6092
1153.414	6075
1155.725	6105
1158.033	6110
1160.344	6222
1162.651	6222
1164.959	6089
1167.265	6181
1169.572	6202
1171.878	6169
1174.184	6167
1176.488	6064
1178.79	6077
1181.094	6166
1183.396	6172
1185.699	6140
1188.001	6262
1190.301	6149
1192.6	6125
1194.9	6092
1197.2	6268
1199.497	6186
1201.794	6216
1204.09	6260
1206.387	6191
1208.684	6123
1210.978	6110
1213.272	6267
1215.565	6223
1217.858	6125
1220.15	6195
1222.443	6093
1224.734	6291
1227.024	6306
1229.313	6320
1231.602	6303
1233.892	6378
1236.18	6294
1238.467	6467
1240.754	6342
1243.04	6461
1245.325	6342
1247.612	6331
1249.896	6411
1252.178	6378
1254.461	6471
1256.743	6513
1259.027	6361
1261.308	6593
1263.587	6482
1265.867	6434
1268.146	6346
1270.425	6383
1272.703	6400
1274.981	6488
1277.256	6440
1279.532	6357
1281.808	6379
1284.083	6305
1286.358	6401
1288.63	6396
1290.904	6339
1293.175	6394
1295.449	6353
1297.719	6276
1299.99	6243
1302.259	6318
1304.529	6364
1306.798	6341
1309.065	6240
1311.333	6234
1313.599	6371
1315.866	6386
1318.131	6378
1320.396	6371
1322.66	6422
1324.925	6305
1327.187	6287
1329.448	6441
1331.711	6391
1333.974	6328
1336.234	6412
1338.493	6399
1340.752	6356
1343.01	6331
1345.269	6443
1347.526	6447
1349.784	6370
1352.04	6436
1354.295	6259
1356.552	6383
1358.806	6325
1361.059	6235
1363.312	6357
1365.564	6322
1367.818	6313
1370.069	6466
1372.318	6315
1374.568	6347
1376.817	6407
1379.066	6371
1381.316	6326
1383.564	6371
1385.809	6531
1388.056	6414
1390.301	6464
1392.549	6604
1394.793	6530
1397.036	6554
1399.279	6585
1401.522	6575
1403.763	6600
1406.007	6426
1408.248	6536
1410.487	6547
1412.727	6662
1414.965	6538
1417.205	6515
1419.442	6618
1421.68	6533
1423.915	6673
1426.152	6519
1428.388	6476
1430.623	6604
1432.857	6594
1435.091	6593
1437.323	6651
1439.556	6730
1441.789	6634
1444.019	6596
1446.25	6706
1448.48	6712
1450.708	6710
1452.938	6717
1455.167	6752
1457.394	6757
1459.62	6691
1461.846	6716
1464.073	6688
1466.299	6750
1468.523	6730
1470.746	6571
1472.969	6512
1475.191	6599
1477.415	6547
1479.636	6510
1481.858	6567
1484.078	6424
1486.298	6422
1488.518	6334
1490.736	6467
1492.954	6405
1495.169	6332
1497.386	6439
1499.602	6362
1501.819	6354
1504.034	6399
1506.248	6227
1508.462	6366
1510.675	6233
1512.888	6269
1515.1	6398
1517.311	6436
1519.522	6365
1521.732	6306
1523.942	6468
1526.151	6417
1528.36	6366
1530.566	6329
1532.773	6421
1534.98	6259
1537.187	6265
1539.392	6289
1541.596	6318
1543.801	6468
1546.005	6417
1548.208	6465
1550.411	6415
1552.612	6413
1554.814	6445
1557.013	6290
1559.212	6605
1561.414	6421
1563.612	6517
1565.811	6464
1568.007	6422
1570.203	6656
1572.403	6454
1574.598	6640
1576.792	6516
1578.988	6510
1581.181	6641
1583.376	6525
1585.568	6514
1587.761	6482
1589.952	6621
1592.143	6496
1594.333	6509
1596.524	6657
1598.715	6628
1600.903	6564
1603.091	6557
1605.278	6591
1607.466	6594
1609.652	6598
1611.838	6588
1614.023	6574
1616.207	6648
1618.391	6621
1620.576	6674
1622.759	6544
1624.941	6733
1627.123	6644
1629.304	6704
1631.484	6707
1633.664	6699
1635.844	6674
1638.022	6776
1640.201	6731
1642.38	6691
1644.556	6764
1646.732	6774
1648.908	6679
1651.084	6736
1653.257	6719
1655.433	6767
1657.607	6750
1659.779	6812
1661.951	6748
1664.122	6808
1666.295	6765
1668.467	6861
1670.635	6997
1672.805	6797
1674.973	6826
1677.142	6826
1679.31	6800
1681.478	6736
1683.644	6845
1685.81	6631
1687.975	6772
1690.142	6740
1692.305	6691
1694.468	6705
1696.632	6679
1698.794	6597
1700.957	6644
1703.119	6624
1705.279	6667
1707.439	6549
1709.598	6657
1711.758	6610
1713.917	6723
1716.075	6574
1718.231	6529
1720.388	6625
1722.543	6585
1724.702	6548
1726.856	6610
1729.01	6567
1731.164	6498
1733.317	6488
1735.471	6734
1737.623	6627
1739.774	6535
1741.925	6627
1744.075	6531
1746.225	6725
1748.376	6570
1750.524	6664
1752.672	6533
1754.82	6669
1756.965	6674
1759.113	6633
1761.259	6590
1763.405	6651
1765.549	6670
1767.694	6703
1769.836	6616
1771.981	6624
1774.123	6706
1776.264	6689
1778.405	6677
1780.546	6724
1782.687	6631
1784.827	6695
1786.966	6653
1789.103	6682
1791.242	6640
1793.381	6665
1795.517	6709
1797.653	6685
1799.788	6659
1801.923	6806
1804.057	6673
1806.193	6531
1808.326	6736
1810.457	6654
1812.59	6732
1814.721	6666
1816.855	6727
1818.984	6740
1821.113	6763
1823.244	6577
1825.372	6771
1827.499	6628
1829.63	6788
1831.756	6760
1833.882	6670
1836.007	6631
1838.132	6658
1840.26	6716
1842.384	6573
1844.507	6653
1846.63	6735
1848.752	6600
1850.875	6655
1852.996	6574
1855.118	6676
1857.238	6557
1859.358	6626
1861.477	6676
1863.597	6561
1865.715	6510
1867.832	6660
1869.948	6662
1872.064	6625
1874.181	6695
1876.297	6723
1878.411	6645
1880.526	6631
1882.639	6591
1884.752	6741
1886.865	6651
1888.977	6652
1891.089	6543
1893.2	6745
1895.308	6609
1897.42	6649
1899.53	6599
1901.639	6583
1903.745	6638
1905.853	6693
1907.962	6720
1910.067	6812
1912.174	6802
1914.278	6715
1916.383	6756
1918.486	6676
1920.592	6616
1922.694	6757
1924.797	6712
1926.898	6741
1929	6795
1931.102	6766
1933.203	6685
1935.301	6747
1937.401	6772
1939.499	6740
1941.598	6768
1943.697	6737
1945.793	6690
1947.888	6821
1949.985	6804
1952.08	6693
1954.176	6736
1956.269	6839
1958.364	6662
1960.457	6809
1962.549	6807
1964.642	6771
1966.733	6680
1968.823	6780
1970.913	6675
1973.005	6731
1975.093	6762
1977.184	6764
1979.271	6755
1981.359	6694
1983.446	6895
1985.532	6667
1987.619	6675
1989.705	6790
1991.789	6651
1993.874	6714
1995.956	6630
1998.041	6653
2000.123	6617
2002.206	6682
2004.287	6797
2006.368	6518
2008.449	6677
2010.529	6629
2012.609	6708
2014.688	6726
2016.766	6597
2018.843	6637
2020.922	6734
2022.999	6700
2025.074	6716
2027.15	6713
2029.225	6682
2031.299	6589
2033.375	6701
2035.447	6620
2037.52	6687
2039.592	6756
2041.664	6734
2043.736	6628
2045.807	6795
2047.876	6624
2049.947	6565
2052.015	6684
2054.086	6510
2056.153	6729
2058.221	6721
2060.288	6659
2062.353	6762
2064.42	6691
2066.486	6792
2068.55	6772
2070.614	6737
2072.678	6724
2074.741	6622
2076.805	6767
2078.866	6725
2080.929	6735
2082.99	6607
2085.049	6651
2087.109	6594
2089.17	6641
2091.228	6685
2093.286	6713
2095.344	6670
2097.4	6682
2099.46	6718
2101.516	6583
2103.572	6677
2105.626	6686
2107.679	6730
2109.735	6656
2111.788	6575
2113.841	6740
2115.894	6689
2117.945	6688
2119.997	6794
2122.049	6640
2124.1	6653
2126.148	6717
2128.197	6615
2130.246	6620
2132.296	6543
2134.342	6675
2136.39	6653
2138.437	6757
2140.483	6631
2142.527	6588
2144.574	6598
2146.619	6778
2148.661	6601
2150.705	6535
2152.747	6654
2154.792	6615
2156.832	6703
2158.874	6576
2160.915	6615
2162.954	6769
2164.995	6628
2167.034	6595
2169.072	6659
2171.111	6721
2173.148	6564
2175.186	6644
2177.223	6576
2179.258	6543
2181.294	6619
2183.328	6578
2185.362	6634
2187.398	6610
2189.431	6568
2191.463	6655
2193.495	6506
2195.528	6518
2197.56	6609
2199.59	6507
2201.62	6460
2203.649	6514
2205.678	6664
2207.708	6492
2209.737	6519
2211.764	6501
2213.791	6488
2215.817	6479
2217.843	6619
2219.87	6455
2221.895	6424
2223.919	6427
2225.942	6529
2227.966	6452
2229.988	6435
2232.012	6432
2234.032	6517
2236.054	6559
2238.074	6451
2240.095	6505
2242.116	6456
2244.135	6479
2246.153	6480
2248.171	6509
2250.188	6541
2252.208	6459
2254.223	6588
2256.239	6439
2258.255	6584
2260.269	6497
2262.283	6537
2264.3	6503
2266.312	6505
2268.325	6482
2270.336	6345
2272.349	6525
2274.362	6605
2276.372	6514
2278.383	6469
2280.392	6458
2282.402	6482
2284.409	6418
2286.418	6583
2288.427	6429
2290.433	6488
2292.441	6566
2294.446	6358
2296.453	6535
2298.459	6430
2300.463	6494
2302.466	6460
2304.471	6557
2306.475	6561
2308.477	6554
2310.478	6416
2312.481	6430
2314.481	6362
2316.481	6348
2318.482	6453
2320.482	6456
2322.48	6346
2324.48	6418
2326.478	6335
2328.476	6455
2330.473	6494
2332.469	6456
2334.465	6509
2336.46	6396
2338.454	6386
2340.45	6315
2342.444	6291
2344.437	6326
2346.43	6353
2348.421	6323
2350.414	6333
2352.405	6321
2354.396	6381
2356.386	6263
2358.376	6274
2360.366	6334
2362.355	6258
2364.343	6313
2366.331	6305
2368.317	6269
2370.304	6330
2372.292	6373
2374.278	6313
2376.262	6373
2378.247	6231
2380.23	6316
2382.216	6350
2384.199	6253
2386.181	6277
2388.163	6166
2390.144	6270
2392.127	6141
2394.107	6279
2396.087	6323
2398.066	6266
2400.046	6342
2402.023	6223
2404.004	6386
2405.981	6362
2407.957	6220
2409.934	6256
2411.91	6226
2413.886	6161
2415.862	6241
2417.836	6300
2419.809	6225
2421.784	6214
2423.756	6237
2425.73	6247
2427.701	6168
2429.672	6219
2431.644	6287
2433.615	6152
2435.586	6179
2437.555	6221
2439.523	6208
2441.491	6068
2443.459	6309
2445.428	6149
2447.395	6194
2449.361	6159
2451.327	6108
2453.292	6152
2455.257	6242
2457.223	6141
2459.187	6118
2461.15	6067
2463.113	6136
2465.076	6229
2467.039	6196
2468.999	6233
2470.96	6108
2472.921	6181
2474.881	6186
2476.841	6080
2478.8	6187
2480.759	6186
2482.717	6185
2484.675	6121
2486.63	6138
2488.589	6054
2490.545	6145
2492.5	6173
2494.455	6142
2496.408	6099
2498.364	6171
2500.318	6153
2502.27	6147
2504.223	6052
2506.174	6152
2508.126	6172
2510.078	6123
2512.03	6009
2513.979	6037
2515.927	5967
2517.877	6052
2519.826	5993
2521.775	6082
2523.722	6122
2525.668	6017
2527.616	5967
2529.561	6131
2531.508	6084
2533.452	6064
2535.398	6111
2537.342	6070
2539.284	5966
2541.229	6010
2543.173	6074
2545.114	6025
2547.055	6076
2548.996	6006
2550.938	6026
2552.878	5987
2554.817	6043
2556.756	6015
2558.695	6168
2560.633	6060
2562.572	5911
2564.509	6144
2566.445	6083
2568.382	6106
2570.317	6067
2572.254	6008
2574.189	6178
2576.123	6051
2578.057	6062
2579.99	6040
2581.923	6131
2583.855	5918
2585.788	6144
2587.719	5998
2589.65	6171
2591.579	5973
2593.511	6165
2595.44	6063
2597.37	5954
2599.297	6027
2601.225	6199
2603.153	6002
2605.08	6054
2607.007	6072
2608.932	6043
2610.858	6093
2612.782	6048
2614.709	5992
2616.632	6123
2618.556	6135
2620.478	6117
2622.401	6046
2624.324	6078
2626.247	5961
2628.167	6032
2630.088	5987
2632.008	5985
2633.928	6073
2635.848	5951
2637.766	6106
2639.684	6057
2641.603	6040
2643.519	6180
2645.437	6005
2647.353	6091
2649.27	5961
2651.184	6020
2653.099	6078
2655.014	5987
2656.928	6097
2658.842	6093
2660.755	6099
2662.667	5916
2664.579	6034
2666.491	6115
2668.402	5942
2670.312	6092
2672.222	5945
2674.132	5956
2676.042	6007
2677.951	6015
2679.859	6019
2681.766	5950
2683.674	5940
2685.582	5958
2687.488	6043
2689.392	5982
2691.298	5879
2693.202	5945
2695.107	6079
2697.012	5950
2698.914	5847
2700.817	5889
2702.72	5916
2704.622	5915
2706.524	5949
2708.425	5842
2710.326	6007
2712.225	5814
2714.125	5849
2716.024	5938
2717.923	5902
2719.822	5968
2721.719	5939
2723.616	5806
2725.512	5904
2727.41	5883
2729.305	5874
2731.201	5918
2733.095	5894
2734.99	6069
2736.884	5929
2738.778	5927
2740.67	5912
2742.562	5856
2744.455	5906
2746.346	5908
2748.238	5864
2750.129	5816
2752.018	5855
2753.907	5753
2755.797	5871
2757.687	5940
2759.575	5881
2761.462	5845
2763.349	5838
2765.237	5881
2767.124	5952
2769.009	5892
2770.894	5818
2772.779	5888
2774.663	5821
2776.547	5814
2778.431	5803
2780.314	5853
2782.197	5818
2784.078	5918
2785.96	5734
2787.842	5905
2789.723	5908
2791.603	5840
2793.483	5781
2795.362	5829
2797.241	5653
2799.121	5728
2800.997	5807
2802.874	5697
2804.751	5833
2806.628	5777
2808.506	5829
2810.38	5725
2812.255	5800
2814.13	5783
2816.003	5786
2817.878	5728
2819.752	5679
2821.623	5898
2823.496	5842
2825.368	5803
2827.238	5685
2829.111	5788
2830.98	5782
2832.851	5740
2834.719	5766
2836.589	5826
2838.458	5809
2840.327	5682
2842.193	5790
2844.061	5697
2845.927	5813
2847.794	5832
2849.66	5896
2851.525	5990
2853.39	5837
2855.254	5928
2857.117	5847
2858.983	5874
2860.845	5949
2862.707	5805
2864.569	5896
2866.431	5955
2868.293	6019
2870.154	6023
2872.013	6014
2873.873	6063
2875.733	6251
2877.592	6367
2879.451	6242
2881.309	6189
2883.166	6308
2885.022	6343
2886.879	6357
2888.736	6424
2890.591	6400
2892.446	6350
2894.301	6506
2896.155	6380
2898.009	6342
2899.863	6452
2901.716	6412
2903.568	6463
2905.419	6390
2907.27	6323
2909.123	6432
2910.973	6346
2912.824	6320
2914.673	6450
2916.521	6543
2918.372	6595
2920.22	6612
2922.067	6634
2923.914	6663
2925.761	6694
2927.607	6660
2929.455	6774
2931.301	6896
2933.144	6987
2934.99	6961
2936.833	7014
2938.678	7169
2940.522	7099
2942.364	7386
2944.207	7138
2946.048	7293
2947.891	7296
2949.731	7310
2951.571	7107
2953.412	7255
2955.25	7202
2957.09	7056
2958.93	7015
2960.767	7019
2962.606	6922
2964.443	6930
2966.279	6888
2968.116	6842
2969.953	6715
2971.788	6681
2973.623	6569
2975.457	6566
2977.292	6579
2979.127	6523
2980.959	6475
2982.792	6574
2984.624	6460
2986.455	6399
2988.288	6338
2990.119	6325
2991.949	6430
2993.779	6279
2995.608	6253
2997.439	6179
2999.268	6129
3001.096	6170
3002.923	6057
3004.751	5932
3006.578	5935
3008.406	5979
3010.232	5915
3012.057	5862
3013.883	5763
3015.706	5826
3017.532	5684
3019.356	5653
3021.179	5724
3023.002	5706
3024.823	5500
3026.646	5501
3028.469	5643
3030.289	5525
3032.11	5559
3033.93	5573
3035.749	5486
3037.57	5549
3039.39	5439
3041.207	5598
3043.026	5570
3044.842	5486
3046.661	5470
3048.477	5485
3050.294	5540
3052.109	5530
3053.925	5568
3055.739	5482
3057.555	5499
3059.368	5562
3061.181	5515
3062.995	5501
3064.807	5512
3066.62	5455
3068.433	5489
3070.243	5466
3072.054	5399
3073.865	5439
3075.675	5435
3077.485	5527
3079.293	5421
3081.102	5392
3082.911	5439
3084.719	5400
3086.527	5353
3088.333	5420
3090.139	5296
3091.945	5301
3093.75	5432
3095.557	5265
3097.361	5393
3099.165	5293
3100.969	5268
3102.772	5267
3104.575	5257
3106.379	5337
3108.181	5299
3109.982	5371
3111.783	5259
3113.584	5274
3115.386	5229
3117.186	5249
3118.985	5238
3120.783	5287
3122.582	5261
3124.381	5334
3126.179	5242
3127.975	5239
3129.772	5286
3131.569	5241
3133.365	5174
3135.161	5166
3136.956	5247
3138.751	5264
3140.544	5199
3142.338	5161
3144.132	5174
3145.925	5162
3147.717	5178
3149.509	5209
3151.301	5174
3153.091	5172
3154.884	5216
3156.673	5095
3158.462	5160
3160.252	5264
3162.041	5260
3163.831	5133
3165.618	5211
3167.405	5158
3169.193	5158
3170.979	5120
3172.767	5207
3174.553	5087
3176.338	5045
3178.123	5149
3179.907	5099
3181.692	5098
3183.477	5082
3185.259	5091
3187.042	5083
3188.824	5250
3190.607	5150
3192.389	5087
3194.17	5034
3195.951	5191
3197.73	5075
3199.51	5158
3201.289	5097
3203.07	5091
3204.848	5128
3206.626	5099
3208.403	5134
3210.18	5066
3211.959	5101
3213.735	5128
3215.511	5189
3217.285	5112
3219.06	5201
3220.836	5140
3222.611	5082
3224.384	5105
3226.158	5047
3227.929	5056
3229.702	5166
3231.476	5073
3233.248	5225
3235.018	5075
3236.789	5031
3238.56	5096
3240.33	5056
3242.1	5080
3243.869	5093
3245.637	5103
3247.405	5089
3249.172	5127
3250.941	5032
3252.707	5004
3254.474	5073
3256.24	5055
3258.006	5075
3259.772	5116
3261.537	5046
3263.301	5102
3265.065	5106
3266.828	5184
3268.592	5110
3270.355	5080
3272.117	5068
3273.878	5113
3275.64	5059
3277.401	5137
3279.162	5103
3280.922	5048
3282.682	5130
3284.441	4980
3286.199	5068
3287.959	5132
3289.716	5113
3291.475	5062
3293.232	5073
3294.988	5043
3296.744	5099
3298.501	5070
3300.256	5064
3302.011	5144
3303.766	5160
3305.52	5165
3307.275	5107
3309.028	5006
3310.781	5107
3312.533	5011
3314.285	5046
3316.038	5019
3317.789	5020
3319.54	5085
3321.289	4971
3323.039	5071
3324.789	5101
3326.539	5066
3328.288	5000
3330.035	5124
3331.783	5010
3333.531	5108
3335.28	5092
3337.025	5089
3338.771	5053
3340.518	5066
3342.262	5074
3344.009	5007
3345.753	5138
3347.497	5012
3349.24	4951
3350.983	4992
3352.726	4862
3354.469	5085
3356.212	4954
3357.952	5028
3359.694	4930
3361.434	4931
3363.176	4903
3364.916	5041
3366.654	4961
3368.394	4840
3370.132	4972
3371.871	5053
3373.61	5011
3375.346	4917
3377.083	4833
3378.82	4875
3380.556	4943
3382.292	4840
3384.027	4959
3385.763	4906
3387.497	4881
3389.231	4897
3390.965	4897
3392.698	4904
3394.431	4840
3396.164	4886
3397.896	4876
3399.627	4872
3401.36	4881
3403.09	4905
3404.82	4839
3406.55	4863
3408.279	4794
3410.01	4847
3411.738	4873
3413.467	4814
3415.194	4882
3416.92	4787
3418.647	4793
3420.375	4753
3422.102	4864
3423.827	4790
3425.553	4821
3427.277	4764
3429.003	4872
3430.727	4870
3432.451	4777
3434.173	4745
3435.896	4742
3437.62	4690
3439.343	4761
3441.063	4708
3442.785	4767
3444.505	4647
3446.226	4680
3447.948	4708
3449.666	4659
3451.386	4770
3453.104	4623
3454.823	4652
3456.541	4653
3458.259	4630
3459.976	4718
3461.693	4686
3463.408	4592
3465.125	4659
3466.841	4668
3468.556	4634
3470.271	4563
3471.985	4563
3473.698	4605
3475.414	4654
3477.126	4588
3478.838	4517
3480.55	4610
3482.263	4568
3483.975	4571
3485.686	4620
3487.396	4572
3489.106	4612
3490.817	4610
3492.526	4485
3494.236	4460
3495.944	4586
3497.652	4499
3499.359	4549
3501.066	4540
3502.775	4444
3504.481	4497
3506.187	4432
3507.893	4531
3509.598	4378
3511.304	4459
3513.009	4523
3514.713	4503
3516.417	4509
3518.12	4497
3519.821	4394
3521.525	4438
3523.228	4494
3524.929	4454
3526.631	4398
3528.33	4385
3530.032	4334
3531.733	4517
3533.433	4442
3535.131	4476
3536.83	4428
3538.529	4394
3540.227	4308
3541.925	4361
3543.623	4475
3545.319	4367
3547.016	4332
3548.712	4387
3550.408	4248
3552.103	4315
3553.798	4306
3555.491	4355
3557.188	4329
3558.88	4320
3560.574	4248
3562.266	4333
3563.959	4373
3565.651	4302
3567.343	4193
3569.035	4296
3570.725	4323
3572.415	4343
3574.106	4162
3575.797	4303
3577.485	4314
3579.174	4315
3580.863	4263
3582.551	4298
3584.238	4216
3585.926	4308
3587.613	4253
3589.3	4221
3590.986	4190
3592.671	4269
3594.357	4183
3596.042	4152
3597.726	4157
3599.41	4308
3601.094	4156
3602.778	4143
3604.461	4121
3606.143	4080
3607.825	4149
3609.507	4209
3611.188	4065
3612.87	4093
3614.551	4056
3616.229	4070
3617.909	4155
3619.589	4120
3621.269	4143
3622.948	4034
3624.625	4120
3626.302	4011
3627.98	3994
3629.657	4076
3631.334	4156
3633.01	4041
3634.686	3953
3636.361	4044
3638.036	4078
3639.712	3975
3641.385	3962
3643.06	4136
3644.732	4037
3646.405	4070
3648.08	3965
3649.751	3993
3651.424	3949
3653.094	4022
3654.766	3893
3656.436	3957
3658.106	3927
3659.777	3975
3661.446	3983
3663.115	3941
3664.783	3914
3666.452	3935
3668.121	3928
3669.788	3921
3671.454	3942
3673.121	3915
3674.789	3932
3676.455	3966
3678.12	3928
3679.784	3980
3681.45	3802
3683.114	3975
3684.779	3944
3686.442	3888
3688.105	3894
3689.768	3813
3691.43	3912
3693.093	3824
3694.754	3847
3696.415	3810
3698.076	3895
3699.736	3935
3701.396	3896
3703.057	3918
3704.716	3766
3706.375	3831
3708.034	3917
3709.692	3872
3711.351	3800
3713.008	3837
3714.665	3854
3716.321	3847
3717.977	3783
3719.634	3843
3721.29	3784
3722.945	3780
3724.598	3797
3726.253	3733
3727.907	3733
3729.561	3782
3731.214	3801
3732.867	3852
3734.518	3808
3736.171	3761
3737.824	3754
3739.474	3763
3741.125	3691
3742.775	3807
3744.425	3732
3746.074	3857
3747.725	3818
3749.373	3796
3751.022	3823
3752.669	3781
3754.318	3704
3755.966	3746
3757.612	3728
3759.259	3797
3760.905	3713
3762.55	3673
3764.197	3773
3765.842	3790
3767.486	3713
3769.131	3674
3770.774	3699
3772.417	3708
3774.061	3668
3775.705	3586
3777.347	3748
3778.988	3659
3780.629	3695
3782.271	3669
3783.912	3596
3785.552	3689
3787.192	3785
3788.831	3654
3790.472	3707
3792.112	3702
3793.75	3774
3795.388	3727
3797.024	3646
3798.661	3574
3800.3	3584
3801.936	3585
3803.572	3557
3805.208	3632
3806.844	3706
3808.48	3626
3810.115	3512
3811.748	3595
3813.382	3608
3815.016	3649
3816.649	3655
3818.283	3583
3819.914	3626
3821.547	3528
3823.178	3554
3824.809	3493
3826.441	3588
3828.072	3577
3829.701	3577
3831.331	3575
3832.96	3539
3834.591	3510
3836.219	3558
3837.847	3596
3839.475	3543
3841.102	3532
3842.729	3528
3844.357	3513
3845.984	3559
3847.609	3529
3849.234	3535
3850.86	3591
3852.485	3551
3854.11	3478
3855.734	3467
3857.357	3603
3858.981	3511
3860.603	3493
3862.227	3520
3863.848	3495
3865.471	3463
3867.092	3493
3868.713	3446
3870.334	3558
3871.954	3545
3873.575	3465
3875.194	3393
3876.813	3509
3878.433	3419
3880.051	3507
3881.669	3479
3883.286	3437
3884.904	3523
3886.52	3412
3888.138	3479
3889.754	3406
3891.37	3438
3892.985	3468
3894.6	3511
3896.216	3461
3897.831	3485
3899.444	3571
3901.058	3432
3902.67	3454
3904.283	3475
3905.897	3461
3907.509	3457
3909.121	3429
3910.731	3476
3912.342	3365
3913.954	3436
3915.563	3436
3917.174	3433
3918.783	3468
3920.391	3407
3922.002	3374
3923.611	3426
3925.218	3442
3926.826	3456
3928.432	3348
3930.039	3385
3931.647	3459
3933.253	3432
3934.859	3415
3936.464	3450
3938.068	3404
3939.675	3339
3941.278	3480
3942.883	3412
3944.486	3384
3946.089	3321
3947.692	3402
3949.295	3351
3950.898	3356
3952.499	3356
3954.1	3337
3955.7	3296
3957.303	3371
3958.903	3316
3960.502	3349
3962.101	3312
3963.7	3296
3965.301	3301
3966.899	3291
3968.497	3335
3970.094	3304
3971.691	3375
3973.288	3343
3974.885	3354
3976.481	3282
3978.077	3229
3979.672	3290
3981.267	3266
3982.863	3262
3984.457	3319
3986.051	3294
3987.645	3251
3989.238	3280
3990.831	3271
3992.425	3282
3994.017	3186
3995.607	3221
3997.199	3326
3998.79	3236
4000.382	3273
4001.973	3256
4003.561	3257
4005.151	3201
4006.741	3172
4008.331	3270
4009.918	3165
4011.507	3259
4013.095	3152
4014.681	3262
4016.269	3172
4017.856	3107
4019.443	3214
4021.028	3173
4022.614	3157
4024.199	3213
4025.785	3092
4027.37	3203
4028.953	3153
4030.536	3176
4032.12	3147
4033.704	3165
4035.287	3134
4036.869	3111
4038.45	3162
4040.032	3228
4041.613	3077
4043.195	3103
4044.776	3120
4046.356	3056
4047.935	3092
4049.515	3073
4051.095	3105
4052.674	3118
4054.251	3123
4055.829	3111
4057.406	3012
4058.985	3076
4060.562	3058
4062.139	3065
4063.715	3097
4065.29	3137
4066.865	3123
4068.442	3089
4070.016	3073
4071.59	3032
4073.164	3049
4074.738	3065
4076.312	3082
4077.885	3058
4079.458	3056
4081.03	3064
4082.602	3151
4084.173	2943
4085.745	2993
4087.315	3086
4088.886	3044
4090.456	3071
4092.026	3017
4093.596	3049
4095.165	2998
4096.734	3018
4098.301	3091
4099.869	3013
4101.437	3024
4103.006	3018
4104.572	3004
4106.139	3012
4107.704	2980
4109.27	2954
4110.837	3073
4112.401	2985
4113.966	3020
4115.53	3062
4117.094	2950
4118.659	3062
4120.223	2955
4121.785	2940
4123.347	2941
4124.909	2928
4126.471	3005
4128.034	2946
4129.595	2930
4131.155	2916
4132.716	2966
4134.275	2943
4135.836	2963
4137.395	2942
4138.955	2943
4140.513	2939
4142.071	2922
4143.628	2905
4145.188	2932
4146.745	2906
4148.302	2898
4149.858	2887
4151.414	2956
4152.971	2953
4154.526	2870
4156.081	2878
4157.635	2813
4159.189	2901
4160.745	2853
4162.298	2941
4163.852	2835
4165.405	2802
4166.957	2906
4168.51	2915
4170.063	2839
4171.614	2834
4173.166	2813
4174.717	2898
4176.267	2819
4177.817	2850
4179.368	2775
4180.917	2927
4182.466	2781
4184.016	2837
4185.564	2884
4187.112	2782
4188.66	2848
4190.207	2842
4191.754	2793
4193.301	2770
4194.848	2867
4196.394	2751
4197.94	2798
4199.484	2775
4201.03	2744
4202.575	2725
4204.12	2846
4205.663	2795
4207.207	2761
4208.75	2761
4210.292	2908
4211.836	2812
4213.378	2815
4214.92	2759
4216.46	2672
4218.002	2800
4219.544	2744
4221.083	2673
4222.625	2776
4224.164	2746
4225.703	2744
4227.244	2816
4228.782	2786
4230.32	2740
4231.857	2771
4233.395	2750
4234.933	2770
4236.471	2727
4238.007	2707
4239.542	2668
4241.078	2766
4242.614	2753
4244.15	2693
4245.685	2750
4247.219	2749
4248.753	2700
4250.287	2790
4251.82	2730
4253.354	2696
4254.887	2755
4256.419	2748
4257.951	2693
4259.483	2687
4261.016	2719
4262.547	2748
4264.078	2757
4265.608	2745
4267.137	2748
4268.668	2726
4270.197	2727
4271.727	2658
4273.254	2604
4274.783	2660
4276.311	2675
4277.84	2710
4279.366	2666
4280.894	2649
4282.42	2669
4283.946	2715
4285.473	2678
4286.998	2636
4288.523	2662
4290.047	2664
4291.572	2594
4293.096	2615
4294.622	2632
4296.144	2648
4297.668	2643
4299.19	2634
4300.713	2659
4302.236	2602
4303.758	2614
4305.279	2569
4306.799	2618
4308.321	2647
4309.842	2667
4311.361	2655
4312.882	2508
4314.401	2631
