400.0961	2306
402.6185	2244
405.1424	2276
407.6635	2295
410.1838	2320
412.7035	2231
415.2225	2308
417.7388	2320
420.2585	2378
422.7754	2365
425.2917	2396
427.8072	2390
430.3221	2424
432.8363	2534
435.3498	2366
437.8626	2435
440.3727	2516
442.8841	2427
445.3969	2474
447.907	2428
450.4142	2487
452.9229	2512
455.4289	2368
457.9362	2339
460.4449	2399
462.9488	2409
465.454	2374
467.9566	2378
470.4604	2377
472.9637	2412
475.4662	2381
477.966	2381
480.4671	2408
482.9656	2439
485.4633	2407
487.9645	2376
490.4608	2391
492.9566	2417
495.4536	2400
497.948	2419
500.4437	2368
502.9387	2376
505.431	2410
507.9226	2424
510.4136	2426
512.9079	2438
515.3975	2337
517.8864	2486
520.3746	2412
522.8622	2445
525.3491	2422
527.8394	2519
530.3249	2407
532.8098	2416
535.2939	2540
537.7774	2467
540.2623	2501
542.7444	2444
545.2259	2466
547.7067	2469
550.1868	2432
552.6683	2457
555.147	2442
557.6231	2462
560.1005	2451
562.5773	2472
565.0534	2512
567.5308	2588
570.0056	2497
572.4776	2530
574.951	2555
577.4237	2576
579.8978	2558
582.3671	2602
584.8378	2527
587.3079	2554
589.7773	2585
592.244	2546
594.714	2597
597.1793	2515
599.6461	2578
602.1121	2498
604.5754	2492
607.0421	2561
609.5042	2502
611.9675	2528
614.4282	2486
616.8902	2558
619.3515	2465
621.8122	2563
624.2702	2474
626.7296	2527
629.1863	2487
631.6423	2530
634.1017	2450
636.5563	2479
639.0104	2483
641.4658	2513
643.9185	2525
646.3725	2508
648.8239	2500
651.2766	2494
653.7266	2500
656.176	2531
658.6247	2586
661.0748	2537
663.5242	2575
665.9709	2568
668.417	2572
670.8624	2621
673.3092	2543
675.7533	2574
678.1968	2566
680.6395	2561
683.0817	2605
685.5251	2563
687.9659	2527
690.4061	2501
692.8456	2601
695.2844	2561
697.7226	2652
700.1621	2667
702.599	2514
705.0332	2610
707.4688	2628
709.9036	2648
712.3399	2621
714.7735	2614
717.2044	2560
719.6367	2579
722.0683	2677
724.4993	2686
726.9296	2687
729.3593	2652
731.7883	2652
734.2147	2612
736.6423	2632
739.0714	2676
741.4958	2701
743.9216	2731
746.3447	2635
748.7691	2628
751.1929	2680
753.616	2731
756.0366	2664
758.4584	2712
760.8776	2704
763.2982	2763
765.718	2685
768.1373	2739
770.5539	2773
772.9698	2691
775.3871	2721
777.8038	2691
780.2178	2748
782.6332	2717
785.0459	2779
787.458	2774
789.8714	2749
792.2842	2733
794.6943	2790
797.1038	2727
799.5127	2764
801.9209	2730
804.3324	2753
806.7393	2747
809.1456	2737
811.5513	2831
813.9562	2742
816.3625	2844
818.7663	2701
821.1693	2795
823.5718	2795
825.9735	2822
828.3746	2791
830.7771	2784
833.177	2803
835.5762	2733
837.9747	2852
840.3727	2794
842.772	2853
845.1666	2860
847.5626	2812
849.958	2939
852.3527	2877
854.7488	2875
857.1403	2807
859.5331	2946
861.9253	2813
864.3168	2932
866.7057	2819
869.098	2884
871.4876	2868
873.8746	2894
876.263	2892
878.6487	2897
881.0378	2855
883.4243	2891
885.8081	2842
888.1933	2844
890.5759	2842
892.9598	2869
895.343	2867
897.7256	2794
900.1057	2830
902.4871	2834
904.8659	2893
907.246	2940
909.6254	2921
912.0023	2927
914.3786	2998
916.7562	3050
919.1331	3168
921.5074	3077
923.8831	3211
926.2562	3112
928.6287	3098
931.0005	3013
933.3757	3084
935.7462	3144
938.1162	3152
940.4855	3149
942.8542	3091
945.2242	3222
947.5916	3259
949.9584	3405
952.3266	3496
954.6921	3586
957.0571	3801
959.4233	3950
961.787	4043
964.15	3955
966.5125	3901
968.8742	3625
971.2354	3551
973.5959	3354
975.9559	3242
978.3151	3172
980.6738	3083
983.0338	3059
985.3912	3047
987.7461	2925
990.1022	3013
992.4578	3014
994.8127	2956
997.1689	3016
999.5207	2999
1001.874	3047
1004.226	2982
1006.576	3031
1008.929	3077
1011.28	2979
1013.628	2979
1015.977	3075
1018.324	3058
1020.674	2971
1023.019	3018
1025.366	3060
1027.713	3047
1030.056	3004
1032.399	3085
1034.746	3052
1037.087	3091
1039.431	3092
1041.771	3077
1044.113	3058
1046.454	3012
1048.793	3119
1051.133	3040
1053.471	3081
1055.807	3020
1058.146	3059
1060.483	3113
1062.818	3116
1065.153	3119
1067.489	3231
1069.822	3146
1072.156	3075
1074.488	3171
1076.82	3108
1079.15	3104
1081.48	3143
1083.814	3017
1086.143	3092
1088.471	3114
1090.799	3000
1093.126	3038
1095.452	3034
1097.78	3030
1100.105	3106
1102.43	3095
1104.754	3113
1107.077	3020
1109.4	3094
1111.722	3079
1114.044	3052
1116.365	3046
1118.685	2998
1121.005	3071
1123.324	3041
1125.643	3080
1127.961	3080
1130.278	3060
1132.595	3005
1134.911	3120
1137.226	3053
1139.541	3012
1141.854	2973
1144.167	2985
1146.482	3029
1148.793	2953
1151.105	2975
1153.414	3042
1155.725	2997
1158.033	3036
1160.344	3043
1162.651	2975
1164.959	2995
1167.265	3024
1169.572	3011
1171.878	3056
1174.184	3033
1176.488	2993
1178.79	3046
1181.094	3037
1183.396	3032
1185.699	3079
1188.001	3096
1190.301	3081
1192.6	2932
1194.9	3070
1197.2	3045
1199.497	3122
1201.794	3068
1204.09	3056
1206.387	3030
1208.684	3099
1210.978	3128
1213.272	3136
1215.565	3138
1217.858	3096
1220.15	3120
1222.443	3024
1224.734	3119
1227.024	3115
1229.313	3068
1231.602	3139
1233.892	3151
1236.18	3160
1238.467	3243
1240.754	3274
1243.04	3214
1245.325	3249
1247.612	3213
1249.896	3277
1252.178	3286
1254.461	3280
1256.743	3264
1259.027	3253
1261.308	3267
1263.587	3176
1265.867	3317
1268.146	3274
1270.425	3304
1272.703	3301
1274.981	3276
1277.256	3226
1279.532	3261
1281.808	3172
1284.083	3237
1286.358	3216
1288.63	3215
1290.904	3187
1293.175	3221
1295.449	3239
1297.719	3127
1299.99	3192
1302.259	3096
1304.529	3144
1306.798	3206
1309.065	3144
1311.333	3143
1313.599	3216
1315.866	3178
1318.131	3188
1320.396	3155
1322.66	3201
1324.925	3180
1327.187	3194
1329.448	3145
1331.711	3264
1333.974	3124
1336.234	3139
1338.493	3201
1340.752	3197
1343.01	3225
1345.269	3134
1347.526	3233
1349.784	3190
1352.04	3117
1354.295	3086
1356.552	3141
1358.806	3145
1361.059	3104
1363.312	3098
1365.564	3088
1367.818	3172
1370.069	3247
1372.318	3144
1374.568	3145
1376.817	3207
1379.066	3242
1381.316	3206
1383.564	3262
1385.809	3146
1388.056	3268
1390.301	3261
1392.549	3271
1394.793	3347
1397.036	3239
1399.279	3284
1401.522	3357
1403.763	3376
1406.007	3344
1408.248	3364
1410.487	3379
1412.727	3364
1414.965	3381
1417.205	3329
1419.442	3300
1421.68	3322
1423.915	3295
1426.152	3273
1428.388	3328
1430.623	3287
1432.857	3385
1435.091	3389
1437.323	3318
1439.556	3373
1441.789	3449
1444.019	3403
1446.25	3378
1448.48	3443
1450.708	3454
1452.938	3414
1455.167	3417
1457.394	3442
1459.62	3448
1461.846	3399
1464.073	3504
1466.299	3442
1468.523	3394
1470.746	3345
1472.969	3317
1475.191	3267
1477.415	3304
1479.636	3276
1481.858	3204
1484.078	3219
1486.298	3146
1488.518	3125
1490.736	3176
1492.954	3182
1495.169	3134
1497.386	3164
1499.602	3183
1501.819	3159
1504.034	3164
1506.248	3200
1508.462	3144
1510.675	3137
1512.888	3084
1515.1	3112
1517.311	3165
1519.522	3215
1521.732	3095
1523.942	3171
1526.151	3090
1528.36	3116
1530.566	3143
1532.773	3134
1534.98	3160
1537.187	3066
1539.392	3180
1541.596	3189
1543.801	3136
1546.005	3149
1548.208	3199
1550.411	3116
1552.612	3197
1554.814	3132
1557.013	3177
1559.212	3194
1561.414	3221
1563.612	3228
1565.811	3187
1568.007	3244
1570.203	3268
1572.403	3243
1574.598	3245
1576.792	3258
1578.988	3314
1581.181	3235
1583.376	3262
1585.568	3262
1587.761	3194
1589.952	3226
1592.143	3189
1594.333	3272
1596.524	3147
1598.715	3229
1600.903	3221
1603.091	3186
1605.278	3269
1607.466	3280
1609.652	3307
1611.838	3259
1614.023	3330
1616.207	3239
1618.391	3309
1620.576	3325
1622.759	3253
1624.941	3317
1627.123	3352
1629.304	3368
1631.484	3348
1633.664	3400
1635.844	3324
1638.022	3349
1640.201	3394
1642.38	3314
1644.556	3355
1646.732	3360
1648.908	3367
1651.084	3432
1653.257	3471
1655.433	3312
1657.607	3351
1659.779	3426
1661.951	3420
1664.122	3382
1666.295	3422
1668.467	3320
1670.635	3416
1672.805	3406
1674.973	3318
1677.142	3444
1679.31	3380
1681.478	3376
1683.644	3333
1685.81	3460
1687.975	3313
1690.142	3421
1692.305	3349
1694.468	3400
1696.632	3407
1698.794	3429
1700.957	3350
1703.119	3296
1705.279	3164
1707.439	3227
1709.598	3264
1711.758	3221
1713.917	3312
1716.075	3203
1718.231	3232
1720.388	3305
1722.543	3214
1724.702	3243
1726.856	3216
1729.01	3305
1731.164	3236
1733.317	3246
1735.471	3247
1737.623	3219
1739.774	3290
1741.925	3294
1744.075	3265
1746.225	3314
1748.376	3246
1750.524	3215
1752.672	3279
1754.82	3219
1756.965	3276
1759.113	3255
1761.259	3223
1763.405	3248
1765.549	3263
1767.694	3303
1769.836	3248
1771.981	3281
1774.123	3324
1776.264	3223
1778.405	3273
1780.546	3286
1782.687	3237
1784.827	3291
1786.966	3199
1789.103	3299
1791.242	3257
1793.381	3286
1795.517	3282
1797.653	3240
1799.788	3272
1801.923	3220
1804.057	3285
1806.193	3239
1808.326	3298
1810.457	3302
1812.59	3295
1814.721	3280
1816.855	3279
1818.984	3258
1821.113	3240
1823.244	3240
1825.372	3305
1827.499	3298
1829.63	3208
1831.756	3280
1833.882	3247
1836.007	3298
1838.132	3312
1840.26	3246
1842.384	3280
1844.507	3220
1846.63	3239
1848.752	3216
1850.875	3335
1852.996	3206
1855.118	3239
1857.238	3221
1859.358	3276
1861.477	3301
1863.597	3325
1865.715	3242
1867.832	3310
1869.948	3205
1872.064	3227
1874.181	3177
1876.297	3269
1878.411	3271
1880.526	3226
1882.639	3245
1884.752	3257
1886.865	3216
1888.977	3150
1891.089	3266
1893.2	3287
1895.308	3304
1897.42	3333
1899.53	3278
1901.639	3310
1903.745	3231
1905.853	3304
1907.962	3301
1910.067	3299
1912.174	3276
1914.278	3377
1916.383	3339
1918.486	3345
1920.592	3338
1922.694	3370
1924.797	3328
1926.898	3234
1929	3340
1931.102	3312
1933.203	3316
1935.301	3311
1937.401	3412
1939.499	3354
1941.598	3374
1943.697	3318
1945.793	3373
1947.888	3341
1949.985	3326
1952.08	3346
1954.176	3328
1956.269	3287
1958.364	3284
1960.457	3297
1962.549	3327
1964.642	3344
1966.733	3292
1968.823	3283
1970.913	3307
1973.005	3354
1975.093	3372
1977.184	3256
1979.271	3403
1981.359	3384
1983.446	3323
1985.532	3323
1987.619	3318
1989.705	3317
1991.789	3285
1993.874	3316
1995.956	3326
1998.041	3257
2000.123	3297
2002.206	3292
2004.287	3335
2006.368	3303
2008.449	3292
2010.529	3284
2012.609	3328
2014.688	3304
2016.766	3261
2018.843	3368
2020.922	3273
2022.999	3226
2025.074	3355
2027.15	3288
2029.225	3311
2031.299	3391
2033.375	3310
2035.447	3325
2037.52	3233
2039.592	3331
2041.664	3321
2043.736	3337
2045.807	3246
2047.876	3291
2049.947	3281
2052.015	3261
2054.086	3264
2056.153	3300
2058.221	3374
2060.288	3212
2062.353	3258
2064.42	3302
2066.486	3314
2068.55	3301
2070.614	3281
2072.678	3303
2074.741	3327
2076.805	3299
2078.866	3292
2080.929	3297
2082.99	3313
2085.049	3318
2087.109	3352
2089.17	3295
2091.228	3257
2093.286	3318
2095.344	3319
2097.4	3318
2099.46	3273
2101.516	3268
2103.572	3281
2105.626	3371
2107.679	3318
2109.735	3323
2111.788	3383
2113.841	3290
2115.894	3314
2117.945	3307
2119.997	3317
2122.049	3367
2124.1	3281
2126.148	3355
2128.197	3268
2130.246	3297
2132.296	3257
2134.342	3388
2136.39	3262
2138.437	3320
2140.483	3380
2142.527	3248
2144.574	3241
2146.619	3226
2148.661	3358
2150.705	3271
2152.747	3242
2154.792	3374
2156.832	3243
2158.874	3292
2160.915	3314
2162.954	3290
2164.995	3293
2167.034	3318
2169.072	3316
2171.111	3320
2173.148	3294
2175.186	3330
2177.223	3276
2179.258	3281
2181.294	3262
2183.328	3318
2185.362	3269
2187.398	3216
2189.431	3242
2191.463	3208
2193.495	3267
2195.528	3219
2197.56	3277
2199.59	3291
2201.62	3230
2203.649	3279
2205.678	3223
2207.708	3307
2209.737	3208
2211.764	3291
2213.791	3218
2215.817	3215
2217.843	3243
2219.87	3238
2221.895	3279
2223.919	3281
2225.942	3336
2227.966	3246
2229.988	3230
2232.012	3245
2234.032	3201
2236.054	3303
2238.074	3257
2240.095	3198
2242.116	3233
2244.135	3242
2246.153	3301
2248.171	3235
2250.188	3254
2252.208	3270
2254.223	3288
2256.239	3292
2258.255	3172
2260.269	3268
2262.283	3227
2264.3	3218
2266.312	3271
2268.325	3202
2270.336	3192
2272.349	3243
2274.362	3273
2276.372	3249
2278.383	3250
2280.392	3203
2282.402	3299
2284.409	3221
2286.418	3340
2288.427	3256
2290.433	3261
2292.441	3215
2294.446	3302
2296.453	3271
2298.459	3285
2300.463	3223
2302.466	3231
2304.471	3213
2306.475	3291
2308.477	3287
2310.478	3211
2312.481	3342
2314.481	3270
2316.481	3203
2318.482	3267
2320.482	3283
2322.48	3216
2324.48	3145
2326.478	3254
2328.476	3210
2330.473	3227
2332.469	3252
2334.465	3268
2336.46	3249
2338.454	3212
2340.45	3243
2342.444	3195
2344.437	3231
2346.43	3239
2348.421	3208
2350.414	3276
2352.405	3216
2354.396	3239
2356.386	3167
2358.376	3184
2360.366	3208
2362.355	3205
2364.343	3176
2366.331	3166
2368.317	3196
2370.304	3219
2372.292	3170
2374.278	3210
2376.262	3199
2378.247	3200
2380.23	3192
2382.216	3172
2384.199	3141
2386.181	3207
2388.163	3187
2390.144	3175
2392.127	3208
2394.107	3147
2396.087	3182
2398.066	3076
2400.046	3141
2402.023	3092
2404.004	3142
2405.981	3174
2407.957	3204
2409.934	3180
2411.91	3113
2413.886	3156
2415.862	3130
2417.836	3248
2419.809	3147
2421.784	3159
2423.756	3129
2425.73	3180
2427.701	3193
2429.672	3127
2431.644	3148
2433.615	3144
2435.586	3200
2437.555	3187
2439.523	3232
2441.491	3075
2443.459	3221
2445.428	3192
2447.395	3019
2449.361	3104
2451.327	3204
2453.292	3170
2455.257	3136
2457.223	3126
2459.187	3185
2461.15	3204
2463.113	3117
2465.076	3103
2467.039	3139
2468.999	3132
2470.96	3090
2472.921	3176
2474.881	3167
2476.841	3124
2478.8	3236
2480.759	3127
2482.717	3121
2484.675	3209
2486.63	3088
2488.589	3154
2490.545	3127
2492.5	3111
2494.455	3076
2496.408	3094
2498.364	3063
2500.318	3167
2502.27	3164
2504.223	3110
2506.174	3184
2508.126	3106
2510.078	3112
2512.03	3152
2513.979	3163
2515.927	3136
2517.877	3159
2519.826	3188
2521.775	3137
2523.722	3160
2525.668	3141
2527.616	3119
2529.561	3081
2531.508	3164
2533.452	3141
2535.398	3136
2537.342	3067
2539.284	3076
2541.229	3137
2543.173	3066
2545.114	3136
2547.055	3061
2548.996	3097
2550.938	3118
2552.878	3185
2554.817	3112
2556.756	3110
2558.695	3127
2560.633	3167
2562.572	3131
2564.509	3092
2566.445	3191
2568.382	3152
2570.317	3078
2572.254	3130
2574.189	3133
2576.123	3104
2578.057	3080
2579.99	3132
2581.923	3119
2583.855	3115
2585.788	3130
2587.719	3081
2589.65	3140
2591.579	3112
2593.511	3172
2595.44	3077
2597.37	3131
2599.297	3139
2601.225	3122
2603.153	3149
2605.08	3178
2607.007	3194
2608.932	3061
2610.858	3125
2612.782	3074
2614.709	3133
2616.632	3151
2618.556	3148
2620.478	3127
2622.401	3079
2624.324	3135
2626.247	3106
2628.167	3132
2630.088	3190
2632.008	3200
2633.928	3149
2635.848	3190
2637.766	3196
2639.684	3128
2641.603	3120
2643.519	3178
2645.437	3115
2647.353	3165
2649.27	3064
2651.184	3163
2653.099	3189
2655.014	3153
2656.928	3129
2658.842	3210
2660.755	3138
2662.667	3186
2664.579	3186
2666.491	3071
2668.402	3089
2670.312	3157
2672.222	3188
2674.132	3013
2676.042	3150
2677.951	3089
2679.859	3100
2681.766	3088
2683.674	3137
2685.582	3156
2687.488	3120
2689.392	3132
2691.298	3056
2693.202	3104
2695.107	3152
2697.012	3170
2698.914	3109
2700.817	3146
2702.72	3070
2704.622	3037
2706.524	3083
2708.425	3135
2710.326	3149
2712.225	3112
2714.125	3173
2716.024	3096
2717.923	3062
2719.822	3049
2721.719	3077
2723.616	3074
2725.512	3106
2727.41	3117
2729.305	3111
2731.201	3117
2733.095	3116
2734.99	3118
2736.884	3121
2738.778	3152
2740.67	3058
2742.562	3124
2744.455	3064
2746.346	3083
2748.238	3095
2750.129	3163
2752.018	3067
2753.907	3057
2755.797	3104
2757.687	3118
2759.575	3101
2761.462	3090
2763.349	3133
2765.237	3087
2767.124	3082
2769.009	3113
2770.894	3028
2772.779	3146
2774.663	3090
2776.547	3112
2778.431	3087
2780.314	3085
2782.197	3043
2784.078	3068
2785.96	3073
2787.842	3116
2789.723	3086
2791.603	3049
2793.483	3039
2795.362	3094
2797.241	3101
2799.121	3104
2800.997	3177
2802.874	3072
2804.751	3062
2806.628	3069
2808.506	3111
2810.38	3050
2812.255	3026
2814.13	3109
2816.003	3056
2817.878	3087
2819.752	2995
2821.623	3066
2823.496	3022
2825.368	3143
2827.238	3086
2829.111	3053
2830.98	3167
2832.851	3110
2834.719	3038
2836.589	3066
2838.458	3140
2840.327	3084
2842.193	3129
2844.061	3078
2845.927	3169
2847.794	3083
2849.66	3204
2851.525	3166
2853.39	3132
2855.254	3107
2857.117	3192
2858.983	3208
2860.845	3233
2862.707	3283
2864.569	3256
2866.431	3303
2868.293	3303
2870.154	3335
2872.013	3400
2873.873	3422
2875.733	3477
2877.592	3478
2879.451	3514
2881.309	3521
2883.166	3562
2885.022	3602
2886.879	3661
2888.736	3630
2890.591	3612
2892.446	3602
2894.301	3696
2896.155	3695
2898.009	3677
2899.863	3665
2901.716	3655
2903.568	3618
2905.419	3582
2907.27	3653
2909.123	3658
2910.973	3691
2912.824	3713
2914.673	3676
2916.521	3690
2918.372	3837
2920.22	3843
2922.067	3909
2923.914	3916
2925.761	4048
2927.607	4007
2929.455	4110
2931.301	4063
2933.144	4121
2934.99	4188
2936.833	4206
2938.678	4233
2940.522	4287
2942.364	4341
2944.207	4387
2946.048	4507
2947.891	4508
2949.731	4476
2951.571	4541
2953.412	4435
2955.25	4432
2957.09	4334
2958.93	4326
2960.767	4262
2962.606	4193
2964.443	4161
2966.279	4101
2968.116	4102
2969.953	4020
2971.788	4082
2973.623	3867
2975.457	3804
2977.292	3830
2979.127	3803
2980.959	3809
2982.792	3780
2984.624	3755
2986.455	3720
2988.288	3723
2990.119	3735
2991.949	3665
2993.779	3537
2995.608	3549
2997.439	3596
2999.268	3490
3001.096	3387
3002.923	3519
3004.751	3409
3006.578	3467
3008.406	3371
3010.232	3243
3012.057	3290
3013.883	3236
3015.706	3188
3017.532	3237
3019.356	3139
3021.179	3127
3023.002	3147
3024.823	3064
3026.646	3105
3028.469	3097
3030.289	3123
3032.11	2989
3033.93	3055
3035.749	3035
3037.57	3014
3039.39	3068
3041.207	3033
3043.026	3032
3044.842	2954
3046.661	3036
3048.477	3074
3050.294	3021
3052.109	3010
3053.925	2990
3055.739	3003
3057.555	3051
3059.368	3048
3061.181	3019
3062.995	3006
3064.807	3061
3066.62	2979
3068.433	3097
3070.243	3101
3072.054	2994
3073.865	3031
3075.675	2928
3077.485	3014
3079.293	2979
3081.102	3031
3082.911	2966
3084.719	2931
3086.527	2995
3088.333	2994
3090.139	2979
3091.945	2902
3093.75	2906
3095.557	2944
3097.361	2909
3099.165	2900
3100.969	2969
3102.772	2944
3104.575	2925
3106.379	2892
3108.181	2902
3109.982	2881
3111.783	2893
3113.584	2889
3115.386	2884
3117.186	2902
3118.985	2869
3120.783	2940
3122.582	2897
3124.381	2866
3126.179	2925
3127.975	2881
3129.772	2897
3131.569	2894
3133.365	2879
3135.161	2860
3136.956	2867
3138.751	2908
3140.544	2907
3142.338	2775
3144.132	2994
3145.925	2923
3147.717	2895
3149.509	2815
3151.301	2840
3153.091	2922
3154.884	2843
3156.673	2913
3158.462	2869
3160.252	2872
3162.041	2951
3163.831	2879
3165.618	2867
3167.405	2803
3169.193	2871
3170.979	2868
3172.767	2887
3174.553	2888
3176.338	2813
3178.123	2850
3179.907	2759
3181.692	2920
3183.477	2848
3185.259	2842
3187.042	2823
3188.824	2849
3190.607	2886
3192.389	2850
3194.17	2949
3195.951	2855
3197.73	2822
3199.51	2855
3201.289	2808
3203.07	2797
3204.848	2910
3206.626	2887
3208.403	2854
3210.18	2837
3211.959	2820
3213.735	2838
3215.511	2811
3217.285	2832
3219.06	2826
3220.836	2864
3222.611	2782
3224.384	2841
3226.158	2817
3227.929	2856
3229.702	2800
3231.476	2877
3233.248	2849
3235.018	2887
3236.789	2948
3238.56	2896
3240.33	2857
3242.1	2848
3243.869	2918
3245.637	2856
3247.405	2903
3249.172	2955
3250.941	2882
3252.707	2862
3254.474	2907
3256.24	2879
3258.006	2889
3259.772	2900
3261.537	2926
3263.301	2902
3265.065	2821
3266.828	2879
3268.592	2906
3270.355	2892
3272.117	2912
3273.878	2856
3275.64	2860
3277.401	2863
3279.162	2907
3280.922	2847
3282.682	2927
3284.441	2912
3286.199	2851
3287.959	2904
3289.716	2835
3291.475	2936
3293.232	2942
3294.988	2925
3296.744	2900
3298.501	2891
3300.256	2960
3302.011	2887
3303.766	2930
3305.52	2918
3307.275	2867
3309.028	2872
3310.781	2914
3312.533	3043
3314.285	2962
3316.038	2905
3317.789	2921
3319.54	2884
3321.289	2945
3323.039	2912
3324.789	2925
3326.539	2904
3328.288	2906
3330.035	2866
3331.783	2881
3333.531	2913
3335.28	2928
3337.025	2836
3338.771	2954
3340.518	2973
3342.262	2820
3344.009	2918
3345.753	2903
3347.497	2882
3349.24	2909
3350.983	2886
3352.726	2860
3354.469	2827
3356.212	2858
3357.952	2832
3359.694	2875
3361.434	2808
3363.176	2792
3364.916	2860
3366.654	2868
3368.394	2855
3370.132	2779
3371.871	2852
3373.61	2893
3375.346	2794
3377.083	2847
3378.82	2827
3380.556	2840
3382.292	2877
3384.027	2802
3385.763	2820
3387.497	2789
3389.231	2822
3390.965	2762
3392.698	2770
3394.431	2676
3396.164	2741
3397.896	2840
3399.627	2782
3401.36	2740
3403.09	2802
3404.82	2806
3406.55	2804
3408.279	2796
3410.01	2793
3411.738	2761
3413.467	2730
3415.194	2756
3416.92	2730
3418.647	2773
3420.375	2740
3422.102	2791
3423.827	2704
3425.553	2780
3427.277	2691
3429.003	2768
3430.727	2737
3432.451	2743
3434.173	2810
3435.896	2746
3437.62	2692
3439.343	2770
3441.063	2720
3442.785	2750
3444.505	2737
3446.226	2734
3447.948	2759
3449.666	2660
3451.386	2669
3453.104	2641
3454.823	2762
3456.541	2717
3458.259	2665
3459.976	2620
3461.693	2651
3463.408	2720
3465.125	2681
3466.841	2663
3468.556	2677
3470.271	2628
3471.985	2602
3473.698	2678
3475.414	2678
3477.126	2620
3478.838	2621
3480.55	2637
3482.263	2659
3483.975	2587
3485.686	2564
3487.396	2660
3489.106	2602
3490.817	2588
3492.526	2588
3494.236	2620
3495.944	2619
3497.652	2590
3499.359	2553
3501.066	2600
3502.775	2591
3504.481	2564
3506.187	2592
3507.893	2623
3509.598	2576
3511.304	2546
3513.009	2558
3514.713	2552
3516.417	2524
3518.12	2554
3519.821	2577
3521.525	2534
3523.228	2561
3524.929	2591
3526.631	2463
3528.33	2470
3530.032	2557
3531.733	2545
3533.433	2519
3535.131	2549
3536.83	2535
3538.529	2465
3540.227	2556
3541.925	2532
3543.623	2540
3545.319	2523
3547.016	2492
3548.712	2519
3550.408	2475
3552.103	2511
3553.798	2404
3555.491	2497
3557.188	2513
3558.88	2489
3560.574	2451
3562.266	2549
3563.959	2544
3565.651	2424
3567.343	2462
3569.035	2419
3570.725	2481
3572.415	2485
3574.106	2469
3575.797	2402
3577.485	2383
3579.174	2463
3580.863	2497
3582.551	2414
3584.238	2365
3585.926	2508
3587.613	2471
3589.3	2457
3590.986	2448
3592.671	2412
3594.357	2441
3596.042	2446
3597.726	2400
3599.41	2417
3601.094	2351
3602.778	2368
3604.461	2341
3606.143	2371
3607.825	2381
3609.507	2378
3611.188	2398
3612.87	2394
3614.551	2390
3616.229	2336
3617.909	2400
3619.589	2377
3621.269	2308
3622.948	2394
3624.625	2372
3626.302	2276
3627.98	2355
3629.657	2299
3631.334	2322
3633.01	2310
3634.686	2291
3636.361	2320
3638.036	2319
3639.712	2359
3641.385	2359
3643.06	2310
3644.732	2286
3646.405	2322
3648.08	2322
3649.751	2327
3651.424	2284
3653.094	2314
3654.766	2286
3656.436	2219
3658.106	2260
3659.777	2311
3661.446	2272
3663.115	2278
3664.783	2235
3666.452	2331
3668.121	2224
3669.788	2244
3671.454	2256
3673.121	2284
3674.789	2219
3676.455	2244
3678.12	2231
3679.784	2227
3681.45	2265
3683.114	2249
3684.779	2241
3686.442	2245
3688.105	2213
3689.768	2244
3691.43	2266
3693.093	2255
3694.754	2199
3696.415	2285
3698.076	2235
3699.736	2214
3701.396	2187
3703.057	2252
3704.716	2242
3706.375	2253
3708.034	2243
3709.692	2209
3711.351	2165
3713.008	2169
3714.665	2129
3716.321	2205
3717.977	2228
3719.634	2245
3721.29	2219
3722.945	2176
3724.598	2203
3726.253	2174
3727.907	2232
3729.561	2213
3731.214	2188
3732.867	2224
3734.518	2179
3736.171	2207
3737.824	2204
3739.474	2190
3741.125	2182
3742.775	2224
3744.425	2203
3746.074	2147
3747.725	2168
3749.373	2230
3751.022	2226
3752.669	2178
3754.318	2140
3755.966	2156
3757.612	2179
3759.259	2144
3760.905	2226
3762.55	2166
3764.197	2155
3765.842	2143
3767.486	2140
3769.131	2158
3770.774	2130
3772.417	2104
3774.061	2189
3775.705	2162
3777.347	2149
3778.988	2165
3780.629	2137
3782.271	2188
3783.912	2119
3785.552	2147
3787.192	2171
3788.831	2128
3790.472	2121
3792.112	2150
3793.75	2126
3795.388	2114
3797.024	2101
3798.661	2199
3800.3	2114
3801.936	2165
3803.572	2105
3805.208	2101
3806.844	2094
3808.48	2124
3810.115	2078
3811.748	2129
3813.382	2159
3815.016	2113
3816.649	2136
3818.283	2085
3819.914	2024
3821.547	2045
3823.178	2136
3824.809	2097
3826.441	2143
3828.072	2069
3829.701	2089
3831.331	2091
3832.96	2105
3834.591	2116
3836.219	2135
3837.847	2082
3839.475	2095
3841.102	2089
3842.729	2020
3844.357	2158
3845.984	2062
3847.609	2063
3849.234	2080
3850.86	2068
3852.485	2078
3854.11	2026
3855.734	2076
3857.357	2090
3858.981	2100
3860.603	2080
3862.227	2053
3863.848	2064
3865.471	2090
3867.092	2006
3868.713	2026
3870.334	2040
3871.954	2066
3873.575	2086
3875.194	2018
3876.813	2009
3878.433	2049
3880.051	2053
3881.669	2042
3883.286	2045
3884.904	1986
3886.52	2010
3888.138	1972
3889.754	2091
3891.37	1990
3892.985	2007
3894.6	2028
3896.216	2051
3897.831	2049
3899.444	1953
3901.058	2033
3902.67	2021
3904.283	2072
3905.897	1987
3907.509	2023
3909.121	2009
3910.731	2045
3912.342	2092
3913.954	2058
3915.563	2030
3917.174	2040
3918.783	2061
3920.391	2015
3922.002	1973
3923.611	1989
3925.218	1946
3926.826	2020
3928.432	2011
3930.039	1942
3931.647	1962
3933.253	2017
3934.859	2011
3936.464	2010
3938.068	1971
3939.675	2027
3941.278	2000
3942.883	1958
3944.486	1976
3946.089	1996
3947.692	2030
3949.295	2001
3950.898	1987
3952.499	1961
3954.1	2007
3955.7	1981
3957.303	2070
3958.903	2074
3960.502	1988
3962.101	1989
3963.7	1895
3965.301	1975
3966.899	1960
3968.497	2003
3970.094	1961
3971.691	1992
3973.288	1930
3974.885	1950
3976.481	1936
3978.077	2000
3979.672	1940
3981.267	1932
3982.863	1941
3984.457	1966
3986.051	1951
3987.645	1946
3989.238	1937
3990.831	1915
3992.425	1916
3994.017	1911
3995.607	1982
3997.199	1903
3998.79	1922
4000.382	1939
4001.973	1918
4003.561	1925
4005.151	1884
4006.741	1936
4008.331	1880
4009.918	1903
4011.507	1918
4013.095	1895
4014.681	1877
4016.269	1922
4017.856	1902
4019.443	1919
4021.028	1865
4022.614	1930
4024.199	1895
4025.785	1879
4027.37	1856
4028.953	1892
4030.536	1912
4032.12	1900
4033.704	1834
4035.287	1936
4036.869	1864
4038.45	1891
4040.032	1854
4041.613	1914
4043.195	1813
4044.776	1853
4046.356	1827
4047.935	1816
4049.515	1958
4051.095	1886
4052.674	1876
4054.251	1803
4055.829	1886
4057.406	1817
4058.985	1897
4060.562	1880
4062.139	1828
4063.715	1839
4065.29	1842
4066.865	1885
4068.442	1841
4070.016	1918
4071.59	1850
4073.164	1857
4074.738	1813
4076.312	1841
4077.885	1834
4079.458	1822
4081.03	1858
4082.602	1844
4084.173	1893
4085.745	1838
4087.315	1831
4088.886	1801
4090.456	1803
4092.026	1809
4093.596	1802
4095.165	1833
4096.734	1835
4098.301	1799
4099.869	1828
4101.437	1801
4103.006	1855
4104.572	1819
4106.139	1845
4107.704	1817
4109.27	1869
4110.837	1823
4112.401	1841
4113.966	1780
4115.53	1804
4117.094	1766
4118.659	1808
4120.223	1807
4121.785	1782
4123.347	1799
4124.909	1825
4126.471	1772
4128.034	1810
4129.595	1783
4131.155	1761
4132.716	1806
4134.275	1794
4135.836	1815
4137.395	1795
4138.955	1805
4140.513	1788
4142.071	1790
4143.628	1837
4145.188	1758
4146.745	1771
4148.302	1799
4149.858	1752
4151.414	1776
4152.971	1775
4154.526	1722
4156.081	1762
4157.635	1757
4159.189	1775
4160.745	1779
4162.298	1790
4163.852	1769
4165.405	1751
4166.957	1746
4168.51	1793
4170.063	1734
4171.614	1697
4173.166	1738
4174.717	1713
4176.267	1775
4177.817	1745
4179.368	1704
4180.917	1728
4182.466	1769
4184.016	1770
4185.564	1730
4187.112	1767
4188.66	1721
4190.207	1743
4191.754	1737
4193.301	1713
4194.848	1762
4196.394	1744
4197.94	1806
4199.484	1741
4201.03	1699
4202.575	1724
4204.12	1739
4205.663	1669
4207.207	1677
4208.75	1712
4210.292	1695
4211.836	1697
4213.378	1746
4214.92	1715
4216.46	1647
4218.002	1732
4219.544	1745
4221.083	1677
4222.625	1684
4224.164	1690
4225.703	1719
4227.244	1676
4228.782	1674
4230.32	1674
4231.857	1654
4233.395	1686
4234.933	1702
4236.471	1633
4238.007	1641
4239.542	1682
4241.078	1652
4242.614	1693
4244.15	1652
4245.685	1699
4247.219	1653
4248.753	1747
4250.287	1684
4251.82	1690
4253.354	1708
4254.887	1692
4256.419	1679
4257.951	1706
4259.483	1684
4261.016	1636
4262.547	1708
4264.078	1633
4265.608	1688
4267.137	1629
4268.668	1707
4270.197	1685
4271.727	1692
4273.254	1675
4274.783	1693
4276.311	1628
4277.84	1654
4279.366	1653
4280.894	1679
4282.42	1621
4283.946	1705
4285.473	1652
4286.998	1653
4288.523	1669
4290.047	1682
4291.572	1668
4293.096	1691
4294.622	1677
4296.144	1629
4297.668	1623
4299.19	1625
4300.713	1666
4302.236	1600
4303.758	1683
4305.279	1615
4306.799	1661
4308.321	1675
4309.842	1671
4311.361	1668
4312.882	1609
4314.401	1626
