400.0961	2421
402.6185	2417
405.1424	2355
407.6635	2486
410.1838	2435
412.7035	2484
415.2225	2466
417.7388	2475
420.2585	2587
422.7754	2573
425.2917	2654
427.8072	2613
430.3221	2681
432.8363	2693
435.3498	2696
437.8626	2630
440.3727	2667
442.8841	2726
445.3969	2681
447.907	2642
450.4142	2581
452.9229	2575
455.4289	2648
457.9362	2647
460.4449	2595
462.9488	2609
465.454	2557
467.9566	2585
470.4604	2596
472.9637	2550
475.4662	2614
477.966	2566
480.4671	2593
482.9656	2584
485.4633	2643
487.9645	2536
490.4608	2563
492.9566	2570
495.4536	2555
497.948	2565
500.4437	2544
502.9387	2604
505.431	2582
507.9226	2608
510.4136	2613
512.9079	2568
515.3975	2595
517.8864	2515
520.3746	2621
522.8622	2593
525.3491	2630
527.8394	2634
530.3249	2663
532.8098	2645
535.2939	2617
537.7774	2633
540.2623	2643
542.7444	2642
545.2259	2617
547.7067	2651
550.1868	2689
552.6683	2698
555.147	2615
557.6231	2662
560.1005	2649
562.5773	2689
565.0534	2663
567.5308	2734
570.0056	2685
572.4776	2753
574.951	2749
577.4237	2795
579.8978	2835
582.3671	2841
584.8378	2816
587.3079	2869
589.7773	2820
592.244	2899
594.714	2763
597.1793	2825
599.6461	2777
602.1121	2770
604.5754	2764
607.0421	2757
609.5042	2743
611.9675	2712
614.4282	2683
616.8902	2729
619.3515	2674
621.8122	2703
624.2702	2714
626.7296	2698
629.1863	2649
631.6423	2746
634.1017	2613
636.5563	2746
639.0104	2654
641.4658	2658
643.9185	2660
646.3725	2636
648.8239	2732
651.2766	2697
653.7266	2688
656.176	2661
658.6247	2664
661.0748	2674
663.5242	2691
665.9709	2708
668.417	2727
670.8624	2713
673.3092	2804
675.7533	2749
678.1968	2681
680.6395	2778
683.0817	2736
685.5251	2765
687.9659	2766
690.4061	2785
692.8456	2800
695.2844	2752
697.7226	2763
700.1621	2742
702.599	2723
705.0332	2804
707.4688	2808
709.9036	2842
712.3399	2792
714.7735	2790
717.2044	2766
719.6367	2812
722.0683	2813
724.4993	2849
726.9296	2851
729.3593	2850
731.7883	2852
734.2147	2873
736.6423	2874
739.0714	2868
741.4958	2841
743.9216	2857
746.3447	2900
748.7691	2868
751.1929	2870
753.616	2839
756.0366	2851
758.4584	2928
760.8776	2926
763.2982	2944
765.718	2920
768.1373	2982
770.5539	2900
772.9698	2931
775.3871	2935
777.8038	2959
780.2178	2912
782.6332	2927
785.0459	2923
787.458	2966
789.8714	2943
792.2842	2915
794.6943	2954
797.1038	3018
799.5127	2966
801.9209	2968
804.3324	2983
806.7393	2947
809.1456	2971
811.5513	3004
813.9562	2990
816.3625	2972
818.7663	2994
821.1693	3061
823.5718	2919
825.9735	3017
828.3746	2948
830.7771	2970
833.177	2998
835.5762	3009
837.9747	2983
840.3727	3014
842.772	3032
845.1666	3047
847.5626	3070
849.958	3070
852.3527	3140
854.7488	3123
857.1403	3105
859.5331	3149
861.9253	3140
864.3168	3108
866.7057	3104
869.098	3086
871.4876	3157
873.8746	3046
876.263	3068
878.6487	3132
881.0378	3080
883.4243	3114
885.8081	3071
888.1933	3103
890.5759	3011
892.9598	3097
895.343	3095
897.7256	3114
900.1057	3073
902.4871	3075
904.8659	3087
907.246	3140
909.6254	3109
912.0023	3143
914.3786	3125
916.7562	3184
919.1331	3282
921.5074	3300
923.8831	3304
926.2562	3250
928.6287	3287
931.0005	3300
933.3757	3335
935.7462	3398
938.1162	3370
940.4855	3414
942.8542	3532
945.2242	3601
947.5916	3746
949.9584	3897
952.3266	4074
954.6921	4334
957.0571	4626
959.4233	4922
961.787	5000
964.15	4961
966.5125	4645
968.8742	4445
971.2354	4045
973.5959	3741
975.9559	3627
978.3151	3450
980.6738	3297
983.0338	3248
985.3912	3251
987.7461	3242
990.1022	3222
992.4578	3215
994.8127	3205
997.1689	3245
999.5207	3213
1001.874	3237
1004.226	3332
1006.576	3286
1008.929	3313
1011.28	3202
1013.628	3213
1015.977	3287
1018.324	3237
1020.674	3253
1023.019	3249
1025.366	3270
1027.713	3272
1030.056	3304
1032.399	3321
1034.746	3352
1037.087	3411
1039.431	3360
1041.771	3340
1044.113	3364
1046.454	3353
1048.793	3323
1051.133	3425
1053.471	3381
1055.807	3322
1058.146	3328
1060.483	3399
1062.818	3410
1065.153	3431
1067.489	3456
1069.822	3423
1072.156	3503
1074.488	3495
1076.82	3537
1079.15	3445
1081.48	3445
1083.814	3369
1086.143	3436
1088.471	3395
1090.799	3320
1093.126	3243
1095.452	3372
1097.78	3228
1100.105	3346
1102.43	3352
1104.754	3334
1107.077	3265
1109.4	3256
1111.722	3260
1114.044	3334
1116.365	3335
1118.685	3222
1121.005	3281
1123.324	3295
1125.643	3226
1127.961	3271
1130.278	3225
1132.595	3292
1134.911	3267
1137.226	3196
1139.541	3314
1141.854	3233
1144.167	3207
1146.482	3223
1148.793	3207
1151.105	3208
1153.414	3214
1155.725	3303
1158.033	3271
1160.344	3221
1162.651	3218
1164.959	3247
1167.265	3304
1169.572	3240
1171.878	3238
1174.184	3327
1176.488	3217
1178.79	3309
1181.094	3242
1183.396	3294
1185.699	3314
1188.001	3271
1190.301	3274
1192.6	3332
1194.9	3279
1197.2	3304
1199.497	3322
1201.794	3292
1204.09	3198
1206.387	3290
1208.684	3287
1210.978	3320
1213.272	3335
1215.565	3235
1217.858	3375
1220.15	3298
1222.443	3218
1224.734	3366
1227.024	3294
1229.313	3323
1231.602	3350
1233.892	3425
1236.18	3471
1238.467	3326
1240.754	3355
1243.04	3468
1245.325	3400
1247.612	3444
1249.896	3427
1252.178	3476
1254.461	3431
1256.743	3470
1259.027	3477
1261.308	3452
1263.587	3424
1265.867	3428
1268.146	3487
1270.425	3432
1272.703	3405
1274.981	3489
1277.256	3499
1279.532	3488
1281.808	3423
1284.083	3395
1286.358	3464
1288.63	3518
1290.904	3391
1293.175	3440
1295.449	3360
1297.719	3362
1299.99	3439
1302.259	3363
1304.529	3345
1306.798	3358
1309.065	3337
1311.333	3419
1313.599	3362
1315.866	3374
1318.131	3308
1320.396	3413
1322.66	3370
1324.925	3429
1327.187	3404
1329.448	3357
1331.711	3333
1333.974	3399
1336.234	3351
1338.493	3369
1340.752	3354
1343.01	3394
1345.269	3406
1347.526	3345
1349.784	3401
1352.04	3413
1354.295	3442
1356.552	3386
1358.806	3404
1361.059	3378
1363.312	3343
1365.564	3420
1367.818	3352
1370.069	3389
1372.318	3386
1374.568	3408
1376.817	3419
1379.066	3437
1381.316	3323
1383.564	3330
1385.809	3446
1388.056	3408
1390.301	3417
1392.549	3450
1394.793	3425
1397.036	3513
1399.279	3447
1401.522	3425
1403.763	3459
1406.007	3502
1408.248	3472
1410.487	3530
1412.727	3496
1414.965	3567
1417.205	3493
1419.442	3446
1421.68	3481
1423.915	3442
1426.152	3481
1428.388	3446
1430.623	3528
1432.857	3512
1435.091	3597
1437.323	3505
1439.556	3553
1441.789	3571
1444.019	3522
1446.25	3615
1448.48	3607
1450.708	3629
1452.938	3567
1455.167	3605
1457.394	3613
1459.62	3652
1461.846	3627
1464.073	3646
1466.299	3618
1468.523	3576
1470.746	3551
1472.969	3460
1475.191	3537
1477.415	3495
1479.636	3518
1481.858	3416
1484.078	3435
1486.298	3400
1488.518	3414
1490.736	3384
1492.954	3403
1495.169	3412
1497.386	3335
1499.602	3318
1501.819	3353
1504.034	3341
1506.248	3408
1508.462	3331
1510.675	3364
1512.888	3369
1515.1	3342
1517.311	3422
1519.522	3348
1521.732	3307
1523.942	3309
1526.151	3379
1528.36	3354
1530.566	3351
1532.773	3337
1534.98	3314
1537.187	3441
1539.392	3354
1541.596	3447
1543.801	3369
1546.005	3461
1548.208	3301
1550.411	3419
1552.612	3485
1554.814	3401
1557.013	3409
1559.212	3429
1561.414	3471
1563.612	3416
1565.811	3433
1568.007	3393
1570.203	3495
1572.403	3446
1574.598	3493
1576.792	3429
1578.988	3497
1581.181	3427
1583.376	3511
1585.568	3475
1587.761	3449
1589.952	3548
1592.143	3477
1594.333	3495
1596.524	3541
1598.715	3471
1600.903	3413
1603.091	3489
1605.278	3526
1607.466	3461
1609.652	3506
1611.838	3523
1614.023	3575
1616.207	3520
1618.391	3473
1620.576	3522
1622.759	3449
1624.941	3599
1627.123	3553
1629.304	3614
1631.484	3624
1633.664	3635
1635.844	3562
1638.022	3638
1640.201	3614
1642.38	3603
1644.556	3634
1646.732	3644
1648.908	3584
1651.084	3591
1653.257	3726
1655.433	3576
1657.607	3573
1659.779	3694
1661.951	3707
1664.122	3669
1666.295	3691
1668.467	3650
1670.635	3724
1672.805	3694
1674.973	3607
1677.142	3723
1679.31	3681
1681.478	3655
1683.644	3680
1685.81	3676
1687.975	3620
1690.142	3522
1692.305	3630
1694.468	3576
1696.632	3687
1698.794	3521
1700.957	3505
1703.119	3545
1705.279	3575
1707.439	3440
1709.598	3519
1711.758	3476
1713.917	3506
1716.075	3502
1718.231	3528
1720.388	3373
1722.543	3497
1724.702	3460
1726.856	3521
1729.01	3529
1731.164	3506
1733.317	3517
1735.471	3512
1737.623	3542
1739.774	3521
1741.925	3548
1744.075	3534
1746.225	3428
1748.376	3501
1750.524	3497
1752.672	3512
1754.82	3487
1756.965	3452
1759.113	3436
1761.259	3507
1763.405	3485
1765.549	3522
1767.694	3541
1769.836	3509
1771.981	3448
1774.123	3495
1776.264	3463
1778.405	3549
1780.546	3505
1782.687	3537
1784.827	3451
1786.966	3531
1789.103	3528
1791.242	3494
1793.381	3536
1795.517	3541
1797.653	3531
1799.788	3553
1801.923	3464
1804.057	3533
1806.193	3540
1808.326	3500
1810.457	3487
1812.59	3490
1814.721	3508
1816.855	3508
1818.984	3590
1821.113	3496
1823.244	3509
1825.372	3466
1827.499	3505
1829.63	3530
1831.756	3548
1833.882	3491
1836.007	3599
1838.132	3455
1840.26	3426
1842.384	3476
1844.507	3438
1846.63	3503
1848.752	3536
1850.875	3478
1852.996	3497
1855.118	3445
1857.238	3433
1859.358	3475
1861.477	3521
1863.597	3528
1865.715	3478
1867.832	3532
1869.948	3520
1872.064	3398
1874.181	3487
1876.297	3492
1878.411	3487
1880.526	3524
1882.639	3568
1884.752	3510
1886.865	3440
1888.977	3456
1891.089	3545
1893.2	3498
1895.308	3572
1897.42	3541
1899.53	3477
1901.639	3471
1903.745	3502
1905.853	3483
1907.962	3482
1910.067	3541
1912.174	3510
1914.278	3471
1916.383	3489
1918.486	3500
1920.592	3630
1922.694	3534
1924.797	3526
1926.898	3518
1929	3480
1931.102	3565
1933.203	3586
1935.301	3603
1937.401	3564
1939.499	3559
1941.598	3577
1943.697	3616
1945.793	3504
1947.888	3650
1949.985	3518
1952.08	3565
1954.176	3471
1956.269	3633
1958.364	3582
1960.457	3600
1962.549	3574
1964.642	3489
1966.733	3471
1968.823	3525
1970.913	3489
1973.005	3482
1975.093	3609
1977.184	3537
1979.271	3509
1981.359	3564
1983.446	3536
1985.532	3427
1987.619	3557
1989.705	3471
1991.789	3503
1993.874	3551
1995.956	3524
1998.041	3559
2000.123	3461
2002.206	3503
2004.287	3549
2006.368	3485
2008.449	3532
2010.529	3538
2012.609	3497
2014.688	3507
2016.766	3470
2018.843	3607
2020.922	3549
2022.999	3535
2025.074	3579
2027.15	3548
2029.225	3425
2031.299	3527
2033.375	3471
2035.447	3541
2037.52	3574
2039.592	3552
2041.664	3543
2043.736	3607
2045.807	3481
2047.876	3452
2049.947	3549
2052.015	3528
2054.086	3569
2056.153	3563
2058.221	3470
2060.288	3436
2062.353	3537
2064.42	3539
2066.486	3480
2068.55	3570
2070.614	3486
2072.678	3547
2074.741	3539
2076.805	3561
2078.866	3533
2080.929	3525
2082.99	3494
2085.049	3596
2087.109	3474
2089.17	3604
2091.228	3519
2093.286	3502
2095.344	3547
2097.4	3526
2099.46	3553
2101.516	3535
2103.572	3535
2105.626	3490
2107.679	3595
2109.735	3549
2111.788	3530
2113.841	3511
2115.894	3542
2117.945	3583
2119.997	3479
2122.049	3587
2124.1	3573
2126.148	3572
2128.197	3541
2130.246	3554
2132.296	3528
2134.342	3484
2136.39	3425
2138.437	3555
2140.483	3567
2142.527	3506
2144.574	3526
2146.619	3494
2148.661	3560
2150.705	3507
2152.747	3549
2154.792	3509
2156.832	3537
2158.874	3502
2160.915	3544
2162.954	3445
2164.995	3540
2167.034	3498
2169.072	3458
2171.111	3515
2173.148	3525
2175.186	3496
2177.223	3431
2179.258	3419
2181.294	3473
2183.328	3516
2185.362	3496
2187.398	3473
2189.431	3540
2191.463	3471
2193.495	3464
2195.528	3510
2197.56	3531
2199.59	3444
2201.62	3406
2203.649	3483
2205.678	3507
2207.708	3448
2209.737	3444
2211.764	3454
2213.791	3508
2215.817	3468
2217.843	3434
2219.87	3467
2221.895	3486
2223.919	3428
2225.942	3525
2227.966	3418
2229.988	3490
2232.012	3440
2234.032	3444
2236.054	3431
2238.074	3415
2240.095	3437
2242.116	3452
2244.135	3404
2246.153	3499
2248.171	3445
2250.188	3456
2252.208	3482
2254.223	3465
2256.239	3431
2258.255	3470
2260.269	3564
2262.283	3509
2264.3	3481
2266.312	3475
2268.325	3444
2270.336	3526
2272.349	3440
2274.362	3538
2276.372	3450
2278.383	3445
2280.392	3454
2282.402	3529
2284.409	3447
2286.418	3501
2288.427	3411
2290.433	3463
2292.441	3492
2294.446	3538
2296.453	3450
2298.459	3526
2300.463	3506
2302.466	3440
2304.471	3414
2306.475	3483
2308.477	3486
2310.478	3434
2312.481	3453
2314.481	3425
2316.481	3462
2318.482	3435
2320.482	3449
2322.48	3367
2324.48	3409
2326.478	3432
2328.476	3454
2330.473	3395
2332.469	3458
2334.465	3400
2336.46	3419
2338.454	3425
2340.45	3384
2342.444	3389
2344.437	3458
2346.43	3391
2348.421	3391
2350.414	3476
2352.405	3395
2354.396	3413
2356.386	3445
2358.376	3403
2360.366	3489
2362.355	3294
2364.343	3406
2366.331	3305
2368.317	3414
2370.304	3400
2372.292	3510
2374.278	3449
2376.262	3392
2378.247	3390
2380.23	3347
2382.216	3424
2384.199	3369
2386.181	3358
2388.163	3439
2390.144	3395
2392.127	3424
2394.107	3343
2396.087	3305
2398.066	3375
2400.046	3443
2402.023	3440
2404.004	3393
2405.981	3343
2407.957	3388
2409.934	3374
2411.91	3386
2413.886	3369
2415.862	3329
2417.836	3291
2419.809	3316
2421.784	3354
2423.756	3361
2425.73	3408
2427.701	3399
2429.672	3439
2431.644	3409
2433.615	3377
2435.586	3257
2437.555	3360
2439.523	3431
2441.491	3349
2443.459	3417
2445.428	3368
2447.395	3389
2449.361	3325
2451.327	3359
2453.292	3351
2455.257	3380
2457.223	3328
2459.187	3292
2461.15	3357
2463.113	3361
2465.076	3383
2467.039	3339
2468.999	3405
2470.96	3293
2472.921	3291
2474.881	3325
2476.841	3373
2478.8	3360
2480.759	3400
2482.717	3322
2484.675	3279
2486.63	3288
2488.589	3347
2490.545	3272
2492.5	3371
2494.455	3309
2496.408	3371
2498.364	3335
2500.318	3332
2502.27	3321
2504.223	3299
2506.174	3371
2508.126	3354
2510.078	3265
2512.03	3317
2513.979	3318
2515.927	3278
2517.877	3429
2519.826	3317
2521.775	3225
2523.722	3339
2525.668	3294
2527.616	3374
2529.561	3284
2531.508	3265
2533.452	3299
2535.398	3285
2537.342	3295
2539.284	3273
2541.229	3300
2543.173	3286
2545.114	3275
2547.055	3338
2548.996	3245
2550.938	3351
2552.878	3292
2554.817	3341
2556.756	3287
2558.695	3351
2560.633	3342
2562.572	3336
2564.509	3292
2566.445	3319
2568.382	3350
2570.317	3252
2572.254	3321
2574.189	3372
2576.123	3251
2578.057	3284
2579.99	3276
2581.923	3306
2583.855	3356
2585.788	3352
2587.719	3253
2589.65	3330
2591.579	3280
2593.511	3348
2595.44	3286
2597.37	3225
2599.297	3306
2601.225	3363
2603.153	3283
2605.08	3323
2607.007	3268
2608.932	3290
2610.858	3338
2612.782	3314
2614.709	3316
2616.632	3274
2618.556	3259
2620.478	3427
2622.401	3310
2624.324	3345
2626.247	3300
2628.167	3337
2630.088	3364
2632.008	3310
2633.928	3353
2635.848	3329
2637.766	3386
2639.684	3360
2641.603	3352
2643.519	3342
2645.437	3342
2647.353	3250
2649.27	3322
2651.184	3418
2653.099	3268
2655.014	3345
2656.928	3274
2658.842	3339
2660.755	3361
2662.667	3318
2664.579	3289
2666.491	3364
2668.402	3332
2670.312	3343
2672.222	3291
2674.132	3243
2676.042	3300
2677.951	3339
2679.859	3286
2681.766	3257
2683.674	3418
2685.582	3314
2687.488	3380
2689.392	3336
2691.298	3285
2693.202	3286
2695.107	3292
2697.012	3287
2698.914	3334
2700.817	3308
2702.72	3261
2704.622	3303
2706.524	3312
2708.425	3220
2710.326	3215
2712.225	3277
2714.125	3295
2716.024	3213
2717.923	3279
2719.822	3318
2721.719	3286
2723.616	3237
2725.512	3330
2727.41	3297
2729.305	3258
2731.201	3242
2733.095	3249
2734.99	3223
2736.884	3212
2738.778	3259
2740.67	3313
2742.562	3226
2744.455	3261
2746.346	3265
2748.238	3334
2750.129	3274
2752.018	3264
2753.907	3316
2755.797	3306
2757.687	3287
2759.575	3216
2761.462	3265
2763.349	3314
2765.237	3158
2767.124	3326
2769.009	3283
2770.894	3217
2772.779	3141
2774.663	3309
2776.547	3326
2778.431	3275
2780.314	3248
2782.197	3267
2784.078	3272
2785.96	3287
2787.842	3280
2789.723	3181
2791.603	3262
2793.483	3219
2795.362	3293
2797.241	3197
2799.121	3137
2800.997	3240
2802.874	3267
2804.751	3276
2806.628	3260
2808.506	3268
2810.38	3203
2812.255	3255
2814.13	3222
2816.003	3246
2817.878	3165
2819.752	3211
2821.623	3226
2823.496	3253
2825.368	3188
2827.238	3220
2829.111	3245
2830.98	3195
2832.851	3206
2834.719	3172
2836.589	3256
2838.458	3345
2840.327	3229
2842.193	3243
2844.061	3303
2845.927	3278
2847.794	3247
2849.66	3252
2851.525	3317
2853.39	3287
2855.254	3291
2857.117	3364
2858.983	3341
2860.845	3313
2862.707	3306
2864.569	3353
2866.431	3383
2868.293	3529
2870.154	3435
2872.013	3497
2873.873	3516
2875.733	3559
2877.592	3632
2879.451	3682
2881.309	3669
2883.166	3653
2885.022	3783
2886.879	3765
2888.736	3760
2890.591	3775
2892.446	3767
2894.301	3713
2896.155	3729
2898.009	3796
2899.863	3765
2901.716	3665
2903.568	3759
2905.419	3716
2907.27	3699
2909.123	3779
2910.973	3780
2912.824	3776
2914.673	3957
2916.521	3794
2918.372	3983
2920.22	4048
2922.067	4038
2923.914	4036
2925.761	4129
2927.607	4150
2929.455	4263
2931.301	4284
2933.144	4290
2934.99	4401
2936.833	4394
2938.678	4452
2940.522	4447
2942.364	4663
2944.207	4542
2946.048	4643
2947.891	4639
2949.731	4503
2951.571	4442
2953.412	4508
2955.25	4543
2957.09	4402
2958.93	4332
2960.767	4437
2962.606	4183
2964.443	4313
2966.279	4086
2968.116	4176
2969.953	4102
2971.788	4013
2973.623	4048
2975.457	3902
2977.292	4037
2979.127	3964
2980.959	3926
2982.792	3933
2984.624	3855
2986.455	3940
2988.288	3895
2990.119	3835
2991.949	3784
2993.779	3818
2995.608	3749
2997.439	3720
2999.268	3728
3001.096	3630
3002.923	3632
3004.751	3545
3006.578	3515
3008.406	3415
3010.232	3513
3012.057	3333
3013.883	3384
3015.706	3344
3017.532	3317
3019.356	3280
3021.179	3335
3023.002	3223
3024.823	3254
3026.646	3302
3028.469	3217
3030.289	3215
3032.11	3180
3033.93	3118
3035.749	3198
3037.57	3173
3039.39	3189
3041.207	3240
3043.026	3189
3044.842	3178
3046.661	3119
3048.477	3127
3050.294	3110
3052.109	3161
3053.925	3170
3055.739	3164
3057.555	3162
3059.368	3182
3061.181	3125
3062.995	3125
3064.807	3158
3066.62	3179
3068.433	3101
3070.243	3225
3072.054	3127
3073.865	3200
3075.675	3199
3077.485	3176
3079.293	3148
3081.102	3174
3082.911	3117
3084.719	3110
3086.527	3166
3088.333	3085
3090.139	3081
3091.945	3128
3093.75	3181
3095.557	3035
3097.361	3056
3099.165	3096
3100.969	3088
3102.772	3072
3104.575	3106
3106.379	3090
3108.181	3120
3109.982	3052
3111.783	3062
3113.584	3053
3115.386	3127
3117.186	3008
3118.985	3022
3120.783	3010
3122.582	3062
3124.381	3033
3126.179	3048
3127.975	3058
3129.772	3051
3131.569	3115
3133.365	3033
3135.161	2968
3136.956	3001
3138.751	3049
3140.544	3035
3142.338	3076
3144.132	3032
3145.925	3072
3147.717	3032
3149.509	3055
3151.301	3052
3153.091	3039
3154.884	2971
3156.673	2970
3158.462	3013
3160.252	3052
3162.041	3006
3163.831	3004
3165.618	3038
3167.405	3040
3169.193	3023
3170.979	3045
3172.767	2983
3174.553	3020
3176.338	3015
3178.123	2995
3179.907	2999
3181.692	3033
3183.477	3003
3185.259	3030
3187.042	2965
3188.824	3055
3190.607	2996
3192.389	2949
3194.17	2972
3195.951	3014
3197.73	3063
3199.51	3019
3201.289	3007
3203.07	3039
3204.848	3048
3206.626	3054
3208.403	3003
3210.18	2974
3211.959	2998
3213.735	3044
3215.511	3034
3217.285	3046
3219.06	3038
3220.836	3064
3222.611	3010
3224.384	3023
3226.158	3013
3227.929	3019
3229.702	3016
3231.476	2963
3233.248	2988
3235.018	3025
3236.789	3169
3238.56	3014
3240.33	3021
3242.1	2982
3243.869	3026
3245.637	3087
3247.405	2966
3249.172	3113
3250.941	3003
3252.707	3031
3254.474	3011
3256.24	2984
3258.006	3044
3259.772	3043
3261.537	3009
3263.301	3064
3265.065	3011
3266.828	3066
3268.592	3044
3270.355	3078
3272.117	3036
3273.878	3021
3275.64	3039
3277.401	3069
3279.162	3060
3280.922	3090
3282.682	3065
3284.441	3079
3286.199	3053
3287.959	3051
3289.716	3064
3291.475	3043
3293.232	3019
3294.988	3079
3296.744	3033
3298.501	3114
3300.256	3123
3302.011	3092
3303.766	3118
3305.52	3151
3307.275	3003
3309.028	3126
3310.781	3117
3312.533	3127
3314.285	3086
3316.038	3044
3317.789	3030
3319.54	3038
3321.289	2998
3323.039	3071
3324.789	3028
3326.539	3041
3328.288	3101
3330.035	3070
3331.783	3106
3333.531	3106
3335.28	3053
3337.025	2905
3338.771	3095
3340.518	3007
3342.262	3115
3344.009	3091
3345.753	3066
3347.497	3027
3349.24	2994
3350.983	3048
3352.726	3025
3354.469	3017
3356.212	2956
3357.952	3005
3359.694	3109
3361.434	2970
3363.176	3048
3364.916	3003
3366.654	2962
3368.394	2997
3370.132	2987
3371.871	3003
3373.61	3047
3375.346	2993
3377.083	2952
3378.82	2970
3380.556	3003
3382.292	2939
3384.027	3024
3385.763	2979
3387.497	2973
3389.231	2975
3390.965	2929
3392.698	3019
3394.431	2966
3396.164	2940
3397.896	2983
3399.627	2973
3401.36	2885
3403.09	2923
3404.82	2998
3406.55	2998
3408.279	2947
3410.01	2927
3411.738	2909
3413.467	2998
3415.194	2888
3416.92	2937
3418.647	2925
3420.375	2985
3422.102	2935
3423.827	2955
3425.553	2976
3427.277	2942
3429.003	2788
3430.727	2894
3432.451	2917
3434.173	2929
3435.896	2929
3437.62	2896
3439.343	2855
3441.063	2900
3442.785	2892
3444.505	2878
3446.226	2834
3447.948	2903
3449.666	2884
3451.386	2780
3453.104	2849
3454.823	2875
3456.541	2789
3458.259	2841
3459.976	2701
3461.693	2860
3463.408	2870
3465.125	2830
3466.841	2799
3468.556	2768
3470.271	2766
3471.985	2795
3473.698	2807
3475.414	2821
3477.126	2716
3478.838	2717
3480.55	2754
3482.263	2812
3483.975	2763
3485.686	2753
3487.396	2662
3489.106	2758
3490.817	2714
3492.526	2780
3494.236	2764
3495.944	2698
3497.652	2767
3499.359	2784
3501.066	2684
3502.775	2703
3504.481	2695
3506.187	2740
3507.893	2698
3509.598	2737
3511.304	2710
3513.009	2714
3514.713	2667
3516.417	2680
3518.12	2734
3519.821	2727
3521.525	2656
3523.228	2680
3524.929	2721
3526.631	2651
3528.33	2686
3530.032	2714
3531.733	2610
3533.433	2752
3535.131	2702
3536.83	2636
3538.529	2651
3540.227	2668
3541.925	2675
3543.623	2642
3545.319	2672
3547.016	2580
3548.712	2578
3550.408	2594
3552.103	2660
3553.798	2582
3555.491	2568
3557.188	2660
3558.88	2639
3560.574	2602
3562.266	2662
3563.959	2577
3565.651	2526
3567.343	2630
3569.035	2594
3570.725	2607
3572.415	2602
3574.106	2580
3575.797	2568
3577.485	2548
3579.174	2578
3580.863	2523
3582.551	2579
3584.238	2520
3585.926	2552
3587.613	2534
3589.3	2605
3590.986	2510
3592.671	2555
3594.357	2552
3596.042	2504
3597.726	2488
3599.41	2469
3601.094	2531
3602.778	2496
3604.461	2487
3606.143	2541
3607.825	2548
3609.507	2482
3611.188	2451
3612.87	2527
3614.551	2437
3616.229	2480
3617.909	2459
3619.589	2490
3621.269	2437
3622.948	2462
3624.625	2429
3626.302	2461
3627.98	2426
3629.657	2433
3631.334	2483
3633.01	2387
3634.686	2437
3636.361	2400
3638.036	2446
3639.712	2459
3641.385	2385
3643.06	2421
3644.732	2359
3646.405	2421
3648.08	2395
3649.751	2433
3651.424	2360
3653.094	2343
3654.766	2393
3656.436	2410
3658.106	2366
3659.777	2375
3661.446	2333
3663.115	2342
3664.783	2428
3666.452	2365
3668.121	2351
3669.788	2404
3671.454	2334
3673.121	2312
3674.789	2389
3676.455	2371
3678.12	2347
3679.784	2360
3681.45	2350
3683.114	2333
3684.779	2285
3686.442	2314
3688.105	2329
3689.768	2282
3691.43	2307
3693.093	2335
3694.754	2307
3696.415	2243
3698.076	2366
3699.736	2276
3701.396	2298
3703.057	2249
3704.716	2337
3706.375	2326
3708.034	2286
3709.692	2249
3711.351	2277
3713.008	2281
3714.665	2329
3716.321	2300
3717.977	2245
3719.634	2294
3721.29	2271
3722.945	2250
3724.598	2346
3726.253	2333
3727.907	2271
3729.561	2342
3731.214	2268
3732.867	2250
3734.518	2307
3736.171	2289
3737.824	2262
3739.474	2209
3741.125	2296
3742.775	2294
3744.425	2231
3746.074	2241
3747.725	2299
3749.373	2260
3751.022	2279
3752.669	2325
3754.318	2252
3755.966	2292
3757.612	2246
3759.259	2240
3760.905	2283
3762.55	2272
3764.197	2286
3765.842	2213
3767.486	2212
3769.131	2214
3770.774	2223
3772.417	2260
3774.061	2229
3775.705	2267
3777.347	2207
3778.988	2253
3780.629	2208
3782.271	2199
3783.912	2177
3785.552	2220
3787.192	2245
3788.831	2259
3790.472	2209
3792.112	2166
3793.75	2223
3795.388	2260
3797.024	2239
3798.661	2200
3800.3	2259
3801.936	2205
3803.572	2237
3805.208	2213
3806.844	2197
3808.48	2227
3810.115	2161
3811.748	2181
3813.382	2198
3815.016	2211
3816.649	2181
3818.283	2157
3819.914	2142
3821.547	2181
3823.178	2130
3824.809	2185
3826.441	2181
3828.072	2099
3829.701	2192
3831.331	2195
3832.96	2206
3834.591	2167
3836.219	2237
3837.847	2191
3839.475	2115
3841.102	2157
3842.729	2095
3844.357	2168
3845.984	2150
3847.609	2048
3849.234	2171
3850.86	2128
3852.485	2150
3854.11	2127
3855.734	2114
3857.357	2124
3858.981	2114
3860.603	2137
3862.227	2141
3863.848	2156
3865.471	2143
3867.092	2140
3868.713	2134
3870.334	2095
3871.954	2109
3873.575	2069
3875.194	2043
3876.813	2116
3878.433	2102
3880.051	2132
3881.669	2076
3883.286	2122
3884.904	2059
3886.52	2102
3888.138	2086
3889.754	2056
3891.37	2158
3892.985	2094
3894.6	2091
3896.216	2105
3897.831	2021
3899.444	2169
3901.058	2130
3902.67	2056
3904.283	2116
3905.897	2080
3907.509	2059
3909.121	2115
3910.731	2141
3912.342	2071
3913.954	2069
3915.563	2114
3917.174	2022
3918.783	2103
3920.391	2092
3922.002	2092
3923.611	2084
3925.218	2108
3926.826	2052
3928.432	2091
3930.039	2081
3931.647	2125
3933.253	2066
3934.859	2090
3936.464	2110
3938.068	2088
3939.675	2019
3941.278	2034
3942.883	2065
3944.486	2054
3946.089	2096
3947.692	2083
3949.295	2070
3950.898	2077
3952.499	2105
3954.1	2064
3955.7	1990
3957.303	2033
3958.903	2052
3960.502	2082
3962.101	2024
3963.7	2098
3965.301	2047
3966.899	2022
3968.497	2045
3970.094	1982
3971.691	2064
3973.288	2025
3974.885	1995
3976.481	2046
3978.077	2033
3979.672	1971
3981.267	2033
3982.863	2004
3984.457	2027
3986.051	1988
3987.645	2010
3989.238	2007
3990.831	2003
3992.425	2061
3994.017	2022
3995.607	2020
3997.199	2001
3998.79	2022
4000.382	2004
4001.973	1973
4003.561	1994
4005.151	1919
4006.741	1941
4008.331	1951
4009.918	1975
4011.507	1942
4013.095	1964
4014.681	1982
4016.269	1994
4017.856	1970
4019.443	2017
4021.028	1928
4022.614	1939
4024.199	2022
4025.785	1904
4027.37	1971
4028.953	1969
4030.536	1905
4032.12	1935
4033.704	1989
4035.287	1941
4036.869	1920
4038.45	1968
4040.032	1978
4041.613	1960
4043.195	1976
4044.776	1914
4046.356	1944
4047.935	1962
4049.515	1935
4051.095	1897
4052.674	1936
4054.251	1920
4055.829	1935
4057.406	1903
4058.985	1903
4060.562	1957
4062.139	1924
4063.715	1958
4065.29	1897
4066.865	1899
4068.442	1910
4070.016	1948
4071.59	1857
4073.164	1923
4074.738	1955
4076.312	1904
4077.885	1933
4079.458	1919
4081.03	1879
4082.602	1880
4084.173	1941
4085.745	1895
4087.315	1922
4088.886	1963
4090.456	1863
4092.026	1927
4093.596	1874
4095.165	1898
4096.734	1901
4098.301	1907
4099.869	1857
4101.437	1926
4103.006	1913
4104.572	1906
4106.139	1872
4107.704	1832
4109.27	1876
4110.837	1882
4112.401	1833
4113.966	1935
4115.53	1890
4117.094	1883
4118.659	1876
4120.223	1854
4121.785	1868
4123.347	1842
4124.909	1864
4126.471	1881
4128.034	1894
4129.595	1829
4131.155	1857
4132.716	1852
4134.275	1852
4135.836	1844
4137.395	1845
4138.955	1784
4140.513	1802
4142.071	1895
4143.628	1832
4145.188	1825
4146.745	1858
4148.302	1857
4149.858	1876
4151.414	1858
4152.971	1820
4154.526	1787
4156.081	1813
4157.635	1817
4159.189	1797
4160.745	1808
4162.298	1782
4163.852	1836
4165.405	1826
4166.957	1781
4168.51	1808
4170.063	1838
4171.614	1801
4173.166	1774
4174.717	1833
4176.267	1790
4177.817	1774
4179.368	1821
4180.917	1793
4182.466	1785
4184.016	1831
4185.564	1812
4187.112	1790
4188.66	1742
4190.207	1801
4191.754	1799
4193.301	1791
4194.848	1798
4196.394	1792
4197.94	1815
4199.484	1752
4201.03	1785
4202.575	1752
4204.12	1740
4205.663	1766
4207.207	1740
4208.75	1793
4210.292	1789
4211.836	1789
4213.378	1764
4214.92	1771
4216.46	1765
4218.002	1756
4219.544	1730
4221.083	1766
4222.625	1733
4224.164	1802
4225.703	1772
4227.244	1745
4228.782	1732
4230.32	1751
4231.857	1725
4233.395	1814
4234.933	1674
4236.471	1738
4238.007	1743
4239.542	1741
4241.078	1750
4242.614	1802
4244.15	1693
4245.685	1737
4247.219	1760
4248.753	1698
4250.287	1747
4251.82	1737
4253.354	1734
4254.887	1691
4256.419	1736
4257.951	1723
4259.483	1753
4261.016	1727
4262.547	1743
4264.078	1746
4265.608	1710
4267.137	1791
4268.668	1753
4270.197	1682
4271.727	1745
4273.254	1746
4274.783	1741
4276.311	1744
4277.84	1707
4279.366	1702
4280.894	1723
4282.42	1701
4283.946	1720
4285.473	1716
4286.998	1695
4288.523	1673
4290.047	1706
4291.572	1707
4293.096	1735
4294.622	1684
4296.144	1701
4297.668	1712
4299.19	1689
4300.713	1699
4302.236	1649
4303.758	1730
4305.279	1710
4306.799	1689
4308.321	1704
4309.842	1663
4311.361	1738
4312.882	1656
4314.401	1702
