400.0961	3842
402.6185	3866
405.1424	3894
407.6635	3895
410.1838	3864
412.7035	4000
415.2225	3957
417.7388	3902
420.2585	4068
422.7754	4032
425.2917	4050
427.8072	4160
430.3221	4255
432.8363	4231
435.3498	4286
437.8626	4278
440.3727	4215
442.8841	4262
445.3969	4156
447.907	4104
450.4142	4170
452.9229	4224
455.4289	4106
457.9362	4120
460.4449	4110
462.9488	4151
465.454	4060
467.9566	4158
470.4604	4113
472.9637	4091
475.4662	4084
477.966	4114
480.4671	4095
482.9656	4161
485.4633	4064
487.9645	4173
490.4608	4230
492.9566	4105
495.4536	4174
497.948	4188
500.4437	4173
502.9387	4216
505.431	4143
507.9226	4226
510.4136	4178
512.9079	4146
515.3975	4205
517.8864	4283
520.3746	4243
522.8622	4218
525.3491	4280
527.8394	4345
530.3249	4236
532.8098	4270
535.2939	4157
537.7774	4225
540.2623	4273
542.7444	4268
545.2259	4299
547.7067	4338
550.1868	4171
552.6683	4218
555.147	4265
557.6231	4282
560.1005	4340
562.5773	4427
565.0534	4313
567.5308	4384
570.0056	4446
572.4776	4436
574.951	4459
577.4237	4441
579.8978	4478
582.3671	4518
584.8378	4604
587.3079	4500
589.7773	4474
592.244	4472
594.714	4570
597.1793	4511
599.6461	4474
602.1121	4498
604.5754	4348
607.0421	4425
609.5042	4389
611.9675	4447
614.4282	4393
616.8902	4406
619.3515	4436
621.8122	4310
624.2702	4375
626.7296	4399
629.1863	4330
631.6423	4330
634.1017	4363
636.5563	4393
639.0104	4357
641.4658	4379
643.9185	4438
646.3725	4306
648.8239	4420
651.2766	4413
653.7266	4368
656.176	4431
658.6247	4385
661.0748	4402
663.5242	4396
665.9709	4404
668.417	4483
670.8624	4410
673.3092	4486
675.7533	4520
678.1968	4481
680.6395	4446
683.0817	4437
685.5251	4659
687.9659	4511
690.4061	4505
692.8456	4501
695.2844	4535
697.7226	4528
700.1621	4515
702.599	4532
705.0332	4456
707.4688	4549
709.9036	4502
712.3399	4596
714.7735	4629
717.2044	4608
719.6367	4626
722.0683	4659
724.4993	4769
726.9296	4577
729.3593	4612
731.7883	4625
734.2147	4649
736.6423	4660
739.0714	4724
741.4958	4730
743.9216	4818
746.3447	4744
748.7691	4754
751.1929	4777
753.616	4827
756.0366	4740
758.4584	4813
760.8776	4810
763.2982	4823
765.718	4831
768.1373	4787
770.5539	4770
772.9698	4907
775.3871	4865
777.8038	4774
780.2178	4827
782.6332	4921
785.0459	4874
787.458	4884
789.8714	4769
792.2842	4839
794.6943	4883
797.1038	4779
799.5127	4822
801.9209	4763
804.3324	4852
806.7393	4907
809.1456	4840
811.5513	4808
813.9562	4840
816.3625	4965
818.7663	4937
821.1693	4953
823.5718	4988
825.9735	4819
828.3746	4879
830.7771	4883
833.177	4962
835.5762	5032
837.9747	4942
840.3727	4885
842.772	4980
845.1666	5045
847.5626	5057
849.958	4970
852.3527	5095
854.7488	5073
857.1403	5108
859.5331	5049
861.9253	5091
864.3168	5039
866.7057	5065
869.098	5067
871.4876	5093
873.8746	5158
876.263	5096
878.6487	5045
881.0378	5062
883.4243	5019
885.8081	5095
888.1933	4998
890.5759	4902
892.9598	5117
895.343	4999
897.7256	5086
900.1057	5041
902.4871	5058
904.8659	5122
907.246	5085
909.6254	5090
912.0023	5094
914.3786	5229
916.7562	5259
919.1331	5258
921.5074	5239
923.8831	5338
926.2562	5358
928.6287	5444
931.0005	5334
933.3757	5361
935.7462	5392
938.1162	5474
940.4855	5441
942.8542	5620
945.2242	5762
947.5916	5681
949.9584	6154
952.3266	6327
954.6921	6580
957.0571	7025
959.4233	7252
961.787	7454
964.15	7330
966.5125	7049
968.8742	6663
971.2354	6295
973.5959	5886
975.9559	5641
978.3151	5435
980.6738	5420
983.0338	5262
985.3912	5274
987.7461	5115
990.1022	5166
992.4578	5166
994.8127	5168
997.1689	5210
999.5207	5277
1001.874	5246
1004.226	5333
1006.576	5317
1008.929	5337
1011.28	5363
1013.628	5322
1015.977	5231
1018.324	5247
1020.674	5360
1023.019	5357
1025.366	5379
1027.713	5320
1030.056	5268
1032.399	5383
1034.746	5403
1037.087	5299
1039.431	5427
1041.771	5254
1044.113	5337
1046.454	5475
1048.793	5406
1051.133	5343
1053.471	5344
1055.807	5512
1058.146	5468
1060.483	5473
1062.818	5565
1065.153	5494
1067.489	5612
1069.822	5700
1072.156	5582
1074.488	5575
1076.82	5599
1079.15	5518
1081.48	5526
1083.814	5492
1086.143	5475
1088.471	5435
1090.799	5295
1093.126	5420
1095.452	5392
1097.78	5359
1100.105	5352
1102.43	5458
1104.754	5383
1107.077	5326
1109.4	5261
1111.722	5361
1114.044	5325
1116.365	5370
1118.685	5345
1121.005	5366
1123.324	5380
1125.643	5325
1127.961	5399
1130.278	5301
1132.595	5263
1134.911	5391
1137.226	5288
1139.541	5293
1141.854	5315
1144.167	5298
1146.482	5393
1148.793	5237
1151.105	5330
1153.414	5374
1155.725	5371
1158.033	5386
1160.344	5336
1162.651	5372
1164.959	5344
1167.265	5351
1169.572	5443
1171.878	5319
1174.184	5351
1176.488	5286
1178.79	5258
1181.094	5327
1183.396	5431
1185.699	5371
1188.001	5301
1190.301	5230
1192.6	5312
1194.9	5480
1197.2	5341
1199.497	5330
1201.794	5336
1204.09	5431
1206.387	5370
1208.684	5349
1210.978	5301
1213.272	5482
1215.565	5417
1217.858	5341
1220.15	5530
1222.443	5440
1224.734	5370
1227.024	5482
1229.313	5559
1231.602	5620
1233.892	5539
1236.18	5582
1238.467	5616
1240.754	5659
1243.04	5655
1245.325	5672
1247.612	5659
1249.896	5644
1252.178	5689
1254.461	5678
1256.743	5598
1259.027	5628
1261.308	5580
1263.587	5571
1265.867	5638
1268.146	5716
1270.425	5674
1272.703	5634
1274.981	5661
1277.256	5679
1279.532	5596
1281.808	5589
1284.083	5549
1286.358	5575
1288.63	5582
1290.904	5595
1293.175	5530
1295.449	5543
1297.719	5534
1299.99	5559
1302.259	5633
1304.529	5524
1306.798	5563
1309.065	5486
1311.333	5597
1313.599	5515
1315.866	5646
1318.131	5637
1320.396	5546
1322.66	5555
1324.925	5562
1327.187	5544
1329.448	5520
1331.711	5663
1333.974	5555
1336.234	5548
1338.493	5580
1340.752	5504
1343.01	5552
1345.269	5394
1347.526	5600
1349.784	5606
1352.04	5535
1354.295	5441
1356.552	5513
1358.806	5403
1361.059	5520
1363.312	5478
1365.564	5483
1367.818	5609
1370.069	5657
1372.318	5502
1374.568	5500
1376.817	5580
1379.066	5604
1381.316	5580
1383.564	5515
1385.809	5561
1388.056	5592
1390.301	5640
1392.549	5624
1394.793	5682
1397.036	5710
1399.279	5620
1401.522	5691
1403.763	5643
1406.007	5668
1408.248	5689
1410.487	5725
1412.727	5637
1414.965	5723
1417.205	5752
1419.442	5657
1421.68	5606
1423.915	5697
1426.152	5752
1428.388	5793
1430.623	5765
1432.857	5753
1435.091	5744
1437.323	5863
1439.556	5781
1441.789	5837
1444.019	5759
1446.25	5820
1448.48	5881
1450.708	5838
1452.938	5967
1455.167	5869
1457.394	6001
1459.62	5919
1461.846	5886
1464.073	5991
1466.299	5780
1468.523	5786
1470.746	5819
1472.969	5835
1475.191	5705
1477.415	5672
1479.636	5667
1481.858	5604
1484.078	5648
1486.298	5639
1488.518	5482
1490.736	5572
1492.954	5546
1495.169	5455
1497.386	5582
1499.602	5598
1501.819	5535
1504.034	5606
1506.248	5466
1508.462	5465
1510.675	5590
1512.888	5562
1515.1	5625
1517.311	5548
1519.522	5509
1521.732	5519
1523.942	5571
1526.151	5538
1528.36	5470
1530.566	5549
1532.773	5468
1534.98	5507
1537.187	5522
1539.392	5515
1541.596	5503
1543.801	5614
1546.005	5517
1548.208	5512
1550.411	5519
1552.612	5609
1554.814	5650
1557.013	5666
1559.212	5640
1561.414	5591
1563.612	5602
1565.811	5708
1568.007	5598
1570.203	5660
1572.403	5674
1574.598	5729
1576.792	5699
1578.988	5660
1581.181	5640
1583.376	5707
1585.568	5655
1587.761	5718
1589.952	5594
1592.143	5601
1594.333	5768
1596.524	5771
1598.715	5698
1600.903	5683
1603.091	5794
1605.278	5719
1607.466	5702
1609.652	5715
1611.838	5820
1614.023	5709
1616.207	5749
1618.391	5845
1620.576	5845
1622.759	5737
1624.941	5843
1627.123	5731
1629.304	5791
1631.484	5863
1633.664	5844
1635.844	5908
1638.022	5861
1640.201	5837
1642.38	5857
1644.556	5880
1646.732	5866
1648.908	5867
1651.084	5948
1653.257	5803
1655.433	5855
1657.607	5857
1659.779	6068
1661.951	5909
1664.122	5927
1666.295	5858
1668.467	5987
1670.635	5987
1672.805	5919
1674.973	5956
1677.142	5982
1679.31	6021
1681.478	5935
1683.644	5918
1685.81	5908
1687.975	5866
1690.142	5815
1692.305	5844
1694.468	5802
1696.632	5935
1698.794	5800
1700.957	5843
1703.119	5846
1705.279	5735
1707.439	5696
1709.598	5775
1711.758	5725
1713.917	5780
1716.075	5640
1718.231	5679
1720.388	5676
1722.543	5784
1724.702	5649
1726.856	5640
1729.01	5667
1731.164	5663
1733.317	5718
1735.471	5738
1737.623	5764
1739.774	5711
1741.925	5674
1744.075	5673
1746.225	5731
1748.376	5689
1750.524	5746
1752.672	5650
1754.82	5765
1756.965	5748
1759.113	5747
1761.259	5663
1763.405	5819
1765.549	5780
1767.694	5710
1769.836	5673
1771.981	5601
1774.123	5736
1776.264	5829
1778.405	5756
1780.546	5750
1782.687	5670
1784.827	5712
1786.966	5731
1789.103	5890
1791.242	5709
1793.381	5782
1795.517	5739
1797.653	5704
1799.788	5715
1801.923	5839
1804.057	5752
1806.193	5773
1808.326	5890
1810.457	5827
1812.59	5703
1814.721	5881
1816.855	5721
1818.984	5782
1821.113	5719
1823.244	5682
1825.372	5693
1827.499	5742
1829.63	5824
1831.756	5809
1833.882	5756
1836.007	5551
1838.132	5715
1840.26	5800
1842.384	5758
1844.507	5740
1846.63	5659
1848.752	5636
1850.875	5704
1852.996	5753
1855.118	5666
1857.238	5783
1859.358	5599
1861.477	5652
1863.597	5781
1865.715	5715
1867.832	5740
1869.948	5691
1872.064	5606
1874.181	5651
1876.297	5682
1878.411	5646
1880.526	5685
1882.639	5634
1884.752	5713
1886.865	5687
1888.977	5691
1891.089	5699
1893.2	5707
1895.308	5699
1897.42	5700
1899.53	5764
1901.639	5708
1903.745	5719
1905.853	5794
1907.962	5815
1910.067	5760
1912.174	5876
1914.278	5738
1916.383	5790
1918.486	5746
1920.592	5762
1922.694	5738
1924.797	5758
1926.898	5796
1929	5801
1931.102	5769
1933.203	5782
1935.301	5734
1937.401	5752
1939.499	5743
1941.598	5762
1943.697	5826
1945.793	5786
1947.888	5823
1949.985	5790
1952.08	5783
1954.176	5793
1956.269	5846
1958.364	5766
1960.457	5830
1962.549	5853
1964.642	5801
1966.733	5833
1968.823	5790
1970.913	5830
1973.005	5748
1975.093	5843
1977.184	5711
1979.271	5714
1981.359	5753
1983.446	5717
1985.532	5726
1987.619	5804
1989.705	5799
1991.789	5693
1993.874	5695
1995.956	5715
1998.041	5740
2000.123	5794
2002.206	5672
2004.287	5684
2006.368	5703
2008.449	5713
2010.529	5716
2012.609	5703
2014.688	5673
2016.766	5673
2018.843	5661
2020.922	5759
2022.999	5761
2025.074	5646
2027.15	5749
2029.225	5711
2031.299	5768
2033.375	5681
2035.447	5856
2037.52	5722
2039.592	5780
2041.664	5731
2043.736	5714
2045.807	5737
2047.876	5657
2049.947	5647
2052.015	5677
2054.086	5822
2056.153	5664
2058.221	5697
2060.288	5753
2062.353	5725
2064.42	5649
2066.486	5732
2068.55	5766
2070.614	5811
2072.678	5789
2074.741	5644
2076.805	5764
2078.866	5733
2080.929	5779
2082.99	5719
2085.049	5775
2087.109	5760
2089.17	5744
2091.228	5777
2093.286	5790
2095.344	5783
2097.4	5760
2099.46	5744
2101.516	5815
2103.572	5846
2105.626	5708
2107.679	5673
2109.735	5676
2111.788	5787
2113.841	5798
2115.894	5768
2117.945	5664
2119.997	5751
2122.049	5778
2124.1	5633
2126.148	5663
2128.197	5786
2130.246	5745
2132.296	5727
2134.342	5691
2136.39	5703
2138.437	5802
2140.483	5736
2142.527	5769
2144.574	5702
2146.619	5637
2148.661	5713
2150.705	5679
2152.747	5717
2154.792	5646
2156.832	5764
2158.874	5628
2160.915	5646
2162.954	5612
2164.995	5663
2167.034	5636
2169.072	5779
2171.111	5665
2173.148	5677
2175.186	5702
2177.223	5531
2179.258	5670
2181.294	5664
2183.328	5635
2185.362	5800
2187.398	5582
2189.431	5664
2191.463	5613
2193.495	5606
2195.528	5631
2197.56	5631
2199.59	5629
2201.62	5560
2203.649	5632
2205.678	5577
2207.708	5618
2209.737	5631
2211.764	5642
2213.791	5633
2215.817	5598
2217.843	5581
2219.87	5522
2221.895	5413
2223.919	5542
2225.942	5594
2227.966	5619
2229.988	5661
2232.012	5516
2234.032	5666
2236.054	5520
2238.074	5539
2240.095	5578
2242.116	5540
2244.135	5639
2246.153	5584
2248.171	5469
2250.188	5601
2252.208	5553
2254.223	5504
2256.239	5492
2258.255	5644
2260.269	5540
2262.283	5556
2264.3	5623
2266.312	5685
2268.325	5612
2270.336	5541
2272.349	5635
2274.362	5521
2276.372	5435
2278.383	5535
2280.392	5450
2282.402	5581
2284.409	5544
2286.418	5498
2288.427	5521
2290.433	5552
2292.441	5604
2294.446	5544
2296.453	5525
2298.459	5551
2300.463	5676
2302.466	5567
2304.471	5526
2306.475	5471
2308.477	5491
2310.478	5509
2312.481	5578
2314.481	5537
2316.481	5553
2318.482	5545
2320.482	5521
2322.48	5476
2324.48	5588
2326.478	5515
2328.476	5510
2330.473	5502
2332.469	5445
2334.465	5518
2336.46	5541
2338.454	5457
2340.45	5460
2342.444	5409
2344.437	5506
2346.43	5496
2348.421	5422
2350.414	5542
2352.405	5416
2354.396	5389
2356.386	5488
2358.376	5417
2360.366	5468
2362.355	5479
2364.343	5387
2366.331	5498
2368.317	5395
2370.304	5442
2372.292	5457
2374.278	5413
2376.262	5467
2378.247	5344
2380.23	5408
2382.216	5501
2384.199	5323
2386.181	5430
2388.163	5290
2390.144	5396
2392.127	5339
2394.107	5251
2396.087	5322
2398.066	5431
2400.046	5385
2402.023	5421
2404.004	5421
2405.981	5295
2407.957	5409
2409.934	5368
2411.91	5301
2413.886	5448
2415.862	5470
2417.836	5409
2419.809	5332
2421.784	5318
2423.756	5402
2425.73	5396
2427.701	5422
2429.672	5365
2431.644	5412
2433.615	5473
2435.586	5324
2437.555	5420
2439.523	5400
2441.491	5322
2443.459	5417
2445.428	5355
2447.395	5384
2449.361	5374
2451.327	5290
2453.292	5326
2455.257	5255
2457.223	5284
2459.187	5276
2461.15	5366
2463.113	5424
2465.076	5277
2467.039	5426
2468.999	5303
2470.96	5233
2472.921	5243
2474.881	5315
2476.841	5183
2478.8	5383
2480.759	5387
2482.717	5217
2484.675	5345
2486.63	5221
2488.589	5306
2490.545	5318
2492.5	5250
2494.455	5273
2496.408	5258
2498.364	5335
2500.318	5231
2502.27	5344
2504.223	5206
2506.174	5326
2508.126	5207
2510.078	5362
2512.03	5280
2513.979	5259
2515.927	5283
2517.877	5289
2519.826	5258
2521.775	5232
2523.722	5264
2525.668	5359
2527.616	5222
2529.561	5288
2531.508	5216
2533.452	5266
2535.398	5254
2537.342	5187
2539.284	5223
2541.229	5244
2543.173	5220
2545.114	5274
2547.055	5322
2548.996	5310
2550.938	5314
2552.878	5258
2554.817	5228
2556.756	5103
2558.695	5152
2560.633	5155
2562.572	5231
2564.509	5331
2566.445	5352
2568.382	5250
2570.317	5195
2572.254	5228
2574.189	5292
2576.123	5170
2578.057	5337
2579.99	5283
2581.923	5182
2583.855	5204
2585.788	5292
2587.719	5323
2589.65	5232
2591.579	5338
2593.511	5212
2595.44	5191
2597.37	5264
2599.297	5317
2601.225	5328
2603.153	5233
2605.08	5186
2607.007	5289
2608.932	5246
2610.858	5314
2612.782	5237
2614.709	5262
2616.632	5257
2618.556	5222
2620.478	5130
2622.401	5296
2624.324	5182
2626.247	5171
2628.167	5213
2630.088	5232
2632.008	5171
2633.928	5320
2635.848	5215
2637.766	5197
2639.684	5255
2641.603	5181
2643.519	5219
2645.437	5286
2647.353	5295
2649.27	5320
2651.184	5166
2653.099	5315
2655.014	5249
2656.928	5251
2658.842	5209
2660.755	5263
2662.667	5224
2664.579	5244
2666.491	5247
2668.402	5225
2670.312	5245
2672.222	5259
2674.132	5240
2676.042	5178
2677.951	5307
2679.859	5176
2681.766	5133
2683.674	5284
2685.582	5203
2687.488	5208
2689.392	5188
2691.298	5094
2693.202	5174
2695.107	5237
2697.012	5172
2698.914	5197
2700.817	5189
2702.72	5227
2704.622	5111
2706.524	5166
2708.425	5155
2710.326	5123
2712.225	5149
2714.125	5049
2716.024	5203
2717.923	5114
2719.822	5111
2721.719	5155
2723.616	5215
2725.512	5213
2727.41	5182
2729.305	5180
2731.201	5155
2733.095	5111
2734.99	5158
2736.884	5187
2738.778	5080
2740.67	5176
2742.562	5024
2744.455	5121
2746.346	5085
2748.238	5245
2750.129	5153
2752.018	5076
2753.907	5014
2755.797	5200
2757.687	4991
2759.575	5116
2761.462	5125
2763.349	5142
2765.237	5159
2767.124	5153
2769.009	5091
2770.894	5129
2772.779	5038
2774.663	5074
2776.547	5160
2778.431	5096
2780.314	5092
2782.197	5086
2784.078	5077
2785.96	5019
2787.842	5177
2789.723	5111
2791.603	5120
2793.483	5046
2795.362	5016
2797.241	5018
2799.121	5111
2800.997	5049
2802.874	5101
2804.751	5021
2806.628	5054
2808.506	5058
2810.38	5044
2812.255	5017
2814.13	5048
2816.003	5092
2817.878	5020
2819.752	5104
2821.623	5115
2823.496	5021
2825.368	5148
2827.238	5023
2829.111	5163
2830.98	5154
2832.851	5073
2834.719	4999
2836.589	5109
2838.458	5023
2840.327	5065
2842.193	4985
2844.061	5122
2845.927	5033
2847.794	5141
2849.66	5082
2851.525	5158
2853.39	5123
2855.254	5143
2857.117	5133
2858.983	5159
2860.845	5171
2862.707	5208
2864.569	5328
2866.431	5273
2868.293	5308
2870.154	5296
2872.013	5362
2873.873	5547
2875.733	5461
2877.592	5515
2879.451	5543
2881.309	5610
2883.166	5612
2885.022	5721
2886.879	5694
2888.736	5635
2890.591	5714
2892.446	5762
2894.301	5671
2896.155	5735
2898.009	5720
2899.863	5586
2901.716	5635
2903.568	5679
2905.419	5709
2907.27	5684
2909.123	5635
2910.973	5685
2912.824	5785
2914.673	5851
2916.521	5873
2918.372	5996
2920.22	6025
2922.067	5864
2923.914	6128
2925.761	6088
2927.607	6222
2929.455	6215
2931.301	6273
2933.144	6389
2934.99	6335
2936.833	6533
2938.678	6458
2940.522	6502
2942.364	6619
2944.207	6604
2946.048	6705
2947.891	6768
2949.731	6720
2951.571	6788
2953.412	6752
2955.25	6545
2957.09	6518
2958.93	6414
2960.767	6443
2962.606	6191
2964.443	6205
2966.279	6270
2968.116	6029
2969.953	5956
2971.788	6000
2973.623	5993
2975.457	5941
2977.292	5885
2979.127	5983
2980.959	5860
2982.792	5888
2984.624	5836
2986.455	5837
2988.288	5793
2990.119	5744
2991.949	5850
2993.779	5617
2995.608	5622
2997.439	5594
2999.268	5565
3001.096	5508
3002.923	5328
3004.751	5376
3006.578	5328
3008.406	5262
3010.232	5234
3012.057	5279
3013.883	5254
3015.706	5162
3017.532	4990
3019.356	5133
3021.179	5011
3023.002	5005
3024.823	4943
3026.646	5016
3028.469	4927
3030.289	4857
3032.11	4926
3033.93	4915
3035.749	4957
3037.57	4825
3039.39	4831
3041.207	4866
3043.026	4788
3044.842	4817
3046.661	4898
3048.477	4862
3050.294	4775
3052.109	4771
3053.925	4962
3055.739	4868
3057.555	4836
3059.368	4817
3061.181	4823
3062.995	4768
3064.807	4842
3066.62	4877
3068.433	4773
3070.243	4848
3072.054	4882
3073.865	4819
3075.675	4877
3077.485	4776
3079.293	4760
3081.102	4798
3082.911	4742
3084.719	4781
3086.527	4790
3088.333	4617
3090.139	4748
3091.945	4611
3093.75	4820
3095.557	4730
3097.361	4745
3099.165	4800
3100.969	4662
3102.772	4709
3104.575	4605
3106.379	4569
3108.181	4618
3109.982	4683
3111.783	4625
3113.584	4631
3115.386	4713
3117.186	4687
3118.985	4583
3120.783	4651
3122.582	4658
3124.381	4606
3126.179	4646
3127.975	4699
3129.772	4518
3131.569	4667
3133.365	4589
3135.161	4626
3136.956	4640
3138.751	4633
3140.544	4504
3142.338	4635
3144.132	4592
3145.925	4528
3147.717	4615
3149.509	4536
3151.301	4528
3153.091	4522
3154.884	4496
3156.673	4544
3158.462	4584
3160.252	4584
3162.041	4471
3163.831	4674
3165.618	4507
3167.405	4584
3169.193	4599
3170.979	4608
3172.767	4454
3174.553	4515
3176.338	4525
3178.123	4558
3179.907	4572
3181.692	4498
3183.477	4629
3185.259	4534
3187.042	4512
3188.824	4483
3190.607	4545
3192.389	4484
3194.17	4584
3195.951	4629
3197.73	4499
3199.51	4549
3201.289	4383
3203.07	4522
3204.848	4571
3206.626	4423
3208.403	4545
3210.18	4527
3211.959	4573
3213.735	4530
3215.511	4464
3217.285	4539
3219.06	4605
3220.836	4538
3222.611	4575
3224.384	4447
3226.158	4464
3227.929	4552
3229.702	4583
3231.476	4582
3233.248	4496
3235.018	4548
3236.789	4581
3238.56	4528
3240.33	4509
3242.1	4545
3243.869	4488
3245.637	4578
3247.405	4495
3249.172	4577
3250.941	4526
3252.707	4500
3254.474	4514
3256.24	4440
3258.006	4447
3259.772	4593
3261.537	4458
3263.301	4487
3265.065	4480
3266.828	4597
3268.592	4581
3270.355	4568
3272.117	4485
3273.878	4477
3275.64	4494
3277.401	4483
3279.162	4521
3280.922	4459
3282.682	4534
3284.441	4437
3286.199	4640
3287.959	4528
3289.716	4500
3291.475	4507
3293.232	4581
3294.988	4555
3296.744	4582
3298.501	4533
3300.256	4433
3302.011	4523
3303.766	4480
3305.52	4610
3307.275	4562
3309.028	4457
3310.781	4534
3312.533	4548
3314.285	4565
3316.038	4490
3317.789	4544
3319.54	4533
3321.289	4588
3323.039	4538
3324.789	4516
3326.539	4551
3328.288	4602
3330.035	4546
3331.783	4431
3333.531	4568
3335.28	4439
3337.025	4564
3338.771	4528
3340.518	4535
3342.262	4468
3344.009	4545
3345.753	4564
3347.497	4547
3349.24	4516
3350.983	4578
3352.726	4517
3354.469	4460
3356.212	4534
3357.952	4391
3359.694	4485
3361.434	4494
3363.176	4478
3364.916	4491
3366.654	4569
3368.394	4360
3370.132	4411
3371.871	4350
3373.61	4379
3375.346	4425
3377.083	4343
3378.82	4353
3380.556	4364
3382.292	4393
3384.027	4316
3385.763	4495
3387.497	4324
3389.231	4378
3390.965	4393
3392.698	4409
3394.431	4259
3396.164	4331
3397.896	4390
3399.627	4291
3401.36	4352
3403.09	4346
3404.82	4324
3406.55	4287
3408.279	4260
3410.01	4222
3411.738	4364
3413.467	4332
3415.194	4180
3416.92	4350
3418.647	4286
3420.375	4274
3422.102	4251
3423.827	4384
3425.553	4325
3427.277	4374
3429.003	4303
3430.727	4325
3432.451	4267
3434.173	4290
3435.896	4342
3437.62	4228
3439.343	4290
3441.063	4319
3442.785	4266
3444.505	4219
3446.226	4183
3447.948	4235
3449.666	4181
3451.386	4221
3453.104	4206
3454.823	4202
3456.541	4170
3458.259	4105
3459.976	4280
3461.693	4136
3463.408	4207
3465.125	4136
3466.841	4143
3468.556	4201
3470.271	4143
3471.985	4256
3473.698	4144
3475.414	4027
3477.126	4033
3478.838	3985
3480.55	4109
3482.263	4085
3483.975	4110
3485.686	4144
3487.396	4069
3489.106	4108
3490.817	4090
3492.526	4035
3494.236	4011
3495.944	4121
3497.652	4061
3499.359	4093
3501.066	3955
3502.775	4022
3504.481	3975
3506.187	4074
3507.893	3956
3509.598	4012
3511.304	4038
3513.009	4004
3514.713	3931
3516.417	3922
3518.12	3992
3519.821	4030
3521.525	3971
3523.228	3972
3524.929	4036
3526.631	3940
3528.33	3955
3530.032	3999
3531.733	4008
3533.433	3922
3535.131	3968
3536.83	3939
3538.529	3979
3540.227	3888
3541.925	3887
3543.623	3912
3545.319	3916
3547.016	3899
3548.712	3894
3550.408	3853
3552.103	3896
3553.798	3833
3555.491	3895
3557.188	3795
3558.88	3797
3560.574	3845
3562.266	3856
3563.959	3875
3565.651	3814
3567.343	3881
3569.035	3825
3570.725	3891
3572.415	3764
3574.106	3831
3575.797	3777
3577.485	3884
3579.174	3815
3580.863	3751
3582.551	3807
3584.238	3832
3585.926	3770
3587.613	3853
3589.3	3795
3590.986	3717
3592.671	3798
3594.357	3681
3596.042	3773
3597.726	3781
3599.41	3808
3601.094	3673
3602.778	3727
3604.461	3652
3606.143	3642
3607.825	3722
3609.507	3669
3611.188	3695
3612.87	3723
3614.551	3699
3616.229	3568
3617.909	3665
3619.589	3552
3621.269	3697
3622.948	3564
3624.625	3633
3626.302	3629
3627.98	3551
3629.657	3645
3631.334	3567
3633.01	3664
3634.686	3634
3636.361	3516
3638.036	3600
3639.712	3608
3641.385	3524
3643.06	3523
3644.732	3557
3646.405	3559
3648.08	3579
3649.751	3560
3651.424	3583
3653.094	3498
3654.766	3493
3656.436	3529
3658.106	3493
3659.777	3492
3661.446	3557
3663.115	3493
3664.783	3492
3666.452	3482
3668.121	3422
3669.788	3426
3671.454	3461
3673.121	3502
3674.789	3498
3676.455	3470
3678.12	3441
3679.784	3442
3681.45	3412
3683.114	3431
3684.779	3558
3686.442	3399
3688.105	3424
3689.768	3432
3691.43	3409
3693.093	3505
3694.754	3428
3696.415	3477
3698.076	3431
3699.736	3396
3701.396	3413
3703.057	3420
3704.716	3420
3706.375	3318
3708.034	3394
3709.692	3363
3711.351	3359
3713.008	3411
3714.665	3456
3716.321	3330
3717.977	3308
3719.634	3351
3721.29	3411
3722.945	3386
3724.598	3347
3726.253	3358
3727.907	3306
3729.561	3345
3731.214	3339
3732.867	3302
3734.518	3378
3736.171	3366
3737.824	3365
3739.474	3417
3741.125	3297
3742.775	3403
3744.425	3424
3746.074	3392
3747.725	3374
3749.373	3361
3751.022	3354
3752.669	3281
3754.318	3295
3755.966	3351
3757.612	3346
3759.259	3250
3760.905	3314
3762.55	3297
3764.197	3266
3765.842	3299
3767.486	3341
3769.131	3312
3770.774	3331
3772.417	3191
3774.061	3327
3775.705	3262
3777.347	3291
3778.988	3265
3780.629	3293
3782.271	3175
3783.912	3223
3785.552	3244
3787.192	3255
3788.831	3241
3790.472	3280
3792.112	3249
3793.75	3238
3795.388	3201
3797.024	3284
3798.661	3274
3800.3	3222
3801.936	3225
3803.572	3155
3805.208	3151
3806.844	3180
3808.48	3243
3810.115	3201
3811.748	3198
3813.382	3255
3815.016	3166
3816.649	3202
3818.283	3202
3819.914	3190
3821.547	3152
3823.178	3239
3824.809	3036
3826.441	3173
3828.072	3205
3829.701	3164
3831.331	3185
3832.96	3198
3834.591	3151
3836.219	3040
3837.847	3187
3839.475	3177
3841.102	3057
3842.729	3142
3844.357	3158
3845.984	3153
3847.609	3140
3849.234	3157
3850.86	3086
3852.485	3176
3854.11	3138
3855.734	3078
3857.357	3182
3858.981	3081
3860.603	3146
3862.227	3128
3863.848	3119
3865.471	3162
3867.092	3078
3868.713	3121
3870.334	3111
3871.954	3163
3873.575	3030
3875.194	3062
3876.813	3091
3878.433	3082
3880.051	3058
3881.669	3086
3883.286	3097
3884.904	3049
3886.52	3053
3888.138	3041
3889.754	3000
3891.37	3052
3892.985	3039
3894.6	3083
3896.216	3027
3897.831	3091
3899.444	3071
3901.058	3042
3902.67	3103
3904.283	3123
3905.897	3020
3907.509	3065
3909.121	3027
3910.731	2977
3912.342	3073
3913.954	3028
3915.563	3076
3917.174	3038
3918.783	3058
3920.391	3056
3922.002	3052
3923.611	3000
3925.218	3094
3926.826	3036
3928.432	3048
3930.039	3092
3931.647	2968
3933.253	2984
3934.859	2998
3936.464	2981
3938.068	2997
3939.675	3009
3941.278	3027
3942.883	3006
3944.486	3013
3946.089	3044
3947.692	2986
3949.295	3016
3950.898	3011
3952.499	2947
3954.1	2951
3955.7	2940
3957.303	3032
3958.903	3010
3960.502	3040
3962.101	2915
3963.7	3056
3965.301	2963
3966.899	2970
3968.497	3014
3970.094	2995
3971.691	2926
3973.288	2976
3974.885	2956
3976.481	2922
3978.077	2867
3979.672	2991
3981.267	2949
3982.863	2921
3984.457	2925
3986.051	2936
3987.645	2936
3989.238	2893
3990.831	2909
3992.425	2886
3994.017	2905
3995.607	2793
3997.199	2838
3998.79	2917
4000.382	2852
4001.973	2847
4003.561	2905
4005.151	2896
4006.741	2819
4008.331	2881
4009.918	2853
4011.507	2833
4013.095	2796
4014.681	2775
4016.269	2863
4017.856	2827
4019.443	2841
4021.028	2930
4022.614	2806
4024.199	2862
4025.785	2806
4027.37	2810
4028.953	2748
4030.536	2792
4032.12	2797
4033.704	2792
4035.287	2767
4036.869	2808
4038.45	2822
4040.032	2814
4041.613	2785
4043.195	2814
4044.776	2832
4046.356	2777
4047.935	2851
4049.515	2805
4051.095	2761
4052.674	2763
4054.251	2783
4055.829	2876
4057.406	2730
4058.985	2730
4060.562	2727
4062.139	2773
4063.715	2711
4065.29	2793
4066.865	2756
4068.442	2781
4070.016	2732
4071.59	2708
4073.164	2760
4074.738	2739
4076.312	2726
4077.885	2789
4079.458	2756
4081.03	2770
4082.602	2741
4084.173	2687
4085.745	2698
4087.315	2757
4088.886	2759
4090.456	2725
4092.026	2697
4093.596	2758
4095.165	2747
4096.734	2680
4098.301	2703
4099.869	2730
4101.437	2724
4103.006	2666
4104.572	2751
4106.139	2653
4107.704	2664
4109.27	2748
4110.837	2686
4112.401	2658
4113.966	2617
4115.53	2662
4117.094	2661
4118.659	2663
4120.223	2648
4121.785	2614
4123.347	2629
4124.909	2593
4126.471	2662
4128.034	2679
4129.595	2615
4131.155	2618
4132.716	2583
4134.275	2623
4135.836	2645
4137.395	2701
4138.955	2585
4140.513	2604
4142.071	2551
4143.628	2628
4145.188	2576
4146.745	2600
4148.302	2560
4149.858	2605
4151.414	2588
4152.971	2639
4154.526	2628
4156.081	2589
4157.635	2535
4159.189	2605
4160.745	2557
4162.298	2578
4163.852	2576
4165.405	2608
4166.957	2611
4168.51	2599
4170.063	2524
4171.614	2587
4173.166	2579
4174.717	2543
4176.267	2590
4177.817	2533
4179.368	2483
4180.917	2533
4182.466	2462
4184.016	2558
4185.564	2512
4187.112	2530
4188.66	2504
4190.207	2528
4191.754	2502
4193.301	2590
4194.848	2491
4196.394	2457
4197.94	2516
4199.484	2593
4201.03	2570
4202.575	2464
4204.12	2495
4205.663	2503
4207.207	2517
4208.75	2483
4210.292	2443
4211.836	2552
4213.378	2508
4214.92	2475
4216.46	2507
4218.002	2487
4219.544	2440
4221.083	2534
4222.625	2458
4224.164	2543
4225.703	2401
4227.244	2516
4228.782	2455
4230.32	2491
4231.857	2480
4233.395	2441
4234.933	2404
4236.471	2453
4238.007	2419
4239.542	2428
4241.078	2489
4242.614	2442
4244.15	2416
4245.685	2466
4247.219	2428
4248.753	2402
4250.287	2445
4251.82	2479
4253.354	2451
4254.887	2445
4256.419	2389
4257.951	2431
4259.483	2368
4261.016	2396
4262.547	2375
4264.078	2422
4265.608	2415
4267.137	2403
4268.668	2390
4270.197	2396
4271.727	2454
4273.254	2389
4274.783	2422
4276.311	2445
4277.84	2415
4279.366	2386
4280.894	2394
4282.42	2366
4283.946	2411
4285.473	2339
4286.998	2400
4288.523	2265
4290.047	2419
4291.572	2424
4293.096	2313
4294.622	2361
4296.144	2380
4297.668	2363
4299.19	2344
4300.713	2356
4302.236	2346
4303.758	2336
4305.279	2324
4306.799	2403
4308.321	2307
4309.842	2326
4311.361	2427
4312.882	2277
4314.401	2349
