400.0961	3037
402.6185	3086
405.1424	3080
407.6635	3054
410.1838	3106
412.7035	3093
415.2225	3020
417.7388	3064
420.2585	3096
422.7754	3192
425.2917	3168
427.8072	3157
430.3221	3257
432.8363	3218
435.3498	3265
437.8626	3244
440.3727	3262
442.8841	3289
445.3969	3232
447.907	3261
450.4142	3290
452.9229	3205
455.4289	3182
457.9362	3241
460.4449	3238
462.9488	3246
465.454	3213
467.9566	3196
470.4604	3187
472.9637	3152
475.4662	3238
477.966	3217
480.4671	3164
482.9656	3178
485.4633	3220
487.9645	3170
490.4608	3261
492.9566	3182
495.4536	3223
497.948	3242
500.4437	3185
502.9387	3166
505.431	3305
507.9226	3303
510.4136	3268
512.9079	3260
515.3975	3263
517.8864	3253
520.3746	3281
522.8622	3218
525.3491	3216
527.8394	3276
530.3249	3230
532.8098	3230
535.2939	3273
537.7774	3332
540.2623	3324
542.7444	3318
545.2259	3294
547.7067	3326
550.1868	3314
552.6683	3275
555.147	3249
557.6231	3222
560.1005	3289
562.5773	3414
565.0534	3343
567.5308	3384
570.0056	3342
572.4776	3404
574.951	3436
577.4237	3533
579.8978	3477
582.3671	3405
584.8378	3433
587.3079	3534
589.7773	3435
592.244	3510
594.714	3489
597.1793	3556
599.6461	3445
602.1121	3456
604.5754	3369
607.0421	3375
609.5042	3387
611.9675	3427
614.4282	3425
616.8902	3430
619.3515	3454
621.8122	3421
624.2702	3395
626.7296	3371
629.1863	3366
631.6423	3402
634.1017	3378
636.5563	3346
639.0104	3369
641.4658	3413
643.9185	3299
646.3725	3352
648.8239	3438
651.2766	3491
653.7266	3465
656.176	3450
658.6247	3455
661.0748	3432
663.5242	3397
665.9709	3426
668.417	3327
670.8624	3470
673.3092	3521
675.7533	3463
678.1968	3521
680.6395	3495
683.0817	3481
685.5251	3540
687.9659	3554
690.4061	3471
692.8456	3488
695.2844	3527
697.7226	3517
700.1621	3467
702.599	3521
705.0332	3522
707.4688	3529
709.9036	3584
712.3399	3560
714.7735	3582
717.2044	3623
719.6367	3638
722.0683	3572
724.4993	3608
726.9296	3625
729.3593	3664
731.7883	3538
734.2147	3623
736.6423	3557
739.0714	3721
741.4958	3559
743.9216	3653
746.3447	3611
748.7691	3748
751.1929	3642
753.616	3625
756.0366	3729
758.4584	3721
760.8776	3653
763.2982	3712
765.718	3810
768.1373	3703
770.5539	3787
772.9698	3845
775.3871	3662
777.8038	3738
780.2178	3727
782.6332	3761
785.0459	3703
787.458	3763
789.8714	3823
792.2842	3710
794.6943	3741
797.1038	3743
799.5127	3726
801.9209	3765
804.3324	3643
806.7393	3741
809.1456	3634
811.5513	3797
813.9562	3832
816.3625	3890
818.7663	3873
821.1693	3799
823.5718	3780
825.9735	3730
828.3746	3929
830.7771	3771
833.177	3844
835.5762	3795
837.9747	3790
840.3727	3862
842.772	3743
845.1666	3845
847.5626	3886
849.958	3880
852.3527	3906
854.7488	3972
857.1403	3896
859.5331	4006
861.9253	3938
864.3168	3830
866.7057	3958
869.098	3822
871.4876	3924
873.8746	3924
876.263	3866
878.6487	3863
881.0378	3874
883.4243	3813
885.8081	3875
888.1933	3921
890.5759	3904
892.9598	3914
895.343	3844
897.7256	3790
900.1057	3810
902.4871	3800
904.8659	3854
907.246	3944
909.6254	3900
912.0023	3941
914.3786	3957
916.7562	3942
919.1331	4054
921.5074	4066
923.8831	4236
926.2562	4151
928.6287	4146
931.0005	4191
933.3757	4175
935.7462	4114
938.1162	4239
940.4855	4263
942.8542	4314
945.2242	4334
947.5916	4482
949.9584	4588
952.3266	4756
954.6921	5056
957.0571	5211
959.4233	5377
961.787	5443
964.15	5312
966.5125	5170
968.8742	4988
971.2354	4636
973.5959	4419
975.9559	4242
978.3151	4210
980.6738	4191
983.0338	4031
985.3912	3981
987.7461	4052
990.1022	4059
992.4578	3969
994.8127	4002
997.1689	3993
999.5207	4081
1001.874	4200
1004.226	4159
1006.576	4090
1008.929	4045
1011.28	4010
1013.628	4017
1015.977	4066
1018.324	4097
1020.674	4067
1023.019	4128
1025.366	4082
1027.713	4164
1030.056	4125
1032.399	4100
1034.746	4124
1037.087	4075
1039.431	4195
1041.771	4063
1044.113	4208
1046.454	4069
1048.793	4293
1051.133	4137
1053.471	4136
1055.807	4121
1058.146	4153
1060.483	4206
1062.818	4158
1065.153	4256
1067.489	4290
1069.822	4326
1072.156	4276
1074.488	4277
1076.82	4224
1079.15	4263
1081.48	4135
1083.814	4242
1086.143	4091
1088.471	4184
1090.799	4164
1093.126	4121
1095.452	4060
1097.78	4149
1100.105	4182
1102.43	4211
1104.754	4129
1107.077	4171
1109.4	4122
1111.722	4121
1114.044	4205
1116.365	4213
1118.685	4049
1121.005	4099
1123.324	4126
1125.643	4127
1127.961	4164
1130.278	4124
1132.595	4235
1134.911	4092
1137.226	4104
1139.541	4133
1141.854	4108
1144.167	4021
1146.482	4153
1148.793	4075
1151.105	4106
1153.414	4109
1155.725	4278
1158.033	4228
1160.344	4175
1162.651	4242
1164.959	4169
1167.265	4213
1169.572	4186
1171.878	4222
1174.184	4240
1176.488	4185
1178.79	4070
1181.094	4211
1183.396	4154
1185.699	4271
1188.001	4162
1190.301	4037
1192.6	4188
1194.9	4174
1197.2	4143
1199.497	4177
1201.794	4188
1204.09	4082
1206.387	4132
1208.684	4137
1210.978	4202
1213.272	4164
1215.565	4145
1217.858	4221
1220.15	4206
1222.443	4278
1224.734	4181
1227.024	4214
1229.313	4253
1231.602	4400
1233.892	4337
1236.18	4393
1238.467	4320
1240.754	4423
1243.04	4303
1245.325	4409
1247.612	4364
1249.896	4452
1252.178	4351
1254.461	4287
1256.743	4387
1259.027	4331
1261.308	4405
1263.587	4372
1265.867	4440
1268.146	4475
1270.425	4264
1272.703	4354
1274.981	4339
1277.256	4338
1279.532	4358
1281.808	4415
1284.083	4350
1286.358	4287
1288.63	4407
1290.904	4218
1293.175	4315
1295.449	4330
1297.719	4365
1299.99	4248
1302.259	4246
1304.529	4278
1306.798	4318
1309.065	4273
1311.333	4197
1313.599	4299
1315.866	4346
1318.131	4267
1320.396	4326
1322.66	4247
1324.925	4366
1327.187	4216
1329.448	4303
1331.711	4366
1333.974	4332
1336.234	4341
1338.493	4366
1340.752	4305
1343.01	4251
1345.269	4272
1347.526	4309
1349.784	4294
1352.04	4356
1354.295	4160
1356.552	4386
1358.806	4226
1361.059	4320
1363.312	4218
1365.564	4297
1367.818	4264
1370.069	4348
1372.318	4253
1374.568	4298
1376.817	4216
1379.066	4345
1381.316	4349
1383.564	4406
1385.809	4464
1388.056	4353
1390.301	4372
1392.549	4417
1394.793	4428
1397.036	4459
1399.279	4579
1401.522	4559
1403.763	4518
1406.007	4440
1408.248	4466
1410.487	4436
1412.727	4430
1414.965	4479
1417.205	4396
1419.442	4564
1421.68	4428
1423.915	4301
1426.152	4386
1428.388	4519
1430.623	4475
1432.857	4506
1435.091	4329
1437.323	4542
1439.556	4607
1441.789	4550
1444.019	4538
1446.25	4545
1448.48	4584
1450.708	4587
1452.938	4655
1455.167	4621
1457.394	4723
1459.62	4567
1461.846	4477
1464.073	4575
1466.299	4527
1468.523	4450
1470.746	4414
1472.969	4556
1475.191	4480
1477.415	4452
1479.636	4408
1481.858	4396
1484.078	4401
1486.298	4273
1488.518	4373
1490.736	4329
1492.954	4260
1495.169	4300
1497.386	4376
1499.602	4375
1501.819	4241
1504.034	4358
1506.248	4366
1508.462	4271
1510.675	4249
1512.888	4240
1515.1	4334
1517.311	4293
1519.522	4337
1521.732	4232
1523.942	4380
1526.151	4300
1528.36	4268
1530.566	4291
1532.773	4237
1534.98	4311
1537.187	4381
1539.392	4304
1541.596	4264
1543.801	4249
1546.005	4250
1548.208	4282
1550.411	4402
1552.612	4342
1554.814	4426
1557.013	4432
1559.212	4380
1561.414	4385
1563.612	4331
1565.811	4352
1568.007	4484
1570.203	4501
1572.403	4477
1574.598	4347
1576.792	4350
1578.988	4353
1581.181	4355
1583.376	4406
1585.568	4424
1587.761	4369
1589.952	4433
1592.143	4397
1594.333	4460
1596.524	4491
1598.715	4495
1600.903	4473
1603.091	4452
1605.278	4420
1607.466	4503
1609.652	4489
1611.838	4528
1614.023	4583
1616.207	4474
1618.391	4470
1620.576	4426
1622.759	4460
1624.941	4572
1627.123	4494
1629.304	4594
1631.484	4505
1633.664	4500
1635.844	4523
1638.022	4532
1640.201	4622
1642.38	4516
1644.556	4669
1646.732	4544
1648.908	4567
1651.084	4568
1653.257	4642
1655.433	4608
1657.607	4574
1659.779	4491
1661.951	4569
1664.122	4626
1666.295	4671
1668.467	4633
1670.635	4697
1672.805	4630
1674.973	4588
1677.142	4600
1679.31	4632
1681.478	4642
1683.644	4640
1685.81	4618
1687.975	4553
1690.142	4590
1692.305	4568
1694.468	4523
1696.632	4507
1698.794	4628
1700.957	4438
1703.119	4504
1705.279	4513
1707.439	4487
1709.598	4472
1711.758	4435
1713.917	4430
1716.075	4506
1718.231	4469
1720.388	4499
1722.543	4471
1724.702	4452
1726.856	4485
1729.01	4336
1731.164	4454
1733.317	4463
1735.471	4445
1737.623	4508
1739.774	4469
1741.925	4464
1744.075	4435
1746.225	4442
1748.376	4461
1750.524	4538
1752.672	4457
1754.82	4458
1756.965	4463
1759.113	4584
1761.259	4457
1763.405	4530
1765.549	4455
1767.694	4502
1769.836	4492
1771.981	4439
1774.123	4472
1776.264	4449
1778.405	4491
1780.546	4509
1782.687	4514
1784.827	4508
1786.966	4459
1789.103	4503
1791.242	4454
1793.381	4494
1795.517	4405
1797.653	4602
1799.788	4437
1801.923	4488
1804.057	4449
1806.193	4561
1808.326	4491
1810.457	4499
1812.59	4488
1814.721	4547
1816.855	4518
1818.984	4557
1821.113	4496
1823.244	4462
1825.372	4458
1827.499	4507
1829.63	4495
1831.756	4475
1833.882	4497
1836.007	4550
1838.132	4514
1840.26	4442
1842.384	4485
1844.507	4484
1846.63	4513
1848.752	4454
1850.875	4481
1852.996	4552
1855.118	4466
1857.238	4419
1859.358	4474
1861.477	4445
1863.597	4452
1865.715	4538
1867.832	4505
1869.948	4416
1872.064	4437
1874.181	4417
1876.297	4443
1878.411	4508
1880.526	4494
1882.639	4587
1884.752	4561
1886.865	4503
1888.977	4610
1891.089	4434
1893.2	4406
1895.308	4521
1897.42	4427
1899.53	4438
1901.639	4542
1903.745	4411
1905.853	4554
1907.962	4540
1910.067	4524
1912.174	4490
1914.278	4560
1916.383	4576
1918.486	4564
1920.592	4506
1922.694	4499
1924.797	4539
1926.898	4518
1929	4589
1931.102	4513
1933.203	4554
1935.301	4528
1937.401	4520
1939.499	4599
1941.598	4540
1943.697	4616
1945.793	4558
1947.888	4587
1949.985	4624
1952.08	4493
1954.176	4549
1956.269	4553
1958.364	4703
1960.457	4589
1962.549	4522
1964.642	4473
1966.733	4499
1968.823	4478
1970.913	4587
1973.005	4523
1975.093	4525
1977.184	4499
1979.271	4521
1981.359	4591
1983.446	4508
1985.532	4573
1987.619	4616
1989.705	4560
1991.789	4494
1993.874	4488
1995.956	4412
1998.041	4579
2000.123	4555
2002.206	4473
2004.287	4579
2006.368	4544
2008.449	4466
2010.529	4494
2012.609	4551
2014.688	4464
2016.766	4567
2018.843	4449
2020.922	4468
2022.999	4509
2025.074	4422
2027.15	4453
2029.225	4513
2031.299	4514
2033.375	4536
2035.447	4461
2037.52	4507
2039.592	4502
2041.664	4443
2043.736	4575
2045.807	4569
2047.876	4463
2049.947	4518
2052.015	4550
2054.086	4511
2056.153	4449
2058.221	4563
2060.288	4441
2062.353	4496
2064.42	4533
2066.486	4576
2068.55	4579
2070.614	4524
2072.678	4553
2074.741	4481
2076.805	4504
2078.866	4641
2080.929	4662
2082.99	4501
2085.049	4551
2087.109	4547
2089.17	4439
2091.228	4498
2093.286	4526
2095.344	4537
2097.4	4571
2099.46	4539
2101.516	4535
2103.572	4579
2105.626	4480
2107.679	4534
2109.735	4578
2111.788	4499
2113.841	4472
2115.894	4519
2117.945	4452
2119.997	4551
2122.049	4567
2124.1	4519
2126.148	4514
2128.197	4549
2130.246	4602
2132.296	4583
2134.342	4483
2136.39	4499
2138.437	4532
2140.483	4514
2142.527	4543
2144.574	4602
2146.619	4637
2148.661	4513
2150.705	4519
2152.747	4586
2154.792	4477
2156.832	4493
2158.874	4506
2160.915	4402
2162.954	4454
2164.995	4516
2167.034	4570
2169.072	4384
2171.111	4503
2173.148	4538
2175.186	4495
2177.223	4540
2179.258	4520
2181.294	4457
2183.328	4475
2185.362	4500
2187.398	4477
2189.431	4428
2191.463	4486
2193.495	4471
2195.528	4482
2197.56	4500
2199.59	4388
2201.62	4426
2203.649	4508
2205.678	4434
2207.708	4474
2209.737	4387
2211.764	4471
2213.791	4334
2215.817	4382
2217.843	4376
2219.87	4441
2221.895	4447
2223.919	4502
2225.942	4386
2227.966	4469
2229.988	4402
2232.012	4376
2234.032	4508
2236.054	4495
2238.074	4405
2240.095	4364
2242.116	4384
2244.135	4402
2246.153	4378
2248.171	4447
2250.188	4438
2252.208	4393
2254.223	4412
2256.239	4338
2258.255	4471
2260.269	4488
2262.283	4414
2264.3	4341
2266.312	4431
2268.325	4359
2270.336	4354
2272.349	4484
2274.362	4390
2276.372	4457
2278.383	4510
2280.392	4445
2282.402	4369
2284.409	4443
2286.418	4453
2288.427	4435
2290.433	4440
2292.441	4437
2294.446	4345
2296.453	4418
2298.459	4391
2300.463	4427
2302.466	4455
2304.471	4363
2306.475	4385
2308.477	4372
2310.478	4387
2312.481	4468
2314.481	4324
2316.481	4453
2318.482	4426
2320.482	4416
2322.48	4384
2324.48	4439
2326.478	4446
2328.476	4446
2330.473	4388
2332.469	4359
2334.465	4374
2336.46	4365
2338.454	4324
2340.45	4276
2342.444	4337
2344.437	4437
2346.43	4384
2348.421	4380
2350.414	4270
2352.405	4324
2354.396	4463
2356.386	4360
2358.376	4304
2360.366	4331
2362.355	4367
2364.343	4373
2366.331	4337
2368.317	4342
2370.304	4292
2372.292	4375
2374.278	4369
2376.262	4331
2378.247	4313
2380.23	4246
2382.216	4346
2384.199	4298
2386.181	4262
2388.163	4357
2390.144	4256
2392.127	4341
2394.107	4205
2396.087	4226
2398.066	4277
2400.046	4315
2402.023	4244
2404.004	4298
2405.981	4332
2407.957	4235
2409.934	4301
2411.91	4314
2413.886	4293
2415.862	4239
2417.836	4353
2419.809	4206
2421.784	4308
2423.756	4301
2425.73	4291
2427.701	4178
2429.672	4340
2431.644	4225
2433.615	4281
2435.586	4266
2437.555	4320
2439.523	4165
2441.491	4266
2443.459	4286
2445.428	4228
2447.395	4166
2449.361	4250
2451.327	4168
2453.292	4280
2455.257	4303
2457.223	4269
2459.187	4119
2461.15	4234
2463.113	4290
2465.076	4247
2467.039	4275
2468.999	4336
2470.96	4176
2472.921	4380
2474.881	4220
2476.841	4242
2478.8	4268
2480.759	4188
2482.717	4202
2484.675	4308
2486.63	4149
2488.589	4247
2490.545	4267
2492.5	4235
2494.455	4261
2496.408	4131
2498.364	4256
2500.318	4197
2502.27	4198
2504.223	4203
2506.174	4283
2508.126	4304
2510.078	4263
2512.03	4151
2513.979	4172
2515.927	4217
2517.877	4179
2519.826	4116
2521.775	4176
2523.722	4217
2525.668	4189
2527.616	4197
2529.561	4275
2531.508	4143
2533.452	4198
2535.398	4243
2537.342	4150
2539.284	4182
2541.229	4146
2543.173	4213
2545.114	4140
2547.055	4256
2548.996	4225
2550.938	4193
2552.878	4225
2554.817	4231
2556.756	4240
2558.695	4211
2560.633	4205
2562.572	4170
2564.509	4231
2566.445	4290
2568.382	4128
2570.317	4147
2572.254	4145
2574.189	4234
2576.123	4162
2578.057	4246
2579.99	4227
2581.923	4201
2583.855	4182
2585.788	4201
2587.719	4248
2589.65	4226
2591.579	4150
2593.511	4218
2595.44	4240
2597.37	4106
2599.297	4285
2601.225	4258
2603.153	4246
2605.08	4140
2607.007	4158
2608.932	4213
2610.858	4242
2612.782	4301
2614.709	4215
2616.632	4179
2618.556	4254
2620.478	4209
2622.401	4232
2624.324	4257
2626.247	4188
2628.167	4167
2630.088	4223
2632.008	4277
2633.928	4260
2635.848	4248
2637.766	4218
2639.684	4226
2641.603	4261
2643.519	4188
2645.437	4153
2647.353	4283
2649.27	4225
2651.184	4241
2653.099	4262
2655.014	4171
2656.928	4169
2658.842	4128
2660.755	4183
2662.667	4132
2664.579	4186
2666.491	4231
2668.402	4139
2670.312	4254
2672.222	4176
2674.132	4178
2676.042	4309
2677.951	4192
2679.859	4189
2681.766	4171
2683.674	4209
2685.582	4150
2687.488	4177
2689.392	4185
2691.298	4183
2693.202	4155
2695.107	4165
2697.012	4133
2698.914	4196
2700.817	4129
2702.72	4214
2704.622	4159
2706.524	4098
2708.425	4119
2710.326	4221
2712.225	4170
2714.125	4162
2716.024	4178
2717.923	4074
2719.822	4105
2721.719	3969
2723.616	4140
2725.512	4232
2727.41	4099
2729.305	4086
2731.201	4148
2733.095	4157
2734.99	4216
2736.884	4093
2738.778	4143
2740.67	4185
2742.562	4170
2744.455	4132
2746.346	4226
2748.238	4083
2750.129	4083
2752.018	4169
2753.907	4049
2755.797	4124
2757.687	4214
2759.575	4116
2761.462	4129
2763.349	4095
2765.237	4079
2767.124	4144
2769.009	4113
2770.894	4033
2772.779	4127
2774.663	4150
2776.547	4159
2778.431	4069
2780.314	4210
2782.197	4098
2784.078	4126
2785.96	4080
2787.842	4114
2789.723	4151
2791.603	4133
2793.483	4099
2795.362	4071
2797.241	4107
2799.121	4167
2800.997	4067
2802.874	4146
2804.751	4012
2806.628	4096
2808.506	4098
2810.38	4078
2812.255	4136
2814.13	4077
2816.003	4000
2817.878	3996
2819.752	4051
2821.623	4040
2823.496	4123
2825.368	4074
2827.238	4105
2829.111	4063
2830.98	4085
2832.851	4147
2834.719	4115
2836.589	4043
2838.458	4132
2840.327	4110
2842.193	4032
2844.061	4137
2845.927	4134
2847.794	4098
2849.66	4070
2851.525	4091
2853.39	4198
2855.254	4227
2857.117	4128
2858.983	4210
2860.845	4205
2862.707	4265
2864.569	4273
2866.431	4276
2868.293	4271
2870.154	4333
2872.013	4399
2873.873	4396
2875.733	4470
2877.592	4431
2879.451	4451
2881.309	4534
2883.166	4530
2885.022	4599
2886.879	4588
2888.736	4620
2890.591	4669
2892.446	4664
2894.301	4626
2896.155	4503
2898.009	4598
2899.863	4576
2901.716	4562
2903.568	4544
2905.419	4648
2907.27	4665
2909.123	4558
2910.973	4572
2912.824	4640
2914.673	4594
2916.521	4545
2918.372	4778
2920.22	4736
2922.067	4863
2923.914	4845
2925.761	4932
2927.607	4935
2929.455	5026
2931.301	4944
2933.144	5117
2934.99	5123
2936.833	5131
2938.678	5124
2940.522	5221
2942.364	5171
2944.207	5359
2946.048	5333
2947.891	5370
2949.731	5344
2951.571	5433
2953.412	5303
2955.25	5291
2957.09	5234
2958.93	5138
2960.767	5061
2962.606	5023
2964.443	5071
2966.279	4976
2968.116	4964
2969.953	4795
2971.788	4856
2973.623	4696
2975.457	4792
2977.292	4729
2979.127	4786
2980.959	4717
2982.792	4752
2984.624	4625
2986.455	4541
2988.288	4545
2990.119	4530
2991.949	4573
2993.779	4471
2995.608	4418
2997.439	4502
2999.268	4418
3001.096	4382
3002.923	4309
3004.751	4260
3006.578	4229
3008.406	4303
3010.232	4239
3012.057	4115
3013.883	4182
3015.706	4120
3017.532	4105
3019.356	4172
3021.179	4157
3023.002	4054
3024.823	4000
3026.646	3917
3028.469	3961
3030.289	3947
3032.11	4036
3033.93	3986
3035.749	4010
3037.57	3965
3039.39	4005
3041.207	3955
3043.026	3984
3044.842	3963
3046.661	3900
3048.477	3896
3050.294	3957
3052.109	3951
3053.925	3909
3055.739	3920
3057.555	3966
3059.368	3934
3061.181	3921
3062.995	3874
3064.807	3870
3066.62	3909
3068.433	3958
3070.243	3975
3072.054	3918
3073.865	3953
3075.675	3822
3077.485	3973
3079.293	3954
3081.102	3976
3082.911	3868
3084.719	3900
3086.527	3857
3088.333	3749
3090.139	3893
3091.945	3843
3093.75	3885
3095.557	3840
3097.361	3858
3099.165	3795
3100.969	3781
3102.772	3811
3104.575	3724
3106.379	3782
3108.181	3842
3109.982	3824
3111.783	3771
3113.584	3783
3115.386	3781
3117.186	3747
3118.985	3830
3120.783	3771
3122.582	3701
3124.381	3707
3126.179	3792
3127.975	3742
3129.772	3776
3131.569	3744
3133.365	3742
3135.161	3768
3136.956	3696
3138.751	3705
3140.544	3816
3142.338	3810
3144.132	3769
3145.925	3713
3147.717	3745
3149.509	3734
3151.301	3771
3153.091	3701
3154.884	3669
3156.673	3679
3158.462	3723
3160.252	3780
3162.041	3712
3163.831	3671
3165.618	3732
3167.405	3708
3169.193	3754
3170.979	3727
3172.767	3720
3174.553	3751
3176.338	3687
3178.123	3689
3179.907	3706
3181.692	3688
3183.477	3747
3185.259	3734
3187.042	3732
3188.824	3660
3190.607	3677
3192.389	3700
3194.17	3616
3195.951	3698
3197.73	3670
3199.51	3674
3201.289	3708
3203.07	3675
3204.848	3672
3206.626	3754
3208.403	3762
3210.18	3650
3211.959	3691
3213.735	3678
3215.511	3683
3217.285	3707
3219.06	3694
3220.836	3677
3222.611	3676
3224.384	3647
3226.158	3595
3227.929	3661
3229.702	3669
3231.476	3689
3233.248	3701
3235.018	3685
3236.789	3657
3238.56	3706
3240.33	3749
3242.1	3730
3243.869	3703
3245.637	3680
3247.405	3623
3249.172	3634
3250.941	3734
3252.707	3729
3254.474	3643
3256.24	3731
3258.006	3663
3259.772	3668
3261.537	3635
3263.301	3698
3265.065	3670
3266.828	3668
3268.592	3700
3270.355	3719
3272.117	3648
3273.878	3635
3275.64	3670
3277.401	3641
3279.162	3673
3280.922	3698
3282.682	3734
3284.441	3714
3286.199	3657
3287.959	3769
3289.716	3646
3291.475	3653
3293.232	3664
3294.988	3702
3296.744	3719
3298.501	3650
3300.256	3676
3302.011	3767
3303.766	3646
3305.52	3778
3307.275	3717
3309.028	3751
3310.781	3707
3312.533	3640
3314.285	3664
3316.038	3701
3317.789	3678
3319.54	3663
3321.289	3633
3323.039	3663
3324.789	3695
3326.539	3689
3328.288	3708
3330.035	3680
3331.783	3625
3333.531	3698
3335.28	3672
3337.025	3615
3338.771	3622
3340.518	3671
3342.262	3670
3344.009	3626
3345.753	3679
3347.497	3621
3349.24	3572
3350.983	3623
3352.726	3672
3354.469	3657
3356.212	3623
3357.952	3531
3359.694	3606
3361.434	3578
3363.176	3649
3364.916	3647
3366.654	3600
3368.394	3631
3370.132	3615
3371.871	3626
3373.61	3608
3375.346	3585
3377.083	3572
3378.82	3587
3380.556	3612
3382.292	3597
3384.027	3560
3385.763	3556
3387.497	3560
3389.231	3572
3390.965	3660
3392.698	3630
3394.431	3499
3396.164	3579
3397.896	3544
3399.627	3511
3401.36	3507
3403.09	3527
3404.82	3543
3406.55	3499
3408.279	3490
3410.01	3534
3411.738	3644
3413.467	3513
3415.194	3561
3416.92	3516
3418.647	3510
3420.375	3479
3422.102	3572
3423.827	3558
3425.553	3463
3427.277	3524
3429.003	3545
3430.727	3512
3432.451	3399
3434.173	3471
3435.896	3441
3437.62	3428
3439.343	3467
3441.063	3453
3442.785	3494
3444.505	3365
3446.226	3413
3447.948	3444
3449.666	3448
3451.386	3438
3453.104	3529
3454.823	3424
3456.541	3427
3458.259	3398
3459.976	3321
3461.693	3419
3463.408	3390
3465.125	3377
3466.841	3334
3468.556	3429
3470.271	3477
3471.985	3344
3473.698	3298
3475.414	3344
3477.126	3304
3478.838	3332
3480.55	3396
3482.263	3307
3483.975	3282
3485.686	3330
3487.396	3326
3489.106	3330
3490.817	3243
3492.526	3366
3494.236	3319
3495.944	3391
3497.652	3272
3499.359	3321
3501.066	3340
3502.775	3264
3504.481	3228
3506.187	3248
3507.893	3312
3509.598	3334
3511.304	3300
3513.009	3336
3514.713	3207
3516.417	3277
3518.12	3251
3519.821	3258
3521.525	3237
3523.228	3228
3524.929	3261
3526.631	3298
3528.33	3242
3530.032	3227
3531.733	3218
3533.433	3264
3535.131	3196
3536.83	3294
3538.529	3274
3540.227	3226
3541.925	3208
3543.623	3267
3545.319	3203
3547.016	3234
3548.712	3209
3550.408	3190
3552.103	3111
3553.798	3155
3555.491	3162
3557.188	3199
3558.88	3196
3560.574	3194
3562.266	3126
3563.959	3159
3565.651	3157
3567.343	3138
3569.035	3108
3570.725	3137
3572.415	3157
3574.106	3156
3575.797	3132
3577.485	3209
3579.174	3092
3580.863	3134
3582.551	3172
3584.238	3096
3585.926	3094
3587.613	3069
3589.3	3074
3590.986	3122
3592.671	3066
3594.357	3076
3596.042	3082
3597.726	3120
3599.41	3056
3601.094	3049
3602.778	3026
3604.461	3080
3606.143	3107
3607.825	3036
3609.507	3034
3611.188	3057
3612.87	3101
3614.551	2989
3616.229	3025
3617.909	3054
3619.589	3065
3621.269	2997
3622.948	2966
3624.625	2941
3626.302	2985
3627.98	3032
3629.657	3006
3631.334	2973
3633.01	2981
3634.686	2973
3636.361	3010
3638.036	2933
3639.712	2969
3641.385	2912
3643.06	2918
3644.732	2977
3646.405	2881
3648.08	2897
3649.751	2934
3651.424	2906
3653.094	2950
3654.766	2905
3656.436	2928
3658.106	2921
3659.777	2888
3661.446	2946
3663.115	2933
3664.783	2870
3666.452	2901
3668.121	2906
3669.788	2938
3671.454	2893
3673.121	2910
3674.789	2912
3676.455	2866
3678.12	2857
3679.784	2930
3681.45	2846
3683.114	2841
3684.779	2912
3686.442	2876
3688.105	2869
3689.768	2880
3691.43	2861
3693.093	2808
3694.754	2842
3696.415	2834
3698.076	2921
3699.736	2831
3701.396	2906
3703.057	2842
3704.716	2883
3706.375	2856
3708.034	2872
3709.692	2818
3711.351	2782
3713.008	2782
3714.665	2838
3716.321	2910
3717.977	2803
3719.634	2808
3721.29	2811
3722.945	2868
3724.598	2808
3726.253	2816
3727.907	2811
3729.561	2746
3731.214	2845
3732.867	2814
3734.518	2761
3736.171	2769
3737.824	2759
3739.474	2821
3741.125	2809
3742.775	2780
3744.425	2832
3746.074	2815
3747.725	2765
3749.373	2772
3751.022	2797
3752.669	2846
3754.318	2806
3755.966	2782
3757.612	2760
3759.259	2745
3760.905	2778
3762.55	2778
3764.197	2721
3765.842	2763
3767.486	2714
3769.131	2720
3770.774	2695
3772.417	2712
3774.061	2793
3775.705	2773
3777.347	2762
3778.988	2743
3780.629	2744
3782.271	2683
3783.912	2809
3785.552	2765
3787.192	2735
3788.831	2694
3790.472	2701
3792.112	2719
3793.75	2758
3795.388	2695
3797.024	2679
3798.661	2701
3800.3	2744
3801.936	2648
3803.572	2645
3805.208	2658
3806.844	2700
3808.48	2740
3810.115	2720
3811.748	2674
3813.382	2703
3815.016	2690
3816.649	2625
3818.283	2696
3819.914	2636
3821.547	2697
3823.178	2645
3824.809	2639
3826.441	2682
3828.072	2680
3829.701	2586
3831.331	2603
3832.96	2582
3834.591	2713
3836.219	2582
3837.847	2671
3839.475	2636
3841.102	2636
3842.729	2668
3844.357	2607
3845.984	2659
3847.609	2642
3849.234	2606
3850.86	2575
3852.485	2646
3854.11	2623
3855.734	2600
3857.357	2604
3858.981	2592
3860.603	2633
3862.227	2646
3863.848	2677
3865.471	2605
3867.092	2644
3868.713	2620
3870.334	2586
3871.954	2653
3873.575	2665
3875.194	2566
3876.813	2619
3878.433	2582
3880.051	2586
3881.669	2582
3883.286	2589
3884.904	2570
3886.52	2613
3888.138	2594
3889.754	2633
3891.37	2656
3892.985	2563
3894.6	2552
3896.216	2564
3897.831	2607
3899.444	2597
3901.058	2569
3902.67	2592
3904.283	2551
3905.897	2550
3907.509	2615
3909.121	2558
3910.731	2565
3912.342	2565
3913.954	2548
3915.563	2475
3917.174	2550
3918.783	2560
3920.391	2547
3922.002	2534
3923.611	2551
3925.218	2532
3926.826	2527
3928.432	2490
3930.039	2496
3931.647	2506
3933.253	2596
3934.859	2580
3936.464	2573
3938.068	2508
3939.675	2559
3941.278	2558
3942.883	2548
3944.486	2516
3946.089	2579
3947.692	2507
3949.295	2569
3950.898	2529
3952.499	2571
3954.1	2541
3955.7	2546
3957.303	2518
3958.903	2537
3960.502	2504
3962.101	2457
3963.7	2499
3965.301	2493
3966.899	2503
3968.497	2477
3970.094	2457
3971.691	2475
3973.288	2415
3974.885	2510
3976.481	2482
3978.077	2540
3979.672	2461
3981.267	2505
3982.863	2502
3984.457	2394
3986.051	2427
3987.645	2455
3989.238	2495
3990.831	2495
3992.425	2421
3994.017	2422
3995.607	2406
3997.199	2376
3998.79	2471
4000.382	2470
4001.973	2422
4003.561	2446
4005.151	2440
4006.741	2419
4008.331	2415
4009.918	2396
4011.507	2478
4013.095	2407
4014.681	2416
4016.269	2420
4017.856	2412
4019.443	2375
4021.028	2423
4022.614	2342
4024.199	2435
4025.785	2408
4027.37	2406
4028.953	2380
4030.536	2370
4032.12	2374
4033.704	2355
4035.287	2373
4036.869	2381
4038.45	2315
4040.032	2335
4041.613	2324
4043.195	2355
4044.776	2348
4046.356	2302
4047.935	2409
4049.515	2397
4051.095	2382
4052.674	2404
4054.251	2353
4055.829	2300
4057.406	2310
4058.985	2374
4060.562	2369
4062.139	2325
4063.715	2373
4065.29	2268
4066.865	2271
4068.442	2340
4070.016	2292
4071.59	2414
4073.164	2332
4074.738	2286
4076.312	2312
4077.885	2314
4079.458	2302
4081.03	2304
4082.602	2311
4084.173	2292
4085.745	2319
4087.315	2285
4088.886	2340
4090.456	2255
4092.026	2352
4093.596	2307
4095.165	2287
4096.734	2295
4098.301	2228
4099.869	2264
4101.437	2345
4103.006	2247
4104.572	2251
4106.139	2262
4107.704	2276
4109.27	2202
4110.837	2331
4112.401	2330
4113.966	2268
4115.53	2286
4117.094	2277
4118.659	2280
4120.223	2277
4121.785	2235
4123.347	2230
4124.909	2259
4126.471	2220
4128.034	2222
4129.595	2224
4131.155	2143
4132.716	2212
4134.275	2243
4135.836	2257
4137.395	2196
4138.955	2221
4140.513	2244
4142.071	2187
4143.628	2199
4145.188	2174
4146.745	2195
4148.302	2238
4149.858	2136
4151.414	2194
4152.971	2201
4154.526	2206
4156.081	2202
4157.635	2201
4159.189	2213
4160.745	2179
4162.298	2142
4163.852	2183
4165.405	2248
4166.957	2213
4168.51	2175
4170.063	2204
4171.614	2235
4173.166	2130
4174.717	2127
4176.267	2208
4177.817	2156
4179.368	2144
4180.917	2205
4182.466	2152
4184.016	2163
4185.564	2188
4187.112	2126
4188.66	2185
4190.207	2099
4191.754	2159
4193.301	2131
4194.848	2147
4196.394	2141
4197.94	2139
4199.484	2166
4201.03	2118
4202.575	2117
4204.12	2181
4205.663	2087
4207.207	2136
4208.75	2141
4210.292	2149
4211.836	2121
4213.378	2122
4214.92	2101
4216.46	2102
4218.002	2121
4219.544	2115
4221.083	2104
4222.625	2130
4224.164	2178
4225.703	2056
4227.244	2126
4228.782	2111
4230.32	2059
4231.857	2082
4233.395	2090
4234.933	2115
4236.471	2101
4238.007	2085
4239.542	2111
4241.078	2064
4242.614	2077
4244.15	2110
4245.685	2085
4247.219	2146
4248.753	2066
4250.287	2080
4251.82	2077
4253.354	2102
4254.887	2102
4256.419	2046
4257.951	2033
4259.483	2027
4261.016	2075
4262.547	2105
4264.078	2133
4265.608	2039
4267.137	2059
4268.668	2122
4270.197	2040
4271.727	2012
4273.254	2033
4274.783	2070
4276.311	2093
4277.84	2011
4279.366	2072
4280.894	2039
4282.42	2007
4283.946	2032
4285.473	2050
4286.998	2041
4288.523	2070
4290.047	2100
4291.572	1972
4293.096	2015
4294.622	2060
4296.144	2018
4297.668	2046
4299.19	2024
4300.713	1991
4302.236	2093
4303.758	2028
4305.279	1993
4306.799	2006
4308.321	2034
4309.842	2018
4311.361	2019
4312.882	1961
4314.401	2002
