400.0961	3700
402.6185	3777
405.1424	3719
407.6635	3792
410.1838	3729
412.7035	3819
415.2225	3760
417.7388	3818
420.2585	3789
422.7754	3908
425.2917	3955
427.8072	3915
430.3221	3917
432.8363	3965
435.3498	3985
437.8626	4058
440.3727	4063
442.8841	4055
445.3969	3994
447.907	4010
450.4142	4013
452.9229	4045
455.4289	3905
457.9362	3882
460.4449	3904
462.9488	4034
465.454	3945
467.9566	3959
470.4604	3964
472.9637	4009
475.4662	3948
477.966	4037
480.4671	3994
482.9656	4027
485.4633	4016
487.9645	4014
490.4608	4036
492.9566	4029
495.4536	4118
497.948	4074
500.4437	4189
502.9387	4007
505.431	4154
507.9226	4106
510.4136	4097
512.9079	4097
515.3975	4043
517.8864	4062
520.3746	4178
522.8622	4113
525.3491	4083
527.8394	4149
530.3249	4116
532.8098	4045
535.2939	4133
537.7774	4124
540.2623	4070
542.7444	4156
545.2259	4167
547.7067	4174
550.1868	4269
552.6683	4092
555.147	4140
557.6231	4080
560.1005	4080
562.5773	4238
565.0534	4125
567.5308	4144
570.0056	4219
572.4776	4238
574.951	4189
577.4237	4307
579.8978	4238
582.3671	4225
584.8378	4245
587.3079	4269
589.7773	4344
592.244	4348
594.714	4372
597.1793	4359
599.6461	4264
602.1121	4212
604.5754	4188
607.0421	4270
609.5042	4347
611.9675	4184
614.4282	4225
616.8902	4222
619.3515	4222
621.8122	4286
624.2702	4234
626.7296	4237
629.1863	4248
631.6423	4172
634.1017	4242
636.5563	4142
639.0104	4212
641.4658	4249
643.9185	4332
646.3725	4310
648.8239	4307
651.2766	4301
653.7266	4301
656.176	4360
658.6247	4329
661.0748	4425
663.5242	4397
665.9709	4379
668.417	4275
670.8624	4373
673.3092	4333
675.7533	4248
678.1968	4409
680.6395	4389
683.0817	4513
685.5251	4311
687.9659	4422
690.4061	4393
692.8456	4378
695.2844	4379
697.7226	4417
700.1621	4440
702.599	4511
705.0332	4483
707.4688	4469
709.9036	4462
712.3399	4464
714.7735	4412
717.2044	4554
719.6367	4425
722.0683	4579
724.4993	4583
726.9296	4573
729.3593	4528
731.7883	4547
734.2147	4620
736.6423	4612
739.0714	4536
741.4958	4611
743.9216	4621
746.3447	4547
748.7691	4590
751.1929	4625
753.616	4616
756.0366	4560
758.4584	4784
760.8776	4698
763.2982	4743
765.718	4691
768.1373	4697
770.5539	4798
772.9698	4759
775.3871	4701
777.8038	4711
780.2178	4701
782.6332	4657
785.0459	4748
787.458	4728
789.8714	4737
792.2842	4682
794.6943	4653
797.1038	4752
799.5127	4694
801.9209	4657
804.3324	4747
806.7393	4821
809.1456	4773
811.5513	4784
813.9562	4690
816.3625	4784
818.7663	4690
821.1693	4841
823.5718	4785
825.9735	4791
828.3746	4803
830.7771	4773
833.177	4773
835.5762	4801
837.9747	4940
840.3727	4827
842.772	4788
845.1666	4786
847.5626	4848
849.958	4928
852.3527	4874
854.7488	4883
857.1403	4888
859.5331	4919
861.9253	4877
864.3168	4880
866.7057	4906
869.098	4806
871.4876	4738
873.8746	4878
876.263	4779
878.6487	4873
881.0378	4887
883.4243	4832
885.8081	4767
888.1933	4885
890.5759	4872
892.9598	4831
895.343	4772
897.7256	4838
900.1057	4792
902.4871	4882
904.8659	4905
907.246	4886
909.6254	4957
912.0023	4947
914.3786	5024
916.7562	5037
919.1331	5069
921.5074	5185
923.8831	5148
926.2562	5162
928.6287	5144
931.0005	5089
933.3757	5236
935.7462	5104
938.1162	5158
940.4855	5220
942.8542	5227
945.2242	5298
947.5916	5246
949.9584	5489
952.3266	5650
954.6921	5684
957.0571	5895
959.4233	6050
961.787	6020
964.15	6020
966.5125	5909
968.8742	5675
971.2354	5534
973.5959	5366
975.9559	5272
978.3151	5165
980.6738	5215
983.0338	5056
985.3912	5057
987.7461	5003
990.1022	5018
992.4578	5018
994.8127	5028
997.1689	5009
999.5207	5048
1001.874	5041
1004.226	5049
1006.576	5127
1008.929	5057
1011.28	5042
1013.628	5005
1015.977	5033
1018.324	5103
1020.674	5026
1023.019	5040
1025.366	5139
1027.713	5116
1030.056	5167
1032.399	5109
1034.746	5077
1037.087	5135
1039.431	5213
1041.771	5115
1044.113	5137
1046.454	5088
1048.793	5117
1051.133	5209
1053.471	5253
1055.807	5107
1058.146	5128
1060.483	5137
1062.818	5257
1065.153	5159
1067.489	5150
1069.822	5267
1072.156	5305
1074.488	5256
1076.82	5264
1079.15	5223
1081.48	5246
1083.814	5229
1086.143	5204
1088.471	5205
1090.799	5224
1093.126	5106
1095.452	5164
1097.78	5159
1100.105	5191
1102.43	5177
1104.754	5079
1107.077	5177
1109.4	5184
1111.722	5200
1114.044	5197
1116.365	5059
1118.685	5223
1121.005	5198
1123.324	5222
1125.643	5174
1127.961	5221
1130.278	5248
1132.595	5107
1134.911	5173
1137.226	5179
1139.541	5194
1141.854	5181
1144.167	5166
1146.482	5232
1148.793	5115
1151.105	5173
1153.414	5129
1155.725	5304
1158.033	5123
1160.344	5223
1162.651	5197
1164.959	5222
1167.265	5256
1169.572	5252
1171.878	5327
1174.184	5254
1176.488	5274
1178.79	5189
1181.094	5221
1183.396	5335
1185.699	5173
1188.001	5209
1190.301	5248
1192.6	5136
1194.9	5217
1197.2	5258
1199.497	5155
1201.794	5254
1204.09	5231
1206.387	5294
1208.684	5196
1210.978	5222
1213.272	5228
1215.565	5235
1217.858	5255
1220.15	5198
1222.443	5255
1224.734	5209
1227.024	5231
1229.313	5297
1231.602	5277
1233.892	5345
1236.18	5386
1238.467	5306
1240.754	5415
1243.04	5499
1245.325	5349
1247.612	5464
1249.896	5364
1252.178	5457
1254.461	5464
1256.743	5413
1259.027	5430
1261.308	5498
1263.587	5465
1265.867	5376
1268.146	5440
1270.425	5503
1272.703	5467
1274.981	5492
1277.256	5462
1279.532	5392
1281.808	5474
1284.083	5292
1286.358	5394
1288.63	5450
1290.904	5445
1293.175	5415
1295.449	5397
1297.719	5349
1299.99	5379
1302.259	5341
1304.529	5339
1306.798	5430
1309.065	5387
1311.333	5421
1313.599	5366
1315.866	5367
1318.131	5401
1320.396	5439
1322.66	5399
1324.925	5460
1327.187	5444
1329.448	5456
1331.711	5419
1333.974	5471
1336.234	5517
1338.493	5430
1340.752	5379
1343.01	5465
1345.269	5460
1347.526	5445
1349.784	5405
1352.04	5395
1354.295	5433
1356.552	5378
1358.806	5294
1361.059	5350
1363.312	5397
1365.564	5306
1367.818	5286
1370.069	5379
1372.318	5375
1374.568	5331
1376.817	5452
1379.066	5436
1381.316	5490
1383.564	5497
1385.809	5450
1388.056	5519
1390.301	5456
1392.549	5568
1394.793	5592
1397.036	5797
1399.279	5690
1401.522	5567
1403.763	5610
1406.007	5690
1408.248	5718
1410.487	5615
1412.727	5602
1414.965	5564
1417.205	5621
1419.442	5724
1421.68	5646
1423.915	5547
1426.152	5602
1428.388	5591
1430.623	5560
1432.857	5587
1435.091	5615
1437.323	5612
1439.556	5661
1441.789	5764
1444.019	5682
1446.25	5671
1448.48	5712
1450.708	5743
1452.938	5670
1455.167	5720
1457.394	5760
1459.62	5826
1461.846	5773
1464.073	5728
1466.299	5671
1468.523	5582
1470.746	5578
1472.969	5560
1475.191	5564
1477.415	5451
1479.636	5537
1481.858	5519
1484.078	5545
1486.298	5454
1488.518	5432
1490.736	5425
1492.954	5419
1495.169	5481
1497.386	5463
1499.602	5399
1501.819	5408
1504.034	5505
1506.248	5348
1508.462	5491
1510.675	5348
1512.888	5347
1515.1	5394
1517.311	5407
1519.522	5386
1521.732	5402
1523.942	5407
1526.151	5458
1528.36	5389
1530.566	5430
1532.773	5491
1534.98	5484
1537.187	5419
1539.392	5485
1541.596	5450
1543.801	5500
1546.005	5482
1548.208	5496
1550.411	5482
1552.612	5473
1554.814	5499
1557.013	5487
1559.212	5477
1561.414	5461
1563.612	5560
1565.811	5556
1568.007	5597
1570.203	5512
1572.403	5540
1574.598	5615
1576.792	5590
1578.988	5583
1581.181	5541
1583.376	5526
1585.568	5569
1587.761	5470
1589.952	5462
1592.143	5755
1594.333	5509
1596.524	5607
1598.715	5633
1600.903	5613
1603.091	5635
1605.278	5712
1607.466	5595
1609.652	5639
1611.838	5631
1614.023	5687
1616.207	5670
1618.391	5675
1620.576	5713
1622.759	5613
1624.941	5647
1627.123	5609
1629.304	5634
1631.484	5616
1633.664	5689
1635.844	5683
1638.022	5613
1640.201	5714
1642.38	5600
1644.556	5605
1646.732	5671
1648.908	5657
1651.084	5694
1653.257	5880
1655.433	5739
1657.607	5698
1659.779	5694
1661.951	5677
1664.122	5632
1666.295	5651
1668.467	5681
1670.635	5684
1672.805	5669
1674.973	5779
1677.142	5765
1679.31	5800
1681.478	5720
1683.644	5737
1685.81	5665
1687.975	5547
1690.142	5717
1692.305	5664
1694.468	5633
1696.632	5647
1698.794	5662
1700.957	5642
1703.119	5711
1705.279	5624
1707.439	5648
1709.598	5617
1711.758	5554
1713.917	5569
1716.075	5561
1718.231	5629
1720.388	5579
1722.543	5568
1724.702	5566
1726.856	5516
1729.01	5537
1731.164	5590
1733.317	5627
1735.471	5596
1737.623	5613
1739.774	5648
1741.925	5670
1744.075	5637
1746.225	5681
1748.376	5693
1750.524	5554
1752.672	5621
1754.82	5726
1756.965	5655
1759.113	5599
1761.259	5659
1763.405	5714
1765.549	5744
1767.694	5763
1769.836	5605
1771.981	5701
1774.123	5657
1776.264	5639
1778.405	5716
1780.546	5583
1782.687	5713
1784.827	5650
1786.966	5696
1789.103	5701
1791.242	5643
1793.381	5693
1795.517	5736
1797.653	5709
1799.788	5645
1801.923	5653
1804.057	5681
1806.193	5703
1808.326	5624
1810.457	5642
1812.59	5587
1814.721	5792
1816.855	5575
1818.984	5753
1821.113	5652
1823.244	5673
1825.372	5660
1827.499	5624
1829.63	5604
1831.756	5618
1833.882	5579
1836.007	5628
1838.132	5631
1840.26	5579
1842.384	5651
1844.507	5576
1846.63	5645
1848.752	5608
1850.875	5612
1852.996	5623
1855.118	5509
1857.238	5615
1859.358	5640
1861.477	5591
1863.597	5615
1865.715	5592
1867.832	5594
1869.948	5690
1872.064	5622
1874.181	5698
1876.297	5606
1878.411	5503
1880.526	5838
1882.639	5636
1884.752	5576
1886.865	5703
1888.977	5597
1891.089	5580
1893.2	5694
1895.308	5666
1897.42	5594
1899.53	5623
1901.639	5683
1903.745	5672
1905.853	5629
1907.962	5646
1910.067	5719
1912.174	5828
1914.278	5740
1916.383	5621
1918.486	5717
1920.592	5730
1922.694	5720
1924.797	5722
1926.898	5720
1929	5705
1931.102	5643
1933.203	5749
1935.301	5649
1937.401	5741
1939.499	5687
1941.598	5647
1943.697	5676
1945.793	5670
1947.888	5719
1949.985	5689
1952.08	5749
1954.176	5673
1956.269	5716
1958.364	5688
1960.457	5617
1962.549	5763
1964.642	5759
1966.733	5650
1968.823	5751
1970.913	5634
1973.005	5684
1975.093	5668
1977.184	5652
1979.271	5669
1981.359	5527
1983.446	5761
1985.532	5687
1987.619	5636
1989.705	5636
1991.789	5563
1993.874	5574
1995.956	5588
1998.041	5692
2000.123	5518
2002.206	5645
2004.287	5609
2006.368	5601
2008.449	5685
2010.529	5671
2012.609	5570
2014.688	5645
2016.766	5612
2018.843	5660
2020.922	5506
2022.999	5613
2025.074	5654
2027.15	5737
2029.225	5669
2031.299	5574
2033.375	5612
2035.447	5474
2037.52	5652
2039.592	5655
2041.664	5633
2043.736	5619
2045.807	5625
2047.876	5625
2049.947	5616
2052.015	5700
2054.086	5710
2056.153	5578
2058.221	5709
2060.288	5700
2062.353	5680
2064.42	5745
2066.486	5629
2068.55	5667
2070.614	5709
2072.678	5688
2074.741	5616
2076.805	5583
2078.866	5665
2080.929	5746
2082.99	5771
2085.049	5672
2087.109	5692
2089.17	5651
2091.228	5752
2093.286	5776
2095.344	5683
2097.4	5618
2099.46	5650
2101.516	5617
2103.572	5707
2105.626	5742
2107.679	5694
2109.735	5646
2111.788	5612
2113.841	5649
2115.894	5604
2117.945	5646
2119.997	5599
2122.049	5686
2124.1	5788
2126.148	5685
2128.197	5677
2130.246	5689
2132.296	5606
2134.342	5666
2136.39	5707
2138.437	5584
2140.483	5672
2142.527	5565
2144.574	5573
2146.619	5533
2148.661	5650
2150.705	5456
2152.747	5699
2154.792	5537
2156.832	5630
2158.874	5565
2160.915	5644
2162.954	5537
2164.995	5529
2167.034	5581
2169.072	5622
2171.111	5537
2173.148	5558
2175.186	5585
2177.223	5629
2179.258	5530
2181.294	5611
2183.328	5665
2185.362	5542
2187.398	5547
2189.431	5627
2191.463	5572
2193.495	5597
2195.528	5480
2197.56	5612
2199.59	5510
2201.62	5489
2203.649	5491
2205.678	5611
2207.708	5513
2209.737	5426
2211.764	5428
2213.791	5520
2215.817	5437
2217.843	5445
2219.87	5526
2221.895	5408
2223.919	5450
2225.942	5525
2227.966	5462
2229.988	5362
2232.012	5433
2234.032	5442
2236.054	5518
2238.074	5527
2240.095	5434
2242.116	5484
2244.135	5528
2246.153	5538
2248.171	5571
2250.188	5441
2252.208	5524
2254.223	5469
2256.239	5595
2258.255	5558
2260.269	5490
2262.283	5555
2264.3	5530
2266.312	5572
2268.325	5458
2270.336	5480
2272.349	5682
2274.362	5546
2276.372	5409
2278.383	5591
2280.392	5439
2282.402	5479
2284.409	5492
2286.418	5542
2288.427	5486
2290.433	5452
2292.441	5596
2294.446	5479
2296.453	5500
2298.459	5502
2300.463	5534
2302.466	5496
2304.471	5509
2306.475	5439
2308.477	5452
2310.478	5445
2312.481	5395
2314.481	5455
2316.481	5472
2318.482	5445
2320.482	5392
2322.48	5507
2324.48	5543
2326.478	5446
2328.476	5457
2330.473	5323
2332.469	5374
2334.465	5566
2336.46	5519
2338.454	5451
2340.45	5447
2342.444	5368
2344.437	5345
2346.43	5493
2348.421	5370
2350.414	5274
2352.405	5410
2354.396	5419
2356.386	5502
2358.376	5265
2360.366	5375
2362.355	5346
2364.343	5307
2366.331	5269
2368.317	5294
2370.304	5409
2372.292	5326
2374.278	5343
2376.262	5462
2378.247	5242
2380.23	5364
2382.216	5395
2384.199	5216
2386.181	5333
2388.163	5256
2390.144	5394
2392.127	5383
2394.107	5344
2396.087	5337
2398.066	5381
2400.046	5269
2402.023	5339
2404.004	5206
2405.981	5391
2407.957	5301
2409.934	5295
2411.91	5269
2413.886	5322
2415.862	5266
2417.836	5333
2419.809	5326
2421.784	5309
2423.756	5419
2425.73	5319
2427.701	5301
2429.672	5368
2431.644	5313
2433.615	5297
2435.586	5293
2437.555	5350
2439.523	5362
2441.491	5223
2443.459	5316
2445.428	5284
2447.395	5300
2449.361	5310
2451.327	5266
2453.292	5183
2455.257	5322
2457.223	5264
2459.187	5235
2461.15	5278
2463.113	5204
2465.076	5304
2467.039	5306
2468.999	5267
2470.96	5197
2472.921	5270
2474.881	5360
2476.841	5286
2478.8	5212
2480.759	5272
2482.717	5196
2484.675	5291
2486.63	5289
2488.589	5235
2490.545	5267
2492.5	5264
2494.455	5255
2496.408	5296
2498.364	5238
2500.318	5198
2502.27	5100
2504.223	5098
2506.174	5308
2508.126	5249
2510.078	5281
2512.03	5269
2513.979	5199
2515.927	5232
2517.877	5216
2519.826	5272
2521.775	5205
2523.722	5170
2525.668	5194
2527.616	5136
2529.561	5209
2531.508	5230
2533.452	5211
2535.398	5161
2537.342	5187
2539.284	5188
2541.229	5167
2543.173	5259
2545.114	5215
2547.055	5136
2548.996	5167
2550.938	5064
2552.878	5161
2554.817	5184
2556.756	5239
2558.695	5223
2560.633	5187
2562.572	5212
2564.509	5241
2566.445	5210
2568.382	5151
2570.317	5148
2572.254	5211
2574.189	5200
2576.123	5187
2578.057	5245
2579.99	5164
2581.923	5195
2583.855	5148
2585.788	5232
2587.719	5224
2589.65	5331
2591.579	5124
2593.511	5145
2595.44	5201
2597.37	5030
2599.297	5229
2601.225	5185
2603.153	5119
2605.08	5167
2607.007	5177
2608.932	5225
2610.858	5160
2612.782	5143
2614.709	5169
2616.632	5140
2618.556	5211
2620.478	5243
2622.401	5268
2624.324	5158
2626.247	5240
2628.167	5139
2630.088	5221
2632.008	5152
2633.928	5309
2635.848	5193
2637.766	5163
2639.684	5242
2641.603	5161
2643.519	5173
2645.437	5184
2647.353	5181
2649.27	5265
2651.184	5198
2653.099	5210
2655.014	5210
2656.928	5199
2658.842	5220
2660.755	5179
2662.667	5272
2664.579	5173
2666.491	5154
2668.402	5217
2670.312	5122
2672.222	5103
2674.132	5224
2676.042	5175
2677.951	5129
2679.859	5177
2681.766	5208
2683.674	5170
2685.582	5078
2687.488	5225
2689.392	5037
2691.298	5046
2693.202	5193
2695.107	5057
2697.012	5140
2698.914	5145
2700.817	5087
2702.72	5093
2704.622	5019
2706.524	5110
2708.425	5086
2710.326	5086
2712.225	5181
2714.125	5036
2716.024	5121
2717.923	5111
2719.822	5117
2721.719	4985
2723.616	5092
2725.512	5134
2727.41	5058
2729.305	4952
2731.201	5077
2733.095	5081
2734.99	5066
2736.884	5091
2738.778	5171
2740.67	5164
2742.562	5143
2744.455	5081
2746.346	5062
2748.238	5015
2750.129	5062
2752.018	5189
2753.907	5084
2755.797	5005
2757.687	4991
2759.575	5071
2761.462	5109
2763.349	5068
2765.237	5031
2767.124	5007
2769.009	5208
2770.894	5088
2772.779	5129
2774.663	5096
2776.547	5023
2778.431	4944
2780.314	5015
2782.197	4976
2784.078	5030
2785.96	5072
2787.842	5053
2789.723	5020
2791.603	5097
2793.483	5139
2795.362	4977
2797.241	5048
2799.121	5024
2800.997	4995
2802.874	4985
2804.751	5017
2806.628	5079
2808.506	4981
2810.38	5039
2812.255	5056
2814.13	4931
2816.003	4982
2817.878	5035
2819.752	4994
2821.623	5064
2823.496	4967
2825.368	5074
2827.238	5125
2829.111	4990
2830.98	5024
2832.851	5005
2834.719	5054
2836.589	5139
2838.458	5093
2840.327	4938
2842.193	5085
2844.061	5049
2845.927	5042
2847.794	5035
2849.66	5104
2851.525	5100
2853.39	5079
2855.254	5073
2857.117	5029
2858.983	5052
2860.845	5197
2862.707	5197
2864.569	5161
2866.431	5224
2868.293	5197
2870.154	5311
2872.013	5275
2873.873	5266
2875.733	5307
2877.592	5326
2879.451	5425
2881.309	5394
2883.166	5494
2885.022	5578
2886.879	5486
2888.736	5465
2890.591	5551
2892.446	5606
2894.301	5628
2896.155	5667
2898.009	5579
2899.863	5618
2901.716	5509
2903.568	5452
2905.419	5553
2907.27	5415
2909.123	5541
2910.973	5502
2912.824	5421
2914.673	5554
2916.521	5588
2918.372	5598
2920.22	5714
2922.067	5663
2923.914	5748
2925.761	5653
2927.607	5738
2929.455	5683
2931.301	5835
2933.144	5724
2934.99	5646
2936.833	5668
2938.678	5858
2940.522	5889
2942.364	5959
2944.207	5985
2946.048	6136
2947.891	6133
2949.731	6023
2951.571	6120
2953.412	6192
2955.25	6147
2957.09	5992
2958.93	5994
2960.767	6114
2962.606	5967
2964.443	5869
2966.279	5909
2968.116	5742
2969.953	5693
2971.788	5711
2973.623	5556
2975.457	5589
2977.292	5415
2979.127	5467
2980.959	5375
2982.792	5318
2984.624	5351
2986.455	5375
2988.288	5308
2990.119	5291
2991.949	5253
2993.779	5278
2995.608	5122
2997.439	5155
2999.268	5170
3001.096	5091
3002.923	5110
3004.751	5108
3006.578	5062
3008.406	5079
3010.232	5021
3012.057	5019
3013.883	4914
3015.706	4955
3017.532	4957
3019.356	4920
3021.179	4918
3023.002	4896
3024.823	4824
3026.646	4921
3028.469	4808
3030.289	4827
3032.11	4845
3033.93	4759
3035.749	4777
3037.57	4736
3039.39	4706
3041.207	4835
3043.026	4794
3044.842	4760
3046.661	4667
3048.477	4752
3050.294	4764
3052.109	4697
3053.925	4829
3055.739	4788
3057.555	4669
3059.368	4687
3061.181	4698
3062.995	4816
3064.807	4751
3066.62	4665
3068.433	4762
3070.243	4684
3072.054	4667
3073.865	4746
3075.675	4597
3077.485	4790
3079.293	4708
3081.102	4637
3082.911	4736
3084.719	4664
3086.527	4618
3088.333	4621
3090.139	4604
3091.945	4656
3093.75	4738
3095.557	4617
3097.361	4716
3099.165	4654
3100.969	4647
3102.772	4457
3104.575	4707
3106.379	4638
3108.181	4483
3109.982	4575
3111.783	4554
3113.584	4520
3115.386	4621
3117.186	4658
3118.985	4542
3120.783	4477
3122.582	4570
3124.381	4407
3126.179	4448
3127.975	4606
3129.772	4603
3131.569	4562
3133.365	4518
3135.161	4507
3136.956	4619
3138.751	4483
3140.544	4469
3142.338	4546
3144.132	4566
3145.925	4512
3147.717	4423
3149.509	4584
3151.301	4515
3153.091	4529
3154.884	4463
3156.673	4513
3158.462	4423
3160.252	4535
3162.041	4471
3163.831	4557
3165.618	4517
3167.405	4525
3169.193	4445
3170.979	4495
3172.767	4377
3174.553	4385
3176.338	4496
3178.123	4454
3179.907	4497
3181.692	4464
3183.477	4508
3185.259	4473
3187.042	4432
3188.824	4410
3190.607	4430
3192.389	4461
3194.17	4548
3195.951	4477
3197.73	4377
3199.51	4475
3201.289	4454
3203.07	4459
3204.848	4468
3206.626	4494
3208.403	4433
3210.18	4286
3211.959	4444
3213.735	4387
3215.511	4432
3217.285	4397
3219.06	4402
3220.836	4409
3222.611	4399
3224.384	4350
3226.158	4427
3227.929	4460
3229.702	4382
3231.476	4406
3233.248	4377
3235.018	4341
3236.789	4372
3238.56	4446
3240.33	4463
3242.1	4446
3243.869	4313
3245.637	4408
3247.405	4410
3249.172	4423
3250.941	4467
3252.707	4353
3254.474	4360
3256.24	4424
3258.006	4383
3259.772	4452
3261.537	4282
3263.301	4415
3265.065	4390
3266.828	4394
3268.592	4360
3270.355	4390
3272.117	4376
3273.878	4282
3275.64	4374
3277.401	4395
3279.162	4291
3280.922	4357
3282.682	4225
3284.441	4457
3286.199	4427
3287.959	4408
3289.716	4314
3291.475	4412
3293.232	4368
3294.988	4307
3296.744	4452
3298.501	4441
3300.256	4396
3302.011	4313
3303.766	4438
3305.52	4514
3307.275	4341
3309.028	4419
3310.781	4393
3312.533	4429
3314.285	4325
3316.038	4295
3317.789	4392
3319.54	4420
3321.289	4353
3323.039	4325
3324.789	4310
3326.539	4285
3328.288	4280
3330.035	4352
3331.783	4312
3333.531	4315
3335.28	4290
3337.025	4351
3338.771	4326
3340.518	4281
3342.262	4348
3344.009	4311
3345.753	4307
3347.497	4217
3349.24	4381
3350.983	4299
3352.726	4324
3354.469	4324
3356.212	4247
3357.952	4213
3359.694	4305
3361.434	4332
3363.176	4305
3364.916	4245
3366.654	4231
3368.394	4211
3370.132	4197
3371.871	4179
3373.61	4192
3375.346	4167
3377.083	4257
3378.82	4186
3380.556	4246
3382.292	4126
3384.027	4264
3385.763	4181
3387.497	4179
3389.231	4194
3390.965	4223
3392.698	4215
3394.431	4303
3396.164	4178
3397.896	4127
3399.627	4187
3401.36	4197
3403.09	4129
3404.82	4111
3406.55	4152
3408.279	4184
3410.01	4138
3411.738	4184
3413.467	4158
3415.194	4083
3416.92	4264
3418.647	4200
3420.375	4140
3422.102	4158
3423.827	4065
3425.553	4077
3427.277	4105
3429.003	4114
3430.727	4132
3432.451	4118
3434.173	4136
3435.896	4045
3437.62	4142
3439.343	4132
3441.063	4096
3442.785	4009
3444.505	4011
3446.226	3981
3447.948	4031
3449.666	3955
3451.386	3997
3453.104	4035
3454.823	4016
3456.541	3959
3458.259	3942
3459.976	3920
3461.693	4014
3463.408	3965
3465.125	3962
3466.841	3971
3468.556	4086
3470.271	3970
3471.985	3962
3473.698	3993
3475.414	3955
3477.126	3921
3478.838	3855
3480.55	4044
3482.263	3878
3483.975	4001
3485.686	3986
3487.396	3913
3489.106	3923
3490.817	3931
3492.526	3870
3494.236	3925
3495.944	3941
3497.652	3868
3499.359	3873
3501.066	3847
3502.775	3910
3504.481	3780
3506.187	3909
3507.893	3882
3509.598	3869
3511.304	3842
3513.009	3835
3514.713	3894
3516.417	3952
3518.12	3747
3519.821	3884
3521.525	3863
3523.228	3785
3524.929	3809
3526.631	3801
3528.33	3861
3530.032	3865
3531.733	3856
3533.433	3902
3535.131	3718
3536.83	3845
3538.529	3842
3540.227	3848
3541.925	3743
3543.623	3794
3545.319	3847
3547.016	3771
3548.712	3812
3550.408	3701
3552.103	3832
3553.798	3719
3555.491	3746
3557.188	3756
3558.88	3821
3560.574	3806
3562.266	3733
3563.959	3739
3565.651	3852
3567.343	3704
3569.035	3761
3570.725	3746
3572.415	3718
3574.106	3642
3575.797	3661
3577.485	3722
3579.174	3653
3580.863	3690
3582.551	3706
3584.238	3708
3585.926	3705
3587.613	3807
3589.3	3665
3590.986	3771
3592.671	3631
3594.357	3643
3596.042	3629
3597.726	3565
3599.41	3641
3601.094	3592
3602.778	3640
3604.461	3677
3606.143	3630
3607.825	3663
3609.507	3612
3611.188	3589
3612.87	3679
3614.551	3668
3616.229	3658
3617.909	3704
3619.589	3530
3621.269	3584
3622.948	3624
3624.625	3606
3626.302	3546
3627.98	3592
3629.657	3580
3631.334	3486
3633.01	3516
3634.686	3573
3636.361	3520
3638.036	3576
3639.712	3549
3641.385	3558
3643.06	3566
3644.732	3436
3646.405	3492
3648.08	3520
3649.751	3538
3651.424	3533
3653.094	3483
3654.766	3530
3656.436	3476
3658.106	3398
3659.777	3475
3661.446	3414
3663.115	3472
3664.783	3394
3666.452	3425
3668.121	3418
3669.788	3487
3671.454	3463
3673.121	3391
3674.789	3452
3676.455	3461
3678.12	3405
3679.784	3455
3681.45	3413
3683.114	3456
3684.779	3421
3686.442	3364
3688.105	3425
3689.768	3497
3691.43	3418
3693.093	3399
3694.754	3421
3696.415	3454
3698.076	3450
3699.736	3333
3701.396	3447
3703.057	3389
3704.716	3363
3706.375	3394
3708.034	3362
3709.692	3353
3711.351	3369
3713.008	3365
3714.665	3374
3716.321	3341
3717.977	3437
3719.634	3306
3721.29	3379
3722.945	3359
3724.598	3313
3726.253	3345
3727.907	3357
3729.561	3383
3731.214	3317
3732.867	3346
3734.518	3391
3736.171	3332
3737.824	3353
3739.474	3381
3741.125	3314
3742.775	3333
3744.425	3337
3746.074	3303
3747.725	3302
3749.373	3306
3751.022	3270
3752.669	3325
3754.318	3206
3755.966	3280
3757.612	3354
3759.259	3330
3760.905	3282
3762.55	3370
3764.197	3340
3765.842	3302
3767.486	3315
3769.131	3270
3770.774	3312
3772.417	3243
3774.061	3301
3775.705	3234
3777.347	3273
3778.988	3340
3780.629	3231
3782.271	3230
3783.912	3205
3785.552	3312
3787.192	3261
3788.831	3231
3790.472	3272
3792.112	3232
3793.75	3224
3795.388	3252
3797.024	3209
3798.661	3286
3800.3	3264
3801.936	3215
3803.572	3211
3805.208	3183
3806.844	3175
3808.48	3198
3810.115	3237
3811.748	3185
3813.382	3266
3815.016	3213
3816.649	3162
3818.283	3197
3819.914	3194
3821.547	3151
3823.178	3247
3824.809	3146
3826.441	3159
3828.072	3193
3829.701	3170
3831.331	3195
3832.96	3193
3834.591	3109
3836.219	3107
3837.847	3142
3839.475	3134
3841.102	3211
3842.729	3045
3844.357	3155
3845.984	3176
3847.609	3164
3849.234	3086
3850.86	3169
3852.485	3077
3854.11	3114
3855.734	3080
3857.357	3111
3858.981	3131
3860.603	3099
3862.227	3113
3863.848	3072
3865.471	3112
3867.092	3105
3868.713	3093
3870.334	3034
3871.954	3114
3873.575	3081
3875.194	3071
3876.813	3119
3878.433	3071
3880.051	3121
3881.669	3116
3883.286	3070
3884.904	3110
3886.52	3060
3888.138	3048
3889.754	3040
3891.37	3058
3892.985	3060
3894.6	3105
3896.216	3158
3897.831	3033
3899.444	3053
3901.058	3025
3902.67	2999
3904.283	3045
3905.897	3032
3907.509	3039
3909.121	2999
3910.731	3075
3912.342	2997
3913.954	3066
3915.563	2993
3917.174	3035
3918.783	2996
3920.391	2999
3922.002	3004
3923.611	2985
3925.218	3059
3926.826	2993
3928.432	3005
3930.039	3058
3931.647	2972
3933.253	3032
3934.859	3051
3936.464	2947
3938.068	2982
3939.675	3009
3941.278	3053
3942.883	2938
3944.486	2993
3946.089	2997
3947.692	2971
3949.295	3031
3950.898	2913
3952.499	3028
3954.1	2921
3955.7	2937
3957.303	3001
3958.903	2902
3960.502	3025
3962.101	2905
3963.7	2899
3965.301	2969
3966.899	3023
3968.497	3030
3970.094	2894
3971.691	2957
3973.288	2917
3974.885	2861
3976.481	2833
3978.077	2947
3979.672	2865
3981.267	2917
3982.863	2880
3984.457	2945
3986.051	2830
3987.645	2889
3989.238	2882
3990.831	3043
3992.425	2859
3994.017	2856
3995.607	2822
3997.199	2880
3998.79	2847
4000.382	2882
4001.973	2905
4003.561	2888
4005.151	2826
4006.741	2829
4008.331	2870
4009.918	2836
4011.507	2821
4013.095	2837
4014.681	2823
4016.269	2821
4017.856	2860
4019.443	2861
4021.028	2848
4022.614	2828
4024.199	2801
4025.785	2796
4027.37	2777
4028.953	2780
4030.536	2798
4032.12	2887
4033.704	2847
4035.287	2765
4036.869	2799
4038.45	2755
4040.032	2812
4041.613	2783
4043.195	2801
4044.776	2771
4046.356	2792
4047.935	2827
4049.515	2756
4051.095	2736
4052.674	2742
4054.251	2772
4055.829	2750
4057.406	2780
4058.985	2833
4060.562	2780
4062.139	2704
4063.715	2705
4065.29	2795
4066.865	2769
4068.442	2706
4070.016	2693
4071.59	2738
4073.164	2701
4074.738	2750
4076.312	2757
4077.885	2770
4079.458	2732
4081.03	2751
4082.602	2745
4084.173	2681
4085.745	2696
4087.315	2726
4088.886	2682
4090.456	2703
4092.026	2769
4093.596	2697
4095.165	2706
4096.734	2697
4098.301	2723
4099.869	2720
4101.437	2706
4103.006	2684
4104.572	2682
4106.139	2730
4107.704	2706
4109.27	2738
4110.837	2699
4112.401	2695
4113.966	2664
4115.53	2664
4117.094	2703
4118.659	2668
4120.223	2686
4121.785	2601
4123.347	2724
4124.909	2724
4126.471	2695
4128.034	2590
4129.595	2652
4131.155	2568
4132.716	2644
4134.275	2661
4135.836	2616
4137.395	2594
4138.955	2648
4140.513	2617
4142.071	2707
4143.628	2670
4145.188	2601
4146.745	2575
4148.302	2626
4149.858	2609
4151.414	2661
4152.971	2543
4154.526	2570
4156.081	2507
4157.635	2524
4159.189	2557
4160.745	2517
4162.298	2606
4163.852	2582
4165.405	2552
4166.957	2555
4168.51	2589
4170.063	2560
4171.614	2574
4173.166	2558
4174.717	2583
4176.267	2555
4177.817	2550
4179.368	2554
4180.917	2558
4182.466	2582
4184.016	2560
4185.564	2535
4187.112	2516
4188.66	2515
4190.207	2536
4191.754	2532
4193.301	2502
4194.848	2541
4196.394	2502
4197.94	2497
4199.484	2511
4201.03	2542
4202.575	2487
4204.12	2447
4205.663	2454
4207.207	2518
4208.75	2472
4210.292	2523
4211.836	2509
4213.378	2535
4214.92	2406
4216.46	2463
4218.002	2474
4219.544	2475
4221.083	2464
4222.625	2451
4224.164	2393
4225.703	2496
4227.244	2479
4228.782	2481
4230.32	2459
4231.857	2453
4233.395	2412
4234.933	2446
4236.471	2431
4238.007	2481
4239.542	2452
4241.078	2483
4242.614	2476
4244.15	2449
4245.685	2463
4247.219	2486
4248.753	2425
4250.287	2452
4251.82	2454
4253.354	2465
4254.887	2465
4256.419	2397
4257.951	2477
4259.483	2381
4261.016	2444
4262.547	2441
4264.078	2447
4265.608	2409
4267.137	2377
4268.668	2398
4270.197	2426
4271.727	2424
4273.254	2430
4274.783	2398
4276.311	2404
4277.84	2395
4279.366	2386
4280.894	2359
4282.42	2436
4283.946	2425
4285.473	2438
4286.998	2373
4288.523	2360
4290.047	2416
4291.572	2413
4293.096	2342
4294.622	2344
4296.144	2349
4297.668	2366
4299.19	2355
4300.713	2405
4302.236	2389
4303.758	2412
4305.279	2393
4306.799	2384
4308.321	2357
4309.842	2388
4311.361	2337
4312.882	2364
4314.401	2273
