400.0961	3640
402.6185	3635
405.1424	3598
407.6635	3620
410.1838	3615
412.7035	3691
415.2225	3686
417.7388	3686
420.2585	3736
422.7754	3826
425.2917	3702
427.8072	3833
430.3221	3866
432.8363	3857
435.3498	3859
437.8626	3904
440.3727	3883
442.8841	3898
445.3969	3851
447.907	3915
450.4142	3849
452.9229	3860
455.4289	3809
457.9362	3793
460.4449	3705
462.9488	3803
465.454	3768
467.9566	3837
470.4604	3883
472.9637	3743
475.4662	3847
477.966	3781
480.4671	3756
482.9656	3853
485.4633	3840
487.9645	3872
490.4608	3818
492.9566	3906
495.4536	3788
497.948	3882
500.4437	3890
502.9387	3858
505.431	3897
507.9226	3941
510.4136	3856
512.9079	3891
515.3975	3906
517.8864	3922
520.3746	3932
522.8622	3930
525.3491	3919
527.8394	3943
530.3249	3905
532.8098	3912
535.2939	4035
537.7774	3961
540.2623	3961
542.7444	3961
545.2259	3930
547.7067	3907
550.1868	4014
552.6683	3993
555.147	3991
557.6231	3957
560.1005	3936
562.5773	3994
565.0534	4071
567.5308	4088
570.0056	4041
572.4776	4053
574.951	4083
577.4237	4046
579.8978	4095
582.3671	4039
584.8378	4088
587.3079	4147
589.7773	4121
592.244	4117
594.714	4165
597.1793	4110
599.6461	4068
602.1121	4059
604.5754	4067
607.0421	4004
609.5042	3993
611.9675	4118
614.4282	4101
616.8902	4110
619.3515	4052
621.8122	4004
624.2702	4075
626.7296	3929
629.1863	4031
631.6423	4069
634.1017	4061
636.5563	4072
639.0104	4034
641.4658	4071
643.9185	4135
646.3725	4075
648.8239	4144
651.2766	4085
653.7266	4109
656.176	4106
658.6247	4178
661.0748	4034
663.5242	4216
665.9709	4107
668.417	4172
670.8624	4192
673.3092	4142
675.7533	4064
678.1968	4106
680.6395	4157
683.0817	4200
685.5251	4170
687.9659	4146
690.4061	4220
692.8456	4233
695.2844	4173
697.7226	4332
700.1621	4245
702.599	4179
705.0332	4205
707.4688	4325
709.9036	4268
712.3399	4248
714.7735	4199
717.2044	4341
719.6367	4256
722.0683	4248
724.4993	4322
726.9296	4336
729.3593	4333
731.7883	4389
734.2147	4397
736.6423	4361
739.0714	4444
741.4958	4293
743.9216	4363
746.3447	4328
748.7691	4423
751.1929	4336
753.616	4432
756.0366	4479
758.4584	4430
760.8776	4352
763.2982	4481
765.718	4507
768.1373	4449
770.5539	4505
772.9698	4536
775.3871	4596
777.8038	4478
780.2178	4440
782.6332	4396
785.0459	4478
787.458	4526
789.8714	4516
792.2842	4477
794.6943	4474
797.1038	4487
799.5127	4509
801.9209	4512
804.3324	4454
806.7393	4513
809.1456	4457
811.5513	4439
813.9562	4488
816.3625	4556
818.7663	4546
821.1693	4505
823.5718	4545
825.9735	4521
828.3746	4500
830.7771	4511
833.177	4515
835.5762	4504
837.9747	4545
840.3727	4559
842.772	4525
845.1666	4630
847.5626	4596
849.958	4657
852.3527	4759
854.7488	4741
857.1403	4797
859.5331	4633
861.9253	4620
864.3168	4673
866.7057	4601
869.098	4603
871.4876	4776
873.8746	4628
876.263	4713
878.6487	4705
881.0378	4600
883.4243	4571
885.8081	4624
888.1933	4684
890.5759	4624
892.9598	4617
895.343	4660
897.7256	4748
900.1057	4631
902.4871	4653
904.8659	4723
907.246	4770
909.6254	4811
912.0023	4777
914.3786	4875
916.7562	4931
919.1331	5032
921.5074	5081
923.8831	5060
926.2562	5129
928.6287	5020
931.0005	5032
933.3757	5133
935.7462	4963
938.1162	5004
940.4855	5040
942.8542	4967
945.2242	5045
947.5916	5139
949.9584	5157
952.3266	5336
954.6921	5546
957.0571	5699
959.4233	5880
961.787	5851
964.15	5826
966.5125	5685
968.8742	5513
971.2354	5313
973.5959	5156
975.9559	5081
978.3151	5013
980.6738	5068
983.0338	4793
985.3912	4886
987.7461	4861
990.1022	4823
992.4578	4842
994.8127	4756
997.1689	4920
999.5207	4900
1001.874	4888
1004.226	4896
1006.576	4881
1008.929	4886
1011.28	4891
1013.628	4870
1015.977	4838
1018.324	4809
1020.674	4791
1023.019	4895
1025.366	4983
1027.713	4957
1030.056	4815
1032.399	4834
1034.746	4870
1037.087	4957
1039.431	4985
1041.771	4897
1044.113	4861
1046.454	4914
1048.793	4826
1051.133	4897
1053.471	4944
1055.807	4880
1058.146	4850
1060.483	4952
1062.818	4999
1065.153	4966
1067.489	4976
1069.822	4992
1072.156	5013
1074.488	5034
1076.82	4975
1079.15	4974
1081.48	4939
1083.814	4946
1086.143	5021
1088.471	4907
1090.799	4832
1093.126	4821
1095.452	5013
1097.78	4926
1100.105	4913
1102.43	4780
1104.754	4866
1107.077	4953
1109.4	4908
1111.722	4862
1114.044	4950
1116.365	4900
1118.685	4965
1121.005	4999
1123.324	5005
1125.643	5159
1127.961	4960
1130.278	5136
1132.595	5035
1134.911	4887
1137.226	4866
1139.541	4972
1141.854	4924
1144.167	4860
1146.482	4863
1148.793	4969
1151.105	4921
1153.414	4992
1155.725	4850
1158.033	5002
1160.344	4912
1162.651	4937
1164.959	4932
1167.265	4928
1169.572	4945
1171.878	4928
1174.184	4887
1176.488	4913
1178.79	5098
1181.094	5012
1183.396	4888
1185.699	4917
1188.001	5017
1190.301	4927
1192.6	4980
1194.9	4897
1197.2	4826
1199.497	5039
1201.794	4911
1204.09	4972
1206.387	4983
1208.684	4960
1210.978	4982
1213.272	5071
1215.565	4906
1217.858	5048
1220.15	5002
1222.443	4980
1224.734	5009
1227.024	5038
1229.313	5052
1231.602	5067
1233.892	5034
1236.18	5162
1238.467	5121
1240.754	5137
1243.04	5223
1245.325	5167
1247.612	5116
1249.896	5208
1252.178	5273
1254.461	5178
1256.743	5250
1259.027	5214
1261.308	5122
1263.587	5212
1265.867	5175
1268.146	5306
1270.425	5281
1272.703	5306
1274.981	5168
1277.256	5231
1279.532	5114
1281.808	5184
1284.083	5160
1286.358	5183
1288.63	5112
1290.904	5178
1293.175	5201
1295.449	5137
1297.719	5096
1299.99	5146
1302.259	5010
1304.529	5204
1306.798	5192
1309.065	5217
1311.333	5168
1313.599	5149
1315.866	5131
1318.131	5074
1320.396	5136
1322.66	5065
1324.925	5145
1327.187	5179
1329.448	5204
1331.711	5233
1333.974	5241
1336.234	5240
1338.493	5190
1340.752	5275
1343.01	5146
1345.269	5097
1347.526	5131
1349.784	5081
1352.04	5205
1354.295	5088
1356.552	5138
1358.806	5100
1361.059	5126
1363.312	5066
1365.564	5137
1367.818	5132
1370.069	5167
1372.318	5133
1374.568	5144
1376.817	5189
1379.066	5218
1381.316	5216
1383.564	5208
1385.809	5218
1388.056	5228
1390.301	5435
1392.549	5460
1394.793	5556
1397.036	5505
1399.279	5524
1401.522	5524
1403.763	5614
1406.007	5514
1408.248	5502
1410.487	5455
1412.727	5502
1414.965	5358
1417.205	5467
1419.442	5428
1421.68	5346
1423.915	5363
1426.152	5359
1428.388	5521
1430.623	5392
1432.857	5453
1435.091	5581
1437.323	5448
1439.556	5551
1441.789	5553
1444.019	5488
1446.25	5526
1448.48	5464
1450.708	5489
1452.938	5581
1455.167	5540
1457.394	5535
1459.62	5534
1461.846	5549
1464.073	5498
1466.299	5418
1468.523	5302
1470.746	5462
1472.969	5262
1475.191	5316
1477.415	5280
1479.636	5263
1481.858	5138
1484.078	5254
1486.298	5174
1488.518	5244
1490.736	5187
1492.954	5110
1495.169	5238
1497.386	5238
1499.602	5086
1501.819	5161
1504.034	5141
1506.248	5181
1508.462	5145
1510.675	5157
1512.888	5118
1515.1	5187
1517.311	5112
1519.522	5158
1521.732	5183
1523.942	5249
1526.151	5188
1528.36	5146
1530.566	5108
1532.773	5164
1534.98	5206
1537.187	5145
1539.392	5185
1541.596	5211
1543.801	5095
1546.005	5323
1548.208	5193
1550.411	5276
1552.612	5169
1554.814	5240
1557.013	5178
1559.212	5277
1561.414	5364
1563.612	5195
1565.811	5312
1568.007	5272
1570.203	5269
1572.403	5249
1574.598	5257
1576.792	5219
1578.988	5352
1581.181	5403
1583.376	5323
1585.568	5326
1587.761	5328
1589.952	5274
1592.143	5283
1594.333	5324
1596.524	5371
1598.715	5331
1600.903	5393
1603.091	5340
1605.278	5378
1607.466	5313
1609.652	5395
1611.838	5339
1614.023	5416
1616.207	5352
1618.391	5415
1620.576	5328
1622.759	5314
1624.941	5484
1627.123	5372
1629.304	5407
1631.484	5367
1633.664	5453
1635.844	5481
1638.022	5372
1640.201	5369
1642.38	5430
1644.556	5425
1646.732	5455
1648.908	5492
1651.084	5465
1653.257	5492
1655.433	5427
1657.607	5458
1659.779	5465
1661.951	5545
1664.122	5527
1666.295	5520
1668.467	5542
1670.635	5297
1672.805	5442
1674.973	5541
1677.142	5500
1679.31	5431
1681.478	5464
1683.644	5456
1685.81	5369
1687.975	5376
1690.142	5365
1692.305	5408
1694.468	5390
1696.632	5390
1698.794	5400
1700.957	5382
1703.119	5436
1705.279	5432
1707.439	5420
1709.598	5279
1711.758	5358
1713.917	5377
1716.075	5357
1718.231	5343
1720.388	5279
1722.543	5329
1724.702	5299
1726.856	5469
1729.01	5377
1731.164	5200
1733.317	5320
1735.471	5363
1737.623	5355
1739.774	5324
1741.925	5342
1744.075	5422
1746.225	5315
1748.376	5435
1750.524	5307
1752.672	5374
1754.82	5416
1756.965	5392
1759.113	5335
1761.259	5392
1763.405	5312
1765.549	5339
1767.694	5302
1769.836	5451
1771.981	5355
1774.123	5399
1776.264	5500
1778.405	5379
1780.546	5355
1782.687	5444
1784.827	5443
1786.966	5343
1789.103	5368
1791.242	5340
1793.381	5389
1795.517	5352
1797.653	5432
1799.788	5431
1801.923	5417
1804.057	5427
1806.193	5370
1808.326	5334
1810.457	5404
1812.59	5455
1814.721	5469
1816.855	5293
1818.984	5434
1821.113	5449
1823.244	5424
1825.372	5301
1827.499	5395
1829.63	5364
1831.756	5429
1833.882	5339
1836.007	5421
1838.132	5344
1840.26	5287
1842.384	5420
1844.507	5315
1846.63	5405
1848.752	5398
1850.875	5330
1852.996	5429
1855.118	5366
1857.238	5394
1859.358	5128
1861.477	5215
1863.597	5359
1865.715	5204
1867.832	5268
1869.948	5283
1872.064	5368
1874.181	5374
1876.297	5273
1878.411	5440
1880.526	5257
1882.639	5311
1884.752	5239
1886.865	5450
1888.977	5273
1891.089	5418
1893.2	5358
1895.308	5369
1897.42	5384
1899.53	5474
1901.639	5313
1903.745	5409
1905.853	5440
1907.962	5383
1910.067	5440
1912.174	5306
1914.278	5489
1916.383	5449
1918.486	5380
1920.592	5405
1922.694	5469
1924.797	5313
1926.898	5422
1929	5439
1931.102	5466
1933.203	5461
1935.301	5435
1937.401	5472
1939.499	5531
1941.598	5570
1943.697	5428
1945.793	5406
1947.888	5382
1949.985	5483
1952.08	5449
1954.176	5441
1956.269	5507
1958.364	5371
1960.457	5516
1962.549	5443
1964.642	5414
1966.733	5463
1968.823	5504
1970.913	5372
1973.005	5442
1975.093	5422
1977.184	5341
1979.271	5482
1981.359	5319
1983.446	5449
1985.532	5355
1987.619	5500
1989.705	5327
1991.789	5340
1993.874	5440
1995.956	5465
1998.041	5475
2000.123	5379
2002.206	5425
2004.287	5430
2006.368	5298
2008.449	5335
2010.529	5390
2012.609	5356
2014.688	5407
2016.766	5298
2018.843	5491
2020.922	5385
2022.999	5315
2025.074	5290
2027.15	5419
2029.225	5304
2031.299	5340
2033.375	5289
2035.447	5357
2037.52	5366
2039.592	5411
2041.664	5382
2043.736	5346
2045.807	5330
2047.876	5277
2049.947	5295
2052.015	5380
2054.086	5431
2056.153	5320
2058.221	5321
2060.288	5371
2062.353	5362
2064.42	5364
2066.486	5361
2068.55	5391
2070.614	5435
2072.678	5463
2074.741	5310
2076.805	5321
2078.866	5366
2080.929	5462
2082.99	5353
2085.049	5438
2087.109	5450
2089.17	5408
2091.228	5365
2093.286	5325
2095.344	5426
2097.4	5423
2099.46	5455
2101.516	5420
2103.572	5425
2105.626	5372
2107.679	5349
2109.735	5363
2111.788	5332
2113.841	5387
2115.894	5352
2117.945	5379
2119.997	5398
2122.049	5304
2124.1	5427
2126.148	5426
2128.197	5444
2130.246	5371
2132.296	5310
2134.342	5324
2136.39	5405
2138.437	5304
2140.483	5337
2142.527	5330
2144.574	5328
2146.619	5280
2148.661	5425
2150.705	5345
2152.747	5332
2154.792	5397
2156.832	5387
2158.874	5468
2160.915	5321
2162.954	5376
2164.995	5242
2167.034	5322
2169.072	5317
2171.111	5409
2173.148	5254
2175.186	5343
2177.223	5337
2179.258	5372
2181.294	5357
2183.328	5376
2185.362	5368
2187.398	5257
2189.431	5267
2191.463	5273
2193.495	5355
2195.528	5375
2197.56	5290
2199.59	5261
2201.62	5268
2203.649	5331
2205.678	5219
2207.708	5337
2209.737	5277
2211.764	5286
2213.791	5225
2215.817	5253
2217.843	5310
2219.87	5173
2221.895	5257
2223.919	5264
2225.942	5294
2227.966	5357
2229.988	5218
2232.012	5184
2234.032	5185
2236.054	5192
2238.074	5249
2240.095	5332
2242.116	5243
2244.135	5315
2246.153	5167
2248.171	5300
2250.188	5189
2252.208	5328
2254.223	5350
2256.239	5238
2258.255	5288
2260.269	5220
2262.283	5257
2264.3	5245
2266.312	5121
2268.325	5315
2270.336	5262
2272.349	5287
2274.362	5277
2276.372	5274
2278.383	5236
2280.392	5242
2282.402	5189
2284.409	5142
2286.418	5220
2288.427	5286
2290.433	5204
2292.441	5295
2294.446	5255
2296.453	5242
2298.459	5287
2300.463	5263
2302.466	5233
2304.471	5201
2306.475	5296
2308.477	5176
2310.478	5237
2312.481	5232
2314.481	5185
2316.481	5083
2318.482	5282
2320.482	5178
2322.48	5257
2324.48	5133
2326.478	5200
2328.476	5142
2330.473	5183
2332.469	5184
2334.465	5232
2336.46	5198
2338.454	5078
2340.45	5155
2342.444	5193
2344.437	5204
2346.43	5157
2348.421	5187
2350.414	5188
2352.405	5215
2354.396	5237
2356.386	5129
2358.376	5257
2360.366	5189
2362.355	5129
2364.343	5098
2366.331	5106
2368.317	5107
2370.304	5133
2372.292	5194
2374.278	5154
2376.262	5104
2378.247	5106
2380.23	5089
2382.216	5087
2384.199	5068
2386.181	5142
2388.163	5068
2390.144	5116
2392.127	5091
2394.107	5054
2396.087	5049
2398.066	4993
2400.046	5020
2402.023	5165
2404.004	5086
2405.981	5062
2407.957	5116
2409.934	5068
2411.91	5014
2413.886	5022
2415.862	4969
2417.836	5028
2419.809	5061
2421.784	5038
2423.756	5041
2425.73	5078
2427.701	5061
2429.672	5037
2431.644	5095
2433.615	5087
2435.586	5060
2437.555	5030
2439.523	5027
2441.491	4963
2443.459	5027
2445.428	5094
2447.395	4989
2449.361	5052
2451.327	5079
2453.292	5057
2455.257	5184
2457.223	5071
2459.187	5031
2461.15	4998
2463.113	5049
2465.076	5096
2467.039	5124
2468.999	5097
2470.96	5063
2472.921	4936
2474.881	5078
2476.841	5052
2478.8	5014
2480.759	4978
2482.717	5023
2484.675	4984
2486.63	4905
2488.589	5029
2490.545	4999
2492.5	4996
2494.455	5126
2496.408	5036
2498.364	4971
2500.318	5001
2502.27	5016
2504.223	5035
2506.174	4975
2508.126	5047
2510.078	4902
2512.03	5037
2513.979	4878
2515.927	5015
2517.877	5019
2519.826	4993
2521.775	5026
2523.722	4963
2525.668	4883
2527.616	4959
2529.561	4943
2531.508	5032
2533.452	5024
2535.398	4810
2537.342	4928
2539.284	4878
2541.229	5013
2543.173	5024
2545.114	5008
2547.055	5012
2548.996	4968
2550.938	4974
2552.878	4944
2554.817	4927
2556.756	4900
2558.695	4996
2560.633	4928
2562.572	4909
2564.509	4996
2566.445	4896
2568.382	4940
2570.317	4932
2572.254	4891
2574.189	4961
2576.123	4957
2578.057	4995
2579.99	4961
2581.923	4820
2583.855	4971
2585.788	4973
2587.719	5005
2589.65	4949
2591.579	4924
2593.511	5021
2595.44	4953
2597.37	5014
2599.297	5021
2601.225	4866
2603.153	4965
2605.08	4917
2607.007	5083
2608.932	4967
2610.858	4969
2612.782	4993
2614.709	5025
2616.632	4973
2618.556	4982
2620.478	4943
2622.401	4959
2624.324	5004
2626.247	4962
2628.167	4999
2630.088	5006
2632.008	5024
2633.928	4935
2635.848	4999
2637.766	5013
2639.684	4977
2641.603	5036
2643.519	5025
2645.437	4926
2647.353	5005
2649.27	4994
2651.184	4971
2653.099	4971
2655.014	4994
2656.928	5045
2658.842	5015
2660.755	4932
2662.667	4866
2664.579	4948
2666.491	4838
2668.402	4918
2670.312	4954
2672.222	4829
2674.132	4934
2676.042	4909
2677.951	5006
2679.859	4992
2681.766	4942
2683.674	4955
2685.582	4949
2687.488	4938
2689.392	4972
2691.298	4991
2693.202	4913
2695.107	5001
2697.012	4947
2698.914	5010
2700.817	4931
2702.72	4840
2704.622	4838
2706.524	5041
2708.425	4907
2710.326	4887
2712.225	4870
2714.125	4909
2716.024	4875
2717.923	4878
2719.822	4909
2721.719	4938
2723.616	4860
2725.512	4925
2727.41	4826
2729.305	4899
2731.201	4882
2733.095	4877
2734.99	4894
2736.884	4976
2738.778	4921
2740.67	4922
2742.562	4885
2744.455	4852
2746.346	4934
2748.238	4861
2750.129	4879
2752.018	4869
2753.907	4870
2755.797	4775
2757.687	4933
2759.575	4872
2761.462	4850
2763.349	4849
2765.237	4877
2767.124	4888
2769.009	5007
2770.894	4910
2772.779	4821
2774.663	4883
2776.547	4897
2778.431	4799
2780.314	4868
2782.197	4830
2784.078	4927
2785.96	4943
2787.842	4894
2789.723	4876
2791.603	4790
2793.483	4799
2795.362	4851
2797.241	4833
2799.121	4904
2800.997	4885
2802.874	4911
2804.751	4864
2806.628	4833
2808.506	4864
2810.38	4890
2812.255	4974
2814.13	4836
2816.003	4842
2817.878	4818
2819.752	4888
2821.623	4832
2823.496	4784
2825.368	4852
2827.238	4827
2829.111	4886
2830.98	4810
2832.851	4850
2834.719	5005
2836.589	4948
2838.458	5008
2840.327	4928
2842.193	4957
2844.061	4957
2845.927	5013
2847.794	4866
2849.66	5080
2851.525	4943
2853.39	4925
2855.254	5063
2857.117	5119
2858.983	5140
2860.845	5084
2862.707	5043
2864.569	5185
2866.431	5136
2868.293	5219
2870.154	5170
2872.013	5167
2873.873	5191
2875.733	5314
2877.592	5345
2879.451	5371
2881.309	5419
2883.166	5489
2885.022	5642
2886.879	5520
2888.736	5651
2890.591	5712
2892.446	5772
2894.301	5584
2896.155	5714
2898.009	5713
2899.863	5725
2901.716	5644
2903.568	5658
2905.419	5468
2907.27	5539
2909.123	5539
2910.973	5626
2912.824	5629
2914.673	5520
2916.521	5655
2918.372	5623
2920.22	5735
2922.067	5797
2923.914	5712
2925.761	5769
2927.607	5832
2929.455	5772
2931.301	5826
2933.144	5853
2934.99	5846
2936.833	5867
2938.678	5849
2940.522	6080
2942.364	6126
2944.207	6109
2946.048	6347
2947.891	6411
2949.731	6441
2951.571	6546
2953.412	6516
2955.25	6368
2957.09	6366
2958.93	6334
2960.767	6471
2962.606	6380
2964.443	6499
2966.279	6165
2968.116	6035
2969.953	5984
2971.788	5771
2973.623	5704
2975.457	5655
2977.292	5589
2979.127	5507
2980.959	5448
2982.792	5465
2984.624	5355
2986.455	5343
2988.288	5324
2990.119	5236
2991.949	5191
2993.779	5118
2995.608	5128
2997.439	5061
2999.268	5050
3001.096	5084
3002.923	5168
3004.751	5018
3006.578	5025
3008.406	4958
3010.232	4883
3012.057	4862
3013.883	4829
3015.706	4900
3017.532	4893
3019.356	4794
3021.179	4785
3023.002	4754
3024.823	4684
3026.646	4737
3028.469	4744
3030.289	4719
3032.11	4668
3033.93	4762
3035.749	4751
3037.57	4686
3039.39	4684
3041.207	4626
3043.026	4701
3044.842	4730
3046.661	4640
3048.477	4609
3050.294	4627
3052.109	4635
3053.925	4688
3055.739	4608
3057.555	4654
3059.368	4665
3061.181	4701
3062.995	4613
3064.807	4642
3066.62	4611
3068.433	4647
3070.243	4594
3072.054	4542
3073.865	4734
3075.675	4688
3077.485	4545
3079.293	4602
3081.102	4600
3082.911	4573
3084.719	4579
3086.527	4629
3088.333	4558
3090.139	4531
3091.945	4542
3093.75	4493
3095.557	4420
3097.361	4564
3099.165	4600
3100.969	4401
3102.772	4505
3104.575	4499
3106.379	4484
3108.181	4470
3109.982	4444
3111.783	4439
3113.584	4550
3115.386	4416
3117.186	4421
3118.985	4467
3120.783	4434
3122.582	4417
3124.381	4474
3126.179	4450
3127.975	4504
3129.772	4398
3131.569	4400
3133.365	4446
3135.161	4387
3136.956	4471
3138.751	4278
3140.544	4377
3142.338	4415
3144.132	4467
3145.925	4322
3147.717	4383
3149.509	4441
3151.301	4348
3153.091	4382
3154.884	4387
3156.673	4358
3158.462	4314
3160.252	4426
3162.041	4430
3163.831	4371
3165.618	4275
3167.405	4449
3169.193	4369
3170.979	4361
3172.767	4275
3174.553	4384
3176.338	4369
3178.123	4405
3179.907	4340
3181.692	4405
3183.477	4333
3185.259	4333
3187.042	4402
3188.824	4398
3190.607	4365
3192.389	4392
3194.17	4464
3195.951	4392
3197.73	4282
3199.51	4402
3201.289	4392
3203.07	4388
3204.848	4273
3206.626	4444
3208.403	4362
3210.18	4392
3211.959	4335
3213.735	4415
3215.511	4265
3217.285	4343
3219.06	4406
3220.836	4244
3222.611	4299
3224.384	4337
3226.158	4357
3227.929	4266
3229.702	4331
3231.476	4304
3233.248	4305
3235.018	4336
3236.789	4350
3238.56	4210
3240.33	4317
3242.1	4350
3243.869	4277
3245.637	4297
3247.405	4184
3249.172	4297
3250.941	4257
3252.707	4362
3254.474	4371
3256.24	4412
3258.006	4300
3259.772	4376
3261.537	4314
3263.301	4381
3265.065	4307
3266.828	4316
3268.592	4285
3270.355	4339
3272.117	4355
3273.878	4299
3275.64	4276
3277.401	4414
3279.162	4375
3280.922	4311
3282.682	4301
3284.441	4252
3286.199	4405
3287.959	4380
3289.716	4322
3291.475	4365
3293.232	4331
3294.988	4356
3296.744	4280
3298.501	4263
3300.256	4304
3302.011	4359
3303.766	4287
3305.52	4197
3307.275	4256
3309.028	4237
3310.781	4249
3312.533	4329
3314.285	4349
3316.038	4335
3317.789	4269
3319.54	4272
3321.289	4309
3323.039	4251
3324.789	4302
3326.539	4239
3328.288	4284
3330.035	4222
3331.783	4236
3333.531	4147
3335.28	4252
3337.025	4141
3338.771	4256
3340.518	4280
3342.262	4282
3344.009	4292
3345.753	4213
3347.497	4285
3349.24	4190
3350.983	4159
3352.726	4257
3354.469	4245
3356.212	4141
3357.952	4148
3359.694	4229
3361.434	4060
3363.176	4173
3364.916	4228
3366.654	4224
3368.394	4204
3370.132	4165
3371.871	4163
3373.61	4180
3375.346	4053
3377.083	4146
3378.82	4164
3380.556	4101
3382.292	4126
3384.027	4116
3385.763	4107
3387.497	4165
3389.231	4093
3390.965	4123
3392.698	4219
3394.431	4051
3396.164	4069
3397.896	4116
3399.627	4095
3401.36	4132
3403.09	4097
3404.82	4049
3406.55	4129
3408.279	4052
3410.01	4127
3411.738	4068
3413.467	4098
3415.194	4064
3416.92	4078
3418.647	4087
3420.375	3981
3422.102	4057
3423.827	4076
3425.553	4004
3427.277	4042
3429.003	3965
3430.727	4030
3432.451	3960
3434.173	4076
3435.896	4039
3437.62	3977
3439.343	3980
3441.063	3957
3442.785	4056
3444.505	3952
3446.226	4033
3447.948	4015
3449.666	3924
3451.386	3997
3453.104	3918
3454.823	3913
3456.541	3880
3458.259	3907
3459.976	3891
3461.693	3932
3463.408	3930
3465.125	3895
3466.841	3971
3468.556	3977
3470.271	3812
3471.985	3913
3473.698	3751
3475.414	3938
3477.126	3833
3478.838	3860
3480.55	3960
3482.263	3883
3483.975	3989
3485.686	3860
3487.396	3860
3489.106	3780
3490.817	3863
3492.526	3863
3494.236	3762
3495.944	3822
3497.652	3808
3499.359	3788
3501.066	3778
3502.775	3731
3504.481	3729
3506.187	3748
3507.893	3864
3509.598	3718
3511.304	3709
3513.009	3762
3514.713	3745
3516.417	3755
3518.12	3774
3519.821	3782
3521.525	3791
3523.228	3754
3524.929	3783
3526.631	3727
3528.33	3713
3530.032	3620
3531.733	3738
3533.433	3789
3535.131	3769
3536.83	3677
3538.529	3698
3540.227	3672
3541.925	3713
3543.623	3671
3545.319	3733
3547.016	3701
3548.712	3749
3550.408	3690
3552.103	3687
3553.798	3705
3555.491	3668
3557.188	3661
3558.88	3602
3560.574	3656
3562.266	3629
3563.959	3640
3565.651	3642
3567.343	3569
3569.035	3649
3570.725	3570
3572.415	3564
3574.106	3586
3575.797	3662
3577.485	3620
3579.174	3581
3580.863	3592
3582.551	3525
3584.238	3509
3585.926	3576
3587.613	3564
3589.3	3592
3590.986	3603
3592.671	3596
3594.357	3595
3596.042	3537
3597.726	3569
3599.41	3586
3601.094	3543
3602.778	3523
3604.461	3507
3606.143	3518
3607.825	3483
3609.507	3464
3611.188	3513
3612.87	3479
3614.551	3449
3616.229	3510
3617.909	3399
3619.589	3439
3621.269	3486
3622.948	3501
3624.625	3456
3626.302	3460
3627.98	3374
3629.657	3421
3631.334	3441
3633.01	3438
3634.686	3395
3636.361	3389
3638.036	3416
3639.712	3462
3641.385	3473
3643.06	3326
3644.732	3506
3646.405	3353
3648.08	3394
3649.751	3400
3651.424	3386
3653.094	3344
3654.766	3387
3656.436	3407
3658.106	3455
3659.777	3308
3661.446	3365
3663.115	3344
3664.783	3297
3666.452	3368
3668.121	3358
3669.788	3336
3671.454	3288
3673.121	3290
3674.789	3292
3676.455	3381
3678.12	3287
3679.784	3371
3681.45	3259
3683.114	3344
3684.779	3277
3686.442	3309
3688.105	3343
3689.768	3365
3691.43	3345
3693.093	3265
3694.754	3301
3696.415	3319
3698.076	3345
3699.736	3330
3701.396	3301
3703.057	3285
3704.716	3240
3706.375	3293
3708.034	3320
3709.692	3309
3711.351	3256
3713.008	3381
3714.665	3358
3716.321	3317
3717.977	3283
3719.634	3189
3721.29	3213
3722.945	3270
3724.598	3214
3726.253	3288
3727.907	3183
3729.561	3172
3731.214	3237
3732.867	3274
3734.518	3183
3736.171	3243
3737.824	3215
3739.474	3111
3741.125	3154
3742.775	3273
3744.425	3212
3746.074	3290
3747.725	3123
3749.373	3212
3751.022	3149
3752.669	3194
3754.318	3216
3755.966	3246
3757.612	3198
3759.259	3200
3760.905	3209
3762.55	3316
3764.197	3157
3765.842	3315
3767.486	3202
3769.131	3127
3770.774	3248
3772.417	3259
3774.061	3187
3775.705	3162
3777.347	3204
3778.988	3117
3780.629	3148
3782.271	3189
3783.912	3137
3785.552	3161
3787.192	3116
3788.831	3143
3790.472	3151
3792.112	3224
3793.75	3094
3795.388	3149
3797.024	3149
3798.661	3186
3800.3	3125
3801.936	3081
3803.572	3159
3805.208	3105
3806.844	3109
3808.48	3093
3810.115	3097
3811.748	3077
3813.382	3071
3815.016	3198
3816.649	3030
3818.283	3166
3819.914	3108
3821.547	3078
3823.178	3053
3824.809	3139
3826.441	3003
3828.072	3069
3829.701	3091
3831.331	3006
3832.96	3077
3834.591	3104
3836.219	3092
3837.847	3107
3839.475	3043
3841.102	3021
3842.729	3103
3844.357	3072
3845.984	3081
3847.609	3025
3849.234	3023
3850.86	3027
3852.485	3019
3854.11	3036
3855.734	3025
3857.357	3004
3858.981	2987
3860.603	2993
3862.227	3008
3863.848	2981
3865.471	2999
3867.092	2960
3868.713	3015
3870.334	3032
3871.954	2941
3873.575	2998
3875.194	2970
3876.813	3065
3878.433	2989
3880.051	2981
3881.669	2996
3883.286	3000
3884.904	3028
3886.52	2964
3888.138	2993
3889.754	2913
3891.37	2963
3892.985	2993
3894.6	2953
3896.216	2996
3897.831	2915
3899.444	2909
3901.058	2859
3902.67	2981
3904.283	2964
3905.897	2965
3907.509	2936
3909.121	2936
3910.731	2997
3912.342	2942
3913.954	2993
3915.563	2957
3917.174	2959
3918.783	2951
3920.391	2961
3922.002	2984
3923.611	2940
3925.218	2871
3926.826	2933
3928.432	2958
3930.039	2898
3931.647	2914
3933.253	2914
3934.859	2919
3936.464	2883
3938.068	2896
3939.675	2922
3941.278	2941
3942.883	2907
3944.486	2841
3946.089	2931
3947.692	2893
3949.295	2926
3950.898	2844
3952.499	2910
3954.1	2887
3955.7	2870
3957.303	2899
3958.903	2845
3960.502	2857
3962.101	2843
3963.7	2892
3965.301	2954
3966.899	2884
3968.497	2910
3970.094	2910
3971.691	2830
3973.288	2830
3974.885	2802
3976.481	2804
3978.077	2904
3979.672	2797
3981.267	2839
3982.863	2827
3984.457	2794
3986.051	2857
3987.645	2859
3989.238	2854
3990.831	2833
3992.425	2782
3994.017	2803
3995.607	2791
3997.199	2798
3998.79	2802
4000.382	2816
4001.973	2829
4003.561	2798
4005.151	2784
4006.741	2744
4008.331	2789
4009.918	2767
4011.507	2778
4013.095	2781
4014.681	2707
4016.269	2820
4017.856	2642
4019.443	2739
4021.028	2765
4022.614	2702
4024.199	2738
4025.785	2736
4027.37	2714
4028.953	2703
4030.536	2673
4032.12	2730
4033.704	2718
4035.287	2717
4036.869	2720
4038.45	2719
4040.032	2769
4041.613	2762
4043.195	2736
4044.776	2712
4046.356	2685
4047.935	2743
4049.515	2683
4051.095	2668
4052.674	2679
4054.251	2716
4055.829	2691
4057.406	2671
4058.985	2662
4060.562	2744
4062.139	2630
4063.715	2702
4065.29	2610
4066.865	2677
4068.442	2702
4070.016	2637
4071.59	2664
4073.164	2670
4074.738	2667
4076.312	2642
4077.885	2604
4079.458	2721
4081.03	2656
4082.602	2702
4084.173	2645
4085.745	2640
4087.315	2617
4088.886	2622
4090.456	2646
4092.026	2681
4093.596	2616
4095.165	2660
4096.734	2629
4098.301	2641
4099.869	2602
4101.437	2577
4103.006	2554
4104.572	2616
4106.139	2703
4107.704	2588
4109.27	2576
4110.837	2603
4112.401	2653
4113.966	2578
4115.53	2591
4117.094	2606
4118.659	2553
4120.223	2588
4121.785	2603
4123.347	2585
4124.909	2560
4126.471	2548
4128.034	2526
4129.595	2593
4131.155	2520
4132.716	2579
4134.275	2564
4135.836	2539
4137.395	2540
4138.955	2609
4140.513	2596
4142.071	2556
4143.628	2568
4145.188	2559
4146.745	2538
4148.302	2505
4149.858	2528
4151.414	2479
4152.971	2497
4154.526	2591
4156.081	2577
4157.635	2518
4159.189	2449
4160.745	2567
4162.298	2515
4163.852	2515
4165.405	2590
4166.957	2529
4168.51	2483
4170.063	2456
4171.614	2557
4173.166	2529
4174.717	2518
4176.267	2462
4177.817	2524
4179.368	2430
4180.917	2496
4182.466	2417
4184.016	2470
4185.564	2459
4187.112	2438
4188.66	2490
4190.207	2423
4191.754	2404
4193.301	2473
4194.848	2466
4196.394	2415
4197.94	2430
4199.484	2459
4201.03	2449
4202.575	2424
4204.12	2468
4205.663	2480
4207.207	2433
4208.75	2393
4210.292	2474
4211.836	2414
4213.378	2383
4214.92	2440
4216.46	2494
4218.002	2342
4219.544	2415
4221.083	2396
4222.625	2428
4224.164	2405
4225.703	2423
4227.244	2406
4228.782	2367
4230.32	2349
4231.857	2390
4233.395	2384
4234.933	2417
4236.471	2371
4238.007	2426
4239.542	2410
4241.078	2368
4242.614	2392
4244.15	2404
4245.685	2414
4247.219	2321
4248.753	2362
4250.287	2371
4251.82	2383
4253.354	2323
4254.887	2307
4256.419	2352
4257.951	2367
4259.483	2389
4261.016	2362
4262.547	2353
4264.078	2383
4265.608	2333
4267.137	2373
4268.668	2355
4270.197	2322
4271.727	2389
4273.254	2392
4274.783	2373
4276.311	2303
4277.84	2332
4279.366	2349
4280.894	2311
4282.42	2380
4283.946	2383
4285.473	2421
4286.998	2272
4288.523	2314
4290.047	2322
4291.572	2308
4293.096	2299
4294.622	2390
4296.144	2300
4297.668	2329
4299.19	2389
4300.713	2336
4302.236	2246
4303.758	2272
4305.279	2275
4306.799	2364
4308.321	2260
4309.842	2276
4311.361	2302
4312.882	2211
4314.401	2271
