400.0961	2967
402.6185	3044
405.1424	2972
407.6635	2956
410.1838	2921
412.7035	2968
415.2225	3059
417.7388	3006
420.2585	3030
422.7754	3058
425.2917	3207
427.8072	3089
430.3221	3174
432.8363	3175
435.3498	3170
437.8626	3189
440.3727	3135
442.8841	3142
445.3969	3181
447.907	3112
450.4142	3160
452.9229	3164
455.4289	3201
457.9362	3109
460.4449	3144
462.9488	3141
465.454	3130
467.9566	3121
470.4604	3134
472.9637	3184
475.4662	3214
477.966	3173
480.4671	3106
482.9656	3113
485.4633	3203
487.9645	3120
490.4608	3187
492.9566	3211
495.4536	3177
497.948	3201
500.4437	3227
502.9387	3210
505.431	3132
507.9226	3213
510.4136	3222
512.9079	3193
515.3975	3197
517.8864	3177
520.3746	3206
522.8622	3243
525.3491	3260
527.8394	3202
530.3249	3241
532.8098	3188
535.2939	3353
537.7774	3242
540.2623	3228
542.7444	3285
545.2259	3263
547.7067	3230
550.1868	3173
552.6683	3303
555.147	3241
557.6231	3273
560.1005	3255
562.5773	3298
565.0534	3297
567.5308	3388
570.0056	3307
572.4776	3359
574.951	3291
577.4237	3323
579.8978	3407
582.3671	3470
584.8378	3356
587.3079	3437
589.7773	3504
592.244	3455
594.714	3370
597.1793	3368
599.6461	3415
602.1121	3418
604.5754	3374
607.0421	3422
609.5042	3422
611.9675	3403
614.4282	3438
616.8902	3408
619.3515	3309
621.8122	3372
624.2702	3340
626.7296	3416
629.1863	3350
631.6423	3303
634.1017	3251
636.5563	3369
639.0104	3323
641.4658	3430
643.9185	3389
646.3725	3251
648.8239	3343
651.2766	3390
653.7266	3345
656.176	3381
658.6247	3335
661.0748	3349
663.5242	3386
665.9709	3437
668.417	3413
670.8624	3434
673.3092	3513
675.7533	3365
678.1968	3455
680.6395	3422
683.0817	3465
685.5251	3439
687.9659	3483
690.4061	3454
692.8456	3449
695.2844	3484
697.7226	3483
700.1621	3520
702.599	3463
705.0332	3435
707.4688	3591
709.9036	3521
712.3399	3580
714.7735	3450
717.2044	3497
719.6367	3491
722.0683	3534
724.4993	3554
726.9296	3623
729.3593	3515
731.7883	3552
734.2147	3589
736.6423	3506
739.0714	3601
741.4958	3527
743.9216	3607
746.3447	3566
748.7691	3658
751.1929	3635
753.616	3656
756.0366	3642
758.4584	3711
760.8776	3721
763.2982	3767
765.718	3729
768.1373	3638
770.5539	3655
772.9698	3731
775.3871	3642
777.8038	3651
780.2178	3672
782.6332	3707
785.0459	3652
787.458	3612
789.8714	3727
792.2842	3791
794.6943	3678
797.1038	3675
799.5127	3770
801.9209	3745
804.3324	3642
806.7393	3835
809.1456	3697
811.5513	3729
813.9562	3746
816.3625	3757
818.7663	3689
821.1693	3794
823.5718	3740
825.9735	3665
828.3746	3775
830.7771	3724
833.177	3774
835.5762	3833
837.9747	3734
840.3727	3684
842.772	3847
845.1666	3810
847.5626	3862
849.958	3808
852.3527	3860
854.7488	3779
857.1403	3918
859.5331	3908
861.9253	3827
864.3168	3833
866.7057	3800
869.098	3874
871.4876	3826
873.8746	3776
876.263	3847
878.6487	3792
881.0378	3890
883.4243	3851
885.8081	3830
888.1933	3895
890.5759	3827
892.9598	3832
895.343	3755
897.7256	3856
900.1057	3780
902.4871	3843
904.8659	3772
907.246	3742
909.6254	3849
912.0023	3884
914.3786	3939
916.7562	3921
919.1331	4023
921.5074	4005
923.8831	4074
926.2562	4015
928.6287	4003
931.0005	4058
933.3757	4083
935.7462	4079
938.1162	4076
940.4855	4148
942.8542	4112
945.2242	4307
947.5916	4242
949.9584	4472
952.3266	4463
954.6921	4666
957.0571	4855
959.4233	5059
961.787	5040
964.15	5237
966.5125	4980
968.8742	4789
971.2354	4600
973.5959	4444
975.9559	4250
978.3151	4123
980.6738	4063
983.0338	4045
985.3912	4032
987.7461	3917
990.1022	3993
992.4578	3930
994.8127	3987
997.1689	3947
999.5207	4007
1001.874	4032
1004.226	4048
1006.576	4002
1008.929	4061
1011.28	4063
1013.628	3964
1015.977	4037
1018.324	3953
1020.674	3988
1023.019	3887
1025.366	4059
1027.713	4096
1030.056	4021
1032.399	3973
1034.746	4145
1037.087	4005
1039.431	4049
1041.771	4121
1044.113	4134
1046.454	4122
1048.793	4058
1051.133	4039
1053.471	4067
1055.807	4132
1058.146	4095
1060.483	4140
1062.818	4096
1065.153	4187
1067.489	4164
1069.822	4235
1072.156	4188
1074.488	4248
1076.82	4135
1079.15	4139
1081.48	4147
1083.814	4100
1086.143	4115
1088.471	4106
1090.799	4081
1093.126	4096
1095.452	4139
1097.78	4035
1100.105	4104
1102.43	4113
1104.754	4140
1107.077	4058
1109.4	4077
1111.722	4115
1114.044	4087
1116.365	4136
1118.685	4081
1121.005	4070
1123.324	4076
1125.643	4096
1127.961	4096
1130.278	4017
1132.595	4047
1134.911	4035
1137.226	4051
1139.541	4036
1141.854	4027
1144.167	4103
1146.482	4030
1148.793	4048
1151.105	4215
1153.414	4068
1155.725	4089
1158.033	3979
1160.344	4131
1162.651	4091
1164.959	4091
1167.265	4062
1169.572	4140
1171.878	4021
1174.184	4111
1176.488	4210
1178.79	4105
1181.094	4161
1183.396	4109
1185.699	4070
1188.001	4127
1190.301	3969
1192.6	4121
1194.9	4121
1197.2	4081
1199.497	4090
1201.794	4088
1204.09	4036
1206.387	4122
1208.684	4046
1210.978	4087
1213.272	4218
1215.565	4002
1217.858	4103
1220.15	4093
1222.443	4143
1224.734	4097
1227.024	4157
1229.313	4076
1231.602	4151
1233.892	4139
1236.18	4228
1238.467	4253
1240.754	4313
1243.04	4289
1245.325	4231
1247.612	4350
1249.896	4301
1252.178	4240
1254.461	4283
1256.743	4318
1259.027	4287
1261.308	4333
1263.587	4342
1265.867	4298
1268.146	4349
1270.425	4352
1272.703	4267
1274.981	4313
1277.256	4305
1279.532	4346
1281.808	4199
1284.083	4214
1286.358	4320
1288.63	4336
1290.904	4262
1293.175	4230
1295.449	4251
1297.719	4231
1299.99	4194
1302.259	4202
1304.529	4207
1306.798	4332
1309.065	4245
1311.333	4236
1313.599	4178
1315.866	4215
1318.131	4267
1320.396	4299
1322.66	4189
1324.925	4225
1327.187	4254
1329.448	4217
1331.711	4291
1333.974	4215
1336.234	4130
1338.493	4283
1340.752	4242
1343.01	4271
1345.269	4237
1347.526	4258
1349.784	4200
1352.04	4282
1354.295	4184
1356.552	4179
1358.806	4170
1361.059	4320
1363.312	4275
1365.564	4167
1367.818	4261
1370.069	4202
1372.318	4260
1374.568	4207
1376.817	4371
1379.066	4258
1381.316	4242
1383.564	4291
1385.809	4272
1388.056	4344
1390.301	4278
1392.549	4337
1394.793	4362
1397.036	4357
1399.279	4334
1401.522	4300
1403.763	4391
1406.007	4364
1408.248	4435
1410.487	4305
1412.727	4409
1414.965	4338
1417.205	4446
1419.442	4390
1421.68	4332
1423.915	4512
1426.152	4459
1428.388	4300
1430.623	4275
1432.857	4385
1435.091	4407
1437.323	4357
1439.556	4414
1441.789	4496
1444.019	4365
1446.25	4494
1448.48	4484
1450.708	4511
1452.938	4480
1455.167	4534
1457.394	4490
1459.62	4487
1461.846	4552
1464.073	4358
1466.299	4557
1468.523	4403
1470.746	4391
1472.969	4390
1475.191	4390
1477.415	4370
1479.636	4374
1481.858	4334
1484.078	4322
1486.298	4330
1488.518	4274
1490.736	4247
1492.954	4263
1495.169	4253
1497.386	4290
1499.602	4263
1501.819	4225
1504.034	4188
1506.248	4256
1508.462	4255
1510.675	4248
1512.888	4180
1515.1	4270
1517.311	4286
1519.522	4259
1521.732	4311
1523.942	4192
1526.151	4241
1528.36	4251
1530.566	4365
1532.773	4236
1534.98	4293
1537.187	4180
1539.392	4283
1541.596	4307
1543.801	4312
1546.005	4240
1548.208	4301
1550.411	4347
1552.612	4346
1554.814	4297
1557.013	4338
1559.212	4268
1561.414	4313
1563.612	4333
1565.811	4361
1568.007	4348
1570.203	4386
1572.403	4379
1574.598	4332
1576.792	4383
1578.988	4374
1581.181	4406
1583.376	4447
1585.568	4387
1587.761	4471
1589.952	4431
1592.143	4377
1594.333	4365
1596.524	4408
1598.715	4411
1600.903	4434
1603.091	4368
1605.278	4340
1607.466	4319
1609.652	4457
1611.838	4439
1614.023	4457
1616.207	4411
1618.391	4478
1620.576	4360
1622.759	4398
1624.941	4487
1627.123	4360
1629.304	4545
1631.484	4377
1633.664	4469
1635.844	4520
1638.022	4491
1640.201	4440
1642.38	4515
1644.556	4581
1646.732	4504
1648.908	4438
1651.084	4457
1653.257	4505
1655.433	4480
1657.607	4535
1659.779	4553
1661.951	4465
1664.122	4512
1666.295	4553
1668.467	4546
1670.635	4532
1672.805	4590
1674.973	4589
1677.142	4501
1679.31	4538
1681.478	4553
1683.644	4526
1685.81	4494
1687.975	4582
1690.142	4482
1692.305	4532
1694.468	4466
1696.632	4409
1698.794	4511
1700.957	4475
1703.119	4422
1705.279	4450
1707.439	4373
1709.598	4461
1711.758	4355
1713.917	4310
1716.075	4472
1718.231	4328
1720.388	4392
1722.543	4392
1724.702	4356
1726.856	4419
1729.01	4362
1731.164	4399
1733.317	4434
1735.471	4399
1737.623	4403
1739.774	4445
1741.925	4345
1744.075	4444
1746.225	4441
1748.376	4416
1750.524	4367
1752.672	4405
1754.82	4351
1756.965	4460
1759.113	4399
1761.259	4514
1763.405	4499
1765.549	4396
1767.694	4408
1769.836	4472
1771.981	4469
1774.123	4388
1776.264	4432
1778.405	4362
1780.546	4489
1782.687	4460
1784.827	4494
1786.966	4447
1789.103	4467
1791.242	4498
1793.381	4432
1795.517	4474
1797.653	4400
1799.788	4461
1801.923	4435
1804.057	4547
1806.193	4477
1808.326	4531
1810.457	4436
1812.59	4400
1814.721	4416
1816.855	4385
1818.984	4393
1821.113	4422
1823.244	4380
1825.372	4489
1827.499	4386
1829.63	4489
1831.756	4438
1833.882	4462
1836.007	4430
1838.132	4408
1840.26	4470
1842.384	4432
1844.507	4391
1846.63	4457
1848.752	4401
1850.875	4486
1852.996	4340
1855.118	4375
1857.238	4375
1859.358	4513
1861.477	4321
1863.597	4434
1865.715	4434
1867.832	4353
1869.948	4347
1872.064	4415
1874.181	4420
1876.297	4528
1878.411	4476
1880.526	4398
1882.639	4471
1884.752	4333
1886.865	4530
1888.977	4394
1891.089	4451
1893.2	4440
1895.308	4376
1897.42	4420
1899.53	4545
1901.639	4441
1903.745	4474
1905.853	4413
1907.962	4594
1910.067	4521
1912.174	4403
1914.278	4453
1916.383	4444
1918.486	4517
1920.592	4444
1922.694	4472
1924.797	4510
1926.898	4495
1929	4616
1931.102	4527
1933.203	4413
1935.301	4573
1937.401	4533
1939.499	4493
1941.598	4430
1943.697	4466
1945.793	4432
1947.888	4486
1949.985	4528
1952.08	4529
1954.176	4545
1956.269	4540
1958.364	4471
1960.457	4476
1962.549	4441
1964.642	4523
1966.733	4526
1968.823	4455
1970.913	4449
1973.005	4432
1975.093	4472
1977.184	4446
1979.271	4491
1981.359	4457
1983.446	4469
1985.532	4435
1987.619	4476
1989.705	4452
1991.789	4467
1993.874	4494
1995.956	4462
1998.041	4453
2000.123	4379
2002.206	4485
2004.287	4451
2006.368	4498
2008.449	4456
2010.529	4453
2012.609	4475
2014.688	4446
2016.766	4421
2018.843	4439
2020.922	4435
2022.999	4479
2025.074	4439
2027.15	4480
2029.225	4441
2031.299	4442
2033.375	4523
2035.447	4464
2037.52	4397
2039.592	4431
2041.664	4512
2043.736	4484
2045.807	4394
2047.876	4492
2049.947	4469
2052.015	4389
2054.086	4515
2056.153	4520
2058.221	4430
2060.288	4390
2062.353	4482
2064.42	4407
2066.486	4465
2068.55	4440
2070.614	4505
2072.678	4447
2074.741	4455
2076.805	4492
2078.866	4469
2080.929	4536
2082.99	4481
2085.049	4618
2087.109	4513
2089.17	4448
2091.228	4505
2093.286	4464
2095.344	4534
2097.4	4526
2099.46	4373
2101.516	4442
2103.572	4430
2105.626	4510
2107.679	4488
2109.735	4439
2111.788	4446
2113.841	4450
2115.894	4474
2117.945	4482
2119.997	4367
2122.049	4430
2124.1	4484
2126.148	4423
2128.197	4477
2130.246	4430
2132.296	4508
2134.342	4540
2136.39	4465
2138.437	4418
2140.483	4495
2142.527	4371
2144.574	4415
2146.619	4386
2148.661	4476
2150.705	4356
2152.747	4412
2154.792	4366
2156.832	4356
2158.874	4376
2160.915	4336
2162.954	4350
2164.995	4470
2167.034	4425
2169.072	4335
2171.111	4354
2173.148	4388
2175.186	4359
2177.223	4387
2179.258	4431
2181.294	4384
2183.328	4398
2185.362	4382
2187.398	4362
2189.431	4370
2191.463	4374
2193.495	4374
2195.528	4501
2197.56	4346
2199.59	4375
2201.62	4288
2203.649	4354
2205.678	4301
2207.708	4361
2209.737	4292
2211.764	4478
2213.791	4294
2215.817	4360
2217.843	4301
2219.87	4412
2221.895	4351
2223.919	4333
2225.942	4373
2227.966	4366
2229.988	4305
2232.012	4362
2234.032	4293
2236.054	4369
2238.074	4391
2240.095	4381
2242.116	4368
2244.135	4480
2246.153	4330
2248.171	4385
2250.188	4389
2252.208	4319
2254.223	4384
2256.239	4360
2258.255	4369
2260.269	4301
2262.283	4444
2264.3	4355
2266.312	4215
2268.325	4328
2270.336	4257
2272.349	4396
2274.362	4398
2276.372	4321
2278.383	4403
2280.392	4365
2282.402	4441
2284.409	4358
2286.418	4335
2288.427	4342
2290.433	4282
2292.441	4364
2294.446	4330
2296.453	4355
2298.459	4371
2300.463	4281
2302.466	4314
2304.471	4288
2306.475	4283
2308.477	4317
2310.478	4321
2312.481	4372
2314.481	4308
2316.481	4362
2318.482	4349
2320.482	4318
2322.48	4328
2324.48	4297
2326.478	4291
2328.476	4338
2330.473	4366
2332.469	4276
2334.465	4341
2336.46	4300
2338.454	4280
2340.45	4306
2342.444	4290
2344.437	4183
2346.43	4365
2348.421	4238
2350.414	4230
2352.405	4288
2354.396	4284
2356.386	4256
2358.376	4328
2360.366	4171
2362.355	4246
2364.343	4283
2366.331	4282
2368.317	4333
2370.304	4285
2372.292	4209
2374.278	4289
2376.262	4276
2378.247	4171
2380.23	4275
2382.216	4224
2384.199	4313
2386.181	4207
2388.163	4206
2390.144	4221
2392.127	4267
2394.107	4227
2396.087	4226
2398.066	4312
2400.046	4201
2402.023	4232
2404.004	4217
2405.981	4137
2407.957	4216
2409.934	4175
2411.91	4193
2413.886	4213
2415.862	4150
2417.836	4169
2419.809	4249
2421.784	4183
2423.756	4241
2425.73	4159
2427.701	4235
2429.672	4184
2431.644	4169
2433.615	4214
2435.586	4274
2437.555	4120
2439.523	4177
2441.491	4125
2443.459	4166
2445.428	4207
2447.395	4162
2449.361	4161
2451.327	4150
2453.292	4102
2455.257	4147
2457.223	4255
2459.187	4210
2461.15	4286
2463.113	4185
2465.076	4238
2467.039	4175
2468.999	4191
2470.96	4101
2472.921	4175
2474.881	4251
2476.841	4159
2478.8	4145
2480.759	4059
2482.717	4132
2484.675	4273
2486.63	4130
2488.589	4094
2490.545	4179
2492.5	4225
2494.455	4127
2496.408	4138
2498.364	4100
2500.318	4018
2502.27	4184
2504.223	4111
2506.174	4132
2508.126	4230
2510.078	4087
2512.03	4094
2513.979	4199
2515.927	4183
2517.877	4144
2519.826	4244
2521.775	4071
2523.722	4141
2525.668	4096
2527.616	4087
2529.561	4089
2531.508	4110
2533.452	4053
2535.398	4127
2537.342	4155
2539.284	4130
2541.229	4181
2543.173	4194
2545.114	4133
2547.055	4128
2548.996	4161
2550.938	4094
2552.878	4148
2554.817	4123
2556.756	4161
2558.695	4149
2560.633	4155
2562.572	4141
2564.509	4078
2566.445	4076
2568.382	4136
2570.317	4126
2572.254	4107
2574.189	4138
2576.123	4138
2578.057	4164
2579.99	4160
2581.923	4144
2583.855	4123
2585.788	4163
2587.719	4041
2589.65	4173
2591.579	4095
2593.511	4022
2595.44	4178
2597.37	4031
2599.297	4172
2601.225	4100
2603.153	4108
2605.08	4172
2607.007	4163
2608.932	4075
2610.858	4158
2612.782	4066
2614.709	4105
2616.632	4136
2618.556	4089
2620.478	4157
2622.401	4125
2624.324	4123
2626.247	4084
2628.167	4216
2630.088	4229
2632.008	4125
2633.928	4092
2635.848	4148
2637.766	4172
2639.684	4198
2641.603	4110
2643.519	4074
2645.437	4123
2647.353	4163
2649.27	4081
2651.184	4149
2653.099	4147
2655.014	4100
2656.928	4151
2658.842	4221
2660.755	4178
2662.667	4129
2664.579	4130
2666.491	4120
2668.402	4122
2670.312	4086
2672.222	4014
2674.132	4137
2676.042	4063
2677.951	4059
2679.859	4118
2681.766	4121
2683.674	4140
2685.582	4068
2687.488	4069
2689.392	4063
2691.298	4148
2693.202	4104
2695.107	4069
2697.012	4081
2698.914	4130
2700.817	3978
2702.72	4167
2704.622	4139
2706.524	4031
2708.425	4022
2710.326	3938
2712.225	4056
2714.125	4059
2716.024	3994
2717.923	4102
2719.822	4053
2721.719	4064
2723.616	4020
2725.512	4048
2727.41	4050
2729.305	3986
2731.201	4154
2733.095	4075
2734.99	4151
2736.884	3985
2738.778	4061
2740.67	4015
2742.562	4045
2744.455	4115
2746.346	4141
2748.238	3966
2750.129	4043
2752.018	4063
2753.907	4063
2755.797	4046
2757.687	3949
2759.575	3991
2761.462	4093
2763.349	3907
2765.237	3964
2767.124	4124
2769.009	4029
2770.894	3997
2772.779	4020
2774.663	3970
2776.547	4085
2778.431	4006
2780.314	4068
2782.197	4046
2784.078	4023
2785.96	3994
2787.842	4092
2789.723	4054
2791.603	3995
2793.483	4057
2795.362	4026
2797.241	4017
2799.121	4030
2800.997	4106
2802.874	3978
2804.751	4026
2806.628	4004
2808.506	3985
2810.38	3934
2812.255	3956
2814.13	3992
2816.003	4037
2817.878	3905
2819.752	3989
2821.623	4024
2823.496	3941
2825.368	4032
2827.238	3942
2829.111	3980
2830.98	3963
2832.851	3973
2834.719	4030
2836.589	3994
2838.458	4003
2840.327	3944
2842.193	3946
2844.061	4054
2845.927	3910
2847.794	4005
2849.66	3971
2851.525	3988
2853.39	4093
2855.254	4070
2857.117	4119
2858.983	4130
2860.845	4039
2862.707	4056
2864.569	4117
2866.431	4138
2868.293	4186
2870.154	4219
2872.013	4215
2873.873	4174
2875.733	4214
2877.592	4299
2879.451	4275
2881.309	4281
2883.166	4314
2885.022	4435
2886.879	4366
2888.736	4429
2890.591	4437
2892.446	4397
2894.301	4404
2896.155	4430
2898.009	4501
2899.863	4427
2901.716	4368
2903.568	4381
2905.419	4425
2907.27	4378
2909.123	4333
2910.973	4400
2912.824	4495
2914.673	4517
2916.521	4465
2918.372	4449
2920.22	4652
2922.067	4633
2923.914	4557
2925.761	4694
2927.607	4728
2929.455	4686
2931.301	4663
2933.144	4820
2934.99	4706
2936.833	4748
2938.678	4907
2940.522	4903
2942.364	4896
2944.207	5045
2946.048	4958
2947.891	5039
2949.731	5024
2951.571	5019
2953.412	4968
2955.25	4921
2957.09	4833
2958.93	4773
2960.767	4868
2962.606	4742
2964.443	4770
2966.279	4652
2968.116	4606
2969.953	4563
2971.788	4642
2973.623	4524
2975.457	4443
2977.292	4558
2979.127	4457
2980.959	4508
2982.792	4362
2984.624	4519
2986.455	4420
2988.288	4375
2990.119	4342
2991.949	4334
2993.779	4340
2995.608	4249
2997.439	4343
2999.268	4242
3001.096	4209
3002.923	4191
3004.751	4146
3006.578	4106
3008.406	4049
3010.232	4074
3012.057	4049
3013.883	4054
3015.706	3974
3017.532	3862
3019.356	4004
3021.179	3931
3023.002	3894
3024.823	3937
3026.646	3929
3028.469	3793
3030.289	3943
3032.11	3817
3033.93	3803
3035.749	3984
3037.57	3790
3039.39	3862
3041.207	3839
3043.026	3813
3044.842	3890
3046.661	3692
3048.477	3802
3050.294	3788
3052.109	3938
3053.925	3856
3055.739	3731
3057.555	3868
3059.368	3773
3061.181	3821
3062.995	3833
3064.807	3798
3066.62	3761
3068.433	3830
3070.243	3838
3072.054	3843
3073.865	3736
3075.675	3797
3077.485	3783
3079.293	3749
3081.102	3769
3082.911	3794
3084.719	3787
3086.527	3686
3088.333	3772
3090.139	3694
3091.945	3691
3093.75	3853
3095.557	3711
3097.361	3683
3099.165	3731
3100.969	3729
3102.772	3691
3104.575	3776
3106.379	3677
3108.181	3667
3109.982	3659
3111.783	3643
3113.584	3680
3115.386	3664
3117.186	3668
3118.985	3698
3120.783	3614
3122.582	3682
3124.381	3665
3126.179	3618
3127.975	3720
3129.772	3577
3131.569	3756
3133.365	3632
3135.161	3577
3136.956	3645
3138.751	3573
3140.544	3627
3142.338	3604
3144.132	3564
3145.925	3540
3147.717	3682
3149.509	3612
3151.301	3581
3153.091	3571
3154.884	3634
3156.673	3593
3158.462	3514
3160.252	3576
3162.041	3610
3163.831	3611
3165.618	3648
3167.405	3626
3169.193	3558
3170.979	3657
3172.767	3608
3174.553	3508
3176.338	3622
3178.123	3567
3179.907	3604
3181.692	3574
3183.477	3570
3185.259	3483
3187.042	3563
3188.824	3590
3190.607	3561
3192.389	3607
3194.17	3529
3195.951	3620
3197.73	3543
3199.51	3623
3201.289	3575
3203.07	3630
3204.848	3534
3206.626	3620
3208.403	3589
3210.18	3631
3211.959	3590
3213.735	3590
3215.511	3632
3217.285	3532
3219.06	3675
3220.836	3618
3222.611	3551
3224.384	3530
3226.158	3580
3227.929	3570
3229.702	3505
3231.476	3641
3233.248	3608
3235.018	3549
3236.789	3509
3238.56	3568
3240.33	3528
3242.1	3525
3243.869	3563
3245.637	3576
3247.405	3532
3249.172	3628
3250.941	3579
3252.707	3517
3254.474	3602
3256.24	3516
3258.006	3536
3259.772	3591
3261.537	3577
3263.301	3581
3265.065	3582
3266.828	3590
3268.592	3584
3270.355	3487
3272.117	3700
3273.878	3646
3275.64	3578
3277.401	3601
3279.162	3507
3280.922	3558
3282.682	3542
3284.441	3556
3286.199	3585
3287.959	3524
3289.716	3577
3291.475	3693
3293.232	3529
3294.988	3566
3296.744	3546
3298.501	3606
3300.256	3554
3302.011	3579
3303.766	3546
3305.52	3524
3307.275	3572
3309.028	3645
3310.781	3624
3312.533	3609
3314.285	3596
3316.038	3560
3317.789	3555
3319.54	3533
3321.289	3550
3323.039	3514
3324.789	3526
3326.539	3561
3328.288	3602
3330.035	3610
3331.783	3510
3333.531	3495
3335.28	3609
3337.025	3557
3338.771	3506
3340.518	3499
3342.262	3485
3344.009	3539
3345.753	3612
3347.497	3491
3349.24	3445
3350.983	3536
3352.726	3537
3354.469	3508
3356.212	3389
3357.952	3568
3359.694	3494
3361.434	3517
3363.176	3518
3364.916	3594
3366.654	3504
3368.394	3527
3370.132	3435
3371.871	3500
3373.61	3554
3375.346	3463
3377.083	3432
3378.82	3452
3380.556	3511
3382.292	3446
3384.027	3495
3385.763	3540
3387.497	3416
3389.231	3398
3390.965	3433
3392.698	3483
3394.431	3455
3396.164	3379
3397.896	3436
3399.627	3397
3401.36	3415
3403.09	3384
3404.82	3420
3406.55	3426
3408.279	3380
3410.01	3481
3411.738	3434
3413.467	3459
3415.194	3425
3416.92	3345
3418.647	3399
3420.375	3490
3422.102	3371
3423.827	3393
3425.553	3371
3427.277	3375
3429.003	3282
3430.727	3393
3432.451	3390
3434.173	3296
3435.896	3405
3437.62	3323
3439.343	3368
3441.063	3313
3442.785	3348
3444.505	3325
3446.226	3325
3447.948	3404
3449.666	3366
3451.386	3360
3453.104	3337
3454.823	3423
3456.541	3311
3458.259	3290
3459.976	3256
3461.693	3348
3463.408	3307
3465.125	3261
3466.841	3335
3468.556	3311
3470.271	3255
3471.985	3221
3473.698	3314
3475.414	3256
3477.126	3232
3478.838	3308
3480.55	3251
3482.263	3241
3483.975	3122
3485.686	3260
3487.396	3132
3489.106	3199
3490.817	3216
3492.526	3264
3494.236	3129
3495.944	3228
3497.652	3153
3499.359	3176
3501.066	3224
3502.775	3213
3504.481	3202
3506.187	3197
3507.893	3246
3509.598	3166
3511.304	3260
3513.009	3235
3514.713	3188
3516.417	3111
3518.12	3095
3519.821	3216
3521.525	3142
3523.228	3225
3524.929	3166
3526.631	3114
3528.33	3112
3530.032	3170
3531.733	3120
3533.433	3160
3535.131	3055
3536.83	3139
3538.529	3159
3540.227	3121
3541.925	3065
3543.623	3061
3545.319	3096
3547.016	3042
3548.712	3088
3550.408	3125
3552.103	3050
3553.798	3102
3555.491	3051
3557.188	3057
3558.88	3154
3560.574	3053
3562.266	3063
3563.959	3058
3565.651	3001
3567.343	3068
3569.035	3050
3570.725	3006
3572.415	3059
3574.106	3021
3575.797	3110
3577.485	3059
3579.174	3129
3580.863	3013
3582.551	3012
3584.238	3031
3585.926	3057
3587.613	3041
3589.3	2987
3590.986	3074
3592.671	2976
3594.357	2977
3596.042	2958
3597.726	2975
3599.41	2905
3601.094	2984
3602.778	2950
3604.461	3013
3606.143	2939
3607.825	2990
3609.507	2973
3611.188	2921
3612.87	2889
3614.551	2993
3616.229	2963
3617.909	2911
3619.589	2845
3621.269	2929
3622.948	2955
3624.625	2951
3626.302	2936
3627.98	2935
3629.657	2926
3631.334	2878
3633.01	2893
3634.686	2860
3636.361	2828
3638.036	2965
3639.712	2823
3641.385	2924
3643.06	2860
3644.732	2848
3646.405	2927
3648.08	2848
3649.751	2759
3651.424	2874
3653.094	2882
3654.766	2866
3656.436	2853
3658.106	2862
3659.777	2857
3661.446	2880
3663.115	2846
3664.783	2872
3666.452	2845
3668.121	2847
3669.788	2793
3671.454	2764
3673.121	2828
3674.789	2821
3676.455	2776
3678.12	2868
3679.784	2791
3681.45	2780
3683.114	2766
3684.779	2844
3686.442	2862
3688.105	2810
3689.768	2755
3691.43	2795
3693.093	2786
3694.754	2809
3696.415	2762
3698.076	2767
3699.736	2749
3701.396	2837
3703.057	2807
3704.716	2783
3706.375	2758
3708.034	2779
3709.692	2788
3711.351	2753
3713.008	2697
3714.665	2739
3716.321	2769
3717.977	2704
3719.634	2769
3721.29	2712
3722.945	2716
3724.598	2662
3726.253	2781
3727.907	2789
3729.561	2744
3731.214	2707
3732.867	2710
3734.518	2765
3736.171	2771
3737.824	2760
3739.474	2731
3741.125	2738
3742.775	2739
3744.425	2721
3746.074	2668
3747.725	2725
3749.373	2765
3751.022	2701
3752.669	2649
3754.318	2784
3755.966	2708
3757.612	2717
3759.259	2679
3760.905	2704
3762.55	2699
3764.197	2727
3765.842	2766
3767.486	2625
3769.131	2696
3770.774	2643
3772.417	2707
3774.061	2754
3775.705	2676
3777.347	2717
3778.988	2634
3780.629	2646
3782.271	2727
3783.912	2689
3785.552	2659
3787.192	2629
3788.831	2655
3790.472	2661
3792.112	2574
3793.75	2775
3795.388	2569
3797.024	2689
3798.661	2614
3800.3	2606
3801.936	2604
3803.572	2671
3805.208	2529
3806.844	2633
3808.48	2628
3810.115	2612
3811.748	2639
3813.382	2609
3815.016	2585
3816.649	2616
3818.283	2599
3819.914	2608
3821.547	2615
3823.178	2544
3824.809	2626
3826.441	2667
3828.072	2616
3829.701	2531
3831.331	2591
3832.96	2574
3834.591	2496
3836.219	2559
3837.847	2566
3839.475	2567
3841.102	2543
3842.729	2532
3844.357	2567
3845.984	2531
3847.609	2533
3849.234	2576
3850.86	2603
3852.485	2589
3854.11	2578
3855.734	2561
3857.357	2566
3858.981	2558
3860.603	2576
3862.227	2461
3863.848	2525
3865.471	2557
3867.092	2544
3868.713	2542
3870.334	2556
3871.954	2553
3873.575	2490
3875.194	2525
3876.813	2506
3878.433	2492
3880.051	2466
3881.669	2572
3883.286	2570
3884.904	2589
3886.52	2554
3888.138	2531
3889.754	2454
3891.37	2513
3892.985	2483
3894.6	2536
3896.216	2531
3897.831	2486
3899.444	2449
3901.058	2556
3902.67	2518
3904.283	2531
3905.897	2457
3907.509	2510
3909.121	2576
3910.731	2545
3912.342	2501
3913.954	2530
3915.563	2514
3917.174	2461
3918.783	2443
3920.391	2423
3922.002	2547
3923.611	2477
3925.218	2505
3926.826	2426
3928.432	2550
3930.039	2431
3931.647	2435
3933.253	2444
3934.859	2459
3936.464	2347
3938.068	2469
3939.675	2455
3941.278	2459
3942.883	2476
3944.486	2532
3946.089	2487
3947.692	2374
3949.295	2439
3950.898	2476
3952.499	2513
3954.1	2391
3955.7	2493
3957.303	2439
3958.903	2429
3960.502	2461
3962.101	2475
3963.7	2396
3965.301	2363
3966.899	2420
3968.497	2409
3970.094	2390
3971.691	2454
3973.288	2397
3974.885	2430
3976.481	2405
3978.077	2460
3979.672	2421
3981.267	2264
3982.863	2423
3984.457	2402
3986.051	2367
3987.645	2443
3989.238	2385
3990.831	2351
3992.425	2378
3994.017	2380
3995.607	2398
3997.199	2363
3998.79	2351
4000.382	2369
4001.973	2369
4003.561	2276
4005.151	2402
4006.741	2331
4008.331	2386
4009.918	2320
4011.507	2306
4013.095	2364
4014.681	2327
4016.269	2299
4017.856	2307
4019.443	2411
4021.028	2332
4022.614	2355
4024.199	2335
4025.785	2293
4027.37	2307
4028.953	2330
4030.536	2320
4032.12	2364
4033.704	2319
4035.287	2344
4036.869	2327
4038.45	2283
4040.032	2281
4041.613	2342
4043.195	2320
4044.776	2302
4046.356	2256
4047.935	2301
4049.515	2281
4051.095	2264
4052.674	2264
4054.251	2283
4055.829	2343
4057.406	2252
4058.985	2299
4060.562	2260
4062.139	2207
4063.715	2198
4065.29	2298
4066.865	2258
4068.442	2282
4070.016	2276
4071.59	2222
4073.164	2193
4074.738	2237
4076.312	2268
4077.885	2290
4079.458	2293
4081.03	2224
4082.602	2301
4084.173	2272
4085.745	2241
4087.315	2242
4088.886	2247
4090.456	2238
4092.026	2302
4093.596	2197
4095.165	2226
4096.734	2219
4098.301	2199
4099.869	2237
4101.437	2186
4103.006	2225
4104.572	2189
4106.139	2259
4107.704	2212
4109.27	2185
4110.837	2211
4112.401	2258
4113.966	2213
4115.53	2242
4117.094	2157
4118.659	2184
4120.223	2229
4121.785	2222
4123.347	2212
4124.909	2222
4126.471	2218
4128.034	2255
4129.595	2184
4131.155	2199
4132.716	2142
4134.275	2225
4135.836	2162
4137.395	2216
4138.955	2156
4140.513	2216
4142.071	2175
4143.628	2173
4145.188	2175
4146.745	2173
4148.302	2165
4149.858	2159
4151.414	2117
4152.971	2191
4154.526	2090
4156.081	2136
4157.635	2153
4159.189	2163
4160.745	2072
4162.298	2133
4163.852	2081
4165.405	2154
4166.957	2109
4168.51	2172
4170.063	2134
4171.614	2109
4173.166	2107
4174.717	2142
4176.267	2077
4177.817	2107
4179.368	2116
4180.917	2159
4182.466	2049
4184.016	2123
4185.564	2092
4187.112	2069
4188.66	2080
4190.207	2155
4191.754	2087
4193.301	2111
4194.848	2014
4196.394	2039
4197.94	2125
4199.484	2069
4201.03	2143
4202.575	2053
4204.12	2057
4205.663	2088
4207.207	2090
4208.75	2092
4210.292	2068
4211.836	2055
4213.378	2089
4214.92	2098
4216.46	2052
4218.002	2066
4219.544	2103
4221.083	2043
4222.625	2092
4224.164	2109
4225.703	2034
4227.244	2056
4228.782	2058
4230.32	2100
4231.857	2031
4233.395	2060
4234.933	2049
4236.471	2065
4238.007	2080
4239.542	2060
4241.078	2058
4242.614	2090
4244.15	1994
4245.685	2003
4247.219	2053
4248.753	2013
4250.287	2002
4251.82	2024
4253.354	2089
4254.887	1978
4256.419	2019
4257.951	1990
4259.483	1996
4261.016	2087
4262.547	2054
4264.078	2020
4265.608	2018
4267.137	2062
4268.668	2097
4270.197	2054
4271.727	2017
4273.254	1991
4274.783	2019
4276.311	1994
4277.84	1999
4279.366	1949
4280.894	1999
4282.42	2019
4283.946	1962
4285.473	1927
4286.998	2027
4288.523	1956
4290.047	2040
4291.572	1999
4293.096	1985
4294.622	1976
4296.144	1974
4297.668	1963
4299.19	1979
4300.713	1975
4302.236	2012
4303.758	1960
4305.279	1978
4306.799	2007
4308.321	1938
4309.842	1982
4311.361	1960
4312.882	1901
4314.401	1933
