400.0961	2340
402.6185	2314
405.1424	2329
407.6635	2325
410.1838	2378
412.7035	2366
415.2225	2339
417.7388	2348
420.2585	2352
422.7754	2367
425.2917	2395
427.8072	2460
430.3221	2445
432.8363	2460
435.3498	2457
437.8626	2484
440.3727	2436
442.8841	2416
445.3969	2416
447.907	2465
450.4142	2435
452.9229	2468
455.4289	2439
457.9362	2385
460.4449	2368
462.9488	2432
465.454	2410
467.9566	2366
470.4604	2429
472.9637	2424
475.4662	2437
477.966	2366
480.4671	2387
482.9656	2413
485.4633	2443
487.9645	2396
490.4608	2390
492.9566	2405
495.4536	2472
497.948	2439
500.4437	2387
502.9387	2387
505.431	2447
507.9226	2422
510.4136	2378
512.9079	2459
515.3975	2478
517.8864	2440
520.3746	2499
522.8622	2470
525.3491	2436
527.8394	2450
530.3249	2484
532.8098	2445
535.2939	2443
537.7774	2458
540.2623	2478
542.7444	2501
545.2259	2433
547.7067	2448
550.1868	2544
552.6683	2475
555.147	2552
557.6231	2530
560.1005	2485
562.5773	2510
565.0534	2554
567.5308	2509
570.0056	2491
572.4776	2562
574.951	2576
577.4237	2537
579.8978	2566
582.3671	2662
584.8378	2613
587.3079	2596
589.7773	2583
592.244	2678
594.714	2596
597.1793	2606
599.6461	2640
602.1121	2536
604.5754	2599
607.0421	2549
609.5042	2625
611.9675	2615
614.4282	2599
616.8902	2550
619.3515	2546
621.8122	2526
624.2702	2536
626.7296	2554
629.1863	2480
631.6423	2435
634.1017	2517
636.5563	2499
639.0104	2502
641.4658	2489
643.9185	2535
646.3725	2581
648.8239	2473
651.2766	2569
653.7266	2528
656.176	2557
658.6247	2563
661.0748	2571
663.5242	2557
665.9709	2555
668.417	2635
670.8624	2618
673.3092	2630
675.7533	2580
678.1968	2640
680.6395	2622
683.0817	2546
685.5251	2589
687.9659	2591
690.4061	2631
692.8456	2603
695.2844	2598
697.7226	2565
700.1621	2637
702.599	2611
705.0332	2573
707.4688	2640
709.9036	2596
712.3399	2589
714.7735	2656
717.2044	2649
719.6367	2670
722.0683	2625
724.4993	2681
726.9296	2630
729.3593	2728
731.7883	2720
734.2147	2703
736.6423	2652
739.0714	2720
741.4958	2688
743.9216	2739
746.3447	2714
748.7691	2687
751.1929	2766
753.616	2732
756.0366	2833
758.4584	2816
760.8776	2726
763.2982	2775
765.718	2758
768.1373	2775
770.5539	2763
772.9698	2790
775.3871	2799
777.8038	2758
780.2178	2710
782.6332	2838
785.0459	2719
787.458	2835
789.8714	2796
792.2842	2803
794.6943	2785
797.1038	2818
799.5127	2805
801.9209	2719
804.3324	2767
806.7393	2784
809.1456	2870
811.5513	2824
813.9562	2727
816.3625	2855
818.7663	2778
821.1693	2870
823.5718	2909
825.9735	2858
828.3746	2819
830.7771	2862
833.177	2840
835.5762	2834
837.9747	2856
840.3727	2878
842.772	2854
845.1666	2922
847.5626	2831
849.958	2962
852.3527	2861
854.7488	2954
857.1403	2965
859.5331	2928
861.9253	2963
864.3168	2881
866.7057	2894
869.098	2918
871.4876	2937
873.8746	2868
876.263	2899
878.6487	2913
881.0378	2907
883.4243	2962
885.8081	2933
888.1933	2938
890.5759	2926
892.9598	2955
895.343	2894
897.7256	2916
900.1057	2925
902.4871	2898
904.8659	2878
907.246	2906
909.6254	2963
912.0023	2962
914.3786	3048
916.7562	2985
919.1331	3044
921.5074	3116
923.8831	3032
926.2562	3087
928.6287	3131
931.0005	3044
933.3757	3085
935.7462	3082
938.1162	3149
940.4855	3118
942.8542	3135
945.2242	3230
947.5916	3311
949.9584	3425
952.3266	3553
954.6921	3737
957.0571	3979
959.4233	4013
961.787	4103
964.15	4068
966.5125	4061
968.8742	3753
971.2354	3577
973.5959	3398
975.9559	3250
978.3151	3258
980.6738	3094
983.0338	3060
985.3912	3128
987.7461	2992
990.1022	3071
992.4578	3011
994.8127	3040
997.1689	3041
999.5207	3071
1001.874	3068
1004.226	3040
1006.576	3182
1008.929	3033
1011.28	3080
1013.628	3024
1015.977	3047
1018.324	3112
1020.674	3027
1023.019	3101
1025.366	3052
1027.713	3126
1030.056	3119
1032.399	3140
1034.746	3158
1037.087	3086
1039.431	3166
1041.771	3126
1044.113	3115
1046.454	3146
1048.793	3177
1051.133	3090
1053.471	3125
1055.807	3140
1058.146	3074
1060.483	3167
1062.818	3147
1065.153	3175
1067.489	3176
1069.822	3181
1072.156	3162
1074.488	3230
1076.82	3193
1079.15	3192
1081.48	3169
1083.814	3124
1086.143	3119
1088.471	3071
1090.799	3090
1093.126	3160
1095.452	3117
1097.78	3083
1100.105	3104
1102.43	3128
1104.754	3107
1107.077	3064
1109.4	3135
1111.722	3091
1114.044	3169
1116.365	3141
1118.685	3052
1121.005	3095
1123.324	3079
1125.643	3122
1127.961	3130
1130.278	3155
1132.595	3056
1134.911	3127
1137.226	3111
1139.541	3017
1141.854	3090
1144.167	3077
1146.482	3070
1148.793	3037
1151.105	3137
1153.414	3084
1155.725	3088
1158.033	3166
1160.344	3122
1162.651	3067
1164.959	3155
1167.265	3110
1169.572	3054
1171.878	3040
1174.184	3123
1176.488	3154
1178.79	3143
1181.094	3134
1183.396	3123
1185.699	3117
1188.001	3179
1190.301	3077
1192.6	3181
1194.9	3055
1197.2	3128
1199.497	3148
1201.794	3132
1204.09	3117
1206.387	3121
1208.684	3124
1210.978	3151
1213.272	3098
1215.565	3073
1217.858	3180
1220.15	3221
1222.443	3085
1224.734	3168
1227.024	3180
1229.313	3145
1231.602	3143
1233.892	3177
1236.18	3165
1238.467	3268
1240.754	3303
1243.04	3384
1245.325	3247
1247.612	3323
1249.896	3289
1252.178	3259
1254.461	3312
1256.743	3331
1259.027	3314
1261.308	3258
1263.587	3296
1265.867	3363
1268.146	3284
1270.425	3325
1272.703	3318
1274.981	3337
1277.256	3254
1279.532	3265
1281.808	3282
1284.083	3261
1286.358	3263
1288.63	3222
1290.904	3186
1293.175	3264
1295.449	3228
1297.719	3242
1299.99	3211
1302.259	3249
1304.529	3208
1306.798	3263
1309.065	3245
1311.333	3256
1313.599	3190
1315.866	3162
1318.131	3217
1320.396	3280
1322.66	3150
1324.925	3249
1327.187	3205
1329.448	3289
1331.711	3302
1333.974	3254
1336.234	3217
1338.493	3234
1340.752	3206
1343.01	3282
1345.269	3231
1347.526	3288
1349.784	3205
1352.04	3327
1354.295	3256
1356.552	3273
1358.806	3274
1361.059	3172
1363.312	3141
1365.564	3228
1367.818	3153
1370.069	3250
1372.318	3310
1374.568	3251
1376.817	3239
1379.066	3226
1381.316	3288
1383.564	3263
1385.809	3279
1388.056	3278
1390.301	3340
1392.549	3244
1394.793	3361
1397.036	3305
1399.279	3311
1401.522	3341
1403.763	3393
1406.007	3445
1408.248	3381
1410.487	3325
1412.727	3285
1414.965	3446
1417.205	3379
1419.442	3375
1421.68	3427
1423.915	3327
1426.152	3395
1428.388	3383
1430.623	3365
1432.857	3359
1435.091	3366
1437.323	3375
1439.556	3340
1441.789	3369
1444.019	3382
1446.25	3450
1448.48	3417
1450.708	3466
1452.938	3518
1455.167	3519
1457.394	3462
1459.62	3424
1461.846	3350
1464.073	3485
1466.299	3340
1468.523	3436
1470.746	3418
1472.969	3346
1475.191	3379
1477.415	3365
1479.636	3317
1481.858	3322
1484.078	3279
1486.298	3281
1488.518	3270
1490.736	3274
1492.954	3235
1495.169	3219
1497.386	3275
1499.602	3269
1501.819	3360
1504.034	3256
1506.248	3233
1508.462	3269
1510.675	3227
1512.888	3187
1515.1	3208
1517.311	3255
1519.522	3215
1521.732	3300
1523.942	3214
1526.151	3200
1528.36	3268
1530.566	3173
1532.773	3358
1534.98	3239
1537.187	3209
1539.392	3260
1541.596	3266
1543.801	3264
1546.005	3317
1548.208	3199
1550.411	3252
1552.612	3278
1554.814	3217
1557.013	3190
1559.212	3251
1561.414	3264
1563.612	3207
1565.811	3305
1568.007	3316
1570.203	3273
1572.403	3347
1574.598	3345
1576.792	3338
1578.988	3314
1581.181	3388
1583.376	3376
1585.568	3364
1587.761	3394
1589.952	3325
1592.143	3350
1594.333	3396
1596.524	3377
1598.715	3404
1600.903	3347
1603.091	3327
1605.278	3348
1607.466	3341
1609.652	3312
1611.838	3327
1614.023	3459
1616.207	3401
1618.391	3435
1620.576	3429
1622.759	3431
1624.941	3378
1627.123	3401
1629.304	3512
1631.484	3386
1633.664	3440
1635.844	3423
1638.022	3513
1640.201	3509
1642.38	3534
1644.556	3431
1646.732	3502
1648.908	3453
1651.084	3460
1653.257	3486
1655.433	3450
1657.607	3510
1659.779	3508
1661.951	3458
1664.122	3461
1666.295	3444
1668.467	3555
1670.635	3504
1672.805	3634
1674.973	3531
1677.142	3431
1679.31	3522
1681.478	3479
1683.644	3494
1685.81	3482
1687.975	3451
1690.142	3435
1692.305	3343
1694.468	3415
1696.632	3441
1698.794	3475
1700.957	3401
1703.119	3437
1705.279	3416
1707.439	3443
1709.598	3412
1711.758	3329
1713.917	3334
1716.075	3298
1718.231	3359
1720.388	3327
1722.543	3293
1724.702	3384
1726.856	3285
1729.01	3441
1731.164	3326
1733.317	3306
1735.471	3308
1737.623	3307
1739.774	3397
1741.925	3469
1744.075	3299
1746.225	3349
1748.376	3416
1750.524	3293
1752.672	3447
1754.82	3368
1756.965	3461
1759.113	3271
1761.259	3370
1763.405	3405
1765.549	3385
1767.694	3442
1769.836	3409
1771.981	3397
1774.123	3397
1776.264	3385
1778.405	3364
1780.546	3420
1782.687	3386
1784.827	3457
1786.966	3411
1789.103	3397
1791.242	3478
1793.381	3392
1795.517	3332
1797.653	3412
1799.788	3411
1801.923	3424
1804.057	3475
1806.193	3409
1808.326	3416
1810.457	3421
1812.59	3373
1814.721	3380
1816.855	3307
1818.984	3387
1821.113	3411
1823.244	3438
1825.372	3416
1827.499	3421
1829.63	3390
1831.756	3361
1833.882	3397
1836.007	3367
1838.132	3374
1840.26	3376
1842.384	3390
1844.507	3391
1846.63	3446
1848.752	3282
1850.875	3397
1852.996	3340
1855.118	3350
1857.238	3425
1859.358	3407
1861.477	3303
1863.597	3353
1865.715	3293
1867.832	3414
1869.948	3405
1872.064	3361
1874.181	3355
1876.297	3315
1878.411	3309
1880.526	3325
1882.639	3446
1884.752	3330
1886.865	3390
1888.977	3408
1891.089	3390
1893.2	3354
1895.308	3353
1897.42	3354
1899.53	3443
1901.639	3380
1903.745	3368
1905.853	3355
1907.962	3414
1910.067	3407
1912.174	3426
1914.278	3421
1916.383	3383
1918.486	3372
1920.592	3371
1922.694	3405
1924.797	3425
1926.898	3438
1929	3536
1931.102	3396
1933.203	3397
1935.301	3371
1937.401	3441
1939.499	3461
1941.598	3388
1943.697	3428
1945.793	3403
1947.888	3456
1949.985	3419
1952.08	3389
1954.176	3485
1956.269	3486
1958.364	3399
1960.457	3492
1962.549	3363
1964.642	3448
1966.733	3367
1968.823	3450
1970.913	3470
1973.005	3427
1975.093	3435
1977.184	3413
1979.271	3426
1981.359	3455
1983.446	3411
1985.532	3374
1987.619	3466
1989.705	3432
1991.789	3420
1993.874	3451
1995.956	3462
1998.041	3393
2000.123	3406
2002.206	3366
2004.287	3367
2006.368	3421
2008.449	3426
2010.529	3419
2012.609	3369
2014.688	3404
2016.766	3390
2018.843	3357
2020.922	3464
2022.999	3437
2025.074	3361
2027.15	3351
2029.225	3430
2031.299	3376
2033.375	3423
2035.447	3318
2037.52	3393
2039.592	3440
2041.664	3400
2043.736	3463
2045.807	3414
2047.876	3402
2049.947	3486
2052.015	3403
2054.086	3420
2056.153	3399
2058.221	3457
2060.288	3409
2062.353	3375
2064.42	3321
2066.486	3439
2068.55	3349
2070.614	3355
2072.678	3418
2074.741	3418
2076.805	3455
2078.866	3437
2080.929	3419
2082.99	3392
2085.049	3459
2087.109	3486
2089.17	3383
2091.228	3400
2093.286	3417
2095.344	3428
2097.4	3411
2099.46	3413
2101.516	3399
2103.572	3413
2105.626	3422
2107.679	3390
2109.735	3375
2111.788	3433
2113.841	3414
2115.894	3442
2117.945	3451
2119.997	3452
2122.049	3366
2124.1	3423
2126.148	3333
2128.197	3366
2130.246	3382
2132.296	3452
2134.342	3457
2136.39	3403
2138.437	3449
2140.483	3372
2142.527	3399
2144.574	3456
2146.619	3397
2148.661	3428
2150.705	3417
2152.747	3447
2154.792	3381
2156.832	3430
2158.874	3401
2160.915	3318
2162.954	3365
2164.995	3426
2167.034	3325
2169.072	3389
2171.111	3414
2173.148	3422
2175.186	3427
2177.223	3349
2179.258	3350
2181.294	3412
2183.328	3299
2185.362	3343
2187.398	3363
2189.431	3403
2191.463	3407
2193.495	3412
2195.528	3366
2197.56	3401
2199.59	3311
2201.62	3349
2203.649	3370
2205.678	3372
2207.708	3255
2209.737	3506
2211.764	3367
2213.791	3369
2215.817	3404
2217.843	3253
2219.87	3394
2221.895	3329
2223.919	3338
2225.942	3363
2227.966	3266
2229.988	3297
2232.012	3424
2234.032	3442
2236.054	3340
2238.074	3368
2240.095	3367
2242.116	3333
2244.135	3311
2246.153	3288
2248.171	3277
2250.188	3270
2252.208	3386
2254.223	3373
2256.239	3392
2258.255	3306
2260.269	3342
2262.283	3319
2264.3	3334
2266.312	3379
2268.325	3360
2270.336	3263
2272.349	3382
2274.362	3292
2276.372	3388
2278.383	3354
2280.392	3345
2282.402	3348
2284.409	3346
2286.418	3370
2288.427	3379
2290.433	3375
2292.441	3337
2294.446	3352
2296.453	3255
2298.459	3404
2300.463	3378
2302.466	3378
2304.471	3303
2306.475	3363
2308.477	3271
2310.478	3288
2312.481	3346
2314.481	3312
2316.481	3291
2318.482	3383
2320.482	3323
2322.48	3374
2324.48	3329
2326.478	3254
2328.476	3295
2330.473	3353
2332.469	3294
2334.465	3368
2336.46	3351
2338.454	3211
2340.45	3316
2342.444	3273
2344.437	3317
2346.43	3292
2348.421	3396
2350.414	3239
2352.405	3343
2354.396	3328
2356.386	3402
2358.376	3338
2360.366	3307
2362.355	3244
2364.343	3292
2366.331	3346
2368.317	3296
2370.304	3304
2372.292	3342
2374.278	3287
2376.262	3247
2378.247	3311
2380.23	3313
2382.216	3326
2384.199	3258
2386.181	3339
2388.163	3250
2390.144	3334
2392.127	3265
2394.107	3244
2396.087	3246
2398.066	3314
2400.046	3270
2402.023	3294
2404.004	3310
2405.981	3312
2407.957	3234
2409.934	3265
2411.91	3289
2413.886	3272
2415.862	3269
2417.836	3249
2419.809	3368
2421.784	3339
2423.756	3273
2425.73	3337
2427.701	3245
2429.672	3238
2431.644	3295
2433.615	3342
2435.586	3266
2437.555	3316
2439.523	3185
2441.491	3329
2443.459	3345
2445.428	3295
2447.395	3315
2449.361	3262
2451.327	3278
2453.292	3338
2455.257	3231
2457.223	3257
2459.187	3237
2461.15	3266
2463.113	3257
2465.076	3240
2467.039	3193
2468.999	3236
2470.96	3192
2472.921	3261
2474.881	3239
2476.841	3236
2478.8	3347
2480.759	3248
2482.717	3225
2484.675	3292
2486.63	3279
2488.589	3260
2490.545	3273
2492.5	3189
2494.455	3292
2496.408	3155
2498.364	3245
2500.318	3244
2502.27	3243
2504.223	3228
2506.174	3221
2508.126	3334
2510.078	3273
2512.03	3359
2513.979	3225
2515.927	3186
2517.877	3300
2519.826	3111
2521.775	3219
2523.722	3270
2525.668	3202
2527.616	3209
2529.561	3226
2531.508	3245
2533.452	3221
2535.398	3232
2537.342	3214
2539.284	3179
2541.229	3126
2543.173	3212
2545.114	3141
2547.055	3273
2548.996	3208
2550.938	3153
2552.878	3291
2554.817	3264
2556.756	3200
2558.695	3271
2560.633	3233
2562.572	3157
2564.509	3208
2566.445	3254
2568.382	3184
2570.317	3208
2572.254	3197
2574.189	3192
2576.123	3312
2578.057	3187
2579.99	3286
2581.923	3193
2583.855	3326
2585.788	3200
2587.719	3183
2589.65	3273
2591.579	3163
2593.511	3219
2595.44	3277
2597.37	3239
2599.297	3280
2601.225	3163
2603.153	3262
2605.08	3213
2607.007	3240
2608.932	3264
2610.858	3257
2612.782	3349
2614.709	3218
2616.632	3201
2618.556	3265
2620.478	3214
2622.401	3292
2624.324	3241
2626.247	3148
2628.167	3246
2630.088	3235
2632.008	3282
2633.928	3204
2635.848	3273
2637.766	3263
2639.684	3199
2641.603	3274
2643.519	3213
2645.437	3255
2647.353	3177
2649.27	3248
2651.184	3241
2653.099	3299
2655.014	3147
2656.928	3264
2658.842	3238
2660.755	3139
2662.667	3209
2664.579	3180
2666.491	3261
2668.402	3232
2670.312	3289
2672.222	3217
2674.132	3210
2676.042	3153
2677.951	3247
2679.859	3255
2681.766	3251
2683.674	3196
2685.582	3141
2687.488	3161
2689.392	3227
2691.298	3215
2693.202	3182
2695.107	3132
2697.012	3218
2698.914	3223
2700.817	3232
2702.72	3184
2704.622	3180
2706.524	3226
2708.425	3204
2710.326	3193
2712.225	3208
2714.125	3194
2716.024	3155
2717.923	3175
2719.822	3233
2721.719	3163
2723.616	3188
2725.512	3283
2727.41	3162
2729.305	3200
2731.201	3215
2733.095	3201
2734.99	3217
2736.884	3219
2738.778	3178
2740.67	3195
2742.562	3172
2744.455	3187
2746.346	3269
2748.238	3205
2750.129	3215
2752.018	3221
2753.907	3154
2755.797	3207
2757.687	3174
2759.575	3191
2761.462	3139
2763.349	3068
2765.237	3133
2767.124	3149
2769.009	3134
2770.894	3179
2772.779	3142
2774.663	3162
2776.547	3209
2778.431	3171
2780.314	3119
2782.197	3127
2784.078	3209
2785.96	3186
2787.842	3216
2789.723	3221
2791.603	3188
2793.483	3162
2795.362	3134
2797.241	3222
2799.121	3122
2800.997	3147
2802.874	3174
2804.751	3117
2806.628	3073
2808.506	3109
2810.38	3222
2812.255	3129
2814.13	3165
2816.003	3138
2817.878	3158
2819.752	3171
2821.623	3128
2823.496	3181
2825.368	3195
2827.238	3144
2829.111	3210
2830.98	3226
2832.851	3108
2834.719	3118
2836.589	3116
2838.458	3182
2840.327	3083
2842.193	3234
2844.061	3145
2845.927	3190
2847.794	3192
2849.66	3226
2851.525	3173
2853.39	3259
2855.254	3218
2857.117	3266
2858.983	3252
2860.845	3261
2862.707	3305
2864.569	3297
2866.431	3332
2868.293	3302
2870.154	3361
2872.013	3412
2873.873	3423
2875.733	3447
2877.592	3481
2879.451	3598
2881.309	3545
2883.166	3521
2885.022	3634
2886.879	3516
2888.736	3578
2890.591	3579
2892.446	3556
2894.301	3649
2896.155	3583
2898.009	3613
2899.863	3563
2901.716	3600
2903.568	3595
2905.419	3619
2907.27	3534
2909.123	3647
2910.973	3655
2912.824	3690
2914.673	3711
2916.521	3713
2918.372	3736
2920.22	3842
2922.067	3841
2923.914	3882
2925.761	3897
2927.607	3952
2929.455	3930
2931.301	4045
2933.144	3975
2934.99	4073
2936.833	4078
2938.678	4190
2940.522	4232
2942.364	4255
2944.207	4309
2946.048	4318
2947.891	4252
2949.731	4355
2951.571	4278
2953.412	4223
2955.25	4210
2957.09	4158
2958.93	4050
2960.767	4109
2962.606	4012
2964.443	4052
2966.279	4041
2968.116	3901
2969.953	3838
2971.788	3907
2973.623	3864
2975.457	3780
2977.292	3750
2979.127	3717
2980.959	3680
2982.792	3679
2984.624	3700
2986.455	3697
2988.288	3766
2990.119	3616
2991.949	3695
2993.779	3580
2995.608	3482
2997.439	3538
2999.268	3487
3001.096	3390
3002.923	3412
3004.751	3505
3006.578	3422
3008.406	3322
3010.232	3370
3012.057	3338
3013.883	3255
3015.706	3166
3017.532	3240
3019.356	3227
3021.179	3237
3023.002	3169
3024.823	3187
3026.646	3189
3028.469	3102
3030.289	3126
3032.11	3145
3033.93	3134
3035.749	3185
3037.57	3067
3039.39	3122
3041.207	3063
3043.026	3017
3044.842	3053
3046.661	3127
3048.477	3106
3050.294	3042
3052.109	3096
3053.925	3077
3055.739	3073
3057.555	3132
3059.368	3099
3061.181	3000
3062.995	3087
3064.807	3115
3066.62	3091
3068.433	3074
3070.243	3012
3072.054	3062
3073.865	3025
3075.675	3070
3077.485	3074
3079.293	3047
3081.102	3094
3082.911	3033
3084.719	3044
3086.527	3022
3088.333	3095
3090.139	3065
3091.945	2984
3093.75	3004
3095.557	2945
3097.361	3040
3099.165	2998
3100.969	3070
3102.772	2961
3104.575	3001
3106.379	2948
3108.181	2968
3109.982	2964
3111.783	3045
3113.584	2960
3115.386	2961
3117.186	2945
3118.985	3017
3120.783	2939
3122.582	3010
3124.381	2944
3126.179	2877
3127.975	2933
3129.772	3022
3131.569	2838
3133.365	2905
3135.161	2942
3136.956	2882
3138.751	2962
3140.544	2917
3142.338	2954
3144.132	2953
3145.925	2911
3147.717	2912
3149.509	2955
3151.301	2946
3153.091	2916
3154.884	2911
3156.673	2904
3158.462	2967
3160.252	2950
3162.041	2904
3163.831	2922
3165.618	2948
3167.405	2895
3169.193	2884
3170.979	2957
3172.767	2904
3174.553	2935
3176.338	2873
3178.123	2923
3179.907	2913
3181.692	2946
3183.477	2924
3185.259	2938
3187.042	2871
3188.824	2886
3190.607	2888
3192.389	2913
3194.17	2893
3195.951	2918
3197.73	2873
3199.51	2924
3201.289	2903
3203.07	2876
3204.848	2880
3206.626	2901
3208.403	2934
3210.18	2853
3211.959	2919
3213.735	2867
3215.511	2969
3217.285	2948
3219.06	2949
3220.836	2940
3222.611	2902
3224.384	2865
3226.158	2844
3227.929	2936
3229.702	2904
3231.476	2901
3233.248	2889
3235.018	2924
3236.789	2881
3238.56	2924
3240.33	2847
3242.1	2916
3243.869	2813
3245.637	2930
3247.405	2865
3249.172	2983
3250.941	2886
3252.707	2905
3254.474	2891
3256.24	2882
3258.006	2891
3259.772	2931
3261.537	2882
3263.301	2932
3265.065	2833
3266.828	2905
3268.592	2884
3270.355	2912
3272.117	2907
3273.878	2988
3275.64	2875
3277.401	2892
3279.162	2961
3280.922	2938
3282.682	2874
3284.441	2920
3286.199	2905
3287.959	2958
3289.716	2954
3291.475	2905
3293.232	2917
3294.988	2944
3296.744	2934
3298.501	2978
3300.256	2955
3302.011	2901
3303.766	2943
3305.52	2940
3307.275	2924
3309.028	2874
3310.781	2902
3312.533	2908
3314.285	2883
3316.038	2843
3317.789	2905
3319.54	2892
3321.289	2921
3323.039	2888
3324.789	2936
3326.539	2939
3328.288	2933
3330.035	2893
3331.783	2832
3333.531	2918
3335.28	2993
3337.025	2936
3338.771	2879
3340.518	2919
3342.262	2866
3344.009	2949
3345.753	2937
3347.497	2880
3349.24	2846
3350.983	2881
3352.726	2862
3354.469	2858
3356.212	2873
3357.952	2892
3359.694	2844
3361.434	2847
3363.176	2866
3364.916	2817
3366.654	2904
3368.394	2790
3370.132	2776
3371.871	2835
3373.61	2813
3375.346	2872
3377.083	2767
3378.82	2872
3380.556	2823
3382.292	2863
3384.027	2861
3385.763	2890
3387.497	2810
3389.231	2802
3390.965	2846
3392.698	2795
3394.431	2886
3396.164	2789
3397.896	2816
3399.627	2818
3401.36	2781
3403.09	2772
3404.82	2790
3406.55	2779
3408.279	2765
3410.01	2779
3411.738	2781
3413.467	2810
3415.194	2805
3416.92	2775
3418.647	2792
3420.375	2711
3422.102	2809
3423.827	2792
3425.553	2776
3427.277	2802
3429.003	2762
3430.727	2780
3432.451	2749
3434.173	2710
3435.896	2736
3437.62	2731
3439.343	2709
3441.063	2732
3442.785	2766
3444.505	2720
3446.226	2713
3447.948	2772
3449.666	2775
3451.386	2670
3453.104	2733
3454.823	2699
3456.541	2719
3458.259	2673
3459.976	2678
3461.693	2670
3463.408	2714
3465.125	2687
3466.841	2682
3468.556	2729
3470.271	2723
3471.985	2698
3473.698	2687
3475.414	2637
3477.126	2680
3478.838	2721
3480.55	2674
3482.263	2653
3483.975	2714
3485.686	2651
3487.396	2635
3489.106	2645
3490.817	2704
3492.526	2636
3494.236	2602
3495.944	2643
3497.652	2682
3499.359	2655
3501.066	2685
3502.775	2647
3504.481	2617
3506.187	2691
3507.893	2588
3509.598	2654
3511.304	2602
3513.009	2642
3514.713	2650
3516.417	2621
3518.12	2577
3519.821	2576
3521.525	2572
3523.228	2592
3524.929	2604
3526.631	2571
3528.33	2622
3530.032	2599
3531.733	2573
3533.433	2610
3535.131	2473
3536.83	2551
3538.529	2559
3540.227	2556
3541.925	2476
3543.623	2514
3545.319	2597
3547.016	2503
3548.712	2521
3550.408	2558
3552.103	2507
3553.798	2562
3555.491	2469
3557.188	2514
3558.88	2505
3560.574	2564
3562.266	2528
3563.959	2543
3565.651	2520
3567.343	2527
3569.035	2546
3570.725	2533
3572.415	2487
3574.106	2529
3575.797	2504
3577.485	2502
3579.174	2557
3580.863	2445
3582.551	2516
3584.238	2522
3585.926	2556
3587.613	2497
3589.3	2509
3590.986	2449
3592.671	2486
3594.357	2433
3596.042	2526
3597.726	2445
3599.41	2488
3601.094	2421
3602.778	2490
3604.461	2380
3606.143	2377
3607.825	2417
3609.507	2415
3611.188	2375
3612.87	2406
3614.551	2425
3616.229	2383
3617.909	2455
3619.589	2445
3621.269	2397
3622.948	2384
3624.625	2395
3626.302	2427
3627.98	2343
3629.657	2343
3631.334	2388
3633.01	2352
3634.686	2333
3636.361	2359
3638.036	2320
3639.712	2331
3641.385	2338
3643.06	2314
3644.732	2333
3646.405	2353
3648.08	2403
3649.751	2346
3651.424	2349
3653.094	2355
3654.766	2327
3656.436	2317
3658.106	2388
3659.777	2341
3661.446	2332
3663.115	2365
3664.783	2318
3666.452	2321
3668.121	2319
3669.788	2330
3671.454	2346
3673.121	2244
3674.789	2301
3676.455	2282
3678.12	2322
3679.784	2287
3681.45	2259
3683.114	2257
3684.779	2285
3686.442	2294
3688.105	2315
3689.768	2331
3691.43	2261
3693.093	2256
3694.754	2286
3696.415	2237
3698.076	2247
3699.736	2338
3701.396	2298
3703.057	2295
3704.716	2262
3706.375	2252
3708.034	2236
3709.692	2259
3711.351	2256
3713.008	2277
3714.665	2221
3716.321	2195
3717.977	2252
3719.634	2273
3721.29	2228
3722.945	2254
3724.598	2246
3726.253	2194
3727.907	2276
3729.561	2172
3731.214	2211
3732.867	2180
3734.518	2287
3736.171	2255
3737.824	2238
3739.474	2246
3741.125	2297
3742.775	2195
3744.425	2254
3746.074	2225
3747.725	2214
3749.373	2225
3751.022	2246
3752.669	2227
3754.318	2262
3755.966	2194
3757.612	2195
3759.259	2279
3760.905	2203
3762.55	2206
3764.197	2176
3765.842	2227
3767.486	2189
3769.131	2125
3770.774	2223
3772.417	2155
3774.061	2228
3775.705	2190
3777.347	2182
3778.988	2167
3780.629	2185
3782.271	2160
3783.912	2213
3785.552	2125
3787.192	2158
3788.831	2149
3790.472	2121
3792.112	2153
3793.75	2148
3795.388	2209
3797.024	2163
3798.661	2186
3800.3	2225
3801.936	2139
3803.572	2153
3805.208	2121
3806.844	2135
3808.48	2178
3810.115	2088
3811.748	2129
3813.382	2160
3815.016	2109
3816.649	2157
3818.283	2135
3819.914	2148
3821.547	2168
3823.178	2156
3824.809	2049
3826.441	2112
3828.072	2097
3829.701	2161
3831.331	2185
3832.96	2156
3834.591	2118
3836.219	2130
3837.847	2132
3839.475	2132
3841.102	2123
3842.729	2125
3844.357	2125
3845.984	2128
3847.609	2173
3849.234	2118
3850.86	2131
3852.485	2128
3854.11	2157
3855.734	2137
3857.357	2061
3858.981	2096
3860.603	2139
3862.227	2114
3863.848	2125
3865.471	2163
3867.092	2130
3868.713	2116
3870.334	2154
3871.954	2074
3873.575	2078
3875.194	2094
3876.813	2158
3878.433	2110
3880.051	2059
3881.669	2119
3883.286	2110
3884.904	2108
3886.52	2061
3888.138	2087
3889.754	1996
3891.37	2070
3892.985	2061
3894.6	2016
3896.216	2081
3897.831	2102
3899.444	2041
3901.058	2125
3902.67	2076
3904.283	2087
3905.897	2109
3907.509	2071
3909.121	2067
3910.731	2066
3912.342	2084
3913.954	2081
3915.563	2063
3917.174	2014
3918.783	2008
3920.391	2066
3922.002	2102
3923.611	2018
3925.218	2105
3926.826	2059
3928.432	2055
3930.039	2096
3931.647	2046
3933.253	2082
3934.859	2037
3936.464	2024
3938.068	2069
3939.675	2015
3941.278	2026
3942.883	2014
3944.486	2075
3946.089	2059
3947.692	2094
3949.295	2018
3950.898	2068
3952.499	2043
3954.1	2046
3955.7	2004
3957.303	2025
3958.903	2011
3960.502	2028
3962.101	1983
3963.7	2013
3965.301	2026
3966.899	2024
3968.497	1999
3970.094	1971
3971.691	1991
3973.288	2043
3974.885	1959
3976.481	1988
3978.077	1930
3979.672	1981
3981.267	1927
3982.863	2033
3984.457	1959
3986.051	1980
3987.645	1996
3989.238	1960
3990.831	1976
3992.425	1918
3994.017	1953
3995.607	2026
3997.199	1993
3998.79	2014
4000.382	1953
4001.973	1981
4003.561	1938
4005.151	1947
4006.741	1910
4008.331	1975
4009.918	1945
4011.507	1910
4013.095	1940
4014.681	1933
4016.269	1971
4017.856	1939
4019.443	1926
4021.028	1938
4022.614	1913
4024.199	1925
4025.785	1941
4027.37	1983
4028.953	1968
4030.536	1932
4032.12	1903
4033.704	1914
4035.287	1922
4036.869	1930
4038.45	1937
4040.032	1947
4041.613	1930
4043.195	1919
4044.776	1921
4046.356	1968
4047.935	1918
4049.515	1923
4051.095	1919
4052.674	1926
4054.251	1908
4055.829	1911
4057.406	1925
4058.985	1892
4060.562	1905
4062.139	1904
4063.715	1884
4065.29	1890
4066.865	1869
4068.442	1884
4070.016	1862
4071.59	1876
4073.164	1870
4074.738	1882
4076.312	1899
4077.885	1847
4079.458	1879
4081.03	1917
4082.602	1836
4084.173	1904
4085.745	1879
4087.315	1877
4088.886	1864
4090.456	1907
4092.026	1902
4093.596	1895
4095.165	1794
4096.734	1829
4098.301	1837
4099.869	1846
4101.437	1908
4103.006	1880
4104.572	1834
4106.139	1857
4107.704	1876
4109.27	1884
4110.837	1851
4112.401	1835
4113.966	1861
4115.53	1859
4117.094	1801
4118.659	1801
4120.223	1797
4121.785	1813
4123.347	1829
4124.909	1832
4126.471	1813
4128.034	1855
4129.595	1867
4131.155	1812
4132.716	1824
4134.275	1806
4135.836	1799
4137.395	1855
4138.955	1833
4140.513	1882
4142.071	1870
4143.628	1817
4145.188	1800
4146.745	1797
4148.302	1860
4149.858	1776
4151.414	1774
4152.971	1797
4154.526	1835
4156.081	1801
4157.635	1852
4159.189	1777
4160.745	1803
4162.298	1779
4163.852	1816
4165.405	1812
4166.957	1776
4168.51	1818
4170.063	1749
4171.614	1743
4173.166	1760
4174.717	1786
4176.267	1747
4177.817	1797
4179.368	1791
4180.917	1753
4182.466	1786
4184.016	1761
4185.564	1752
4187.112	1725
4188.66	1817
4190.207	1752
4191.754	1762
4193.301	1743
4194.848	1737
4196.394	1766
4197.94	1769
4199.484	1739
4201.03	1800
4202.575	1740
4204.12	1736
4205.663	1743
4207.207	1722
4208.75	1739
4210.292	1734
4211.836	1755
4213.378	1759
4214.92	1713
4216.46	1730
4218.002	1731
4219.544	1772
4221.083	1693
4222.625	1765
4224.164	1792
4225.703	1751
4227.244	1728
4228.782	1723
4230.32	1699
4231.857	1735
4233.395	1726
4234.933	1712
4236.471	1737
4238.007	1721
4239.542	1721
4241.078	1729
4242.614	1740
4244.15	1702
4245.685	1711
4247.219	1705
4248.753	1703
4250.287	1751
4251.82	1734
4253.354	1713
4254.887	1684
4256.419	1688
4257.951	1740
4259.483	1699
4261.016	1687
4262.547	1707
4264.078	1756
4265.608	1737
4267.137	1718
4268.668	1669
4270.197	1709
4271.727	1662
4273.254	1682
4274.783	1715
4276.311	1715
4277.84	1713
4279.366	1712
4280.894	1671
4282.42	1726
4283.946	1701
4285.473	1666
4286.998	1737
4288.523	1637
4290.047	1701
4291.572	1685
4293.096	1660
4294.622	1678
4296.144	1683
4297.668	1686
4299.19	1689
4300.713	1714
4302.236	1658
4303.758	1673
4305.279	1635
4306.799	1651
4308.321	1686
4309.842	1661
4311.361	1644
4312.882	1661
4314.401	1698
