400.0961	4083
402.6185	4075
405.1424	4119
407.6635	4126
410.1838	4061
412.7035	4168
415.2225	4205
417.7388	4177
420.2585	4216
422.7754	4234
425.2917	4269
427.8072	4363
430.3221	4445
432.8363	4353
435.3498	4377
437.8626	4356
440.3727	4330
442.8841	4353
445.3969	4355
447.907	4434
450.4142	4409
452.9229	4408
455.4289	4435
457.9362	4348
460.4449	4318
462.9488	4393
465.454	4332
467.9566	4346
470.4604	4435
472.9637	4445
475.4662	4317
477.966	4422
480.4671	4515
482.9656	4307
485.4633	4394
487.9645	4462
490.4608	4437
492.9566	4518
495.4536	4512
497.948	4522
500.4437	4452
502.9387	4481
505.431	4583
507.9226	4448
510.4136	4607
512.9079	4524
515.3975	4568
517.8864	4599
520.3746	4559
522.8622	4619
525.3491	4633
527.8394	4560
530.3249	4608
532.8098	4718
535.2939	4543
537.7774	4572
540.2623	4664
542.7444	4504
545.2259	4561
547.7067	4594
550.1868	4590
552.6683	4580
555.147	4563
557.6231	4634
560.1005	4612
562.5773	4653
565.0534	4530
567.5308	4770
570.0056	4684
572.4776	4681
574.951	4711
577.4237	4715
579.8978	4819
582.3671	4817
584.8378	4645
587.3079	4751
589.7773	4834
592.244	4790
594.714	4834
597.1793	4777
599.6461	4797
602.1121	4736
604.5754	4722
607.0421	4783
609.5042	4743
611.9675	4744
614.4282	4716
616.8902	4794
619.3515	4765
621.8122	4738
624.2702	4725
626.7296	4732
629.1863	4766
631.6423	4671
634.1017	4739
636.5563	4876
639.0104	4743
641.4658	4742
643.9185	4704
646.3725	4791
648.8239	4857
651.2766	4904
653.7266	4743
656.176	4723
658.6247	4776
661.0748	4873
663.5242	4831
665.9709	4819
668.417	4870
670.8624	4845
673.3092	4942
675.7533	4943
678.1968	4889
680.6395	4917
683.0817	5004
685.5251	4915
687.9659	4907
690.4061	5016
692.8456	4840
695.2844	5046
697.7226	4974
700.1621	4849
702.599	4822
705.0332	4891
707.4688	4945
709.9036	5066
712.3399	4954
714.7735	4918
717.2044	4952
719.6367	5036
722.0683	4987
724.4993	5110
726.9296	5130
729.3593	5146
731.7883	5048
734.2147	5095
736.6423	5159
739.0714	5035
741.4958	5211
743.9216	5081
746.3447	5225
748.7691	5172
751.1929	5232
753.616	5110
756.0366	5142
758.4584	5165
760.8776	5124
763.2982	5230
765.718	5282
768.1373	5320
770.5539	5236
772.9698	5355
775.3871	5137
777.8038	5269
780.2178	5198
782.6332	5155
785.0459	5416
787.458	5226
789.8714	5256
792.2842	5133
794.6943	5321
797.1038	5369
799.5127	5289
801.9209	5290
804.3324	5354
806.7393	5277
809.1456	5296
811.5513	5426
813.9562	5370
816.3625	5312
818.7663	5302
821.1693	5358
823.5718	5382
825.9735	5371
828.3746	5339
830.7771	5293
833.177	5379
835.5762	5368
837.9747	5401
840.3727	5367
842.772	5339
845.1666	5458
847.5626	5422
849.958	5386
852.3527	5554
854.7488	5387
857.1403	5520
859.5331	5456
861.9253	5480
864.3168	5300
866.7057	5326
869.098	5311
871.4876	5384
873.8746	5400
876.263	5413
878.6487	5440
881.0378	5393
883.4243	5460
885.8081	5407
888.1933	5434
890.5759	5440
892.9598	5506
895.343	5397
897.7256	5450
900.1057	5457
902.4871	5373
904.8659	5521
907.246	5396
909.6254	5540
912.0023	5349
914.3786	5480
916.7562	5610
919.1331	5626
921.5074	5555
923.8831	5524
926.2562	5658
928.6287	5599
931.0005	5660
933.3757	5568
935.7462	5695
938.1162	5709
940.4855	5865
942.8542	5622
945.2242	5772
947.5916	5787
949.9584	5935
952.3266	6100
954.6921	6235
957.0571	6347
959.4233	6585
961.787	6640
964.15	6487
966.5125	6618
968.8742	6243
971.2354	6107
973.5959	6011
975.9559	5737
978.3151	5692
980.6738	5703
983.0338	5585
985.3912	5693
987.7461	5695
990.1022	5491
992.4578	5730
994.8127	5551
997.1689	5607
999.5207	5546
1001.874	5644
1004.226	5644
1006.576	5602
1008.929	5658
1011.28	5626
1013.628	5731
1015.977	5683
1018.324	5662
1020.674	5653
1023.019	5625
1025.366	5702
1027.713	5684
1030.056	5731
1032.399	5698
1034.746	5699
1037.087	5723
1039.431	5623
1041.771	5635
1044.113	5707
1046.454	5788
1048.793	5766
1051.133	5777
1053.471	5772
1055.807	5716
1058.146	5664
1060.483	5834
1062.818	5744
1065.153	5839
1067.489	5865
1069.822	5805
1072.156	5777
1074.488	5819
1076.82	5862
1079.15	5782
1081.48	5746
1083.814	5912
1086.143	5906
1088.471	5676
1090.799	5711
1093.126	5798
1095.452	5918
1097.78	5683
1100.105	5875
1102.43	5780
1104.754	5661
1107.077	5733
1109.4	5795
1111.722	5859
1114.044	5722
1116.365	5750
1118.685	5689
1121.005	5790
1123.324	5813
1125.643	5862
1127.961	5778
1130.278	5865
1132.595	5858
1134.911	5727
1137.226	5815
1139.541	5777
1141.854	5793
1144.167	5876
1146.482	5903
1148.793	5854
1151.105	5766
1153.414	5817
1155.725	5869
1158.033	5862
1160.344	5853
1162.651	5744
1164.959	5750
1167.265	5739
1169.572	5892
1171.878	5839
1174.184	5841
1176.488	5784
1178.79	5770
1181.094	5837
1183.396	5837
1185.699	5712
1188.001	5746
1190.301	5913
1192.6	5766
1194.9	5710
1197.2	5822
1199.497	5824
1201.794	5710
1204.09	5799
1206.387	5847
1208.684	5759
1210.978	5850
1213.272	5880
1215.565	5839
1217.858	5893
1220.15	5793
1222.443	5839
1224.734	5785
1227.024	5958
1229.313	5849
1231.602	5934
1233.892	5880
1236.18	5969
1238.467	5995
1240.754	6035
1243.04	5960
1245.325	6003
1247.612	6060
1249.896	6002
1252.178	6009
1254.461	6051
1256.743	5964
1259.027	5921
1261.308	5901
1263.587	6054
1265.867	6044
1268.146	6058
1270.425	6004
1272.703	6050
1274.981	6041
1277.256	6065
1279.532	6000
1281.808	6012
1284.083	6003
1286.358	5859
1288.63	6038
1290.904	5941
1293.175	5972
1295.449	6050
1297.719	6055
1299.99	5990
1302.259	6062
1304.529	6045
1306.798	6057
1309.065	5886
1311.333	5772
1313.599	5918
1315.866	5921
1318.131	5974
1320.396	5936
1322.66	5971
1324.925	6025
1327.187	6001
1329.448	6042
1331.711	6108
1333.974	5954
1336.234	5910
1338.493	5936
1340.752	5937
1343.01	5885
1345.269	5980
1347.526	6060
1349.784	6138
1352.04	6027
1354.295	5989
1356.552	6041
1358.806	5980
1361.059	5988
1363.312	5909
1365.564	5885
1367.818	6032
1370.069	5957
1372.318	6095
1374.568	6001
1376.817	6040
1379.066	6034
1381.316	5965
1383.564	6150
1385.809	6053
1388.056	5986
1390.301	6092
1392.549	6015
1394.793	6062
1397.036	6153
1399.279	6138
1401.522	6183
1403.763	6257
1406.007	6055
1408.248	6060
1410.487	6101
1412.727	6092
1414.965	6088
1417.205	6113
1419.442	6143
1421.68	6117
1423.915	6116
1426.152	6101
1428.388	6085
1430.623	6027
1432.857	6079
1435.091	6093
1437.323	6192
1439.556	6187
1441.789	6251
1444.019	6243
1446.25	6139
1448.48	6222
1450.708	6255
1452.938	6251
1455.167	6264
1457.394	6279
1459.62	6290
1461.846	6285
1464.073	6226
1466.299	6141
1468.523	6253
1470.746	6105
1472.969	6279
1475.191	6114
1477.415	6149
1479.636	6056
1481.858	6034
1484.078	5976
1486.298	6094
1488.518	5941
1490.736	5974
1492.954	6063
1495.169	6074
1497.386	6182
1499.602	6061
1501.819	6077
1504.034	5930
1506.248	6022
1508.462	6023
1510.675	6097
1512.888	6044
1515.1	5970
1517.311	6109
1519.522	6136
1521.732	6029
1523.942	6065
1526.151	6061
1528.36	5980
1530.566	6087
1532.773	6052
1534.98	6028
1537.187	6047
1539.392	6095
1541.596	6071
1543.801	6070
1546.005	6123
1548.208	6213
1550.411	6186
1552.612	5997
1554.814	6190
1557.013	6109
1559.212	5979
1561.414	6014
1563.612	6143
1565.811	6011
1568.007	6219
1570.203	6171
1572.403	6071
1574.598	6210
1576.792	6129
1578.988	6225
1581.181	6301
1583.376	6317
1585.568	6210
1587.761	6190
1589.952	6112
1592.143	6187
1594.333	6200
1596.524	6232
1598.715	6212
1600.903	6210
1603.091	6238
1605.278	6309
1607.466	6236
1609.652	6260
1611.838	6265
1614.023	6271
1616.207	6258
1618.391	6134
1620.576	6223
1622.759	6352
1624.941	6246
1627.123	6308
1629.304	6396
1631.484	6255
1633.664	6271
1635.844	6378
1638.022	6326
1640.201	6354
1642.38	6247
1644.556	6335
1646.732	6373
1648.908	6279
1651.084	6228
1653.257	6278
1655.433	6336
1657.607	6343
1659.779	6263
1661.951	6266
1664.122	6372
1666.295	6308
1668.467	6392
1670.635	6336
1672.805	6370
1674.973	6377
1677.142	6313
1679.31	6326
1681.478	6258
1683.644	6394
1685.81	6253
1687.975	6290
1690.142	6353
1692.305	6321
1694.468	6264
1696.632	6461
1698.794	6350
1700.957	6229
1703.119	6342
1705.279	6218
1707.439	6278
1709.598	6351
1711.758	6309
1713.917	6157
1716.075	6167
1718.231	6319
1720.388	6293
1722.543	6218
1724.702	6222
1726.856	6234
1729.01	6125
1731.164	6221
1733.317	6186
1735.471	6245
1737.623	6155
1739.774	6237
1741.925	6450
1744.075	6222
1746.225	6277
1748.376	6196
1750.524	6304
1752.672	6290
1754.82	6357
1756.965	6295
1759.113	6211
1761.259	6252
1763.405	6212
1765.549	6377
1767.694	6315
1769.836	6335
1771.981	6335
1774.123	6200
1776.264	6421
1778.405	6438
1780.546	6445
1782.687	6376
1784.827	6324
1786.966	6308
1789.103	6284
1791.242	6249
1793.381	6362
1795.517	6341
1797.653	6294
1799.788	6302
1801.923	6439
1804.057	6266
1806.193	6256
1808.326	6267
1810.457	6270
1812.59	6220
1814.721	6432
1816.855	6245
1818.984	6330
1821.113	6362
1823.244	6292
1825.372	6269
1827.499	6313
1829.63	6265
1831.756	6203
1833.882	6301
1836.007	6177
1838.132	6228
1840.26	6307
1842.384	6291
1844.507	6184
1846.63	6374
1848.752	6255
1850.875	6273
1852.996	6203
1855.118	6146
1857.238	6333
1859.358	6255
1861.477	6221
1863.597	6308
1865.715	6325
1867.832	6185
1869.948	6200
1872.064	6302
1874.181	6197
1876.297	6208
1878.411	6205
1880.526	6229
1882.639	6269
1884.752	6164
1886.865	6310
1888.977	6313
1891.089	6310
1893.2	6126
1895.308	6279
1897.42	6236
1899.53	6275
1901.639	6249
1903.745	6209
1905.853	6337
1907.962	6323
1910.067	6288
1912.174	6243
1914.278	6316
1916.383	6276
1918.486	6295
1920.592	6303
1922.694	6458
1924.797	6325
1926.898	6250
1929	6430
1931.102	6243
1933.203	6340
1935.301	6316
1937.401	6334
1939.499	6327
1941.598	6398
1943.697	6312
1945.793	6184
1947.888	6405
1949.985	6356
1952.08	6394
1954.176	6303
1956.269	6271
1958.364	6268
1960.457	6302
1962.549	6304
1964.642	6317
1966.733	6373
1968.823	6370
1970.913	6327
1973.005	6274
1975.093	6338
1977.184	6306
1979.271	6305
1981.359	6349
1983.446	6434
1985.532	6261
1987.619	6272
1989.705	6170
1991.789	6282
1993.874	6216
1995.956	6293
1998.041	6323
2000.123	6226
2002.206	6253
2004.287	6303
2006.368	6161
2008.449	6178
2010.529	6265
2012.609	6317
2014.688	6242
2016.766	6174
2018.843	6392
2020.922	6317
2022.999	6301
2025.074	6203
2027.15	6301
2029.225	6187
2031.299	6199
2033.375	6271
2035.447	6211
2037.52	6284
2039.592	6219
2041.664	6244
2043.736	6282
2045.807	6236
2047.876	6304
2049.947	6209
2052.015	6342
2054.086	6221
2056.153	6282
2058.221	6194
2060.288	6241
2062.353	6314
2064.42	6198
2066.486	6410
2068.55	6322
2070.614	6162
2072.678	6247
2074.741	6318
2076.805	6304
2078.866	6314
2080.929	6294
2082.99	6252
2085.049	6183
2087.109	6252
2089.17	6246
2091.228	6293
2093.286	6185
2095.344	6213
2097.4	6152
2099.46	6310
2101.516	6244
2103.572	6236
2105.626	6207
2107.679	6302
2109.735	6230
2111.788	6326
2113.841	6315
2115.894	6287
2117.945	6273
2119.997	6271
2122.049	6271
2124.1	6198
2126.148	6236
2128.197	6153
2130.246	6228
2132.296	6207
2134.342	6308
2136.39	6252
2138.437	6242
2140.483	6244
2142.527	6192
2144.574	6141
2146.619	6288
2148.661	6176
2150.705	6266
2152.747	6381
2154.792	6128
2156.832	6328
2158.874	6245
2160.915	6228
2162.954	6134
2164.995	6205
2167.034	6204
2169.072	6003
2171.111	6144
2173.148	6159
2175.186	6130
2177.223	6153
2179.258	6124
2181.294	6138
2183.328	6100
2185.362	6217
2187.398	6188
2189.431	6108
2191.463	6179
2193.495	6113
2195.528	6132
2197.56	6221
2199.59	6048
2201.62	6115
2203.649	6152
2205.678	6038
2207.708	6098
2209.737	6138
2211.764	6115
2213.791	6028
2215.817	6083
2217.843	5974
2219.87	6128
2221.895	6067
2223.919	6050
2225.942	6032
2227.966	6137
2229.988	6021
2232.012	6078
2234.032	6063
2236.054	6031
2238.074	5978
2240.095	6055
2242.116	6168
2244.135	6085
2246.153	5990
2248.171	6087
2250.188	6038
2252.208	6159
2254.223	6026
2256.239	6081
2258.255	5967
2260.269	6042
2262.283	5966
2264.3	5967
2266.312	6007
2268.325	6053
2270.336	6068
2272.349	6134
2274.362	6057
2276.372	6105
2278.383	6082
2280.392	6049
2282.402	6091
2284.409	6026
2286.418	5996
2288.427	6099
2290.433	6070
2292.441	6087
2294.446	5963
2296.453	6004
2298.459	6015
2300.463	6111
2302.466	6033
2304.471	5878
2306.475	6066
2308.477	5969
2310.478	5953
2312.481	5951
2314.481	5959
2316.481	6039
2318.482	5943
2320.482	6066
2322.48	6035
2324.48	5951
2326.478	5983
2328.476	5952
2330.473	5947
2332.469	5863
2334.465	5913
2336.46	6018
2338.454	5946
2340.45	5918
2342.444	5881
2344.437	5970
2346.43	5968
2348.421	5934
2350.414	5946
2352.405	5980
2354.396	5984
2356.386	5947
2358.376	5885
2360.366	5834
2362.355	5904
2364.343	5893
2366.331	5929
2368.317	5969
2370.304	5964
2372.292	5888
2374.278	5891
2376.262	5903
2378.247	5905
2380.23	5888
2382.216	5877
2384.199	5916
2386.181	5822
2388.163	5758
2390.144	5792
2392.127	5919
2394.107	5769
2396.087	5818
2398.066	5756
2400.046	5853
2402.023	5834
2404.004	5849
2405.981	5758
2407.957	5870
2409.934	5771
2411.91	5904
2413.886	5751
2415.862	5853
2417.836	5783
2419.809	5939
2421.784	5822
2423.756	5840
2425.73	5763
2427.701	5803
2429.672	5791
2431.644	5767
2433.615	5766
2435.586	5787
2437.555	5837
2439.523	5774
2441.491	5898
2443.459	5900
2445.428	5716
2447.395	5743
2449.361	5865
2451.327	5765
2453.292	5853
2455.257	5795
2457.223	5790
2459.187	5782
2461.15	5771
2463.113	5691
2465.076	5822
2467.039	5791
2468.999	5751
2470.96	5796
2472.921	5824
2474.881	5697
2476.841	5787
2478.8	5759
2480.759	5718
2482.717	5737
2484.675	5687
2486.63	5695
2488.589	5697
2490.545	5668
2492.5	5729
2494.455	5800
2496.408	5774
2498.364	5751
2500.318	5630
2502.27	5673
2504.223	5744
2506.174	5639
2508.126	5607
2510.078	5721
2512.03	5577
2513.979	5621
2515.927	5607
2517.877	5729
2519.826	5763
2521.775	5562
2523.722	5699
2525.668	5649
2527.616	5587
2529.561	5728
2531.508	5600
2533.452	5676
2535.398	5633
2537.342	5655
2539.284	5578
2541.229	5672
2543.173	5566
2545.114	5611
2547.055	5685
2548.996	5608
2550.938	5605
2552.878	5667
2554.817	5726
2556.756	5620
2558.695	5675
2560.633	5670
2562.572	5566
2564.509	5599
2566.445	5609
2568.382	5640
2570.317	5581
2572.254	5735
2574.189	5632
2576.123	5578
2578.057	5643
2579.99	5665
2581.923	5617
2583.855	5638
2585.788	5787
2587.719	5584
2589.65	5635
2591.579	5533
2593.511	5637
2595.44	5753
2597.37	5740
2599.297	5638
2601.225	5661
2603.153	5678
2605.08	5726
2607.007	5580
2608.932	5572
2610.858	5714
2612.782	5655
2614.709	5540
2616.632	5756
2618.556	5694
2620.478	5752
2622.401	5674
2624.324	5578
2626.247	5587
2628.167	5620
2630.088	5689
2632.008	5668
2633.928	5614
2635.848	5661
2637.766	5698
2639.684	5586
2641.603	5557
2643.519	5629
2645.437	5604
2647.353	5659
2649.27	5637
2651.184	5670
2653.099	5628
2655.014	5610
2656.928	5630
2658.842	5735
2660.755	5622
2662.667	5647
2664.579	5604
2666.491	5521
2668.402	5602
2670.312	5674
2672.222	5600
2674.132	5540
2676.042	5554
2677.951	5574
2679.859	5726
2681.766	5574
2683.674	5557
2685.582	5538
2687.488	5596
2689.392	5513
2691.298	5524
2693.202	5385
2695.107	5516
2697.012	5524
2698.914	5565
2700.817	5523
2702.72	5519
2704.622	5465
2706.524	5495
2708.425	5522
2710.326	5540
2712.225	5395
2714.125	5521
2716.024	5487
2717.923	5427
2719.822	5485
2721.719	5539
2723.616	5422
2725.512	5533
2727.41	5468
2729.305	5461
2731.201	5437
2733.095	5543
2734.99	5465
2736.884	5479
2738.778	5396
2740.67	5451
2742.562	5447
2744.455	5444
2746.346	5498
2748.238	5358
2750.129	5544
2752.018	5394
2753.907	5324
2755.797	5526
2757.687	5516
2759.575	5455
2761.462	5401
2763.349	5422
2765.237	5354
2767.124	5389
2769.009	5511
2770.894	5426
2772.779	5397
2774.663	5463
2776.547	5473
2778.431	5495
2780.314	5387
2782.197	5467
2784.078	5527
2785.96	5404
2787.842	5365
2789.723	5501
2791.603	5407
2793.483	5336
2795.362	5373
2797.241	5407
2799.121	5384
2800.997	5345
2802.874	5343
2804.751	5420
2806.628	5282
2808.506	5457
2810.38	5401
2812.255	5402
2814.13	5384
2816.003	5341
2817.878	5350
2819.752	5370
2821.623	5405
2823.496	5397
2825.368	5327
2827.238	5269
2829.111	5386
2830.98	5396
2832.851	5373
2834.719	5280
2836.589	5324
2838.458	5416
2840.327	5225
2842.193	5332
2844.061	5334
2845.927	5476
2847.794	5365
2849.66	5323
2851.525	5292
2853.39	5346
2855.254	5337
2857.117	5444
2858.983	5357
2860.845	5336
2862.707	5362
2864.569	5401
2866.431	5414
2868.293	5448
2870.154	5488
2872.013	5417
2873.873	5303
2875.733	5375
2877.592	5469
2879.451	5472
2881.309	5468
2883.166	5569
2885.022	5510
2886.879	5617
2888.736	5516
2890.591	5586
2892.446	5581
2894.301	5531
2896.155	5459
2898.009	5512
2899.863	5507
2901.716	5349
2903.568	5564
2905.419	5664
2907.27	5392
2909.123	5578
2910.973	5458
2912.824	5566
2914.673	5604
2916.521	5557
2918.372	5633
2920.22	5664
2922.067	5541
2923.914	5658
2925.761	5771
2927.607	5755
2929.455	5767
2931.301	5686
2933.144	5672
2934.99	5764
2936.833	5822
2938.678	5750
2940.522	5803
2942.364	5921
2944.207	5805
2946.048	5933
2947.891	5894
2949.731	5858
2951.571	5883
2953.412	5935
2955.25	5899
2957.09	5803
2958.93	5683
2960.767	5731
2962.606	5685
2964.443	5783
2966.279	5640
2968.116	5620
2969.953	5564
2971.788	5625
2973.623	5541
2975.457	5448
2977.292	5541
2979.127	5508
2980.959	5515
2982.792	5414
2984.624	5509
2986.455	5576
2988.288	5505
2990.119	5549
2991.949	5359
2993.779	5412
2995.608	5362
2997.439	5344
2999.268	5448
3001.096	5388
3002.923	5408
3004.751	5386
3006.578	5302
3008.406	5293
3010.232	5291
3012.057	5184
3013.883	5102
3015.706	5144
3017.532	5146
3019.356	5172
3021.179	5074
3023.002	5118
3024.823	5131
3026.646	5090
3028.469	5101
3030.289	5066
3032.11	5076
3033.93	5089
3035.749	5071
3037.57	5102
3039.39	5017
3041.207	5009
3043.026	5047
3044.842	4983
3046.661	5058
3048.477	4978
3050.294	5031
3052.109	5048
3053.925	4947
3055.739	5010
3057.555	5056
3059.368	4974
3061.181	5086
3062.995	5003
3064.807	4916
3066.62	5053
3068.433	4965
3070.243	4912
3072.054	4951
3073.865	5010
3075.675	4963
3077.485	4999
3079.293	4980
3081.102	4933
3082.911	4957
3084.719	4910
3086.527	5008
3088.333	4904
3090.139	4893
3091.945	4909
3093.75	4934
3095.557	4891
3097.361	4979
3099.165	4825
3100.969	4878
3102.772	4835
3104.575	4788
3106.379	4856
3108.181	4817
3109.982	4774
3111.783	4783
3113.584	4866
3115.386	4858
3117.186	4820
3118.985	4793
3120.783	4815
3122.582	4801
3124.381	4754
3126.179	4712
3127.975	4758
3129.772	4720
3131.569	4752
3133.365	4662
3135.161	4672
3136.956	4786
3138.751	4720
3140.544	4791
3142.338	4782
3144.132	4816
3145.925	4748
3147.717	4740
3149.509	4681
3151.301	4679
3153.091	4771
3154.884	4681
3156.673	4792
3158.462	4664
3160.252	4733
3162.041	4650
3163.831	4760
3165.618	4601
3167.405	4553
3169.193	4672
3170.979	4678
3172.767	4597
3174.553	4676
3176.338	4659
3178.123	4727
3179.907	4646
3181.692	4651
3183.477	4601
3185.259	4739
3187.042	4642
3188.824	4627
3190.607	4589
3192.389	4589
3194.17	4669
3195.951	4614
3197.73	4588
3199.51	4668
3201.289	4483
3203.07	4707
3204.848	4744
3206.626	4687
3208.403	4623
3210.18	4586
3211.959	4566
3213.735	4565
3215.511	4523
3217.285	4548
3219.06	4655
3220.836	4522
3222.611	4521
3224.384	4583
3226.158	4529
3227.929	4562
3229.702	4552
3231.476	4606
3233.248	4552
3235.018	4547
3236.789	4468
3238.56	4590
3240.33	4524
3242.1	4583
3243.869	4573
3245.637	4590
3247.405	4544
3249.172	4598
3250.941	4556
3252.707	4475
3254.474	4582
3256.24	4580
3258.006	4602
3259.772	4459
3261.537	4634
3263.301	4619
3265.065	4517
3266.828	4540
3268.592	4516
3270.355	4553
3272.117	4562
3273.878	4580
3275.64	4533
3277.401	4591
3279.162	4586
3280.922	4564
3282.682	4448
3284.441	4609
3286.199	4585
3287.959	4545
3289.716	4517
3291.475	4557
3293.232	4602
3294.988	4454
3296.744	4571
3298.501	4531
3300.256	4613
3302.011	4548
3303.766	4518
3305.52	4521
3307.275	4510
3309.028	4478
3310.781	4517
3312.533	4651
3314.285	4551
3316.038	4471
3317.789	4577
3319.54	4495
3321.289	4407
3323.039	4582
3324.789	4550
3326.539	4452
3328.288	4435
3330.035	4541
3331.783	4501
3333.531	4447
3335.28	4523
3337.025	4493
3338.771	4536
3340.518	4424
3342.262	4465
3344.009	4491
3345.753	4476
3347.497	4444
3349.24	4520
3350.983	4397
3352.726	4452
3354.469	4451
3356.212	4461
3357.952	4394
3359.694	4425
3361.434	4479
3363.176	4365
3364.916	4461
3366.654	4410
3368.394	4379
3370.132	4525
3371.871	4359
3373.61	4429
3375.346	4413
3377.083	4429
3378.82	4312
3380.556	4344
3382.292	4266
3384.027	4296
3385.763	4382
3387.497	4415
3389.231	4333
3390.965	4339
3392.698	4311
3394.431	4332
3396.164	4282
3397.896	4392
3399.627	4336
3401.36	4278
3403.09	4332
3404.82	4331
3406.55	4349
3408.279	4280
3410.01	4245
3411.738	4340
3413.467	4340
3415.194	4266
3416.92	4316
3418.647	4310
3420.375	4286
3422.102	4320
3423.827	4242
3425.553	4300
3427.277	4318
3429.003	4276
3430.727	4244
3432.451	4229
3434.173	4271
3435.896	4222
3437.62	4276
3439.343	4256
3441.063	4250
3442.785	4243
3444.505	4170
3446.226	4259
3447.948	4191
3449.666	4203
3451.386	4178
3453.104	4165
3454.823	4227
3456.541	4110
3458.259	4142
3459.976	4141
3461.693	4118
3463.408	4219
3465.125	4258
3466.841	4056
3468.556	4165
3470.271	4124
3471.985	4161
3473.698	4197
3475.414	4129
3477.126	4103
3478.838	4165
3480.55	4119
3482.263	4181
3483.975	4113
3485.686	4046
3487.396	4061
3489.106	4076
3490.817	4044
3492.526	4015
3494.236	4066
3495.944	4036
3497.652	4122
3499.359	4106
3501.066	4069
3502.775	4047
3504.481	3966
3506.187	3994
3507.893	4015
3509.598	4007
3511.304	4047
3513.009	4057
3514.713	4043
3516.417	3959
3518.12	4108
3519.821	4090
3521.525	4044
3523.228	4003
3524.929	3975
3526.631	3976
3528.33	4009
3530.032	3964
3531.733	3992
3533.433	3965
3535.131	3943
3536.83	3962
3538.529	3959
3540.227	3907
3541.925	3891
3543.623	3910
3545.319	3948
3547.016	4040
3548.712	3930
3550.408	3895
3552.103	3959
3553.798	4010
3555.491	3962
3557.188	3991
3558.88	3929
3560.574	3973
3562.266	3988
3563.959	3968
3565.651	3871
3567.343	3858
3569.035	3962
3570.725	3834
3572.415	3873
3574.106	3955
3575.797	3876
3577.485	3846
3579.174	3799
3580.863	3816
3582.551	3891
3584.238	3865
3585.926	3815
3587.613	3885
3589.3	3893
3590.986	3823
3592.671	3804
3594.357	3834
3596.042	3845
3597.726	3843
3599.41	3915
3601.094	3723
3602.778	3778
3604.461	3735
3606.143	3836
3607.825	3813
3609.507	3770
3611.188	3681
3612.87	3749
3614.551	3768
3616.229	3750
3617.909	3795
3619.589	3801
3621.269	3796
3622.948	3750
3624.625	3775
3626.302	3740
3627.98	3599
3629.657	3694
3631.334	3647
3633.01	3713
3634.686	3637
3636.361	3719
3638.036	3682
3639.712	3696
3641.385	3605
3643.06	3656
3644.732	3601
3646.405	3631
3648.08	3654
3649.751	3686
3651.424	3663
3653.094	3624
3654.766	3611
3656.436	3571
3658.106	3692
3659.777	3682
3661.446	3641
3663.115	3651
3664.783	3557
3666.452	3606
3668.121	3679
3669.788	3679
3671.454	3640
3673.121	3628
3674.789	3624
3676.455	3588
3678.12	3716
3679.784	3566
3681.45	3557
3683.114	3598
3684.779	3613
3686.442	3653
3688.105	3619
3689.768	3613
3691.43	3638
3693.093	3566
3694.754	3611
3696.415	3595
3698.076	3540
3699.736	3502
3701.396	3618
3703.057	3571
3704.716	3573
3706.375	3574
3708.034	3578
3709.692	3504
3711.351	3570
3713.008	3566
3714.665	3578
3716.321	3483
3717.977	3466
3719.634	3562
3721.29	3555
3722.945	3527
3724.598	3600
3726.253	3557
3727.907	3483
3729.561	3476
3731.214	3435
3732.867	3482
3734.518	3446
3736.171	3528
3737.824	3445
3739.474	3472
3741.125	3560
3742.775	3489
3744.425	3522
3746.074	3574
3747.725	3445
3749.373	3533
3751.022	3464
3752.669	3433
3754.318	3422
3755.966	3518
3757.612	3437
3759.259	3449
3760.905	3523
3762.55	3498
3764.197	3405
3765.842	3513
3767.486	3440
3769.131	3503
3770.774	3438
3772.417	3486
3774.061	3416
3775.705	3497
3777.347	3389
3778.988	3394
3780.629	3437
3782.271	3395
3783.912	3435
3785.552	3383
3787.192	3374
3788.831	3332
3790.472	3396
3792.112	3374
3793.75	3433
3795.388	3311
3797.024	3426
3798.661	3294
3800.3	3356
3801.936	3434
3803.572	3325
3805.208	3362
3806.844	3415
3808.48	3298
3810.115	3330
3811.748	3402
3813.382	3385
3815.016	3315
3816.649	3343
3818.283	3289
3819.914	3345
3821.547	3330
3823.178	3369
3824.809	3342
3826.441	3339
3828.072	3357
3829.701	3243
3831.331	3323
3832.96	3308
3834.591	3361
3836.219	3248
3837.847	3263
3839.475	3323
3841.102	3341
3842.729	3272
3844.357	3292
3845.984	3183
3847.609	3344
3849.234	3300
3850.86	3215
3852.485	3199
3854.11	3229
3855.734	3267
3857.357	3209
3858.981	3229
3860.603	3252
3862.227	3300
3863.848	3253
3865.471	3231
3867.092	3259
3868.713	3199
3870.334	3198
3871.954	3250
3873.575	3204
3875.194	3155
3876.813	3139
3878.433	3255
3880.051	3191
3881.669	3155
3883.286	3255
3884.904	3158
3886.52	3176
3888.138	3175
3889.754	3217
3891.37	3228
3892.985	3084
3894.6	3234
3896.216	3243
3897.831	3184
3899.444	3137
3901.058	3235
3902.67	3167
3904.283	3156
3905.897	3135
3907.509	3156
3909.121	3185
3910.731	3143
3912.342	3136
3913.954	3181
3915.563	3178
3917.174	3099
3918.783	3146
3920.391	3157
3922.002	3174
3923.611	3185
3925.218	3187
3926.826	3143
3928.432	3096
3930.039	3156
3931.647	3130
3933.253	3082
3934.859	3196
3936.464	3123
3938.068	3094
3939.675	3179
3941.278	3080
3942.883	3074
3944.486	3113
3946.089	3085
3947.692	3127
3949.295	3163
3950.898	3078
3952.499	3059
3954.1	3095
3955.7	3062
3957.303	3083
3958.903	3127
3960.502	3100
3962.101	3065
3963.7	3069
3965.301	3075
3966.899	3058
3968.497	3074
3970.094	3110
3971.691	3112
3973.288	3004
3974.885	3084
3976.481	2969
3978.077	3088
3979.672	2982
3981.267	2995
3982.863	3041
3984.457	3083
3986.051	3059
3987.645	3111
3989.238	3012
3990.831	3012
3992.425	2955
3994.017	3016
3995.607	3036
3997.199	3042
3998.79	2942
4000.382	3026
4001.973	3016
4003.561	2981
4005.151	3006
4006.741	2964
4008.331	2935
4009.918	2979
4011.507	3037
4013.095	2939
4014.681	2977
4016.269	2896
4017.856	2863
4019.443	2889
4021.028	2965
4022.614	2911
4024.199	2918
4025.785	2961
4027.37	2939
4028.953	2908
4030.536	2890
4032.12	2945
4033.704	2912
4035.287	2904
4036.869	2925
4038.45	2922
4040.032	2899
4041.613	2797
4043.195	2932
4044.776	2817
4046.356	2896
4047.935	2866
4049.515	2888
4051.095	2887
4052.674	2878
4054.251	2837
4055.829	2849
4057.406	2838
4058.985	2842
4060.562	2931
4062.139	2837
4063.715	2827
4065.29	2854
4066.865	2884
4068.442	2833
4070.016	2885
4071.59	2920
4073.164	2825
4074.738	2849
4076.312	2750
4077.885	2787
4079.458	2885
4081.03	2858
4082.602	2794
4084.173	2780
4085.745	2847
4087.315	2841
4088.886	2831
4090.456	2801
4092.026	2858
4093.596	2764
4095.165	2785
4096.734	2798
4098.301	2747
4099.869	2728
4101.437	2864
4103.006	2803
4104.572	2765
4106.139	2750
4107.704	2765
4109.27	2743
4110.837	2739
4112.401	2740
4113.966	2696
4115.53	2738
4117.094	2813
4118.659	2745
4120.223	2706
4121.785	2786
4123.347	2681
4124.909	2734
4126.471	2711
4128.034	2782
4129.595	2723
4131.155	2703
4132.716	2697
4134.275	2738
4135.836	2680
4137.395	2752
4138.955	2740
4140.513	2708
4142.071	2652
4143.628	2715
4145.188	2717
4146.745	2646
4148.302	2666
4149.858	2671
4151.414	2656
4152.971	2707
4154.526	2616
4156.081	2646
4157.635	2636
4159.189	2585
4160.745	2682
4162.298	2665
4163.852	2724
4165.405	2694
4166.957	2654
4168.51	2635
4170.063	2673
4171.614	2585
4173.166	2646
4174.717	2621
4176.267	2652
4177.817	2657
4179.368	2634
4180.917	2586
4182.466	2615
4184.016	2664
4185.564	2635
4187.112	2581
4188.66	2657
4190.207	2639
4191.754	2552
4193.301	2569
4194.848	2624
4196.394	2600
4197.94	2537
4199.484	2628
4201.03	2600
4202.575	2583
4204.12	2632
4205.663	2602
4207.207	2473
4208.75	2530
4210.292	2597
4211.836	2548
4213.378	2588
4214.92	2583
4216.46	2520
4218.002	2591
4219.544	2564
4221.083	2558
4222.625	2591
4224.164	2522
4225.703	2529
4227.244	2536
4228.782	2558
4230.32	2450
4231.857	2543
4233.395	2526
4234.933	2599
4236.471	2583
4238.007	2481
4239.542	2524
4241.078	2529
4242.614	2489
4244.15	2533
4245.685	2511
4247.219	2537
4248.753	2531
4250.287	2491
4251.82	2546
4253.354	2564
4254.887	2482
4256.419	2494
4257.951	2493
4259.483	2498
4261.016	2471
4262.547	2449
4264.078	2448
4265.608	2543
4267.137	2450
4268.668	2530
4270.197	2400
4271.727	2516
4273.254	2479
4274.783	2465
4276.311	2464
4277.84	2480
4279.366	2502
4280.894	2498
4282.42	2487
4283.946	2495
4285.473	2478
4286.998	2398
4288.523	2384
4290.047	2476
4291.572	2429
4293.096	2424
4294.622	2419
4296.144	2491
4297.668	2417
4299.19	2441
4300.713	2444
4302.236	2414
4303.758	2437
4305.279	2429
4306.799	2422
4308.321	2386
4309.842	2461
4311.361	2392
4312.882	2362
4314.401	2405
