400.0961	2385
402.6185	2360
405.1424	2384
407.6635	2481
410.1838	2402
412.7035	2416
415.2225	2459
417.7388	2478
420.2585	2478
422.7754	2473
425.2917	2514
427.8072	2567
430.3221	2642
432.8363	2635
435.3498	2587
437.8626	2599
440.3727	2516
442.8841	2529
445.3969	2551
447.907	2576
450.4142	2596
452.9229	2503
455.4289	2535
457.9362	2524
460.4449	2487
462.9488	2552
465.454	2482
467.9566	2470
470.4604	2497
472.9637	2458
475.4662	2558
477.966	2518
480.4671	2548
482.9656	2535
485.4633	2495
487.9645	2528
490.4608	2627
492.9566	2587
495.4536	2539
497.948	2526
500.4437	2574
502.9387	2551
505.431	2574
507.9226	2557
510.4136	2639
512.9079	2624
515.3975	2508
517.8864	2625
520.3746	2636
522.8622	2586
525.3491	2619
527.8394	2576
530.3249	2595
532.8098	2607
535.2939	2555
537.7774	2569
540.2623	2593
542.7444	2650
545.2259	2575
547.7067	2616
550.1868	2669
552.6683	2607
555.147	2620
557.6231	2650
560.1005	2671
562.5773	2644
565.0534	2638
567.5308	2655
570.0056	2692
572.4776	2732
574.951	2665
577.4237	2721
579.8978	2726
582.3671	2744
584.8378	2685
587.3079	2794
589.7773	2707
592.244	2737
594.714	2736
597.1793	2744
599.6461	2689
602.1121	2617
604.5754	2708
607.0421	2711
609.5042	2741
611.9675	2714
614.4282	2654
616.8902	2681
619.3515	2745
621.8122	2643
624.2702	2702
626.7296	2640
629.1863	2714
631.6423	2626
634.1017	2604
636.5563	2690
639.0104	2731
641.4658	2651
643.9185	2731
646.3725	2640
648.8239	2713
651.2766	2650
653.7266	2655
656.176	2698
658.6247	2660
661.0748	2738
663.5242	2747
665.9709	2675
668.417	2737
670.8624	2715
673.3092	2726
675.7533	2765
678.1968	2696
680.6395	2727
683.0817	2828
685.5251	2754
687.9659	2753
690.4061	2806
692.8456	2740
695.2844	2714
697.7226	2737
700.1621	2782
702.599	2793
705.0332	2831
707.4688	2797
709.9036	2801
712.3399	2864
714.7735	2812
717.2044	2818
719.6367	2778
722.0683	2814
724.4993	2818
726.9296	2794
729.3593	2777
731.7883	2870
734.2147	2810
736.6423	2804
739.0714	2865
741.4958	2816
743.9216	2904
746.3447	2913
748.7691	2861
751.1929	2907
753.616	2953
756.0366	2908
758.4584	2921
760.8776	2887
763.2982	2952
765.718	2925
768.1373	2967
770.5539	2885
772.9698	2960
775.3871	2901
777.8038	2958
780.2178	2894
782.6332	2959
785.0459	2904
787.458	2896
789.8714	2938
792.2842	2955
794.6943	2833
797.1038	3023
799.5127	2917
801.9209	2982
804.3324	2957
806.7393	2979
809.1456	2998
811.5513	2982
813.9562	2940
816.3625	2950
818.7663	2963
821.1693	3000
823.5718	2928
825.9735	2872
828.3746	2952
830.7771	2995
833.177	2916
835.5762	3045
837.9747	2991
840.3727	3031
842.772	3058
845.1666	2983
847.5626	2974
849.958	3034
852.3527	3071
854.7488	3108
857.1403	3022
859.5331	3034
861.9253	3050
864.3168	3012
866.7057	3049
869.098	3013
871.4876	3034
873.8746	3046
876.263	3081
878.6487	3085
881.0378	2998
883.4243	3034
885.8081	3023
888.1933	3068
890.5759	3026
892.9598	3055
895.343	3022
897.7256	3044
900.1057	3110
902.4871	3042
904.8659	3043
907.246	3076
909.6254	3059
912.0023	3073
914.3786	3151
916.7562	3133
919.1331	3202
921.5074	3222
923.8831	3213
926.2562	3240
928.6287	3272
931.0005	3273
933.3757	3229
935.7462	3291
938.1162	3188
940.4855	3347
942.8542	3293
945.2242	3314
947.5916	3370
949.9584	3528
952.3266	3562
954.6921	3761
957.0571	3832
959.4233	4012
961.787	4015
964.15	4052
966.5125	3970
968.8742	3754
971.2354	3609
973.5959	3470
975.9559	3370
978.3151	3297
980.6738	3247
983.0338	3173
985.3912	3182
987.7461	3064
990.1022	3126
992.4578	3148
994.8127	3169
997.1689	3121
999.5207	3149
1001.874	3192
1004.226	3201
1006.576	3181
1008.929	3205
1011.28	3146
1013.628	3232
1015.977	3140
1018.324	3118
1020.674	3204
1023.019	3130
1025.366	3178
1027.713	3171
1030.056	3210
1032.399	3231
1034.746	3238
1037.087	3152
1039.431	3227
1041.771	3228
1044.113	3145
1046.454	3152
1048.793	3281
1051.133	3241
1053.471	3254
1055.807	3300
1058.146	3166
1060.483	3277
1062.818	3230
1065.153	3276
1067.489	3189
1069.822	3322
1072.156	3288
1074.488	3334
1076.82	3298
1079.15	3202
1081.48	3319
1083.814	3279
1086.143	3270
1088.471	3200
1090.799	3248
1093.126	3317
1095.452	3199
1097.78	3246
1100.105	3308
1102.43	3237
1104.754	3220
1107.077	3237
1109.4	3287
1111.722	3198
1114.044	3172
1116.365	3233
1118.685	3172
1121.005	3241
1123.324	3240
1125.643	3243
1127.961	3284
1130.278	3191
1132.595	3245
1134.911	3249
1137.226	3233
1139.541	3237
1141.854	3275
1144.167	3243
1146.482	3230
1148.793	3203
1151.105	3243
1153.414	3284
1155.725	3310
1158.033	3210
1160.344	3255
1162.651	3364
1164.959	3282
1167.265	3217
1169.572	3224
1171.878	3192
1174.184	3305
1176.488	3245
1178.79	3232
1181.094	3307
1183.396	3204
1185.699	3265
1188.001	3326
1190.301	3166
1192.6	3233
1194.9	3296
1197.2	3255
1199.497	3283
1201.794	3241
1204.09	3354
1206.387	3260
1208.684	3304
1210.978	3264
1213.272	3323
1215.565	3312
1217.858	3251
1220.15	3280
1222.443	3241
1224.734	3255
1227.024	3294
1229.313	3283
1231.602	3341
1233.892	3394
1236.18	3428
1238.467	3366
1240.754	3409
1243.04	3414
1245.325	3414
1247.612	3387
1249.896	3453
1252.178	3430
1254.461	3447
1256.743	3350
1259.027	3354
1261.308	3369
1263.587	3387
1265.867	3413
1268.146	3474
1270.425	3404
1272.703	3483
1274.981	3442
1277.256	3378
1279.532	3414
1281.808	3308
1284.083	3414
1286.358	3426
1288.63	3358
1290.904	3312
1293.175	3365
1295.449	3316
1297.719	3313
1299.99	3314
1302.259	3393
1304.529	3309
1306.798	3307
1309.065	3387
1311.333	3363
1313.599	3391
1315.866	3315
1318.131	3363
1320.396	3388
1322.66	3316
1324.925	3359
1327.187	3386
1329.448	3429
1331.711	3344
1333.974	3364
1336.234	3391
1338.493	3369
1340.752	3339
1343.01	3337
1345.269	3367
1347.526	3376
1349.784	3362
1352.04	3283
1354.295	3355
1356.552	3358
1358.806	3336
1361.059	3461
1363.312	3254
1365.564	3431
1367.818	3361
1370.069	3374
1372.318	3327
1374.568	3448
1376.817	3352
1379.066	3442
1381.316	3440
1383.564	3363
1385.809	3432
1388.056	3428
1390.301	3381
1392.549	3439
1394.793	3405
1397.036	3474
1399.279	3500
1401.522	3594
1403.763	3597
1406.007	3513
1408.248	3563
1410.487	3512
1412.727	3565
1414.965	3503
1417.205	3500
1419.442	3462
1421.68	3516
1423.915	3547
1426.152	3526
1428.388	3492
1430.623	3560
1432.857	3535
1435.091	3521
1437.323	3498
1439.556	3493
1441.789	3552
1444.019	3490
1446.25	3516
1448.48	3525
1450.708	3546
1452.938	3602
1455.167	3566
1457.394	3615
1459.62	3682
1461.846	3610
1464.073	3572
1466.299	3574
1468.523	3516
1470.746	3444
1472.969	3550
1475.191	3503
1477.415	3444
1479.636	3387
1481.858	3499
1484.078	3374
1486.298	3430
1488.518	3396
1490.736	3504
1492.954	3367
1495.169	3323
1497.386	3325
1499.602	3403
1501.819	3408
1504.034	3416
1506.248	3446
1508.462	3290
1510.675	3371
1512.888	3267
1515.1	3339
1517.311	3366
1519.522	3409
1521.732	3323
1523.942	3353
1526.151	3382
1528.36	3427
1530.566	3293
1532.773	3454
1534.98	3367
1537.187	3395
1539.392	3370
1541.596	3352
1543.801	3341
1546.005	3375
1548.208	3307
1550.411	3389
1552.612	3355
1554.814	3414
1557.013	3444
1559.212	3529
1561.414	3432
1563.612	3349
1565.811	3439
1568.007	3337
1570.203	3471
1572.403	3487
1574.598	3425
1576.792	3452
1578.988	3502
1581.181	3429
1583.376	3512
1585.568	3497
1587.761	3450
1589.952	3416
1592.143	3534
1594.333	3427
1596.524	3451
1598.715	3518
1600.903	3497
1603.091	3541
1605.278	3502
1607.466	3500
1609.652	3481
1611.838	3537
1614.023	3567
1616.207	3501
1618.391	3560
1620.576	3577
1622.759	3580
1624.941	3557
1627.123	3546
1629.304	3596
1631.484	3602
1633.664	3571
1635.844	3593
1638.022	3559
1640.201	3594
1642.38	3582
1644.556	3537
1646.732	3581
1648.908	3585
1651.084	3591
1653.257	3520
1655.433	3621
1657.607	3517
1659.779	3560
1661.951	3594
1664.122	3628
1666.295	3609
1668.467	3636
1670.635	3539
1672.805	3673
1674.973	3564
1677.142	3579
1679.31	3608
1681.478	3670
1683.644	3624
1685.81	3606
1687.975	3646
1690.142	3644
1692.305	3627
1694.468	3513
1696.632	3487
1698.794	3492
1700.957	3489
1703.119	3562
1705.279	3490
1707.439	3493
1709.598	3495
1711.758	3499
1713.917	3521
1716.075	3500
1718.231	3502
1720.388	3500
1722.543	3479
1724.702	3579
1726.856	3511
1729.01	3466
1731.164	3418
1733.317	3461
1735.471	3539
1737.623	3464
1739.774	3539
1741.925	3456
1744.075	3494
1746.225	3357
1748.376	3529
1750.524	3490
1752.672	3503
1754.82	3541
1756.965	3532
1759.113	3471
1761.259	3528
1763.405	3543
1765.549	3536
1767.694	3433
1769.836	3473
1771.981	3553
1774.123	3505
1776.264	3482
1778.405	3469
1780.546	3541
1782.687	3497
1784.827	3555
1786.966	3590
1789.103	3559
1791.242	3535
1793.381	3482
1795.517	3471
1797.653	3556
1799.788	3498
1801.923	3522
1804.057	3523
1806.193	3569
1808.326	3588
1810.457	3542
1812.59	3491
1814.721	3534
1816.855	3511
1818.984	3588
1821.113	3569
1823.244	3584
1825.372	3482
1827.499	3535
1829.63	3459
1831.756	3439
1833.882	3439
1836.007	3520
1838.132	3495
1840.26	3531
1842.384	3577
1844.507	3537
1846.63	3528
1848.752	3464
1850.875	3535
1852.996	3500
1855.118	3510
1857.238	3514
1859.358	3497
1861.477	3550
1863.597	3451
1865.715	3458
1867.832	3459
1869.948	3462
1872.064	3440
1874.181	3552
1876.297	3601
1878.411	3447
1880.526	3497
1882.639	3528
1884.752	3472
1886.865	3527
1888.977	3606
1891.089	3415
1893.2	3494
1895.308	3498
1897.42	3504
1899.53	3566
1901.639	3519
1903.745	3490
1905.853	3607
1907.962	3565
1910.067	3487
1912.174	3483
1914.278	3572
1916.383	3505
1918.486	3600
1920.592	3553
1922.694	3526
1924.797	3510
1926.898	3476
1929	3545
1931.102	3528
1933.203	3548
1935.301	3550
1937.401	3518
1939.499	3499
1941.598	3565
1943.697	3621
1945.793	3553
1947.888	3606
1949.985	3629
1952.08	3499
1954.176	3581
1956.269	3501
1958.364	3501
1960.457	3554
1962.549	3536
1964.642	3573
1966.733	3628
1968.823	3564
1970.913	3582
1973.005	3546
1975.093	3520
1977.184	3472
1979.271	3582
1981.359	3553
1983.446	3549
1985.532	3518
1987.619	3539
1989.705	3564
1991.789	3581
1993.874	3463
1995.956	3513
1998.041	3526
2000.123	3453
2002.206	3558
2004.287	3584
2006.368	3520
2008.449	3542
2010.529	3480
2012.609	3564
2014.688	3520
2016.766	3600
2018.843	3515
2020.922	3628
2022.999	3538
2025.074	3523
2027.15	3558
2029.225	3529
2031.299	3578
2033.375	3510
2035.447	3593
2037.52	3577
2039.592	3501
2041.664	3518
2043.736	3610
2045.807	3558
2047.876	3468
2049.947	3581
2052.015	3603
2054.086	3507
2056.153	3526
2058.221	3571
2060.288	3503
2062.353	3595
2064.42	3615
2066.486	3617
2068.55	3629
2070.614	3570
2072.678	3519
2074.741	3541
2076.805	3557
2078.866	3582
2080.929	3553
2082.99	3496
2085.049	3512
2087.109	3633
2089.17	3535
2091.228	3559
2093.286	3547
2095.344	3587
2097.4	3440
2099.46	3564
2101.516	3490
2103.572	3567
2105.626	3537
2107.679	3509
2109.735	3562
2111.788	3567
2113.841	3554
2115.894	3498
2117.945	3542
2119.997	3436
2122.049	3572
2124.1	3631
2126.148	3497
2128.197	3559
2130.246	3594
2132.296	3568
2134.342	3556
2136.39	3578
2138.437	3540
2140.483	3557
2142.527	3505
2144.574	3567
2146.619	3536
2148.661	3549
2150.705	3530
2152.747	3530
2154.792	3522
2156.832	3488
2158.874	3551
2160.915	3462
2162.954	3515
2164.995	3546
2167.034	3574
2169.072	3566
2171.111	3465
2173.148	3518
2175.186	3441
2177.223	3512
2179.258	3603
2181.294	3532
2183.328	3484
2185.362	3488
2187.398	3517
2189.431	3504
2191.463	3516
2193.495	3497
2195.528	3554
2197.56	3526
2199.59	3478
2201.62	3561
2203.649	3504
2205.678	3461
2207.708	3503
2209.737	3466
2211.764	3380
2213.791	3511
2215.817	3498
2217.843	3493
2219.87	3555
2221.895	3455
2223.919	3443
2225.942	3438
2227.966	3483
2229.988	3527
2232.012	3514
2234.032	3405
2236.054	3410
2238.074	3437
2240.095	3525
2242.116	3470
2244.135	3514
2246.153	3471
2248.171	3509
2250.188	3539
2252.208	3446
2254.223	3499
2256.239	3521
2258.255	3513
2260.269	3509
2262.283	3460
2264.3	3531
2266.312	3392
2268.325	3442
2270.336	3381
2272.349	3513
2274.362	3454
2276.372	3506
2278.383	3471
2280.392	3548
2282.402	3483
2284.409	3479
2286.418	3436
2288.427	3505
2290.433	3434
2292.441	3423
2294.446	3424
2296.453	3464
2298.459	3428
2300.463	3470
2302.466	3424
2304.471	3530
2306.475	3482
2308.477	3428
2310.478	3498
2312.481	3449
2314.481	3520
2316.481	3434
2318.482	3410
2320.482	3529
2322.48	3452
2324.48	3371
2326.478	3456
2328.476	3390
2330.473	3384
2332.469	3431
2334.465	3487
2336.46	3334
2338.454	3412
2340.45	3402
2342.444	3469
2344.437	3394
2346.43	3452
2348.421	3443
2350.414	3415
2352.405	3414
2354.396	3356
2356.386	3413
2358.376	3373
2360.366	3411
2362.355	3413
2364.343	3465
2366.331	3394
2368.317	3452
2370.304	3408
2372.292	3429
2374.278	3401
2376.262	3434
2378.247	3441
2380.23	3416
2382.216	3384
2384.199	3372
2386.181	3391
2388.163	3397
2390.144	3460
2392.127	3413
2394.107	3388
2396.087	3386
2398.066	3466
2400.046	3416
2402.023	3374
2404.004	3433
2405.981	3406
2407.957	3380
2409.934	3413
2411.91	3316
2413.886	3425
2415.862	3324
2417.836	3371
2419.809	3414
2421.784	3280
2423.756	3313
2425.73	3339
2427.701	3454
2429.672	3424
2431.644	3277
2433.615	3408
2435.586	3413
2437.555	3436
2439.523	3366
2441.491	3389
2443.459	3332
2445.428	3387
2447.395	3374
2449.361	3400
2451.327	3342
2453.292	3429
2455.257	3397
2457.223	3453
2459.187	3321
2461.15	3389
2463.113	3321
2465.076	3406
2467.039	3382
2468.999	3347
2470.96	3351
2472.921	3332
2474.881	3317
2476.841	3323
2478.8	3333
2480.759	3411
2482.717	3329
2484.675	3376
2486.63	3338
2488.589	3358
2490.545	3342
2492.5	3355
2494.455	3349
2496.408	3376
2498.364	3278
2500.318	3296
2502.27	3299
2504.223	3419
2506.174	3403
2508.126	3337
2510.078	3321
2512.03	3335
2513.979	3311
2515.927	3365
2517.877	3383
2519.826	3364
2521.775	3310
2523.722	3423
2525.668	3295
2527.616	3227
2529.561	3337
2531.508	3319
2533.452	3286
2535.398	3327
2537.342	3363
2539.284	3324
2541.229	3387
2543.173	3315
2545.114	3350
2547.055	3367
2548.996	3366
2550.938	3283
2552.878	3306
2554.817	3376
2556.756	3297
2558.695	3298
2560.633	3263
2562.572	3334
2564.509	3318
2566.445	3271
2568.382	3337
2570.317	3336
2572.254	3325
2574.189	3349
2576.123	3355
2578.057	3312
2579.99	3304
2581.923	3296
2583.855	3273
2585.788	3327
2587.719	3335
2589.65	3329
2591.579	3291
2593.511	3324
2595.44	3263
2597.37	3303
2599.297	3326
2601.225	3284
2603.153	3325
2605.08	3367
2607.007	3362
2608.932	3293
2610.858	3328
2612.782	3447
2614.709	3365
2616.632	3318
2618.556	3277
2620.478	3415
2622.401	3339
2624.324	3387
2626.247	3273
2628.167	3372
2630.088	3251
2632.008	3358
2633.928	3344
2635.848	3361
2637.766	3336
2639.684	3414
2641.603	3315
2643.519	3388
2645.437	3325
2647.353	3312
2649.27	3387
2651.184	3401
2653.099	3376
2655.014	3369
2656.928	3310
2658.842	3333
2660.755	3294
2662.667	3315
2664.579	3373
2666.491	3380
2668.402	3373
2670.312	3399
2672.222	3330
2674.132	3299
2676.042	3292
2677.951	3260
2679.859	3355
2681.766	3360
2683.674	3292
2685.582	3294
2687.488	3256
2689.392	3268
2691.298	3320
2693.202	3284
2695.107	3353
2697.012	3332
2698.914	3253
2700.817	3282
2702.72	3296
2704.622	3304
2706.524	3312
2708.425	3272
2710.326	3352
2712.225	3351
2714.125	3292
2716.024	3426
2717.923	3261
2719.822	3285
2721.719	3322
2723.616	3308
2725.512	3314
2727.41	3330
2729.305	3253
2731.201	3303
2733.095	3283
2734.99	3309
2736.884	3228
2738.778	3297
2740.67	3309
2742.562	3301
2744.455	3277
2746.346	3215
2748.238	3321
2750.129	3299
2752.018	3335
2753.907	3219
2755.797	3314
2757.687	3288
2759.575	3269
2761.462	3282
2763.349	3253
2765.237	3331
2767.124	3262
2769.009	3233
2770.894	3236
2772.779	3277
2774.663	3290
2776.547	3287
2778.431	3286
2780.314	3318
2782.197	3258
2784.078	3330
2785.96	3242
2787.842	3246
2789.723	3301
2791.603	3239
2793.483	3215
2795.362	3248
2797.241	3283
2799.121	3270
2800.997	3209
2802.874	3257
2804.751	3257
2806.628	3255
2808.506	3262
2810.38	3262
2812.255	3259
2814.13	3286
2816.003	3219
2817.878	3331
2819.752	3323
2821.623	3255
2823.496	3179
2825.368	3301
2827.238	3266
2829.111	3274
2830.98	3302
2832.851	3307
2834.719	3267
2836.589	3262
2838.458	3288
2840.327	3225
2842.193	3272
2844.061	3381
2845.927	3293
2847.794	3264
2849.66	3346
2851.525	3311
2853.39	3343
2855.254	3337
2857.117	3326
2858.983	3290
2860.845	3321
2862.707	3383
2864.569	3443
2866.431	3322
2868.293	3418
2870.154	3376
2872.013	3448
2873.873	3483
2875.733	3431
2877.592	3551
2879.451	3490
2881.309	3534
2883.166	3596
2885.022	3567
2886.879	3647
2888.736	3662
2890.591	3690
2892.446	3582
2894.301	3656
2896.155	3675
2898.009	3667
2899.863	3690
2901.716	3601
2903.568	3601
2905.419	3666
2907.27	3605
2909.123	3609
2910.973	3546
2912.824	3714
2914.673	3759
2916.521	3704
2918.372	3704
2920.22	3734
2922.067	3797
2923.914	3801
2925.761	3800
2927.607	3891
2929.455	3960
2931.301	4017
2933.144	3949
2934.99	4072
2936.833	3985
2938.678	3949
2940.522	4040
2942.364	4052
2944.207	4150
2946.048	4052
2947.891	4143
2949.731	4119
2951.571	4218
2953.412	4188
2955.25	4101
2957.09	4053
2958.93	4060
2960.767	4084
2962.606	3874
2964.443	4049
2966.279	3906
2968.116	3833
2969.953	3879
2971.788	3827
2973.623	3717
2975.457	3727
2977.292	3801
2979.127	3703
2980.959	3754
2982.792	3633
2984.624	3742
2986.455	3646
2988.288	3617
2990.119	3557
2991.949	3542
2993.779	3544
2995.608	3514
2997.439	3522
2999.268	3501
3001.096	3468
3002.923	3445
3004.751	3346
3006.578	3334
3008.406	3479
3010.232	3381
3012.057	3323
3013.883	3367
3015.706	3298
3017.532	3199
3019.356	3287
3021.179	3224
3023.002	3211
3024.823	3190
3026.646	3269
3028.469	3148
3030.289	3060
3032.11	3236
3033.93	3158
3035.749	3195
3037.57	3145
3039.39	3185
3041.207	3130
3043.026	3162
3044.842	3150
3046.661	3203
3048.477	3185
3050.294	3169
3052.109	3163
3053.925	3199
3055.739	3258
3057.555	3126
3059.368	3166
3061.181	3098
3062.995	3132
3064.807	3105
3066.62	3095
3068.433	3151
3070.243	3110
3072.054	3129
3073.865	3167
3075.675	3128
3077.485	3103
3079.293	3128
3081.102	3117
3082.911	3093
3084.719	3123
3086.527	3145
3088.333	3022
3090.139	3077
3091.945	3077
3093.75	3071
3095.557	3105
3097.361	3047
3099.165	3075
3100.969	3057
3102.772	3078
3104.575	3081
3106.379	3034
3108.181	3010
3109.982	3064
3111.783	3040
3113.584	3066
3115.386	3037
3117.186	2971
3118.985	3025
3120.783	3034
3122.582	3039
3124.381	3030
3126.179	3074
3127.975	2951
3129.772	3026
3131.569	3041
3133.365	2995
3135.161	2971
3136.956	3017
3138.751	2985
3140.544	3023
3142.338	3058
3144.132	2994
3145.925	3002
3147.717	3020
3149.509	2970
3151.301	3005
3153.091	2939
3154.884	3072
3156.673	2971
3158.462	3049
3160.252	2934
3162.041	3045
3163.831	2991
3165.618	3007
3167.405	2979
3169.193	3003
3170.979	2916
3172.767	2971
3174.553	2992
3176.338	2942
3178.123	3015
3179.907	2937
3181.692	2878
3183.477	2959
3185.259	2998
3187.042	2977
3188.824	3002
3190.607	2976
3192.389	2961
3194.17	2994
3195.951	2940
3197.73	2924
3199.51	2947
3201.289	2916
3203.07	2979
3204.848	2933
3206.626	2879
3208.403	2989
3210.18	2883
3211.959	2867
3213.735	2940
3215.511	2898
3217.285	2942
3219.06	2928
3220.836	2958
3222.611	2877
3224.384	2951
3226.158	2919
3227.929	2943
3229.702	2917
3231.476	2954
3233.248	2933
3235.018	2952
3236.789	2997
3238.56	2964
3240.33	2888
3242.1	3005
3243.869	2936
3245.637	2948
3247.405	2923
3249.172	2979
3250.941	2999
3252.707	2910
3254.474	2987
3256.24	2900
3258.006	2977
3259.772	3007
3261.537	2974
3263.301	2954
3265.065	2933
3266.828	3000
3268.592	2921
3270.355	2979
3272.117	2988
3273.878	2867
3275.64	2937
3277.401	2967
3279.162	3015
3280.922	2946
3282.682	3021
3284.441	2974
3286.199	2998
3287.959	2956
3289.716	2961
3291.475	2961
3293.232	3014
3294.988	2934
3296.744	2971
3298.501	3026
3300.256	3081
3302.011	2975
3303.766	2946
3305.52	2982
3307.275	2979
3309.028	2983
3310.781	3030
3312.533	2976
3314.285	2951
3316.038	2926
3317.789	2945
3319.54	3004
3321.289	2996
3323.039	2931
3324.789	2917
3326.539	2954
3328.288	2955
3330.035	2987
3331.783	2979
3333.531	2962
3335.28	2934
3337.025	2976
3338.771	2920
3340.518	2968
3342.262	2963
3344.009	2856
3345.753	2956
3347.497	2977
3349.24	2972
3350.983	2935
3352.726	2869
3354.469	2926
3356.212	2853
3357.952	2928
3359.694	2878
3361.434	2954
3363.176	2858
3364.916	2927
3366.654	2916
3368.394	2942
3370.132	2849
3371.871	2870
3373.61	2875
3375.346	2968
3377.083	2877
3378.82	2858
3380.556	2874
3382.292	2862
3384.027	2850
3385.763	2811
3387.497	2863
3389.231	2894
3390.965	2906
3392.698	2871
3394.431	2849
3396.164	2816
3397.896	2927
3399.627	2876
3401.36	2818
3403.09	2894
3404.82	2849
3406.55	2833
3408.279	2856
3410.01	2810
3411.738	2848
3413.467	2851
3415.194	2834
3416.92	2821
3418.647	2833
3420.375	2753
3422.102	2775
3423.827	2848
3425.553	2832
3427.277	2846
3429.003	2745
3430.727	2811
3432.451	2780
3434.173	2792
3435.896	2755
3437.62	2763
3439.343	2831
3441.063	2764
3442.785	2838
3444.505	2774
3446.226	2821
3447.948	2828
3449.666	2731
3451.386	2804
3453.104	2743
3454.823	2731
3456.541	2785
3458.259	2766
3459.976	2767
3461.693	2791
3463.408	2762
3465.125	2714
3466.841	2793
3468.556	2681
3470.271	2741
3471.985	2767
3473.698	2692
3475.414	2768
3477.126	2675
3478.838	2681
3480.55	2739
3482.263	2664
3483.975	2682
3485.686	2721
3487.396	2620
3489.106	2661
3490.817	2741
3492.526	2711
3494.236	2616
3495.944	2723
3497.652	2694
3499.359	2643
3501.066	2549
3502.775	2693
3504.481	2696
3506.187	2620
3507.893	2616
3509.598	2674
3511.304	2722
3513.009	2661
3514.713	2696
3516.417	2644
3518.12	2618
3519.821	2569
3521.525	2561
3523.228	2642
3524.929	2635
3526.631	2609
3528.33	2563
3530.032	2583
3531.733	2621
3533.433	2638
3535.131	2631
3536.83	2608
3538.529	2575
3540.227	2570
3541.925	2644
3543.623	2618
3545.319	2622
3547.016	2602
3548.712	2604
3550.408	2615
3552.103	2611
3553.798	2670
3555.491	2554
3557.188	2534
3558.88	2660
3560.574	2541
3562.266	2601
3563.959	2542
3565.651	2587
3567.343	2529
3569.035	2568
3570.725	2588
3572.415	2526
3574.106	2541
3575.797	2593
3577.485	2549
3579.174	2543
3580.863	2542
3582.551	2515
3584.238	2453
3585.926	2507
3587.613	2608
3589.3	2552
3590.986	2567
3592.671	2466
3594.357	2562
3596.042	2611
3597.726	2520
3599.41	2489
3601.094	2468
3602.778	2525
3604.461	2429
3606.143	2490
3607.825	2452
3609.507	2456
3611.188	2477
3612.87	2541
3614.551	2497
3616.229	2483
3617.909	2520
3619.589	2483
3621.269	2400
3622.948	2459
3624.625	2413
3626.302	2386
3627.98	2390
3629.657	2465
3631.334	2417
3633.01	2454
3634.686	2457
3636.361	2444
3638.036	2396
3639.712	2430
3641.385	2466
3643.06	2390
3644.732	2409
3646.405	2469
3648.08	2357
3649.751	2442
3651.424	2382
3653.094	2407
3654.766	2348
3656.436	2428
3658.106	2419
3659.777	2379
3661.446	2399
3663.115	2404
3664.783	2388
3666.452	2339
3668.121	2398
3669.788	2349
3671.454	2402
3673.121	2357
3674.789	2333
3676.455	2424
3678.12	2345
3679.784	2367
3681.45	2416
3683.114	2394
3684.779	2331
3686.442	2362
3688.105	2302
3689.768	2375
3691.43	2339
3693.093	2387
3694.754	2313
3696.415	2325
3698.076	2326
3699.736	2347
3701.396	2274
3703.057	2306
3704.716	2337
3706.375	2344
3708.034	2369
3709.692	2324
3711.351	2321
3713.008	2294
3714.665	2341
3716.321	2315
3717.977	2299
3719.634	2290
3721.29	2367
3722.945	2359
3724.598	2355
3726.253	2301
3727.907	2295
3729.561	2335
3731.214	2240
3732.867	2293
3734.518	2316
3736.171	2317
3737.824	2308
3739.474	2319
3741.125	2335
3742.775	2284
3744.425	2304
3746.074	2286
3747.725	2267
3749.373	2277
3751.022	2312
3752.669	2272
3754.318	2259
3755.966	2340
3757.612	2290
3759.259	2252
3760.905	2248
3762.55	2302
3764.197	2221
3765.842	2280
3767.486	2316
3769.131	2270
3770.774	2319
3772.417	2228
3774.061	2251
3775.705	2277
3777.347	2286
3778.988	2239
3780.629	2300
3782.271	2254
3783.912	2241
3785.552	2300
3787.192	2251
3788.831	2251
3790.472	2239
3792.112	2276
3793.75	2282
3795.388	2303
3797.024	2215
3798.661	2269
3800.3	2245
3801.936	2214
3803.572	2199
3805.208	2219
3806.844	2272
3808.48	2178
3810.115	2141
3811.748	2223
3813.382	2253
3815.016	2264
3816.649	2211
3818.283	2207
3819.914	2260
3821.547	2185
3823.178	2216
3824.809	2210
3826.441	2265
3828.072	2218
3829.701	2172
3831.331	2149
3832.96	2214
3834.591	2186
3836.219	2179
3837.847	2192
3839.475	2179
3841.102	2207
3842.729	2152
3844.357	2144
3845.984	2180
3847.609	2162
3849.234	2220
3850.86	2204
3852.485	2100
3854.11	2100
3855.734	2193
3857.357	2200
3858.981	2151
3860.603	2178
3862.227	2208
3863.848	2161
3865.471	2155
3867.092	2181
3868.713	2206
3870.334	2135
3871.954	2194
3873.575	2123
3875.194	2128
3876.813	2124
3878.433	2177
3880.051	2147
3881.669	2089
3883.286	2122
3884.904	2178
3886.52	2108
3888.138	2184
3889.754	2179
3891.37	2172
3892.985	2148
3894.6	2145
3896.216	2149
3897.831	2123
3899.444	2190
3901.058	2163
3902.67	2119
3904.283	2176
3905.897	2102
3907.509	2073
3909.121	2147
3910.731	2124
3912.342	2149
3913.954	2090
3915.563	2099
3917.174	2135
3918.783	2141
3920.391	2198
3922.002	2133
3923.611	2199
3925.218	2154
3926.826	2152
3928.432	2107
3930.039	2088
3931.647	2112
3933.253	2063
3934.859	2098
3936.464	2076
3938.068	2080
3939.675	2109
3941.278	2100
3942.883	2115
3944.486	2115
3946.089	2072
3947.692	2063
3949.295	2115
3950.898	2094
3952.499	2105
3954.1	2099
3955.7	2099
3957.303	2118
3958.903	2124
3960.502	2110
3962.101	2106
3963.7	2050
3965.301	2089
3966.899	2090
3968.497	2133
3970.094	2030
3971.691	2032
3973.288	2122
3974.885	2030
3976.481	2092
3978.077	2100
3979.672	2022
3981.267	2061
3982.863	2035
3984.457	2050
3986.051	2038
3987.645	2041
3989.238	2051
3990.831	2080
3992.425	2036
3994.017	2057
3995.607	2084
3997.199	1963
3998.79	1971
4000.382	2062
4001.973	2002
4003.561	2001
4005.151	2038
4006.741	2070
4008.331	2042
4009.918	2083
4011.507	2019
4013.095	2002
4014.681	2043
4016.269	1961
4017.856	2015
4019.443	2030
4021.028	2009
4022.614	2013
4024.199	1970
4025.785	2017
4027.37	1971
4028.953	2030
4030.536	1961
4032.12	1974
4033.704	2016
4035.287	1980
4036.869	1984
4038.45	1967
4040.032	2011
4041.613	1997
4043.195	1977
4044.776	1931
4046.356	1951
4047.935	1926
4049.515	1961
4051.095	1974
4052.674	1962
4054.251	1938
4055.829	1945
4057.406	1977
4058.985	1926
4060.562	1980
4062.139	1955
4063.715	1970
4065.29	1966
4066.865	1956
4068.442	1942
4070.016	1916
4071.59	1950
4073.164	1922
4074.738	1934
4076.312	1967
4077.885	1884
4079.458	1965
4081.03	1980
4082.602	1925
4084.173	1962
4085.745	1930
4087.315	1951
4088.886	1925
4090.456	1989
4092.026	1927
4093.596	1938
4095.165	1913
4096.734	1949
4098.301	1925
4099.869	1963
4101.437	1936
4103.006	1892
4104.572	1937
4106.139	1891
4107.704	1929
4109.27	1943
4110.837	1910
4112.401	1886
4113.966	1904
4115.53	1918
4117.094	1949
4118.659	1915
4120.223	1928
4121.785	1873
4123.347	1924
4124.909	1934
4126.471	1902
4128.034	1844
4129.595	1822
4131.155	1869
4132.716	1839
4134.275	1872
4135.836	1888
4137.395	1846
4138.955	1907
4140.513	1897
4142.071	1842
4143.628	1841
4145.188	1906
4146.745	1872
4148.302	1883
4149.858	1858
4151.414	1921
4152.971	1886
4154.526	1813
4156.081	1830
4157.635	1866
4159.189	1862
4160.745	1877
4162.298	1888
4163.852	1852
4165.405	1873
4166.957	1867
4168.51	1838
4170.063	1864
4171.614	1858
4173.166	1790
4174.717	1788
4176.267	1864
4177.817	1843
4179.368	1789
4180.917	1805
4182.466	1805
4184.016	1820
4185.564	1850
4187.112	1789
4188.66	1813
4190.207	1829
4191.754	1808
4193.301	1810
4194.848	1806
4196.394	1787
4197.94	1798
4199.484	1861
4201.03	1823
4202.575	1785
4204.12	1835
4205.663	1748
4207.207	1770
4208.75	1813
4210.292	1822
4211.836	1735
4213.378	1708
4214.92	1813
4216.46	1786
4218.002	1794
4219.544	1745
4221.083	1787
4222.625	1786
4224.164	1808
4225.703	1771
4227.244	1787
4228.782	1813
4230.32	1834
4231.857	1807
4233.395	1795
4234.933	1760
4236.471	1811
4238.007	1770
4239.542	1732
4241.078	1745
4242.614	1742
4244.15	1823
4245.685	1766
4247.219	1825
4248.753	1789
4250.287	1709
4251.82	1764
4253.354	1765
4254.887	1710
4256.419	1755
4257.951	1772
4259.483	1783
4261.016	1798
4262.547	1783
4264.078	1740
4265.608	1693
4267.137	1799
4268.668	1778
4270.197	1764
4271.727	1765
4273.254	1789
4274.783	1721
4276.311	1760
4277.84	1754
4279.366	1745
4280.894	1718
4282.42	1740
4283.946	1704
4285.473	1701
4286.998	1729
4288.523	1718
4290.047	1741
4291.572	1761
4293.096	1747
4294.622	1703
4296.144	1785
4297.668	1696
4299.19	1723
4300.713	1713
4302.236	1750
4303.758	1737
4305.279	1681
4306.799	1709
4308.321	1712
4309.842	1745
4311.361	1700
4312.882	1725
4314.401	1706
