400.0961	2337
402.6185	2412
405.1424	2359
407.6635	2351
410.1838	2353
412.7035	2365
415.2225	2458
417.7388	2449
420.2585	2504
422.7754	2447
425.2917	2589
427.8072	2508
430.3221	2555
432.8363	2567
435.3498	2618
437.8626	2490
440.3727	2615
442.8841	2575
445.3969	2533
447.907	2545
450.4142	2541
452.9229	2565
455.4289	2536
457.9362	2534
460.4449	2474
462.9488	2439
465.454	2438
467.9566	2492
470.4604	2460
472.9637	2466
475.4662	2419
477.966	2461
480.4671	2489
482.9656	2497
485.4633	2487
487.9645	2479
490.4608	2470
492.9566	2482
495.4536	2564
497.948	2463
500.4437	2435
502.9387	2457
505.431	2588
507.9226	2516
510.4136	2548
512.9079	2567
515.3975	2485
517.8864	2532
520.3746	2514
522.8622	2517
525.3491	2547
527.8394	2547
530.3249	2585
532.8098	2582
535.2939	2583
537.7774	2578
540.2623	2544
542.7444	2599
545.2259	2568
547.7067	2607
550.1868	2576
552.6683	2531
555.147	2565
557.6231	2558
560.1005	2578
562.5773	2555
565.0534	2641
567.5308	2689
570.0056	2601
572.4776	2685
574.951	2653
577.4237	2742
579.8978	2654
582.3671	2686
584.8378	2739
587.3079	2730
589.7773	2748
592.244	2720
594.714	2739
597.1793	2663
599.6461	2646
602.1121	2693
604.5754	2587
607.0421	2616
609.5042	2674
611.9675	2669
614.4282	2630
616.8902	2658
619.3515	2648
621.8122	2557
624.2702	2647
626.7296	2644
629.1863	2631
631.6423	2634
634.1017	2560
636.5563	2620
639.0104	2548
641.4658	2597
643.9185	2613
646.3725	2656
648.8239	2636
651.2766	2589
653.7266	2664
656.176	2575
658.6247	2647
661.0748	2628
663.5242	2627
665.9709	2561
668.417	2678
670.8624	2688
673.3092	2614
675.7533	2642
678.1968	2597
680.6395	2662
683.0817	2713
685.5251	2710
687.9659	2698
690.4061	2737
692.8456	2703
695.2844	2710
697.7226	2719
700.1621	2625
702.599	2726
705.0332	2706
707.4688	2786
709.9036	2743
712.3399	2726
714.7735	2719
717.2044	2692
719.6367	2733
722.0683	2679
724.4993	2790
726.9296	2757
729.3593	2808
731.7883	2674
734.2147	2708
736.6423	2838
739.0714	2801
741.4958	2833
743.9216	2805
746.3447	2813
748.7691	2787
751.1929	2825
753.616	2793
756.0366	2879
758.4584	2827
760.8776	2910
763.2982	2812
765.718	2805
768.1373	2891
770.5539	2799
772.9698	2930
775.3871	2853
777.8038	2946
780.2178	2879
782.6332	2816
785.0459	2932
787.458	2894
789.8714	2835
792.2842	2808
794.6943	2913
797.1038	2818
799.5127	2810
801.9209	2797
804.3324	2967
806.7393	2910
809.1456	2851
811.5513	2875
813.9562	2875
816.3625	2941
818.7663	2964
821.1693	2934
823.5718	2933
825.9735	2929
828.3746	2900
830.7771	2931
833.177	2928
835.5762	2831
837.9747	2917
840.3727	2924
842.772	2930
845.1666	3005
847.5626	2954
849.958	2981
852.3527	3085
854.7488	3022
857.1403	3017
859.5331	3063
861.9253	3011
864.3168	2979
866.7057	2965
869.098	3003
871.4876	2923
873.8746	3085
876.263	3002
878.6487	2936
881.0378	2976
883.4243	2989
885.8081	3024
888.1933	2958
890.5759	2959
892.9598	2929
895.343	2987
897.7256	2949
900.1057	2988
902.4871	2964
904.8659	3082
907.246	3014
909.6254	3035
912.0023	3090
914.3786	3018
916.7562	3163
919.1331	3086
921.5074	3216
923.8831	3255
926.2562	3174
928.6287	3212
931.0005	3262
933.3757	3211
935.7462	3215
938.1162	3269
940.4855	3307
942.8542	3358
945.2242	3373
947.5916	3559
949.9584	3658
952.3266	3802
954.6921	3944
957.0571	4081
959.4233	4272
961.787	4452
964.15	4397
966.5125	4153
968.8742	4100
971.2354	3824
973.5959	3548
975.9559	3378
978.3151	3338
980.6738	3215
983.0338	3165
985.3912	3181
987.7461	3178
990.1022	3128
992.4578	3079
994.8127	3149
997.1689	3108
999.5207	3047
1001.874	3205
1004.226	3239
1006.576	3182
1008.929	3157
1011.28	3173
1013.628	3052
1015.977	3127
1018.324	3127
1020.674	3115
1023.019	3226
1025.366	3172
1027.713	3147
1030.056	3189
1032.399	3145
1034.746	3122
1037.087	3176
1039.431	3155
1041.771	3235
1044.113	3166
1046.454	3255
1048.793	3215
1051.133	3216
1053.471	3188
1055.807	3204
1058.146	3184
1060.483	3173
1062.818	3274
1065.153	3293
1067.489	3255
1069.822	3335
1072.156	3280
1074.488	3292
1076.82	3348
1079.15	3273
1081.48	3205
1083.814	3319
1086.143	3230
1088.471	3185
1090.799	3179
1093.126	3168
1095.452	3216
1097.78	3159
1100.105	3124
1102.43	3136
1104.754	3231
1107.077	3202
1109.4	3273
1111.722	3226
1114.044	3165
1116.365	3150
1118.685	3135
1121.005	3184
1123.324	3203
1125.643	3170
1127.961	3185
1130.278	3147
1132.595	3129
1134.911	3155
1137.226	3187
1139.541	3154
1141.854	3168
1144.167	3112
1146.482	3156
1148.793	3248
1151.105	3103
1153.414	3222
1155.725	3070
1158.033	3266
1160.344	3139
1162.651	3152
1164.959	3190
1167.265	3223
1169.572	3170
1171.878	3197
1174.184	3122
1176.488	3189
1178.79	3183
1181.094	3174
1183.396	3266
1185.699	3149
1188.001	3263
1190.301	3178
1192.6	3202
1194.9	3266
1197.2	3202
1199.497	3126
1201.794	3190
1204.09	3165
1206.387	3147
1208.684	3186
1210.978	3174
1213.272	3166
1215.565	3225
1217.858	3241
1220.15	3193
1222.443	3269
1224.734	3145
1227.024	3315
1229.313	3301
1231.602	3314
1233.892	3282
1236.18	3241
1238.467	3284
1240.754	3378
1243.04	3340
1245.325	3355
1247.612	3437
1249.896	3342
1252.178	3379
1254.461	3376
1256.743	3290
1259.027	3368
1261.308	3342
1263.587	3348
1265.867	3294
1268.146	3333
1270.425	3345
1272.703	3351
1274.981	3396
1277.256	3352
1279.532	3378
1281.808	3357
1284.083	3283
1286.358	3310
1288.63	3289
1290.904	3164
1293.175	3276
1295.449	3335
1297.719	3307
1299.99	3272
1302.259	3277
1304.529	3250
1306.798	3352
1309.065	3228
1311.333	3213
1313.599	3398
1315.866	3256
1318.131	3221
1320.396	3326
1322.66	3318
1324.925	3316
1327.187	3261
1329.448	3304
1331.711	3344
1333.974	3356
1336.234	3296
1338.493	3284
1340.752	3314
1343.01	3244
1345.269	3332
1347.526	3221
1349.784	3274
1352.04	3229
1354.295	3260
1356.552	3307
1358.806	3264
1361.059	3288
1363.312	3297
1365.564	3312
1367.818	3324
1370.069	3350
1372.318	3316
1374.568	3315
1376.817	3356
1379.066	3324
1381.316	3362
1383.564	3255
1385.809	3281
1388.056	3319
1390.301	3374
1392.549	3385
1394.793	3393
1397.036	3475
1399.279	3392
1401.522	3442
1403.763	3461
1406.007	3482
1408.248	3372
1410.487	3478
1412.727	3451
1414.965	3443
1417.205	3483
1419.442	3409
1421.68	3475
1423.915	3412
1426.152	3361
1428.388	3407
1430.623	3463
1432.857	3440
1435.091	3431
1437.323	3419
1439.556	3471
1441.789	3519
1444.019	3499
1446.25	3523
1448.48	3577
1450.708	3545
1452.938	3480
1455.167	3520
1457.394	3538
1459.62	3524
1461.846	3479
1464.073	3484
1466.299	3510
1468.523	3544
1470.746	3463
1472.969	3489
1475.191	3306
1477.415	3481
1479.636	3376
1481.858	3307
1484.078	3285
1486.298	3293
1488.518	3386
1490.736	3252
1492.954	3228
1495.169	3284
1497.386	3291
1499.602	3268
1501.819	3348
1504.034	3239
1506.248	3280
1508.462	3255
1510.675	3283
1512.888	3268
1515.1	3228
1517.311	3310
1519.522	3355
1521.732	3264
1523.942	3243
1526.151	3276
1528.36	3199
1530.566	3280
1532.773	3239
1534.98	3254
1537.187	3253
1539.392	3256
1541.596	3256
1543.801	3354
1546.005	3311
1548.208	3332
1550.411	3339
1552.612	3359
1554.814	3291
1557.013	3344
1559.212	3277
1561.414	3250
1563.612	3446
1565.811	3397
1568.007	3289
1570.203	3377
1572.403	3335
1574.598	3276
1576.792	3302
1578.988	3327
1581.181	3412
1583.376	3396
1585.568	3347
1587.761	3436
1589.952	3378
1592.143	3354
1594.333	3388
1596.524	3368
1598.715	3487
1600.903	3430
1603.091	3451
1605.278	3407
1607.466	3361
1609.652	3480
1611.838	3384
1614.023	3379
1616.207	3432
1618.391	3461
1620.576	3444
1622.759	3374
1624.941	3349
1627.123	3396
1629.304	3519
1631.484	3469
1633.664	3489
1635.844	3553
1638.022	3507
1640.201	3489
1642.38	3580
1644.556	3500
1646.732	3470
1648.908	3568
1651.084	3517
1653.257	3453
1655.433	3519
1657.607	3480
1659.779	3520
1661.951	3525
1664.122	3547
1666.295	3539
1668.467	3481
1670.635	3555
1672.805	3561
1674.973	3531
1677.142	3538
1679.31	3585
1681.478	3561
1683.644	3558
1685.81	3450
1687.975	3502
1690.142	3571
1692.305	3584
1694.468	3495
1696.632	3458
1698.794	3395
1700.957	3391
1703.119	3476
1705.279	3447
1707.439	3490
1709.598	3443
1711.758	3364
1713.917	3424
1716.075	3461
1718.231	3353
1720.388	3390
1722.543	3435
1724.702	3375
1726.856	3306
1729.01	3400
1731.164	3376
1733.317	3366
1735.471	3342
1737.623	3380
1739.774	3429
1741.925	3416
1744.075	3330
1746.225	3440
1748.376	3423
1750.524	3435
1752.672	3346
1754.82	3453
1756.965	3375
1759.113	3380
1761.259	3388
1763.405	3430
1765.549	3313
1767.694	3396
1769.836	3369
1771.981	3457
1774.123	3383
1776.264	3482
1778.405	3449
1780.546	3524
1782.687	3301
1784.827	3435
1786.966	3456
1789.103	3423
1791.242	3499
1793.381	3380
1795.517	3477
1797.653	3403
1799.788	3507
1801.923	3459
1804.057	3461
1806.193	3413
1808.326	3429
1810.457	3462
1812.59	3414
1814.721	3420
1816.855	3455
1818.984	3382
1821.113	3327
1823.244	3383
1825.372	3485
1827.499	3392
1829.63	3413
1831.756	3479
1833.882	3463
1836.007	3436
1838.132	3518
1840.26	3424
1842.384	3444
1844.507	3425
1846.63	3417
1848.752	3360
1850.875	3351
1852.996	3356
1855.118	3399
1857.238	3348
1859.358	3427
1861.477	3364
1863.597	3515
1865.715	3387
1867.832	3329
1869.948	3404
1872.064	3409
1874.181	3360
1876.297	3369
1878.411	3440
1880.526	3388
1882.639	3434
1884.752	3393
1886.865	3473
1888.977	3381
1891.089	3442
1893.2	3414
1895.308	3399
1897.42	3439
1899.53	3445
1901.639	3377
1903.745	3396
1905.853	3429
1907.962	3442
1910.067	3380
1912.174	3479
1914.278	3432
1916.383	3462
1918.486	3416
1920.592	3498
1922.694	3428
1924.797	3487
1926.898	3376
1929	3469
1931.102	3448
1933.203	3483
1935.301	3482
1937.401	3371
1939.499	3462
1941.598	3506
1943.697	3523
1945.793	3457
1947.888	3526
1949.985	3479
1952.08	3466
1954.176	3458
1956.269	3442
1958.364	3394
1960.457	3387
1962.549	3447
1964.642	3449
1966.733	3366
1968.823	3455
1970.913	3475
1973.005	3484
1975.093	3498
1977.184	3506
1979.271	3466
1981.359	3486
1983.446	3495
1985.532	3389
1987.619	3438
1989.705	3489
1991.789	3431
1993.874	3485
1995.956	3426
1998.041	3386
2000.123	3443
2002.206	3452
2004.287	3505
2006.368	3464
2008.449	3457
2010.529	3418
2012.609	3465
2014.688	3446
2016.766	3386
2018.843	3474
2020.922	3385
2022.999	3366
2025.074	3449
2027.15	3430
2029.225	3446
2031.299	3464
2033.375	3445
2035.447	3492
2037.52	3444
2039.592	3489
2041.664	3478
2043.736	3463
2045.807	3465
2047.876	3452
2049.947	3495
2052.015	3503
2054.086	3461
2056.153	3427
2058.221	3473
2060.288	3493
2062.353	3437
2064.42	3361
2066.486	3457
2068.55	3443
2070.614	3479
2072.678	3446
2074.741	3463
2076.805	3469
2078.866	3450
2080.929	3497
2082.99	3433
2085.049	3436
2087.109	3471
2089.17	3478
2091.228	3448
2093.286	3392
2095.344	3516
2097.4	3449
2099.46	3449
2101.516	3521
2103.572	3506
2105.626	3436
2107.679	3457
2109.735	3351
2111.788	3440
2113.841	3438
2115.894	3434
2117.945	3430
2119.997	3466
2122.049	3490
2124.1	3386
2126.148	3497
2128.197	3410
2130.246	3388
2132.296	3465
2134.342	3517
2136.39	3540
2138.437	3456
2140.483	3473
2142.527	3424
2144.574	3447
2146.619	3529
2148.661	3508
2150.705	3402
2152.747	3453
2154.792	3446
2156.832	3380
2158.874	3408
2160.915	3457
2162.954	3472
2164.995	3519
2167.034	3408
2169.072	3448
2171.111	3391
2173.148	3458
2175.186	3387
2177.223	3445
2179.258	3417
2181.294	3477
2183.328	3389
2185.362	3429
2187.398	3501
2189.431	3424
2191.463	3395
2193.495	3434
2195.528	3423
2197.56	3428
2199.59	3391
2201.62	3382
2203.649	3387
2205.678	3454
2207.708	3430
2209.737	3429
2211.764	3458
2213.791	3419
2215.817	3341
2217.843	3340
2219.87	3363
2221.895	3436
2223.919	3478
2225.942	3421
2227.966	3413
2229.988	3378
2232.012	3365
2234.032	3382
2236.054	3427
2238.074	3437
2240.095	3385
2242.116	3344
2244.135	3400
2246.153	3399
2248.171	3392
2250.188	3286
2252.208	3463
2254.223	3345
2256.239	3316
2258.255	3415
2260.269	3441
2262.283	3441
2264.3	3370
2266.312	3407
2268.325	3360
2270.336	3385
2272.349	3391
2274.362	3457
2276.372	3319
2278.383	3410
2280.392	3365
2282.402	3406
2284.409	3383
2286.418	3345
2288.427	3363
2290.433	3410
2292.441	3484
2294.446	3387
2296.453	3398
2298.459	3400
2300.463	3394
2302.466	3305
2304.471	3310
2306.475	3405
2308.477	3434
2310.478	3385
2312.481	3355
2314.481	3437
2316.481	3390
2318.482	3415
2320.482	3356
2322.48	3367
2324.48	3402
2326.478	3368
2328.476	3439
2330.473	3316
2332.469	3313
2334.465	3344
2336.46	3348
2338.454	3336
2340.45	3343
2342.444	3284
2344.437	3409
2346.43	3319
2348.421	3340
2350.414	3353
2352.405	3378
2354.396	3391
2356.386	3327
2358.376	3336
2360.366	3347
2362.355	3292
2364.343	3380
2366.331	3413
2368.317	3323
2370.304	3321
2372.292	3368
2374.278	3306
2376.262	3355
2378.247	3348
2380.23	3336
2382.216	3331
2384.199	3269
2386.181	3328
2388.163	3380
2390.144	3329
2392.127	3244
2394.107	3281
2396.087	3306
2398.066	3280
2400.046	3352
2402.023	3367
2404.004	3249
2405.981	3290
2407.957	3323
2409.934	3365
2411.91	3278
2413.886	3320
2415.862	3330
2417.836	3301
2419.809	3289
2421.784	3374
2423.756	3375
2425.73	3292
2427.701	3253
2429.672	3369
2431.644	3367
2433.615	3298
2435.586	3202
2437.555	3248
2439.523	3289
2441.491	3213
2443.459	3340
2445.428	3322
2447.395	3263
2449.361	3250
2451.327	3296
2453.292	3306
2455.257	3274
2457.223	3323
2459.187	3283
2461.15	3282
2463.113	3297
2465.076	3287
2467.039	3218
2468.999	3299
2470.96	3244
2472.921	3284
2474.881	3271
2476.841	3267
2478.8	3243
2480.759	3280
2482.717	3266
2484.675	3362
2486.63	3342
2488.589	3255
2490.545	3326
2492.5	3295
2494.455	3294
2496.408	3226
2498.364	3246
2500.318	3194
2502.27	3210
2504.223	3190
2506.174	3234
2508.126	3218
2510.078	3226
2512.03	3180
2513.979	3227
2515.927	3217
2517.877	3221
2519.826	3234
2521.775	3234
2523.722	3247
2525.668	3231
2527.616	3182
2529.561	3239
2531.508	3278
2533.452	3239
2535.398	3282
2537.342	3244
2539.284	3183
2541.229	3315
2543.173	3291
2545.114	3303
2547.055	3253
2548.996	3224
2550.938	3247
2552.878	3355
2554.817	3253
2556.756	3256
2558.695	3337
2560.633	3188
2562.572	3275
2564.509	3303
2566.445	3280
2568.382	3258
2570.317	3219
2572.254	3276
2574.189	3329
2576.123	3242
2578.057	3262
2579.99	3263
2581.923	3208
2583.855	3233
2585.788	3317
2587.719	3242
2589.65	3298
2591.579	3293
2593.511	3298
2595.44	3329
2597.37	3221
2599.297	3279
2601.225	3272
2603.153	3260
2605.08	3267
2607.007	3281
2608.932	3319
2610.858	3313
2612.782	3267
2614.709	3268
2616.632	3313
2618.556	3224
2620.478	3215
2622.401	3227
2624.324	3297
2626.247	3298
2628.167	3257
2630.088	3313
2632.008	3279
2633.928	3351
2635.848	3264
2637.766	3284
2639.684	3286
2641.603	3310
2643.519	3347
2645.437	3294
2647.353	3305
2649.27	3349
2651.184	3281
2653.099	3254
2655.014	3275
2656.928	3218
2658.842	3316
2660.755	3225
2662.667	3329
2664.579	3248
2666.491	3295
2668.402	3271
2670.312	3268
2672.222	3211
2674.132	3293
2676.042	3318
2677.951	3239
2679.859	3238
2681.766	3246
2683.674	3301
2685.582	3298
2687.488	3286
2689.392	3265
2691.298	3162
2693.202	3212
2695.107	3298
2697.012	3236
2698.914	3340
2700.817	3207
2702.72	3232
2704.622	3268
2706.524	3281
2708.425	3286
2710.326	3185
2712.225	3281
2714.125	3198
2716.024	3256
2717.923	3314
2719.822	3215
2721.719	3248
2723.616	3253
2725.512	3297
2727.41	3219
2729.305	3219
2731.201	3311
2733.095	3250
2734.99	3211
2736.884	3189
2738.778	3210
2740.67	3163
2742.562	3216
2744.455	3149
2746.346	3208
2748.238	3163
2750.129	3187
2752.018	3267
2753.907	3261
2755.797	3252
2757.687	3295
2759.575	3199
2761.462	3154
2763.349	3205
2765.237	3200
2767.124	3258
2769.009	3283
2770.894	3203
2772.779	3221
2774.663	3183
2776.547	3229
2778.431	3166
2780.314	3222
2782.197	3152
2784.078	3284
2785.96	3243
2787.842	3199
2789.723	3227
2791.603	3145
2793.483	3170
2795.362	3206
2797.241	3169
2799.121	3181
2800.997	3161
2802.874	3186
2804.751	3191
2806.628	3240
2808.506	3278
2810.38	3156
2812.255	3146
2814.13	3219
2816.003	3281
2817.878	3133
2819.752	3209
2821.623	3257
2823.496	3224
2825.368	3194
2827.238	3235
2829.111	3230
2830.98	3228
2832.851	3297
2834.719	3181
2836.589	3260
2838.458	3230
2840.327	3246
2842.193	3189
2844.061	3246
2845.927	3268
2847.794	3248
2849.66	3220
2851.525	3230
2853.39	3249
2855.254	3225
2857.117	3277
2858.983	3248
2860.845	3314
2862.707	3304
2864.569	3377
2866.431	3399
2868.293	3344
2870.154	3441
2872.013	3499
2873.873	3489
2875.733	3507
2877.592	3494
2879.451	3576
2881.309	3594
2883.166	3540
2885.022	3681
2886.879	3624
2888.736	3643
2890.591	3656
2892.446	3660
2894.301	3638
2896.155	3759
2898.009	3715
2899.863	3684
2901.716	3660
2903.568	3700
2905.419	3683
2907.27	3651
2909.123	3674
2910.973	3675
2912.824	3673
2914.673	3736
2916.521	3785
2918.372	3831
2920.22	3874
2922.067	3793
2923.914	3905
2925.761	4055
2927.607	4054
2929.455	4022
2931.301	4028
2933.144	4103
2934.99	4203
2936.833	4227
2938.678	4311
2940.522	4370
2942.364	4375
2944.207	4381
2946.048	4453
2947.891	4502
2949.731	4423
2951.571	4387
2953.412	4383
2955.25	4283
2957.09	4325
2958.93	4195
2960.767	4206
2962.606	4183
2964.443	4132
2966.279	4101
2968.116	3994
2969.953	3908
2971.788	3995
2973.623	3903
2975.457	3903
2977.292	3889
2979.127	3850
2980.959	3846
2982.792	3765
2984.624	3805
2986.455	3738
2988.288	3774
2990.119	3776
2991.949	3707
2993.779	3722
2995.608	3566
2997.439	3615
2999.268	3534
3001.096	3547
3002.923	3538
3004.751	3602
3006.578	3461
3008.406	3411
3010.232	3321
3012.057	3423
3013.883	3259
3015.706	3380
3017.532	3275
3019.356	3271
3021.179	3216
3023.002	3215
3024.823	3255
3026.646	3157
3028.469	3215
3030.289	3203
3032.11	3200
3033.93	3175
3035.749	3151
3037.57	3130
3039.39	3170
3041.207	3174
3043.026	3130
3044.842	3092
3046.661	3139
3048.477	3085
3050.294	3215
3052.109	3093
3053.925	3089
3055.739	3162
3057.555	3142
3059.368	3136
3061.181	3110
3062.995	3089
3064.807	3149
3066.62	3088
3068.433	3140
3070.243	3075
3072.054	3143
3073.865	3102
3075.675	3066
3077.485	3079
3079.293	3034
3081.102	3138
3082.911	3096
3084.719	3058
3086.527	3061
3088.333	3107
3090.139	3116
3091.945	2941
3093.75	3081
3095.557	3042
3097.361	3040
3099.165	3057
3100.969	3046
3102.772	3048
3104.575	3124
3106.379	3016
3108.181	3000
3109.982	3052
3111.783	3081
3113.584	3037
3115.386	2976
3117.186	2979
3118.985	2966
3120.783	2974
3122.582	3036
3124.381	2986
3126.179	2939
3127.975	3007
3129.772	2952
3131.569	2986
3133.365	3024
3135.161	3030
3136.956	2976
3138.751	2989
3140.544	2901
3142.338	3015
3144.132	2951
3145.925	3004
3147.717	2982
3149.509	2956
3151.301	2941
3153.091	2953
3154.884	2953
3156.673	2964
3158.462	2960
3160.252	2925
3162.041	2913
3163.831	2974
3165.618	2975
3167.405	2947
3169.193	2971
3170.979	2990
3172.767	2989
3174.553	2983
3176.338	2999
3178.123	2951
3179.907	2892
3181.692	2991
3183.477	2911
3185.259	2940
3187.042	3001
3188.824	2949
3190.607	2916
3192.389	2987
3194.17	2983
3195.951	3008
3197.73	2975
3199.51	2858
3201.289	2990
3203.07	2922
3204.848	2937
3206.626	3024
3208.403	3033
3210.18	2955
3211.959	2976
3213.735	2905
3215.511	2939
3217.285	2943
3219.06	2993
3220.836	2977
3222.611	2946
3224.384	2976
3226.158	2962
3227.929	2958
3229.702	2958
3231.476	2924
3233.248	2918
3235.018	3011
3236.789	3019
3238.56	3016
3240.33	2962
3242.1	2957
3243.869	2967
3245.637	2941
3247.405	2854
3249.172	3005
3250.941	2907
3252.707	2991
3254.474	2918
3256.24	2937
3258.006	2964
3259.772	3033
3261.537	3023
3263.301	2945
3265.065	2908
3266.828	2977
3268.592	2967
3270.355	2989
3272.117	2991
3273.878	2962
3275.64	3008
3277.401	3029
3279.162	3018
3280.922	3001
3282.682	2927
3284.441	3004
3286.199	2978
3287.959	3014
3289.716	2908
3291.475	3004
3293.232	2992
3294.988	2947
3296.744	2992
3298.501	3020
3300.256	3002
3302.011	3012
3303.766	2987
3305.52	2994
3307.275	2978
3309.028	3073
3310.781	3081
3312.533	3036
3314.285	2961
3316.038	2960
3317.789	2988
3319.54	2962
3321.289	2968
3323.039	2934
3324.789	2949
3326.539	2990
3328.288	2969
3330.035	3040
3331.783	3045
3333.531	3064
3335.28	2907
3337.025	3007
3338.771	3064
3340.518	3004
3342.262	2955
3344.009	2978
3345.753	3017
3347.497	2958
3349.24	2916
3350.983	3008
3352.726	3021
3354.469	2944
3356.212	2973
3357.952	2940
3359.694	3011
3361.434	2975
3363.176	2873
3364.916	2997
3366.654	2900
3368.394	2925
3370.132	2925
3371.871	2917
3373.61	2922
3375.346	2949
3377.083	2958
3378.82	2934
3380.556	2887
3382.292	2926
3384.027	2865
3385.763	2928
3387.497	2847
3389.231	2905
3390.965	2873
3392.698	2873
3394.431	2922
3396.164	2849
3397.896	2869
3399.627	2840
3401.36	2826
3403.09	2857
3404.82	2875
3406.55	2941
3408.279	2900
3410.01	2866
3411.738	2900
3413.467	2824
3415.194	2833
3416.92	2934
3418.647	2811
3420.375	2820
3422.102	2830
3423.827	2930
3425.553	2809
3427.277	2877
3429.003	2866
3430.727	2862
3432.451	2836
3434.173	2896
3435.896	2820
3437.62	2807
3439.343	2824
3441.063	2819
3442.785	2760
3444.505	2756
3446.226	2831
3447.948	2832
3449.666	2837
3451.386	2749
3453.104	2744
3454.823	2816
3456.541	2792
3458.259	2786
3459.976	2829
3461.693	2771
3463.408	2768
3465.125	2818
3466.841	2721
3468.556	2782
3470.271	2755
3471.985	2790
3473.698	2724
3475.414	2772
3477.126	2701
3478.838	2771
3480.55	2711
3482.263	2758
3483.975	2739
3485.686	2778
3487.396	2738
3489.106	2740
3490.817	2743
3492.526	2739
3494.236	2734
3495.944	2665
3497.652	2714
3499.359	2723
3501.066	2728
3502.775	2712
3504.481	2762
3506.187	2690
3507.893	2662
3509.598	2674
3511.304	2707
3513.009	2695
3514.713	2660
3516.417	2617
3518.12	2683
3519.821	2653
3521.525	2668
3523.228	2650
3524.929	2640
3526.631	2660
3528.33	2635
3530.032	2676
3531.733	2611
3533.433	2667
3535.131	2604
3536.83	2565
3538.529	2560
3540.227	2595
3541.925	2617
3543.623	2612
3545.319	2631
3547.016	2618
3548.712	2577
3550.408	2561
3552.103	2567
3553.798	2546
3555.491	2558
3557.188	2565
3558.88	2523
3560.574	2611
3562.266	2627
3563.959	2578
3565.651	2624
3567.343	2516
3569.035	2545
3570.725	2512
3572.415	2564
3574.106	2537
3575.797	2520
3577.485	2544
3579.174	2542
3580.863	2501
3582.551	2557
3584.238	2594
3585.926	2554
3587.613	2570
3589.3	2540
3590.986	2538
3592.671	2575
3594.357	2475
3596.042	2507
3597.726	2519
3599.41	2593
3601.094	2404
3602.778	2538
3604.461	2537
3606.143	2497
3607.825	2485
3609.507	2473
3611.188	2433
3612.87	2448
3614.551	2410
3616.229	2553
3617.909	2444
3619.589	2455
3621.269	2550
3622.948	2468
3624.625	2458
3626.302	2395
3627.98	2393
3629.657	2402
3631.334	2459
3633.01	2432
3634.686	2439
3636.361	2351
3638.036	2393
3639.712	2443
3641.385	2392
3643.06	2402
3644.732	2344
3646.405	2379
3648.08	2430
3649.751	2458
3651.424	2366
3653.094	2363
3654.766	2333
3656.436	2397
3658.106	2330
3659.777	2315
3661.446	2317
3663.115	2344
3664.783	2306
3666.452	2335
3668.121	2419
3669.788	2380
3671.454	2376
3673.121	2347
3674.789	2305
3676.455	2347
3678.12	2337
3679.784	2322
3681.45	2351
3683.114	2385
3684.779	2300
3686.442	2287
3688.105	2359
3689.768	2287
3691.43	2302
3693.093	2340
3694.754	2282
3696.415	2327
3698.076	2402
3699.736	2305
3701.396	2361
3703.057	2345
3704.716	2238
3706.375	2302
3708.034	2297
3709.692	2205
3711.351	2297
3713.008	2304
3714.665	2301
3716.321	2263
3717.977	2283
3719.634	2280
3721.29	2315
3722.945	2283
3724.598	2309
3726.253	2264
3727.907	2309
3729.561	2243
3731.214	2250
3732.867	2249
3734.518	2290
3736.171	2311
3737.824	2248
3739.474	2256
3741.125	2281
3742.775	2266
3744.425	2240
3746.074	2214
3747.725	2251
3749.373	2258
3751.022	2238
3752.669	2228
3754.318	2299
3755.966	2220
3757.612	2306
3759.259	2201
3760.905	2232
3762.55	2267
3764.197	2204
3765.842	2262
3767.486	2236
3769.131	2233
3770.774	2213
3772.417	2206
3774.061	2218
3775.705	2220
3777.347	2220
3778.988	2200
3780.629	2199
3782.271	2230
3783.912	2230
3785.552	2184
3787.192	2156
3788.831	2257
3790.472	2171
3792.112	2152
3793.75	2203
3795.388	2198
3797.024	2151
3798.661	2189
3800.3	2167
3801.936	2207
3803.572	2175
3805.208	2182
3806.844	2174
3808.48	2206
3810.115	2175
3811.748	2183
3813.382	2200
3815.016	2203
3816.649	2155
3818.283	2187
3819.914	2159
3821.547	2173
3823.178	2169
3824.809	2102
3826.441	2142
3828.072	2210
3829.701	2096
3831.331	2182
3832.96	2154
3834.591	2159
3836.219	2137
3837.847	2150
3839.475	2194
3841.102	2165
3842.729	2167
3844.357	2159
3845.984	2156
3847.609	2139
3849.234	2132
3850.86	2158
3852.485	2129
3854.11	2164
3855.734	2095
3857.357	2081
3858.981	2169
3860.603	2115
3862.227	2124
3863.848	2166
3865.471	2129
3867.092	2099
3868.713	2059
3870.334	2093
3871.954	2205
3873.575	2135
3875.194	2071
3876.813	2095
3878.433	2079
3880.051	2081
3881.669	2099
3883.286	2109
3884.904	2099
3886.52	2083
3888.138	2096
3889.754	2093
3891.37	2090
3892.985	2113
3894.6	2076
3896.216	2154
3897.831	2061
3899.444	2079
3901.058	2130
3902.67	2092
3904.283	2176
3905.897	2099
3907.509	2026
3909.121	2091
3910.731	2091
3912.342	2099
3913.954	2120
3915.563	2083
3917.174	2083
3918.783	2087
3920.391	2134
3922.002	2063
3923.611	2124
3925.218	2071
3926.826	2091
3928.432	2130
3930.039	2107
3931.647	2053
3933.253	2072
3934.859	2043
3936.464	2070
3938.068	2036
3939.675	2022
3941.278	2132
3942.883	2068
3944.486	2078
3946.089	2093
3947.692	2038
3949.295	2054
3950.898	2070
3952.499	2066
3954.1	2104
3955.7	2042
3957.303	2013
3958.903	2063
3960.502	2071
3962.101	2015
3963.7	1990
3965.301	2027
3966.899	2060
3968.497	2000
3970.094	2070
3971.691	2059
3973.288	2089
3974.885	2029
3976.481	2030
3978.077	1994
3979.672	2089
3981.267	1985
3982.863	1989
3984.457	2006
3986.051	2010
3987.645	1993
3989.238	1997
3990.831	1990
3992.425	2048
3994.017	2039
3995.607	2008
3997.199	1985
3998.79	1937
4000.382	1989
4001.973	1969
4003.561	1954
4005.151	1929
4006.741	2055
4008.331	2003
4009.918	1971
4011.507	1977
4013.095	2051
4014.681	1909
4016.269	1989
4017.856	1921
4019.443	1996
4021.028	1936
4022.614	1955
4024.199	2003
4025.785	1941
4027.37	1948
4028.953	1942
4030.536	1958
4032.12	1904
4033.704	1980
4035.287	1928
4036.869	1985
4038.45	1892
4040.032	1925
4041.613	1936
4043.195	1953
4044.776	1912
4046.356	1997
4047.935	1968
4049.515	1899
4051.095	1948
4052.674	1906
4054.251	1946
4055.829	1978
4057.406	1957
4058.985	1920
4060.562	1929
4062.139	1949
4063.715	1948
4065.29	1960
4066.865	1949
4068.442	1908
4070.016	1878
4071.59	1851
4073.164	1899
4074.738	1858
4076.312	2000
4077.885	1908
4079.458	1951
4081.03	1855
4082.602	1939
4084.173	1848
4085.745	1929
4087.315	1952
4088.886	1935
4090.456	1914
4092.026	1909
4093.596	1899
4095.165	1885
4096.734	1930
4098.301	1856
4099.869	1868
4101.437	1869
4103.006	1920
4104.572	1823
4106.139	1874
4107.704	1905
4109.27	1814
4110.837	1836
4112.401	1898
4113.966	1869
4115.53	1858
4117.094	1854
4118.659	1871
4120.223	1854
4121.785	1893
4123.347	1802
4124.909	1870
4126.471	1869
4128.034	1862
4129.595	1872
4131.155	1857
4132.716	1783
4134.275	1829
4135.836	1828
4137.395	1885
4138.955	1872
4140.513	1854
4142.071	1835
4143.628	1831
4145.188	1810
4146.745	1808
4148.302	1854
4149.858	1826
4151.414	1863
4152.971	1842
4154.526	1865
4156.081	1863
4157.635	1852
4159.189	1779
4160.745	1794
4162.298	1800
4163.852	1767
4165.405	1799
4166.957	1809
4168.51	1837
4170.063	1797
4171.614	1782
4173.166	1782
4174.717	1816
4176.267	1790
4177.817	1837
4179.368	1805
4180.917	1726
4182.466	1798
4184.016	1790
4185.564	1780
4187.112	1777
4188.66	1807
4190.207	1774
4191.754	1754
4193.301	1820
4194.848	1755
4196.394	1808
4197.94	1792
4199.484	1765
4201.03	1763
4202.575	1796
4204.12	1738
4205.663	1766
4207.207	1749
4208.75	1723
4210.292	1728
4211.836	1748
4213.378	1750
4214.92	1731
4216.46	1740
4218.002	1747
4219.544	1750
4221.083	1723
4222.625	1732
4224.164	1780
4225.703	1706
4227.244	1753
4228.782	1772
4230.32	1751
4231.857	1780
4233.395	1712
4234.933	1765
4236.471	1743
4238.007	1759
4239.542	1746
4241.078	1772
4242.614	1754
4244.15	1663
4245.685	1703
4247.219	1734
4248.753	1737
4250.287	1706
4251.82	1774
4253.354	1715
4254.887	1699
4256.419	1732
4257.951	1757
4259.483	1770
4261.016	1705
4262.547	1699
4264.078	1736
4265.608	1742
4267.137	1747
4268.668	1678
4270.197	1739
4271.727	1708
4273.254	1699
4274.783	1741
4276.311	1662
4277.84	1702
4279.366	1682
4280.894	1717
4282.42	1687
4283.946	1728
4285.473	1724
4286.998	1703
4288.523	1703
4290.047	1708
4291.572	1745
4293.096	1688
4294.622	1694
4296.144	1697
4297.668	1671
4299.19	1696
4300.713	1663
4302.236	1688
4303.758	1697
4305.279	1738
4306.799	1654
4308.321	1649
4309.842	1695
4311.361	1654
4312.882	1689
4314.401	1667
