400.0961	2922
402.6185	2890
405.1424	2921
407.6635	2963
410.1838	3004
412.7035	3014
415.2225	2992
417.7388	3052
420.2585	2992
422.7754	2997
425.2917	3039
427.8072	3171
430.3221	3131
432.8363	3098
435.3498	3139
437.8626	3142
440.3727	3161
442.8841	3158
445.3969	3142
447.907	3135
450.4142	3097
452.9229	3183
455.4289	3164
457.9362	3046
460.4449	3191
462.9488	3098
465.454	3128
467.9566	3097
470.4604	3188
472.9637	3088
475.4662	3149
477.966	3170
480.4671	3047
482.9656	3130
485.4633	3149
487.9645	3128
490.4608	3134
492.9566	3127
495.4536	3096
497.948	3219
500.4437	3196
502.9387	3143
505.431	3195
507.9226	3146
510.4136	3232
512.9079	3175
515.3975	3208
517.8864	3128
520.3746	3154
522.8622	3195
525.3491	3186
527.8394	3185
530.3249	3058
532.8098	3181
535.2939	3247
537.7774	3294
540.2623	3135
542.7444	3222
545.2259	3206
547.7067	3213
550.1868	3217
552.6683	3299
555.147	3175
557.6231	3246
560.1005	3241
562.5773	3267
565.0534	3240
567.5308	3274
570.0056	3286
572.4776	3207
574.951	3308
577.4237	3386
579.8978	3422
582.3671	3385
584.8378	3337
587.3079	3403
589.7773	3415
592.244	3383
594.714	3358
597.1793	3342
599.6461	3321
602.1121	3419
604.5754	3390
607.0421	3273
609.5042	3259
611.9675	3284
614.4282	3329
616.8902	3368
619.3515	3296
621.8122	3356
624.2702	3282
626.7296	3340
629.1863	3300
631.6423	3243
634.1017	3330
636.5563	3259
639.0104	3320
641.4658	3267
643.9185	3302
646.3725	3276
648.8239	3344
651.2766	3271
653.7266	3439
656.176	3354
658.6247	3352
661.0748	3320
663.5242	3354
665.9709	3408
668.417	3367
670.8624	3343
673.3092	3409
675.7533	3366
678.1968	3287
680.6395	3374
683.0817	3349
685.5251	3378
687.9659	3414
690.4061	3378
692.8456	3450
695.2844	3444
697.7226	3355
700.1621	3444
702.599	3436
705.0332	3405
707.4688	3507
709.9036	3461
712.3399	3490
714.7735	3478
717.2044	3451
719.6367	3519
722.0683	3418
724.4993	3521
726.9296	3488
729.3593	3512
731.7883	3546
734.2147	3575
736.6423	3520
739.0714	3527
741.4958	3517
743.9216	3587
746.3447	3575
748.7691	3503
751.1929	3606
753.616	3602
756.0366	3634
758.4584	3635
760.8776	3531
763.2982	3628
765.718	3623
768.1373	3591
770.5539	3639
772.9698	3635
775.3871	3676
777.8038	3541
780.2178	3531
782.6332	3618
785.0459	3573
787.458	3590
789.8714	3638
792.2842	3689
794.6943	3708
797.1038	3639
799.5127	3744
801.9209	3668
804.3324	3616
806.7393	3717
809.1456	3661
811.5513	3697
813.9562	3659
816.3625	3701
818.7663	3730
821.1693	3743
823.5718	3696
825.9735	3706
828.3746	3709
830.7771	3751
833.177	3772
835.5762	3702
837.9747	3694
840.3727	3705
842.772	3707
845.1666	3712
847.5626	3798
849.958	3764
852.3527	3844
854.7488	3837
857.1403	3819
859.5331	3898
861.9253	3807
864.3168	3785
866.7057	3720
869.098	3747
871.4876	3818
873.8746	3750
876.263	3688
878.6487	3808
881.0378	3763
883.4243	3834
885.8081	3721
888.1933	3793
890.5759	3712
892.9598	3715
895.343	3724
897.7256	3711
900.1057	3785
902.4871	3726
904.8659	3746
907.246	3704
909.6254	3782
912.0023	3816
914.3786	3828
916.7562	3920
919.1331	3890
921.5074	4014
923.8831	3973
926.2562	4010
928.6287	3976
931.0005	4070
933.3757	3976
935.7462	3991
938.1162	3953
940.4855	4162
942.8542	4199
945.2242	4189
947.5916	4189
949.9584	4352
952.3266	4454
954.6921	4646
957.0571	4896
959.4233	4981
961.787	5072
964.15	4920
966.5125	4897
968.8742	4696
971.2354	4520
973.5959	4301
975.9559	4140
978.3151	4098
980.6738	4035
983.0338	3997
985.3912	3978
987.7461	3942
990.1022	3875
992.4578	3958
994.8127	3773
997.1689	3991
999.5207	3986
1001.874	3879
1004.226	3924
1006.576	3942
1008.929	3984
1011.28	3891
1013.628	4002
1015.977	3920
1018.324	3933
1020.674	3919
1023.019	3956
1025.366	3909
1027.713	3977
1030.056	4003
1032.399	3965
1034.746	4020
1037.087	4092
1039.431	4001
1041.771	3972
1044.113	4118
1046.454	4007
1048.793	3975
1051.133	4039
1053.471	3979
1055.807	4024
1058.146	3950
1060.483	4090
1062.818	3993
1065.153	4055
1067.489	4159
1069.822	4042
1072.156	4067
1074.488	4157
1076.82	4136
1079.15	4128
1081.48	4088
1083.814	4099
1086.143	4047
1088.471	4035
1090.799	3980
1093.126	4044
1095.452	4103
1097.78	4051
1100.105	4046
1102.43	4007
1104.754	3989
1107.077	3956
1109.4	4041
1111.722	4018
1114.044	3977
1116.365	4043
1118.685	3949
1121.005	4052
1123.324	4051
1125.643	4048
1127.961	4078
1130.278	4075
1132.595	4103
1134.911	3985
1137.226	3981
1139.541	4085
1141.854	4028
1144.167	4010
1146.482	3941
1148.793	4035
1151.105	4009
1153.414	4067
1155.725	3975
1158.033	3975
1160.344	4067
1162.651	4094
1164.959	3932
1167.265	4017
1169.572	4080
1171.878	3975
1174.184	4003
1176.488	3934
1178.79	4019
1181.094	4030
1183.396	3997
1185.699	3975
1188.001	4030
1190.301	4054
1192.6	4020
1194.9	4082
1197.2	3988
1199.497	4053
1201.794	4129
1204.09	4119
1206.387	4114
1208.684	4069
1210.978	4062
1213.272	4012
1215.565	4086
1217.858	4096
1220.15	4013
1222.443	4031
1224.734	4134
1227.024	4079
1229.313	4190
1231.602	4174
1233.892	4196
1236.18	4270
1238.467	4211
1240.754	4258
1243.04	4180
1245.325	4263
1247.612	4239
1249.896	4287
1252.178	4210
1254.461	4240
1256.743	4237
1259.027	4221
1261.308	4193
1263.587	4284
1265.867	4150
1268.146	4254
1270.425	4255
1272.703	4221
1274.981	4256
1277.256	4265
1279.532	4237
1281.808	4281
1284.083	4161
1286.358	4183
1288.63	4204
1290.904	4220
1293.175	4178
1295.449	4163
1297.719	4160
1299.99	4122
1302.259	4187
1304.529	4256
1306.798	4151
1309.065	4214
1311.333	4140
1313.599	4149
1315.866	4217
1318.131	4143
1320.396	4209
1322.66	4195
1324.925	4233
1327.187	4072
1329.448	4112
1331.711	4244
1333.974	4174
1336.234	4199
1338.493	4252
1340.752	4181
1343.01	4072
1345.269	4156
1347.526	4193
1349.784	4097
1352.04	4170
1354.295	4171
1356.552	4065
1358.806	4167
1361.059	4071
1363.312	4161
1365.564	4127
1367.818	4223
1370.069	4180
1372.318	4152
1374.568	4151
1376.817	4235
1379.066	4215
1381.316	4212
1383.564	4225
1385.809	4149
1388.056	4339
1390.301	4240
1392.549	4291
1394.793	4270
1397.036	4365
1399.279	4279
1401.522	4293
1403.763	4309
1406.007	4384
1408.248	4255
1410.487	4255
1412.727	4306
1414.965	4292
1417.205	4322
1419.442	4225
1421.68	4331
1423.915	4315
1426.152	4364
1428.388	4342
1430.623	4349
1432.857	4446
1435.091	4303
1437.323	4356
1439.556	4416
1441.789	4362
1444.019	4404
1446.25	4380
1448.48	4472
1450.708	4399
1452.938	4396
1455.167	4487
1457.394	4352
1459.62	4515
1461.846	4432
1464.073	4385
1466.299	4366
1468.523	4343
1470.746	4397
1472.969	4321
1475.191	4382
1477.415	4296
1479.636	4287
1481.858	4161
1484.078	4150
1486.298	4174
1488.518	4258
1490.736	4204
1492.954	4179
1495.169	4171
1497.386	4189
1499.602	4160
1501.819	4237
1504.034	4153
1506.248	4134
1508.462	4160
1510.675	4174
1512.888	4200
1515.1	4162
1517.311	4258
1519.522	4136
1521.732	4170
1523.942	4247
1526.151	4163
1528.36	4278
1530.566	4112
1532.773	4215
1534.98	4257
1537.187	4066
1539.392	4152
1541.596	4169
1543.801	4156
1546.005	4171
1548.208	4176
1550.411	4215
1552.612	4141
1554.814	4224
1557.013	4210
1559.212	4275
1561.414	4257
1563.612	4260
1565.811	4196
1568.007	4222
1570.203	4213
1572.403	4260
1574.598	4363
1576.792	4285
1578.988	4262
1581.181	4236
1583.376	4206
1585.568	4363
1587.761	4271
1589.952	4318
1592.143	4337
1594.333	4311
1596.524	4352
1598.715	4296
1600.903	4263
1603.091	4365
1605.278	4313
1607.466	4267
1609.652	4329
1611.838	4408
1614.023	4323
1616.207	4292
1618.391	4381
1620.576	4380
1622.759	4427
1624.941	4361
1627.123	4359
1629.304	4349
1631.484	4359
1633.664	4408
1635.844	4360
1638.022	4435
1640.201	4318
1642.38	4317
1644.556	4475
1646.732	4432
1648.908	4360
1651.084	4479
1653.257	4467
1655.433	4513
1657.607	4388
1659.779	4545
1661.951	4376
1664.122	4443
1666.295	4534
1668.467	4495
1670.635	4523
1672.805	4497
1674.973	4451
1677.142	4438
1679.31	4382
1681.478	4544
1683.644	4467
1685.81	4391
1687.975	4505
1690.142	4433
1692.305	4343
1694.468	4394
1696.632	4405
1698.794	4393
1700.957	4359
1703.119	4375
1705.279	4357
1707.439	4338
1709.598	4397
1711.758	4292
1713.917	4253
1716.075	4299
1718.231	4269
1720.388	4322
1722.543	4282
1724.702	4316
1726.856	4367
1729.01	4397
1731.164	4297
1733.317	4336
1735.471	4226
1737.623	4261
1739.774	4239
1741.925	4380
1744.075	4383
1746.225	4335
1748.376	4163
1750.524	4353
1752.672	4333
1754.82	4408
1756.965	4370
1759.113	4303
1761.259	4348
1763.405	4304
1765.549	4319
1767.694	4325
1769.836	4272
1771.981	4333
1774.123	4310
1776.264	4385
1778.405	4317
1780.546	4427
1782.687	4382
1784.827	4418
1786.966	4374
1789.103	4459
1791.242	4351
1793.381	4433
1795.517	4452
1797.653	4266
1799.788	4394
1801.923	4345
1804.057	4482
1806.193	4298
1808.326	4376
1810.457	4400
1812.59	4400
1814.721	4451
1816.855	4463
1818.984	4256
1821.113	4370
1823.244	4301
1825.372	4336
1827.499	4298
1829.63	4385
1831.756	4295
1833.882	4414
1836.007	4312
1838.132	4306
1840.26	4397
1842.384	4387
1844.507	4323
1846.63	4377
1848.752	4371
1850.875	4398
1852.996	4340
1855.118	4361
1857.238	4393
1859.358	4293
1861.477	4351
1863.597	4362
1865.715	4367
1867.832	4375
1869.948	4386
1872.064	4255
1874.181	4293
1876.297	4317
1878.411	4338
1880.526	4298
1882.639	4367
1884.752	4291
1886.865	4426
1888.977	4366
1891.089	4370
1893.2	4345
1895.308	4426
1897.42	4414
1899.53	4420
1901.639	4329
1903.745	4393
1905.853	4419
1907.962	4500
1910.067	4332
1912.174	4298
1914.278	4291
1916.383	4393
1918.486	4306
1920.592	4386
1922.694	4426
1924.797	4365
1926.898	4375
1929	4407
1931.102	4411
1933.203	4389
1935.301	4395
1937.401	4365
1939.499	4439
1941.598	4403
1943.697	4378
1945.793	4351
1947.888	4395
1949.985	4388
1952.08	4387
1954.176	4387
1956.269	4399
1958.364	4409
1960.457	4434
1962.549	4359
1964.642	4307
1966.733	4416
1968.823	4388
1970.913	4420
1973.005	4357
1975.093	4390
1977.184	4332
1979.271	4449
1981.359	4392
1983.446	4295
1985.532	4312
1987.619	4397
1989.705	4382
1991.789	4377
1993.874	4369
1995.956	4384
1998.041	4383
2000.123	4244
2002.206	4436
2004.287	4349
2006.368	4382
2008.449	4236
2010.529	4307
2012.609	4367
2014.688	4333
2016.766	4393
2018.843	4334
2020.922	4315
2022.999	4336
2025.074	4325
2027.15	4447
2029.225	4420
2031.299	4281
2033.375	4365
2035.447	4400
2037.52	4431
2039.592	4339
2041.664	4328
2043.736	4352
2045.807	4386
2047.876	4350
2049.947	4411
2052.015	4322
2054.086	4388
2056.153	4401
2058.221	4476
2060.288	4387
2062.353	4431
2064.42	4415
2066.486	4351
2068.55	4382
2070.614	4427
2072.678	4433
2074.741	4434
2076.805	4332
2078.866	4442
2080.929	4416
2082.99	4352
2085.049	4329
2087.109	4415
2089.17	4393
2091.228	4386
2093.286	4332
2095.344	4403
2097.4	4358
2099.46	4433
2101.516	4353
2103.572	4465
2105.626	4320
2107.679	4381
2109.735	4431
2111.788	4352
2113.841	4445
2115.894	4342
2117.945	4376
2119.997	4374
2122.049	4440
2124.1	4293
2126.148	4336
2128.197	4445
2130.246	4464
2132.296	4367
2134.342	4353
2136.39	4321
2138.437	4366
2140.483	4385
2142.527	4365
2144.574	4381
2146.619	4330
2148.661	4491
2150.705	4338
2152.747	4348
2154.792	4306
2156.832	4365
2158.874	4314
2160.915	4313
2162.954	4298
2164.995	4445
2167.034	4371
2169.072	4300
2171.111	4343
2173.148	4374
2175.186	4343
2177.223	4340
2179.258	4392
2181.294	4337
2183.328	4223
2185.362	4296
2187.398	4184
2189.431	4246
2191.463	4268
2193.495	4362
2195.528	4374
2197.56	4232
2199.59	4431
2201.62	4275
2203.649	4346
2205.678	4212
2207.708	4237
2209.737	4280
2211.764	4262
2213.791	4282
2215.817	4180
2217.843	4271
2219.87	4296
2221.895	4308
2223.919	4268
2225.942	4256
2227.966	4258
2229.988	4178
2232.012	4249
2234.032	4380
2236.054	4240
2238.074	4270
2240.095	4206
2242.116	4326
2244.135	4229
2246.153	4244
2248.171	4289
2250.188	4316
2252.208	4300
2254.223	4233
2256.239	4272
2258.255	4302
2260.269	4327
2262.283	4216
2264.3	4306
2266.312	4178
2268.325	4249
2270.336	4284
2272.349	4276
2274.362	4262
2276.372	4251
2278.383	4337
2280.392	4183
2282.402	4297
2284.409	4312
2286.418	4333
2288.427	4256
2290.433	4191
2292.441	4284
2294.446	4210
2296.453	4265
2298.459	4259
2300.463	4299
2302.466	4161
2304.471	4268
2306.475	4260
2308.477	4218
2310.478	4225
2312.481	4294
2314.481	4231
2316.481	4255
2318.482	4130
2320.482	4174
2322.48	4294
2324.48	4218
2326.478	4254
2328.476	4230
2330.473	4243
2332.469	4170
2334.465	4245
2336.46	4239
2338.454	4203
2340.45	4191
2342.444	4191
2344.437	4230
2346.43	4178
2348.421	4177
2350.414	4154
2352.405	4176
2354.396	4143
2356.386	4243
2358.376	4209
2360.366	4196
2362.355	4148
2364.343	4130
2366.331	4147
2368.317	4109
2370.304	4159
2372.292	4148
2374.278	4121
2376.262	4243
2378.247	4203
2380.23	4176
2382.216	4170
2384.199	4160
2386.181	4195
2388.163	4142
2390.144	4143
2392.127	4241
2394.107	4159
2396.087	4076
2398.066	4198
2400.046	4250
2402.023	4100
2404.004	4078
2405.981	4072
2407.957	4195
2409.934	4056
2411.91	4069
2413.886	3973
2415.862	4091
2417.836	4184
2419.809	4138
2421.784	4003
2423.756	4135
2425.73	4099
2427.701	4150
2429.672	4144
2431.644	4198
2433.615	4151
2435.586	4030
2437.555	4180
2439.523	4072
2441.491	4071
2443.459	4141
2445.428	4159
2447.395	4125
2449.361	4098
2451.327	4085
2453.292	4200
2455.257	4145
2457.223	4156
2459.187	4143
2461.15	4112
2463.113	4122
2465.076	4040
2467.039	4082
2468.999	4095
2470.96	4062
2472.921	4094
2474.881	4085
2476.841	4111
2478.8	4026
2480.759	4039
2482.717	4042
2484.675	4112
2486.63	4130
2488.589	4093
2490.545	4129
2492.5	4033
2494.455	4002
2496.408	4160
2498.364	4105
2500.318	4105
2502.27	4087
2504.223	4059
2506.174	4108
2508.126	4093
2510.078	4062
2512.03	4004
2513.979	4066
2515.927	4052
2517.877	4059
2519.826	4105
2521.775	4012
2523.722	4062
2525.668	4034
2527.616	3979
2529.561	4111
2531.508	3940
2533.452	4002
2535.398	4005
2537.342	4085
2539.284	3969
2541.229	4061
2543.173	4131
2545.114	4009
2547.055	4071
2548.996	4042
2550.938	4009
2552.878	4089
2554.817	4000
2556.756	4016
2558.695	4008
2560.633	4145
2562.572	4035
2564.509	4086
2566.445	3984
2568.382	4073
2570.317	4078
2572.254	3973
2574.189	4022
2576.123	4054
2578.057	3855
2579.99	4007
2581.923	3963
2583.855	3968
2585.788	4076
2587.719	4022
2589.65	4085
2591.579	4061
2593.511	4077
2595.44	4018
2597.37	4100
2599.297	4104
2601.225	3947
2603.153	4031
2605.08	4059
2607.007	4050
2608.932	4036
2610.858	4077
2612.782	4079
2614.709	4067
2616.632	4083
2618.556	4044
2620.478	4012
2622.401	4089
2624.324	4055
2626.247	4074
2628.167	3997
2630.088	4024
2632.008	4039
2633.928	4027
2635.848	4011
2637.766	4025
2639.684	4123
2641.603	4026
2643.519	3937
2645.437	3928
2647.353	4132
2649.27	4043
2651.184	4040
2653.099	4107
2655.014	4119
2656.928	4037
2658.842	4037
2660.755	4007
2662.667	3994
2664.579	4102
2666.491	4107
2668.402	4030
2670.312	3994
2672.222	4071
2674.132	4061
2676.042	4017
2677.951	4043
2679.859	4109
2681.766	4057
2683.674	4121
2685.582	3989
2687.488	3899
2689.392	4011
2691.298	4025
2693.202	4010
2695.107	3932
2697.012	4027
2698.914	3987
2700.817	3985
2702.72	3934
2704.622	3908
2706.524	3995
2708.425	3963
2710.326	4000
2712.225	3955
2714.125	4032
2716.024	3993
2717.923	3973
2719.822	4045
2721.719	4004
2723.616	3920
2725.512	3969
2727.41	3974
2729.305	4007
2731.201	3916
2733.095	3951
2734.99	3996
2736.884	3960
2738.778	3936
2740.67	4006
2742.562	3971
2744.455	4012
2746.346	3961
2748.238	3948
2750.129	4056
2752.018	3976
2753.907	3999
2755.797	3927
2757.687	3935
2759.575	3991
2761.462	3950
2763.349	3979
2765.237	4058
2767.124	3952
2769.009	3978
2770.894	3959
2772.779	4060
2774.663	3966
2776.547	3955
2778.431	3836
2780.314	3895
2782.197	3954
2784.078	3910
2785.96	3983
2787.842	3918
2789.723	4005
2791.603	3896
2793.483	3962
2795.362	4017
2797.241	3981
2799.121	3954
2800.997	3928
2802.874	3870
2804.751	3893
2806.628	3945
2808.506	3959
2810.38	3897
2812.255	3882
2814.13	3939
2816.003	3824
2817.878	3965
2819.752	3924
2821.623	4021
2823.496	3929
2825.368	3872
2827.238	3928
2829.111	3927
2830.98	3912
2832.851	3964
2834.719	3894
2836.589	3951
2838.458	3912
2840.327	3889
2842.193	3968
2844.061	3948
2845.927	3987
2847.794	3986
2849.66	3975
2851.525	3985
2853.39	3976
2855.254	3995
2857.117	3888
2858.983	3920
2860.845	3994
2862.707	4046
2864.569	4067
2866.431	4015
2868.293	4062
2870.154	4086
2872.013	4128
2873.873	4102
2875.733	4172
2877.592	4211
2879.451	4221
2881.309	4291
2883.166	4294
2885.022	4342
2886.879	4323
2888.736	4324
2890.591	4403
2892.446	4317
2894.301	4341
2896.155	4366
2898.009	4252
2899.863	4357
2901.716	4358
2903.568	4457
2905.419	4334
2907.27	4361
2909.123	4340
2910.973	4256
2912.824	4414
2914.673	4416
2916.521	4424
2918.372	4517
2920.22	4440
2922.067	4544
2923.914	4574
2925.761	4628
2927.607	4622
2929.455	4658
2931.301	4605
2933.144	4688
2934.99	4814
2936.833	4781
2938.678	4828
2940.522	4872
2942.364	4956
2944.207	4961
2946.048	5004
2947.891	5010
2949.731	5015
2951.571	4996
2953.412	4976
2955.25	4904
2957.09	4932
2958.93	4939
2960.767	4798
2962.606	4784
2964.443	4740
2966.279	4712
2968.116	4681
2969.953	4565
2971.788	4616
2973.623	4549
2975.457	4549
2977.292	4492
2979.127	4432
2980.959	4464
2982.792	4397
2984.624	4338
2986.455	4367
2988.288	4364
2990.119	4372
2991.949	4274
2993.779	4272
2995.608	4208
2997.439	4195
2999.268	4186
3001.096	4132
3002.923	4126
3004.751	4128
3006.578	4056
3008.406	3967
3010.232	4041
3012.057	3997
3013.883	3952
3015.706	3970
3017.532	3915
3019.356	3762
3021.179	3867
3023.002	3945
3024.823	3779
3026.646	3904
3028.469	3833
3030.289	3768
3032.11	3819
3033.93	3796
3035.749	3800
3037.57	3815
3039.39	3801
3041.207	3828
3043.026	3723
3044.842	3744
3046.661	3743
3048.477	3742
3050.294	3738
3052.109	3725
3053.925	3767
3055.739	3693
3057.555	3782
3059.368	3803
3061.181	3758
3062.995	3753
3064.807	3706
3066.62	3730
3068.433	3781
3070.243	3775
3072.054	3717
3073.865	3805
3075.675	3658
3077.485	3794
3079.293	3731
3081.102	3823
3082.911	3651
3084.719	3637
3086.527	3646
3088.333	3711
3090.139	3640
3091.945	3674
3093.75	3633
3095.557	3613
3097.361	3634
3099.165	3505
3100.969	3604
3102.772	3664
3104.575	3611
3106.379	3663
3108.181	3519
3109.982	3695
3111.783	3639
3113.584	3604
3115.386	3580
3117.186	3588
3118.985	3657
3120.783	3590
3122.582	3598
3124.381	3605
3126.179	3681
3127.975	3514
3129.772	3566
3131.569	3642
3133.365	3549
3135.161	3486
3136.956	3519
3138.751	3483
3140.544	3592
3142.338	3558
3144.132	3582
3145.925	3543
3147.717	3611
3149.509	3461
3151.301	3573
3153.091	3529
3154.884	3556
3156.673	3472
3158.462	3497
3160.252	3526
3162.041	3499
3163.831	3537
3165.618	3469
3167.405	3588
3169.193	3439
3170.979	3441
3172.767	3503
3174.553	3499
3176.338	3536
3178.123	3588
3179.907	3499
3181.692	3552
3183.477	3497
3185.259	3558
3187.042	3526
3188.824	3577
3190.607	3544
3192.389	3478
3194.17	3500
3195.951	3530
3197.73	3494
3199.51	3508
3201.289	3512
3203.07	3560
3204.848	3519
3206.626	3530
3208.403	3487
3210.18	3475
3211.959	3461
3213.735	3488
3215.511	3397
3217.285	3556
3219.06	3516
3220.836	3524
3222.611	3414
3224.384	3443
3226.158	3524
3227.929	3525
3229.702	3562
3231.476	3472
3233.248	3526
3235.018	3591
3236.789	3469
3238.56	3464
3240.33	3532
3242.1	3565
3243.869	3517
3245.637	3521
3247.405	3477
3249.172	3463
3250.941	3453
3252.707	3526
3254.474	3502
3256.24	3602
3258.006	3444
3259.772	3534
3261.537	3472
3263.301	3454
3265.065	3513
3266.828	3462
3268.592	3451
3270.355	3567
3272.117	3592
3273.878	3512
3275.64	3554
3277.401	3559
3279.162	3508
3280.922	3525
3282.682	3568
3284.441	3475
3286.199	3524
3287.959	3587
3289.716	3529
3291.475	3528
3293.232	3569
3294.988	3481
3296.744	3507
3298.501	3529
3300.256	3541
3302.011	3526
3303.766	3538
3305.52	3538
3307.275	3559
3309.028	3505
3310.781	3511
3312.533	3521
3314.285	3463
3316.038	3550
3317.789	3542
3319.54	3539
3321.289	3548
3323.039	3534
3324.789	3485
3326.539	3442
3328.288	3492
3330.035	3560
3331.783	3492
3333.531	3574
3335.28	3501
3337.025	3487
3338.771	3528
3340.518	3432
3342.262	3407
3344.009	3453
3345.753	3510
3347.497	3509
3349.24	3421
3350.983	3510
3352.726	3412
3354.469	3443
3356.212	3473
3357.952	3503
3359.694	3444
3361.434	3401
3363.176	3377
3364.916	3401
3366.654	3497
3368.394	3381
3370.132	3541
3371.871	3400
3373.61	3380
3375.346	3280
3377.083	3420
3378.82	3479
3380.556	3441
3382.292	3342
3384.027	3530
3385.763	3331
3387.497	3405
3389.231	3282
3390.965	3381
3392.698	3374
3394.431	3340
3396.164	3387
3397.896	3429
3399.627	3327
3401.36	3402
3403.09	3401
3404.82	3356
3406.55	3402
3408.279	3321
3410.01	3320
3411.738	3397
3413.467	3356
3415.194	3391
3416.92	3226
3418.647	3335
3420.375	3329
3422.102	3384
3423.827	3343
3425.553	3369
3427.277	3404
3429.003	3311
3430.727	3313
3432.451	3343
3434.173	3318
3435.896	3393
3437.62	3337
3439.343	3296
3441.063	3307
3442.785	3357
3444.505	3322
3446.226	3306
3447.948	3350
3449.666	3316
3451.386	3276
3453.104	3235
3454.823	3297
3456.541	3209
3458.259	3214
3459.976	3232
3461.693	3245
3463.408	3230
3465.125	3179
3466.841	3189
3468.556	3236
3470.271	3182
3471.985	3231
3473.698	3291
3475.414	3239
3477.126	3238
3478.838	3210
3480.55	3171
3482.263	3218
3483.975	3204
3485.686	3189
3487.396	3125
3489.106	3251
3490.817	3149
3492.526	3135
3494.236	3191
3495.944	3129
3497.652	3165
3499.359	3157
3501.066	3171
3502.775	3099
3504.481	3127
3506.187	3193
3507.893	3102
3509.598	3052
3511.304	3189
3513.009	3150
3514.713	3160
3516.417	3076
3518.12	3178
3519.821	3088
3521.525	3072
3523.228	3012
3524.929	3103
3526.631	3096
3528.33	3061
3530.032	3169
3531.733	3082
3533.433	3061
3535.131	3026
3536.83	3117
3538.529	3046
3540.227	3024
3541.925	3079
3543.623	3043
3545.319	3035
3547.016	3138
3548.712	3053
3550.408	3038
3552.103	2980
3553.798	3109
3555.491	2959
3557.188	2955
3558.88	3049
3560.574	3012
3562.266	3045
3563.959	2943
3565.651	3063
3567.343	2987
3569.035	2908
3570.725	3089
3572.415	2982
3574.106	2984
3575.797	3007
3577.485	2987
3579.174	3005
3580.863	2998
3582.551	3012
3584.238	2978
3585.926	2934
3587.613	2948
3589.3	2959
3590.986	2955
3592.671	2921
3594.357	2957
3596.042	2997
3597.726	2946
3599.41	2949
3601.094	2928
3602.778	2928
3604.461	2919
3606.143	2934
3607.825	2872
3609.507	2875
3611.188	2921
3612.87	2872
3614.551	2888
3616.229	2912
3617.909	2967
3619.589	2848
3621.269	2770
3622.948	2884
3624.625	2877
3626.302	2841
3627.98	2800
3629.657	2851
3631.334	2905
3633.01	2879
3634.686	2776
3636.361	2856
3638.036	2817
3639.712	2787
3641.385	2805
3643.06	2822
3644.732	2829
3646.405	2858
3648.08	2799
3649.751	2854
3651.424	2799
3653.094	2756
3654.766	2764
3656.436	2783
3658.106	2805
3659.777	2779
3661.446	2855
3663.115	2843
3664.783	2710
3666.452	2842
3668.121	2809
3669.788	2754
3671.454	2783
3673.121	2802
3674.789	2763
3676.455	2718
3678.12	2781
3679.784	2782
3681.45	2790
3683.114	2678
3684.779	2676
3686.442	2739
3688.105	2749
3689.768	2748
3691.43	2750
3693.093	2773
3694.754	2734
3696.415	2728
3698.076	2759
3699.736	2714
3701.396	2719
3703.057	2632
3704.716	2718
3706.375	2696
3708.034	2726
3709.692	2718
3711.351	2673
3713.008	2731
3714.665	2707
3716.321	2701
3717.977	2735
3719.634	2653
3721.29	2695
3722.945	2715
3724.598	2633
3726.253	2637
3727.907	2688
3729.561	2671
3731.214	2710
3732.867	2700
3734.518	2692
3736.171	2669
3737.824	2659
3739.474	2607
3741.125	2714
3742.775	2642
3744.425	2641
3746.074	2638
3747.725	2648
3749.373	2631
3751.022	2607
3752.669	2646
3754.318	2635
3755.966	2659
3757.612	2677
3759.259	2642
3760.905	2634
3762.55	2687
3764.197	2644
3765.842	2604
3767.486	2578
3769.131	2590
3770.774	2537
3772.417	2571
3774.061	2674
3775.705	2592
3777.347	2685
3778.988	2612
3780.629	2620
3782.271	2622
3783.912	2648
3785.552	2629
3787.192	2617
3788.831	2565
3790.472	2611
3792.112	2546
3793.75	2522
3795.388	2530
3797.024	2627
3798.661	2630
3800.3	2576
3801.936	2607
3803.572	2667
3805.208	2586
3806.844	2528
3808.48	2591
3810.115	2637
3811.748	2518
3813.382	2599
3815.016	2597
3816.649	2525
3818.283	2579
3819.914	2490
3821.547	2593
3823.178	2535
3824.809	2567
3826.441	2557
3828.072	2529
3829.701	2545
3831.331	2535
3832.96	2517
3834.591	2504
3836.219	2512
3837.847	2533
3839.475	2542
3841.102	2492
3842.729	2487
3844.357	2467
3845.984	2503
3847.609	2508
3849.234	2544
3850.86	2507
3852.485	2519
3854.11	2519
3855.734	2512
3857.357	2530
3858.981	2542
3860.603	2540
3862.227	2464
3863.848	2491
3865.471	2486
3867.092	2472
3868.713	2561
3870.334	2476
3871.954	2442
3873.575	2502
3875.194	2430
3876.813	2499
3878.433	2460
3880.051	2499
3881.669	2557
3883.286	2439
3884.904	2489
3886.52	2486
3888.138	2441
3889.754	2407
3891.37	2425
3892.985	2485
3894.6	2451
3896.216	2428
3897.831	2482
3899.444	2500
3901.058	2390
3902.67	2445
3904.283	2476
3905.897	2458
3907.509	2436
3909.121	2453
3910.731	2448
3912.342	2482
3913.954	2410
3915.563	2386
3917.174	2459
3918.783	2445
3920.391	2440
3922.002	2466
3923.611	2461
3925.218	2460
3926.826	2409
3928.432	2461
3930.039	2450
3931.647	2420
3933.253	2402
3934.859	2388
3936.464	2462
3938.068	2418
3939.675	2456
3941.278	2434
3942.883	2461
3944.486	2359
3946.089	2377
3947.692	2375
3949.295	2398
3950.898	2390
3952.499	2413
3954.1	2403
3955.7	2374
3957.303	2406
3958.903	2375
3960.502	2429
3962.101	2333
3963.7	2433
3965.301	2421
3966.899	2350
3968.497	2359
3970.094	2389
3971.691	2385
3973.288	2346
3974.885	2400
3976.481	2419
3978.077	2373
3979.672	2310
3981.267	2346
3982.863	2373
3984.457	2348
3986.051	2269
3987.645	2338
3989.238	2335
3990.831	2398
3992.425	2305
3994.017	2367
3995.607	2361
3997.199	2357
3998.79	2355
4000.382	2332
4001.973	2320
4003.561	2308
4005.151	2303
4006.741	2335
4008.331	2310
4009.918	2298
4011.507	2221
4013.095	2297
4014.681	2299
4016.269	2271
4017.856	2303
4019.443	2248
4021.028	2247
4022.614	2247
4024.199	2279
4025.785	2289
4027.37	2307
4028.953	2239
4030.536	2287
4032.12	2296
4033.704	2255
4035.287	2347
4036.869	2232
4038.45	2207
4040.032	2217
4041.613	2278
4043.195	2260
4044.776	2259
4046.356	2250
4047.935	2257
4049.515	2257
4051.095	2278
4052.674	2234
4054.251	2257
4055.829	2230
4057.406	2232
4058.985	2225
4060.562	2213
4062.139	2225
4063.715	2234
4065.29	2252
4066.865	2236
4068.442	2239
4070.016	2228
4071.59	2206
4073.164	2191
4074.738	2131
4076.312	2233
4077.885	2159
4079.458	2207
4081.03	2222
4082.602	2211
4084.173	2209
4085.745	2173
4087.315	2229
4088.886	2221
4090.456	2204
4092.026	2225
4093.596	2152
4095.165	2208
4096.734	2130
4098.301	2226
4099.869	2204
4101.437	2165
4103.006	2194
4104.572	2173
4106.139	2225
4107.704	2197
4109.27	2188
4110.837	2137
4112.401	2261
4113.966	2226
4115.53	2120
4117.094	2182
4118.659	2132
4120.223	2183
4121.785	2164
4123.347	2137
4124.909	2117
4126.471	2115
4128.034	2118
4129.595	2104
4131.155	2162
4132.716	2102
4134.275	2110
4135.836	2150
4137.395	2065
4138.955	2019
4140.513	2146
4142.071	2093
4143.628	2091
4145.188	2099
4146.745	2109
4148.302	2114
4149.858	2080
4151.414	2125
4152.971	2145
4154.526	2082
4156.081	2117
4157.635	2133
4159.189	2070
4160.745	2076
4162.298	2098
4163.852	2071
4165.405	2095
4166.957	2093
4168.51	2093
4170.063	2114
4171.614	2083
4173.166	2106
4174.717	2049
4176.267	2115
4177.817	2108
4179.368	2074
4180.917	2110
4182.466	2118
4184.016	2056
4185.564	2117
4187.112	2032
4188.66	2058
4190.207	2096
4191.754	2035
4193.301	2023
4194.848	2028
4196.394	2038
4197.94	2050
4199.484	2056
4201.03	2092
4202.575	2031
4204.12	1982
4205.663	2037
4207.207	1986
4208.75	2022
4210.292	2055
4211.836	2030
4213.378	2009
4214.92	2035
4216.46	2000
4218.002	2018
4219.544	2016
4221.083	2025
4222.625	2054
4224.164	2029
4225.703	2001
4227.244	2010
4228.782	2020
4230.32	2034
4231.857	1965
4233.395	2022
4234.933	2046
4236.471	2045
4238.007	1986
4239.542	1966
4241.078	2049
4242.614	1983
4244.15	2000
4245.685	2020
4247.219	1989
4248.753	1951
4250.287	1987
4251.82	2024
4253.354	2004
4254.887	1993
4256.419	1981
4257.951	1976
4259.483	2005
4261.016	1978
4262.547	2024
4264.078	2026
4265.608	1969
4267.137	1952
4268.668	1980
4270.197	1970
4271.727	1973
4273.254	1945
4274.783	2031
4276.311	1961
4277.84	2039
4279.366	1986
4280.894	1914
4282.42	1942
4283.946	1926
4285.473	1946
4286.998	1976
4288.523	1926
4290.047	1943
4291.572	1942
4293.096	1912
4294.622	1957
4296.144	1947
4297.668	1992
4299.19	1938
4300.713	1991
4302.236	1964
4303.758	1899
4305.279	1992
4306.799	1868
4308.321	1941
4309.842	1912
4311.361	1892
4312.882	1947
4314.401	1903
