400.0961	2634
402.6185	2630
405.1424	2624
407.6635	2574
410.1838	2661
412.7035	2706
415.2225	2653
417.7388	2733
420.2585	2683
422.7754	2812
425.2917	2739
427.8072	2819
430.3221	2762
432.8363	2842
435.3498	2764
437.8626	2835
440.3727	2894
442.8841	2823
445.3969	2824
447.907	2810
450.4142	2793
452.9229	2813
455.4289	2787
457.9362	2761
460.4449	2753
462.9488	2729
465.454	2782
467.9566	2777
470.4604	2772
472.9637	2726
475.4662	2798
477.966	2776
480.4671	2779
482.9656	2753
485.4633	2780
487.9645	2830
490.4608	2806
492.9566	2820
495.4536	2839
497.948	2855
500.4437	2760
502.9387	2822
505.431	2868
507.9226	2821
510.4136	2846
512.9079	2815
515.3975	2816
517.8864	2853
520.3746	2863
522.8622	2834
525.3491	2923
527.8394	2853
530.3249	2867
532.8098	2840
535.2939	2882
537.7774	2856
540.2623	2857
542.7444	2817
545.2259	2860
547.7067	2831
550.1868	2834
552.6683	2847
555.147	2836
557.6231	2878
560.1005	2858
562.5773	2950
565.0534	2998
567.5308	2981
570.0056	2990
572.4776	2948
574.951	2973
577.4237	3118
579.8978	2982
582.3671	3008
584.8378	2991
587.3079	3087
589.7773	3029
592.244	3030
594.714	3113
597.1793	3086
599.6461	2975
602.1121	2988
604.5754	3027
607.0421	3028
609.5042	3030
611.9675	3004
614.4282	2978
616.8902	2910
619.3515	2961
621.8122	2921
624.2702	2933
626.7296	2867
629.1863	2909
631.6423	2941
634.1017	2953
636.5563	2910
639.0104	2906
641.4658	2925
643.9185	2977
646.3725	2935
648.8239	2941
651.2766	2971
653.7266	2976
656.176	2985
658.6247	2944
661.0748	2980
663.5242	2974
665.9709	2953
668.417	2973
670.8624	3056
673.3092	2981
675.7533	3010
678.1968	2983
680.6395	2984
683.0817	3063
685.5251	3022
687.9659	2976
690.4061	3005
692.8456	3028
695.2844	3037
697.7226	3081
700.1621	3094
702.599	3060
705.0332	2991
707.4688	3025
709.9036	3118
712.3399	3092
714.7735	3059
717.2044	3123
719.6367	3051
722.0683	3135
724.4993	3126
726.9296	3044
729.3593	3084
731.7883	3149
734.2147	3126
736.6423	3118
739.0714	3169
741.4958	3141
743.9216	3190
746.3447	3212
748.7691	3271
751.1929	3149
753.616	3254
756.0366	3204
758.4584	3242
760.8776	3200
763.2982	3211
765.718	3223
768.1373	3224
770.5539	3277
772.9698	3340
775.3871	3236
777.8038	3257
780.2178	3197
782.6332	3265
785.0459	3227
787.458	3255
789.8714	3227
792.2842	3256
794.6943	3246
797.1038	3248
799.5127	3233
801.9209	3276
804.3324	3285
806.7393	3317
809.1456	3234
811.5513	3316
813.9562	3264
816.3625	3326
818.7663	3301
821.1693	3331
823.5718	3257
825.9735	3334
828.3746	3334
830.7771	3329
833.177	3238
835.5762	3267
837.9747	3334
840.3727	3251
842.772	3322
845.1666	3417
847.5626	3299
849.958	3329
852.3527	3357
854.7488	3333
857.1403	3375
859.5331	3394
861.9253	3333
864.3168	3332
866.7057	3348
869.098	3401
871.4876	3357
873.8746	3367
876.263	3409
878.6487	3304
881.0378	3353
883.4243	3399
885.8081	3226
888.1933	3426
890.5759	3360
892.9598	3325
895.343	3427
897.7256	3373
900.1057	3344
902.4871	3415
904.8659	3399
907.246	3411
909.6254	3418
912.0023	3400
914.3786	3435
916.7562	3494
919.1331	3479
921.5074	3532
923.8831	3550
926.2562	3601
928.6287	3569
931.0005	3521
933.3757	3544
935.7462	3593
938.1162	3598
940.4855	3654
942.8542	3674
945.2242	3830
947.5916	3772
949.9584	3955
952.3266	4002
954.6921	4250
957.0571	4430
959.4233	4468
961.787	4668
964.15	4570
966.5125	4416
968.8742	4260
971.2354	4040
973.5959	3838
975.9559	3687
978.3151	3615
980.6738	3666
983.0338	3499
985.3912	3573
987.7461	3556
990.1022	3504
992.4578	3456
994.8127	3555
997.1689	3457
999.5207	3483
1001.874	3491
1004.226	3544
1006.576	3588
1008.929	3570
1011.28	3544
1013.628	3510
1015.977	3511
1018.324	3541
1020.674	3546
1023.019	3510
1025.366	3481
1027.713	3530
1030.056	3566
1032.399	3566
1034.746	3606
1037.087	3542
1039.431	3594
1041.771	3614
1044.113	3432
1046.454	3635
1048.793	3584
1051.133	3597
1053.471	3533
1055.807	3620
1058.146	3589
1060.483	3642
1062.818	3599
1065.153	3676
1067.489	3609
1069.822	3630
1072.156	3699
1074.488	3629
1076.82	3683
1079.15	3723
1081.48	3566
1083.814	3605
1086.143	3589
1088.471	3612
1090.799	3571
1093.126	3591
1095.452	3596
1097.78	3564
1100.105	3611
1102.43	3527
1104.754	3579
1107.077	3577
1109.4	3619
1111.722	3542
1114.044	3633
1116.365	3591
1118.685	3582
1121.005	3633
1123.324	3596
1125.643	3537
1127.961	3668
1130.278	3564
1132.595	3574
1134.911	3572
1137.226	3577
1139.541	3499
1141.854	3567
1144.167	3591
1146.482	3659
1148.793	3483
1151.105	3495
1153.414	3561
1155.725	3651
1158.033	3593
1160.344	3586
1162.651	3599
1164.959	3619
1167.265	3649
1169.572	3630
1171.878	3569
1174.184	3602
1176.488	3525
1178.79	3587
1181.094	3578
1183.396	3629
1185.699	3585
1188.001	3568
1190.301	3562
1192.6	3600
1194.9	3536
1197.2	3628
1199.497	3547
1201.794	3599
1204.09	3571
1206.387	3642
1208.684	3545
1210.978	3660
1213.272	3601
1215.565	3622
1217.858	3551
1220.15	3615
1222.443	3631
1224.734	3671
1227.024	3676
1229.313	3629
1231.602	3683
1233.892	3710
1236.18	3750
1238.467	3787
1240.754	3826
1243.04	3660
1245.325	3779
1247.612	3750
1249.896	3782
1252.178	3723
1254.461	3789
1256.743	3841
1259.027	3797
1261.308	3781
1263.587	3793
1265.867	3721
1268.146	3772
1270.425	3760
1272.703	3724
1274.981	3771
1277.256	3785
1279.532	3757
1281.808	3839
1284.083	3806
1286.358	3677
1288.63	3703
1290.904	3670
1293.175	3757
1295.449	3722
1297.719	3751
1299.99	3684
1302.259	3642
1304.529	3761
1306.798	3675
1309.065	3703
1311.333	3753
1313.599	3721
1315.866	3708
1318.131	3692
1320.396	3683
1322.66	3710
1324.925	3696
1327.187	3576
1329.448	3761
1331.711	3728
1333.974	3787
1336.234	3640
1338.493	3660
1340.752	3713
1343.01	3745
1345.269	3698
1347.526	3673
1349.784	3752
1352.04	3765
1354.295	3694
1356.552	3703
1358.806	3641
1361.059	3721
1363.312	3687
1365.564	3714
1367.818	3805
1370.069	3732
1372.318	3700
1374.568	3700
1376.817	3686
1379.066	3788
1381.316	3760
1383.564	3758
1385.809	3879
1388.056	3800
1390.301	3794
1392.549	3768
1394.793	3808
1397.036	3781
1399.279	3826
1401.522	3832
1403.763	3870
1406.007	3827
1408.248	3946
1410.487	3797
1412.727	3873
1414.965	3812
1417.205	3905
1419.442	3825
1421.68	3900
1423.915	3780
1426.152	3856
1428.388	3847
1430.623	3829
1432.857	3888
1435.091	3845
1437.323	3963
1439.556	3877
1441.789	3850
1444.019	3885
1446.25	3956
1448.48	3829
1450.708	3910
1452.938	3895
1455.167	3961
1457.394	3973
1459.62	3931
1461.846	4016
1464.073	3857
1466.299	3976
1468.523	3846
1470.746	3850
1472.969	3851
1475.191	3800
1477.415	3882
1479.636	3802
1481.858	3838
1484.078	3761
1486.298	3762
1488.518	3690
1490.736	3815
1492.954	3778
1495.169	3710
1497.386	3713
1499.602	3756
1501.819	3745
1504.034	3761
1506.248	3642
1508.462	3714
1510.675	3724
1512.888	3698
1515.1	3649
1517.311	3774
1519.522	3656
1521.732	3754
1523.942	3752
1526.151	3754
1528.36	3734
1530.566	3729
1532.773	3708
1534.98	3743
1537.187	3769
1539.392	3700
1541.596	3657
1543.801	3770
1546.005	3715
1548.208	3734
1550.411	3783
1552.612	3786
1554.814	3728
1557.013	3708
1559.212	3796
1561.414	3803
1563.612	3812
1565.811	3750
1568.007	3862
1570.203	3764
1572.403	3803
1574.598	3772
1576.792	3763
1578.988	3809
1581.181	3831
1583.376	3731
1585.568	3767
1587.761	3865
1589.952	3824
1592.143	3832
1594.333	3886
1596.524	3799
1598.715	3845
1600.903	3805
1603.091	3838
1605.278	3921
1607.466	3852
1609.652	3934
1611.838	3902
1614.023	3871
1616.207	3818
1618.391	3912
1620.576	3905
1622.759	3838
1624.941	3831
1627.123	3838
1629.304	3975
1631.484	3885
1633.664	3963
1635.844	3891
1638.022	4015
1640.201	3913
1642.38	3912
1644.556	3952
1646.732	3900
1648.908	3855
1651.084	4003
1653.257	3970
1655.433	4002
1657.607	3946
1659.779	3973
1661.951	4008
1664.122	4073
1666.295	3960
1668.467	3979
1670.635	4023
1672.805	3982
1674.973	3973
1677.142	3965
1679.31	4046
1681.478	4021
1683.644	3907
1685.81	4025
1687.975	4027
1690.142	3915
1692.305	3913
1694.468	3961
1696.632	3941
1698.794	3996
1700.957	3872
1703.119	3928
1705.279	3798
1707.439	3803
1709.598	3797
1711.758	3803
1713.917	3886
1716.075	3837
1718.231	3877
1720.388	3830
1722.543	3799
1724.702	3820
1726.856	3859
1729.01	3877
1731.164	3885
1733.317	3854
1735.471	3792
1737.623	3890
1739.774	3796
1741.925	3898
1744.075	3893
1746.225	3791
1748.376	3916
1750.524	3780
1752.672	3846
1754.82	3909
1756.965	3864
1759.113	3741
1761.259	3892
1763.405	3896
1765.549	3887
1767.694	3914
1769.836	3798
1771.981	3868
1774.123	3863
1776.264	3861
1778.405	3887
1780.546	3910
1782.687	3944
1784.827	3928
1786.966	3841
1789.103	3915
1791.242	3845
1793.381	3889
1795.517	3891
1797.653	3938
1799.788	3843
1801.923	3905
1804.057	3945
1806.193	3943
1808.326	3873
1810.457	3887
1812.59	3968
1814.721	3886
1816.855	3896
1818.984	3844
1821.113	3927
1823.244	3853
1825.372	3889
1827.499	3872
1829.63	3872
1831.756	3827
1833.882	3871
1836.007	3866
1838.132	3942
1840.26	3899
1842.384	3815
1844.507	3838
1846.63	3930
1848.752	3774
1850.875	3912
1852.996	3841
1855.118	3860
1857.238	3873
1859.358	3837
1861.477	3883
1863.597	3828
1865.715	3846
1867.832	3844
1869.948	3856
1872.064	3841
1874.181	3802
1876.297	3810
1878.411	3850
1880.526	3885
1882.639	3857
1884.752	3879
1886.865	3910
1888.977	3816
1891.089	3853
1893.2	3821
1895.308	3854
1897.42	3924
1899.53	3875
1901.639	3945
1903.745	3824
1905.853	3935
1907.962	3864
1910.067	3891
1912.174	3857
1914.278	3971
1916.383	3914
1918.486	3965
1920.592	3957
1922.694	3942
1924.797	3931
1926.898	3965
1929	3849
1931.102	3912
1933.203	3934
1935.301	3952
1937.401	3932
1939.499	3890
1941.598	3879
1943.697	3950
1945.793	4075
1947.888	3928
1949.985	3929
1952.08	3857
1954.176	3979
1956.269	3904
1958.364	3873
1960.457	3945
1962.549	3945
1964.642	3860
1966.733	3970
1968.823	3894
1970.913	3900
1973.005	3988
1975.093	4015
1977.184	3911
1979.271	3888
1981.359	3906
1983.446	3843
1985.532	3844
1987.619	3984
1989.705	3766
1991.789	3940
1993.874	3917
1995.956	3903
1998.041	3828
2000.123	3830
2002.206	3944
2004.287	3902
2006.368	3845
2008.449	3847
2010.529	3910
2012.609	3875
2014.688	3836
2016.766	3844
2018.843	4010
2020.922	3952
2022.999	3934
2025.074	3819
2027.15	3852
2029.225	3904
2031.299	3888
2033.375	3817
2035.447	3885
2037.52	3921
2039.592	3912
2041.664	3866
2043.736	3841
2045.807	3984
2047.876	3898
2049.947	3882
2052.015	3828
2054.086	3835
2056.153	3847
2058.221	3804
2060.288	3832
2062.353	3953
2064.42	3904
2066.486	3971
2068.55	3910
2070.614	3972
2072.678	3855
2074.741	3936
2076.805	3838
2078.866	3999
2080.929	3869
2082.99	3854
2085.049	3882
2087.109	3926
2089.17	3821
2091.228	3858
2093.286	3921
2095.344	3993
2097.4	3937
2099.46	3900
2101.516	3946
2103.572	3859
2105.626	3914
2107.679	3976
2109.735	3920
2111.788	3918
2113.841	3936
2115.894	3885
2117.945	3923
2119.997	3899
2122.049	3940
2124.1	3909
2126.148	3915
2128.197	3877
2130.246	3855
2132.296	3863
2134.342	4003
2136.39	3894
2138.437	3842
2140.483	3883
2142.527	3863
2144.574	3870
2146.619	3896
2148.661	4008
2150.705	3838
2152.747	3945
2154.792	3876
2156.832	3824
2158.874	3873
2160.915	3833
2162.954	3906
2164.995	3811
2167.034	3801
2169.072	3865
2171.111	3958
2173.148	3809
2175.186	3865
2177.223	3827
2179.258	3800
2181.294	3950
2183.328	3811
2185.362	3864
2187.398	3790
2189.431	3917
2191.463	3785
2193.495	3818
2195.528	3831
2197.56	3793
2199.59	3783
2201.62	3786
2203.649	3865
2205.678	3854
2207.708	3838
2209.737	3868
2211.764	3767
2213.791	3824
2215.817	3756
2217.843	3803
2219.87	3826
2221.895	3736
2223.919	3864
2225.942	3742
2227.966	3846
2229.988	3706
2232.012	3720
2234.032	3809
2236.054	3736
2238.074	3783
2240.095	3761
2242.116	3798
2244.135	3807
2246.153	3706
2248.171	3771
2250.188	3818
2252.208	3845
2254.223	3847
2256.239	3787
2258.255	3816
2260.269	3767
2262.283	3805
2264.3	3823
2266.312	3730
2268.325	3829
2270.336	3731
2272.349	3743
2274.362	3819
2276.372	3865
2278.383	3822
2280.392	3796
2282.402	3766
2284.409	3890
2286.418	3807
2288.427	3804
2290.433	3920
2292.441	3807
2294.446	3764
2296.453	3800
2298.459	3814
2300.463	3818
2302.466	3824
2304.471	3758
2306.475	3808
2308.477	3776
2310.478	3805
2312.481	3793
2314.481	3823
2316.481	3828
2318.482	3773
2320.482	3806
2322.48	3732
2324.48	3749
2326.478	3730
2328.476	3724
2330.473	3802
2332.469	3712
2334.465	3828
2336.46	3830
2338.454	3818
2340.45	3779
2342.444	3766
2344.437	3780
2346.43	3741
2348.421	3793
2350.414	3739
2352.405	3827
2354.396	3714
2356.386	3645
2358.376	3721
2360.366	3699
2362.355	3706
2364.343	3747
2366.331	3725
2368.317	3760
2370.304	3690
2372.292	3705
2374.278	3815
2376.262	3685
2378.247	3732
2380.23	3693
2382.216	3804
2384.199	3660
2386.181	3717
2388.163	3666
2390.144	3749
2392.127	3747
2394.107	3681
2396.087	3672
2398.066	3717
2400.046	3740
2402.023	3597
2404.004	3757
2405.981	3643
2407.957	3665
2409.934	3754
2411.91	3601
2413.886	3699
2415.862	3658
2417.836	3688
2419.809	3670
2421.784	3639
2423.756	3614
2425.73	3664
2427.701	3631
2429.672	3651
2431.644	3757
2433.615	3639
2435.586	3726
2437.555	3707
2439.523	3668
2441.491	3716
2443.459	3687
2445.428	3658
2447.395	3645
2449.361	3687
2451.327	3629
2453.292	3638
2455.257	3714
2457.223	3643
2459.187	3604
2461.15	3669
2463.113	3636
2465.076	3681
2467.039	3718
2468.999	3695
2470.96	3636
2472.921	3722
2474.881	3648
2476.841	3578
2478.8	3650
2480.759	3723
2482.717	3754
2484.675	3689
2486.63	3588
2488.589	3658
2490.545	3598
2492.5	3668
2494.455	3677
2496.408	3548
2498.364	3639
2500.318	3665
2502.27	3603
2504.223	3630
2506.174	3707
2508.126	3600
2510.078	3649
2512.03	3750
2513.979	3638
2515.927	3608
2517.877	3635
2519.826	3622
2521.775	3643
2523.722	3664
2525.668	3603
2527.616	3581
2529.561	3637
2531.508	3558
2533.452	3698
2535.398	3710
2537.342	3614
2539.284	3606
2541.229	3603
2543.173	3567
2545.114	3610
2547.055	3709
2548.996	3647
2550.938	3583
2552.878	3583
2554.817	3627
2556.756	3665
2558.695	3584
2560.633	3579
2562.572	3635
2564.509	3684
2566.445	3515
2568.382	3634
2570.317	3666
2572.254	3628
2574.189	3638
2576.123	3553
2578.057	3675
2579.99	3597
2581.923	3565
2583.855	3612
2585.788	3626
2587.719	3616
2589.65	3566
2591.579	3608
2593.511	3588
2595.44	3644
2597.37	3587
2599.297	3627
2601.225	3656
2603.153	3533
2605.08	3620
2607.007	3676
2608.932	3623
2610.858	3607
2612.782	3653
2614.709	3635
2616.632	3576
2618.556	3538
2620.478	3588
2622.401	3577
2624.324	3684
2626.247	3659
2628.167	3590
2630.088	3617
2632.008	3614
2633.928	3635
2635.848	3614
2637.766	3703
2639.684	3637
2641.603	3643
2643.519	3633
2645.437	3716
2647.353	3589
2649.27	3622
2651.184	3666
2653.099	3675
2655.014	3579
2656.928	3626
2658.842	3607
2660.755	3577
2662.667	3610
2664.579	3592
2666.491	3654
2668.402	3619
2670.312	3712
2672.222	3615
2674.132	3574
2676.042	3555
2677.951	3595
2679.859	3609
2681.766	3640
2683.674	3602
2685.582	3638
2687.488	3687
2689.392	3551
2691.298	3627
2693.202	3524
2695.107	3580
2697.012	3569
2698.914	3575
2700.817	3621
2702.72	3566
2704.622	3569
2706.524	3595
2708.425	3605
2710.326	3571
2712.225	3665
2714.125	3576
2716.024	3670
2717.923	3532
2719.822	3528
2721.719	3542
2723.616	3543
2725.512	3591
2727.41	3542
2729.305	3577
2731.201	3629
2733.095	3569
2734.99	3634
2736.884	3566
2738.778	3561
2740.67	3518
2742.562	3514
2744.455	3544
2746.346	3565
2748.238	3542
2750.129	3547
2752.018	3565
2753.907	3539
2755.797	3577
2757.687	3589
2759.575	3558
2761.462	3499
2763.349	3505
2765.237	3596
2767.124	3587
2769.009	3609
2770.894	3520
2772.779	3521
2774.663	3552
2776.547	3565
2778.431	3604
2780.314	3528
2782.197	3602
2784.078	3555
2785.96	3543
2787.842	3513
2789.723	3493
2791.603	3496
2793.483	3504
2795.362	3586
2797.241	3546
2799.121	3567
2800.997	3561
2802.874	3550
2804.751	3588
2806.628	3493
2808.506	3570
2810.38	3492
2812.255	3454
2814.13	3422
2816.003	3555
2817.878	3588
2819.752	3446
2821.623	3492
2823.496	3511
2825.368	3524
2827.238	3550
2829.111	3517
2830.98	3521
2832.851	3490
2834.719	3538
2836.589	3581
2838.458	3513
2840.327	3500
2842.193	3486
2844.061	3512
2845.927	3569
2847.794	3476
2849.66	3576
2851.525	3508
2853.39	3566
2855.254	3550
2857.117	3557
2858.983	3610
2860.845	3631
2862.707	3573
2864.569	3682
2866.431	3556
2868.293	3595
2870.154	3690
2872.013	3732
2873.873	3651
2875.733	3798
2877.592	3770
2879.451	3815
2881.309	3827
2883.166	3825
2885.022	3913
2886.879	3902
2888.736	3832
2890.591	3846
2892.446	3926
2894.301	3862
2896.155	3915
2898.009	3966
2899.863	3866
2901.716	3830
2903.568	3912
2905.419	3911
2907.27	3881
2909.123	3939
2910.973	3822
2912.824	3866
2914.673	3962
2916.521	4038
2918.372	4039
2920.22	3984
2922.067	4011
2923.914	4104
2925.761	4155
2927.607	4074
2929.455	4134
2931.301	4347
2933.144	4370
2934.99	4294
2936.833	4374
2938.678	4405
2940.522	4344
2942.364	4521
2944.207	4551
2946.048	4432
2947.891	4403
2949.731	4322
2951.571	4414
2953.412	4433
2955.25	4471
2957.09	4340
2958.93	4385
2960.767	4331
2962.606	4293
2964.443	4209
2966.279	4154
2968.116	4170
2969.953	4091
2971.788	4074
2973.623	4068
2975.457	4058
2977.292	4015
2979.127	4061
2980.959	4071
2982.792	3977
2984.624	3881
2986.455	3950
2988.288	3931
2990.119	3877
2991.949	3830
2993.779	3838
2995.608	3762
2997.439	3809
2999.268	3842
3001.096	3804
3002.923	3721
3004.751	3696
3006.578	3620
3008.406	3597
3010.232	3644
3012.057	3565
3013.883	3543
3015.706	3602
3017.532	3480
3019.356	3520
3021.179	3471
3023.002	3462
3024.823	3416
3026.646	3474
3028.469	3506
3030.289	3389
3032.11	3459
3033.93	3448
3035.749	3413
3037.57	3356
3039.39	3429
3041.207	3289
3043.026	3366
3044.842	3371
3046.661	3333
3048.477	3291
3050.294	3359
3052.109	3411
3053.925	3401
3055.739	3403
3057.555	3366
3059.368	3347
3061.181	3287
3062.995	3415
3064.807	3447
3066.62	3355
3068.433	3367
3070.243	3385
3072.054	3355
3073.865	3399
3075.675	3266
3077.485	3321
3079.293	3361
3081.102	3352
3082.911	3356
3084.719	3324
3086.527	3289
3088.333	3355
3090.139	3243
3091.945	3270
3093.75	3389
3095.557	3217
3097.361	3261
3099.165	3269
3100.969	3267
3102.772	3253
3104.575	3353
3106.379	3257
3108.181	3292
3109.982	3213
3111.783	3236
3113.584	3290
3115.386	3202
3117.186	3270
3118.985	3259
3120.783	3336
3122.582	3217
3124.381	3195
3126.179	3211
3127.975	3268
3129.772	3203
3131.569	3269
3133.365	3171
3135.161	3239
3136.956	3290
3138.751	3261
3140.544	3156
3142.338	3301
3144.132	3138
3145.925	3155
3147.717	3244
3149.509	3167
3151.301	3186
3153.091	3189
3154.884	3178
3156.673	3179
3158.462	3140
3160.252	3228
3162.041	3195
3163.831	3269
3165.618	3210
3167.405	3188
3169.193	3196
3170.979	3155
3172.767	3123
3174.553	3158
3176.338	3229
3178.123	3155
3179.907	3217
3181.692	3170
3183.477	3176
3185.259	3219
3187.042	3137
3188.824	3187
3190.607	3169
3192.389	3183
3194.17	3200
3195.951	3189
3197.73	3184
3199.51	3171
3201.289	3122
3203.07	3191
3204.848	3128
3206.626	3148
3208.403	3156
3210.18	3112
3211.959	3199
3213.735	3183
3215.511	3179
3217.285	3093
3219.06	3157
3220.836	3118
3222.611	3222
3224.384	3117
3226.158	3164
3227.929	3141
3229.702	3120
3231.476	3193
3233.248	3122
3235.018	3101
3236.789	3215
3238.56	3135
3240.33	3184
3242.1	3196
3243.869	3102
3245.637	3193
3247.405	3115
3249.172	3147
3250.941	3136
3252.707	3181
3254.474	3113
3256.24	3195
3258.006	3108
3259.772	3154
3261.537	3191
3263.301	3188
3265.065	3075
3266.828	3090
3268.592	3091
3270.355	3130
3272.117	3188
3273.878	3216
3275.64	3182
3277.401	3140
3279.162	3172
3280.922	3177
3282.682	3218
3284.441	3131
3286.199	3175
3287.959	3141
3289.716	3138
3291.475	3213
3293.232	3210
3294.988	3138
3296.744	3184
3298.501	3114
3300.256	3116
3302.011	3170
3303.766	3200
3305.52	3139
3307.275	3169
3309.028	3157
3310.781	3222
3312.533	3135
3314.285	3178
3316.038	3256
3317.789	3131
3319.54	3208
3321.289	3172
3323.039	3102
3324.789	3204
3326.539	3162
3328.288	3197
3330.035	3217
3331.783	3210
3333.531	3166
3335.28	3127
3337.025	3173
3338.771	3152
3340.518	3175
3342.262	3163
3344.009	3190
3345.753	3148
3347.497	3159
3349.24	3066
3350.983	3118
3352.726	3060
3354.469	3094
3356.212	3088
3357.952	3119
3359.694	3149
3361.434	3142
3363.176	3098
3364.916	3087
3366.654	3051
3368.394	3123
3370.132	3124
3371.871	3076
3373.61	3092
3375.346	3002
3377.083	3141
3378.82	3031
3380.556	3090
3382.292	3077
3384.027	3074
3385.763	3071
3387.497	3074
3389.231	3097
3390.965	3027
3392.698	3135
3394.431	3036
3396.164	3001
3397.896	3111
3399.627	3041
3401.36	2982
3403.09	3026
3404.82	3025
3406.55	2971
3408.279	3031
3410.01	3109
3411.738	3011
3413.467	2999
3415.194	2984
3416.92	2985
3418.647	3100
3420.375	2970
3422.102	3159
3423.827	3012
3425.553	3032
3427.277	3003
3429.003	3046
3430.727	2979
3432.451	2989
3434.173	2981
3435.896	3028
3437.62	2968
3439.343	2939
3441.063	2954
3442.785	2996
3444.505	2980
3446.226	3008
3447.948	2993
3449.666	2932
3451.386	2960
3453.104	2995
3454.823	2956
3456.541	2904
3458.259	2967
3459.976	2933
3461.693	2957
3463.408	2927
3465.125	2865
3466.841	2956
3468.556	2925
3470.271	2803
3471.985	3001
3473.698	2999
3475.414	2898
3477.126	2874
3478.838	2905
3480.55	2875
3482.263	2910
3483.975	2965
3485.686	2974
3487.396	2902
3489.106	2994
3490.817	2904
3492.526	2917
3494.236	2822
3495.944	2863
3497.652	2901
3499.359	2877
3501.066	2865
3502.775	2862
3504.481	2856
3506.187	2810
3507.893	2834
3509.598	2793
3511.304	2778
3513.009	2824
3514.713	2831
3516.417	2777
3518.12	2829
3519.821	2813
3521.525	2775
3523.228	2844
3524.929	2810
3526.631	2820
3528.33	2781
3530.032	2784
3531.733	2778
3533.433	2807
3535.131	2799
3536.83	2799
3538.529	2900
3540.227	2794
3541.925	2763
3543.623	2798
3545.319	2755
3547.016	2698
3548.712	2749
3550.408	2818
3552.103	2758
3553.798	2713
3555.491	2791
3557.188	2718
3558.88	2753
3560.574	2647
3562.266	2622
3563.959	2742
3565.651	2677
3567.343	2708
3569.035	2645
3570.725	2721
3572.415	2695
3574.106	2746
3575.797	2790
3577.485	2660
3579.174	2711
3580.863	2752
3582.551	2782
3584.238	2683
3585.926	2649
3587.613	2698
3589.3	2603
3590.986	2768
3592.671	2680
3594.357	2669
3596.042	2657
3597.726	2744
3599.41	2698
3601.094	2622
3602.778	2591
3604.461	2657
3606.143	2629
3607.825	2699
3609.507	2701
3611.188	2555
3612.87	2597
3614.551	2577
3616.229	2615
3617.909	2652
3619.589	2672
3621.269	2589
3622.948	2612
3624.625	2587
3626.302	2572
3627.98	2610
3629.657	2541
3631.334	2632
3633.01	2590
3634.686	2567
3636.361	2622
3638.036	2554
3639.712	2499
3641.385	2619
3643.06	2586
3644.732	2532
3646.405	2568
3648.08	2573
3649.751	2576
3651.424	2571
3653.094	2521
3654.766	2540
3656.436	2537
3658.106	2519
3659.777	2531
3661.446	2543
3663.115	2522
3664.783	2492
3666.452	2599
3668.121	2534
3669.788	2503
3671.454	2484
3673.121	2524
3674.789	2524
3676.455	2506
3678.12	2570
3679.784	2509
3681.45	2495
3683.114	2479
3684.779	2522
3686.442	2499
3688.105	2478
3689.768	2553
3691.43	2453
3693.093	2483
3694.754	2468
3696.415	2484
3698.076	2445
3699.736	2514
3701.396	2484
3703.057	2512
3704.716	2463
3706.375	2407
3708.034	2439
3709.692	2464
3711.351	2439
3713.008	2480
3714.665	2490
3716.321	2444
3717.977	2460
3719.634	2444
3721.29	2411
3722.945	2459
3724.598	2470
3726.253	2461
3727.907	2427
3729.561	2444
3731.214	2392
3732.867	2491
3734.518	2472
3736.171	2436
3737.824	2398
3739.474	2461
3741.125	2423
3742.775	2522
3744.425	2426
3746.074	2349
3747.725	2425
3749.373	2428
3751.022	2373
3752.669	2390
3754.318	2446
3755.966	2465
3757.612	2396
3759.259	2345
3760.905	2428
3762.55	2411
3764.197	2431
3765.842	2405
3767.486	2406
3769.131	2472
3770.774	2436
3772.417	2398
3774.061	2406
3775.705	2369
3777.347	2389
3778.988	2382
3780.629	2435
3782.271	2392
3783.912	2370
3785.552	2382
3787.192	2354
3788.831	2417
3790.472	2349
3792.112	2313
3793.75	2378
3795.388	2378
3797.024	2405
3798.661	2358
3800.3	2359
3801.936	2367
3803.572	2356
3805.208	2330
3806.844	2343
3808.48	2302
3810.115	2319
3811.748	2420
3813.382	2385
3815.016	2322
3816.649	2288
3818.283	2314
3819.914	2346
3821.547	2293
3823.178	2377
3824.809	2279
3826.441	2299
3828.072	2338
3829.701	2304
3831.331	2300
3832.96	2307
3834.591	2401
3836.219	2364
3837.847	2222
3839.475	2310
3841.102	2369
3842.729	2272
3844.357	2334
3845.984	2338
3847.609	2237
3849.234	2311
3850.86	2362
3852.485	2254
3854.11	2269
3855.734	2295
3857.357	2304
3858.981	2294
3860.603	2328
3862.227	2247
3863.848	2240
3865.471	2284
3867.092	2302
3868.713	2265
3870.334	2260
3871.954	2349
3873.575	2298
3875.194	2274
3876.813	2311
3878.433	2280
3880.051	2264
3881.669	2279
3883.286	2300
3884.904	2272
3886.52	2271
3888.138	2274
3889.754	2265
3891.37	2239
3892.985	2220
3894.6	2316
3896.216	2233
3897.831	2235
3899.444	2243
3901.058	2272
3902.67	2233
3904.283	2207
3905.897	2252
3907.509	2221
3909.121	2240
3910.731	2238
3912.342	2188
3913.954	2236
3915.563	2247
3917.174	2168
3918.783	2244
3920.391	2222
3922.002	2229
3923.611	2203
3925.218	2226
3926.826	2171
3928.432	2203
3930.039	2214
3931.647	2172
3933.253	2243
3934.859	2200
3936.464	2232
3938.068	2237
3939.675	2230
3941.278	2180
3942.883	2215
3944.486	2186
3946.089	2242
3947.692	2178
3949.295	2201
3950.898	2178
3952.499	2206
3954.1	2230
3955.7	2183
3957.303	2291
3958.903	2227
3960.502	2186
3962.101	2160
3963.7	2162
3965.301	2184
3966.899	2167
3968.497	2113
3970.094	2180
3971.691	2165
3973.288	2140
3974.885	2184
3976.481	2177
3978.077	2173
3979.672	2161
3981.267	2146
3982.863	2105
3984.457	2185
3986.051	2126
3987.645	2133
3989.238	2121
3990.831	2109
3992.425	2131
3994.017	2179
3995.607	2163
3997.199	2158
3998.79	2101
4000.382	2137
4001.973	2143
4003.561	2115
4005.151	2139
4006.741	2161
4008.331	2166
4009.918	2081
4011.507	2113
4013.095	2114
4014.681	2085
4016.269	2094
4017.856	2128
4019.443	2084
4021.028	2088
4022.614	2093
4024.199	2061
4025.785	2063
4027.37	2103
4028.953	2036
4030.536	2067
4032.12	2053
4033.704	2009
4035.287	2064
4036.869	2115
4038.45	2163
4040.032	1969
4041.613	2028
4043.195	2099
4044.776	2032
4046.356	2036
4047.935	2060
4049.515	2088
4051.095	2051
4052.674	2049
4054.251	2019
4055.829	2114
4057.406	2073
4058.985	2099
4060.562	2049
4062.139	2006
4063.715	2020
4065.29	2045
4066.865	2011
4068.442	1990
4070.016	2051
4071.59	1994
4073.164	2018
4074.738	2020
4076.312	2026
4077.885	2108
4079.458	1988
4081.03	1999
4082.602	2067
4084.173	2011
4085.745	2029
4087.315	2001
4088.886	2043
4090.456	1992
4092.026	2028
4093.596	2014
4095.165	2019
4096.734	1993
4098.301	2026
4099.869	2007
4101.437	1979
4103.006	2029
4104.572	1992
4106.139	2013
4107.704	2041
4109.27	1983
4110.837	2028
4112.401	1993
4113.966	2002
4115.53	2007
4117.094	1957
4118.659	1966
4120.223	1986
4121.785	1991
4123.347	1983
4124.909	1949
4126.471	2026
4128.034	1917
4129.595	1953
4131.155	1981
4132.716	1965
4134.275	1998
4135.836	1992
4137.395	1960
4138.955	1930
4140.513	1944
4142.071	1940
4143.628	1923
4145.188	1980
4146.745	1986
4148.302	1916
4149.858	1933
4151.414	1915
4152.971	2000
4154.526	1881
4156.081	1961
4157.635	1952
4159.189	1893
4160.745	1965
4162.298	1919
4163.852	1936
4165.405	1918
4166.957	1921
4168.51	1930
4170.063	1933
4171.614	1908
4173.166	1914
4174.717	1922
4176.267	1872
4177.817	1871
4179.368	1874
4180.917	1949
4182.466	1946
4184.016	1897
4185.564	1872
4187.112	1910
4188.66	1869
4190.207	1899
4191.754	1931
4193.301	1885
4194.848	1853
4196.394	1861
4197.94	1858
4199.484	1893
4201.03	1872
4202.575	1898
4204.12	1887
4205.663	1835
4207.207	1866
4208.75	1882
4210.292	1874
4211.836	1846
4213.378	1890
4214.92	1902
4216.46	1860
4218.002	1895
4219.544	1825
4221.083	1850
4222.625	1878
4224.164	1828
4225.703	1863
4227.244	1841
4228.782	1858
4230.32	1838
4231.857	1824
4233.395	1894
4234.933	1826
4236.471	1906
4238.007	1819
4239.542	1897
4241.078	1829
4242.614	1901
4244.15	1809
4245.685	1841
4247.219	1870
4248.753	1803
4250.287	1859
4251.82	1850
4253.354	1818
4254.887	1860
4256.419	1831
4257.951	1873
4259.483	1838
4261.016	1814
4262.547	1843
4264.078	1825
4265.608	1824
4267.137	1883
4268.668	1832
4270.197	1861
4271.727	1790
4273.254	1805
4274.783	1778
4276.311	1797
4277.84	1823
4279.366	1831
4280.894	1831
4282.42	1774
4283.946	1784
4285.473	1854
4286.998	1809
4288.523	1801
4290.047	1816
4291.572	1830
4293.096	1800
4294.622	1849
4296.144	1831
4297.668	1776
4299.19	1727
4300.713	1771
4302.236	1788
4303.758	1772
4305.279	1750
4306.799	1756
4308.321	1795
4309.842	1802
4311.361	1792
4312.882	1766
4314.401	1710
