400.0961	4026
402.6185	4043
405.1424	4126
407.6635	4105
410.1838	4185
412.7035	4195
415.2225	4156
417.7388	4174
420.2585	4231
422.7754	4221
425.2917	4241
427.8072	4318
430.3221	4338
432.8363	4273
435.3498	4335
437.8626	4309
440.3727	4261
442.8841	4384
445.3969	4402
447.907	4365
450.4142	4270
452.9229	4311
455.4289	4263
457.9362	4506
460.4449	4293
462.9488	4295
465.454	4363
467.9566	4339
470.4604	4359
472.9637	4401
475.4662	4373
477.966	4326
480.4671	4365
482.9656	4368
485.4633	4495
487.9645	4418
490.4608	4442
492.9566	4443
495.4536	4453
497.948	4421
500.4437	4525
502.9387	4457
505.431	4413
507.9226	4570
510.4136	4467
512.9079	4471
515.3975	4471
517.8864	4591
520.3746	4523
522.8622	4449
525.3491	4451
527.8394	4451
530.3249	4567
532.8098	4520
535.2939	4512
537.7774	4581
540.2623	4418
542.7444	4509
545.2259	4511
547.7067	4512
550.1868	4533
552.6683	4562
555.147	4533
557.6231	4504
560.1005	4603
562.5773	4517
565.0534	4561
567.5308	4669
570.0056	4670
572.4776	4717
574.951	4680
577.4237	4614
579.8978	4639
582.3671	4624
584.8378	4682
587.3079	4776
589.7773	4663
592.244	4649
594.714	4739
597.1793	4636
599.6461	4666
602.1121	4691
604.5754	4702
607.0421	4688
609.5042	4576
611.9675	4835
614.4282	4635
616.8902	4660
619.3515	4700
621.8122	4752
624.2702	4739
626.7296	4608
629.1863	4663
631.6423	4807
634.1017	4567
636.5563	4677
639.0104	4637
641.4658	4746
643.9185	4693
646.3725	4739
648.8239	4720
651.2766	4710
653.7266	4683
656.176	4741
658.6247	4750
661.0748	4733
663.5242	4690
665.9709	4751
668.417	4822
670.8624	4823
673.3092	4726
675.7533	4812
678.1968	4757
680.6395	4774
683.0817	4819
685.5251	4701
687.9659	4900
690.4061	4824
692.8456	4873
695.2844	4807
697.7226	4820
700.1621	4789
702.599	4834
705.0332	4869
707.4688	4885
709.9036	4875
712.3399	4941
714.7735	4906
717.2044	4912
719.6367	4991
722.0683	4806
724.4993	4951
726.9296	4932
729.3593	5006
731.7883	4913
734.2147	5093
736.6423	5052
739.0714	5030
741.4958	5026
743.9216	5058
746.3447	5105
748.7691	4978
751.1929	5033
753.616	5088
756.0366	5074
758.4584	5061
760.8776	5094
763.2982	5199
765.718	5070
768.1373	5088
770.5539	5181
772.9698	5102
775.3871	5212
777.8038	5178
780.2178	5128
782.6332	5141
785.0459	5068
787.458	5193
789.8714	5100
792.2842	5185
794.6943	5208
797.1038	5138
799.5127	5168
801.9209	5089
804.3324	5269
806.7393	5181
809.1456	5166
811.5513	5152
813.9562	5248
816.3625	5206
818.7663	5287
821.1693	5268
823.5718	5205
825.9735	5224
828.3746	5323
830.7771	5256
833.177	5295
835.5762	5277
837.9747	5205
840.3727	5266
842.772	5400
845.1666	5258
847.5626	5270
849.958	5321
852.3527	5356
854.7488	5449
857.1403	5333
859.5331	5423
861.9253	5424
864.3168	5318
866.7057	5283
869.098	5269
871.4876	5332
873.8746	5336
876.263	5351
878.6487	5392
881.0378	5343
883.4243	5416
885.8081	5197
888.1933	5289
890.5759	5290
892.9598	5335
895.343	5349
897.7256	5307
900.1057	5415
902.4871	5280
904.8659	5259
907.246	5350
909.6254	5426
912.0023	5479
914.3786	5427
916.7562	5546
919.1331	5480
921.5074	5572
923.8831	5582
926.2562	5614
928.6287	5652
931.0005	5578
933.3757	5552
935.7462	5648
938.1162	5578
940.4855	5741
942.8542	5725
945.2242	5738
947.5916	5813
949.9584	5895
952.3266	6064
954.6921	6184
957.0571	6340
959.4233	6529
961.787	6636
964.15	6360
966.5125	6450
968.8742	6180
971.2354	6052
973.5959	5893
975.9559	5774
978.3151	5685
980.6738	5702
983.0338	5541
985.3912	5515
987.7461	5592
990.1022	5597
992.4578	5512
994.8127	5494
997.1689	5543
999.5207	5497
1001.874	5536
1004.226	5624
1006.576	5528
1008.929	5651
1011.28	5493
1013.628	5679
1015.977	5460
1018.324	5530
1020.674	5545
1023.019	5596
1025.366	5604
1027.713	5569
1030.056	5554
1032.399	5655
1034.746	5598
1037.087	5558
1039.431	5669
1041.771	5665
1044.113	5660
1046.454	5622
1048.793	5656
1051.133	5685
1053.471	5657
1055.807	5612
1058.146	5547
1060.483	5671
1062.818	5763
1065.153	5713
1067.489	5830
1069.822	5756
1072.156	5842
1074.488	5794
1076.82	5746
1079.15	5776
1081.48	5668
1083.814	5761
1086.143	5631
1088.471	5797
1090.799	5710
1093.126	5751
1095.452	5751
1097.78	5698
1100.105	5794
1102.43	5705
1104.754	5729
1107.077	5798
1109.4	5590
1111.722	5797
1114.044	5716
1116.365	5694
1118.685	5655
1121.005	5860
1123.324	5739
1125.643	5726
1127.961	5804
1130.278	5723
1132.595	5784
1134.911	5850
1137.226	5705
1139.541	5683
1141.854	5778
1144.167	5696
1146.482	5815
1148.793	5726
1151.105	5692
1153.414	5725
1155.725	5826
1158.033	5690
1160.344	5700
1162.651	5835
1164.959	5712
1167.265	5795
1169.572	5858
1171.878	5698
1174.184	5651
1176.488	5700
1178.79	5692
1181.094	5792
1183.396	5756
1185.699	5619
1188.001	5774
1190.301	5764
1192.6	5825
1194.9	5776
1197.2	5655
1199.497	5748
1201.794	5855
1204.09	5718
1206.387	5841
1208.684	5728
1210.978	5729
1213.272	5831
1215.565	5758
1217.858	5755
1220.15	5798
1222.443	5868
1224.734	5764
1227.024	5874
1229.313	5853
1231.602	5908
1233.892	6026
1236.18	5943
1238.467	6026
1240.754	5977
1243.04	5886
1245.325	5922
1247.612	6005
1249.896	5946
1252.178	5914
1254.461	6004
1256.743	6128
1259.027	6033
1261.308	6027
1263.587	6031
1265.867	5985
1268.146	6072
1270.425	6003
1272.703	6003
1274.981	5973
1277.256	6072
1279.532	5908
1281.808	5922
1284.083	6038
1286.358	5952
1288.63	5959
1290.904	5851
1293.175	5876
1295.449	5936
1297.719	6010
1299.99	5993
1302.259	5881
1304.529	5956
1306.798	5954
1309.065	5912
1311.333	5966
1313.599	5861
1315.866	5849
1318.131	5794
1320.396	5891
1322.66	5985
1324.925	5973
1327.187	6009
1329.448	5815
1331.711	6003
1333.974	6020
1336.234	6032
1338.493	5947
1340.752	5945
1343.01	5897
1345.269	5948
1347.526	5909
1349.784	5914
1352.04	5807
1354.295	5909
1356.552	6012
1358.806	5923
1361.059	5819
1363.312	6011
1365.564	6006
1367.818	5929
1370.069	5977
1372.318	5889
1374.568	5961
1376.817	5969
1379.066	5974
1381.316	5975
1383.564	5938
1385.809	6110
1388.056	6075
1390.301	6030
1392.549	6031
1394.793	6078
1397.036	6052
1399.279	6085
1401.522	6100
1403.763	6151
1406.007	6259
1408.248	6138
1410.487	6079
1412.727	6175
1414.965	6238
1417.205	6146
1419.442	6126
1421.68	6152
1423.915	6132
1426.152	6062
1428.388	6200
1430.623	6108
1432.857	6127
1435.091	6084
1437.323	6259
1439.556	6143
1441.789	6216
1444.019	6210
1446.25	6218
1448.48	6368
1450.708	6403
1452.938	6345
1455.167	6310
1457.394	6098
1459.62	6208
1461.846	6250
1464.073	6389
1466.299	6189
1468.523	6184
1470.746	6318
1472.969	6116
1475.191	6123
1477.415	6184
1479.636	6050
1481.858	6028
1484.078	6041
1486.298	6006
1488.518	6015
1490.736	6090
1492.954	6001
1495.169	5949
1497.386	5966
1499.602	6054
1501.819	5936
1504.034	5943
1506.248	6040
1508.462	5977
1510.675	5982
1512.888	5890
1515.1	5971
1517.311	6076
1519.522	5976
1521.732	5950
1523.942	5851
1526.151	5961
1528.36	5903
1530.566	5969
1532.773	5839
1534.98	6042
1537.187	5971
1539.392	5959
1541.596	6071
1543.801	6122
1546.005	6005
1548.208	6018
1550.411	6134
1552.612	6148
1554.814	6142
1557.013	6079
1559.212	6053
1561.414	6239
1563.612	6090
1565.811	6019
1568.007	6142
1570.203	6119
1572.403	6040
1574.598	6164
1576.792	6194
1578.988	6253
1581.181	6048
1583.376	6166
1585.568	6190
1587.761	6139
1589.952	6272
1592.143	6262
1594.333	6216
1596.524	6117
1598.715	6239
1600.903	6134
1603.091	6184
1605.278	6149
1607.466	6197
1609.652	6207
1611.838	6315
1614.023	6201
1616.207	6163
1618.391	6244
1620.576	6205
1622.759	6238
1624.941	6170
1627.123	6263
1629.304	6157
1631.484	6320
1633.664	6450
1635.844	6205
1638.022	6221
1640.201	6346
1642.38	6325
1644.556	6293
1646.732	6327
1648.908	6168
1651.084	6201
1653.257	6243
1655.433	6320
1657.607	6371
1659.779	6307
1661.951	6250
1664.122	6317
1666.295	6296
1668.467	6344
1670.635	6387
1672.805	6349
1674.973	6277
1677.142	6565
1679.31	6375
1681.478	6349
1683.644	6367
1685.81	6308
1687.975	6280
1690.142	6263
1692.305	6281
1694.468	6252
1696.632	6337
1698.794	6189
1700.957	6263
1703.119	6265
1705.279	6221
1707.439	6189
1709.598	6117
1711.758	6228
1713.917	6170
1716.075	6256
1718.231	6210
1720.388	6222
1722.543	6180
1724.702	6233
1726.856	6267
1729.01	6187
1731.164	6130
1733.317	6255
1735.471	6186
1737.623	6218
1739.774	6139
1741.925	6196
1744.075	6247
1746.225	6156
1748.376	6110
1750.524	6179
1752.672	6096
1754.82	6167
1756.965	6096
1759.113	6305
1761.259	6175
1763.405	6173
1765.549	6202
1767.694	6175
1769.836	6216
1771.981	6324
1774.123	6247
1776.264	6229
1778.405	6283
1780.546	6359
1782.687	6204
1784.827	6187
1786.966	6314
1789.103	6228
1791.242	6366
1793.381	6135
1795.517	6232
1797.653	6303
1799.788	6222
1801.923	6282
1804.057	6148
1806.193	6142
1808.326	6249
1810.457	6324
1812.59	6321
1814.721	6396
1816.855	6196
1818.984	6305
1821.113	6204
1823.244	6222
1825.372	6314
1827.499	6165
1829.63	6211
1831.756	6281
1833.882	6227
1836.007	6265
1838.132	6139
1840.26	6266
1842.384	6124
1844.507	6040
1846.63	6213
1848.752	6176
1850.875	6145
1852.996	6211
1855.118	6175
1857.238	6231
1859.358	6139
1861.477	6117
1863.597	6143
1865.715	6172
1867.832	6259
1869.948	6253
1872.064	6161
1874.181	6237
1876.297	6181
1878.411	6216
1880.526	6221
1882.639	6185
1884.752	6175
1886.865	6307
1888.977	6187
1891.089	6295
1893.2	6337
1895.308	6287
1897.42	6267
1899.53	6375
1901.639	6336
1903.745	6191
1905.853	6378
1907.962	6288
1910.067	6301
1912.174	6371
1914.278	6311
1916.383	6315
1918.486	6341
1920.592	6271
1922.694	6297
1924.797	6176
1926.898	6333
1929	6307
1931.102	6315
1933.203	6237
1935.301	6237
1937.401	6209
1939.499	6344
1941.598	6262
1943.697	6280
1945.793	6251
1947.888	6237
1949.985	6360
1952.08	6249
1954.176	6319
1956.269	6289
1958.364	6381
1960.457	6254
1962.549	6165
1964.642	6184
1966.733	6213
1968.823	6352
1970.913	6228
1973.005	6210
1975.093	6338
1977.184	6354
1979.271	6285
1981.359	6327
1983.446	6138
1985.532	6260
1987.619	6304
1989.705	6236
1991.789	6199
1993.874	6240
1995.956	6266
1998.041	6212
2000.123	6273
2002.206	6237
2004.287	6202
2006.368	6173
2008.449	6123
2010.529	6226
2012.609	6323
2014.688	6171
2016.766	6206
2018.843	6260
2020.922	6199
2022.999	6208
2025.074	6207
2027.15	6219
2029.225	6275
2031.299	6245
2033.375	6252
2035.447	6188
2037.52	6267
2039.592	6282
2041.664	6190
2043.736	6226
2045.807	6221
2047.876	6134
2049.947	6161
2052.015	6263
2054.086	6351
2056.153	6118
2058.221	6335
2060.288	6188
2062.353	6209
2064.42	6289
2066.486	6219
2068.55	6240
2070.614	6191
2072.678	6354
2074.741	6243
2076.805	6321
2078.866	6340
2080.929	6128
2082.99	6224
2085.049	6200
2087.109	6223
2089.17	6243
2091.228	6257
2093.286	6265
2095.344	6291
2097.4	6159
2099.46	6257
2101.516	6219
2103.572	6280
2105.626	6212
2107.679	6293
2109.735	6354
2111.788	6185
2113.841	6319
2115.894	6310
2117.945	6236
2119.997	6283
2122.049	6232
2124.1	6310
2126.148	6292
2128.197	6205
2130.246	6285
2132.296	6084
2134.342	6296
2136.39	6277
2138.437	6256
2140.483	6245
2142.527	6218
2144.574	6326
2146.619	6252
2148.661	6128
2150.705	6102
2152.747	6216
2154.792	6316
2156.832	6281
2158.874	6287
2160.915	6147
2162.954	6218
2164.995	6171
2167.034	6234
2169.072	6094
2171.111	6270
2173.148	6060
2175.186	6151
2177.223	6213
2179.258	6157
2181.294	6185
2183.328	6109
2185.362	6072
2187.398	6048
2189.431	6090
2191.463	6185
2193.495	6158
2195.528	6054
2197.56	6240
2199.59	6004
2201.62	6036
2203.649	6141
2205.678	6099
2207.708	6176
2209.737	6093
2211.764	5975
2213.791	6148
2215.817	6139
2217.843	6061
2219.87	6098
2221.895	6091
2223.919	6033
2225.942	6105
2227.966	6084
2229.988	6187
2232.012	5949
2234.032	6128
2236.054	6023
2238.074	6028
2240.095	6135
2242.116	6029
2244.135	6068
2246.153	6116
2248.171	6152
2250.188	6192
2252.208	6065
2254.223	6118
2256.239	6059
2258.255	6029
2260.269	6054
2262.283	6072
2264.3	6213
2266.312	5994
2268.325	6046
2270.336	6135
2272.349	6036
2274.362	6161
2276.372	6030
2278.383	6052
2280.392	6072
2282.402	6139
2284.409	6071
2286.418	6136
2288.427	6069
2290.433	6153
2292.441	6221
2294.446	6028
2296.453	6032
2298.459	6122
2300.463	6096
2302.466	5996
2304.471	6091
2306.475	6060
2308.477	6033
2310.478	6014
2312.481	6090
2314.481	6017
2316.481	6014
2318.482	6081
2320.482	6041
2322.48	6078
2324.48	6061
2326.478	6009
2328.476	6045
2330.473	6079
2332.469	6049
2334.465	6031
2336.46	6039
2338.454	5965
2340.45	5921
2342.444	6008
2344.437	5972
2346.43	6019
2348.421	5911
2350.414	6035
2352.405	5909
2354.396	5948
2356.386	6019
2358.376	5925
2360.366	5999
2362.355	5930
2364.343	5972
2366.331	5937
2368.317	6000
2370.304	5855
2372.292	6016
2374.278	5969
2376.262	5964
2378.247	5983
2380.23	5993
2382.216	6016
2384.199	5859
2386.181	5881
2388.163	5930
2390.144	5938
2392.127	5923
2394.107	5869
2396.087	5875
2398.066	5909
2400.046	5985
2402.023	5805
2404.004	5854
2405.981	5784
2407.957	5986
2409.934	5904
2411.91	5809
2413.886	5969
2415.862	5867
2417.836	5870
2419.809	5874
2421.784	5981
2423.756	5891
2425.73	5855
2427.701	5875
2429.672	5867
2431.644	5962
2433.615	5917
2435.586	5898
2437.555	5932
2439.523	5940
2441.491	5847
2443.459	5987
2445.428	5794
2447.395	5844
2449.361	5842
2451.327	5787
2453.292	5843
2455.257	5909
2457.223	5855
2459.187	5859
2461.15	5878
2463.113	5633
2465.076	5802
2467.039	5809
2468.999	5865
2470.96	5801
2472.921	5814
2474.881	5877
2476.841	5795
2478.8	5830
2480.759	5775
2482.717	5784
2484.675	5773
2486.63	5735
2488.589	5784
2490.545	5700
2492.5	5838
2494.455	5856
2496.408	5802
2498.364	5744
2500.318	5772
2502.27	5824
2504.223	5766
2506.174	5796
2508.126	5820
2510.078	5683
2512.03	5726
2513.979	5660
2515.927	5689
2517.877	5859
2519.826	5685
2521.775	5657
2523.722	5660
2525.668	5694
2527.616	5710
2529.561	5728
2531.508	5714
2533.452	5760
2535.398	5743
2537.342	5696
2539.284	5693
2541.229	5879
2543.173	5813
2545.114	5729
2547.055	5703
2548.996	5786
2550.938	5785
2552.878	5689
2554.817	5720
2556.756	5766
2558.695	5835
2560.633	5639
2562.572	5691
2564.509	5741
2566.445	5770
2568.382	5661
2570.317	5660
2572.254	5767
2574.189	5908
2576.123	5674
2578.057	5793
2579.99	5637
2581.923	5809
2583.855	5663
2585.788	5775
2587.719	5697
2589.65	5666
2591.579	5674
2593.511	5683
2595.44	5715
2597.37	5692
2599.297	5777
2601.225	5607
2603.153	5682
2605.08	5783
2607.007	5725
2608.932	5695
2610.858	5763
2612.782	5780
2614.709	5664
2616.632	5764
2618.556	5822
2620.478	5776
2622.401	5666
2624.324	5798
2626.247	5821
2628.167	5777
2630.088	5859
2632.008	5730
2633.928	5755
2635.848	5667
2637.766	5843
2639.684	5779
2641.603	5757
2643.519	5738
2645.437	5767
2647.353	5716
2649.27	5732
2651.184	5843
2653.099	5683
2655.014	5735
2656.928	5794
2658.842	5790
2660.755	5852
2662.667	5811
2664.579	5789
2666.491	5728
2668.402	5759
2670.312	5695
2672.222	5630
2674.132	5749
2676.042	5733
2677.951	5712
2679.859	5670
2681.766	5647
2683.674	5656
2685.582	5675
2687.488	5656
2689.392	5718
2691.298	5650
2693.202	5646
2695.107	5686
2697.012	5662
2698.914	5758
2700.817	5656
2702.72	5657
2704.622	5705
2706.524	5680
2708.425	5567
2710.326	5657
2712.225	5643
2714.125	5635
2716.024	5668
2717.923	5723
2719.822	5649
2721.719	5615
2723.616	5613
2725.512	5639
2727.41	5563
2729.305	5581
2731.201	5585
2733.095	5742
2734.99	5729
2736.884	5630
2738.778	5594
2740.67	5635
2742.562	5610
2744.455	5647
2746.346	5542
2748.238	5643
2750.129	5496
2752.018	5644
2753.907	5571
2755.797	5705
2757.687	5571
2759.575	5572
2761.462	5544
2763.349	5678
2765.237	5525
2767.124	5620
2769.009	5557
2770.894	5641
2772.779	5629
2774.663	5627
2776.547	5597
2778.431	5473
2780.314	5538
2782.197	5516
2784.078	5605
2785.96	5668
2787.842	5535
2789.723	5622
2791.603	5594
2793.483	5673
2795.362	5547
2797.241	5524
2799.121	5516
2800.997	5506
2802.874	5563
2804.751	5457
2806.628	5594
2808.506	5457
2810.38	5459
2812.255	5454
2814.13	5598
2816.003	5543
2817.878	5611
2819.752	5465
2821.623	5541
2823.496	5575
2825.368	5555
2827.238	5491
2829.111	5603
2830.98	5469
2832.851	5555
2834.719	5530
2836.589	5575
2838.458	5644
2840.327	5521
2842.193	5578
2844.061	5572
2845.927	5516
2847.794	5550
2849.66	5713
2851.525	5527
2853.39	5539
2855.254	5616
2857.117	5690
2858.983	5687
2860.845	5682
2862.707	5590
2864.569	5665
2866.431	5746
2868.293	5657
2870.154	5739
2872.013	5788
2873.873	5730
2875.733	5910
2877.592	5763
2879.451	5776
2881.309	5938
2883.166	5883
2885.022	6001
2886.879	5955
2888.736	5884
2890.591	6003
2892.446	6077
2894.301	6049
2896.155	6025
2898.009	5926
2899.863	6088
2901.716	6036
2903.568	5880
2905.419	6027
2907.27	5946
2909.123	5985
2910.973	5938
2912.824	5986
2914.673	5984
2916.521	6107
2918.372	6133
2920.22	6171
2922.067	6187
2923.914	6240
2925.761	6194
2927.607	6290
2929.455	6334
2931.301	6288
2933.144	6467
2934.99	6427
2936.833	6380
2938.678	6458
2940.522	6528
2942.364	6642
2944.207	6727
2946.048	6692
2947.891	6765
2949.731	6736
2951.571	6774
2953.412	6708
2955.25	6610
2957.09	6564
2958.93	6600
2960.767	6497
2962.606	6460
2964.443	6469
2966.279	6374
2968.116	6301
2969.953	6317
2971.788	6192
2973.623	6162
2975.457	6037
2977.292	6198
2979.127	6102
2980.959	6083
2982.792	6014
2984.624	6009
2986.455	5977
2988.288	5979
2990.119	5873
2991.949	5849
2993.779	5842
2995.608	5951
2997.439	5799
2999.268	5700
3001.096	5678
3002.923	5661
3004.751	5751
3006.578	5697
3008.406	5539
3010.232	5559
3012.057	5560
3013.883	5423
3015.706	5520
3017.532	5472
3019.356	5480
3021.179	5333
3023.002	5415
3024.823	5379
3026.646	5303
3028.469	5282
3030.289	5412
3032.11	5339
3033.93	5430
3035.749	5278
3037.57	5266
3039.39	5283
3041.207	5269
3043.026	5309
3044.842	5307
3046.661	5273
3048.477	5283
3050.294	5297
3052.109	5273
3053.925	5267
3055.739	5291
3057.555	5224
3059.368	5258
3061.181	5248
3062.995	5199
3064.807	5244
3066.62	5171
3068.433	5214
3070.243	5235
3072.054	5173
3073.865	5269
3075.675	5150
3077.485	5185
3079.293	5131
3081.102	5109
3082.911	5218
3084.719	5169
3086.527	5101
3088.333	5062
3090.139	5145
3091.945	5033
3093.75	5156
3095.557	5186
3097.361	5145
3099.165	5109
3100.969	5110
3102.772	5113
3104.575	5003
3106.379	5195
3108.181	5049
3109.982	5137
3111.783	5006
3113.584	5067
3115.386	5160
3117.186	5147
3118.985	4945
3120.783	5015
3122.582	4998
3124.381	5012
3126.179	5016
3127.975	5116
3129.772	5038
3131.569	5075
3133.365	5032
3135.161	4953
3136.956	4889
3138.751	5050
3140.544	4941
3142.338	4998
3144.132	5064
3145.925	5087
3147.717	4941
3149.509	4978
3151.301	4978
3153.091	4930
3154.884	4870
3156.673	4968
3158.462	4966
3160.252	4904
3162.041	4949
3163.831	4920
3165.618	5005
3167.405	5008
3169.193	4867
3170.979	4935
3172.767	4902
3174.553	4964
3176.338	4921
3178.123	5004
3179.907	4903
3181.692	5004
3183.477	5060
3185.259	4900
3187.042	4814
3188.824	4881
3190.607	4860
3192.389	4944
3194.17	4901
3195.951	4797
3197.73	4851
3199.51	4880
3201.289	4891
3203.07	4867
3204.848	4867
3206.626	4852
3208.403	4930
3210.18	4915
3211.959	4843
3213.735	4866
3215.511	4846
3217.285	4906
3219.06	4927
3220.836	5013
3222.611	4766
3224.384	4946
3226.158	4891
3227.929	4905
3229.702	4875
3231.476	4942
3233.248	4866
3235.018	4933
3236.789	4866
3238.56	4910
3240.33	4828
3242.1	4849
3243.869	4740
3245.637	4838
3247.405	4822
3249.172	4917
3250.941	4788
3252.707	4859
3254.474	4845
3256.24	4843
3258.006	4809
3259.772	4910
3261.537	4826
3263.301	4820
3265.065	4837
3266.828	4813
3268.592	4776
3270.355	4886
3272.117	4799
3273.878	4816
3275.64	4787
3277.401	4799
3279.162	4893
3280.922	4850
3282.682	4846
3284.441	4858
3286.199	4925
3287.959	4879
3289.716	4698
3291.475	4827
3293.232	4821
3294.988	4839
3296.744	4861
3298.501	4884
3300.256	4849
3302.011	4859
3303.766	4913
3305.52	4807
3307.275	4797
3309.028	4799
3310.781	4716
3312.533	4847
3314.285	4772
3316.038	4737
3317.789	4799
3319.54	4797
3321.289	4761
3323.039	4948
3324.789	4761
3326.539	4829
3328.288	4840
3330.035	4763
3331.783	4775
3333.531	4782
3335.28	4840
3337.025	4841
3338.771	4746
3340.518	4749
3342.262	4784
3344.009	4868
3345.753	4719
3347.497	4758
3349.24	4719
3350.983	4771
3352.726	4766
3354.469	4729
3356.212	4808
3357.952	4670
3359.694	4655
3361.434	4762
3363.176	4764
3364.916	4723
3366.654	4742
3368.394	4604
3370.132	4712
3371.871	4721
3373.61	4668
3375.346	4632
3377.083	4717
3378.82	4702
3380.556	4720
3382.292	4654
3384.027	4673
3385.763	4614
3387.497	4732
3389.231	4666
3390.965	4770
3392.698	4710
3394.431	4640
3396.164	4655
3397.896	4668
3399.627	4651
3401.36	4630
3403.09	4606
3404.82	4656
3406.55	4595
3408.279	4608
3410.01	4609
3411.738	4581
3413.467	4592
3415.194	4589
3416.92	4514
3418.647	4687
3420.375	4549
3422.102	4496
3423.827	4490
3425.553	4594
3427.277	4631
3429.003	4557
3430.727	4590
3432.451	4631
3434.173	4468
3435.896	4563
3437.62	4584
3439.343	4557
3441.063	4625
3442.785	4466
3444.505	4532
3446.226	4523
3447.948	4564
3449.666	4431
3451.386	4530
3453.104	4491
3454.823	4584
3456.541	4489
3458.259	4421
3459.976	4464
3461.693	4447
3463.408	4512
3465.125	4411
3466.841	4463
3468.556	4428
3470.271	4395
3471.985	4386
3473.698	4388
3475.414	4483
3477.126	4350
3478.838	4393
3480.55	4359
3482.263	4379
3483.975	4375
3485.686	4481
3487.396	4355
3489.106	4282
3490.817	4376
3492.526	4417
3494.236	4364
3495.944	4338
3497.652	4372
3499.359	4328
3501.066	4359
3502.775	4331
3504.481	4333
3506.187	4385
3507.893	4266
3509.598	4294
3511.304	4340
3513.009	4277
3514.713	4302
3516.417	4247
3518.12	4259
3519.821	4280
3521.525	4241
3523.228	4296
3524.929	4327
3526.631	4284
3528.33	4243
3530.032	4342
3531.733	4310
3533.433	4223
3535.131	4230
3536.83	4218
3538.529	4246
3540.227	4188
3541.925	4251
3543.623	4080
3545.319	4281
3547.016	4270
3548.712	4263
3550.408	4271
3552.103	4173
3553.798	4170
3555.491	4194
3557.188	4175
3558.88	4203
3560.574	4188
3562.266	4201
3563.959	4145
3565.651	4183
3567.343	4160
3569.035	4142
3570.725	4134
3572.415	4083
3574.106	4111
3575.797	4111
3577.485	4033
3579.174	4078
3580.863	4143
3582.551	4078
3584.238	4125
3585.926	4063
3587.613	4116
3589.3	4061
3590.986	4023
3592.671	4042
3594.357	4095
3596.042	4011
3597.726	3988
3599.41	4096
3601.094	4047
3602.778	4086
3604.461	4027
3606.143	4052
3607.825	4043
3609.507	3962
3611.188	3924
3612.87	4031
3614.551	4049
3616.229	3954
3617.909	3962
3619.589	3936
3621.269	3981
3622.948	4013
3624.625	4022
3626.302	3920
3627.98	3908
3629.657	3958
3631.334	3951
3633.01	4051
3634.686	3996
3636.361	3965
3638.036	3920
3639.712	3947
3641.385	3971
3643.06	3866
3644.732	3931
3646.405	3877
3648.08	3838
3649.751	3828
3651.424	3887
3653.094	3875
3654.766	3929
3656.436	3894
3658.106	3955
3659.777	3878
3661.446	3939
3663.115	3905
3664.783	3845
3666.452	3833
3668.121	3883
3669.788	3795
3671.454	3941
3673.121	3798
3674.789	3874
3676.455	3796
3678.12	3846
3679.784	3828
3681.45	3817
3683.114	3949
3684.779	3803
3686.442	3839
3688.105	3815
3689.768	3822
3691.43	3811
3693.093	3783
3694.754	3797
3696.415	3780
3698.076	3750
3699.736	3774
3701.396	3752
3703.057	3804
3704.716	3735
3706.375	3792
3708.034	3804
3709.692	3722
3711.351	3774
3713.008	3720
3714.665	3850
3716.321	3705
3717.977	3776
3719.634	3735
3721.29	3707
3722.945	3759
3724.598	3722
3726.253	3696
3727.907	3723
3729.561	3792
3731.214	3824
3732.867	3715
3734.518	3734
3736.171	3671
3737.824	3761
3739.474	3709
3741.125	3645
3742.775	3655
3744.425	3659
3746.074	3768
3747.725	3726
3749.373	3715
3751.022	3623
3752.669	3666
3754.318	3740
3755.966	3715
3757.612	3700
3759.259	3598
3760.905	3699
3762.55	3654
3764.197	3691
3765.842	3650
3767.486	3712
3769.131	3644
3770.774	3657
3772.417	3627
3774.061	3687
3775.705	3664
3777.347	3654
3778.988	3695
3780.629	3702
3782.271	3637
3783.912	3634
3785.552	3573
3787.192	3646
3788.831	3693
3790.472	3540
3792.112	3646
3793.75	3607
3795.388	3603
3797.024	3621
3798.661	3630
3800.3	3653
3801.936	3508
3803.572	3632
3805.208	3681
3806.844	3584
3808.48	3562
3810.115	3575
3811.748	3534
3813.382	3510
3815.016	3629
3816.649	3509
3818.283	3609
3819.914	3578
3821.547	3537
3823.178	3562
3824.809	3464
3826.441	3551
3828.072	3559
3829.701	3565
3831.331	3574
3832.96	3493
3834.591	3519
3836.219	3540
3837.847	3555
3839.475	3482
3841.102	3494
3842.729	3466
3844.357	3548
3845.984	3557
3847.609	3499
3849.234	3559
3850.86	3448
3852.485	3516
3854.11	3420
3855.734	3483
3857.357	3434
3858.981	3470
3860.603	3524
3862.227	3449
3863.848	3463
3865.471	3534
3867.092	3485
3868.713	3482
3870.334	3470
3871.954	3459
3873.575	3426
3875.194	3437
3876.813	3462
3878.433	3608
3880.051	3443
3881.669	3444
3883.286	3492
3884.904	3464
3886.52	3442
3888.138	3414
3889.754	3383
3891.37	3421
3892.985	3325
3894.6	3430
3896.216	3372
3897.831	3394
3899.444	3385
3901.058	3507
3902.67	3418
3904.283	3477
3905.897	3398
3907.509	3392
3909.121	3369
3910.731	3381
3912.342	3309
3913.954	3409
3915.563	3372
3917.174	3327
3918.783	3365
3920.391	3467
3922.002	3378
3923.611	3365
3925.218	3340
3926.826	3298
3928.432	3331
3930.039	3318
3931.647	3357
3933.253	3385
3934.859	3383
3936.464	3327
3938.068	3339
3939.675	3404
3941.278	3282
3942.883	3416
3944.486	3379
3946.089	3394
3947.692	3407
3949.295	3317
3950.898	3383
3952.499	3276
3954.1	3305
3955.7	3237
3957.303	3300
3958.903	3276
3960.502	3292
3962.101	3321
3963.7	3204
3965.301	3288
3966.899	3313
3968.497	3277
3970.094	3310
3971.691	3346
3973.288	3258
3974.885	3269
3976.481	3289
3978.077	3263
3979.672	3311
3981.267	3262
3982.863	3234
3984.457	3276
3986.051	3283
3987.645	3200
3989.238	3228
3990.831	3214
3992.425	3212
3994.017	3176
3995.607	3233
3997.199	3218
3998.79	3234
4000.382	3168
4001.973	3240
4003.561	3209
4005.151	3156
4006.741	3136
4008.331	3161
4009.918	3199
4011.507	3136
4013.095	3191
4014.681	3188
4016.269	3106
4017.856	3182
4019.443	3181
4021.028	3096
4022.614	3123
4024.199	3130
4025.785	3132
4027.37	3207
4028.953	3117
4030.536	3163
4032.12	3109
4033.704	3104
4035.287	3090
4036.869	3153
4038.45	3149
4040.032	3055
4041.613	3054
4043.195	3102
4044.776	3118
4046.356	3071
4047.935	3122
4049.515	3120
4051.095	3133
4052.674	3087
4054.251	3087
4055.829	3045
4057.406	3110
4058.985	3101
4060.562	3056
4062.139	2998
4063.715	3066
4065.29	3057
4066.865	3018
4068.442	3033
4070.016	3027
4071.59	3069
4073.164	3053
4074.738	3031
4076.312	3070
4077.885	3011
4079.458	3037
4081.03	3064
4082.602	3026
4084.173	2999
4085.745	3032
4087.315	3052
4088.886	3086
4090.456	3021
4092.026	2998
4093.596	3059
4095.165	3071
4096.734	2983
4098.301	3042
4099.869	3054
4101.437	3056
4103.006	2962
4104.572	3041
4106.139	3009
4107.704	2972
4109.27	3123
4110.837	2937
4112.401	3029
4113.966	3040
4115.53	3007
4117.094	2993
4118.659	3072
4120.223	2901
4121.785	2961
4123.347	3002
4124.909	2931
4126.471	2978
4128.034	2937
4129.595	2980
4131.155	2933
4132.716	2926
4134.275	2936
4135.836	2970
4137.395	2980
4138.955	2836
4140.513	2913
4142.071	2988
4143.628	2878
4145.188	2912
4146.745	2915
4148.302	2959
4149.858	2925
4151.414	2875
4152.971	2831
4154.526	2842
4156.081	2874
4157.635	2880
4159.189	3015
4160.745	2861
4162.298	2855
4163.852	2872
4165.405	2859
4166.957	2878
4168.51	2853
4170.063	2827
4171.614	2836
4173.166	2830
4174.717	2842
4176.267	2849
4177.817	2871
4179.368	2832
4180.917	2787
4182.466	2821
4184.016	2903
4185.564	2870
4187.112	2867
4188.66	2811
4190.207	2873
4191.754	2808
4193.301	2817
4194.848	2788
4196.394	2816
4197.94	2818
4199.484	2834
4201.03	2723
4202.575	2715
4204.12	2774
4205.663	2792
4207.207	2768
4208.75	2756
4210.292	2737
4211.836	2825
4213.378	2733
4214.92	2814
4216.46	2713
4218.002	2822
4219.544	2779
4221.083	2794
4222.625	2713
4224.164	2712
4225.703	2764
4227.244	2796
4228.782	2836
4230.32	2753
4231.857	2735
4233.395	2736
4234.933	2799
4236.471	2765
4238.007	2762
4239.542	2717
4241.078	2737
4242.614	2791
4244.15	2737
4245.685	2715
4247.219	2720
4248.753	2772
4250.287	2705
4251.82	2788
4253.354	2652
4254.887	2751
4256.419	2706
4257.951	2686
4259.483	2685
4261.016	2678
4262.547	2654
4264.078	2679
4265.608	2760
4267.137	2713
4268.668	2624
4270.197	2660
4271.727	2666
4273.254	2693
4274.783	2659
4276.311	2630
4277.84	2604
4279.366	2640
4280.894	2724
4282.42	2739
4283.946	2632
4285.473	2624
4286.998	2673
4288.523	2711
4290.047	2677
4291.572	2660
4293.096	2687
4294.622	2591
4296.144	2598
4297.668	2690
4299.19	2684
4300.713	2632
4302.236	2711
4303.758	2682
4305.279	2641
4306.799	2641
4308.321	2662
4309.842	2601
4311.361	2608
4312.882	2683
4314.401	2592
