400.0961	2469
402.6185	2488
405.1424	2519
407.6635	2493
410.1838	2593
412.7035	2546
415.2225	2503
417.7388	2580
420.2585	2595
422.7754	2602
425.2917	2609
427.8072	2711
430.3221	2609
432.8363	2744
435.3498	2698
437.8626	2637
440.3727	2700
442.8841	2716
445.3969	2692
447.907	2784
450.4142	2684
452.9229	2768
455.4289	2643
457.9362	2677
460.4449	2624
462.9488	2634
465.454	2622
467.9566	2680
470.4604	2620
472.9637	2558
475.4662	2597
477.966	2642
480.4671	2633
482.9656	2576
485.4633	2636
487.9645	2642
490.4608	2601
492.9566	2559
495.4536	2634
497.948	2598
500.4437	2615
502.9387	2631
505.431	2583
507.9226	2622
510.4136	2685
512.9079	2639
515.3975	2695
517.8864	2636
520.3746	2639
522.8622	2597
525.3491	2662
527.8394	2745
530.3249	2647
532.8098	2694
535.2939	2716
537.7774	2656
540.2623	2674
542.7444	2673
545.2259	2725
547.7067	2698
550.1868	2674
552.6683	2654
555.147	2755
557.6231	2726
560.1005	2701
562.5773	2693
565.0534	2679
567.5308	2742
570.0056	2827
572.4776	2824
574.951	2828
577.4237	2900
579.8978	2861
582.3671	2848
584.8378	2914
587.3079	2848
589.7773	2869
592.244	2869
594.714	2865
597.1793	2837
599.6461	2850
602.1121	2782
604.5754	2779
607.0421	2747
609.5042	2783
611.9675	2858
614.4282	2867
616.8902	2811
619.3515	2839
621.8122	2804
624.2702	2742
626.7296	2755
629.1863	2783
631.6423	2760
634.1017	2733
636.5563	2741
639.0104	2732
641.4658	2719
643.9185	2707
646.3725	2819
648.8239	2786
651.2766	2787
653.7266	2763
656.176	2798
658.6247	2749
661.0748	2833
663.5242	2796
665.9709	2829
668.417	2785
670.8624	2806
673.3092	2823
675.7533	2840
678.1968	2844
680.6395	2895
683.0817	2771
685.5251	2856
687.9659	2811
690.4061	2856
692.8456	2837
695.2844	2734
697.7226	2818
700.1621	2818
702.599	2820
705.0332	2913
707.4688	2799
709.9036	2901
712.3399	2818
714.7735	2869
717.2044	2858
719.6367	2866
722.0683	2927
724.4993	2943
726.9296	2968
729.3593	2866
731.7883	2973
734.2147	2941
736.6423	2994
739.0714	2896
741.4958	2934
743.9216	2913
746.3447	3053
748.7691	2948
751.1929	2947
753.616	3003
756.0366	3030
758.4584	3027
760.8776	3032
763.2982	3039
765.718	3050
768.1373	3029
770.5539	2996
772.9698	3045
775.3871	2949
777.8038	2962
780.2178	3049
782.6332	3020
785.0459	3007
787.458	2992
789.8714	3028
792.2842	2970
794.6943	2992
797.1038	3007
799.5127	3008
801.9209	2933
804.3324	3030
806.7393	2999
809.1456	3051
811.5513	3080
813.9562	3088
816.3625	3089
818.7663	3058
821.1693	3118
823.5718	3069
825.9735	3048
828.3746	3092
830.7771	3066
833.177	3106
835.5762	3083
837.9747	3118
840.3727	3070
842.772	3067
845.1666	3154
847.5626	3126
849.958	3183
852.3527	3222
854.7488	3191
857.1403	3211
859.5331	3189
861.9253	3124
864.3168	3261
866.7057	3181
869.098	3080
871.4876	3166
873.8746	3180
876.263	3262
878.6487	3140
881.0378	3155
883.4243	3193
885.8081	3212
888.1933	3190
890.5759	3148
892.9598	3185
895.343	3169
897.7256	3227
900.1057	3087
902.4871	3204
904.8659	3143
907.246	3227
909.6254	3230
912.0023	3189
914.3786	3241
916.7562	3347
919.1331	3334
921.5074	3407
923.8831	3392
926.2562	3463
928.6287	3344
931.0005	3414
933.3757	3409
935.7462	3443
938.1162	3477
940.4855	3528
942.8542	3527
945.2242	3588
947.5916	3737
949.9584	3787
952.3266	4048
954.6921	4252
957.0571	4550
959.4233	4663
961.787	4801
964.15	4799
966.5125	4639
968.8742	4332
971.2354	4046
973.5959	3839
975.9559	3646
978.3151	3542
980.6738	3363
983.0338	3444
985.3912	3339
987.7461	3394
990.1022	3337
992.4578	3293
994.8127	3314
997.1689	3319
999.5207	3394
1001.874	3313
1004.226	3408
1006.576	3415
1008.929	3352
1011.28	3279
1013.628	3270
1015.977	3330
1018.324	3275
1020.674	3381
1023.019	3325
1025.366	3327
1027.713	3394
1030.056	3470
1032.399	3413
1034.746	3425
1037.087	3371
1039.431	3441
1041.771	3452
1044.113	3395
1046.454	3465
1048.793	3364
1051.133	3356
1053.471	3306
1055.807	3390
1058.146	3465
1060.483	3499
1062.818	3519
1065.153	3396
1067.489	3522
1069.822	3527
1072.156	3549
1074.488	3527
1076.82	3587
1079.15	3552
1081.48	3462
1083.814	3471
1086.143	3471
1088.471	3375
1090.799	3377
1093.126	3500
1095.452	3314
1097.78	3349
1100.105	3324
1102.43	3474
1104.754	3274
1107.077	3364
1109.4	3346
1111.722	3400
1114.044	3364
1116.365	3292
1118.685	3352
1121.005	3380
1123.324	3307
1125.643	3301
1127.961	3315
1130.278	3412
1132.595	3385
1134.911	3380
1137.226	3315
1139.541	3367
1141.854	3306
1144.167	3343
1146.482	3328
1148.793	3339
1151.105	3271
1153.414	3340
1155.725	3316
1158.033	3416
1160.344	3391
1162.651	3306
1164.959	3347
1167.265	3374
1169.572	3370
1171.878	3315
1174.184	3358
1176.488	3313
1178.79	3378
1181.094	3406
1183.396	3384
1185.699	3302
1188.001	3388
1190.301	3346
1192.6	3290
1194.9	3370
1197.2	3356
1199.497	3361
1201.794	3360
1204.09	3413
1206.387	3384
1208.684	3369
1210.978	3385
1213.272	3441
1215.565	3439
1217.858	3404
1220.15	3409
1222.443	3437
1224.734	3388
1227.024	3485
1229.313	3416
1231.602	3497
1233.892	3475
1236.18	3520
1238.467	3541
1240.754	3483
1243.04	3558
1245.325	3522
1247.612	3593
1249.896	3615
1252.178	3583
1254.461	3601
1256.743	3568
1259.027	3507
1261.308	3632
1263.587	3568
1265.867	3582
1268.146	3478
1270.425	3625
1272.703	3542
1274.981	3586
1277.256	3514
1279.532	3486
1281.808	3515
1284.083	3485
1286.358	3499
1288.63	3444
1290.904	3464
1293.175	3543
1295.449	3489
1297.719	3554
1299.99	3454
1302.259	3426
1304.529	3478
1306.798	3378
1309.065	3521
1311.333	3415
1313.599	3539
1315.866	3470
1318.131	3501
1320.396	3484
1322.66	3425
1324.925	3558
1327.187	3508
1329.448	3551
1331.711	3501
1333.974	3447
1336.234	3516
1338.493	3570
1340.752	3513
1343.01	3487
1345.269	3555
1347.526	3475
1349.784	3539
1352.04	3474
1354.295	3435
1356.552	3435
1358.806	3527
1361.059	3492
1363.312	3417
1365.564	3483
1367.818	3463
1370.069	3579
1372.318	3540
1374.568	3477
1376.817	3531
1379.066	3508
1381.316	3548
1383.564	3404
1385.809	3517
1388.056	3559
1390.301	3614
1392.549	3480
1394.793	3511
1397.036	3594
1399.279	3649
1401.522	3713
1403.763	3661
1406.007	3695
1408.248	3790
1410.487	3694
1412.727	3691
1414.965	3639
1417.205	3594
1419.442	3761
1421.68	3601
1423.915	3676
1426.152	3688
1428.388	3621
1430.623	3611
1432.857	3644
1435.091	3613
1437.323	3730
1439.556	3714
1441.789	3798
1444.019	3725
1446.25	3653
1448.48	3699
1450.708	3741
1452.938	3785
1455.167	3865
1457.394	3777
1459.62	3747
1461.846	3845
1464.073	3646
1466.299	3699
1468.523	3716
1470.746	3616
1472.969	3644
1475.191	3654
1477.415	3536
1479.636	3524
1481.858	3514
1484.078	3539
1486.298	3563
1488.518	3557
1490.736	3517
1492.954	3562
1495.169	3518
1497.386	3543
1499.602	3543
1501.819	3546
1504.034	3523
1506.248	3512
1508.462	3444
1510.675	3403
1512.888	3465
1515.1	3479
1517.311	3462
1519.522	3403
1521.732	3491
1523.942	3462
1526.151	3497
1528.36	3523
1530.566	3507
1532.773	3569
1534.98	3486
1537.187	3524
1539.392	3532
1541.596	3434
1543.801	3503
1546.005	3519
1548.208	3455
1550.411	3544
1552.612	3504
1554.814	3575
1557.013	3442
1559.212	3636
1561.414	3565
1563.612	3484
1565.811	3515
1568.007	3549
1570.203	3485
1572.403	3526
1574.598	3543
1576.792	3635
1578.988	3621
1581.181	3595
1583.376	3550
1585.568	3621
1587.761	3533
1589.952	3538
1592.143	3666
1594.333	3636
1596.524	3602
1598.715	3596
1600.903	3589
1603.091	3573
1605.278	3597
1607.466	3651
1609.652	3614
1611.838	3608
1614.023	3602
1616.207	3639
1618.391	3565
1620.576	3658
1622.759	3655
1624.941	3707
1627.123	3646
1629.304	3626
1631.484	3701
1633.664	3701
1635.844	3704
1638.022	3704
1640.201	3737
1642.38	3790
1644.556	3769
1646.732	3741
1648.908	3765
1651.084	3647
1653.257	3764
1655.433	3747
1657.607	3711
1659.779	3795
1661.951	3743
1664.122	3810
1666.295	3789
1668.467	3819
1670.635	3811
1672.805	3819
1674.973	3705
1677.142	3741
1679.31	3758
1681.478	3736
1683.644	3790
1685.81	3721
1687.975	3708
1690.142	3704
1692.305	3667
1694.468	3711
1696.632	3661
1698.794	3717
1700.957	3702
1703.119	3696
1705.279	3611
1707.439	3525
1709.598	3618
1711.758	3627
1713.917	3639
1716.075	3596
1718.231	3586
1720.388	3610
1722.543	3647
1724.702	3546
1726.856	3561
1729.01	3604
1731.164	3605
1733.317	3586
1735.471	3567
1737.623	3656
1739.774	3597
1741.925	3609
1744.075	3532
1746.225	3576
1748.376	3640
1750.524	3584
1752.672	3584
1754.82	3591
1756.965	3543
1759.113	3635
1761.259	3650
1763.405	3670
1765.549	3659
1767.694	3647
1769.836	3642
1771.981	3675
1774.123	3656
1776.264	3625
1778.405	3614
1780.546	3625
1782.687	3689
1784.827	3711
1786.966	3664
1789.103	3650
1791.242	3666
1793.381	3588
1795.517	3579
1797.653	3529
1799.788	3611
1801.923	3581
1804.057	3640
1806.193	3669
1808.326	3634
1810.457	3668
1812.59	3570
1814.721	3590
1816.855	3634
1818.984	3624
1821.113	3656
1823.244	3590
1825.372	3607
1827.499	3606
1829.63	3707
1831.756	3665
1833.882	3606
1836.007	3632
1838.132	3648
1840.26	3691
1842.384	3543
1844.507	3577
1846.63	3600
1848.752	3619
1850.875	3667
1852.996	3587
1855.118	3613
1857.238	3574
1859.358	3593
1861.477	3667
1863.597	3599
1865.715	3610
1867.832	3559
1869.948	3652
1872.064	3597
1874.181	3593
1876.297	3582
1878.411	3579
1880.526	3551
1882.639	3619
1884.752	3600
1886.865	3575
1888.977	3632
1891.089	3657
1893.2	3606
1895.308	3494
1897.42	3715
1899.53	3581
1901.639	3706
1903.745	3688
1905.853	3664
1907.962	3578
1910.067	3521
1912.174	3627
1914.278	3700
1916.383	3614
1918.486	3661
1920.592	3568
1922.694	3674
1924.797	3654
1926.898	3683
1929	3701
1931.102	3681
1933.203	3676
1935.301	3625
1937.401	3604
1939.499	3665
1941.598	3706
1943.697	3775
1945.793	3704
1947.888	3731
1949.985	3626
1952.08	3625
1954.176	3703
1956.269	3583
1958.364	3688
1960.457	3649
1962.549	3757
1964.642	3752
1966.733	3722
1968.823	3656
1970.913	3688
1973.005	3650
1975.093	3726
1977.184	3651
1979.271	3636
1981.359	3621
1983.446	3594
1985.532	3648
1987.619	3547
1989.705	3676
1991.789	3622
1993.874	3630
1995.956	3580
1998.041	3662
2000.123	3657
2002.206	3611
2004.287	3677
2006.368	3587
2008.449	3652
2010.529	3584
2012.609	3707
2014.688	3617
2016.766	3585
2018.843	3659
2020.922	3671
2022.999	3627
2025.074	3637
2027.15	3625
2029.225	3593
2031.299	3711
2033.375	3605
2035.447	3674
2037.52	3611
2039.592	3613
2041.664	3660
2043.736	3626
2045.807	3628
2047.876	3618
2049.947	3623
2052.015	3631
2054.086	3716
2056.153	3679
2058.221	3629
2060.288	3692
2062.353	3569
2064.42	3659
2066.486	3660
2068.55	3756
2070.614	3631
2072.678	3698
2074.741	3637
2076.805	3602
2078.866	3712
2080.929	3679
2082.99	3653
2085.049	3609
2087.109	3686
2089.17	3618
2091.228	3617
2093.286	3610
2095.344	3660
2097.4	3705
2099.46	3706
2101.516	3605
2103.572	3651
2105.626	3717
2107.679	3668
2109.735	3717
2111.788	3654
2113.841	3604
2115.894	3666
2117.945	3692
2119.997	3602
2122.049	3672
2124.1	3722
2126.148	3648
2128.197	3608
2130.246	3642
2132.296	3623
2134.342	3613
2136.39	3737
2138.437	3677
2140.483	3708
2142.527	3612
2144.574	3668
2146.619	3530
2148.661	3624
2150.705	3607
2152.747	3629
2154.792	3645
2156.832	3668
2158.874	3639
2160.915	3661
2162.954	3732
2164.995	3608
2167.034	3714
2169.072	3595
2171.111	3653
2173.148	3609
2175.186	3664
2177.223	3602
2179.258	3595
2181.294	3631
2183.328	3509
2185.362	3626
2187.398	3646
2189.431	3570
2191.463	3641
2193.495	3579
2195.528	3621
2197.56	3556
2199.59	3609
2201.62	3509
2203.649	3664
2205.678	3635
2207.708	3566
2209.737	3596
2211.764	3575
2213.791	3607
2215.817	3576
2217.843	3542
2219.87	3538
2221.895	3582
2223.919	3504
2225.942	3621
2227.966	3541
2229.988	3579
2232.012	3609
2234.032	3595
2236.054	3631
2238.074	3538
2240.095	3511
2242.116	3540
2244.135	3588
2246.153	3617
2248.171	3611
2250.188	3640
2252.208	3516
2254.223	3603
2256.239	3560
2258.255	3634
2260.269	3642
2262.283	3618
2264.3	3599
2266.312	3543
2268.325	3607
2270.336	3592
2272.349	3566
2274.362	3616
2276.372	3536
2278.383	3636
2280.392	3570
2282.402	3601
2284.409	3589
2286.418	3551
2288.427	3613
2290.433	3556
2292.441	3534
2294.446	3533
2296.453	3607
2298.459	3549
2300.463	3610
2302.466	3688
2304.471	3548
2306.475	3569
2308.477	3517
2310.478	3549
2312.481	3470
2314.481	3618
2316.481	3526
2318.482	3498
2320.482	3535
2322.48	3627
2324.48	3556
2326.478	3601
2328.476	3519
2330.473	3543
2332.469	3581
2334.465	3696
2336.46	3602
2338.454	3535
2340.45	3524
2342.444	3500
2344.437	3437
2346.43	3591
2348.421	3547
2350.414	3462
2352.405	3570
2354.396	3427
2356.386	3552
2358.376	3523
2360.366	3557
2362.355	3544
2364.343	3500
2366.331	3513
2368.317	3507
2370.304	3474
2372.292	3544
2374.278	3476
2376.262	3467
2378.247	3505
2380.23	3559
2382.216	3436
2384.199	3545
2386.181	3522
2388.163	3470
2390.144	3452
2392.127	3465
2394.107	3479
2396.087	3504
2398.066	3512
2400.046	3493
2402.023	3485
2404.004	3464
2405.981	3490
2407.957	3537
2409.934	3483
2411.91	3464
2413.886	3504
2415.862	3454
2417.836	3447
2419.809	3522
2421.784	3463
2423.756	3478
2425.73	3519
2427.701	3483
2429.672	3486
2431.644	3435
2433.615	3537
2435.586	3429
2437.555	3417
2439.523	3433
2441.491	3482
2443.459	3466
2445.428	3461
2447.395	3354
2449.361	3521
2451.327	3392
2453.292	3547
2455.257	3413
2457.223	3509
2459.187	3369
2461.15	3491
2463.113	3498
2465.076	3443
2467.039	3482
2468.999	3475
2470.96	3395
2472.921	3445
2474.881	3508
2476.841	3435
2478.8	3471
2480.759	3498
2482.717	3490
2484.675	3511
2486.63	3474
2488.589	3479
2490.545	3436
2492.5	3411
2494.455	3411
2496.408	3508
2498.364	3427
2500.318	3448
2502.27	3507
2504.223	3389
2506.174	3461
2508.126	3482
2510.078	3444
2512.03	3469
2513.979	3415
2515.927	3408
2517.877	3492
2519.826	3448
2521.775	3502
2523.722	3432
2525.668	3488
2527.616	3459
2529.561	3380
2531.508	3420
2533.452	3542
2535.398	3466
2537.342	3407
2539.284	3428
2541.229	3484
2543.173	3358
2545.114	3380
2547.055	3551
2548.996	3490
2550.938	3493
2552.878	3345
2554.817	3505
2556.756	3417
2558.695	3433
2560.633	3347
2562.572	3288
2564.509	3424
2566.445	3448
2568.382	3424
2570.317	3408
2572.254	3387
2574.189	3380
2576.123	3435
2578.057	3454
2579.99	3428
2581.923	3442
2583.855	3431
2585.788	3392
2587.719	3445
2589.65	3397
2591.579	3462
2593.511	3524
2595.44	3575
2597.37	3457
2599.297	3434
2601.225	3509
2603.153	3456
2605.08	3482
2607.007	3502
2608.932	3442
2610.858	3417
2612.782	3453
2614.709	3468
2616.632	3453
2618.556	3446
2620.478	3413
2622.401	3422
2624.324	3490
2626.247	3388
2628.167	3456
2630.088	3410
2632.008	3499
2633.928	3370
2635.848	3533
2637.766	3397
2639.684	3415
2641.603	3456
2643.519	3453
2645.437	3464
2647.353	3430
2649.27	3450
2651.184	3451
2653.099	3537
2655.014	3459
2656.928	3462
2658.842	3506
2660.755	3418
2662.667	3457
2664.579	3440
2666.491	3508
2668.402	3526
2670.312	3424
2672.222	3386
2674.132	3402
2676.042	3439
2677.951	3416
2679.859	3466
2681.766	3366
2683.674	3431
2685.582	3399
2687.488	3451
2689.392	3521
2691.298	3456
2693.202	3359
2695.107	3415
2697.012	3450
2698.914	3499
2700.817	3488
2702.72	3390
2704.622	3466
2706.524	3502
2708.425	3412
2710.326	3367
2712.225	3361
2714.125	3367
2716.024	3414
2717.923	3345
2719.822	3418
2721.719	3413
2723.616	3419
2725.512	3446
2727.41	3379
2729.305	3343
2731.201	3481
2733.095	3427
2734.99	3402
2736.884	3465
2738.778	3378
2740.67	3455
2742.562	3360
2744.455	3463
2746.346	3365
2748.238	3401
2750.129	3369
2752.018	3432
2753.907	3393
2755.797	3386
2757.687	3370
2759.575	3424
2761.462	3381
2763.349	3413
2765.237	3390
2767.124	3377
2769.009	3387
2770.894	3465
2772.779	3404
2774.663	3450
2776.547	3428
2778.431	3338
2780.314	3371
2782.197	3421
2784.078	3389
2785.96	3384
2787.842	3419
2789.723	3388
2791.603	3388
2793.483	3335
2795.362	3371
2797.241	3348
2799.121	3314
2800.997	3380
2802.874	3379
2804.751	3333
2806.628	3422
2808.506	3389
2810.38	3324
2812.255	3341
2814.13	3389
2816.003	3366
2817.878	3375
2819.752	3332
2821.623	3385
2823.496	3419
2825.368	3390
2827.238	3434
2829.111	3346
2830.98	3361
2832.851	3366
2834.719	3398
2836.589	3364
2838.458	3430
2840.327	3271
2842.193	3443
2844.061	3447
2845.927	3381
2847.794	3424
2849.66	3360
2851.525	3464
2853.39	3498
2855.254	3449
2857.117	3496
2858.983	3504
2860.845	3614
2862.707	3516
2864.569	3567
2866.431	3594
2868.293	3625
2870.154	3670
2872.013	3658
2873.873	3662
2875.733	3685
2877.592	3776
2879.451	3794
2881.309	3803
2883.166	3895
2885.022	3847
2886.879	3978
2888.736	3911
2890.591	3833
2892.446	3991
2894.301	3915
2896.155	3995
2898.009	3916
2899.863	3921
2901.716	3876
2903.568	3962
2905.419	3918
2907.27	3954
2909.123	3964
2910.973	3958
2912.824	3993
2914.673	4069
2916.521	4012
2918.372	4125
2920.22	4179
2922.067	4130
2923.914	4195
2925.761	4383
2927.607	4382
2929.455	4292
2931.301	4464
2933.144	4524
2934.99	4519
2936.833	4644
2938.678	4644
2940.522	4585
2942.364	4755
2944.207	4715
2946.048	4789
2947.891	4818
2949.731	4825
2951.571	4944
2953.412	4714
2955.25	4750
2957.09	4672
2958.93	4541
2960.767	4533
2962.606	4474
2964.443	4338
2966.279	4405
2968.116	4285
2969.953	4296
2971.788	4293
2973.623	4169
2975.457	4094
2977.292	4162
2979.127	4132
2980.959	4097
2982.792	4015
2984.624	4085
2986.455	4077
2988.288	4060
2990.119	4012
2991.949	3967
2993.779	4045
2995.608	3949
2997.439	3881
2999.268	3897
3001.096	3783
3002.923	3745
3004.751	3719
3006.578	3676
3008.406	3643
3010.232	3648
3012.057	3562
3013.883	3541
3015.706	3586
3017.532	3466
3019.356	3495
3021.179	3528
3023.002	3450
3024.823	3387
3026.646	3359
3028.469	3346
3030.289	3415
3032.11	3304
3033.93	3358
3035.749	3306
3037.57	3346
3039.39	3418
3041.207	3318
3043.026	3267
3044.842	3256
3046.661	3350
3048.477	3281
3050.294	3253
3052.109	3385
3053.925	3304
3055.739	3278
3057.555	3263
3059.368	3311
3061.181	3295
3062.995	3351
3064.807	3374
3066.62	3343
3068.433	3307
3070.243	3294
3072.054	3302
3073.865	3230
3075.675	3304
3077.485	3354
3079.293	3221
3081.102	3229
3082.911	3265
3084.719	3246
3086.527	3203
3088.333	3288
3090.139	3303
3091.945	3279
3093.75	3167
3095.557	3232
3097.361	3262
3099.165	3292
3100.969	3214
3102.772	3196
3104.575	3249
3106.379	3175
3108.181	3228
3109.982	3191
3111.783	3251
3113.584	3271
3115.386	3157
3117.186	3119
3118.985	3213
3120.783	3159
3122.582	3140
3124.381	3193
3126.179	3159
3127.975	3135
3129.772	3158
3131.569	3128
3133.365	3087
3135.161	3137
3136.956	3236
3138.751	3185
3140.544	3121
3142.338	3163
3144.132	3167
3145.925	3010
3147.717	3165
3149.509	3193
3151.301	3133
3153.091	3161
3154.884	3120
3156.673	3127
3158.462	3100
3160.252	3159
3162.041	3140
3163.831	3138
3165.618	3139
3167.405	3145
3169.193	3142
3170.979	3172
3172.767	3091
3174.553	3150
3176.338	3024
3178.123	3162
3179.907	3121
3181.692	3095
3183.477	3121
3185.259	3050
3187.042	3134
3188.824	3219
3190.607	3097
3192.389	3125
3194.17	3143
3195.951	3155
3197.73	3069
3199.51	3067
3201.289	3122
3203.07	3157
3204.848	3140
3206.626	3132
3208.403	3165
3210.18	3195
3211.959	3159
3213.735	3146
3215.511	3164
3217.285	3134
3219.06	3141
3220.836	3141
3222.611	3104
3224.384	3170
3226.158	3144
3227.929	3198
3229.702	3117
3231.476	3139
3233.248	3151
3235.018	3106
3236.789	3074
3238.56	3198
3240.33	3150
3242.1	3133
3243.869	3120
3245.637	3087
3247.405	3112
3249.172	3177
3250.941	3179
3252.707	3180
3254.474	3110
3256.24	3113
3258.006	3184
3259.772	3167
3261.537	3211
3263.301	3194
3265.065	3083
3266.828	3181
3268.592	3197
3270.355	3213
3272.117	3125
3273.878	3117
3275.64	3178
3277.401	3221
3279.162	3155
3280.922	3076
3282.682	3202
3284.441	3192
3286.199	3156
3287.959	3133
3289.716	3207
3291.475	3176
3293.232	3158
3294.988	3158
3296.744	3218
3298.501	3157
3300.256	3237
3302.011	3151
3303.766	3158
3305.52	3195
3307.275	3179
3309.028	3157
3310.781	3197
3312.533	3192
3314.285	3144
3316.038	3159
3317.789	3202
3319.54	3135
3321.289	3221
3323.039	3173
3324.789	3220
3326.539	3194
3328.288	3191
3330.035	3139
3331.783	3163
3333.531	3182
3335.28	3236
3337.025	3126
3338.771	3190
3340.518	3159
3342.262	3167
3344.009	3189
3345.753	3148
3347.497	3153
3349.24	3176
3350.983	3157
3352.726	3075
3354.469	3095
3356.212	3176
3357.952	3073
3359.694	3106
3361.434	3127
3363.176	3159
3364.916	3168
3366.654	3175
3368.394	3138
3370.132	3125
3371.871	3084
3373.61	3086
3375.346	3126
3377.083	3076
3378.82	3004
3380.556	3126
3382.292	3075
3384.027	3031
3385.763	2989
3387.497	3058
3389.231	3032
3390.965	3047
3392.698	3139
3394.431	3069
3396.164	3085
3397.896	3075
3399.627	3070
3401.36	3101
3403.09	3038
3404.82	3060
3406.55	3100
3408.279	3025
3410.01	3057
3411.738	3022
3413.467	2941
3415.194	3093
3416.92	3061
3418.647	3081
3420.375	2983
3422.102	3016
3423.827	3037
3425.553	3082
3427.277	3039
3429.003	3001
3430.727	2999
3432.451	3007
3434.173	3089
3435.896	3080
3437.62	3032
3439.343	2962
3441.063	3050
3442.785	3026
3444.505	2978
3446.226	2998
3447.948	2983
3449.666	2929
3451.386	2975
3453.104	2942
3454.823	2947
3456.541	2917
3458.259	2888
3459.976	2952
3461.693	2965
3463.408	2991
3465.125	2943
3466.841	2927
3468.556	2946
3470.271	2961
3471.985	2928
3473.698	2916
3475.414	2912
3477.126	2833
3478.838	2852
3480.55	2915
3482.263	2907
3483.975	2921
3485.686	2903
3487.396	2818
3489.106	2885
3490.817	2838
3492.526	2942
3494.236	2869
3495.944	2821
3497.652	2900
3499.359	2838
3501.066	2793
3502.775	2845
3504.481	2853
3506.187	2851
3507.893	2849
3509.598	2787
3511.304	2804
3513.009	2799
3514.713	2872
3516.417	2701
3518.12	2784
3519.821	2776
3521.525	2768
3523.228	2754
3524.929	2789
3526.631	2798
3528.33	2776
3530.032	2811
3531.733	2796
3533.433	2803
3535.131	2771
3536.83	2710
3538.529	2732
3540.227	2822
3541.925	2728
3543.623	2817
3545.319	2644
3547.016	2771
3548.712	2748
3550.408	2699
3552.103	2792
3553.798	2763
3555.491	2738
3557.188	2761
3558.88	2699
3560.574	2696
3562.266	2666
3563.959	2709
3565.651	2662
3567.343	2693
3569.035	2710
3570.725	2713
3572.415	2716
3574.106	2687
3575.797	2687
3577.485	2685
3579.174	2645
3580.863	2755
3582.551	2720
3584.238	2636
3585.926	2681
3587.613	2677
3589.3	2632
3590.986	2682
3592.671	2674
3594.357	2698
3596.042	2657
3597.726	2626
3599.41	2617
3601.094	2656
3602.778	2648
3604.461	2600
3606.143	2534
3607.825	2662
3609.507	2615
3611.188	2559
3612.87	2504
3614.551	2524
3616.229	2566
3617.909	2513
3619.589	2651
3621.269	2472
3622.948	2568
3624.625	2554
3626.302	2574
3627.98	2466
3629.657	2520
3631.334	2595
3633.01	2578
3634.686	2555
3636.361	2471
3638.036	2549
3639.712	2491
3641.385	2513
3643.06	2502
3644.732	2496
3646.405	2499
3648.08	2490
3649.751	2503
3651.424	2536
3653.094	2463
3654.766	2567
3656.436	2529
3658.106	2503
3659.777	2486
3661.446	2467
3663.115	2570
3664.783	2488
3666.452	2471
3668.121	2445
3669.788	2462
3671.454	2451
3673.121	2461
3674.789	2500
3676.455	2444
3678.12	2420
3679.784	2408
3681.45	2511
3683.114	2379
3684.779	2457
3686.442	2459
3688.105	2450
3689.768	2467
3691.43	2468
3693.093	2438
3694.754	2470
3696.415	2437
3698.076	2422
3699.736	2431
3701.396	2469
3703.057	2426
3704.716	2363
3706.375	2441
3708.034	2452
3709.692	2422
3711.351	2449
3713.008	2385
3714.665	2455
3716.321	2434
3717.977	2357
3719.634	2407
3721.29	2386
3722.945	2389
3724.598	2378
3726.253	2424
3727.907	2406
3729.561	2395
3731.214	2394
3732.867	2416
3734.518	2335
3736.171	2293
3737.824	2419
3739.474	2351
3741.125	2406
3742.775	2388
3744.425	2308
3746.074	2414
3747.725	2366
3749.373	2365
3751.022	2337
3752.669	2280
3754.318	2412
3755.966	2346
3757.612	2381
3759.259	2435
3760.905	2322
3762.55	2334
3764.197	2362
3765.842	2324
3767.486	2362
3769.131	2336
3770.774	2342
3772.417	2417
3774.061	2361
3775.705	2369
3777.347	2301
3778.988	2330
3780.629	2327
3782.271	2255
3783.912	2371
3785.552	2332
3787.192	2356
3788.831	2339
3790.472	2322
3792.112	2321
3793.75	2346
3795.388	2332
3797.024	2330
3798.661	2303
3800.3	2344
3801.936	2277
3803.572	2319
3805.208	2312
3806.844	2327
3808.48	2252
3810.115	2347
3811.748	2314
3813.382	2322
3815.016	2249
3816.649	2286
3818.283	2236
3819.914	2306
3821.547	2235
3823.178	2261
3824.809	2258
3826.441	2306
3828.072	2267
3829.701	2306
3831.331	2283
3832.96	2322
3834.591	2230
3836.219	2257
3837.847	2215
3839.475	2292
3841.102	2304
3842.729	2269
3844.357	2274
3845.984	2260
3847.609	2275
3849.234	2272
3850.86	2219
3852.485	2297
3854.11	2224
3855.734	2218
3857.357	2220
3858.981	2178
3860.603	2263
3862.227	2224
3863.848	2254
3865.471	2222
3867.092	2240
3868.713	2244
3870.334	2207
3871.954	2250
3873.575	2187
3875.194	2218
3876.813	2219
3878.433	2224
3880.051	2219
3881.669	2181
3883.286	2225
3884.904	2226
3886.52	2247
3888.138	2173
3889.754	2209
3891.37	2241
3892.985	2209
3894.6	2172
3896.216	2180
3897.831	2256
3899.444	2224
3901.058	2238
3902.67	2185
3904.283	2233
3905.897	2203
3907.509	2219
3909.121	2192
3910.731	2173
3912.342	2166
3913.954	2249
3915.563	2238
3917.174	2179
3918.783	2189
3920.391	2189
3922.002	2178
3923.611	2196
3925.218	2235
3926.826	2183
3928.432	2144
3930.039	2193
3931.647	2171
3933.253	2202
3934.859	2167
3936.464	2226
3938.068	2146
3939.675	2190
3941.278	2172
3942.883	2141
3944.486	2229
3946.089	2171
3947.692	2162
3949.295	2175
3950.898	2154
3952.499	2242
3954.1	2138
3955.7	2097
3957.303	2149
3958.903	2202
3960.502	2119
3962.101	2117
3963.7	2172
3965.301	2169
3966.899	2192
3968.497	2145
3970.094	2173
3971.691	2148
3973.288	2189
3974.885	2222
3976.481	2161
3978.077	2145
3979.672	2130
3981.267	2188
3982.863	2096
3984.457	2145
3986.051	2215
3987.645	2125
3989.238	2114
3990.831	2094
3992.425	2090
3994.017	2031
3995.607	2156
3997.199	2069
3998.79	2101
4000.382	2113
4001.973	2101
4003.561	2108
4005.151	2053
4006.741	2054
4008.331	2134
4009.918	2084
4011.507	2081
4013.095	2096
4014.681	2079
4016.269	2073
4017.856	2037
4019.443	2116
4021.028	2042
4022.614	2079
4024.199	2074
4025.785	2066
4027.37	2079
4028.953	1999
4030.536	2012
4032.12	2054
4033.704	2025
4035.287	2034
4036.869	2018
4038.45	2044
4040.032	2044
4041.613	2089
4043.195	1997
4044.776	2096
4046.356	2044
4047.935	2018
4049.515	2071
4051.095	1979
4052.674	2039
4054.251	2014
4055.829	2010
4057.406	2056
4058.985	2004
4060.562	2088
4062.139	2018
4063.715	2082
4065.29	2058
4066.865	1981
4068.442	1994
4070.016	2028
4071.59	2032
4073.164	1996
4074.738	2052
4076.312	1981
4077.885	2005
4079.458	1973
4081.03	1993
4082.602	2026
4084.173	1992
4085.745	1957
4087.315	2025
4088.886	1932
4090.456	2012
4092.026	2012
4093.596	2032
4095.165	2017
4096.734	2007
4098.301	1994
4099.869	2038
4101.437	2011
4103.006	1956
4104.572	1929
4106.139	1962
4107.704	1983
4109.27	1961
4110.837	2033
4112.401	1973
4113.966	1975
4115.53	1953
4117.094	2013
4118.659	2025
4120.223	1972
4121.785	1992
4123.347	1983
4124.909	1972
4126.471	1929
4128.034	1945
4129.595	1947
4131.155	1951
4132.716	1937
4134.275	1972
4135.836	1946
4137.395	1967
4138.955	1951
4140.513	1969
4142.071	1920
4143.628	1996
4145.188	1975
4146.745	1881
4148.302	1887
4149.858	1890
4151.414	1942
4152.971	1950
4154.526	1928
4156.081	1964
4157.635	1961
4159.189	1935
4160.745	1930
4162.298	1918
4163.852	1920
4165.405	1919
4166.957	1878
4168.51	1891
4170.063	1883
4171.614	1856
4173.166	1899
4174.717	1891
4176.267	1859
4177.817	1896
4179.368	1861
4180.917	1922
4182.466	1862
4184.016	1843
4185.564	1869
4187.112	1873
4188.66	1824
4190.207	1825
4191.754	1828
4193.301	1837
4194.848	1875
4196.394	1860
4197.94	1817
4199.484	1892
4201.03	1836
4202.575	1883
4204.12	1819
4205.663	1854
4207.207	1841
4208.75	1882
4210.292	1862
4211.836	1859
4213.378	1837
4214.92	1854
4216.46	1825
4218.002	1861
4219.544	1865
4221.083	1868
4222.625	1855
4224.164	1898
4225.703	1850
4227.244	1833
4228.782	1841
4230.32	1857
4231.857	1811
4233.395	1787
4234.933	1861
4236.471	1785
4238.007	1855
4239.542	1836
4241.078	1852
4242.614	1810
4244.15	1813
4245.685	1902
4247.219	1826
4248.753	1793
4250.287	1839
4251.82	1820
4253.354	1861
4254.887	1831
4256.419	1820
4257.951	1843
4259.483	1831
4261.016	1800
4262.547	1785
4264.078	1781
4265.608	1849
4267.137	1792
4268.668	1838
4270.197	1829
4271.727	1832
4273.254	1812
4274.783	1779
4276.311	1807
4277.84	1784
4279.366	1761
4280.894	1793
4282.42	1816
4283.946	1806
4285.473	1749
4286.998	1833
4288.523	1827
4290.047	1837
4291.572	1763
4293.096	1836
4294.622	1830
4296.144	1794
4297.668	1795
4299.19	1786
4300.713	1779
4302.236	1798
4303.758	1774
4305.279	1770
4306.799	1783
4308.321	1789
4309.842	1756
4311.361	1735
4312.882	1740
4314.401	1723
