400.0961	5123
402.6185	5154
405.1424	5113
407.6635	5084
410.1838	5184
412.7035	5151
415.2225	5162
417.7388	5263
420.2585	5272
422.7754	5396
425.2917	5405
427.8072	5382
430.3221	5485
432.8363	5435
435.3498	5538
437.8626	5580
440.3727	5557
442.8841	5428
445.3969	5536
447.907	5475
450.4142	5562
452.9229	5505
455.4289	5440
457.9362	5567
460.4449	5514
462.9488	5470
465.454	5459
467.9566	5447
470.4604	5411
472.9637	5449
475.4662	5508
477.966	5433
480.4671	5550
482.9656	5555
485.4633	5505
487.9645	5517
490.4608	5554
492.9566	5543
495.4536	5618
497.948	5612
500.4437	5542
502.9387	5621
505.431	5656
507.9226	5605
510.4136	5670
512.9079	5763
515.3975	5607
517.8864	5621
520.3746	5666
522.8622	5709
525.3491	5770
527.8394	5514
530.3249	5566
532.8098	5583
535.2939	5802
537.7774	5667
540.2623	5733
542.7444	5650
545.2259	5725
547.7067	5780
550.1868	5753
552.6683	5719
555.147	5754
557.6231	5676
560.1005	5733
562.5773	5768
565.0534	5807
567.5308	5796
570.0056	5812
572.4776	5868
574.951	5785
577.4237	5963
579.8978	5882
582.3671	5915
584.8378	5960
587.3079	6000
589.7773	5879
592.244	6036
594.714	5880
597.1793	6007
599.6461	5972
602.1121	5914
604.5754	5894
607.0421	5870
609.5042	5839
611.9675	5930
614.4282	5858
616.8902	5770
619.3515	5938
621.8122	5884
624.2702	5860
626.7296	5884
629.1863	5838
631.6423	5797
634.1017	5820
636.5563	5878
639.0104	5911
641.4658	5902
643.9185	5887
646.3725	5855
648.8239	5841
651.2766	5967
653.7266	6032
656.176	5923
658.6247	5991
661.0748	6018
663.5242	5961
665.9709	5919
668.417	5904
670.8624	5913
673.3092	5984
675.7533	6068
678.1968	6048
680.6395	6061
683.0817	6083
685.5251	6011
687.9659	6016
690.4061	5997
692.8456	6103
695.2844	5973
697.7226	6136
700.1621	6127
702.599	6047
705.0332	6086
707.4688	6131
709.9036	6122
712.3399	6165
714.7735	6200
717.2044	6184
719.6367	6235
722.0683	6182
724.4993	6180
726.9296	6269
729.3593	6099
731.7883	6284
734.2147	6267
736.6423	6293
739.0714	6288
741.4958	6372
743.9216	6309
746.3447	6213
748.7691	6330
751.1929	6381
753.616	6528
756.0366	6450
758.4584	6505
760.8776	6442
763.2982	6492
765.718	6534
768.1373	6530
770.5539	6466
772.9698	6514
775.3871	6585
777.8038	6521
780.2178	6534
782.6332	6675
785.0459	6484
787.458	6493
789.8714	6414
792.2842	6566
794.6943	6474
797.1038	6518
799.5127	6604
801.9209	6491
804.3324	6474
806.7393	6653
809.1456	6557
811.5513	6575
813.9562	6509
816.3625	6589
818.7663	6590
821.1693	6636
823.5718	6538
825.9735	6596
828.3746	6659
830.7771	6574
833.177	6608
835.5762	6701
837.9747	6587
840.3727	6697
842.772	6624
845.1666	6707
847.5626	6662
849.958	6641
852.3527	6702
854.7488	6760
857.1403	6810
859.5331	6819
861.9253	6733
864.3168	6776
866.7057	6714
869.098	6757
871.4876	6665
873.8746	6720
876.263	6831
878.6487	6735
881.0378	6693
883.4243	6691
885.8081	6784
888.1933	6737
890.5759	6807
892.9598	6826
895.343	6718
897.7256	6685
900.1057	6685
902.4871	6823
904.8659	6797
907.246	6826
909.6254	6805
912.0023	6926
914.3786	6931
916.7562	6966
919.1331	7103
921.5074	7216
923.8831	7091
926.2562	6945
928.6287	7143
931.0005	7091
933.3757	7205
935.7462	7125
938.1162	7171
940.4855	7225
942.8542	7372
945.2242	7459
947.5916	7460
949.9584	7615
952.3266	7950
954.6921	8334
957.0571	8526
959.4233	8884
961.787	9030
964.15	8965
966.5125	8694
968.8742	8240
971.2354	7908
973.5959	7608
975.9559	7375
978.3151	7212
980.6738	7192
983.0338	7062
985.3912	7031
987.7461	7070
990.1022	6926
992.4578	6930
994.8127	6943
997.1689	7025
999.5207	6992
1001.874	7163
1004.226	7069
1006.576	7128
1008.929	7076
1011.28	7057
1013.628	7166
1015.977	7113
1018.324	6959
1020.674	7005
1023.019	7086
1025.366	7120
1027.713	7250
1030.056	7154
1032.399	7122
1034.746	7086
1037.087	7209
1039.431	7198
1041.771	7075
1044.113	7210
1046.454	7116
1048.793	7145
1051.133	7260
1053.471	7139
1055.807	7172
1058.146	7133
1060.483	7142
1062.818	7306
1065.153	7325
1067.489	7288
1069.822	7261
1072.156	7416
1074.488	7335
1076.82	7362
1079.15	7192
1081.48	7376
1083.814	7265
1086.143	7233
1088.471	7151
1090.799	7158
1093.126	7179
1095.452	7143
1097.78	7181
1100.105	7335
1102.43	7285
1104.754	7323
1107.077	7143
1109.4	7161
1111.722	7264
1114.044	7290
1116.365	7129
1118.685	7123
1121.005	7148
1123.324	7265
1125.643	7225
1127.961	7219
1130.278	7127
1132.595	7217
1134.911	7175
1137.226	7180
1139.541	7138
1141.854	7127
1144.167	7227
1146.482	7136
1148.793	7251
1151.105	7236
1153.414	7113
1155.725	7209
1158.033	7174
1160.344	7301
1162.651	7210
1164.959	7253
1167.265	7191
1169.572	7316
1171.878	7160
1174.184	7180
1176.488	7145
1178.79	7149
1181.094	7207
1183.396	7228
1185.699	7123
1188.001	7202
1190.301	7170
1192.6	7198
1194.9	7216
1197.2	7147
1199.497	7244
1201.794	7197
1204.09	7296
1206.387	7362
1208.684	7188
1210.978	7286
1213.272	7186
1215.565	7259
1217.858	7259
1220.15	7277
1222.443	7309
1224.734	7168
1227.024	7195
1229.313	7411
1231.602	7396
1233.892	7419
1236.18	7469
1238.467	7438
1240.754	7600
1243.04	7496
1245.325	7508
1247.612	7446
1249.896	7672
1252.178	7572
1254.461	7611
1256.743	7498
1259.027	7560
1261.308	7519
1263.587	7547
1265.867	7518
1268.146	7629
1270.425	7615
1272.703	7590
1274.981	7630
1277.256	7493
1279.532	7535
1281.808	7571
1284.083	7528
1286.358	7500
1288.63	7569
1290.904	7376
1293.175	7425
1295.449	7382
1297.719	7412
1299.99	7502
1302.259	7396
1304.529	7376
1306.798	7414
1309.065	7406
1311.333	7446
1313.599	7394
1315.866	7357
1318.131	7403
1320.396	7508
1322.66	7490
1324.925	7526
1327.187	7528
1329.448	7401
1331.711	7419
1333.974	7438
1336.234	7429
1338.493	7443
1340.752	7636
1343.01	7493
1345.269	7461
1347.526	7421
1349.784	7473
1352.04	7482
1354.295	7504
1356.552	7361
1358.806	7467
1361.059	7386
1363.312	7367
1365.564	7400
1367.818	7474
1370.069	7372
1372.318	7488
1374.568	7545
1376.817	7565
1379.066	7502
1381.316	7529
1383.564	7531
1385.809	7641
1388.056	7584
1390.301	7654
1392.549	7510
1394.793	7588
1397.036	7623
1399.279	7663
1401.522	7699
1403.763	7617
1406.007	7808
1408.248	7637
1410.487	7615
1412.727	7643
1414.965	7545
1417.205	7663
1419.442	7710
1421.68	7687
1423.915	7680
1426.152	7764
1428.388	7680
1430.623	7860
1432.857	7688
1435.091	7669
1437.323	7855
1439.556	7826
1441.789	7792
1444.019	7736
1446.25	7945
1448.48	7888
1450.708	7823
1452.938	7896
1455.167	7933
1457.394	8009
1459.62	7856
1461.846	7875
1464.073	7913
1466.299	7841
1468.523	7832
1470.746	7728
1472.969	7709
1475.191	7644
1477.415	7772
1479.636	7706
1481.858	7637
1484.078	7613
1486.298	7678
1488.518	7541
1490.736	7546
1492.954	7532
1495.169	7384
1497.386	7679
1499.602	7400
1501.819	7454
1504.034	7434
1506.248	7335
1508.462	7433
1510.675	7457
1512.888	7482
1515.1	7415
1517.311	7442
1519.522	7583
1521.732	7343
1523.942	7422
1526.151	7506
1528.36	7443
1530.566	7438
1532.773	7442
1534.98	7487
1537.187	7478
1539.392	7557
1541.596	7543
1543.801	7506
1546.005	7484
1548.208	7570
1550.411	7485
1552.612	7580
1554.814	7584
1557.013	7506
1559.212	7568
1561.414	7706
1563.612	7642
1565.811	7677
1568.007	7762
1570.203	7698
1572.403	7584
1574.598	7589
1576.792	7537
1578.988	7600
1581.181	7730
1583.376	7639
1585.568	7829
1587.761	7547
1589.952	7873
1592.143	7736
1594.333	7765
1596.524	7757
1598.715	7805
1600.903	7817
1603.091	7702
1605.278	7863
1607.466	7702
1609.652	7717
1611.838	7783
1614.023	7806
1616.207	7658
1618.391	7789
1620.576	7704
1622.759	7788
1624.941	7976
1627.123	7794
1629.304	8004
1631.484	7933
1633.664	7886
1635.844	7836
1638.022	7857
1640.201	7833
1642.38	8043
1644.556	7965
1646.732	7939
1648.908	7875
1651.084	7983
1653.257	8009
1655.433	8030
1657.607	7863
1659.779	8063
1661.951	7987
1664.122	7963
1666.295	8017
1668.467	8035
1670.635	8088
1672.805	7981
1674.973	7950
1677.142	8008
1679.31	7944
1681.478	7931
1683.644	8008
1685.81	7997
1687.975	7987
1690.142	7930
1692.305	7871
1694.468	7964
1696.632	7903
1698.794	7946
1700.957	7731
1703.119	7913
1705.279	7763
1707.439	7760
1709.598	7826
1711.758	7845
1713.917	7860
1716.075	7722
1718.231	7721
1720.388	7841
1722.543	7769
1724.702	7738
1726.856	7648
1729.01	7850
1731.164	7751
1733.317	7808
1735.471	7917
1737.623	7798
1739.774	7838
1741.925	7816
1744.075	7853
1746.225	7874
1748.376	7782
1750.524	7821
1752.672	7830
1754.82	7968
1756.965	7796
1759.113	7926
1761.259	7847
1763.405	7900
1765.549	7977
1767.694	7863
1769.836	7960
1771.981	7894
1774.123	7898
1776.264	7881
1778.405	7860
1780.546	8023
1782.687	7862
1784.827	7946
1786.966	8009
1789.103	7890
1791.242	7935
1793.381	8014
1795.517	7919
1797.653	8008
1799.788	8012
1801.923	7920
1804.057	7980
1806.193	7887
1808.326	7991
1810.457	7994
1812.59	7938
1814.721	7969
1816.855	7998
1818.984	7937
1821.113	7918
1823.244	7990
1825.372	8004
1827.499	7933
1829.63	7964
1831.756	7873
1833.882	7825
1836.007	7902
1838.132	8016
1840.26	7988
1842.384	7932
1844.507	7982
1846.63	8113
1848.752	7987
1850.875	7920
1852.996	7980
1855.118	7892
1857.238	7929
1859.358	7983
1861.477	7974
1863.597	7985
1865.715	7864
1867.832	7912
1869.948	7897
1872.064	7992
1874.181	7957
1876.297	7955
1878.411	7912
1880.526	7999
1882.639	8025
1884.752	7813
1886.865	7943
1888.977	7931
1891.089	8063
1893.2	8044
1895.308	8011
1897.42	8037
1899.53	7935
1901.639	8028
1903.745	8099
1905.853	8104
1907.962	8058
1910.067	8138
1912.174	7982
1914.278	8071
1916.383	8074
1918.486	7967
1920.592	8149
1922.694	8028
1924.797	8033
1926.898	8078
1929	8027
1931.102	8089
1933.203	8029
1935.301	8052
1937.401	8113
1939.499	8115
1941.598	8136
1943.697	7953
1945.793	8060
1947.888	8092
1949.985	8172
1952.08	8075
1954.176	8039
1956.269	8130
1958.364	7957
1960.457	8057
1962.549	8131
1964.642	8013
1966.733	8089
1968.823	8115
1970.913	7924
1973.005	8041
1975.093	8059
1977.184	7993
1979.271	8117
1981.359	7971
1983.446	7956
1985.532	7974
1987.619	7994
1989.705	7943
1991.789	7847
1993.874	7972
1995.956	8004
1998.041	7839
2000.123	7769
2002.206	7878
2004.287	7972
2006.368	7960
2008.449	7887
2010.529	7873
2012.609	7993
2014.688	8037
2016.766	7973
2018.843	7761
2020.922	7817
2022.999	7893
2025.074	7924
2027.15	7893
2029.225	7895
2031.299	7878
2033.375	7823
2035.447	7871
2037.52	7898
2039.592	7863
2041.664	7941
2043.736	7873
2045.807	7900
2047.876	7870
2049.947	7844
2052.015	7930
2054.086	7865
2056.153	7910
2058.221	7900
2060.288	7815
2062.353	7799
2064.42	7755
2066.486	7932
2068.55	7891
2070.614	7927
2072.678	7977
2074.741	8009
2076.805	7948
2078.866	7909
2080.929	7875
2082.99	7935
2085.049	7912
2087.109	7848
2089.17	7880
2091.228	7799
2093.286	7685
2095.344	7863
2097.4	7883
2099.46	7732
2101.516	8076
2103.572	7790
2105.626	7733
2107.679	7816
2109.735	7864
2111.788	7894
2113.841	7778
2115.894	7835
2117.945	7904
2119.997	7809
2122.049	7837
2124.1	7777
2126.148	7888
2128.197	7818
2130.246	7839
2132.296	7934
2134.342	7744
2136.39	7758
2138.437	7688
2140.483	7743
2142.527	7723
2144.574	7864
2146.619	7837
2148.661	7913
2150.705	7858
2152.747	7830
2154.792	7750
2156.832	7842
2158.874	7730
2160.915	7785
2162.954	7809
2164.995	7748
2167.034	7710
2169.072	7620
2171.111	7756
2173.148	7601
2175.186	7689
2177.223	7663
2179.258	7707
2181.294	7683
2183.328	7643
2185.362	7771
2187.398	7547
2189.431	7655
2191.463	7692
2193.495	7606
2195.528	7680
2197.56	7524
2199.59	7652
2201.62	7582
2203.649	7483
2205.678	7634
2207.708	7611
2209.737	7526
2211.764	7631
2213.791	7632
2215.817	7636
2217.843	7674
2219.87	7497
2221.895	7567
2223.919	7554
2225.942	7654
2227.966	7580
2229.988	7551
2232.012	7522
2234.032	7652
2236.054	7536
2238.074	7596
2240.095	7528
2242.116	7571
2244.135	7640
2246.153	7588
2248.171	7555
2250.188	7508
2252.208	7628
2254.223	7541
2256.239	7739
2258.255	7597
2260.269	7537
2262.283	7521
2264.3	7517
2266.312	7725
2268.325	7560
2270.336	7573
2272.349	7606
2274.362	7575
2276.372	7523
2278.383	7452
2280.392	7521
2282.402	7511
2284.409	7459
2286.418	7479
2288.427	7629
2290.433	7560
2292.441	7540
2294.446	7620
2296.453	7496
2298.459	7585
2300.463	7610
2302.466	7453
2304.471	7510
2306.475	7448
2308.477	7508
2310.478	7485
2312.481	7422
2314.481	7528
2316.481	7489
2318.482	7476
2320.482	7439
2322.48	7537
2324.48	7450
2326.478	7364
2328.476	7380
2330.473	7400
2332.469	7380
2334.465	7537
2336.46	7444
2338.454	7385
2340.45	7411
2342.444	7542
2344.437	7375
2346.43	7487
2348.421	7305
2350.414	7475
2352.405	7449
2354.396	7360
2356.386	7384
2358.376	7361
2360.366	7300
2362.355	7336
2364.343	7338
2366.331	7306
2368.317	7411
2370.304	7412
2372.292	7339
2374.278	7304
2376.262	7361
2378.247	7227
2380.23	7403
2382.216	7303
2384.199	7195
2386.181	7284
2388.163	7256
2390.144	7267
2392.127	7236
2394.107	7277
2396.087	7315
2398.066	7174
2400.046	7330
2402.023	7327
2404.004	7289
2405.981	7340
2407.957	7411
2409.934	7254
2411.91	7158
2413.886	7195
2415.862	7300
2417.836	7278
2419.809	7257
2421.784	7218
2423.756	7236
2425.73	7269
2427.701	7317
2429.672	7162
2431.644	7279
2433.615	7146
2435.586	7163
2437.555	7209
2439.523	7221
2441.491	7180
2443.459	7310
2445.428	7285
2447.395	7320
2449.361	7396
2451.327	7140
2453.292	7216
2455.257	7234
2457.223	7161
2459.187	7135
2461.15	7211
2463.113	7226
2465.076	7186
2467.039	7202
2468.999	7224
2470.96	7208
2472.921	7195
2474.881	7196
2476.841	7205
2478.8	7253
2480.759	7243
2482.717	7024
2484.675	7072
2486.63	7155
2488.589	7198
2490.545	7108
2492.5	7047
2494.455	7073
2496.408	7220
2498.364	7091
2500.318	7226
2502.27	7238
2504.223	7059
2506.174	7206
2508.126	7029
2510.078	7134
2512.03	7019
2513.979	7081
2515.927	7091
2517.877	7077
2519.826	7035
2521.775	7045
2523.722	7090
2525.668	7075
2527.616	6955
2529.561	7032
2531.508	6975
2533.452	7046
2535.398	7020
2537.342	6944
2539.284	7102
2541.229	7015
2543.173	7122
2545.114	7041
2547.055	6970
2548.996	6980
2550.938	6953
2552.878	7071
2554.817	7072
2556.756	7077
2558.695	6940
2560.633	7007
2562.572	6996
2564.509	6953
2566.445	6922
2568.382	7018
2570.317	7049
2572.254	7071
2574.189	6981
2576.123	7001
2578.057	7025
2579.99	7169
2581.923	7042
2583.855	7118
2585.788	6955
2587.719	7041
2589.65	7152
2591.579	6921
2593.511	7108
2595.44	7094
2597.37	6991
2599.297	7024
2601.225	7054
2603.153	7126
2605.08	7072
2607.007	7046
2608.932	6975
2610.858	7122
2612.782	6969
2614.709	6999
2616.632	7074
2618.556	7012
2620.478	7048
2622.401	7024
2624.324	6944
2626.247	6904
2628.167	7026
2630.088	7124
2632.008	7005
2633.928	7119
2635.848	7060
2637.766	6997
2639.684	6944
2641.603	7111
2643.519	6959
2645.437	7060
2647.353	7031
2649.27	6914
2651.184	7076
2653.099	7050
2655.014	7076
2656.928	6993
2658.842	7000
2660.755	6911
2662.667	7031
2664.579	7057
2666.491	6835
2668.402	6992
2670.312	6984
2672.222	6960
2674.132	7033
2676.042	6889
2677.951	6946
2679.859	6877
2681.766	6972
2683.674	6980
2685.582	6925
2687.488	6891
2689.392	7015
2691.298	6789
2693.202	6879
2695.107	6932
2697.012	7006
2698.914	6869
2700.817	6911
2702.72	6950
2704.622	6862
2706.524	6823
2708.425	6889
2710.326	6864
2712.225	6912
2714.125	6822
2716.024	7008
2717.923	6738
2719.822	6845
2721.719	6849
2723.616	6898
2725.512	6926
2727.41	6755
2729.305	6788
2731.201	6883
2733.095	6845
2734.99	6879
2736.884	6732
2738.778	6806
2740.67	6846
2742.562	6809
2744.455	6782
2746.346	6890
2748.238	6827
2750.129	6850
2752.018	6717
2753.907	6864
2755.797	6824
2757.687	6869
2759.575	6772
2761.462	6810
2763.349	6938
2765.237	6712
2767.124	6774
2769.009	6715
2770.894	6717
2772.779	6758
2774.663	6791
2776.547	6851
2778.431	6791
2780.314	6797
2782.197	6651
2784.078	6786
2785.96	6763
2787.842	6778
2789.723	6648
2791.603	6791
2793.483	6740
2795.362	6754
2797.241	6717
2799.121	6707
2800.997	6700
2802.874	6782
2804.751	6748
2806.628	6765
2808.506	6642
2810.38	6823
2812.255	6805
2814.13	6678
2816.003	6816
2817.878	6801
2819.752	6715
2821.623	6770
2823.496	6699
2825.368	6742
2827.238	6683
2829.111	6750
2830.98	6714
2832.851	6661
2834.719	6747
2836.589	6702
2838.458	6709
2840.327	6821
2842.193	6762
2844.061	6750
2845.927	6682
2847.794	6718
2849.66	6775
2851.525	6865
2853.39	6719
2855.254	6862
2857.117	6752
2858.983	6856
2860.845	6677
2862.707	6791
2864.569	6858
2866.431	6889
2868.293	7057
2870.154	7158
2872.013	7130
2873.873	7145
2875.733	7079
2877.592	7221
2879.451	7303
2881.309	7229
2883.166	7294
2885.022	7415
2886.879	7395
2888.736	7366
2890.591	7446
2892.446	7292
2894.301	7478
2896.155	7268
2898.009	7356
2899.863	7291
2901.716	7269
2903.568	7386
2905.419	7356
2907.27	7318
2909.123	7313
2910.973	7374
2912.824	7396
2914.673	7631
2916.521	7382
2918.372	7616
2920.22	7701
2922.067	7686
2923.914	7702
2925.761	7781
2927.607	7860
2929.455	8033
2931.301	7887
2933.144	8135
2934.99	8063
2936.833	8126
2938.678	8125
2940.522	8350
2942.364	8409
2944.207	8483
2946.048	8410
2947.891	8434
2949.731	8439
2951.571	8459
2953.412	8371
2955.25	8197
2957.09	8104
2958.93	8263
2960.767	8157
2962.606	7881
2964.443	8049
2966.279	7898
2968.116	7774
2969.953	7710
2971.788	7621
2973.623	7565
2975.457	7443
2977.292	7508
2979.127	7649
2980.959	7564
2982.792	7317
2984.624	7357
2986.455	7343
2988.288	7372
2990.119	7298
2991.949	7226
2993.779	7257
2995.608	7241
2997.439	7185
2999.268	7151
3001.096	7051
3002.923	7014
3004.751	6969
3006.578	6904
3008.406	6907
3010.232	6820
3012.057	6719
3013.883	6661
3015.706	6700
3017.532	6647
3019.356	6676
3021.179	6509
3023.002	6539
3024.823	6587
3026.646	6462
3028.469	6511
3030.289	6555
3032.11	6446
3033.93	6450
3035.749	6279
3037.57	6447
3039.39	6436
3041.207	6379
3043.026	6396
3044.842	6431
3046.661	6319
3048.477	6318
3050.294	6277
3052.109	6363
3053.925	6387
3055.739	6478
3057.555	6294
3059.368	6396
3061.181	6445
3062.995	6297
3064.807	6448
3066.62	6393
3068.433	6290
3070.243	6480
3072.054	6361
3073.865	6336
3075.675	6264
3077.485	6370
3079.293	6290
3081.102	6284
3082.911	6214
3084.719	6238
3086.527	6136
3088.333	6323
3090.139	6204
3091.945	6134
3093.75	6215
3095.557	6178
3097.361	6252
3099.165	6134
3100.969	6271
3102.772	6193
3104.575	6116
3106.379	6190
3108.181	6195
3109.982	6105
3111.783	6191
3113.584	6151
3115.386	6077
3117.186	6159
3118.985	6085
3120.783	6125
3122.582	6247
3124.381	5997
3126.179	6057
3127.975	6048
3129.772	6174
3131.569	6089
3133.365	6071
3135.161	6084
3136.956	6093
3138.751	6077
3140.544	6072
3142.338	6019
3144.132	5980
3145.925	5983
3147.717	5868
3149.509	5962
3151.301	5993
3153.091	6028
3154.884	6035
3156.673	6026
3158.462	6031
3160.252	5995
3162.041	6122
3163.831	5882
3165.618	5989
3167.405	6038
3169.193	6070
3170.979	6016
3172.767	5986
3174.553	6046
3176.338	5984
3178.123	5862
3179.907	5986
3181.692	5905
3183.477	6079
3185.259	5971
3187.042	5940
3188.824	5986
3190.607	5959
3192.389	6035
3194.17	5955
3195.951	5867
3197.73	5950
3199.51	5937
3201.289	5864
3203.07	5937
3204.848	5981
3206.626	5928
3208.403	6046
3210.18	5979
3211.959	6017
3213.735	5932
3215.511	5913
3217.285	5959
3219.06	6036
3220.836	5958
3222.611	5985
3224.384	5932
3226.158	5824
3227.929	5941
3229.702	5853
3231.476	5922
3233.248	5884
3235.018	5928
3236.789	6005
3238.56	6013
3240.33	5836
3242.1	5904
3243.869	5869
3245.637	6013
3247.405	5878
3249.172	5973
3250.941	5923
3252.707	5901
3254.474	5959
3256.24	5969
3258.006	5927
3259.772	5889
3261.537	5887
3263.301	5991
3265.065	5909
3266.828	5972
3268.592	5805
3270.355	5951
3272.117	5893
3273.878	5939
3275.64	6042
3277.401	5966
3279.162	5976
3280.922	5998
3282.682	5874
3284.441	5988
3286.199	5940
3287.959	6101
3289.716	5891
3291.475	5905
3293.232	5969
3294.988	5923
3296.744	5895
3298.501	5907
3300.256	6017
3302.011	5822
3303.766	5942
3305.52	5924
3307.275	5842
3309.028	5951
3310.781	5839
3312.533	5865
3314.285	5953
3316.038	5901
3317.789	5889
3319.54	5742
3321.289	5938
3323.039	5971
3324.789	5931
3326.539	5935
3328.288	5838
3330.035	5934
3331.783	5782
3333.531	5912
3335.28	5852
3337.025	5823
3338.771	5797
3340.518	5877
3342.262	5912
3344.009	5806
3345.753	5963
3347.497	5848
3349.24	5852
3350.983	5827
3352.726	5799
3354.469	5753
3356.212	5729
3357.952	5843
3359.694	5743
3361.434	5803
3363.176	5921
3364.916	5728
3366.654	5689
3368.394	5766
3370.132	5706
3371.871	5718
3373.61	5683
3375.346	5646
3377.083	5749
3378.82	5703
3380.556	5688
3382.292	5586
3384.027	5602
3385.763	5657
3387.497	5740
3389.231	5776
3390.965	5631
3392.698	5720
3394.431	5623
3396.164	5657
3397.896	5685
3399.627	5664
3401.36	5589
3403.09	5572
3404.82	5591
3406.55	5530
3408.279	5634
3410.01	5632
3411.738	5572
3413.467	5629
3415.194	5644
3416.92	5645
3418.647	5574
3420.375	5482
3422.102	5550
3423.827	5548
3425.553	5586
3427.277	5437
3429.003	5411
3430.727	5453
3432.451	5569
3434.173	5425
3435.896	5420
3437.62	5523
3439.343	5442
3441.063	5545
3442.785	5528
3444.505	5366
3446.226	5480
3447.948	5441
3449.666	5293
3451.386	5473
3453.104	5380
3454.823	5459
3456.541	5400
3458.259	5320
3459.976	5287
3461.693	5435
3463.408	5414
3465.125	5250
3466.841	5304
3468.556	5338
3470.271	5273
3471.985	5360
3473.698	5335
3475.414	5271
3477.126	5331
3478.838	5318
3480.55	5285
3482.263	5184
3483.975	5294
3485.686	5265
3487.396	5193
3489.106	5204
3490.817	5299
3492.526	5230
3494.236	5204
3495.944	5168
3497.652	5196
3499.359	5147
3501.066	5198
3502.775	5199
3504.481	5181
3506.187	5266
3507.893	5222
3509.598	5182
3511.304	5155
3513.009	5080
3514.713	5061
3516.417	5058
3518.12	5086
3519.821	5111
3521.525	5131
3523.228	5140
3524.929	5079
3526.631	4974
3528.33	5076
3530.032	5064
3531.733	5159
3533.433	5084
3535.131	5064
3536.83	5040
3538.529	4977
3540.227	5026
3541.925	5053
3543.623	5041
3545.319	4991
3547.016	5027
3548.712	5039
3550.408	5083
3552.103	5007
3553.798	4969
3555.491	5017
3557.188	4961
3558.88	4946
3560.574	4863
3562.266	4976
3563.959	5046
3565.651	4890
3567.343	4869
3569.035	4903
3570.725	4959
3572.415	4896
3574.106	4907
3575.797	4850
3577.485	4924
3579.174	4856
3580.863	4840
3582.551	4877
3584.238	4821
3585.926	4783
3587.613	4851
3589.3	4845
3590.986	4791
3592.671	4842
3594.357	4743
3596.042	4757
3597.726	4775
3599.41	4795
3601.094	4811
3602.778	4728
3604.461	4715
3606.143	4698
3607.825	4778
3609.507	4682
3611.188	4757
3612.87	4651
3614.551	4743
3616.229	4710
3617.909	4629
3619.589	4620
3621.269	4678
3622.948	4717
3624.625	4620
3626.302	4633
3627.98	4659
3629.657	4640
3631.334	4627
3633.01	4638
3634.686	4651
3636.361	4450
3638.036	4688
3639.712	4563
3641.385	4546
3643.06	4617
3644.732	4586
3646.405	4596
3648.08	4544
3649.751	4561
3651.424	4565
3653.094	4692
3654.766	4485
3656.436	4622
3658.106	4491
3659.777	4521
3661.446	4486
3663.115	4599
3664.783	4518
3666.452	4560
3668.121	4483
3669.788	4512
3671.454	4576
3673.121	4490
3674.789	4507
3676.455	4449
3678.12	4488
3679.784	4474
3681.45	4455
3683.114	4413
3684.779	4447
3686.442	4457
3688.105	4428
3689.768	4499
3691.43	4420
3693.093	4436
3694.754	4416
3696.415	4431
3698.076	4483
3699.736	4418
3701.396	4391
3703.057	4421
3704.716	4440
3706.375	4404
3708.034	4373
3709.692	4354
3711.351	4402
3713.008	4440
3714.665	4379
3716.321	4315
3717.977	4256
3719.634	4317
3721.29	4396
3722.945	4309
3724.598	4378
3726.253	4394
3727.907	4344
3729.561	4337
3731.214	4477
3732.867	4314
3734.518	4374
3736.171	4265
3737.824	4301
3739.474	4310
3741.125	4311
3742.775	4374
3744.425	4324
3746.074	4364
3747.725	4351
3749.373	4273
3751.022	4285
3752.669	4269
3754.318	4325
3755.966	4251
3757.612	4235
3759.259	4150
3760.905	4346
3762.55	4201
3764.197	4308
3765.842	4315
3767.486	4243
3769.131	4300
3770.774	4160
3772.417	4271
3774.061	4319
3775.705	4316
3777.347	4223
3778.988	4083
3780.629	4245
3782.271	4290
3783.912	4237
3785.552	4218
3787.192	4186
3788.831	4237
3790.472	4209
3792.112	4210
3793.75	4216
3795.388	4217
3797.024	4202
3798.661	4203
3800.3	4205
3801.936	4125
3803.572	4115
3805.208	4165
3806.844	4204
3808.48	4157
3810.115	4098
3811.748	4040
3813.382	4142
3815.016	4145
3816.649	4133
3818.283	4166
3819.914	4185
3821.547	4090
3823.178	4114
3824.809	4137
3826.441	4019
3828.072	4036
3829.701	4114
3831.331	4118
3832.96	4067
3834.591	4073
3836.219	4104
3837.847	4152
3839.475	3985
3841.102	4016
3842.729	4097
3844.357	4070
3845.984	4151
3847.609	3998
3849.234	3950
3850.86	4075
3852.485	4034
3854.11	3995
3855.734	4074
3857.357	3994
3858.981	4031
3860.603	3987
3862.227	3969
3863.848	4027
3865.471	3974
3867.092	3982
3868.713	3967
3870.334	4017
3871.954	4023
3873.575	3943
3875.194	4112
3876.813	3889
3878.433	3952
3880.051	3952
3881.669	4001
3883.286	3927
3884.904	3944
3886.52	3963
3888.138	3921
3889.754	4033
3891.37	3967
3892.985	3961
3894.6	3890
3896.216	4017
3897.831	3823
3899.444	3922
3901.058	3974
3902.67	3901
3904.283	3890
3905.897	3978
3907.509	3935
3909.121	3917
3910.731	3982
3912.342	3890
3913.954	3938
3915.563	3946
3917.174	3853
3918.783	3909
3920.391	3950
3922.002	3911
3923.611	3920
3925.218	3907
3926.826	3861
3928.432	3845
3930.039	3934
3931.647	4047
3933.253	3821
3934.859	3905
3936.464	3844
3938.068	3806
3939.675	3893
3941.278	3824
3942.883	3873
3944.486	3702
3946.089	3917
3947.692	3775
3949.295	3831
3950.898	3816
3952.499	3934
3954.1	3859
3955.7	3901
3957.303	3873
3958.903	3822
3960.502	3787
3962.101	3817
3963.7	3800
3965.301	3817
3966.899	3734
3968.497	3838
3970.094	3717
3971.691	3691
3973.288	3757
3974.885	3771
3976.481	3786
3978.077	3807
3979.672	3831
3981.267	3756
3982.863	3735
3984.457	3755
3986.051	3640
3987.645	3766
3989.238	3810
3990.831	3791
3992.425	3686
3994.017	3678
3995.607	3668
3997.199	3744
3998.79	3633
4000.382	3632
4001.973	3682
4003.561	3687
4005.151	3735
4006.741	3559
4008.331	3680
4009.918	3622
4011.507	3660
4013.095	3643
4014.681	3652
4016.269	3559
4017.856	3613
4019.443	3612
4021.028	3615
4022.614	3564
4024.199	3603
4025.785	3563
4027.37	3541
4028.953	3681
4030.536	3595
4032.12	3536
4033.704	3554
4035.287	3584
4036.869	3568
4038.45	3588
4040.032	3601
4041.613	3532
4043.195	3555
4044.776	3522
4046.356	3619
4047.935	3540
4049.515	3561
4051.095	3509
4052.674	3597
4054.251	3441
4055.829	3503
4057.406	3535
4058.985	3575
4060.562	3548
4062.139	3531
4063.715	3571
4065.29	3552
4066.865	3413
4068.442	3525
4070.016	3502
4071.59	3479
4073.164	3405
4074.738	3522
4076.312	3585
4077.885	3436
4079.458	3477
4081.03	3471
4082.602	3425
4084.173	3519
4085.745	3435
4087.315	3449
4088.886	3476
4090.456	3423
4092.026	3419
4093.596	3399
4095.165	3442
4096.734	3430
4098.301	3414
4099.869	3432
4101.437	3443
4103.006	3380
4104.572	3412
4106.139	3416
4107.704	3425
4109.27	3447
4110.837	3388
4112.401	3355
4113.966	3338
4115.53	3391
4117.094	3443
4118.659	3430
4120.223	3370
4121.785	3461
4123.347	3350
4124.909	3371
4126.471	3374
4128.034	3333
4129.595	3350
4131.155	3377
4132.716	3309
4134.275	3354
4135.836	3360
4137.395	3271
4138.955	3280
4140.513	3289
4142.071	3334
4143.628	3247
4145.188	3322
4146.745	3347
4148.302	3237
4149.858	3262
4151.414	3344
4152.971	3266
4154.526	3302
4156.081	3246
4157.635	3224
4159.189	3301
4160.745	3270
4162.298	3207
4163.852	3304
4165.405	3302
4166.957	3256
4168.51	3262
4170.063	3243
4171.614	3244
4173.166	3219
4174.717	3212
4176.267	3305
4177.817	3231
4179.368	3210
4180.917	3202
4182.466	3237
4184.016	3261
4185.564	3193
4187.112	3183
4188.66	3222
4190.207	3149
4191.754	3238
4193.301	3228
4194.848	3259
4196.394	3161
4197.94	3155
4199.484	3247
4201.03	3170
4202.575	3158
4204.12	3184
4205.663	3193
4207.207	3115
4208.75	3165
4210.292	3159
4211.836	3164
4213.378	3126
4214.92	3215
4216.46	3197
4218.002	3121
4219.544	3150
4221.083	3152
4222.625	3114
4224.164	3130
4225.703	3064
4227.244	3146
4228.782	3029
4230.32	3063
4231.857	3003
4233.395	3093
4234.933	3083
4236.471	3124
4238.007	3208
4239.542	3062
4241.078	3110
4242.614	3088
4244.15	3088
4245.685	3069
4247.219	3067
4248.753	3110
4250.287	3080
4251.82	3044
4253.354	3043
4254.887	3022
4256.419	3039
4257.951	3016
4259.483	3076
4261.016	3109
4262.547	3025
4264.078	3066
4265.608	3073
4267.137	2961
4268.668	3071
4270.197	3056
4271.727	3025
4273.254	3008
4274.783	3040
4276.311	3068
4277.84	3076
4279.366	2953
4280.894	3006
4282.42	3020
4283.946	2970
4285.473	3023
4286.998	2990
4288.523	3057
4290.047	3005
4291.572	2941
4293.096	3025
4294.622	3020
4296.144	3009
4297.668	2953
4299.19	2994
4300.713	3004
4302.236	2931
4303.758	3008
4305.279	2929
4306.799	2984
4308.321	2945
4309.842	2993
4311.361	2970
4312.882	2962
4314.401	2984
