400.0961	4085
402.6185	3964
405.1424	3967
407.6635	4023
410.1838	3964
412.7035	3983
415.2225	3958
417.7388	4032
420.2585	4114
422.7754	4171
425.2917	4132
427.8072	4184
430.3221	4254
432.8363	4185
435.3498	4211
437.8626	4252
440.3727	4198
442.8841	4205
445.3969	4181
447.907	4259
450.4142	4269
452.9229	4196
455.4289	4313
457.9362	4208
460.4449	4174
462.9488	4294
465.454	4144
467.9566	4122
470.4604	4157
472.9637	4136
475.4662	4179
477.966	4254
480.4671	4144
482.9656	4211
485.4633	4291
487.9645	4245
490.4608	4243
492.9566	4347
495.4536	4261
497.948	4279
500.4437	4297
502.9387	4317
505.431	4318
507.9226	4360
510.4136	4309
512.9079	4299
515.3975	4307
517.8864	4403
520.3746	4361
522.8622	4294
525.3491	4399
527.8394	4462
530.3249	4250
532.8098	4380
535.2939	4348
537.7774	4412
540.2623	4285
542.7444	4326
545.2259	4362
547.7067	4414
550.1868	4336
552.6683	4418
555.147	4368
557.6231	4384
560.1005	4441
562.5773	4379
565.0534	4401
567.5308	4453
570.0056	4482
572.4776	4491
574.951	4607
577.4237	4539
579.8978	4533
582.3671	4554
584.8378	4619
587.3079	4534
589.7773	4532
592.244	4538
594.714	4601
597.1793	4591
599.6461	4535
602.1121	4603
604.5754	4529
607.0421	4565
609.5042	4572
611.9675	4490
614.4282	4479
616.8902	4492
619.3515	4537
621.8122	4529
624.2702	4588
626.7296	4574
629.1863	4479
631.6423	4536
634.1017	4561
636.5563	4523
639.0104	4492
641.4658	4434
643.9185	4513
646.3725	4440
648.8239	4586
651.2766	4550
653.7266	4523
656.176	4609
658.6247	4543
661.0748	4556
663.5242	4558
665.9709	4535
668.417	4516
670.8624	4682
673.3092	4590
675.7533	4589
678.1968	4590
680.6395	4693
683.0817	4617
685.5251	4731
687.9659	4643
690.4061	4632
692.8456	4673
695.2844	4545
697.7226	4661
700.1621	4750
702.599	4660
705.0332	4778
707.4688	4684
709.9036	4702
712.3399	4683
714.7735	4832
717.2044	4790
719.6367	4793
722.0683	4833
724.4993	4792
726.9296	4850
729.3593	4773
731.7883	4863
734.2147	4873
736.6423	4759
739.0714	4894
741.4958	4841
743.9216	4923
746.3447	4826
748.7691	4876
751.1929	4891
753.616	4948
756.0366	5044
758.4584	4914
760.8776	5006
763.2982	4984
765.718	4989
768.1373	5051
770.5539	4948
772.9698	4993
775.3871	4976
777.8038	4997
780.2178	4957
782.6332	5049
785.0459	4984
787.458	4933
789.8714	5006
792.2842	5023
794.6943	4919
797.1038	4942
799.5127	5019
801.9209	4891
804.3324	5032
806.7393	5037
809.1456	5118
811.5513	4977
813.9562	5082
816.3625	5124
818.7663	5118
821.1693	5087
823.5718	5036
825.9735	4992
828.3746	5126
830.7771	5132
833.177	5101
835.5762	5112
837.9747	5109
840.3727	5162
842.772	5108
845.1666	5089
847.5626	5118
849.958	5120
852.3527	5162
854.7488	5216
857.1403	5194
859.5331	5235
861.9253	5236
864.3168	5145
866.7057	5125
869.098	5162
871.4876	5266
873.8746	5165
876.263	5223
878.6487	5125
881.0378	5075
883.4243	5094
885.8081	5131
888.1933	5113
890.5759	5105
892.9598	5209
895.343	5126
897.7256	5093
900.1057	5185
902.4871	5133
904.8659	5177
907.246	5113
909.6254	5228
912.0023	5249
914.3786	5410
916.7562	5383
919.1331	5400
921.5074	5556
923.8831	5558
926.2562	5521
928.6287	5619
931.0005	5519
933.3757	5475
935.7462	5485
938.1162	5518
940.4855	5565
942.8542	5539
945.2242	5594
947.5916	5532
949.9584	5734
952.3266	5796
954.6921	5894
957.0571	6192
959.4233	6366
961.787	6329
964.15	6303
966.5125	6190
968.8742	5960
971.2354	5747
973.5959	5688
975.9559	5562
978.3151	5563
980.6738	5413
983.0338	5497
985.3912	5430
987.7461	5348
990.1022	5401
992.4578	5341
994.8127	5364
997.1689	5307
999.5207	5415
1001.874	5392
1004.226	5401
1006.576	5405
1008.929	5505
1011.28	5290
1013.628	5374
1015.977	5413
1018.324	5433
1020.674	5445
1023.019	5333
1025.366	5304
1027.713	5449
1030.056	5408
1032.399	5469
1034.746	5440
1037.087	5400
1039.431	5438
1041.771	5371
1044.113	5550
1046.454	5507
1048.793	5432
1051.133	5443
1053.471	5455
1055.807	5486
1058.146	5443
1060.483	5534
1062.818	5501
1065.153	5520
1067.489	5502
1069.822	5510
1072.156	5571
1074.488	5496
1076.82	5539
1079.15	5439
1081.48	5556
1083.814	5527
1086.143	5615
1088.471	5530
1090.799	5446
1093.126	5517
1095.452	5500
1097.78	5552
1100.105	5416
1102.43	5500
1104.754	5442
1107.077	5525
1109.4	5521
1111.722	5577
1114.044	5493
1116.365	5484
1118.685	5475
1121.005	5473
1123.324	5593
1125.643	5539
1127.961	5578
1130.278	5471
1132.595	5432
1134.911	5596
1137.226	5567
1139.541	5565
1141.854	5469
1144.167	5426
1146.482	5571
1148.793	5500
1151.105	5421
1153.414	5493
1155.725	5571
1158.033	5582
1160.344	5518
1162.651	5551
1164.959	5559
1167.265	5521
1169.572	5596
1171.878	5618
1174.184	5569
1176.488	5536
1178.79	5634
1181.094	5545
1183.396	5667
1185.699	5583
1188.001	5521
1190.301	5472
1192.6	5536
1194.9	5535
1197.2	5572
1199.497	5644
1201.794	5583
1204.09	5583
1206.387	5557
1208.684	5541
1210.978	5647
1213.272	5546
1215.565	5652
1217.858	5624
1220.15	5545
1222.443	5549
1224.734	5594
1227.024	5747
1229.313	5745
1231.602	5747
1233.892	5756
1236.18	5843
1238.467	5702
1240.754	5716
1243.04	5723
1245.325	5858
1247.612	5782
1249.896	5835
1252.178	5887
1254.461	5842
1256.743	5858
1259.027	5733
1261.308	5879
1263.587	5870
1265.867	5845
1268.146	5857
1270.425	5940
1272.703	5825
1274.981	5807
1277.256	5812
1279.532	5787
1281.808	5806
1284.083	5807
1286.358	5753
1288.63	5921
1290.904	5755
1293.175	5756
1295.449	5890
1297.719	5849
1299.99	5703
1302.259	5695
1304.529	5680
1306.798	5742
1309.065	5770
1311.333	5793
1313.599	5819
1315.866	5814
1318.131	5741
1320.396	5656
1322.66	5686
1324.925	5777
1327.187	5702
1329.448	5861
1331.711	5735
1333.974	5785
1336.234	5788
1338.493	5810
1340.752	5774
1343.01	5744
1345.269	5786
1347.526	5791
1349.784	5697
1352.04	5710
1354.295	5685
1356.552	5805
1358.806	5735
1361.059	5758
1363.312	5651
1365.564	5739
1367.818	5775
1370.069	5737
1372.318	5706
1374.568	5737
1376.817	5890
1379.066	5859
1381.316	5942
1383.564	5773
1385.809	5896
1388.056	5820
1390.301	5949
1392.549	5909
1394.793	5994
1397.036	6022
1399.279	6142
1401.522	6024
1403.763	6120
1406.007	6129
1408.248	6012
1410.487	6134
1412.727	6028
1414.965	6078
1417.205	6066
1419.442	6088
1421.68	6053
1423.915	5954
1426.152	6014
1428.388	5918
1430.623	6003
1432.857	6005
1435.091	5988
1437.323	6061
1439.556	6041
1441.789	6087
1444.019	6088
1446.25	6137
1448.48	6098
1450.708	6233
1452.938	6021
1455.167	6199
1457.394	6202
1459.62	6142
1461.846	6152
1464.073	6094
1466.299	6122
1468.523	6073
1470.746	6016
1472.969	5943
1475.191	6062
1477.415	5823
1479.636	5921
1481.858	5843
1484.078	5791
1486.298	5783
1488.518	5806
1490.736	5830
1492.954	5745
1495.169	5777
1497.386	5816
1499.602	5848
1501.819	5733
1504.034	5732
1506.248	5760
1508.462	5658
1510.675	5803
1512.888	5654
1515.1	5772
1517.311	5728
1519.522	5769
1521.732	5668
1523.942	5664
1526.151	5813
1528.36	5757
1530.566	5776
1532.773	5725
1534.98	5848
1537.187	5790
1539.392	5835
1541.596	5817
1543.801	5775
1546.005	5711
1548.208	5763
1550.411	5770
1552.612	5766
1554.814	5847
1557.013	5797
1559.212	5841
1561.414	5877
1563.612	5977
1565.811	5902
1568.007	5925
1570.203	5911
1572.403	5820
1574.598	5945
1576.792	5935
1578.988	5886
1581.181	5918
1583.376	5899
1585.568	5953
1587.761	5958
1589.952	5923
1592.143	5976
1594.333	5847
1596.524	6038
1598.715	5916
1600.903	5963
1603.091	5942
1605.278	6048
1607.466	5935
1609.652	5958
1611.838	5921
1614.023	5947
1616.207	5966
1618.391	5909
1620.576	6013
1622.759	6009
1624.941	5925
1627.123	5958
1629.304	6039
1631.484	6083
1633.664	5938
1635.844	6043
1638.022	6090
1640.201	6131
1642.38	6060
1644.556	5984
1646.732	6093
1648.908	6055
1651.084	6137
1653.257	6241
1655.433	6063
1657.607	6077
1659.779	6112
1661.951	6054
1664.122	6272
1666.295	6135
1668.467	6186
1670.635	6063
1672.805	6117
1674.973	6079
1677.142	6222
1679.31	6118
1681.478	6115
1683.644	6165
1685.81	6161
1687.975	5971
1690.142	6080
1692.305	6145
1694.468	6040
1696.632	6067
1698.794	6101
1700.957	6026
1703.119	5915
1705.279	5993
1707.439	5952
1709.598	5924
1711.758	5908
1713.917	6000
1716.075	5912
1718.231	5842
1720.388	5992
1722.543	5897
1724.702	5821
1726.856	5803
1729.01	5829
1731.164	6024
1733.317	5936
1735.471	5987
1737.623	5969
1739.774	5945
1741.925	5943
1744.075	5961
1746.225	5979
1748.376	5889
1750.524	6090
1752.672	5995
1754.82	5938
1756.965	5953
1759.113	5960
1761.259	5994
1763.405	5996
1765.549	6013
1767.694	6139
1769.836	5963
1771.981	5987
1774.123	5999
1776.264	5913
1778.405	6027
1780.546	5975
1782.687	6031
1784.827	5971
1786.966	5936
1789.103	6042
1791.242	6012
1793.381	6023
1795.517	6026
1797.653	6041
1799.788	6040
1801.923	6038
1804.057	5949
1806.193	6081
1808.326	5947
1810.457	6028
1812.59	5884
1814.721	6062
1816.855	5972
1818.984	6002
1821.113	6123
1823.244	6018
1825.372	5930
1827.499	5827
1829.63	5911
1831.756	5892
1833.882	6091
1836.007	5922
1838.132	5912
1840.26	5973
1842.384	6027
1844.507	5989
1846.63	6059
1848.752	5989
1850.875	5961
1852.996	5901
1855.118	5901
1857.238	5970
1859.358	5934
1861.477	5952
1863.597	5991
1865.715	5920
1867.832	5907
1869.948	6052
1872.064	5890
1874.181	5996
1876.297	5912
1878.411	5964
1880.526	6034
1882.639	5973
1884.752	5930
1886.865	5908
1888.977	5970
1891.089	6016
1893.2	5982
1895.308	6000
1897.42	5975
1899.53	5936
1901.639	5914
1903.745	6071
1905.853	6017
1907.962	6024
1910.067	5926
1912.174	6071
1914.278	5977
1916.383	6160
1918.486	6044
1920.592	6060
1922.694	6049
1924.797	6049
1926.898	5975
1929	6050
1931.102	5946
1933.203	5976
1935.301	6032
1937.401	5994
1939.499	5972
1941.598	6060
1943.697	6094
1945.793	6041
1947.888	6041
1949.985	5938
1952.08	6044
1954.176	6084
1956.269	6009
1958.364	6053
1960.457	5996
1962.549	6106
1964.642	6065
1966.733	6134
1968.823	6074
1970.913	6128
1973.005	5891
1975.093	6072
1977.184	5947
1979.271	5940
1981.359	6015
1983.446	6018
1985.532	6004
1987.619	6071
1989.705	6009
1991.789	6009
1993.874	5949
1995.956	5992
1998.041	5970
2000.123	5914
2002.206	5945
2004.287	5992
2006.368	6057
2008.449	5936
2010.529	5927
2012.609	5933
2014.688	6033
2016.766	6030
2018.843	5944
2020.922	6033
2022.999	6004
2025.074	5914
2027.15	5951
2029.225	6045
2031.299	6070
2033.375	5986
2035.447	6106
2037.52	5987
2039.592	6034
2041.664	5958
2043.736	6017
2045.807	6009
2047.876	5907
2049.947	6035
2052.015	5979
2054.086	6105
2056.153	5978
2058.221	5977
2060.288	6031
2062.353	6031
2064.42	5930
2066.486	5964
2068.55	5933
2070.614	6076
2072.678	5982
2074.741	5997
2076.805	6017
2078.866	5995
2080.929	6016
2082.99	5992
2085.049	6011
2087.109	5895
2089.17	6053
2091.228	5942
2093.286	6011
2095.344	6029
2097.4	6025
2099.46	5982
2101.516	6014
2103.572	5946
2105.626	5886
2107.679	5960
2109.735	5962
2111.788	5939
2113.841	5821
2115.894	5958
2117.945	5989
2119.997	5991
2122.049	5913
2124.1	6058
2126.148	5985
2128.197	5818
2130.246	5967
2132.296	5981
2134.342	5945
2136.39	6017
2138.437	5884
2140.483	5916
2142.527	5892
2144.574	5820
2146.619	5939
2148.661	5899
2150.705	6026
2152.747	5895
2154.792	6027
2156.832	6017
2158.874	5844
2160.915	5822
2162.954	6023
2164.995	5928
2167.034	5991
2169.072	5916
2171.111	5915
2173.148	5946
2175.186	5893
2177.223	5887
2179.258	5811
2181.294	5872
2183.328	5913
2185.362	5893
2187.398	5859
2189.431	5861
2191.463	5868
2193.495	5853
2195.528	5867
2197.56	5856
2199.59	5918
2201.62	5822
2203.649	5723
2205.678	5966
2207.708	5766
2209.737	5931
2211.764	5872
2213.791	5839
2215.817	5814
2217.843	5863
2219.87	5812
2221.895	5814
2223.919	5721
2225.942	5837
2227.966	5879
2229.988	5698
2232.012	5740
2234.032	5948
2236.054	5782
2238.074	5744
2240.095	5809
2242.116	5826
2244.135	5913
2246.153	5825
2248.171	5799
2250.188	5822
2252.208	5767
2254.223	5817
2256.239	5786
2258.255	5836
2260.269	5636
2262.283	5848
2264.3	5797
2266.312	5748
2268.325	5842
2270.336	5754
2272.349	5732
2274.362	5865
2276.372	5828
2278.383	5809
2280.392	5803
2282.402	5748
2284.409	5793
2286.418	5859
2288.427	5819
2290.433	5733
2292.441	5783
2294.446	5850
2296.453	5710
2298.459	5841
2300.463	5790
2302.466	5875
2304.471	5726
2306.475	5736
2308.477	5757
2310.478	5749
2312.481	5778
2314.481	5803
2316.481	5694
2318.482	5783
2320.482	5750
2322.48	5758
2324.48	5742
2326.478	5742
2328.476	5791
2330.473	5821
2332.469	5737
2334.465	5718
2336.46	5673
2338.454	5663
2340.45	5699
2342.444	5687
2344.437	5712
2346.43	5676
2348.421	5681
2350.414	5758
2352.405	5657
2354.396	5717
2356.386	5683
2358.376	5664
2360.366	5742
2362.355	5682
2364.343	5637
2366.331	5539
2368.317	5637
2370.304	5691
2372.292	5672
2374.278	5728
2376.262	5702
2378.247	5564
2380.23	5667
2382.216	5695
2384.199	5648
2386.181	5715
2388.163	5695
2390.144	5556
2392.127	5635
2394.107	5661
2396.087	5614
2398.066	5616
2400.046	5624
2402.023	5595
2404.004	5569
2405.981	5616
2407.957	5535
2409.934	5664
2411.91	5554
2413.886	5610
2415.862	5689
2417.836	5693
2419.809	5599
2421.784	5586
2423.756	5552
2425.73	5535
2427.701	5541
2429.672	5608
2431.644	5557
2433.615	5528
2435.586	5598
2437.555	5582
2439.523	5642
2441.491	5628
2443.459	5665
2445.428	5614
2447.395	5526
2449.361	5647
2451.327	5530
2453.292	5658
2455.257	5478
2457.223	5614
2459.187	5487
2461.15	5573
2463.113	5533
2465.076	5588
2467.039	5590
2468.999	5567
2470.96	5464
2472.921	5474
2474.881	5591
2476.841	5537
2478.8	5446
2480.759	5533
2482.717	5531
2484.675	5483
2486.63	5410
2488.589	5520
2490.545	5473
2492.5	5348
2494.455	5555
2496.408	5509
2498.364	5504
2500.318	5520
2502.27	5505
2504.223	5486
2506.174	5477
2508.126	5482
2510.078	5458
2512.03	5439
2513.979	5505
2515.927	5401
2517.877	5439
2519.826	5484
2521.775	5536
2523.722	5484
2525.668	5516
2527.616	5472
2529.561	5430
2531.508	5467
2533.452	5504
2535.398	5451
2537.342	5435
2539.284	5388
2541.229	5474
2543.173	5542
2545.114	5476
2547.055	5520
2548.996	5447
2550.938	5524
2552.878	5505
2554.817	5494
2556.756	5529
2558.695	5412
2560.633	5417
2562.572	5552
2564.509	5462
2566.445	5457
2568.382	5434
2570.317	5590
2572.254	5513
2574.189	5422
2576.123	5498
2578.057	5525
2579.99	5482
2581.923	5571
2583.855	5545
2585.788	5456
2587.719	5436
2589.65	5481
2591.579	5446
2593.511	5451
2595.44	5477
2597.37	5564
2599.297	5524
2601.225	5473
2603.153	5546
2605.08	5455
2607.007	5460
2608.932	5464
2610.858	5565
2612.782	5420
2614.709	5496
2616.632	5490
2618.556	5483
2620.478	5388
2622.401	5461
2624.324	5446
2626.247	5486
2628.167	5504
2630.088	5517
2632.008	5396
2633.928	5407
2635.848	5499
2637.766	5534
2639.684	5529
2641.603	5408
2643.519	5557
2645.437	5469
2647.353	5449
2649.27	5488
2651.184	5520
2653.099	5500
2655.014	5459
2656.928	5512
2658.842	5435
2660.755	5582
2662.667	5549
2664.579	5487
2666.491	5409
2668.402	5467
2670.312	5451
2672.222	5507
2674.132	5447
2676.042	5501
2677.951	5453
2679.859	5458
2681.766	5488
2683.674	5504
2685.582	5435
2687.488	5372
2689.392	5436
2691.298	5339
2693.202	5419
2695.107	5345
2697.012	5421
2698.914	5401
2700.817	5473
2702.72	5295
2704.622	5450
2706.524	5296
2708.425	5262
2710.326	5456
2712.225	5430
2714.125	5264
2716.024	5344
2717.923	5384
2719.822	5382
2721.719	5341
2723.616	5446
2725.512	5441
2727.41	5430
2729.305	5376
2731.201	5400
2733.095	5366
2734.99	5254
2736.884	5428
2738.778	5372
2740.67	5438
2742.562	5281
2744.455	5438
2746.346	5409
2748.238	5424
2750.129	5308
2752.018	5406
2753.907	5331
2755.797	5331
2757.687	5349
2759.575	5330
2761.462	5396
2763.349	5398
2765.237	5338
2767.124	5433
2769.009	5259
2770.894	5376
2772.779	5351
2774.663	5320
2776.547	5301
2778.431	5440
2780.314	5269
2782.197	5331
2784.078	5498
2785.96	5353
2787.842	5295
2789.723	5347
2791.603	5253
2793.483	5352
2795.362	5222
2797.241	5377
2799.121	5234
2800.997	5343
2802.874	5354
2804.751	5317
2806.628	5355
2808.506	5406
2810.38	5278
2812.255	5316
2814.13	5267
2816.003	5317
2817.878	5307
2819.752	5271
2821.623	5372
2823.496	5271
2825.368	5358
2827.238	5245
2829.111	5525
2830.98	5391
2832.851	5304
2834.719	5292
2836.589	5301
2838.458	5344
2840.327	5321
2842.193	5366
2844.061	5386
2845.927	5431
2847.794	5370
2849.66	5473
2851.525	5368
2853.39	5358
2855.254	5428
2857.117	5381
2858.983	5427
2860.845	5473
2862.707	5589
2864.569	5622
2866.431	5655
2868.293	5551
2870.154	5720
2872.013	5774
2873.873	5680
2875.733	5689
2877.592	5773
2879.451	5914
2881.309	5841
2883.166	5870
2885.022	5973
2886.879	6092
2888.736	6000
2890.591	5916
2892.446	6025
2894.301	6013
2896.155	5945
2898.009	6020
2899.863	6069
2901.716	5944
2903.568	5950
2905.419	5938
2907.27	5855
2909.123	5920
2910.973	6038
2912.824	6101
2914.673	6142
2916.521	6037
2918.372	6051
2920.22	6145
2922.067	6239
2923.914	6241
2925.761	6375
2927.607	6491
2929.455	6274
2931.301	6437
2933.144	6416
2934.99	6502
2936.833	6533
2938.678	6667
2940.522	6546
2942.364	6747
2944.207	6821
2946.048	6766
2947.891	6989
2949.731	7007
2951.571	6835
2953.412	6940
2955.25	6923
2957.09	6821
2958.93	6846
2960.767	6706
2962.606	6724
2964.443	6619
2966.279	6581
2968.116	6451
2969.953	6306
2971.788	6257
2973.623	6136
2975.457	6119
2977.292	6149
2979.127	6085
2980.959	6016
2982.792	6002
2984.624	5985
2986.455	5890
2988.288	5892
2990.119	5834
2991.949	5890
2993.779	5777
2995.608	5719
2997.439	5637
2999.268	5557
3001.096	5616
3002.923	5511
3004.751	5572
3006.578	5503
3008.406	5411
3010.232	5422
3012.057	5428
3013.883	5307
3015.706	5304
3017.532	5224
3019.356	5173
3021.179	5233
3023.002	5185
3024.823	5238
3026.646	5221
3028.469	5136
3030.289	5186
3032.11	5047
3033.93	5068
3035.749	5080
3037.57	5086
3039.39	5045
3041.207	5089
3043.026	4982
3044.842	5076
3046.661	5117
3048.477	5088
3050.294	5050
3052.109	5193
3053.925	5068
3055.739	5006
3057.555	5010
3059.368	5096
3061.181	5098
3062.995	4972
3064.807	5095
3066.62	5012
3068.433	5038
3070.243	4959
3072.054	4976
3073.865	4989
3075.675	5085
3077.485	4972
3079.293	4992
3081.102	5052
3082.911	4959
3084.719	4873
3086.527	4970
3088.333	4964
3090.139	4966
3091.945	4916
3093.75	4835
3095.557	4939
3097.361	4893
3099.165	4939
3100.969	4899
3102.772	4938
3104.575	4877
3106.379	4904
3108.181	4879
3109.982	4981
3111.783	4772
3113.584	4776
3115.386	4748
3117.186	4948
3118.985	4825
3120.783	4820
3122.582	4842
3124.381	4843
3126.179	4773
3127.975	4807
3129.772	4941
3131.569	4887
3133.365	4776
3135.161	4782
3136.956	4794
3138.751	4816
3140.544	4763
3142.338	4832
3144.132	4700
3145.925	4753
3147.717	4808
3149.509	4865
3151.301	4720
3153.091	4742
3154.884	4752
3156.673	4778
3158.462	4783
3160.252	4832
3162.041	4769
3163.831	4780
3165.618	4720
3167.405	4793
3169.193	4766
3170.979	4692
3172.767	4726
3174.553	4752
3176.338	4677
3178.123	4720
3179.907	4641
3181.692	4701
3183.477	4751
3185.259	4666
3187.042	4698
3188.824	4736
3190.607	4693
3192.389	4677
3194.17	4715
3195.951	4690
3197.73	4652
3199.51	4663
3201.289	4698
3203.07	4737
3204.848	4676
3206.626	4664
3208.403	4708
3210.18	4716
3211.959	4650
3213.735	4707
3215.511	4643
3217.285	4646
3219.06	4727
3220.836	4632
3222.611	4674
3224.384	4643
3226.158	4766
3227.929	4686
3229.702	4653
3231.476	4718
3233.248	4796
3235.018	4775
3236.789	4665
3238.56	4720
3240.33	4644
3242.1	4717
3243.869	4668
3245.637	4718
3247.405	4696
3249.172	4679
3250.941	4803
3252.707	4732
3254.474	4700
3256.24	4658
3258.006	4644
3259.772	4614
3261.537	4554
3263.301	4693
3265.065	4668
3266.828	4636
3268.592	4660
3270.355	4685
3272.117	4728
3273.878	4687
3275.64	4685
3277.401	4703
3279.162	4730
3280.922	4676
3282.682	4754
3284.441	4698
3286.199	4737
3287.959	4747
3289.716	4776
3291.475	4741
3293.232	4747
3294.988	4657
3296.744	4614
3298.501	4700
3300.256	4724
3302.011	4630
3303.766	4650
3305.52	4555
3307.275	4658
3309.028	4632
3310.781	4628
3312.533	4719
3314.285	4632
3316.038	4682
3317.789	4672
3319.54	4596
3321.289	4667
3323.039	4605
3324.789	4678
3326.539	4646
3328.288	4686
3330.035	4609
3331.783	4636
3333.531	4621
3335.28	4685
3337.025	4656
3338.771	4538
3340.518	4647
3342.262	4623
3344.009	4659
3345.753	4641
3347.497	4682
3349.24	4655
3350.983	4549
3352.726	4602
3354.469	4574
3356.212	4512
3357.952	4632
3359.694	4540
3361.434	4574
3363.176	4572
3364.916	4525
3366.654	4609
3368.394	4551
3370.132	4512
3371.871	4481
3373.61	4508
3375.346	4560
3377.083	4628
3378.82	4427
3380.556	4572
3382.292	4491
3384.027	4427
3385.763	4602
3387.497	4420
3389.231	4508
3390.965	4468
3392.698	4464
3394.431	4443
3396.164	4501
3397.896	4540
3399.627	4450
3401.36	4543
3403.09	4510
3404.82	4383
3406.55	4548
3408.279	4356
3410.01	4477
3411.738	4524
3413.467	4449
3415.194	4483
3416.92	4425
3418.647	4517
3420.375	4459
3422.102	4342
3423.827	4396
3425.553	4413
3427.277	4461
3429.003	4410
3430.727	4391
3432.451	4293
3434.173	4461
3435.896	4325
3437.62	4382
3439.343	4298
3441.063	4464
3442.785	4342
3444.505	4355
3446.226	4359
3447.948	4272
3449.666	4347
3451.386	4275
3453.104	4317
3454.823	4276
3456.541	4322
3458.259	4251
3459.976	4279
3461.693	4302
3463.408	4281
3465.125	4232
3466.841	4235
3468.556	4268
3470.271	4198
3471.985	4229
3473.698	4268
3475.414	4328
3477.126	4245
3478.838	4211
3480.55	4146
3482.263	4210
3483.975	4176
3485.686	4124
3487.396	4164
3489.106	4217
3490.817	4181
3492.526	4216
3494.236	4145
3495.944	4244
3497.652	4147
3499.359	4172
3501.066	4207
3502.775	4093
3504.481	4128
3506.187	4117
3507.893	4124
3509.598	4022
3511.304	4145
3513.009	4085
3514.713	4113
3516.417	4149
3518.12	4111
3519.821	4259
3521.525	4095
3523.228	4140
3524.929	4134
3526.631	4056
3528.33	4047
3530.032	4149
3531.733	4130
3533.433	4012
3535.131	4037
3536.83	4047
3538.529	4145
3540.227	4079
3541.925	3944
3543.623	4061
3545.319	3955
3547.016	4008
3548.712	4015
3550.408	4044
3552.103	4045
3553.798	4106
3555.491	4044
3557.188	4005
3558.88	4005
3560.574	3927
3562.266	3970
3563.959	3993
3565.651	3978
3567.343	3915
3569.035	4068
3570.725	3951
3572.415	3997
3574.106	3952
3575.797	3880
3577.485	3932
3579.174	3963
3580.863	3905
3582.551	3932
3584.238	3918
3585.926	3920
3587.613	3872
3589.3	3883
3590.986	3919
3592.671	3800
3594.357	3934
3596.042	3931
3597.726	3783
3599.41	3908
3601.094	3900
3602.778	3902
3604.461	3841
3606.143	3785
3607.825	3761
3609.507	3714
3611.188	3854
3612.87	3806
3614.551	3859
3616.229	3823
3617.909	3773
3619.589	3796
3621.269	3758
3622.948	3769
3624.625	3777
3626.302	3820
3627.98	3752
3629.657	3763
3631.334	3758
3633.01	3733
3634.686	3725
3636.361	3679
3638.036	3770
3639.712	3711
3641.385	3704
3643.06	3667
3644.732	3745
3646.405	3649
3648.08	3761
3649.751	3738
3651.424	3673
3653.094	3637
3654.766	3664
3656.436	3603
3658.106	3714
3659.777	3666
3661.446	3687
3663.115	3645
3664.783	3665
3666.452	3708
3668.121	3617
3669.788	3579
3671.454	3654
3673.121	3618
3674.789	3597
3676.455	3649
3678.12	3618
3679.784	3673
3681.45	3604
3683.114	3569
3684.779	3562
3686.442	3669
3688.105	3634
3689.768	3591
3691.43	3594
3693.093	3647
3694.754	3606
3696.415	3571
3698.076	3634
3699.736	3675
3701.396	3591
3703.057	3567
3704.716	3522
3706.375	3569
3708.034	3592
3709.692	3577
3711.351	3624
3713.008	3567
3714.665	3562
3716.321	3615
3717.977	3538
3719.634	3529
3721.29	3598
3722.945	3570
3724.598	3559
3726.253	3591
3727.907	3535
3729.561	3589
3731.214	3551
3732.867	3537
3734.518	3572
3736.171	3514
3737.824	3583
3739.474	3578
3741.125	3548
3742.775	3588
3744.425	3501
3746.074	3535
3747.725	3528
3749.373	3566
3751.022	3464
3752.669	3487
3754.318	3474
3755.966	3511
3757.612	3460
3759.259	3500
3760.905	3448
3762.55	3509
3764.197	3456
3765.842	3442
3767.486	3480
3769.131	3501
3770.774	3458
3772.417	3416
3774.061	3488
3775.705	3499
3777.347	3471
3778.988	3408
3780.629	3454
3782.271	3422
3783.912	3335
3785.552	3445
3787.192	3327
3788.831	3398
3790.472	3388
3792.112	3425
3793.75	3487
3795.388	3395
3797.024	3398
3798.661	3410
3800.3	3443
3801.936	3372
3803.572	3432
3805.208	3398
3806.844	3416
3808.48	3406
3810.115	3280
3811.748	3353
3813.382	3423
3815.016	3341
3816.649	3354
3818.283	3382
3819.914	3322
3821.547	3329
3823.178	3318
3824.809	3270
3826.441	3295
3828.072	3319
3829.701	3376
3831.331	3292
3832.96	3346
3834.591	3295
3836.219	3310
3837.847	3339
3839.475	3343
3841.102	3350
3842.729	3312
3844.357	3327
3845.984	3283
3847.609	3273
3849.234	3276
3850.86	3318
3852.485	3347
3854.11	3262
3855.734	3272
3857.357	3234
3858.981	3264
3860.603	3272
3862.227	3276
3863.848	3240
3865.471	3212
3867.092	3240
3868.713	3290
3870.334	3314
3871.954	3292
3873.575	3221
3875.194	3229
3876.813	3260
3878.433	3227
3880.051	3280
3881.669	3260
3883.286	3259
3884.904	3317
3886.52	3196
3888.138	3239
3889.754	3194
3891.37	3313
3892.985	3305
3894.6	3244
3896.216	3270
3897.831	3296
3899.444	3198
3901.058	3265
3902.67	3196
3904.283	3238
3905.897	3176
3907.509	3222
3909.121	3199
3910.731	3243
3912.342	3148
3913.954	3141
3915.563	3221
3917.174	3170
3918.783	3196
3920.391	3249
3922.002	3159
3923.611	3165
3925.218	3144
3926.826	3201
3928.432	3199
3930.039	3198
3931.647	3135
3933.253	3227
3934.859	3258
3936.464	3212
3938.068	3206
3939.675	3223
3941.278	3214
3942.883	3178
3944.486	3121
3946.089	3215
3947.692	3180
3949.295	3213
3950.898	3140
3952.499	3176
3954.1	3244
3955.7	3194
3957.303	3115
3958.903	3191
3960.502	3162
3962.101	3122
3963.7	3165
3965.301	3118
3966.899	3155
3968.497	3175
3970.094	3089
3971.691	3118
3973.288	3117
3974.885	3127
3976.481	3051
3978.077	3136
3979.672	3139
3981.267	3059
3982.863	3105
3984.457	3057
3986.051	3033
3987.645	3154
3989.238	2998
3990.831	3018
3992.425	3094
3994.017	3137
3995.607	3047
3997.199	2990
3998.79	3031
4000.382	3011
4001.973	3005
4003.561	3018
4005.151	3024
4006.741	3003
4008.331	2969
4009.918	3001
4011.507	3008
4013.095	2999
4014.681	2941
4016.269	3043
4017.856	3009
4019.443	3005
4021.028	3016
4022.614	2963
4024.199	2999
4025.785	3066
4027.37	2936
4028.953	3053
4030.536	2935
4032.12	2930
4033.704	2994
4035.287	3012
4036.869	2971
4038.45	2952
4040.032	2921
4041.613	2965
4043.195	2921
4044.776	2997
4046.356	2927
4047.935	2930
4049.515	2918
4051.095	2950
4052.674	2904
4054.251	2960
4055.829	2865
4057.406	2896
4058.985	2883
4060.562	2968
4062.139	2949
4063.715	2894
4065.29	2962
4066.865	2866
4068.442	2939
4070.016	2895
4071.59	2924
4073.164	2902
4074.738	2913
4076.312	2884
4077.885	2807
4079.458	2919
4081.03	2833
4082.602	2960
4084.173	2856
4085.745	2877
4087.315	2909
4088.886	2852
4090.456	2867
4092.026	2924
4093.596	2833
4095.165	2876
4096.734	2904
4098.301	2868
4099.869	2895
4101.437	2872
4103.006	2846
4104.572	2831
4106.139	2863
4107.704	2830
4109.27	2882
4110.837	2828
4112.401	2832
4113.966	2812
4115.53	2818
4117.094	2817
4118.659	2786
4120.223	2824
4121.785	2827
4123.347	2831
4124.909	2852
4126.471	2839
4128.034	2757
4129.595	2785
4131.155	2735
4132.716	2763
4134.275	2799
4135.836	2846
4137.395	2784
4138.955	2807
4140.513	2783
4142.071	2742
4143.628	2788
4145.188	2753
4146.745	2757
4148.302	2735
4149.858	2815
4151.414	2740
4152.971	2700
4154.526	2722
4156.081	2738
4157.635	2695
4159.189	2714
4160.745	2749
4162.298	2704
4163.852	2722
4165.405	2751
4166.957	2726
4168.51	2770
4170.063	2693
4171.614	2762
4173.166	2712
4174.717	2721
4176.267	2704
4177.817	2735
4179.368	2611
4180.917	2678
4182.466	2650
4184.016	2732
4185.564	2646
4187.112	2696
4188.66	2662
4190.207	2685
4191.754	2667
4193.301	2643
4194.848	2699
4196.394	2684
4197.94	2612
4199.484	2675
4201.03	2679
4202.575	2697
4204.12	2639
4205.663	2676
4207.207	2659
4208.75	2703
4210.292	2638
4211.836	2679
4213.378	2633
4214.92	2593
4216.46	2668
4218.002	2563
4219.544	2639
4221.083	2613
4222.625	2686
4224.164	2574
4225.703	2679
4227.244	2586
4228.782	2616
4230.32	2606
4231.857	2583
4233.395	2608
4234.933	2579
4236.471	2633
4238.007	2586
4239.542	2579
4241.078	2587
4242.614	2609
4244.15	2618
4245.685	2619
4247.219	2531
4248.753	2605
4250.287	2540
4251.82	2552
4253.354	2572
4254.887	2616
4256.419	2577
4257.951	2533
4259.483	2560
4261.016	2577
4262.547	2653
4264.078	2564
4265.608	2531
4267.137	2547
4268.668	2576
4270.197	2543
4271.727	2599
4273.254	2496
4274.783	2518
4276.311	2565
4277.84	2540
4279.366	2658
4280.894	2509
4282.42	2542
4283.946	2491
4285.473	2519
4286.998	2518
4288.523	2572
4290.047	2552
4291.572	2513
4293.096	2555
4294.622	2626
4296.144	2490
4297.668	2572
4299.19	2554
4300.713	2526
4302.236	2526
4303.758	2504
4305.279	2429
4306.799	2464
4308.321	2461
4309.842	2581
4311.361	2446
4312.882	2502
4314.401	2501
