400.0961	3118
402.6185	3116
405.1424	3226
407.6635	3117
410.1838	3164
412.7035	3177
415.2225	3247
417.7388	3237
420.2585	3214
422.7754	3218
425.2917	3259
427.8072	3347
430.3221	3345
432.8363	3296
435.3498	3402
437.8626	3288
440.3727	3390
442.8841	3387
445.3969	3329
447.907	3348
450.4142	3337
452.9229	3349
455.4289	3332
457.9362	3346
460.4449	3385
462.9488	3412
465.454	3365
467.9566	3320
470.4604	3327
472.9637	3315
475.4662	3309
477.966	3374
480.4671	3317
482.9656	3386
485.4633	3387
487.9645	3373
490.4608	3308
492.9566	3412
495.4536	3391
497.948	3374
500.4437	3481
502.9387	3410
505.431	3453
507.9226	3456
510.4136	3361
512.9079	3418
515.3975	3528
517.8864	3437
520.3746	3476
522.8622	3388
525.3491	3478
527.8394	3422
530.3249	3429
532.8098	3480
535.2939	3405
537.7774	3473
540.2623	3460
542.7444	3436
545.2259	3434
547.7067	3528
550.1868	3453
552.6683	3463
555.147	3388
557.6231	3369
560.1005	3437
562.5773	3492
565.0534	3530
567.5308	3531
570.0056	3497
572.4776	3461
574.951	3544
577.4237	3636
579.8978	3531
582.3671	3663
584.8378	3582
587.3079	3650
589.7773	3626
592.244	3653
594.714	3572
597.1793	3636
599.6461	3581
602.1121	3631
604.5754	3559
607.0421	3583
609.5042	3610
611.9675	3558
614.4282	3551
616.8902	3579
619.3515	3609
621.8122	3565
624.2702	3551
626.7296	3566
629.1863	3532
631.6423	3591
634.1017	3476
636.5563	3546
639.0104	3540
641.4658	3609
643.9185	3628
646.3725	3612
648.8239	3592
651.2766	3616
653.7266	3650
656.176	3595
658.6247	3570
661.0748	3667
663.5242	3592
665.9709	3712
668.417	3693
670.8624	3604
673.3092	3621
675.7533	3695
678.1968	3602
680.6395	3660
683.0817	3600
685.5251	3670
687.9659	3674
690.4061	3672
692.8456	3683
695.2844	3771
697.7226	3727
700.1621	3662
702.599	3859
705.0332	3711
707.4688	3627
709.9036	3753
712.3399	3750
714.7735	3781
717.2044	3714
719.6367	3818
722.0683	3737
724.4993	3733
726.9296	3839
729.3593	3759
731.7883	3740
734.2147	3794
736.6423	3808
739.0714	3794
741.4958	3806
743.9216	3831
746.3447	3897
748.7691	3792
751.1929	3894
753.616	3928
756.0366	3908
758.4584	3853
760.8776	3877
763.2982	3953
765.718	3902
768.1373	3930
770.5539	3988
772.9698	4007
775.3871	3967
777.8038	3953
780.2178	3917
782.6332	3915
785.0459	3924
787.458	3946
789.8714	4020
792.2842	3907
794.6943	3948
797.1038	4007
799.5127	3920
801.9209	3967
804.3324	3929
806.7393	4019
809.1456	4020
811.5513	3964
813.9562	3962
816.3625	3932
818.7663	3963
821.1693	3931
823.5718	4030
825.9735	4007
828.3746	3972
830.7771	4017
833.177	3964
835.5762	4003
837.9747	4087
840.3727	3947
842.772	4000
845.1666	4017
847.5626	4004
849.958	4074
852.3527	4109
854.7488	4077
857.1403	4044
859.5331	4167
861.9253	4076
864.3168	4045
866.7057	4086
869.098	4014
871.4876	4052
873.8746	4136
876.263	4155
878.6487	4033
881.0378	4092
883.4243	4015
885.8081	4070
888.1933	4118
890.5759	4013
892.9598	4016
895.343	4043
897.7256	4138
900.1057	3954
902.4871	4074
904.8659	4048
907.246	4127
909.6254	4069
912.0023	4171
914.3786	4043
916.7562	4215
919.1331	4325
921.5074	4221
923.8831	4295
926.2562	4245
928.6287	4310
931.0005	4335
933.3757	4359
935.7462	4354
938.1162	4295
940.4855	4391
942.8542	4331
945.2242	4512
947.5916	4533
949.9584	4526
952.3266	4672
954.6921	4824
957.0571	5045
959.4233	5065
961.787	5201
964.15	5201
966.5125	5040
968.8742	4868
971.2354	4743
973.5959	4513
975.9559	4473
978.3151	4344
980.6738	4322
983.0338	4274
985.3912	4254
987.7461	4235
990.1022	4237
992.4578	4207
994.8127	4170
997.1689	4280
999.5207	4267
1001.874	4266
1004.226	4233
1006.576	4276
1008.929	4307
1011.28	4231
1013.628	4273
1015.977	4257
1018.324	4210
1020.674	4305
1023.019	4352
1025.366	4308
1027.713	4316
1030.056	4245
1032.399	4263
1034.746	4384
1037.087	4321
1039.431	4273
1041.771	4232
1044.113	4221
1046.454	4383
1048.793	4309
1051.133	4297
1053.471	4324
1055.807	4442
1058.146	4337
1060.483	4396
1062.818	4378
1065.153	4396
1067.489	4414
1069.822	4473
1072.156	4443
1074.488	4439
1076.82	4460
1079.15	4361
1081.48	4441
1083.814	4423
1086.143	4326
1088.471	4319
1090.799	4295
1093.126	4377
1095.452	4347
1097.78	4341
1100.105	4329
1102.43	4362
1104.754	4317
1107.077	4410
1109.4	4341
1111.722	4382
1114.044	4306
1116.365	4402
1118.685	4274
1121.005	4330
1123.324	4408
1125.643	4336
1127.961	4333
1130.278	4307
1132.595	4282
1134.911	4502
1137.226	4446
1139.541	4309
1141.854	4415
1144.167	4416
1146.482	4323
1148.793	4381
1151.105	4309
1153.414	4334
1155.725	4345
1158.033	4374
1160.344	4356
1162.651	4314
1164.959	4333
1167.265	4274
1169.572	4410
1171.878	4395
1174.184	4421
1176.488	4324
1178.79	4423
1181.094	4355
1183.396	4382
1185.699	4437
1188.001	4396
1190.301	4346
1192.6	4343
1194.9	4353
1197.2	4326
1199.497	4487
1201.794	4386
1204.09	4386
1206.387	4303
1208.684	4342
1210.978	4278
1213.272	4463
1215.565	4411
1217.858	4382
1220.15	4424
1222.443	4441
1224.734	4459
1227.024	4468
1229.313	4531
1231.602	4504
1233.892	4380
1236.18	4506
1238.467	4447
1240.754	4447
1243.04	4527
1245.325	4504
1247.612	4557
1249.896	4608
1252.178	4405
1254.461	4489
1256.743	4555
1259.027	4588
1261.308	4560
1263.587	4612
1265.867	4471
1268.146	4563
1270.425	4608
1272.703	4553
1274.981	4562
1277.256	4553
1279.532	4497
1281.808	4474
1284.083	4535
1286.358	4517
1288.63	4514
1290.904	4422
1293.175	4515
1295.449	4595
1297.719	4550
1299.99	4475
1302.259	4554
1304.529	4589
1306.798	4537
1309.065	4458
1311.333	4485
1313.599	4567
1315.866	4421
1318.131	4443
1320.396	4483
1322.66	4369
1324.925	4527
1327.187	4495
1329.448	4471
1331.711	4486
1333.974	4537
1336.234	4495
1338.493	4563
1340.752	4509
1343.01	4544
1345.269	4535
1347.526	4599
1349.784	4502
1352.04	4436
1354.295	4418
1356.552	4419
1358.806	4483
1361.059	4491
1363.312	4525
1365.564	4520
1367.818	4548
1370.069	4487
1372.318	4521
1374.568	4458
1376.817	4600
1379.066	4508
1381.316	4532
1383.564	4468
1385.809	4563
1388.056	4564
1390.301	4629
1392.549	4624
1394.793	4682
1397.036	4621
1399.279	4644
1401.522	4733
1403.763	4699
1406.007	4601
1408.248	4675
1410.487	4628
1412.727	4656
1414.965	4623
1417.205	4632
1419.442	4651
1421.68	4691
1423.915	4661
1426.152	4667
1428.388	4644
1430.623	4666
1432.857	4683
1435.091	4709
1437.323	4779
1439.556	4668
1441.789	4672
1444.019	4775
1446.25	4691
1448.48	4789
1450.708	4700
1452.938	4794
1455.167	4762
1457.394	4825
1459.62	4854
1461.846	4873
1464.073	4688
1466.299	4784
1468.523	4721
1470.746	4695
1472.969	4709
1475.191	4655
1477.415	4652
1479.636	4601
1481.858	4608
1484.078	4674
1486.298	4566
1488.518	4581
1490.736	4621
1492.954	4460
1495.169	4502
1497.386	4522
1499.602	4453
1501.819	4619
1504.034	4494
1506.248	4506
1508.462	4533
1510.675	4542
1512.888	4557
1515.1	4465
1517.311	4438
1519.522	4536
1521.732	4541
1523.942	4512
1526.151	4586
1528.36	4585
1530.566	4531
1532.773	4519
1534.98	4518
1537.187	4477
1539.392	4482
1541.596	4578
1543.801	4515
1546.005	4534
1548.208	4578
1550.411	4628
1552.612	4548
1554.814	4566
1557.013	4557
1559.212	4587
1561.414	4607
1563.612	4673
1565.811	4655
1568.007	4622
1570.203	4613
1572.403	4644
1574.598	4683
1576.792	4627
1578.988	4620
1581.181	4570
1583.376	4653
1585.568	4683
1587.761	4614
1589.952	4628
1592.143	4694
1594.333	4680
1596.524	4702
1598.715	4586
1600.903	4709
1603.091	4753
1605.278	4633
1607.466	4704
1609.652	4854
1611.838	4669
1614.023	4710
1616.207	4707
1618.391	4764
1620.576	4734
1622.759	4658
1624.941	4778
1627.123	4701
1629.304	4710
1631.484	4793
1633.664	4725
1635.844	4725
1638.022	4741
1640.201	4728
1642.38	4786
1644.556	4810
1646.732	4758
1648.908	4754
1651.084	4752
1653.257	4791
1655.433	4830
1657.607	4715
1659.779	4837
1661.951	4836
1664.122	4831
1666.295	4732
1668.467	4865
1670.635	4872
1672.805	4832
1674.973	4733
1677.142	4800
1679.31	4728
1681.478	4792
1683.644	4759
1685.81	4779
1687.975	4810
1690.142	4611
1692.305	4768
1694.468	4808
1696.632	4793
1698.794	4839
1700.957	4811
1703.119	4711
1705.279	4689
1707.439	4690
1709.598	4756
1711.758	4735
1713.917	4755
1716.075	4753
1718.231	4724
1720.388	4692
1722.543	4672
1724.702	4718
1726.856	4625
1729.01	4691
1731.164	4711
1733.317	4686
1735.471	4620
1737.623	4679
1739.774	4698
1741.925	4636
1744.075	4807
1746.225	4667
1748.376	4728
1750.524	4684
1752.672	4785
1754.82	4760
1756.965	4645
1759.113	4740
1761.259	4668
1763.405	4701
1765.549	4778
1767.694	4775
1769.836	4744
1771.981	4735
1774.123	4686
1776.264	4849
1778.405	4779
1780.546	4790
1782.687	4672
1784.827	4692
1786.966	4812
1789.103	4704
1791.242	4764
1793.381	4737
1795.517	4692
1797.653	4686
1799.788	4742
1801.923	4725
1804.057	4766
1806.193	4751
1808.326	4759
1810.457	4821
1812.59	4718
1814.721	4800
1816.855	4688
1818.984	4755
1821.113	4730
1823.244	4686
1825.372	4772
1827.499	4745
1829.63	4725
1831.756	4607
1833.882	4699
1836.007	4607
1838.132	4726
1840.26	4684
1842.384	4686
1844.507	4706
1846.63	4784
1848.752	4666
1850.875	4622
1852.996	4715
1855.118	4648
1857.238	4734
1859.358	4577
1861.477	4781
1863.597	4647
1865.715	4734
1867.832	4712
1869.948	4784
1872.064	4679
1874.181	4704
1876.297	4622
1878.411	4701
1880.526	4632
1882.639	4712
1884.752	4750
1886.865	4590
1888.977	4694
1891.089	4743
1893.2	4665
1895.308	4806
1897.42	4736
1899.53	4740
1901.639	4761
1903.745	4725
1905.853	4782
1907.962	4673
1910.067	4699
1912.174	4788
1914.278	4805
1916.383	4692
1918.486	4819
1920.592	4714
1922.694	4812
1924.797	4751
1926.898	4826
1929	4908
1931.102	4772
1933.203	4762
1935.301	4835
1937.401	4774
1939.499	4737
1941.598	4771
1943.697	4817
1945.793	4632
1947.888	4740
1949.985	4850
1952.08	4756
1954.176	4767
1956.269	4764
1958.364	4726
1960.457	4812
1962.549	4829
1964.642	4804
1966.733	4757
1968.823	4782
1970.913	4800
1973.005	4766
1975.093	4856
1977.184	4752
1979.271	4831
1981.359	4704
1983.446	4703
1985.532	4794
1987.619	4749
1989.705	4772
1991.789	4759
1993.874	4876
1995.956	4733
1998.041	4785
2000.123	4737
2002.206	4712
2004.287	4847
2006.368	4675
2008.449	4694
2010.529	4671
2012.609	4696
2014.688	4835
2016.766	4740
2018.843	4757
2020.922	4788
2022.999	4856
2025.074	4705
2027.15	4788
2029.225	4710
2031.299	4695
2033.375	4724
2035.447	4589
2037.52	4756
2039.592	4774
2041.664	4765
2043.736	4662
2045.807	4620
2047.876	4799
2049.947	4755
2052.015	4685
2054.086	4697
2056.153	4796
2058.221	4751
2060.288	4636
2062.353	4812
2064.42	4852
2066.486	4700
2068.55	4814
2070.614	4750
2072.678	4764
2074.741	4767
2076.805	4820
2078.866	4724
2080.929	4700
2082.99	4710
2085.049	4762
2087.109	4813
2089.17	4740
2091.228	4775
2093.286	4759
2095.344	4851
2097.4	4689
2099.46	4781
2101.516	4731
2103.572	4789
2105.626	4722
2107.679	4779
2109.735	4752
2111.788	4618
2113.841	4823
2115.894	4725
2117.945	4728
2119.997	4725
2122.049	4697
2124.1	4678
2126.148	4694
2128.197	4732
2130.246	4832
2132.296	4728
2134.342	4748
2136.39	4781
2138.437	4656
2140.483	4729
2142.527	4704
2144.574	4736
2146.619	4682
2148.661	4714
2150.705	4733
2152.747	4801
2154.792	4718
2156.832	4696
2158.874	4730
2160.915	4697
2162.954	4706
2164.995	4734
2167.034	4813
2169.072	4680
2171.111	4698
2173.148	4686
2175.186	4678
2177.223	4705
2179.258	4665
2181.294	4676
2183.328	4726
2185.362	4744
2187.398	4625
2189.431	4595
2191.463	4721
2193.495	4740
2195.528	4649
2197.56	4622
2199.59	4664
2201.62	4651
2203.649	4658
2205.678	4603
2207.708	4631
2209.737	4614
2211.764	4595
2213.791	4713
2215.817	4620
2217.843	4612
2219.87	4665
2221.895	4621
2223.919	4656
2225.942	4641
2227.966	4675
2229.988	4585
2232.012	4574
2234.032	4607
2236.054	4585
2238.074	4513
2240.095	4668
2242.116	4521
2244.135	4546
2246.153	4704
2248.171	4573
2250.188	4693
2252.208	4626
2254.223	4525
2256.239	4645
2258.255	4622
2260.269	4609
2262.283	4703
2264.3	4645
2266.312	4595
2268.325	4625
2270.336	4587
2272.349	4610
2274.362	4657
2276.372	4664
2278.383	4572
2280.392	4579
2282.402	4586
2284.409	4621
2286.418	4604
2288.427	4631
2290.433	4619
2292.441	4587
2294.446	4687
2296.453	4590
2298.459	4552
2300.463	4650
2302.466	4646
2304.471	4602
2306.475	4616
2308.477	4628
2310.478	4651
2312.481	4541
2314.481	4670
2316.481	4580
2318.482	4573
2320.482	4560
2322.48	4564
2324.48	4587
2326.478	4521
2328.476	4508
2330.473	4583
2332.469	4563
2334.465	4588
2336.46	4520
2338.454	4641
2340.45	4582
2342.444	4590
2344.437	4565
2346.43	4593
2348.421	4464
2350.414	4513
2352.405	4573
2354.396	4563
2356.386	4550
2358.376	4570
2360.366	4594
2362.355	4445
2364.343	4541
2366.331	4535
2368.317	4562
2370.304	4407
2372.292	4411
2374.278	4490
2376.262	4508
2378.247	4489
2380.23	4456
2382.216	4495
2384.199	4496
2386.181	4498
2388.163	4419
2390.144	4514
2392.127	4553
2394.107	4498
2396.087	4449
2398.066	4371
2400.046	4544
2402.023	4435
2404.004	4443
2405.981	4524
2407.957	4531
2409.934	4549
2411.91	4482
2413.886	4537
2415.862	4451
2417.836	4527
2419.809	4477
2421.784	4499
2423.756	4497
2425.73	4582
2427.701	4493
2429.672	4490
2431.644	4494
2433.615	4353
2435.586	4459
2437.555	4501
2439.523	4565
2441.491	4450
2443.459	4490
2445.428	4417
2447.395	4481
2449.361	4384
2451.327	4434
2453.292	4471
2455.257	4407
2457.223	4456
2459.187	4475
2461.15	4435
2463.113	4454
2465.076	4461
2467.039	4367
2468.999	4451
2470.96	4383
2472.921	4526
2474.881	4443
2476.841	4442
2478.8	4434
2480.759	4398
2482.717	4459
2484.675	4350
2486.63	4361
2488.589	4377
2490.545	4410
2492.5	4383
2494.455	4348
2496.408	4368
2498.364	4369
2500.318	4377
2502.27	4359
2504.223	4429
2506.174	4377
2508.126	4382
2510.078	4377
2512.03	4468
2513.979	4426
2515.927	4371
2517.877	4411
2519.826	4406
2521.775	4438
2523.722	4370
2525.668	4418
2527.616	4366
2529.561	4412
2531.508	4451
2533.452	4323
2535.398	4446
2537.342	4379
2539.284	4353
2541.229	4396
2543.173	4302
2545.114	4383
2547.055	4395
2548.996	4442
2550.938	4330
2552.878	4392
2554.817	4290
2556.756	4370
2558.695	4399
2560.633	4376
2562.572	4220
2564.509	4263
2566.445	4321
2568.382	4341
2570.317	4326
2572.254	4360
2574.189	4356
2576.123	4450
2578.057	4312
2579.99	4331
2581.923	4394
2583.855	4381
2585.788	4462
2587.719	4277
2589.65	4343
2591.579	4327
2593.511	4351
2595.44	4352
2597.37	4308
2599.297	4402
2601.225	4408
2603.153	4383
2605.08	4399
2607.007	4424
2608.932	4448
2610.858	4445
2612.782	4447
2614.709	4363
2616.632	4390
2618.556	4348
2620.478	4460
2622.401	4382
2624.324	4455
2626.247	4282
2628.167	4393
2630.088	4424
2632.008	4351
2633.928	4413
2635.848	4328
2637.766	4403
2639.684	4439
2641.603	4405
2643.519	4330
2645.437	4463
2647.353	4417
2649.27	4364
2651.184	4426
2653.099	4406
2655.014	4353
2656.928	4426
2658.842	4298
2660.755	4389
2662.667	4363
2664.579	4357
2666.491	4270
2668.402	4352
2670.312	4308
2672.222	4391
2674.132	4427
2676.042	4407
2677.951	4340
2679.859	4330
2681.766	4361
2683.674	4378
2685.582	4284
2687.488	4357
2689.392	4370
2691.298	4417
2693.202	4283
2695.107	4352
2697.012	4384
2698.914	4324
2700.817	4343
2702.72	4344
2704.622	4342
2706.524	4343
2708.425	4295
2710.326	4286
2712.225	4312
2714.125	4318
2716.024	4238
2717.923	4334
2719.822	4248
2721.719	4286
2723.616	4218
2725.512	4302
2727.41	4345
2729.305	4319
2731.201	4213
2733.095	4342
2734.99	4238
2736.884	4289
2738.778	4304
2740.67	4294
2742.562	4232
2744.455	4367
2746.346	4228
2748.238	4278
2750.129	4212
2752.018	4310
2753.907	4263
2755.797	4397
2757.687	4233
2759.575	4182
2761.462	4351
2763.349	4249
2765.237	4293
2767.124	4308
2769.009	4273
2770.894	4205
2772.779	4201
2774.663	4252
2776.547	4302
2778.431	4266
2780.314	4257
2782.197	4232
2784.078	4247
2785.96	4213
2787.842	4224
2789.723	4349
2791.603	4259
2793.483	4272
2795.362	4220
2797.241	4260
2799.121	4228
2800.997	4249
2802.874	4263
2804.751	4243
2806.628	4176
2808.506	4291
2810.38	4206
2812.255	4279
2814.13	4179
2816.003	4202
2817.878	4240
2819.752	4279
2821.623	4158
2823.496	4239
2825.368	4128
2827.238	4235
2829.111	4234
2830.98	4198
2832.851	4217
2834.719	4240
2836.589	4256
2838.458	4271
2840.327	4219
2842.193	4291
2844.061	4300
2845.927	4222
2847.794	4198
2849.66	4311
2851.525	4386
2853.39	4270
2855.254	4267
2857.117	4322
2858.983	4336
2860.845	4255
2862.707	4266
2864.569	4401
2866.431	4406
2868.293	4389
2870.154	4343
2872.013	4465
2873.873	4461
2875.733	4417
2877.592	4522
2879.451	4455
2881.309	4547
2883.166	4508
2885.022	4617
2886.879	4614
2888.736	4582
2890.591	4545
2892.446	4628
2894.301	4605
2896.155	4625
2898.009	4656
2899.863	4744
2901.716	4633
2903.568	4616
2905.419	4557
2907.27	4602
2909.123	4615
2910.973	4658
2912.824	4581
2914.673	4677
2916.521	4647
2918.372	4619
2920.22	4716
2922.067	4769
2923.914	4751
2925.761	4777
2927.607	4825
2929.455	4883
2931.301	4822
2933.144	4834
2934.99	4891
2936.833	5003
2938.678	4979
2940.522	5004
2942.364	5053
2944.207	5114
2946.048	5145
2947.891	5121
2949.731	5066
2951.571	5116
2953.412	5189
2955.25	5141
2957.09	5117
2958.93	5069
2960.767	4966
2962.606	4872
2964.443	4910
2966.279	4981
2968.116	4858
2969.953	4778
2971.788	4825
2973.623	4669
2975.457	4776
2977.292	4602
2979.127	4660
2980.959	4676
2982.792	4537
2984.624	4556
2986.455	4534
2988.288	4608
2990.119	4468
2991.949	4531
2993.779	4454
2995.608	4476
2997.439	4424
2999.268	4366
3001.096	4421
3002.923	4375
3004.751	4267
3006.578	4275
3008.406	4366
3010.232	4142
3012.057	4276
3013.883	4226
3015.706	4162
3017.532	4237
3019.356	4192
3021.179	4156
3023.002	4145
3024.823	4152
3026.646	4106
3028.469	4105
3030.289	4011
3032.11	4044
3033.93	3977
3035.749	4059
3037.57	4054
3039.39	4096
3041.207	3950
3043.026	4071
3044.842	3968
3046.661	3977
3048.477	4055
3050.294	4033
3052.109	4012
3053.925	4008
3055.739	4036
3057.555	4165
3059.368	3892
3061.181	3971
3062.995	4019
3064.807	4003
3066.62	4054
3068.433	4055
3070.243	3962
3072.054	3976
3073.865	4016
3075.675	3972
3077.485	3957
3079.293	3963
3081.102	4004
3082.911	3931
3084.719	3983
3086.527	3949
3088.333	3910
3090.139	3971
3091.945	3946
3093.75	3958
3095.557	3949
3097.361	3908
3099.165	3893
3100.969	3877
3102.772	3906
3104.575	3911
3106.379	3825
3108.181	3889
3109.982	3925
3111.783	3846
3113.584	3843
3115.386	3861
3117.186	3772
3118.985	3857
3120.783	3879
3122.582	3855
3124.381	3776
3126.179	3798
3127.975	3876
3129.772	3865
3131.569	3852
3133.365	3825
3135.161	3813
3136.956	3873
3138.751	3758
3140.544	3768
3142.338	3916
3144.132	3802
3145.925	3827
3147.717	3812
3149.509	3757
3151.301	3833
3153.091	3758
3154.884	3816
3156.673	3793
3158.462	3763
3160.252	3814
3162.041	3747
3163.831	3770
3165.618	3793
3167.405	3809
3169.193	3793
3170.979	3888
3172.767	3754
3174.553	3785
3176.338	3769
3178.123	3783
3179.907	3832
3181.692	3760
3183.477	3708
3185.259	3769
3187.042	3774
3188.824	3787
3190.607	3767
3192.389	3771
3194.17	3764
3195.951	3762
3197.73	3786
3199.51	3816
3201.289	3855
3203.07	3770
3204.848	3766
3206.626	3756
3208.403	3725
3210.18	3691
3211.959	3787
3213.735	3786
3215.511	3721
3217.285	3736
3219.06	3812
3220.836	3698
3222.611	3713
3224.384	3773
3226.158	3787
3227.929	3740
3229.702	3774
3231.476	3736
3233.248	3741
3235.018	3769
3236.789	3772
3238.56	3747
3240.33	3656
3242.1	3767
3243.869	3758
3245.637	3729
3247.405	3680
3249.172	3741
3250.941	3648
3252.707	3783
3254.474	3730
3256.24	3749
3258.006	3747
3259.772	3757
3261.537	3676
3263.301	3682
3265.065	3765
3266.828	3764
3268.592	3795
3270.355	3690
3272.117	3678
3273.878	3754
3275.64	3747
3277.401	3712
3279.162	3780
3280.922	3727
3282.682	3726
3284.441	3790
3286.199	3829
3287.959	3698
3289.716	3766
3291.475	3687
3293.232	3739
3294.988	3811
3296.744	3646
3298.501	3687
3300.256	3711
3302.011	3746
3303.766	3683
3305.52	3820
3307.275	3791
3309.028	3810
3310.781	3802
3312.533	3701
3314.285	3656
3316.038	3693
3317.789	3749
3319.54	3646
3321.289	3673
3323.039	3638
3324.789	3734
3326.539	3693
3328.288	3665
3330.035	3635
3331.783	3710
3333.531	3716
3335.28	3656
3337.025	3637
3338.771	3694
3340.518	3780
3342.262	3665
3344.009	3703
3345.753	3652
3347.497	3727
3349.24	3701
3350.983	3621
3352.726	3757
3354.469	3704
3356.212	3612
3357.952	3701
3359.694	3704
3361.434	3713
3363.176	3635
3364.916	3690
3366.654	3628
3368.394	3600
3370.132	3677
3371.871	3525
3373.61	3639
3375.346	3646
3377.083	3544
3378.82	3707
3380.556	3608
3382.292	3608
3384.027	3668
3385.763	3635
3387.497	3597
3389.231	3560
3390.965	3659
3392.698	3533
3394.431	3589
3396.164	3538
3397.896	3614
3399.627	3540
3401.36	3554
3403.09	3592
3404.82	3593
3406.55	3560
3408.279	3559
3410.01	3578
3411.738	3550
3413.467	3561
3415.194	3501
3416.92	3538
3418.647	3533
3420.375	3479
3422.102	3512
3423.827	3510
3425.553	3536
3427.277	3582
3429.003	3546
3430.727	3516
3432.451	3468
3434.173	3538
3435.896	3498
3437.62	3532
3439.343	3484
3441.063	3556
3442.785	3489
3444.505	3504
3446.226	3462
3447.948	3454
3449.666	3480
3451.386	3474
3453.104	3459
3454.823	3509
3456.541	3415
3458.259	3448
3459.976	3523
3461.693	3448
3463.408	3380
3465.125	3434
3466.841	3402
3468.556	3397
3470.271	3308
3471.985	3370
3473.698	3407
3475.414	3371
3477.126	3391
3478.838	3348
3480.55	3439
3482.263	3358
3483.975	3370
3485.686	3393
3487.396	3346
3489.106	3392
3490.817	3415
3492.526	3370
3494.236	3388
3495.944	3364
3497.652	3329
3499.359	3298
3501.066	3341
3502.775	3385
3504.481	3308
3506.187	3308
3507.893	3372
3509.598	3301
3511.304	3272
3513.009	3353
3514.713	3323
3516.417	3185
3518.12	3295
3519.821	3260
3521.525	3259
3523.228	3268
3524.929	3330
3526.631	3204
3528.33	3316
3530.032	3262
3531.733	3300
3533.433	3351
3535.131	3265
3536.83	3192
3538.529	3261
3540.227	3282
3541.925	3225
3543.623	3234
3545.319	3262
3547.016	3227
3548.712	3286
3550.408	3244
3552.103	3228
3553.798	3264
3555.491	3263
3557.188	3169
3558.88	3242
3560.574	3269
3562.266	3241
3563.959	3196
3565.651	3113
3567.343	3241
3569.035	3204
3570.725	3257
3572.415	3194
3574.106	3205
3575.797	3143
3577.485	3193
3579.174	3224
3580.863	3190
3582.551	3187
3584.238	3127
3585.926	3207
3587.613	3178
3589.3	3160
3590.986	3158
3592.671	3203
3594.357	3200
3596.042	3164
3597.726	3134
3599.41	3132
3601.094	3116
3602.778	3130
3604.461	3125
3606.143	3102
3607.825	3120
3609.507	3127
3611.188	3049
3612.87	3097
3614.551	3070
3616.229	3061
3617.909	3080
3619.589	3088
3621.269	3152
3622.948	2983
3624.625	3005
3626.302	3036
3627.98	3068
3629.657	3027
3631.334	3003
3633.01	3038
3634.686	3022
3636.361	3123
3638.036	3065
3639.712	3047
3641.385	3009
3643.06	2987
3644.732	2996
3646.405	3025
3648.08	3038
3649.751	3011
3651.424	2946
3653.094	2981
3654.766	2980
3656.436	2940
3658.106	2967
3659.777	2952
3661.446	2980
3663.115	3036
3664.783	2996
3666.452	3006
3668.121	2970
3669.788	3071
3671.454	2958
3673.121	3013
3674.789	2976
3676.455	2974
3678.12	2917
3679.784	2998
3681.45	2952
3683.114	2933
3684.779	2966
3686.442	2938
3688.105	2926
3689.768	2896
3691.43	2927
3693.093	2898
3694.754	2982
3696.415	2928
3698.076	2888
3699.736	2925
3701.396	2944
3703.057	2850
3704.716	2902
3706.375	2883
3708.034	2976
3709.692	2877
3711.351	2877
3713.008	2894
3714.665	2914
3716.321	2952
3717.977	2838
3719.634	2924
3721.29	2856
3722.945	2926
3724.598	2896
3726.253	2862
3727.907	2865
3729.561	2929
3731.214	2862
3732.867	2820
3734.518	2805
3736.171	2831
3737.824	2853
3739.474	2876
3741.125	2811
3742.775	2868
3744.425	2864
3746.074	2855
3747.725	2865
3749.373	2841
3751.022	2844
3752.669	2850
3754.318	2787
3755.966	2879
3757.612	2843
3759.259	2786
3760.905	2866
3762.55	2763
3764.197	2850
3765.842	2915
3767.486	2780
3769.131	2879
3770.774	2735
3772.417	2781
3774.061	2840
3775.705	2830
3777.347	2842
3778.988	2753
3780.629	2721
3782.271	2744
3783.912	2792
3785.552	2840
3787.192	2804
3788.831	2794
3790.472	2772
3792.112	2754
3793.75	2796
3795.388	2777
3797.024	2725
3798.661	2706
3800.3	2754
3801.936	2720
3803.572	2785
3805.208	2743
3806.844	2692
3808.48	2801
3810.115	2756
3811.748	2826
3813.382	2770
3815.016	2726
3816.649	2761
3818.283	2737
3819.914	2732
3821.547	2702
3823.178	2709
3824.809	2724
3826.441	2746
3828.072	2736
3829.701	2719
3831.331	2689
3832.96	2728
3834.591	2700
3836.219	2672
3837.847	2675
3839.475	2763
3841.102	2716
3842.729	2719
3844.357	2753
3845.984	2670
3847.609	2675
3849.234	2648
3850.86	2705
3852.485	2665
3854.11	2662
3855.734	2650
3857.357	2690
3858.981	2738
3860.603	2721
3862.227	2678
3863.848	2694
3865.471	2688
3867.092	2610
3868.713	2684
3870.334	2656
3871.954	2623
3873.575	2635
3875.194	2641
3876.813	2629
3878.433	2628
3880.051	2657
3881.669	2679
3883.286	2638
3884.904	2683
3886.52	2687
3888.138	2608
3889.754	2630
3891.37	2675
3892.985	2634
3894.6	2678
3896.216	2585
3897.831	2633
3899.444	2652
3901.058	2674
3902.67	2672
3904.283	2583
3905.897	2635
3907.509	2587
3909.121	2597
3910.731	2553
3912.342	2555
3913.954	2630
3915.563	2634
3917.174	2589
3918.783	2591
3920.391	2612
3922.002	2634
3923.611	2601
3925.218	2561
3926.826	2550
3928.432	2618
3930.039	2576
3931.647	2590
3933.253	2568
3934.859	2615
3936.464	2609
3938.068	2573
3939.675	2558
3941.278	2561
3942.883	2537
3944.486	2588
3946.089	2561
3947.692	2522
3949.295	2564
3950.898	2575
3952.499	2571
3954.1	2562
3955.7	2630
3957.303	2521
3958.903	2588
3960.502	2595
3962.101	2614
3963.7	2636
3965.301	2490
3966.899	2552
3968.497	2531
3970.094	2494
3971.691	2611
3973.288	2597
3974.885	2488
3976.481	2550
3978.077	2568
3979.672	2571
3981.267	2508
3982.863	2478
3984.457	2543
3986.051	2526
3987.645	2509
3989.238	2519
3990.831	2487
3992.425	2511
3994.017	2429
3995.607	2463
3997.199	2483
3998.79	2497
4000.382	2534
4001.973	2543
4003.561	2494
4005.151	2481
4006.741	2486
4008.331	2506
4009.918	2454
4011.507	2517
4013.095	2377
4014.681	2507
4016.269	2423
4017.856	2420
4019.443	2500
4021.028	2490
4022.614	2436
4024.199	2449
4025.785	2404
4027.37	2408
4028.953	2440
4030.536	2375
4032.12	2466
4033.704	2434
4035.287	2410
4036.869	2382
4038.45	2488
4040.032	2338
4041.613	2367
4043.195	2417
4044.776	2462
4046.356	2363
4047.935	2382
4049.515	2428
4051.095	2401
4052.674	2466
4054.251	2443
4055.829	2372
4057.406	2355
4058.985	2341
4060.562	2415
4062.139	2366
4063.715	2410
4065.29	2436
4066.865	2363
4068.442	2392
4070.016	2371
4071.59	2404
4073.164	2360
4074.738	2379
4076.312	2411
4077.885	2415
4079.458	2366
4081.03	2365
4082.602	2360
4084.173	2388
4085.745	2382
4087.315	2364
4088.886	2377
4090.456	2346
4092.026	2303
4093.596	2319
4095.165	2356
4096.734	2294
4098.301	2364
4099.869	2356
4101.437	2402
4103.006	2321
4104.572	2335
4106.139	2400
4107.704	2331
4109.27	2336
4110.837	2296
4112.401	2311
4113.966	2317
4115.53	2335
4117.094	2240
4118.659	2281
4120.223	2319
4121.785	2306
4123.347	2336
4124.909	2317
4126.471	2251
4128.034	2311
4129.595	2280
4131.155	2290
4132.716	2310
4134.275	2315
4135.836	2301
4137.395	2291
4138.955	2226
4140.513	2270
4142.071	2289
4143.628	2267
4145.188	2267
4146.745	2205
4148.302	2249
4149.858	2220
4151.414	2257
4152.971	2317
4154.526	2309
4156.081	2292
4157.635	2250
4159.189	2237
4160.745	2272
4162.298	2284
4163.852	2252
4165.405	2229
4166.957	2157
4168.51	2258
4170.063	2215
4171.614	2250
4173.166	2213
4174.717	2213
4176.267	2199
4177.817	2183
4179.368	2243
4180.917	2224
4182.466	2173
4184.016	2197
4185.564	2207
4187.112	2170
4188.66	2220
4190.207	2217
4191.754	2144
4193.301	2152
4194.848	2116
4196.394	2213
4197.94	2165
4199.484	2186
4201.03	2206
4202.575	2219
4204.12	2181
4205.663	2187
4207.207	2137
4208.75	2163
4210.292	2100
4211.836	2216
4213.378	2140
4214.92	2140
4216.46	2188
4218.002	2167
4219.544	2156
4221.083	2124
4222.625	2155
4224.164	2139
4225.703	2155
4227.244	2119
4228.782	2164
4230.32	2187
4231.857	2169
4233.395	2113
4234.933	2206
4236.471	2137
4238.007	2131
4239.542	2168
4241.078	2122
4242.614	2181
4244.15	2155
4245.685	2155
4247.219	2204
4248.753	2108
4250.287	2139
4251.82	2160
4253.354	2071
4254.887	2082
4256.419	2027
4257.951	2133
4259.483	2150
4261.016	2061
4262.547	2156
4264.078	2128
4265.608	2046
4267.137	2109
4268.668	2044
4270.197	2135
4271.727	2081
4273.254	2109
4274.783	2086
4276.311	2092
4277.84	2111
4279.366	2092
4280.894	2148
4282.42	2099
4283.946	2152
4285.473	2051
4286.998	2075
4288.523	2090
4290.047	2039
4291.572	2038
4293.096	2127
4294.622	2030
4296.144	2000
4297.668	2007
4299.19	2055
4300.713	2102
4302.236	2016
4303.758	2052
4305.279	2051
4306.799	2084
4308.321	2047
4309.842	2064
4311.361	2018
4312.882	2094
4314.401	2059
