400.0961	2486
402.6185	2416
405.1424	2478
407.6635	2432
410.1838	2518
412.7035	2459
415.2225	2465
417.7388	2503
420.2585	2545
422.7754	2575
425.2917	2642
427.8072	2671
430.3221	2648
432.8363	2725
435.3498	2658
437.8626	2705
440.3727	2648
442.8841	2643
445.3969	2709
447.907	2618
450.4142	2610
452.9229	2639
455.4289	2661
457.9362	2626
460.4449	2575
462.9488	2530
465.454	2558
467.9566	2598
470.4604	2611
472.9637	2545
475.4662	2621
477.966	2534
480.4671	2543
482.9656	2583
485.4633	2626
487.9645	2527
490.4608	2574
492.9566	2604
495.4536	2560
497.948	2552
500.4437	2581
502.9387	2529
505.431	2591
507.9226	2563
510.4136	2675
512.9079	2613
515.3975	2604
517.8864	2590
520.3746	2631
522.8622	2626
525.3491	2620
527.8394	2654
530.3249	2691
532.8098	2607
535.2939	2669
537.7774	2629
540.2623	2648
542.7444	2684
545.2259	2711
547.7067	2631
550.1868	2660
552.6683	2659
555.147	2664
557.6231	2687
560.1005	2683
562.5773	2687
565.0534	2717
567.5308	2667
570.0056	2735
572.4776	2745
574.951	2770
577.4237	2776
579.8978	2823
582.3671	2884
584.8378	2802
587.3079	2836
589.7773	2827
592.244	2784
594.714	2817
597.1793	2773
599.6461	2786
602.1121	2790
604.5754	2770
607.0421	2717
609.5042	2701
611.9675	2763
614.4282	2695
616.8902	2768
619.3515	2773
621.8122	2661
624.2702	2690
626.7296	2685
629.1863	2667
631.6423	2661
634.1017	2585
636.5563	2640
639.0104	2675
641.4658	2718
643.9185	2679
646.3725	2699
648.8239	2703
651.2766	2697
653.7266	2725
656.176	2669
658.6247	2675
661.0748	2676
663.5242	2690
665.9709	2701
668.417	2742
670.8624	2760
673.3092	2780
675.7533	2698
678.1968	2776
680.6395	2712
683.0817	2765
685.5251	2730
687.9659	2805
690.4061	2746
692.8456	2734
695.2844	2764
697.7226	2794
700.1621	2773
702.599	2750
705.0332	2745
707.4688	2802
709.9036	2810
712.3399	2822
714.7735	2820
717.2044	2782
719.6367	2883
722.0683	2881
724.4993	2825
726.9296	2787
729.3593	2844
731.7883	2845
734.2147	2813
736.6423	2947
739.0714	2916
741.4958	2897
743.9216	2914
746.3447	2898
748.7691	2937
751.1929	2902
753.616	2938
756.0366	2980
758.4584	2985
760.8776	3000
763.2982	2960
765.718	2975
768.1373	2956
770.5539	2967
772.9698	2988
775.3871	2932
777.8038	3004
780.2178	2928
782.6332	2915
785.0459	2881
787.458	2978
789.8714	2956
792.2842	2886
794.6943	2980
797.1038	2889
799.5127	2921
801.9209	2971
804.3324	3008
806.7393	3010
809.1456	2944
811.5513	2971
813.9562	2984
816.3625	3003
818.7663	2975
821.1693	3024
823.5718	2990
825.9735	2950
828.3746	3009
830.7771	3032
833.177	2974
835.5762	3084
837.9747	3039
840.3727	3034
842.772	2965
845.1666	3101
847.5626	3122
849.958	3152
852.3527	3137
854.7488	3115
857.1403	3096
859.5331	3109
861.9253	3180
864.3168	3157
866.7057	3150
869.098	3152
871.4876	3176
873.8746	3111
876.263	3143
878.6487	3113
881.0378	3128
883.4243	3144
885.8081	3080
888.1933	3091
890.5759	3088
892.9598	3124
895.343	3103
897.7256	3083
900.1057	3030
902.4871	3154
904.8659	3157
907.246	3130
909.6254	3099
912.0023	3181
914.3786	3176
916.7562	3256
919.1331	3378
921.5074	3291
923.8831	3362
926.2562	3353
928.6287	3322
931.0005	3351
933.3757	3368
935.7462	3436
938.1162	3300
940.4855	3414
942.8542	3522
945.2242	3587
947.5916	3669
949.9584	3879
952.3266	3979
954.6921	4339
957.0571	4542
959.4233	4738
961.787	4787
964.15	4765
966.5125	4537
968.8742	4261
971.2354	3981
973.5959	3708
975.9559	3583
978.3151	3466
980.6738	3354
983.0338	3337
985.3912	3326
987.7461	3246
990.1022	3227
992.4578	3217
994.8127	3209
997.1689	3247
999.5207	3258
1001.874	3316
1004.226	3250
1006.576	3286
1008.929	3292
1011.28	3296
1013.628	3286
1015.977	3232
1018.324	3209
1020.674	3308
1023.019	3322
1025.366	3332
1027.713	3312
1030.056	3335
1032.399	3373
1034.746	3333
1037.087	3312
1039.431	3328
1041.771	3265
1044.113	3369
1046.454	3303
1048.793	3296
1051.133	3348
1053.471	3284
1055.807	3360
1058.146	3308
1060.483	3365
1062.818	3372
1065.153	3418
1067.489	3465
1069.822	3380
1072.156	3513
1074.488	3455
1076.82	3439
1079.15	3461
1081.48	3319
1083.814	3377
1086.143	3383
1088.471	3349
1090.799	3326
1093.126	3355
1095.452	3298
1097.78	3323
1100.105	3352
1102.43	3290
1104.754	3255
1107.077	3345
1109.4	3327
1111.722	3281
1114.044	3262
1116.365	3270
1118.685	3268
1121.005	3383
1123.324	3301
1125.643	3305
1127.961	3343
1130.278	3411
1132.595	3263
1134.911	3234
1137.226	3294
1139.541	3311
1141.854	3270
1144.167	3315
1146.482	3250
1148.793	3253
1151.105	3288
1153.414	3279
1155.725	3250
1158.033	3221
1160.344	3335
1162.651	3283
1164.959	3344
1167.265	3320
1169.572	3267
1171.878	3331
1174.184	3294
1176.488	3312
1178.79	3341
1181.094	3308
1183.396	3304
1185.699	3336
1188.001	3308
1190.301	3314
1192.6	3341
1194.9	3250
1197.2	3291
1199.497	3319
1201.794	3275
1204.09	3299
1206.387	3356
1208.684	3272
1210.978	3279
1213.272	3304
1215.565	3319
1217.858	3366
1220.15	3388
1222.443	3313
1224.734	3286
1227.024	3399
1229.313	3385
1231.602	3406
1233.892	3332
1236.18	3473
1238.467	3492
1240.754	3400
1243.04	3451
1245.325	3531
1247.612	3535
1249.896	3473
1252.178	3571
1254.461	3475
1256.743	3440
1259.027	3502
1261.308	3582
1263.587	3485
1265.867	3521
1268.146	3518
1270.425	3535
1272.703	3449
1274.981	3544
1277.256	3478
1279.532	3425
1281.808	3465
1284.083	3404
1286.358	3469
1288.63	3389
1290.904	3415
1293.175	3470
1295.449	3464
1297.719	3365
1299.99	3370
1302.259	3333
1304.529	3359
1306.798	3398
1309.065	3436
1311.333	3333
1313.599	3410
1315.866	3377
1318.131	3444
1320.396	3388
1322.66	3390
1324.925	3413
1327.187	3318
1329.448	3441
1331.711	3311
1333.974	3410
1336.234	3359
1338.493	3409
1340.752	3399
1343.01	3417
1345.269	3351
1347.526	3452
1349.784	3408
1352.04	3342
1354.295	3440
1356.552	3409
1358.806	3382
1361.059	3286
1363.312	3405
1365.564	3371
1367.818	3467
1370.069	3424
1372.318	3381
1374.568	3424
1376.817	3418
1379.066	3455
1381.316	3511
1383.564	3417
1385.809	3440
1388.056	3459
1390.301	3530
1392.549	3517
1394.793	3528
1397.036	3506
1399.279	3605
1401.522	3569
1403.763	3588
1406.007	3600
1408.248	3547
1410.487	3563
1412.727	3572
1414.965	3560
1417.205	3576
1419.442	3567
1421.68	3650
1423.915	3536
1426.152	3553
1428.388	3585
1430.623	3560
1432.857	3604
1435.091	3556
1437.323	3576
1439.556	3654
1441.789	3599
1444.019	3651
1446.25	3617
1448.48	3676
1450.708	3684
1452.938	3706
1455.167	3670
1457.394	3695
1459.62	3671
1461.846	3631
1464.073	3687
1466.299	3601
1468.523	3504
1470.746	3564
1472.969	3643
1475.191	3592
1477.415	3485
1479.636	3541
1481.858	3456
1484.078	3432
1486.298	3433
1488.518	3455
1490.736	3459
1492.954	3401
1495.169	3428
1497.386	3380
1499.602	3322
1501.819	3392
1504.034	3347
1506.248	3368
1508.462	3423
1510.675	3368
1512.888	3359
1515.1	3371
1517.311	3337
1519.522	3370
1521.732	3331
1523.942	3364
1526.151	3389
1528.36	3318
1530.566	3463
1532.773	3334
1534.98	3386
1537.187	3436
1539.392	3401
1541.596	3447
1543.801	3409
1546.005	3372
1548.208	3452
1550.411	3447
1552.612	3462
1554.814	3374
1557.013	3376
1559.212	3399
1561.414	3420
1563.612	3378
1565.811	3483
1568.007	3490
1570.203	3442
1572.403	3444
1574.598	3574
1576.792	3512
1578.988	3520
1581.181	3482
1583.376	3508
1585.568	3493
1587.761	3451
1589.952	3577
1592.143	3436
1594.333	3537
1596.524	3569
1598.715	3467
1600.903	3532
1603.091	3448
1605.278	3489
1607.466	3478
1609.652	3557
1611.838	3518
1614.023	3548
1616.207	3442
1618.391	3614
1620.576	3563
1622.759	3578
1624.941	3604
1627.123	3547
1629.304	3500
1631.484	3579
1633.664	3626
1635.844	3615
1638.022	3604
1640.201	3691
1642.38	3637
1644.556	3636
1646.732	3656
1648.908	3622
1651.084	3619
1653.257	3584
1655.433	3659
1657.607	3659
1659.779	3662
1661.951	3726
1664.122	3723
1666.295	3694
1668.467	3729
1670.635	3711
1672.805	3742
1674.973	3672
1677.142	3748
1679.31	3713
1681.478	3574
1683.644	3660
1685.81	3670
1687.975	3717
1690.142	3594
1692.305	3615
1694.468	3616
1696.632	3548
1698.794	3525
1700.957	3593
1703.119	3565
1705.279	3542
1707.439	3502
1709.598	3516
1711.758	3551
1713.917	3497
1716.075	3480
1718.231	3507
1720.388	3490
1722.543	3429
1724.702	3440
1726.856	3468
1729.01	3443
1731.164	3430
1733.317	3462
1735.471	3446
1737.623	3536
1739.774	3485
1741.925	3465
1744.075	3496
1746.225	3494
1748.376	3477
1750.524	3494
1752.672	3473
1754.82	3533
1756.965	3579
1759.113	3491
1761.259	3477
1763.405	3540
1765.549	3503
1767.694	3508
1769.836	3566
1771.981	3464
1774.123	3561
1776.264	3492
1778.405	3523
1780.546	3580
1782.687	3529
1784.827	3524
1786.966	3524
1789.103	3515
1791.242	3405
1793.381	3532
1795.517	3530
1797.653	3541
1799.788	3551
1801.923	3584
1804.057	3553
1806.193	3544
1808.326	3488
1810.457	3486
1812.59	3493
1814.721	3477
1816.855	3549
1818.984	3540
1821.113	3564
1823.244	3521
1825.372	3463
1827.499	3527
1829.63	3535
1831.756	3537
1833.882	3524
1836.007	3519
1838.132	3429
1840.26	3490
1842.384	3458
1844.507	3516
1846.63	3616
1848.752	3499
1850.875	3501
1852.996	3537
1855.118	3527
1857.238	3548
1859.358	3549
1861.477	3586
1863.597	3486
1865.715	3551
1867.832	3509
1869.948	3470
1872.064	3453
1874.181	3521
1876.297	3531
1878.411	3494
1880.526	3546
1882.639	3438
1884.752	3501
1886.865	3493
1888.977	3529
1891.089	3524
1893.2	3475
1895.308	3509
1897.42	3557
1899.53	3454
1901.639	3559
1903.745	3583
1905.853	3573
1907.962	3561
1910.067	3521
1912.174	3489
1914.278	3548
1916.383	3564
1918.486	3562
1920.592	3596
1922.694	3534
1924.797	3533
1926.898	3616
1929	3521
1931.102	3538
1933.203	3623
1935.301	3515
1937.401	3500
1939.499	3617
1941.598	3574
1943.697	3540
1945.793	3613
1947.888	3601
1949.985	3539
1952.08	3565
1954.176	3571
1956.269	3617
1958.364	3577
1960.457	3587
1962.549	3567
1964.642	3602
1966.733	3579
1968.823	3554
1970.913	3634
1973.005	3525
1975.093	3532
1977.184	3540
1979.271	3590
1981.359	3582
1983.446	3507
1985.532	3545
1987.619	3531
1989.705	3599
1991.789	3588
1993.874	3517
1995.956	3558
1998.041	3586
2000.123	3637
2002.206	3520
2004.287	3524
2006.368	3525
2008.449	3589
2010.529	3529
2012.609	3559
2014.688	3510
2016.766	3532
2018.843	3501
2020.922	3597
2022.999	3545
2025.074	3604
2027.15	3475
2029.225	3565
2031.299	3507
2033.375	3529
2035.447	3566
2037.52	3579
2039.592	3496
2041.664	3566
2043.736	3569
2045.807	3528
2047.876	3581
2049.947	3530
2052.015	3539
2054.086	3528
2056.153	3558
2058.221	3497
2060.288	3543
2062.353	3637
2064.42	3513
2066.486	3572
2068.55	3592
2070.614	3558
2072.678	3511
2074.741	3596
2076.805	3519
2078.866	3613
2080.929	3519
2082.99	3548
2085.049	3524
2087.109	3484
2089.17	3587
2091.228	3546
2093.286	3481
2095.344	3534
2097.4	3568
2099.46	3607
2101.516	3633
2103.572	3641
2105.626	3539
2107.679	3543
2109.735	3551
2111.788	3619
2113.841	3581
2115.894	3576
2117.945	3547
2119.997	3573
2122.049	3558
2124.1	3551
2126.148	3561
2128.197	3524
2130.246	3600
2132.296	3611
2134.342	3568
2136.39	3479
2138.437	3604
2140.483	3520
2142.527	3578
2144.574	3566
2146.619	3495
2148.661	3471
2150.705	3487
2152.747	3499
2154.792	3506
2156.832	3554
2158.874	3538
2160.915	3556
2162.954	3468
2164.995	3540
2167.034	3609
2169.072	3589
2171.111	3515
2173.148	3556
2175.186	3518
2177.223	3533
2179.258	3482
2181.294	3513
2183.328	3507
2185.362	3561
2187.398	3547
2189.431	3549
2191.463	3610
2193.495	3491
2195.528	3516
2197.56	3472
2199.59	3445
2201.62	3544
2203.649	3485
2205.678	3551
2207.708	3511
2209.737	3464
2211.764	3480
2213.791	3521
2215.817	3488
2217.843	3552
2219.87	3526
2221.895	3487
2223.919	3403
2225.942	3482
2227.966	3477
2229.988	3452
2232.012	3462
2234.032	3481
2236.054	3484
2238.074	3463
2240.095	3530
2242.116	3548
2244.135	3518
2246.153	3511
2248.171	3503
2250.188	3502
2252.208	3471
2254.223	3559
2256.239	3529
2258.255	3472
2260.269	3480
2262.283	3422
2264.3	3434
2266.312	3431
2268.325	3544
2270.336	3495
2272.349	3501
2274.362	3492
2276.372	3488
2278.383	3488
2280.392	3487
2282.402	3419
2284.409	3470
2286.418	3487
2288.427	3507
2290.433	3433
2292.441	3368
2294.446	3527
2296.453	3486
2298.459	3608
2300.463	3447
2302.466	3520
2304.471	3447
2306.475	3522
2308.477	3423
2310.478	3529
2312.481	3508
2314.481	3495
2316.481	3508
2318.482	3421
2320.482	3497
2322.48	3494
2324.48	3531
2326.478	3458
2328.476	3426
2330.473	3466
2332.469	3462
2334.465	3460
2336.46	3432
2338.454	3424
2340.45	3395
2342.444	3458
2344.437	3454
2346.43	3467
2348.421	3443
2350.414	3426
2352.405	3557
2354.396	3459
2356.386	3510
2358.376	3409
2360.366	3480
2362.355	3469
2364.343	3453
2366.331	3452
2368.317	3446
2370.304	3434
2372.292	3490
2374.278	3502
2376.262	3368
2378.247	3420
2380.23	3507
2382.216	3490
2384.199	3354
2386.181	3430
2388.163	3460
2390.144	3446
2392.127	3362
2394.107	3312
2396.087	3489
2398.066	3399
2400.046	3447
2402.023	3410
2404.004	3381
2405.981	3413
2407.957	3495
2409.934	3407
2411.91	3475
2413.886	3429
2415.862	3349
2417.836	3434
2419.809	3347
2421.784	3441
2423.756	3372
2425.73	3389
2427.701	3413
2429.672	3312
2431.644	3385
2433.615	3356
2435.586	3374
2437.555	3396
2439.523	3454
2441.491	3428
2443.459	3328
2445.428	3302
2447.395	3287
2449.361	3417
2451.327	3393
2453.292	3385
2455.257	3362
2457.223	3421
2459.187	3372
2461.15	3383
2463.113	3347
2465.076	3385
2467.039	3391
2468.999	3406
2470.96	3356
2472.921	3360
2474.881	3398
2476.841	3416
2478.8	3434
2480.759	3431
2482.717	3301
2484.675	3422
2486.63	3253
2488.589	3343
2490.545	3378
2492.5	3345
2494.455	3371
2496.408	3377
2498.364	3381
2500.318	3361
2502.27	3330
2504.223	3338
2506.174	3463
2508.126	3298
2510.078	3309
2512.03	3385
2513.979	3346
2515.927	3350
2517.877	3327
2519.826	3418
2521.775	3374
2523.722	3402
2525.668	3347
2527.616	3276
2529.561	3315
2531.508	3344
2533.452	3383
2535.398	3388
2537.342	3343
2539.284	3227
2541.229	3428
2543.173	3375
2545.114	3341
2547.055	3342
2548.996	3309
2550.938	3328
2552.878	3236
2554.817	3322
2556.756	3366
2558.695	3337
2560.633	3370
2562.572	3312
2564.509	3326
2566.445	3393
2568.382	3341
2570.317	3403
2572.254	3366
2574.189	3298
2576.123	3309
2578.057	3376
2579.99	3386
2581.923	3372
2583.855	3418
2585.788	3338
2587.719	3285
2589.65	3368
2591.579	3348
2593.511	3364
2595.44	3397
2597.37	3267
2599.297	3365
2601.225	3271
2603.153	3338
2605.08	3308
2607.007	3391
2608.932	3316
2610.858	3338
2612.782	3426
2614.709	3320
2616.632	3316
2618.556	3390
2620.478	3479
2622.401	3365
2624.324	3381
2626.247	3381
2628.167	3422
2630.088	3367
2632.008	3358
2633.928	3406
2635.848	3403
2637.766	3358
2639.684	3281
2641.603	3346
2643.519	3421
2645.437	3366
2647.353	3426
2649.27	3440
2651.184	3317
2653.099	3348
2655.014	3347
2656.928	3330
2658.842	3331
2660.755	3431
2662.667	3402
2664.579	3260
2666.491	3393
2668.402	3336
2670.312	3350
2672.222	3292
2674.132	3373
2676.042	3314
2677.951	3333
2679.859	3360
2681.766	3292
2683.674	3339
2685.582	3350
2687.488	3400
2689.392	3348
2691.298	3401
2693.202	3308
2695.107	3363
2697.012	3366
2698.914	3369
2700.817	3319
2702.72	3276
2704.622	3326
2706.524	3306
2708.425	3326
2710.326	3287
2712.225	3352
2714.125	3314
2716.024	3309
2717.923	3243
2719.822	3266
2721.719	3343
2723.616	3341
2725.512	3348
2727.41	3307
2729.305	3330
2731.201	3293
2733.095	3323
2734.99	3331
2736.884	3280
2738.778	3258
2740.67	3338
2742.562	3273
2744.455	3268
2746.346	3251
2748.238	3260
2750.129	3346
2752.018	3341
2753.907	3250
2755.797	3299
2757.687	3301
2759.575	3344
2761.462	3294
2763.349	3258
2765.237	3382
2767.124	3339
2769.009	3333
2770.894	3332
2772.779	3265
2774.663	3321
2776.547	3356
2778.431	3281
2780.314	3308
2782.197	3347
2784.078	3336
2785.96	3295
2787.842	3230
2789.723	3299
2791.603	3272
2793.483	3270
2795.362	3294
2797.241	3313
2799.121	3288
2800.997	3259
2802.874	3314
2804.751	3243
2806.628	3246
2808.506	3303
2810.38	3259
2812.255	3340
2814.13	3231
2816.003	3230
2817.878	3280
2819.752	3239
2821.623	3312
2823.496	3291
2825.368	3216
2827.238	3274
2829.111	3361
2830.98	3288
2832.851	3395
2834.719	3327
2836.589	3264
2838.458	3290
2840.327	3334
2842.193	3233
2844.061	3325
2845.927	3307
2847.794	3290
2849.66	3364
2851.525	3373
2853.39	3317
2855.254	3422
2857.117	3347
2858.983	3378
2860.845	3418
2862.707	3400
2864.569	3423
2866.431	3485
2868.293	3521
2870.154	3573
2872.013	3626
2873.873	3567
2875.733	3631
2877.592	3779
2879.451	3761
2881.309	3731
2883.166	3850
2885.022	3915
2886.879	3846
2888.736	3871
2890.591	3878
2892.446	3903
2894.301	3845
2896.155	3954
2898.009	3841
2899.863	3806
2901.716	3843
2903.568	3810
2905.419	3884
2907.27	3803
2909.123	3940
2910.973	3847
2912.824	3996
2914.673	4003
2916.521	4009
2918.372	4001
2920.22	4097
2922.067	4161
2923.914	4162
2925.761	4232
2927.607	4287
2929.455	4391
2931.301	4402
2933.144	4491
2934.99	4510
2936.833	4604
2938.678	4660
2940.522	4621
2942.364	4711
2944.207	4735
2946.048	4799
2947.891	4694
2949.731	4724
2951.571	4780
2953.412	4760
2955.25	4627
2957.09	4590
2958.93	4521
2960.767	4525
2962.606	4409
2964.443	4413
2966.279	4357
2968.116	4383
2969.953	4221
2971.788	4179
2973.623	4157
2975.457	4127
2977.292	4122
2979.127	4129
2980.959	4006
2982.792	4035
2984.624	4047
2986.455	3963
2988.288	3963
2990.119	3928
2991.949	3911
2993.779	3883
2995.608	3839
2997.439	3914
2999.268	3688
3001.096	3699
3002.923	3761
3004.751	3687
3006.578	3647
3008.406	3490
3010.232	3496
3012.057	3505
3013.883	3534
3015.706	3472
3017.532	3375
3019.356	3315
3021.179	3340
3023.002	3325
3024.823	3357
3026.646	3243
3028.469	3298
3030.289	3291
3032.11	3255
3033.93	3261
3035.749	3241
3037.57	3259
3039.39	3191
3041.207	3225
3043.026	3276
3044.842	3203
3046.661	3236
3048.477	3236
3050.294	3275
3052.109	3192
3053.925	3159
3055.739	3184
3057.555	3225
3059.368	3240
3061.181	3242
3062.995	3252
3064.807	3187
3066.62	3194
3068.433	3304
3070.243	3265
3072.054	3113
3073.865	3214
3075.675	3233
3077.485	3221
3079.293	3145
3081.102	3190
3082.911	3178
3084.719	3128
3086.527	3108
3088.333	3139
3090.139	3243
3091.945	3085
3093.75	3158
3095.557	3156
3097.361	3112
3099.165	3089
3100.969	3167
3102.772	3085
3104.575	3118
3106.379	3146
3108.181	3125
3109.982	3181
3111.783	3085
3113.584	3067
3115.386	3109
3117.186	3150
3118.985	3067
3120.783	3146
3122.582	3040
3124.381	3083
3126.179	3078
3127.975	3085
3129.772	3109
3131.569	3087
3133.365	3140
3135.161	3106
3136.956	3027
3138.751	3076
3140.544	3063
3142.338	3055
3144.132	3064
3145.925	3140
3147.717	3103
3149.509	3098
3151.301	3086
3153.091	3119
3154.884	3022
3156.673	3073
3158.462	3019
3160.252	3087
3162.041	2994
3163.831	3093
3165.618	3046
3167.405	3017
3169.193	3046
3170.979	3012
3172.767	3056
3174.553	3065
3176.338	3003
3178.123	3001
3179.907	3114
3181.692	3058
3183.477	3075
3185.259	3030
3187.042	2953
3188.824	3037
3190.607	3034
3192.389	3006
3194.17	2974
3195.951	3072
3197.73	3019
3199.51	3093
3201.289	2999
3203.07	3005
3204.848	3085
3206.626	3102
3208.403	3101
3210.18	3023
3211.959	3066
3213.735	3033
3215.511	3053
3217.285	3031
3219.06	3082
3220.836	3016
3222.611	3101
3224.384	3051
3226.158	3055
3227.929	3032
3229.702	3051
3231.476	3048
3233.248	3032
3235.018	3034
3236.789	3071
3238.56	3051
3240.33	3121
3242.1	3044
3243.869	3086
3245.637	3024
3247.405	3053
3249.172	2992
3250.941	3088
3252.707	3027
3254.474	3020
3256.24	3051
3258.006	3066
3259.772	3113
3261.537	3091
3263.301	3012
3265.065	3045
3266.828	3032
3268.592	3111
3270.355	3122
3272.117	3092
3273.878	3094
3275.64	3155
3277.401	3064
3279.162	3110
3280.922	3144
3282.682	3067
3284.441	3076
3286.199	3099
3287.959	3187
3289.716	3049
3291.475	3085
3293.232	3075
3294.988	3070
3296.744	3067
3298.501	3081
3300.256	3116
3302.011	3194
3303.766	3065
3305.52	3091
3307.275	3091
3309.028	3040
3310.781	3100
3312.533	3158
3314.285	3061
3316.038	3186
3317.789	3040
3319.54	3090
3321.289	3067
3323.039	3080
3324.789	3095
3326.539	3107
3328.288	3065
3330.035	3043
3331.783	3126
3333.531	3114
3335.28	3134
3337.025	3101
3338.771	3121
3340.518	3061
3342.262	3106
3344.009	3057
3345.753	3034
3347.497	3140
3349.24	3033
3350.983	3088
3352.726	3078
3354.469	3084
3356.212	3064
3357.952	3016
3359.694	3042
3361.434	3077
3363.176	3045
3364.916	3097
3366.654	3005
3368.394	3050
3370.132	3106
3371.871	3038
3373.61	3009
3375.346	3039
3377.083	2898
3378.82	3001
3380.556	3119
3382.292	3020
3384.027	3012
3385.763	3002
3387.497	3028
3389.231	3007
3390.965	3022
3392.698	2961
3394.431	2992
3396.164	2983
3397.896	2955
3399.627	2996
3401.36	2986
3403.09	2953
3404.82	2982
3406.55	3065
3408.279	3002
3410.01	2926
3411.738	2960
3413.467	2971
3415.194	2984
3416.92	2965
3418.647	2987
3420.375	2886
3422.102	2945
3423.827	2935
3425.553	3007
3427.277	2969
3429.003	2996
3430.727	2970
3432.451	2976
3434.173	2919
3435.896	2949
3437.62	2940
3439.343	2918
3441.063	2891
3442.785	2925
3444.505	2854
3446.226	2900
3447.948	2860
3449.666	2870
3451.386	2883
3453.104	2915
3454.823	2926
3456.541	2876
3458.259	2910
3459.976	2841
3461.693	2842
3463.408	2861
3465.125	2761
3466.841	2817
3468.556	2860
3470.271	2838
3471.985	2857
3473.698	2840
3475.414	2842
3477.126	2767
3478.838	2809
3480.55	2785
3482.263	2767
3483.975	2787
3485.686	2783
3487.396	2784
3489.106	2869
3490.817	2754
3492.526	2763
3494.236	2775
3495.944	2790
3497.652	2822
3499.359	2734
3501.066	2741
3502.775	2817
3504.481	2748
3506.187	2747
3507.893	2725
3509.598	2739
3511.304	2676
3513.009	2734
3514.713	2716
3516.417	2710
3518.12	2666
3519.821	2735
3521.525	2754
3523.228	2719
3524.929	2728
3526.631	2686
3528.33	2646
3530.032	2687
3531.733	2717
3533.433	2706
3535.131	2693
3536.83	2631
3538.529	2779
3540.227	2640
3541.925	2694
3543.623	2668
3545.319	2614
3547.016	2616
3548.712	2642
3550.408	2591
3552.103	2592
3553.798	2643
3555.491	2633
3557.188	2641
3558.88	2645
3560.574	2647
3562.266	2599
3563.959	2680
3565.651	2629
3567.343	2643
3569.035	2625
3570.725	2638
3572.415	2639
3574.106	2679
3575.797	2580
3577.485	2646
3579.174	2608
3580.863	2556
3582.551	2551
3584.238	2590
3585.926	2591
3587.613	2524
3589.3	2541
3590.986	2524
3592.671	2520
3594.357	2577
3596.042	2571
3597.726	2564
3599.41	2472
3601.094	2475
3602.778	2559
3604.461	2583
3606.143	2509
3607.825	2536
3609.507	2459
3611.188	2537
3612.87	2570
3614.551	2512
3616.229	2451
3617.909	2493
3619.589	2553
3621.269	2502
3622.948	2441
3624.625	2450
3626.302	2445
3627.98	2423
3629.657	2500
3631.334	2411
3633.01	2450
3634.686	2445
3636.361	2412
3638.036	2393
3639.712	2448
3641.385	2409
3643.06	2446
3644.732	2368
3646.405	2482
3648.08	2437
3649.751	2476
3651.424	2454
3653.094	2422
3654.766	2468
3656.436	2403
3658.106	2435
3659.777	2396
3661.446	2361
3663.115	2435
3664.783	2376
3666.452	2305
3668.121	2356
3669.788	2341
3671.454	2322
3673.121	2387
3674.789	2349
3676.455	2309
3678.12	2411
3679.784	2345
3681.45	2352
3683.114	2291
3684.779	2309
3686.442	2306
3688.105	2291
3689.768	2324
3691.43	2382
3693.093	2394
3694.754	2367
3696.415	2350
3698.076	2351
3699.736	2329
3701.396	2361
3703.057	2319
3704.716	2291
3706.375	2331
3708.034	2333
3709.692	2277
3711.351	2318
3713.008	2326
3714.665	2336
3716.321	2307
3717.977	2340
3719.634	2308
3721.29	2332
3722.945	2356
3724.598	2349
3726.253	2309
3727.907	2360
3729.561	2273
3731.214	2290
3732.867	2271
3734.518	2346
3736.171	2269
3737.824	2293
3739.474	2304
3741.125	2272
3742.775	2329
3744.425	2267
3746.074	2273
3747.725	2323
3749.373	2303
3751.022	2337
3752.669	2267
3754.318	2318
3755.966	2291
3757.612	2270
3759.259	2280
3760.905	2303
3762.55	2272
3764.197	2226
3765.842	2235
3767.486	2266
3769.131	2256
3770.774	2260
3772.417	2246
3774.061	2229
3775.705	2256
3777.347	2227
3778.988	2289
3780.629	2263
3782.271	2272
3783.912	2306
3785.552	2251
3787.192	2269
3788.831	2222
3790.472	2256
3792.112	2242
3793.75	2191
3795.388	2166
3797.024	2180
3798.661	2239
3800.3	2171
3801.936	2175
3803.572	2210
3805.208	2200
3806.844	2244
3808.48	2223
3810.115	2177
3811.748	2258
3813.382	2217
3815.016	2223
3816.649	2278
3818.283	2189
3819.914	2144
3821.547	2163
3823.178	2142
3824.809	2223
3826.441	2192
3828.072	2162
3829.701	2221
3831.331	2199
3832.96	2185
3834.591	2126
3836.219	2126
3837.847	2220
3839.475	2154
3841.102	2188
3842.729	2166
3844.357	2225
3845.984	2177
3847.609	2177
3849.234	2175
3850.86	2184
3852.485	2218
3854.11	2178
3855.734	2187
3857.357	2152
3858.981	2130
3860.603	2186
3862.227	2159
3863.848	2165
3865.471	2181
3867.092	2129
3868.713	2144
3870.334	2120
3871.954	2143
3873.575	2154
3875.194	2106
3876.813	2134
3878.433	2115
3880.051	2159
3881.669	2189
3883.286	2144
3884.904	2132
3886.52	2153
3888.138	2132
3889.754	2143
3891.37	2135
3892.985	2124
3894.6	2188
3896.216	2115
3897.831	2100
3899.444	2112
3901.058	2129
3902.67	2051
3904.283	2060
3905.897	2106
3907.509	2132
3909.121	2127
3910.731	2091
3912.342	2144
3913.954	2095
3915.563	2080
3917.174	2093
3918.783	2111
3920.391	2163
3922.002	2111
3923.611	2163
3925.218	2088
3926.826	2116
3928.432	2140
3930.039	2076
3931.647	2117
3933.253	2087
3934.859	2069
3936.464	2134
3938.068	2049
3939.675	2084
3941.278	2028
3942.883	2100
3944.486	2081
3946.089	2110
3947.692	2116
3949.295	2094
3950.898	2090
3952.499	2089
3954.1	2034
3955.7	2065
3957.303	2114
3958.903	1983
3960.502	2078
3962.101	2110
3963.7	2079
3965.301	2124
3966.899	2047
3968.497	2063
3970.094	2066
3971.691	2026
3973.288	2071
3974.885	2047
3976.481	2018
3978.077	2050
3979.672	2012
3981.267	1995
3982.863	2049
3984.457	2046
3986.051	2036
3987.645	2068
3989.238	2032
3990.831	2013
3992.425	1973
3994.017	2019
3995.607	2013
3997.199	2009
3998.79	2018
4000.382	1997
4001.973	2029
4003.561	1977
4005.151	1999
4006.741	1997
4008.331	2004
4009.918	2049
4011.507	2010
4013.095	2031
4014.681	1939
4016.269	1954
4017.856	1938
4019.443	1972
4021.028	1944
4022.614	1946
4024.199	1957
4025.785	2010
4027.37	1984
4028.953	1934
4030.536	1940
4032.12	1991
4033.704	1924
4035.287	1933
4036.869	1952
4038.45	1962
4040.032	1929
4041.613	1980
4043.195	1933
4044.776	2001
4046.356	1980
4047.935	1993
4049.515	1909
4051.095	1973
4052.674	1997
4054.251	1956
4055.829	1913
4057.406	1973
4058.985	1958
4060.562	1938
4062.139	1970
4063.715	1916
4065.29	1928
4066.865	1970
4068.442	1901
4070.016	1960
4071.59	1952
4073.164	1904
4074.738	1913
4076.312	1907
4077.885	1903
4079.458	1944
4081.03	1928
4082.602	1918
4084.173	1921
4085.745	1930
4087.315	1858
4088.886	1910
4090.456	1908
4092.026	1926
4093.596	1916
4095.165	1877
4096.734	1869
4098.301	1925
4099.869	1840
4101.437	1883
4103.006	1921
4104.572	1890
4106.139	1906
4107.704	1880
4109.27	1905
4110.837	1894
4112.401	1915
4113.966	1910
4115.53	1933
4117.094	1895
4118.659	1891
4120.223	1947
4121.785	1834
4123.347	1890
4124.909	1850
4126.471	1845
4128.034	1859
4129.595	1864
4131.155	1847
4132.716	1875
4134.275	1839
4135.836	1884
4137.395	1919
4138.955	1810
4140.513	1859
4142.071	1873
4143.628	1859
4145.188	1816
4146.745	1848
4148.302	1831
4149.858	1869
4151.414	1843
4152.971	1830
4154.526	1843
4156.081	1861
4157.635	1840
4159.189	1864
4160.745	1803
4162.298	1824
4163.852	1808
4165.405	1776
4166.957	1855
4168.51	1805
4170.063	1849
4171.614	1837
4173.166	1779
4174.717	1806
4176.267	1787
4177.817	1802
4179.368	1734
4180.917	1848
4182.466	1815
4184.016	1812
4185.564	1767
4187.112	1829
4188.66	1754
4190.207	1784
4191.754	1816
4193.301	1806
4194.848	1760
4196.394	1759
4197.94	1790
4199.484	1814
4201.03	1840
4202.575	1792
4204.12	1765
4205.663	1789
4207.207	1764
4208.75	1759
4210.292	1754
4211.836	1852
4213.378	1747
4214.92	1756
4216.46	1793
4218.002	1767
4219.544	1714
4221.083	1733
4222.625	1766
4224.164	1791
4225.703	1722
4227.244	1755
4228.782	1739
4230.32	1730
4231.857	1745
4233.395	1722
4234.933	1742
4236.471	1736
4238.007	1764
4239.542	1739
4241.078	1755
4242.614	1723
4244.15	1766
4245.685	1754
4247.219	1756
4248.753	1768
4250.287	1780
4251.82	1744
4253.354	1710
4254.887	1775
4256.419	1681
4257.951	1750
4259.483	1707
4261.016	1722
4262.547	1708
4264.078	1698
4265.608	1710
4267.137	1701
4268.668	1765
4270.197	1695
4271.727	1726
4273.254	1702
4274.783	1760
4276.311	1713
4277.84	1696
4279.366	1703
4280.894	1728
4282.42	1654
4283.946	1721
4285.473	1704
4286.998	1694
4288.523	1732
4290.047	1707
4291.572	1631
4293.096	1698
4294.622	1708
4296.144	1679
4297.668	1668
4299.19	1723
4300.713	1740
4302.236	1692
4303.758	1654
4305.279	1701
4306.799	1715
4308.321	1695
4309.842	1635
4311.361	1689
4312.882	1682
4314.401	1682
