400.0961	4165
402.6185	4106
405.1424	4175
407.6635	4164
410.1838	4134
412.7035	4151
415.2225	4236
417.7388	4314
420.2585	4296
422.7754	4401
425.2917	4383
427.8072	4441
430.3221	4379
432.8363	4497
435.3498	4480
437.8626	4474
440.3727	4474
442.8841	4567
445.3969	4461
447.907	4497
450.4142	4403
452.9229	4365
455.4289	4418
457.9362	4508
460.4449	4435
462.9488	4446
465.454	4445
467.9566	4479
470.4604	4447
472.9637	4385
475.4662	4333
477.966	4426
480.4671	4545
482.9656	4486
485.4633	4551
487.9645	4527
490.4608	4550
492.9566	4561
495.4536	4528
497.948	4566
500.4437	4673
502.9387	4629
505.431	4628
507.9226	4552
510.4136	4509
512.9079	4672
515.3975	4660
517.8864	4612
520.3746	4599
522.8622	4613
525.3491	4551
527.8394	4697
530.3249	4642
532.8098	4622
535.2939	4598
537.7774	4649
540.2623	4612
542.7444	4558
545.2259	4636
547.7067	4662
550.1868	4634
552.6683	4674
555.147	4599
557.6231	4693
560.1005	4761
562.5773	4717
565.0534	4755
567.5308	4702
570.0056	4771
572.4776	4761
574.951	4834
577.4237	4755
579.8978	4860
582.3671	4873
584.8378	4871
587.3079	4924
589.7773	4856
592.244	4968
594.714	4831
597.1793	4846
599.6461	4718
602.1121	4830
604.5754	4742
607.0421	4778
609.5042	4757
611.9675	4747
614.4282	4788
616.8902	4699
619.3515	4775
621.8122	4737
624.2702	4746
626.7296	4708
629.1863	4730
631.6423	4830
634.1017	4695
636.5563	4678
639.0104	4701
641.4658	4733
643.9185	4768
646.3725	4763
648.8239	4767
651.2766	4825
653.7266	4765
656.176	4839
658.6247	4837
661.0748	4791
663.5242	4943
665.9709	4781
668.417	4871
670.8624	4862
673.3092	4883
675.7533	4943
678.1968	4945
680.6395	4931
683.0817	4893
685.5251	4917
687.9659	4864
690.4061	4964
692.8456	4953
695.2844	4851
697.7226	4960
700.1621	4941
702.599	4855
705.0332	4952
707.4688	4998
709.9036	5020
712.3399	5019
714.7735	5003
717.2044	4947
719.6367	5028
722.0683	4962
724.4993	4870
726.9296	4970
729.3593	5112
731.7883	5026
734.2147	5129
736.6423	5076
739.0714	5158
741.4958	5078
743.9216	5194
746.3447	5246
748.7691	5223
751.1929	5228
753.616	5116
756.0366	5231
758.4584	5279
760.8776	5179
763.2982	5275
765.718	5345
768.1373	5360
770.5539	5260
772.9698	5283
775.3871	5281
777.8038	5161
780.2178	5190
782.6332	5366
785.0459	5320
787.458	5253
789.8714	5237
792.2842	5321
794.6943	5207
797.1038	5281
799.5127	5264
801.9209	5324
804.3324	5281
806.7393	5251
809.1456	5251
811.5513	5323
813.9562	5377
816.3625	5257
818.7663	5369
821.1693	5271
823.5718	5347
825.9735	5345
828.3746	5255
830.7771	5307
833.177	5349
835.5762	5334
837.9747	5355
840.3727	5334
842.772	5298
845.1666	5378
847.5626	5329
849.958	5503
852.3527	5434
854.7488	5457
857.1403	5459
859.5331	5499
861.9253	5388
864.3168	5498
866.7057	5325
869.098	5425
871.4876	5455
873.8746	5470
876.263	5430
878.6487	5485
881.0378	5444
883.4243	5336
885.8081	5454
888.1933	5392
890.5759	5532
892.9598	5489
895.343	5429
897.7256	5447
900.1057	5387
902.4871	5437
904.8659	5491
907.246	5485
909.6254	5628
912.0023	5496
914.3786	5506
916.7562	5676
919.1331	5690
921.5074	5727
923.8831	5755
926.2562	5680
928.6287	5775
931.0005	5634
933.3757	5796
935.7462	5679
938.1162	5780
940.4855	5875
942.8542	5855
945.2242	5915
947.5916	6041
949.9584	6173
952.3266	6279
954.6921	6483
957.0571	6643
959.4233	6958
961.787	6976
964.15	6932
966.5125	6661
968.8742	6606
971.2354	6398
973.5959	6061
975.9559	5903
978.3151	5897
980.6738	5782
983.0338	5632
985.3912	5638
987.7461	5675
990.1022	5666
992.4578	5640
994.8127	5606
997.1689	5769
999.5207	5595
1001.874	5713
1004.226	5748
1006.576	5646
1008.929	5678
1011.28	5691
1013.628	5556
1015.977	5596
1018.324	5637
1020.674	5711
1023.019	5706
1025.366	5730
1027.713	5733
1030.056	5632
1032.399	5753
1034.746	5780
1037.087	5777
1039.431	5804
1041.771	5767
1044.113	5790
1046.454	5826
1048.793	5857
1051.133	5746
1053.471	5796
1055.807	5823
1058.146	5796
1060.483	5772
1062.818	5851
1065.153	5798
1067.489	5833
1069.822	5846
1072.156	5863
1074.488	5882
1076.82	5884
1079.15	5838
1081.48	5825
1083.814	5806
1086.143	5833
1088.471	5798
1090.799	5868
1093.126	5678
1095.452	5831
1097.78	5880
1100.105	5756
1102.43	5836
1104.754	5659
1107.077	5742
1109.4	5769
1111.722	5784
1114.044	5802
1116.365	5821
1118.685	5796
1121.005	5856
1123.324	5811
1125.643	5803
1127.961	5790
1130.278	5767
1132.595	5799
1134.911	5828
1137.226	5911
1139.541	5770
1141.854	5826
1144.167	5863
1146.482	5811
1148.793	5789
1151.105	5891
1153.414	5844
1155.725	5841
1158.033	5829
1160.344	5893
1162.651	5989
1164.959	5809
1167.265	5818
1169.572	5769
1171.878	5770
1174.184	5901
1176.488	5869
1178.79	5843
1181.094	5799
1183.396	5804
1185.699	5895
1188.001	5736
1190.301	5818
1192.6	5747
1194.9	5819
1197.2	5774
1199.497	5913
1201.794	5881
1204.09	5706
1206.387	5973
1208.684	5800
1210.978	5804
1213.272	5890
1215.565	5825
1217.858	5838
1220.15	5863
1222.443	5937
1224.734	5906
1227.024	5921
1229.313	5877
1231.602	6024
1233.892	6004
1236.18	6018
1238.467	6167
1240.754	6033
1243.04	6074
1245.325	6029
1247.612	6017
1249.896	6006
1252.178	6145
1254.461	6099
1256.743	6130
1259.027	6136
1261.308	6124
1263.587	6055
1265.867	6085
1268.146	6089
1270.425	6164
1272.703	6076
1274.981	6081
1277.256	6187
1279.532	6176
1281.808	6094
1284.083	6059
1286.358	5996
1288.63	6033
1290.904	6017
1293.175	6005
1295.449	5982
1297.719	5979
1299.99	5921
1302.259	5990
1304.529	6150
1306.798	6046
1309.065	5934
1311.333	6054
1313.599	5998
1315.866	6061
1318.131	6034
1320.396	5935
1322.66	5939
1324.925	6089
1327.187	6057
1329.448	6039
1331.711	5957
1333.974	6069
1336.234	5981
1338.493	6163
1340.752	5933
1343.01	6061
1345.269	5970
1347.526	6062
1349.784	6076
1352.04	5915
1354.295	5979
1356.552	6116
1358.806	6008
1361.059	6019
1363.312	6036
1365.564	6064
1367.818	5947
1370.069	6064
1372.318	6083
1374.568	6177
1376.817	6076
1379.066	6023
1381.316	6046
1383.564	6161
1385.809	6166
1388.056	6095
1390.301	6092
1392.549	6135
1394.793	6269
1397.036	6229
1399.279	6147
1401.522	6166
1403.763	6152
1406.007	6293
1408.248	6281
1410.487	6302
1412.727	6231
1414.965	6223
1417.205	6166
1419.442	6311
1421.68	6230
1423.915	6146
1426.152	6287
1428.388	6184
1430.623	6302
1432.857	6262
1435.091	6223
1437.323	6348
1439.556	6300
1441.789	6324
1444.019	6317
1446.25	6323
1448.48	6371
1450.708	6322
1452.938	6433
1455.167	6356
1457.394	6335
1459.62	6292
1461.846	6514
1464.073	6397
1466.299	6334
1468.523	6201
1470.746	6277
1472.969	6238
1475.191	6174
1477.415	6205
1479.636	6152
1481.858	6096
1484.078	6123
1486.298	6109
1488.518	6184
1490.736	6208
1492.954	6049
1495.169	6049
1497.386	6126
1499.602	6018
1501.819	5960
1504.034	6077
1506.248	6106
1508.462	6048
1510.675	5976
1512.888	6119
1515.1	6035
1517.311	6047
1519.522	6089
1521.732	6027
1523.942	6019
1526.151	6039
1528.36	5959
1530.566	6026
1532.773	6086
1534.98	6156
1537.187	5996
1539.392	6206
1541.596	6187
1543.801	5988
1546.005	6137
1548.208	6164
1550.411	6138
1552.612	6105
1554.814	6141
1557.013	6149
1559.212	6162
1561.414	6181
1563.612	6143
1565.811	6236
1568.007	6185
1570.203	6194
1572.403	6208
1574.598	6153
1576.792	6260
1578.988	6227
1581.181	6162
1583.376	6251
1585.568	6311
1587.761	6193
1589.952	6267
1592.143	6267
1594.333	6156
1596.524	6265
1598.715	6264
1600.903	6368
1603.091	6307
1605.278	6292
1607.466	6228
1609.652	6356
1611.838	6180
1614.023	6250
1616.207	6280
1618.391	6185
1620.576	6205
1622.759	6309
1624.941	6302
1627.123	6395
1629.304	6361
1631.484	6255
1633.664	6357
1635.844	6396
1638.022	6331
1640.201	6402
1642.38	6353
1644.556	6283
1646.732	6350
1648.908	6410
1651.084	6328
1653.257	6357
1655.433	6450
1657.607	6383
1659.779	6332
1661.951	6417
1664.122	6367
1666.295	6324
1668.467	6446
1670.635	6405
1672.805	6418
1674.973	6426
1677.142	6455
1679.31	6353
1681.478	6351
1683.644	6462
1685.81	6447
1687.975	6331
1690.142	6415
1692.305	6389
1694.468	6331
1696.632	6422
1698.794	6307
1700.957	6434
1703.119	6302
1705.279	6244
1707.439	6308
1709.598	6206
1711.758	6375
1713.917	6248
1716.075	6290
1718.231	6196
1720.388	6316
1722.543	6247
1724.702	6294
1726.856	6340
1729.01	6280
1731.164	6217
1733.317	6254
1735.471	6144
1737.623	6090
1739.774	6292
1741.925	6330
1744.075	6181
1746.225	6324
1748.376	6246
1750.524	6365
1752.672	6218
1754.82	6371
1756.965	6354
1759.113	6256
1761.259	6231
1763.405	6289
1765.549	6285
1767.694	6377
1769.836	6453
1771.981	6375
1774.123	6405
1776.264	6334
1778.405	6332
1780.546	6228
1782.687	6235
1784.827	6342
1786.966	6207
1789.103	6316
1791.242	6401
1793.381	6422
1795.517	6299
1797.653	6291
1799.788	6336
1801.923	6233
1804.057	6363
1806.193	6407
1808.326	6315
1810.457	6320
1812.59	6342
1814.721	6334
1816.855	6290
1818.984	6190
1821.113	6261
1823.244	6347
1825.372	6293
1827.499	6331
1829.63	6255
1831.756	6254
1833.882	6328
1836.007	6226
1838.132	6280
1840.26	6434
1842.384	6305
1844.507	6330
1846.63	6298
1848.752	6287
1850.875	6312
1852.996	6322
1855.118	6193
1857.238	6171
1859.358	6271
1861.477	6219
1863.597	6276
1865.715	6213
1867.832	6302
1869.948	6241
1872.064	6347
1874.181	6278
1876.297	6258
1878.411	6125
1880.526	6203
1882.639	6238
1884.752	6210
1886.865	6264
1888.977	6252
1891.089	6344
1893.2	6324
1895.308	6264
1897.42	6393
1899.53	6318
1901.639	6356
1903.745	6312
1905.853	6360
1907.962	6438
1910.067	6341
1912.174	6397
1914.278	6418
1916.383	6316
1918.486	6397
1920.592	6286
1922.694	6359
1924.797	6293
1926.898	6451
1929	6398
1931.102	6388
1933.203	6291
1935.301	6351
1937.401	6417
1939.499	6432
1941.598	6354
1943.697	6331
1945.793	6318
1947.888	6408
1949.985	6362
1952.08	6454
1954.176	6322
1956.269	6360
1958.364	6274
1960.457	6414
1962.549	6424
1964.642	6328
1966.733	6382
1968.823	6393
1970.913	6370
1973.005	6297
1975.093	6354
1977.184	6218
1979.271	6365
1981.359	6369
1983.446	6239
1985.532	6345
1987.619	6372
1989.705	6387
1991.789	6284
1993.874	6328
1995.956	6322
1998.041	6288
2000.123	6358
2002.206	6317
2004.287	6252
2006.368	6305
2008.449	6380
2010.529	6325
2012.609	6296
2014.688	6247
2016.766	6249
2018.843	6305
2020.922	6357
2022.999	6394
2025.074	6303
2027.15	6367
2029.225	6301
2031.299	6217
2033.375	6380
2035.447	6382
2037.52	6293
2039.592	6216
2041.664	6291
2043.736	6346
2045.807	6328
2047.876	6286
2049.947	6242
2052.015	6272
2054.086	6366
2056.153	6336
2058.221	6265
2060.288	6290
2062.353	6288
2064.42	6223
2066.486	6394
2068.55	6378
2070.614	6190
2072.678	6257
2074.741	6340
2076.805	6376
2078.866	6328
2080.929	6305
2082.99	6252
2085.049	6236
2087.109	6336
2089.17	6288
2091.228	6272
2093.286	6307
2095.344	6308
2097.4	6268
2099.46	6370
2101.516	6248
2103.572	6342
2105.626	6298
2107.679	6232
2109.735	6257
2111.788	6219
2113.841	6290
2115.894	6377
2117.945	6282
2119.997	6234
2122.049	6254
2124.1	6300
2126.148	6110
2128.197	6325
2130.246	6260
2132.296	6286
2134.342	6375
2136.39	6309
2138.437	6328
2140.483	6255
2142.527	6281
2144.574	6271
2146.619	6174
2148.661	6284
2150.705	6286
2152.747	6332
2154.792	6302
2156.832	6202
2158.874	6416
2160.915	6207
2162.954	6305
2164.995	6263
2167.034	6143
2169.072	6276
2171.111	6309
2173.148	6149
2175.186	6241
2177.223	6178
2179.258	6202
2181.294	6230
2183.328	6293
2185.362	6180
2187.398	6153
2189.431	6191
2191.463	6254
2193.495	6178
2195.528	6063
2197.56	6242
2199.59	6196
2201.62	6152
2203.649	6118
2205.678	6277
2207.708	6036
2209.737	6283
2211.764	5985
2213.791	6139
2215.817	6201
2217.843	6088
2219.87	6184
2221.895	6095
2223.919	6131
2225.942	6153
2227.966	6101
2229.988	6249
2232.012	6145
2234.032	6124
2236.054	6212
2238.074	6063
2240.095	6074
2242.116	6152
2244.135	6120
2246.153	6050
2248.171	6180
2250.188	6194
2252.208	6142
2254.223	6197
2256.239	6063
2258.255	6133
2260.269	6268
2262.283	6106
2264.3	6089
2266.312	6136
2268.325	6138
2270.336	6072
2272.349	6103
2274.362	6179
2276.372	6115
2278.383	6169
2280.392	6065
2282.402	6220
2284.409	6092
2286.418	6083
2288.427	6236
2290.433	6244
2292.441	6213
2294.446	6131
2296.453	6071
2298.459	6144
2300.463	6232
2302.466	6106
2304.471	6052
2306.475	6064
2308.477	6168
2310.478	6125
2312.481	6018
2314.481	6084
2316.481	6121
2318.482	6026
2320.482	6009
2322.48	6073
2324.48	5991
2326.478	5975
2328.476	6077
2330.473	6000
2332.469	6141
2334.465	6096
2336.46	6099
2338.454	5975
2340.45	6026
2342.444	5918
2344.437	6034
2346.43	5988
2348.421	5937
2350.414	5987
2352.405	5990
2354.396	6104
2356.386	6004
2358.376	6060
2360.366	5932
2362.355	6001
2364.343	5905
2366.331	5990
2368.317	6024
2370.304	6082
2372.292	5992
2374.278	5994
2376.262	6050
2378.247	5969
2380.23	5899
2382.216	5965
2384.199	5964
2386.181	6010
2388.163	5842
2390.144	5995
2392.127	6007
2394.107	5881
2396.087	5976
2398.066	5896
2400.046	5853
2402.023	5873
2404.004	5920
2405.981	5886
2407.957	5894
2409.934	5965
2411.91	5921
2413.886	5930
2415.862	5866
2417.836	5797
2419.809	5894
2421.784	5879
2423.756	5966
2425.73	5834
2427.701	5949
2429.672	6108
2431.644	5937
2433.615	5922
2435.586	5852
2437.555	5918
2439.523	5923
2441.491	5849
2443.459	5957
2445.428	5918
2447.395	5930
2449.361	5889
2451.327	5825
2453.292	5870
2455.257	5834
2457.223	5967
2459.187	5873
2461.15	5819
2463.113	5806
2465.076	5751
2467.039	5821
2468.999	5887
2470.96	5863
2472.921	5888
2474.881	5918
2476.841	5765
2478.8	5803
2480.759	5860
2482.717	5989
2484.675	5819
2486.63	5771
2488.589	5839
2490.545	5882
2492.5	5861
2494.455	5820
2496.408	5766
2498.364	5847
2500.318	5899
2502.27	5779
2504.223	5769
2506.174	5815
2508.126	5806
2510.078	5754
2512.03	5794
2513.979	5817
2515.927	5677
2517.877	5803
2519.826	5751
2521.775	5784
2523.722	5735
2525.668	5849
2527.616	5817
2529.561	5767
2531.508	5704
2533.452	5818
2535.398	5864
2537.342	5732
2539.284	5771
2541.229	5782
2543.173	5848
2545.114	5771
2547.055	5716
2548.996	5697
2550.938	5737
2552.878	5731
2554.817	5799
2556.756	5683
2558.695	5736
2560.633	5783
2562.572	5665
2564.509	5805
2566.445	5700
2568.382	5719
2570.317	5733
2572.254	5720
2574.189	5748
2576.123	5820
2578.057	5798
2579.99	5802
2581.923	5783
2583.855	5711
2585.788	5742
2587.719	5776
2589.65	5909
2591.579	5727
2593.511	5797
2595.44	5825
2597.37	5693
2599.297	5875
2601.225	5808
2603.153	5782
2605.08	5821
2607.007	5742
2608.932	5601
2610.858	5785
2612.782	5669
2614.709	5772
2616.632	5790
2618.556	5900
2620.478	5847
2622.401	5835
2624.324	5811
2626.247	5687
2628.167	5749
2630.088	5754
2632.008	5894
2633.928	5732
2635.848	5793
2637.766	5706
2639.684	5783
2641.603	5782
2643.519	5768
2645.437	5828
2647.353	5800
2649.27	5958
2651.184	5811
2653.099	5789
2655.014	5714
2656.928	5733
2658.842	5833
2660.755	5653
2662.667	5711
2664.579	5646
2666.491	5790
2668.402	5690
2670.312	5724
2672.222	5688
2674.132	5713
2676.042	5727
2677.951	5718
2679.859	5797
2681.766	5677
2683.674	5724
2685.582	5712
2687.488	5736
2689.392	5659
2691.298	5743
2693.202	5727
2695.107	5676
2697.012	5502
2698.914	5764
2700.817	5676
2702.72	5676
2704.622	5720
2706.524	5826
2708.425	5609
2710.326	5749
2712.225	5637
2714.125	5609
2716.024	5618
2717.923	5642
2719.822	5635
2721.719	5658
2723.616	5593
2725.512	5707
2727.41	5710
2729.305	5643
2731.201	5674
2733.095	5570
2734.99	5656
2736.884	5546
2738.778	5570
2740.67	5659
2742.562	5548
2744.455	5552
2746.346	5547
2748.238	5622
2750.129	5559
2752.018	5553
2753.907	5577
2755.797	5624
2757.687	5623
2759.575	5674
2761.462	5574
2763.349	5530
2765.237	5547
2767.124	5576
2769.009	5512
2770.894	5501
2772.779	5646
2774.663	5554
2776.547	5542
2778.431	5691
2780.314	5441
2782.197	5650
2784.078	5584
2785.96	5556
2787.842	5611
2789.723	5554
2791.603	5516
2793.483	5570
2795.362	5500
2797.241	5604
2799.121	5397
2800.997	5606
2802.874	5533
2804.751	5569
2806.628	5545
2808.506	5621
2810.38	5576
2812.255	5583
2814.13	5495
2816.003	5537
2817.878	5634
2819.752	5531
2821.623	5595
2823.496	5461
2825.368	5545
2827.238	5474
2829.111	5591
2830.98	5464
2832.851	5646
2834.719	5512
2836.589	5575
2838.458	5567
2840.327	5531
2842.193	5548
2844.061	5592
2845.927	5517
2847.794	5433
2849.66	5597
2851.525	5553
2853.39	5607
2855.254	5554
2857.117	5719
2858.983	5600
2860.845	5589
2862.707	5566
2864.569	5712
2866.431	5727
2868.293	5661
2870.154	5684
2872.013	5711
2873.873	5814
2875.733	5915
2877.592	5911
2879.451	5878
2881.309	5871
2883.166	5843
2885.022	6057
2886.879	6138
2888.736	5993
2890.591	5952
2892.446	6114
2894.301	6074
2896.155	6101
2898.009	5972
2899.863	6062
2901.716	6128
2903.568	5955
2905.419	5930
2907.27	6045
2909.123	6036
2910.973	6032
2912.824	6047
2914.673	6143
2916.521	5977
2918.372	6131
2920.22	6132
2922.067	6180
2923.914	6231
2925.761	6295
2927.607	6330
2929.455	6407
2931.301	6370
2933.144	6364
2934.99	6378
2936.833	6574
2938.678	6592
2940.522	6628
2942.364	6670
2944.207	6706
2946.048	6686
2947.891	6802
2949.731	6693
2951.571	6699
2953.412	6728
2955.25	6632
2957.09	6645
2958.93	6591
2960.767	6545
2962.606	6387
2964.443	6426
2966.279	6402
2968.116	6340
2969.953	6194
2971.788	6246
2973.623	6167
2975.457	6078
2977.292	6136
2979.127	6095
2980.959	6090
2982.792	6107
2984.624	6069
2986.455	6053
2988.288	5991
2990.119	6027
2991.949	5914
2993.779	5852
2995.608	6006
2997.439	5861
2999.268	5825
3001.096	5820
3002.923	5705
3004.751	5637
3006.578	5617
3008.406	5611
3010.232	5616
3012.057	5495
3013.883	5447
3015.706	5403
3017.532	5488
3019.356	5396
3021.179	5379
3023.002	5451
3024.823	5413
3026.646	5311
3028.469	5312
3030.289	5441
3032.11	5331
3033.93	5260
3035.749	5314
3037.57	5300
3039.39	5241
3041.207	5226
3043.026	5232
3044.842	5226
3046.661	5271
3048.477	5246
3050.294	5209
3052.109	5314
3053.925	5250
3055.739	5201
3057.555	5220
3059.368	5214
3061.181	5173
3062.995	5142
3064.807	5238
3066.62	5207
3068.433	5258
3070.243	5223
3072.054	5162
3073.865	5202
3075.675	5157
3077.485	5191
3079.293	5131
3081.102	5158
3082.911	5132
3084.719	5149
3086.527	5209
3088.333	5049
3090.139	5158
3091.945	5140
3093.75	5157
3095.557	5154
3097.361	5204
3099.165	5111
3100.969	5063
3102.772	4997
3104.575	5127
3106.379	5082
3108.181	5025
3109.982	5058
3111.783	4973
3113.584	5128
3115.386	5068
3117.186	5027
3118.985	5015
3120.783	4892
3122.582	5115
3124.381	5098
3126.179	4996
3127.975	4985
3129.772	5077
3131.569	5031
3133.365	5033
3135.161	4998
3136.956	5048
3138.751	5020
3140.544	4958
3142.338	5039
3144.132	4850
3145.925	4966
3147.717	4955
3149.509	4961
3151.301	5020
3153.091	5024
3154.884	5098
3156.673	4986
3158.462	4974
3160.252	4926
3162.041	4889
3163.831	4879
3165.618	4865
3167.405	4978
3169.193	4948
3170.979	4881
3172.767	4864
3174.553	4929
3176.338	4958
3178.123	4847
3179.907	4885
3181.692	5002
3183.477	4846
3185.259	4904
3187.042	4835
3188.824	4915
3190.607	4922
3192.389	4859
3194.17	4938
3195.951	4922
3197.73	4936
3199.51	4939
3201.289	4796
3203.07	4823
3204.848	4847
3206.626	4855
3208.403	4822
3210.18	4847
3211.959	4934
3213.735	4851
3215.511	4847
3217.285	4918
3219.06	4917
3220.836	4801
3222.611	4855
3224.384	4819
3226.158	4973
3227.929	4806
3229.702	4861
3231.476	4859
3233.248	4917
3235.018	4792
3236.789	4847
3238.56	4848
3240.33	4863
3242.1	4827
3243.869	4848
3245.637	4824
3247.405	4858
3249.172	4887
3250.941	4865
3252.707	4872
3254.474	4824
3256.24	4835
3258.006	4829
3259.772	4846
3261.537	4794
3263.301	4849
3265.065	4926
3266.828	4803
3268.592	4815
3270.355	4845
3272.117	4849
3273.878	4826
3275.64	4917
3277.401	4880
3279.162	4857
3280.922	4877
3282.682	4778
3284.441	4843
3286.199	4827
3287.959	4846
3289.716	4797
3291.475	4813
3293.232	4821
3294.988	4789
3296.744	4856
3298.501	4802
3300.256	4847
3302.011	4880
3303.766	4813
3305.52	4784
3307.275	4766
3309.028	4753
3310.781	4888
3312.533	4869
3314.285	4853
3316.038	4773
3317.789	4831
3319.54	4738
3321.289	4795
3323.039	4803
3324.789	4840
3326.539	4757
3328.288	4827
3330.035	4794
3331.783	4733
3333.531	4914
3335.28	4792
3337.025	4783
3338.771	4832
3340.518	4765
3342.262	4750
3344.009	4742
3345.753	4823
3347.497	4774
3349.24	4778
3350.983	4662
3352.726	4730
3354.469	4792
3356.212	4767
3357.952	4676
3359.694	4812
3361.434	4722
3363.176	4705
3364.916	4784
3366.654	4618
3368.394	4693
3370.132	4722
3371.871	4702
3373.61	4635
3375.346	4591
3377.083	4637
3378.82	4625
3380.556	4677
3382.292	4660
3384.027	4593
3385.763	4686
3387.497	4664
3389.231	4697
3390.965	4707
3392.698	4655
3394.431	4550
3396.164	4680
3397.896	4665
3399.627	4542
3401.36	4583
3403.09	4581
3404.82	4668
3406.55	4518
3408.279	4633
3410.01	4592
3411.738	4610
3413.467	4648
3415.194	4549
3416.92	4614
3418.647	4553
3420.375	4570
3422.102	4530
3423.827	4631
3425.553	4541
3427.277	4601
3429.003	4547
3430.727	4573
3432.451	4560
3434.173	4465
3435.896	4539
3437.62	4531
3439.343	4511
3441.063	4575
3442.785	4459
3444.505	4460
3446.226	4545
3447.948	4469
3449.666	4504
3451.386	4526
3453.104	4484
3454.823	4450
3456.541	4447
3458.259	4484
3459.976	4469
3461.693	4449
3463.408	4502
3465.125	4418
3466.841	4423
3468.556	4442
3470.271	4382
3471.985	4364
3473.698	4373
3475.414	4469
3477.126	4422
3478.838	4412
3480.55	4369
3482.263	4426
3483.975	4442
3485.686	4369
3487.396	4312
3489.106	4383
3490.817	4383
3492.526	4381
3494.236	4276
3495.944	4354
3497.652	4354
3499.359	4297
3501.066	4341
3502.775	4359
3504.481	4305
3506.187	4269
3507.893	4306
3509.598	4211
3511.304	4285
3513.009	4179
3514.713	4244
3516.417	4195
3518.12	4298
3519.821	4246
3521.525	4253
3523.228	4338
3524.929	4349
3526.631	4245
3528.33	4235
3530.032	4181
3531.733	4254
3533.433	4224
3535.131	4205
3536.83	4193
3538.529	4204
3540.227	4199
3541.925	4235
3543.623	4184
3545.319	4182
3547.016	4122
3548.712	4250
3550.408	4133
3552.103	4119
3553.798	4112
3555.491	4210
3557.188	4111
3558.88	4304
3560.574	4150
3562.266	4204
3563.959	4162
3565.651	4155
3567.343	4162
3569.035	4089
3570.725	4192
3572.415	4119
3574.106	4158
3575.797	4130
3577.485	4086
3579.174	4012
3580.863	4104
3582.551	4137
3584.238	4115
3585.926	4055
3587.613	4078
3589.3	3975
3590.986	4106
3592.671	4078
3594.357	4043
3596.042	4028
3597.726	3931
3599.41	4053
3601.094	4002
3602.778	4090
3604.461	3960
3606.143	3977
3607.825	4048
3609.507	4008
3611.188	3952
3612.87	3958
3614.551	4043
3616.229	3951
3617.909	4008
3619.589	3999
3621.269	4045
3622.948	3922
3624.625	3937
3626.302	3880
3627.98	3960
3629.657	3981
3631.334	3974
3633.01	3887
3634.686	3956
3636.361	3849
3638.036	3835
3639.712	3896
3641.385	3824
3643.06	3909
3644.732	3907
3646.405	3823
3648.08	3828
3649.751	3855
3651.424	3801
3653.094	3874
3654.766	3869
3656.436	3820
3658.106	3785
3659.777	3783
3661.446	3803
3663.115	3767
3664.783	3809
3666.452	3887
3668.121	3760
3669.788	3771
3671.454	3758
3673.121	3775
3674.789	3757
3676.455	3744
3678.12	3829
3679.784	3793
3681.45	3738
3683.114	3838
3684.779	3747
3686.442	3765
3688.105	3739
3689.768	3822
3691.43	3719
3693.093	3778
3694.754	3780
3696.415	3776
3698.076	3719
3699.736	3769
3701.396	3753
3703.057	3720
3704.716	3775
3706.375	3687
3708.034	3713
3709.692	3672
3711.351	3683
3713.008	3708
3714.665	3750
3716.321	3720
3717.977	3674
3719.634	3681
3721.29	3706
3722.945	3705
3724.598	3681
3726.253	3713
3727.907	3737
3729.561	3649
3731.214	3664
3732.867	3679
3734.518	3704
3736.171	3621
3737.824	3725
3739.474	3662
3741.125	3725
3742.775	3684
3744.425	3679
3746.074	3787
3747.725	3669
3749.373	3661
3751.022	3683
3752.669	3679
3754.318	3630
3755.966	3604
3757.612	3660
3759.259	3610
3760.905	3589
3762.55	3617
3764.197	3664
3765.842	3543
3767.486	3708
3769.131	3596
3770.774	3627
3772.417	3626
3774.061	3624
3775.705	3598
3777.347	3569
3778.988	3573
3780.629	3545
3782.271	3558
3783.912	3537
3785.552	3648
3787.192	3554
3788.831	3621
3790.472	3583
3792.112	3508
3793.75	3581
3795.388	3553
3797.024	3465
3798.661	3534
3800.3	3577
3801.936	3524
3803.572	3513
3805.208	3587
3806.844	3482
3808.48	3507
3810.115	3455
3811.748	3501
3813.382	3521
3815.016	3453
3816.649	3583
3818.283	3511
3819.914	3442
3821.547	3589
3823.178	3587
3824.809	3491
3826.441	3424
3828.072	3402
3829.701	3475
3831.331	3535
3832.96	3494
3834.591	3422
3836.219	3446
3837.847	3462
3839.475	3434
3841.102	3513
3842.729	3445
3844.357	3464
3845.984	3371
3847.609	3474
3849.234	3442
3850.86	3420
3852.485	3501
3854.11	3483
3855.734	3445
3857.357	3354
3858.981	3432
3860.603	3464
3862.227	3453
3863.848	3342
3865.471	3340
3867.092	3351
3868.713	3392
3870.334	3429
3871.954	3335
3873.575	3367
3875.194	3343
3876.813	3344
3878.433	3451
3880.051	3384
3881.669	3410
3883.286	3385
3884.904	3424
3886.52	3350
3888.138	3472
3889.754	3365
3891.37	3323
3892.985	3399
3894.6	3405
3896.216	3336
3897.831	3291
3899.444	3329
3901.058	3346
3902.67	3335
3904.283	3364
3905.897	3288
3907.509	3331
3909.121	3330
3910.731	3372
3912.342	3417
3913.954	3303
3915.563	3304
3917.174	3343
3918.783	3371
3920.391	3310
3922.002	3352
3923.611	3314
3925.218	3254
3926.826	3340
3928.432	3314
3930.039	3359
3931.647	3330
3933.253	3326
3934.859	3372
3936.464	3299
3938.068	3238
3939.675	3251
3941.278	3323
3942.883	3201
3944.486	3323
3946.089	3314
3947.692	3265
3949.295	3238
3950.898	3272
3952.499	3326
3954.1	3231
3955.7	3194
3957.303	3194
3958.903	3292
3960.502	3240
3962.101	3185
3963.7	3341
3965.301	3266
3966.899	3263
3968.497	3262
3970.094	3181
3971.691	3246
3973.288	3179
3974.885	3289
3976.481	3197
3978.077	3237
3979.672	3249
3981.267	3259
3982.863	3177
3984.457	3251
3986.051	3167
3987.645	3221
3989.238	3220
3990.831	3271
3992.425	3120
3994.017	3155
3995.607	3205
3997.199	3106
3998.79	3229
4000.382	3142
4001.973	3127
4003.561	3149
4005.151	3164
4006.741	3168
4008.331	3113
4009.918	3169
4011.507	3143
4013.095	3095
4014.681	3176
4016.269	3105
4017.856	3223
4019.443	3117
4021.028	3137
4022.614	3126
4024.199	3132
4025.785	3161
4027.37	3112
4028.953	3088
4030.536	3035
4032.12	3047
4033.704	3083
4035.287	3136
4036.869	3086
4038.45	3112
4040.032	3035
4041.613	3095
4043.195	3050
4044.776	3037
4046.356	3025
4047.935	3031
4049.515	3022
4051.095	2995
4052.674	3035
4054.251	3075
4055.829	3082
4057.406	2984
4058.985	3000
4060.562	3023
4062.139	2973
4063.715	2942
4065.29	3066
4066.865	2981
4068.442	2972
4070.016	3054
4071.59	2977
4073.164	3025
4074.738	2965
4076.312	3078
4077.885	2972
4079.458	3087
4081.03	2944
4082.602	3033
4084.173	3011
4085.745	2971
4087.315	3009
4088.886	2960
4090.456	2911
4092.026	2993
4093.596	2979
4095.165	2885
4096.734	3009
4098.301	3010
4099.869	2957
4101.437	2913
4103.006	2977
4104.572	2967
4106.139	3003
4107.704	2965
4109.27	2926
4110.837	2933
4112.401	2923
4113.966	2959
4115.53	2890
4117.094	2940
4118.659	2915
4120.223	2859
4121.785	2858
4123.347	2905
4124.909	2933
4126.471	2841
4128.034	2848
4129.595	2889
4131.155	2885
4132.716	2870
4134.275	2889
4135.836	2889
4137.395	2837
4138.955	2821
4140.513	2828
4142.071	2812
4143.628	2910
4145.188	2908
4146.745	2909
4148.302	2843
4149.858	2770
4151.414	2870
4152.971	2891
4154.526	2828
4156.081	2863
4157.635	2863
4159.189	2842
4160.745	2772
4162.298	2835
4163.852	2774
4165.405	2842
4166.957	2851
4168.51	2782
4170.063	2763
4171.614	2831
4173.166	2793
4174.717	2838
4176.267	2781
4177.817	2784
4179.368	2834
4180.917	2723
4182.466	2780
4184.016	2735
4185.564	2789
4187.112	2760
4188.66	2738
4190.207	2756
4191.754	2709
4193.301	2751
4194.848	2759
4196.394	2756
4197.94	2755
4199.484	2647
4201.03	2699
4202.575	2795
4204.12	2723
4205.663	2744
4207.207	2787
4208.75	2739
4210.292	2699
4211.836	2709
4213.378	2754
4214.92	2703
4216.46	2750
4218.002	2800
4219.544	2732
4221.083	2755
4222.625	2709
4224.164	2729
4225.703	2686
4227.244	2654
4228.782	2736
4230.32	2749
4231.857	2738
4233.395	2724
4234.933	2724
4236.471	2761
4238.007	2681
4239.542	2668
4241.078	2648
4242.614	2659
4244.15	2691
4245.685	2622
4247.219	2652
4248.753	2665
4250.287	2709
4251.82	2681
4253.354	2670
4254.887	2618
4256.419	2638
4257.951	2650
4259.483	2640
4261.016	2686
4262.547	2641
4264.078	2644
4265.608	2718
4267.137	2627
4268.668	2633
4270.197	2727
4271.727	2631
4273.254	2598
4274.783	2681
4276.311	2703
4277.84	2555
4279.366	2655
4280.894	2598
4282.42	2616
4283.946	2674
4285.473	2583
4286.998	2631
4288.523	2596
4290.047	2589
4291.572	2600
4293.096	2589
4294.622	2551
4296.144	2521
4297.668	2612
4299.19	2627
4300.713	2622
4302.236	2517
4303.758	2567
4305.279	2579
4306.799	2604
4308.321	2599
4309.842	2599
4311.361	2626
4312.882	2556
4314.401	2514
