400.0961	2231
402.6185	2282
405.1424	2239
407.6635	2264
410.1838	2306
412.7035	2275
415.2225	2321
417.7388	2310
420.2585	2310
422.7754	2289
425.2917	2444
427.8072	2405
430.3221	2419
432.8363	2460
435.3498	2444
437.8626	2457
440.3727	2496
442.8841	2392
445.3969	2452
447.907	2428
450.4142	2397
452.9229	2438
455.4289	2432
457.9362	2368
460.4449	2394
462.9488	2336
465.454	2353
467.9566	2414
470.4604	2364
472.9637	2395
475.4662	2330
477.966	2337
480.4671	2352
482.9656	2376
485.4633	2430
487.9645	2363
490.4608	2413
492.9566	2422
495.4536	2392
497.948	2412
500.4437	2483
502.9387	2432
505.431	2396
507.9226	2366
510.4136	2443
512.9079	2480
515.3975	2527
517.8864	2387
520.3746	2452
522.8622	2429
525.3491	2454
527.8394	2484
530.3249	2458
532.8098	2425
535.2939	2496
537.7774	2525
540.2623	2459
542.7444	2489
545.2259	2503
547.7067	2473
550.1868	2437
552.6683	2490
555.147	2470
557.6231	2525
560.1005	2472
562.5773	2499
565.0534	2492
567.5308	2464
570.0056	2481
572.4776	2601
574.951	2542
577.4237	2529
579.8978	2605
582.3671	2576
584.8378	2556
587.3079	2604
589.7773	2587
592.244	2577
594.714	2565
597.1793	2542
599.6461	2602
602.1121	2462
604.5754	2531
607.0421	2535
609.5042	2509
611.9675	2507
614.4282	2573
616.8902	2531
619.3515	2503
621.8122	2472
624.2702	2464
626.7296	2548
629.1863	2585
631.6423	2498
634.1017	2479
636.5563	2572
639.0104	2517
641.4658	2502
643.9185	2493
646.3725	2463
648.8239	2511
651.2766	2550
653.7266	2513
656.176	2560
658.6247	2507
661.0748	2552
663.5242	2603
665.9709	2531
668.417	2494
670.8624	2512
673.3092	2524
675.7533	2576
678.1968	2580
680.6395	2541
683.0817	2619
685.5251	2632
687.9659	2600
690.4061	2584
692.8456	2603
695.2844	2577
697.7226	2619
700.1621	2616
702.599	2618
705.0332	2541
707.4688	2621
709.9036	2630
712.3399	2692
714.7735	2601
717.2044	2583
719.6367	2627
722.0683	2579
724.4993	2615
726.9296	2683
729.3593	2667
731.7883	2672
734.2147	2705
736.6423	2620
739.0714	2650
741.4958	2723
743.9216	2736
746.3447	2711
748.7691	2716
751.1929	2700
753.616	2694
756.0366	2721
758.4584	2781
760.8776	2754
763.2982	2667
765.718	2687
768.1373	2746
770.5539	2697
772.9698	2721
775.3871	2739
777.8038	2724
780.2178	2806
782.6332	2730
785.0459	2799
787.458	2779
789.8714	2742
792.2842	2748
794.6943	2796
797.1038	2760
799.5127	2732
801.9209	2800
804.3324	2730
806.7393	2774
809.1456	2768
811.5513	2756
813.9562	2792
816.3625	2811
818.7663	2751
821.1693	2783
823.5718	2790
825.9735	2772
828.3746	2791
830.7771	2830
833.177	2792
835.5762	2837
837.9747	2817
840.3727	2771
842.772	2760
845.1666	2844
847.5626	2808
849.958	2903
852.3527	2917
854.7488	2937
857.1403	2903
859.5331	2902
861.9253	2965
864.3168	2896
866.7057	2819
869.098	2858
871.4876	2842
873.8746	2916
876.263	2914
878.6487	2820
881.0378	2922
883.4243	2845
885.8081	2874
888.1933	2938
890.5759	2810
892.9598	2882
895.343	2865
897.7256	2871
900.1057	2832
902.4871	2819
904.8659	2921
907.246	2955
909.6254	2886
912.0023	2863
914.3786	2953
916.7562	2962
919.1331	2989
921.5074	2962
923.8831	3072
926.2562	3093
928.6287	3078
931.0005	3088
933.3757	3065
935.7462	2977
938.1162	3088
940.4855	3119
942.8542	3155
945.2242	3190
947.5916	3248
949.9584	3283
952.3266	3392
954.6921	3548
957.0571	3725
959.4233	3841
961.787	3842
964.15	3905
966.5125	3776
968.8742	3627
971.2354	3428
973.5959	3325
975.9559	3165
978.3151	3178
980.6738	3007
983.0338	3020
985.3912	3015
987.7461	3015
990.1022	2934
992.4578	2930
994.8127	2979
997.1689	2896
999.5207	3000
1001.874	3094
1004.226	2987
1006.576	2969
1008.929	2995
1011.28	2959
1013.628	3093
1015.977	2956
1018.324	3020
1020.674	3006
1023.019	2960
1025.366	3006
1027.713	3031
1030.056	3029
1032.399	3102
1034.746	3014
1037.087	3038
1039.431	3054
1041.771	3038
1044.113	3062
1046.454	2995
1048.793	3052
1051.133	3116
1053.471	3042
1055.807	3094
1058.146	3075
1060.483	3063
1062.818	3140
1065.153	3085
1067.489	3076
1069.822	3138
1072.156	3075
1074.488	3138
1076.82	3101
1079.15	3093
1081.48	3129
1083.814	3022
1086.143	3107
1088.471	3115
1090.799	3033
1093.126	3012
1095.452	3094
1097.78	3061
1100.105	3032
1102.43	3053
1104.754	3016
1107.077	3001
1109.4	3130
1111.722	3067
1114.044	3032
1116.365	2992
1118.685	3027
1121.005	3041
1123.324	3032
1125.643	3046
1127.961	3074
1130.278	3090
1132.595	3038
1134.911	3026
1137.226	3110
1139.541	3045
1141.854	3079
1144.167	3006
1146.482	2988
1148.793	3050
1151.105	3056
1153.414	3082
1155.725	3071
1158.033	3065
1160.344	3080
1162.651	3097
1164.959	3072
1167.265	3091
1169.572	3071
1171.878	3120
1174.184	3040
1176.488	3046
1178.79	3062
1181.094	3016
1183.396	3082
1185.699	3032
1188.001	3018
1190.301	3050
1192.6	3110
1194.9	3006
1197.2	3053
1199.497	3120
1201.794	3025
1204.09	3090
1206.387	3064
1208.684	3022
1210.978	2986
1213.272	3079
1215.565	3108
1217.858	3038
1220.15	3021
1222.443	3004
1224.734	2984
1227.024	3088
1229.313	3113
1231.602	3191
1233.892	3218
1236.18	3139
1238.467	3222
1240.754	3206
1243.04	3277
1245.325	3288
1247.612	3150
1249.896	3199
1252.178	3277
1254.461	3266
1256.743	3265
1259.027	3195
1261.308	3148
1263.587	3227
1265.867	3300
1268.146	3261
1270.425	3228
1272.703	3226
1274.981	3197
1277.256	3225
1279.532	3219
1281.808	3181
1284.083	3175
1286.358	3183
1288.63	3208
1290.904	3136
1293.175	3118
1295.449	3161
1297.719	3204
1299.99	3180
1302.259	3140
1304.529	3105
1306.798	3133
1309.065	3145
1311.333	3121
1313.599	3100
1315.866	3108
1318.131	3144
1320.396	3119
1322.66	3142
1324.925	3123
1327.187	3154
1329.448	3151
1331.711	3166
1333.974	3218
1336.234	3173
1338.493	3144
1340.752	3155
1343.01	3156
1345.269	3206
1347.526	3201
1349.784	3183
1352.04	3151
1354.295	3228
1356.552	3131
1358.806	3199
1361.059	3198
1363.312	3166
1365.564	3135
1367.818	3187
1370.069	3153
1372.318	3206
1374.568	3153
1376.817	3141
1379.066	3189
1381.316	3218
1383.564	3173
1385.809	3176
1388.056	3207
1390.301	3222
1392.549	3263
1394.793	3409
1397.036	3213
1399.279	3281
1401.522	3205
1403.763	3381
1406.007	3233
1408.248	3265
1410.487	3281
1412.727	3195
1414.965	3226
1417.205	3314
1419.442	3249
1421.68	3300
1423.915	3235
1426.152	3277
1428.388	3306
1430.623	3257
1432.857	3338
1435.091	3276
1437.323	3376
1439.556	3378
1441.789	3292
1444.019	3341
1446.25	3382
1448.48	3419
1450.708	3370
1452.938	3399
1455.167	3472
1457.394	3389
1459.62	3342
1461.846	3346
1464.073	3420
1466.299	3314
1468.523	3251
1470.746	3301
1472.969	3356
1475.191	3347
1477.415	3232
1479.636	3219
1481.858	3177
1484.078	3172
1486.298	3201
1488.518	3144
1490.736	3255
1492.954	3166
1495.169	3176
1497.386	3191
1499.602	3156
1501.819	3215
1504.034	3147
1506.248	3136
1508.462	3086
1510.675	3194
1512.888	3099
1515.1	3134
1517.311	3196
1519.522	3098
1521.732	3223
1523.942	3159
1526.151	3162
1528.36	3184
1530.566	3172
1532.773	3212
1534.98	3109
1537.187	3195
1539.392	3128
1541.596	3218
1543.801	3167
1546.005	3243
1548.208	3247
1550.411	3174
1552.612	3131
1554.814	3168
1557.013	3200
1559.212	3170
1561.414	3218
1563.612	3270
1565.811	3225
1568.007	3149
1570.203	3199
1572.403	3236
1574.598	3235
1576.792	3245
1578.988	3294
1581.181	3194
1583.376	3247
1585.568	3291
1587.761	3216
1589.952	3231
1592.143	3188
1594.333	3241
1596.524	3331
1598.715	3282
1600.903	3269
1603.091	3295
1605.278	3227
1607.466	3265
1609.652	3315
1611.838	3284
1614.023	3237
1616.207	3283
1618.391	3325
1620.576	3228
1622.759	3387
1624.941	3297
1627.123	3375
1629.304	3365
1631.484	3326
1633.664	3403
1635.844	3302
1638.022	3323
1640.201	3375
1642.38	3361
1644.556	3295
1646.732	3357
1648.908	3311
1651.084	3357
1653.257	3424
1655.433	3318
1657.607	3379
1659.779	3433
1661.951	3419
1664.122	3364
1666.295	3432
1668.467	3396
1670.635	3384
1672.805	3439
1674.973	3436
1677.142	3449
1679.31	3453
1681.478	3449
1683.644	3402
1685.81	3374
1687.975	3389
1690.142	3356
1692.305	3395
1694.468	3346
1696.632	3350
1698.794	3308
1700.957	3331
1703.119	3266
1705.279	3301
1707.439	3362
1709.598	3284
1711.758	3334
1713.917	3246
1716.075	3270
1718.231	3242
1720.388	3259
1722.543	3292
1724.702	3330
1726.856	3248
1729.01	3229
1731.164	3329
1733.317	3322
1735.471	3242
1737.623	3283
1739.774	3326
1741.925	3241
1744.075	3380
1746.225	3376
1748.376	3235
1750.524	3278
1752.672	3268
1754.82	3260
1756.965	3259
1759.113	3334
1761.259	3347
1763.405	3203
1765.549	3330
1767.694	3326
1769.836	3279
1771.981	3269
1774.123	3264
1776.264	3293
1778.405	3341
1780.546	3476
1782.687	3264
1784.827	3295
1786.966	3301
1789.103	3316
1791.242	3301
1793.381	3268
1795.517	3336
1797.653	3304
1799.788	3398
1801.923	3410
1804.057	3279
1806.193	3306
1808.326	3327
1810.457	3221
1812.59	3319
1814.721	3313
1816.855	3346
1818.984	3331
1821.113	3278
1823.244	3273
1825.372	3281
1827.499	3288
1829.63	3318
1831.756	3268
1833.882	3237
1836.007	3288
1838.132	3337
1840.26	3223
1842.384	3353
1844.507	3304
1846.63	3320
1848.752	3292
1850.875	3349
1852.996	3274
1855.118	3257
1857.238	3280
1859.358	3263
1861.477	3319
1863.597	3361
1865.715	3337
1867.832	3341
1869.948	3318
1872.064	3250
1874.181	3368
1876.297	3274
1878.411	3366
1880.526	3338
1882.639	3260
1884.752	3231
1886.865	3281
1888.977	3329
1891.089	3283
1893.2	3267
1895.308	3305
1897.42	3356
1899.53	3320
1901.639	3337
1903.745	3362
1905.853	3379
1907.962	3327
1910.067	3325
1912.174	3323
1914.278	3332
1916.383	3352
1918.486	3379
1920.592	3424
1922.694	3345
1924.797	3425
1926.898	3371
1929	3350
1931.102	3310
1933.203	3344
1935.301	3371
1937.401	3428
1939.499	3371
1941.598	3395
1943.697	3430
1945.793	3381
1947.888	3369
1949.985	3377
1952.08	3379
1954.176	3297
1956.269	3379
1958.364	3372
1960.457	3330
1962.549	3305
1964.642	3373
1966.733	3380
1968.823	3375
1970.913	3364
1973.005	3260
1975.093	3295
1977.184	3406
1979.271	3292
1981.359	3303
1983.446	3411
1985.532	3354
1987.619	3355
1989.705	3325
1991.789	3272
1993.874	3296
1995.956	3259
1998.041	3349
2000.123	3310
2002.206	3324
2004.287	3359
2006.368	3303
2008.449	3334
2010.529	3404
2012.609	3287
2014.688	3282
2016.766	3311
2018.843	3361
2020.922	3354
2022.999	3367
2025.074	3294
2027.15	3327
2029.225	3347
2031.299	3252
2033.375	3327
2035.447	3348
2037.52	3267
2039.592	3337
2041.664	3388
2043.736	3275
2045.807	3353
2047.876	3298
2049.947	3278
2052.015	3363
2054.086	3337
2056.153	3347
2058.221	3312
2060.288	3293
2062.353	3298
2064.42	3321
2066.486	3349
2068.55	3310
2070.614	3280
2072.678	3378
2074.741	3389
2076.805	3393
2078.866	3361
2080.929	3385
2082.99	3363
2085.049	3367
2087.109	3367
2089.17	3374
2091.228	3330
2093.286	3444
2095.344	3365
2097.4	3310
2099.46	3341
2101.516	3398
2103.572	3359
2105.626	3342
2107.679	3303
2109.735	3299
2111.788	3391
2113.841	3351
2115.894	3355
2117.945	3434
2119.997	3403
2122.049	3392
2124.1	3382
2126.148	3352
2128.197	3378
2130.246	3333
2132.296	3270
2134.342	3374
2136.39	3314
2138.437	3338
2140.483	3303
2142.527	3318
2144.574	3345
2146.619	3316
2148.661	3349
2150.705	3378
2152.747	3331
2154.792	3390
2156.832	3338
2158.874	3347
2160.915	3287
2162.954	3383
2164.995	3271
2167.034	3336
2169.072	3374
2171.111	3284
2173.148	3337
2175.186	3247
2177.223	3252
2179.258	3326
2181.294	3329
2183.328	3367
2185.362	3315
2187.398	3356
2189.431	3359
2191.463	3298
2193.495	3306
2195.528	3266
2197.56	3273
2199.59	3302
2201.62	3270
2203.649	3209
2205.678	3339
2207.708	3241
2209.737	3300
2211.764	3287
2213.791	3280
2215.817	3265
2217.843	3268
2219.87	3345
2221.895	3274
2223.919	3314
2225.942	3276
2227.966	3214
2229.988	3242
2232.012	3324
2234.032	3274
2236.054	3228
2238.074	3338
2240.095	3302
2242.116	3301
2244.135	3360
2246.153	3268
2248.171	3309
2250.188	3270
2252.208	3264
2254.223	3271
2256.239	3219
2258.255	3305
2260.269	3272
2262.283	3219
2264.3	3241
2266.312	3314
2268.325	3328
2270.336	3181
2272.349	3247
2274.362	3235
2276.372	3225
2278.383	3294
2280.392	3239
2282.402	3275
2284.409	3288
2286.418	3287
2288.427	3246
2290.433	3331
2292.441	3277
2294.446	3238
2296.453	3220
2298.459	3253
2300.463	3326
2302.466	3324
2304.471	3268
2306.475	3195
2308.477	3323
2310.478	3304
2312.481	3221
2314.481	3255
2316.481	3333
2318.482	3309
2320.482	3243
2322.48	3242
2324.48	3253
2326.478	3266
2328.476	3267
2330.473	3309
2332.469	3199
2334.465	3275
2336.46	3233
2338.454	3346
2340.45	3247
2342.444	3253
2344.437	3197
2346.43	3251
2348.421	3232
2350.414	3296
2352.405	3226
2354.396	3243
2356.386	3161
2358.376	3210
2360.366	3247
2362.355	3191
2364.343	3215
2366.331	3302
2368.317	3253
2370.304	3184
2372.292	3191
2374.278	3197
2376.262	3306
2378.247	3229
2380.23	3216
2382.216	3204
2384.199	3233
2386.181	3257
2388.163	3260
2390.144	3177
2392.127	3216
2394.107	3132
2396.087	3180
2398.066	3180
2400.046	3282
2402.023	3223
2404.004	3167
2405.981	3196
2407.957	3246
2409.934	3214
2411.91	3227
2413.886	3206
2415.862	3198
2417.836	3161
2419.809	3238
2421.784	3125
2423.756	3206
2425.73	3137
2427.701	3138
2429.672	3141
2431.644	3165
2433.615	3225
2435.586	3161
2437.555	3298
2439.523	3178
2441.491	3158
2443.459	3149
2445.428	3219
2447.395	3210
2449.361	3139
2451.327	3245
2453.292	3135
2455.257	3159
2457.223	3236
2459.187	3113
2461.15	3151
2463.113	3195
2465.076	3133
2467.039	3048
2468.999	3187
2470.96	3130
2472.921	3176
2474.881	3161
2476.841	3136
2478.8	3193
2480.759	3142
2482.717	3125
2484.675	3235
2486.63	3092
2488.589	3086
2490.545	3156
2492.5	3193
2494.455	3181
2496.408	3205
2498.364	3159
2500.318	3092
2502.27	3116
2504.223	3144
2506.174	3181
2508.126	3075
2510.078	3108
2512.03	3143
2513.979	3123
2515.927	3212
2517.877	3159
2519.826	3169
2521.775	3155
2523.722	3164
2525.668	3083
2527.616	3123
2529.561	3167
2531.508	3142
2533.452	3083
2535.398	3124
2537.342	3136
2539.284	3142
2541.229	3141
2543.173	3138
2545.114	3118
2547.055	3092
2548.996	3123
2550.938	3196
2552.878	3167
2554.817	3129
2556.756	3091
2558.695	3148
2560.633	3150
2562.572	3110
2564.509	3130
2566.445	3189
2568.382	3145
2570.317	3214
2572.254	3131
2574.189	3119
2576.123	3160
2578.057	3157
2579.99	3096
2581.923	3120
2583.855	3151
2585.788	3123
2587.719	3170
2589.65	3174
2591.579	3151
2593.511	3160
2595.44	3196
2597.37	3205
2599.297	3120
2601.225	3143
2603.153	3118
2605.08	3176
2607.007	3182
2608.932	3153
2610.858	3119
2612.782	3157
2614.709	3073
2616.632	3186
2618.556	3151
2620.478	3164
2622.401	3220
2624.324	3137
2626.247	3215
2628.167	3174
2630.088	3172
2632.008	3225
2633.928	3224
2635.848	3133
2637.766	3185
2639.684	3210
2641.603	3140
2643.519	3163
2645.437	3183
2647.353	3109
2649.27	3113
2651.184	3089
2653.099	3216
2655.014	3181
2656.928	3152
2658.842	3203
2660.755	3153
2662.667	3106
2664.579	3182
2666.491	3139
2668.402	3160
2670.312	3175
2672.222	3212
2674.132	3145
2676.042	3134
2677.951	3123
2679.859	3147
2681.766	3069
2683.674	3128
2685.582	3085
2687.488	3112
2689.392	3171
2691.298	3068
2693.202	3158
2695.107	3102
2697.012	3057
2698.914	3092
2700.817	3133
2702.72	3163
2704.622	3134
2706.524	3129
2708.425	3127
2710.326	3194
2712.225	3191
2714.125	3094
2716.024	3141
2717.923	3065
2719.822	3086
2721.719	3080
2723.616	3095
2725.512	3170
2727.41	3048
2729.305	3174
2731.201	3074
2733.095	3106
2734.99	3099
2736.884	3048
2738.778	3082
2740.67	3161
2742.562	3105
2744.455	3102
2746.346	3053
2748.238	3164
2750.129	3106
2752.018	3112
2753.907	3097
2755.797	3101
2757.687	3130
2759.575	3119
2761.462	3138
2763.349	3104
2765.237	3071
2767.124	3069
2769.009	3118
2770.894	3030
2772.779	3171
2774.663	3099
2776.547	3105
2778.431	3139
2780.314	3064
2782.197	3184
2784.078	3132
2785.96	3111
2787.842	3115
2789.723	3059
2791.603	3121
2793.483	3087
2795.362	3111
2797.241	3063
2799.121	3100
2800.997	3160
2802.874	3169
2804.751	3078
2806.628	3154
2808.506	3113
2810.38	3057
2812.255	3095
2814.13	3092
2816.003	3075
2817.878	3051
2819.752	3111
2821.623	3097
2823.496	3122
2825.368	3033
2827.238	3065
2829.111	3088
2830.98	3066
2832.851	3103
2834.719	3106
2836.589	3161
2838.458	3164
2840.327	3139
2842.193	3052
2844.061	3050
2845.927	3097
2847.794	3148
2849.66	3230
2851.525	3153
2853.39	3153
2855.254	3220
2857.117	3153
2858.983	3214
2860.845	3204
2862.707	3174
2864.569	3252
2866.431	3203
2868.293	3313
2870.154	3318
2872.013	3229
2873.873	3317
2875.733	3424
2877.592	3375
2879.451	3487
2881.309	3492
2883.166	3451
2885.022	3541
2886.879	3503
2888.736	3561
2890.591	3570
2892.446	3574
2894.301	3604
2896.155	3606
2898.009	3644
2899.863	3633
2901.716	3512
2903.568	3610
2905.419	3561
2907.27	3528
2909.123	3478
2910.973	3528
2912.824	3545
2914.673	3603
2916.521	3552
2918.372	3612
2920.22	3572
2922.067	3631
2923.914	3812
2925.761	3823
2927.607	3754
2929.455	3820
2931.301	3834
2933.144	3834
2934.99	3877
2936.833	3855
2938.678	3908
2940.522	3921
2942.364	4052
2944.207	4071
2946.048	4104
2947.891	4152
2949.731	4042
2951.571	4130
2953.412	4203
2955.25	4027
2957.09	4051
2958.93	3950
2960.767	4057
2962.606	3991
2964.443	4022
2966.279	3895
2968.116	3869
2969.953	3819
2971.788	3729
2973.623	3690
2975.457	3669
2977.292	3699
2979.127	3557
2980.959	3654
2982.792	3466
2984.624	3636
2986.455	3559
2988.288	3585
2990.119	3436
2991.949	3422
2993.779	3442
2995.608	3390
2997.439	3412
2999.268	3298
3001.096	3354
3002.923	3287
3004.751	3307
3006.578	3320
3008.406	3231
3010.232	3215
3012.057	3140
3013.883	3216
3015.706	3031
3017.532	3076
3019.356	3107
3021.179	3065
3023.002	3066
3024.823	3017
3026.646	3099
3028.469	2914
3030.289	3069
3032.11	2987
3033.93	3014
3035.749	3100
3037.57	3043
3039.39	2978
3041.207	3033
3043.026	2999
3044.842	2976
3046.661	3020
3048.477	3049
3050.294	2924
3052.109	2918
3053.925	2979
3055.739	2958
3057.555	2987
3059.368	2955
3061.181	2991
3062.995	2943
3064.807	2940
3066.62	2960
3068.433	2909
3070.243	2903
3072.054	2952
3073.865	2936
3075.675	3021
3077.485	2956
3079.293	2957
3081.102	2927
3082.911	2937
3084.719	2941
3086.527	2922
3088.333	2927
3090.139	2958
3091.945	2796
3093.75	2935
3095.557	2907
3097.361	2845
3099.165	2902
3100.969	2914
3102.772	2908
3104.575	2922
3106.379	2909
3108.181	2893
3109.982	2874
3111.783	2876
3113.584	2884
3115.386	2814
3117.186	2945
3118.985	2870
3120.783	2820
3122.582	2782
3124.381	2797
3126.179	2835
3127.975	2872
3129.772	2856
3131.569	2846
3133.365	2803
3135.161	2883
3136.956	2847
3138.751	2916
3140.544	2891
3142.338	2830
3144.132	2849
3145.925	2824
3147.717	2863
3149.509	2828
3151.301	2867
3153.091	2841
3154.884	2793
3156.673	2860
3158.462	2816
3160.252	2909
3162.041	2808
3163.831	2816
3165.618	2824
3167.405	2834
3169.193	2817
3170.979	2847
3172.767	2846
3174.553	2806
3176.338	2823
3178.123	2846
3179.907	2822
3181.692	2883
3183.477	2823
3185.259	2842
3187.042	2794
3188.824	2820
3190.607	2762
3192.389	2849
3194.17	2868
3195.951	2795
3197.73	2842
3199.51	2871
3201.289	2741
3203.07	2814
3204.848	2830
3206.626	2854
3208.403	2858
3210.18	2765
3211.959	2843
3213.735	2780
3215.511	2886
3217.285	2843
3219.06	2847
3220.836	2864
3222.611	2787
3224.384	2828
3226.158	2833
3227.929	2807
3229.702	2792
3231.476	2840
3233.248	2782
3235.018	2749
3236.789	2828
3238.56	2837
3240.33	2823
3242.1	2817
3243.869	2772
3245.637	2788
3247.405	2784
3249.172	2845
3250.941	2797
3252.707	2851
3254.474	2822
3256.24	2822
3258.006	2828
3259.772	2770
3261.537	2850
3263.301	2818
3265.065	2853
3266.828	2811
3268.592	2863
3270.355	2779
3272.117	2779
3273.878	2804
3275.64	2764
3277.401	2886
3279.162	2842
3280.922	2836
3282.682	2809
3284.441	2877
3286.199	2822
3287.959	2846
3289.716	2798
3291.475	2837
3293.232	2845
3294.988	2808
3296.744	2832
3298.501	2795
3300.256	2862
3302.011	2803
3303.766	2803
3305.52	2812
3307.275	2892
3309.028	2829
3310.781	2811
3312.533	2864
3314.285	2872
3316.038	2802
3317.789	2911
3319.54	2770
3321.289	2807
3323.039	2822
3324.789	2829
3326.539	2817
3328.288	2785
3330.035	2823
3331.783	2809
3333.531	2811
3335.28	2772
3337.025	2786
3338.771	2825
3340.518	2862
3342.262	2785
3344.009	2861
3345.753	2829
3347.497	2801
3349.24	2843
3350.983	2778
3352.726	2774
3354.469	2756
3356.212	2811
3357.952	2785
3359.694	2767
3361.434	2821
3363.176	2708
3364.916	2776
3366.654	2828
3368.394	2741
3370.132	2795
3371.871	2730
3373.61	2771
3375.346	2780
3377.083	2790
3378.82	2777
3380.556	2775
3382.292	2746
3384.027	2734
3385.763	2766
3387.497	2768
3389.231	2791
3390.965	2637
3392.698	2753
3394.431	2760
3396.164	2697
3397.896	2706
3399.627	2729
3401.36	2769
3403.09	2783
3404.82	2718
3406.55	2758
3408.279	2715
3410.01	2711
3411.738	2701
3413.467	2677
3415.194	2706
3416.92	2647
3418.647	2694
3420.375	2703
3422.102	2677
3423.827	2736
3425.553	2682
3427.277	2735
3429.003	2682
3430.727	2631
3432.451	2696
3434.173	2726
3435.896	2632
3437.62	2684
3439.343	2701
3441.063	2678
3442.785	2656
3444.505	2668
3446.226	2682
3447.948	2671
3449.666	2617
3451.386	2654
3453.104	2617
3454.823	2693
3456.541	2626
3458.259	2688
3459.976	2586
3461.693	2590
3463.408	2654
3465.125	2628
3466.841	2671
3468.556	2618
3470.271	2559
3471.985	2731
3473.698	2632
3475.414	2587
3477.126	2609
3478.838	2581
3480.55	2606
3482.263	2553
3483.975	2591
3485.686	2628
3487.396	2548
3489.106	2648
3490.817	2589
3492.526	2607
3494.236	2603
3495.944	2546
3497.652	2567
3499.359	2577
3501.066	2528
3502.775	2499
3504.481	2462
3506.187	2475
3507.893	2535
3509.598	2493
3511.304	2567
3513.009	2548
3514.713	2540
3516.417	2571
3518.12	2581
3519.821	2508
3521.525	2514
3523.228	2457
3524.929	2441
3526.631	2468
3528.33	2488
3530.032	2518
3531.733	2510
3533.433	2510
3535.131	2447
3536.83	2501
3538.529	2525
3540.227	2397
3541.925	2456
3543.623	2462
3545.319	2434
3547.016	2435
3548.712	2506
3550.408	2479
3552.103	2448
3553.798	2460
3555.491	2467
3557.188	2440
3558.88	2384
3560.574	2497
3562.266	2526
3563.959	2396
3565.651	2401
3567.343	2512
3569.035	2468
3570.725	2506
3572.415	2376
3574.106	2508
3575.797	2400
3577.485	2389
3579.174	2447
3580.863	2481
3582.551	2398
3584.238	2415
3585.926	2443
3587.613	2415
3589.3	2406
3590.986	2398
3592.671	2392
3594.357	2408
3596.042	2394
3597.726	2399
3599.41	2365
3601.094	2311
3602.778	2396
3604.461	2386
3606.143	2344
3607.825	2377
3609.507	2286
3611.188	2365
3612.87	2356
3614.551	2342
3616.229	2351
3617.909	2325
3619.589	2372
3621.269	2386
3622.948	2349
3624.625	2260
3626.302	2289
3627.98	2340
3629.657	2306
3631.334	2325
3633.01	2293
3634.686	2231
3636.361	2285
3638.036	2335
3639.712	2265
3641.385	2306
3643.06	2337
3644.732	2262
3646.405	2359
3648.08	2293
3649.751	2277
3651.424	2248
3653.094	2241
3654.766	2245
3656.436	2321
3658.106	2281
3659.777	2264
3661.446	2238
3663.115	2278
3664.783	2236
3666.452	2251
3668.121	2229
3669.788	2241
3671.454	2266
3673.121	2238
3674.789	2249
3676.455	2238
3678.12	2227
3679.784	2202
3681.45	2187
3683.114	2232
3684.779	2209
3686.442	2216
3688.105	2243
3689.768	2227
3691.43	2242
3693.093	2199
3694.754	2198
3696.415	2199
3698.076	2204
3699.736	2194
3701.396	2217
3703.057	2147
3704.716	2212
3706.375	2201
3708.034	2275
3709.692	2203
3711.351	2154
3713.008	2209
3714.665	2188
3716.321	2217
3717.977	2201
3719.634	2199
3721.29	2238
3722.945	2238
3724.598	2176
3726.253	2187
3727.907	2212
3729.561	2169
3731.214	2175
3732.867	2141
3734.518	2154
3736.171	2183
3737.824	2223
3739.474	2162
3741.125	2171
3742.775	2109
3744.425	2227
3746.074	2211
3747.725	2118
3749.373	2154
3751.022	2159
3752.669	2164
3754.318	2166
3755.966	2131
3757.612	2192
3759.259	2172
3760.905	2195
3762.55	2167
3764.197	2194
3765.842	2176
3767.486	2174
3769.131	2114
3770.774	2172
3772.417	2154
3774.061	2103
3775.705	2151
3777.347	2165
3778.988	2112
3780.629	2115
3782.271	2097
3783.912	2123
3785.552	2164
3787.192	2128
3788.831	2151
3790.472	2138
3792.112	2137
3793.75	2145
3795.388	2108
3797.024	2090
3798.661	2080
3800.3	2084
3801.936	2111
3803.572	2061
3805.208	2108
3806.844	2090
3808.48	2094
3810.115	2153
3811.748	2094
3813.382	2094
3815.016	2105
3816.649	2093
3818.283	2099
3819.914	2074
3821.547	2059
3823.178	2088
3824.809	2152
3826.441	2085
3828.072	2091
3829.701	2044
3831.331	2055
3832.96	2038
3834.591	2066
3836.219	2003
3837.847	2080
3839.475	2103
3841.102	2062
3842.729	2034
3844.357	2062
3845.984	2061
3847.609	2081
3849.234	2006
3850.86	2068
3852.485	2064
3854.11	2095
3855.734	2102
3857.357	2098
3858.981	2085
3860.603	2062
3862.227	1984
3863.848	2079
3865.471	2028
3867.092	2011
3868.713	2031
3870.334	2048
3871.954	2000
3873.575	2013
3875.194	2064
3876.813	2047
3878.433	2023
3880.051	2001
3881.669	2022
3883.286	1987
3884.904	2072
3886.52	2038
3888.138	2008
3889.754	1967
3891.37	2013
3892.985	2082
3894.6	2000
3896.216	2000
3897.831	1999
3899.444	2032
3901.058	2011
3902.67	1967
3904.283	1987
3905.897	1997
3907.509	1996
3909.121	2025
3910.731	2031
3912.342	1991
3913.954	2020
3915.563	2003
3917.174	2071
3918.783	2002
3920.391	2059
3922.002	2043
3923.611	2063
3925.218	2048
3926.826	2013
3928.432	2006
3930.039	2010
3931.647	2010
3933.253	2044
3934.859	1961
3936.464	2024
3938.068	2006
3939.675	1979
3941.278	1959
3942.883	1982
3944.486	2029
3946.089	2034
3947.692	1973
3949.295	1956
3950.898	1983
3952.499	1995
3954.1	1953
3955.7	1972
3957.303	1939
3958.903	1968
3960.502	1936
3962.101	2004
3963.7	2019
3965.301	1903
3966.899	1934
3968.497	2027
3970.094	1868
3971.691	1943
3973.288	1913
3974.885	1972
3976.481	1943
3978.077	1970
3979.672	1959
3981.267	1949
3982.863	1919
3984.457	1931
3986.051	1930
3987.645	1972
3989.238	1898
3990.831	1905
3992.425	1956
3994.017	1909
3995.607	1920
3997.199	1890
3998.79	1922
4000.382	1939
4001.973	1922
4003.561	1926
4005.151	1937
4006.741	1946
4008.331	1901
4009.918	1889
4011.507	1957
4013.095	1950
4014.681	1921
4016.269	1839
4017.856	1908
4019.443	1823
4021.028	1878
4022.614	1875
4024.199	1859
4025.785	1895
4027.37	1862
4028.953	1852
4030.536	1973
4032.12	1917
4033.704	1900
4035.287	1849
4036.869	1914
4038.45	1900
4040.032	1908
4041.613	1862
4043.195	1932
4044.776	1841
4046.356	1862
4047.935	1868
4049.515	1850
4051.095	1878
4052.674	1844
4054.251	1882
4055.829	1840
4057.406	1821
4058.985	1890
4060.562	1801
4062.139	1869
4063.715	1896
4065.29	1903
4066.865	1858
4068.442	1857
4070.016	1861
4071.59	1850
4073.164	1860
4074.738	1859
4076.312	1838
4077.885	1851
4079.458	1824
4081.03	1855
4082.602	1840
4084.173	1812
4085.745	1845
4087.315	1809
4088.886	1823
4090.456	1825
4092.026	1833
4093.596	1839
4095.165	1820
4096.734	1816
4098.301	1805
4099.869	1851
4101.437	1894
4103.006	1757
4104.572	1809
4106.139	1833
4107.704	1822
4109.27	1835
4110.837	1829
4112.401	1849
4113.966	1839
4115.53	1784
4117.094	1780
4118.659	1811
4120.223	1786
4121.785	1778
4123.347	1839
4124.909	1781
4126.471	1834
4128.034	1751
4129.595	1757
4131.155	1771
4132.716	1762
4134.275	1751
4135.836	1778
4137.395	1825
4138.955	1769
4140.513	1808
4142.071	1749
4143.628	1726
4145.188	1755
4146.745	1767
4148.302	1747
4149.858	1755
4151.414	1708
4152.971	1793
4154.526	1723
4156.081	1731
4157.635	1726
4159.189	1755
4160.745	1771
4162.298	1712
4163.852	1714
4165.405	1781
4166.957	1760
4168.51	1704
4170.063	1767
4171.614	1733
4173.166	1752
4174.717	1706
4176.267	1721
4177.817	1767
4179.368	1719
4180.917	1715
4182.466	1714
4184.016	1730
4185.564	1744
4187.112	1754
4188.66	1723
4190.207	1711
4191.754	1718
4193.301	1759
4194.848	1717
4196.394	1691
4197.94	1690
4199.484	1804
4201.03	1691
4202.575	1747
4204.12	1718
4205.663	1723
4207.207	1704
4208.75	1687
4210.292	1759
4211.836	1704
4213.378	1698
4214.92	1667
4216.46	1723
4218.002	1665
4219.544	1716
4221.083	1712
4222.625	1678
4224.164	1694
4225.703	1736
4227.244	1693
4228.782	1679
4230.32	1684
4231.857	1663
4233.395	1676
4234.933	1701
4236.471	1657
4238.007	1659
4239.542	1690
4241.078	1670
4242.614	1638
4244.15	1714
4245.685	1650
4247.219	1689
4248.753	1666
4250.287	1676
4251.82	1630
4253.354	1673
4254.887	1591
4256.419	1690
4257.951	1641
4259.483	1658
4261.016	1681
4262.547	1684
4264.078	1657
4265.608	1650
4267.137	1668
4268.668	1620
4270.197	1752
4271.727	1658
4273.254	1644
4274.783	1631
4276.311	1649
4277.84	1622
4279.366	1644
4280.894	1669
4282.42	1660
4283.946	1631
4285.473	1653
4286.998	1626
4288.523	1689
4290.047	1662
4291.572	1618
4293.096	1662
4294.622	1663
4296.144	1582
4297.668	1635
4299.19	1576
4300.713	1627
4302.236	1643
4303.758	1644
4305.279	1659
4306.799	1665
4308.321	1627
4309.842	1640
4311.361	1628
4312.882	1583
4314.401	1627
