400.0961	2583
402.6185	2529
405.1424	2598
407.6635	2626
410.1838	2723
412.7035	2658
415.2225	2666
417.7388	2652
420.2585	2674
422.7754	2707
425.2917	2759
427.8072	2693
430.3221	2667
432.8363	2786
435.3498	2767
437.8626	2816
440.3727	2845
442.8841	2785
445.3969	2751
447.907	2792
450.4142	2748
452.9229	2781
455.4289	2702
457.9362	2756
460.4449	2803
462.9488	2734
465.454	2756
467.9566	2737
470.4604	2781
472.9637	2777
475.4662	2835
477.966	2809
480.4671	2816
482.9656	2763
485.4633	2773
487.9645	2841
490.4608	2795
492.9566	2765
495.4536	2792
497.948	2776
500.4437	2867
502.9387	2828
505.431	2865
507.9226	2768
510.4136	2824
512.9079	2855
515.3975	2774
517.8864	2894
520.3746	2879
522.8622	2861
525.3491	2895
527.8394	2834
530.3249	2898
532.8098	2924
535.2939	2840
537.7774	2930
540.2623	2901
542.7444	2841
545.2259	2820
547.7067	2951
550.1868	2775
552.6683	2848
555.147	2894
557.6231	2876
560.1005	2864
562.5773	2941
565.0534	2891
567.5308	2965
570.0056	2877
572.4776	2857
574.951	2980
577.4237	3047
579.8978	2908
582.3671	2968
584.8378	3002
587.3079	2952
589.7773	2962
592.244	3050
594.714	2911
597.1793	2968
599.6461	2945
602.1121	2984
604.5754	2985
607.0421	2994
609.5042	2996
611.9675	2935
614.4282	2926
616.8902	2999
619.3515	2903
621.8122	2905
624.2702	2949
626.7296	2966
629.1863	2903
631.6423	2882
634.1017	2928
636.5563	2983
639.0104	2938
641.4658	2939
643.9185	2910
646.3725	2951
648.8239	2940
651.2766	2942
653.7266	2967
656.176	2955
658.6247	3012
661.0748	2931
663.5242	2998
665.9709	3023
668.417	2965
670.8624	2959
673.3092	2968
675.7533	2997
678.1968	3061
680.6395	3001
683.0817	3040
685.5251	2991
687.9659	3018
690.4061	3015
692.8456	3016
695.2844	3004
697.7226	3071
700.1621	3078
702.599	2978
705.0332	3097
707.4688	3088
709.9036	3016
712.3399	3140
714.7735	3023
717.2044	3113
719.6367	3119
722.0683	3134
724.4993	3136
726.9296	3067
729.3593	3240
731.7883	3111
734.2147	3122
736.6423	3134
739.0714	3173
741.4958	3166
743.9216	3205
746.3447	3275
748.7691	3154
751.1929	3232
753.616	3215
756.0366	3244
758.4584	3204
760.8776	3218
763.2982	3187
765.718	3263
768.1373	3284
770.5539	3255
772.9698	3234
775.3871	3234
777.8038	3236
780.2178	3310
782.6332	3199
785.0459	3303
787.458	3254
789.8714	3212
792.2842	3221
794.6943	3242
797.1038	3247
799.5127	3190
801.9209	3186
804.3324	3235
806.7393	3207
809.1456	3214
811.5513	3346
813.9562	3260
816.3625	3324
818.7663	3247
821.1693	3267
823.5718	3446
825.9735	3239
828.3746	3264
830.7771	3223
833.177	3372
835.5762	3274
837.9747	3309
840.3727	3294
842.772	3317
845.1666	3327
847.5626	3327
849.958	3461
852.3527	3363
854.7488	3376
857.1403	3378
859.5331	3498
861.9253	3350
864.3168	3319
866.7057	3399
869.098	3326
871.4876	3407
873.8746	3373
876.263	3357
878.6487	3384
881.0378	3309
883.4243	3341
885.8081	3386
888.1933	3292
890.5759	3344
892.9598	3381
895.343	3350
897.7256	3357
900.1057	3302
902.4871	3339
904.8659	3371
907.246	3412
909.6254	3368
912.0023	3381
914.3786	3457
916.7562	3554
919.1331	3461
921.5074	3501
923.8831	3547
926.2562	3491
928.6287	3581
931.0005	3659
933.3757	3622
935.7462	3578
938.1162	3555
940.4855	3558
942.8542	3608
945.2242	3635
947.5916	3677
949.9584	3686
952.3266	3810
954.6921	3953
957.0571	4054
959.4233	4234
961.787	4181
964.15	4236
966.5125	4135
968.8742	3976
971.2354	3862
973.5959	3760
975.9559	3657
978.3151	3576
980.6738	3486
983.0338	3514
985.3912	3506
987.7461	3466
990.1022	3480
992.4578	3505
994.8127	3470
997.1689	3461
999.5207	3461
1001.874	3509
1004.226	3504
1006.576	3474
1008.929	3490
1011.28	3502
1013.628	3479
1015.977	3579
1018.324	3441
1020.674	3498
1023.019	3465
1025.366	3464
1027.713	3540
1030.056	3429
1032.399	3458
1034.746	3564
1037.087	3621
1039.431	3603
1041.771	3550
1044.113	3547
1046.454	3523
1048.793	3609
1051.133	3516
1053.471	3605
1055.807	3560
1058.146	3536
1060.483	3500
1062.818	3621
1065.153	3534
1067.489	3593
1069.822	3631
1072.156	3636
1074.488	3690
1076.82	3759
1079.15	3548
1081.48	3618
1083.814	3575
1086.143	3649
1088.471	3567
1090.799	3609
1093.126	3611
1095.452	3599
1097.78	3543
1100.105	3565
1102.43	3558
1104.754	3547
1107.077	3613
1109.4	3520
1111.722	3557
1114.044	3583
1116.365	3569
1118.685	3600
1121.005	3634
1123.324	3635
1125.643	3597
1127.961	3645
1130.278	3606
1132.595	3529
1134.911	3559
1137.226	3554
1139.541	3587
1141.854	3575
1144.167	3510
1146.482	3644
1148.793	3585
1151.105	3552
1153.414	3527
1155.725	3503
1158.033	3617
1160.344	3571
1162.651	3626
1164.959	3588
1167.265	3567
1169.572	3631
1171.878	3517
1174.184	3611
1176.488	3516
1178.79	3654
1181.094	3555
1183.396	3568
1185.699	3578
1188.001	3624
1190.301	3537
1192.6	3695
1194.9	3548
1197.2	3591
1199.497	3567
1201.794	3589
1204.09	3534
1206.387	3626
1208.684	3570
1210.978	3582
1213.272	3568
1215.565	3540
1217.858	3709
1220.15	3577
1222.443	3699
1224.734	3623
1227.024	3620
1229.313	3671
1231.602	3662
1233.892	3734
1236.18	3646
1238.467	3758
1240.754	3707
1243.04	3746
1245.325	3773
1247.612	3727
1249.896	3848
1252.178	3788
1254.461	3802
1256.743	3847
1259.027	3840
1261.308	3777
1263.587	3743
1265.867	3809
1268.146	3749
1270.425	3790
1272.703	3695
1274.981	3729
1277.256	3854
1279.532	3672
1281.808	3744
1284.083	3679
1286.358	3729
1288.63	3722
1290.904	3748
1293.175	3719
1295.449	3790
1297.719	3666
1299.99	3723
1302.259	3678
1304.529	3684
1306.798	3740
1309.065	3681
1311.333	3718
1313.599	3703
1315.866	3702
1318.131	3757
1320.396	3749
1322.66	3722
1324.925	3709
1327.187	3732
1329.448	3698
1331.711	3721
1333.974	3721
1336.234	3683
1338.493	3753
1340.752	3660
1343.01	3696
1345.269	3690
1347.526	3811
1349.784	3719
1352.04	3668
1354.295	3614
1356.552	3678
1358.806	3729
1361.059	3726
1363.312	3758
1365.564	3667
1367.818	3668
1370.069	3770
1372.318	3746
1374.568	3728
1376.817	3855
1379.066	3701
1381.316	3841
1383.564	3795
1385.809	3710
1388.056	3794
1390.301	3791
1392.549	3816
1394.793	3802
1397.036	3879
1399.279	3803
1401.522	3778
1403.763	3908
1406.007	3844
1408.248	3811
1410.487	3836
1412.727	3773
1414.965	3807
1417.205	3866
1419.442	3822
1421.68	3877
1423.915	3832
1426.152	3817
1428.388	3878
1430.623	3831
1432.857	3919
1435.091	3908
1437.323	3912
1439.556	3866
1441.789	3983
1444.019	3893
1446.25	3917
1448.48	3922
1450.708	3929
1452.938	3923
1455.167	3931
1457.394	3938
1459.62	3900
1461.846	3952
1464.073	3855
1466.299	3889
1468.523	3954
1470.746	3824
1472.969	3788
1475.191	3858
1477.415	3851
1479.636	3805
1481.858	3814
1484.078	3804
1486.298	3873
1488.518	3808
1490.736	3658
1492.954	3779
1495.169	3755
1497.386	3790
1499.602	3741
1501.819	3729
1504.034	3729
1506.248	3818
1508.462	3769
1510.675	3763
1512.888	3750
1515.1	3797
1517.311	3668
1519.522	3678
1521.732	3746
1523.942	3833
1526.151	3712
1528.36	3686
1530.566	3738
1532.773	3771
1534.98	3722
1537.187	3727
1539.392	3735
1541.596	3764
1543.801	3786
1546.005	3841
1548.208	3789
1550.411	3791
1552.612	3781
1554.814	3792
1557.013	3890
1559.212	3775
1561.414	3886
1563.612	3817
1565.811	3840
1568.007	3761
1570.203	3867
1572.403	3855
1574.598	3782
1576.792	3806
1578.988	3878
1581.181	3833
1583.376	3826
1585.568	3894
1587.761	3920
1589.952	3815
1592.143	3821
1594.333	3798
1596.524	3884
1598.715	3899
1600.903	3891
1603.091	3931
1605.278	3831
1607.466	3806
1609.652	3866
1611.838	3822
1614.023	3882
1616.207	3829
1618.391	3873
1620.576	3874
1622.759	3906
1624.941	3986
1627.123	3848
1629.304	3804
1631.484	3959
1633.664	3871
1635.844	3911
1638.022	3978
1640.201	3843
1642.38	3945
1644.556	3967
1646.732	3915
1648.908	3939
1651.084	3959
1653.257	3932
1655.433	3966
1657.607	4004
1659.779	3971
1661.951	3948
1664.122	3959
1666.295	3870
1668.467	4004
1670.635	4064
1672.805	3969
1674.973	3999
1677.142	3975
1679.31	3979
1681.478	4021
1683.644	3967
1685.81	4007
1687.975	3946
1690.142	3928
1692.305	3908
1694.468	3928
1696.632	3848
1698.794	3882
1700.957	3889
1703.119	3970
1705.279	3884
1707.439	3821
1709.598	3915
1711.758	3858
1713.917	3752
1716.075	3848
1718.231	3758
1720.388	3786
1722.543	3926
1724.702	3881
1726.856	3829
1729.01	3898
1731.164	3892
1733.317	3898
1735.471	3851
1737.623	3833
1739.774	3898
1741.925	3839
1744.075	3885
1746.225	3928
1748.376	3902
1750.524	3866
1752.672	3892
1754.82	3912
1756.965	3933
1759.113	3843
1761.259	3931
1763.405	3802
1765.549	3920
1767.694	3890
1769.836	3922
1771.981	3934
1774.123	3818
1776.264	3880
1778.405	3857
1780.546	3957
1782.687	3882
1784.827	3934
1786.966	3917
1789.103	3879
1791.242	3943
1793.381	3913
1795.517	3883
1797.653	3884
1799.788	3875
1801.923	3823
1804.057	4021
1806.193	3964
1808.326	3885
1810.457	3820
1812.59	3808
1814.721	3890
1816.855	3929
1818.984	3864
1821.113	3932
1823.244	3830
1825.372	3897
1827.499	3896
1829.63	3795
1831.756	3941
1833.882	3909
1836.007	3880
1838.132	3875
1840.26	3855
1842.384	3900
1844.507	3808
1846.63	3893
1848.752	3812
1850.875	3880
1852.996	3840
1855.118	3921
1857.238	3891
1859.358	3910
1861.477	3909
1863.597	3901
1865.715	3893
1867.832	3887
1869.948	3945
1872.064	3865
1874.181	4007
1876.297	3814
1878.411	3792
1880.526	3953
1882.639	3844
1884.752	3889
1886.865	3848
1888.977	3946
1891.089	3946
1893.2	3913
1895.308	3877
1897.42	3904
1899.53	3920
1901.639	3993
1903.745	3875
1905.853	3903
1907.962	3990
1910.067	3903
1912.174	3966
1914.278	3962
1916.383	3891
1918.486	3919
1920.592	3957
1922.694	3917
1924.797	4011
1926.898	3971
1929	3988
1931.102	3982
1933.203	3847
1935.301	3901
1937.401	3856
1939.499	3975
1941.598	3983
1943.697	4006
1945.793	3918
1947.888	3962
1949.985	3942
1952.08	3948
1954.176	3893
1956.269	4042
1958.364	3906
1960.457	3909
1962.549	4061
1964.642	3943
1966.733	3914
1968.823	3907
1970.913	3950
1973.005	3880
1975.093	3925
1977.184	3874
1979.271	3933
1981.359	3909
1983.446	3833
1985.532	3934
1987.619	3901
1989.705	3905
1991.789	3956
1993.874	3965
1995.956	3918
1998.041	3950
2000.123	4039
2002.206	3912
2004.287	3860
2006.368	3873
2008.449	3853
2010.529	3888
2012.609	3972
2014.688	3818
2016.766	3909
2018.843	3960
2020.922	3871
2022.999	3900
2025.074	3891
2027.15	3905
2029.225	3879
2031.299	3864
2033.375	3823
2035.447	3912
2037.52	3885
2039.592	3906
2041.664	3941
2043.736	3934
2045.807	3942
2047.876	3943
2049.947	3950
2052.015	3920
2054.086	3936
2056.153	3932
2058.221	3946
2060.288	3874
2062.353	3911
2064.42	3920
2066.486	3916
2068.55	3928
2070.614	3888
2072.678	3924
2074.741	4018
2076.805	3878
2078.866	3884
2080.929	3894
2082.99	3928
2085.049	3927
2087.109	3948
2089.17	3883
2091.228	3898
2093.286	3886
2095.344	3950
2097.4	4000
2099.46	3890
2101.516	3930
2103.572	3934
2105.626	3895
2107.679	3945
2109.735	3895
2111.788	3902
2113.841	3873
2115.894	3932
2117.945	3996
2119.997	3898
2122.049	3965
2124.1	3924
2126.148	3929
2128.197	3879
2130.246	3847
2132.296	3925
2134.342	3885
2136.39	3804
2138.437	3911
2140.483	3961
2142.527	3957
2144.574	3918
2146.619	3869
2148.661	3864
2150.705	3857
2152.747	4012
2154.792	3992
2156.832	3965
2158.874	3859
2160.915	3932
2162.954	3949
2164.995	3915
2167.034	3857
2169.072	3938
2171.111	3889
2173.148	3789
2175.186	3821
2177.223	3881
2179.258	3805
2181.294	3832
2183.328	3891
2185.362	3777
2187.398	3875
2189.431	3884
2191.463	3861
2193.495	3874
2195.528	3838
2197.56	3893
2199.59	3813
2201.62	3828
2203.649	3799
2205.678	3849
2207.708	3844
2209.737	3883
2211.764	3826
2213.791	3853
2215.817	3883
2217.843	3810
2219.87	3794
2221.895	3790
2223.919	3796
2225.942	3828
2227.966	3762
2229.988	3873
2232.012	3773
2234.032	3845
2236.054	3745
2238.074	3836
2240.095	3793
2242.116	3762
2244.135	3898
2246.153	3807
2248.171	3877
2250.188	3797
2252.208	3789
2254.223	3818
2256.239	3813
2258.255	3842
2260.269	3818
2262.283	3820
2264.3	3878
2266.312	3820
2268.325	3868
2270.336	3767
2272.349	3833
2274.362	3816
2276.372	3885
2278.383	3805
2280.392	3819
2282.402	3816
2284.409	3840
2286.418	3773
2288.427	3920
2290.433	3744
2292.441	3847
2294.446	3837
2296.453	3778
2298.459	3773
2300.463	3944
2302.466	3767
2304.471	3866
2306.475	3795
2308.477	3789
2310.478	3697
2312.481	3854
2314.481	3712
2316.481	3796
2318.482	3726
2320.482	3788
2322.48	3753
2324.48	3796
2326.478	3734
2328.476	3805
2330.473	3761
2332.469	3753
2334.465	3747
2336.46	3749
2338.454	3706
2340.45	3887
2342.444	3761
2344.437	3732
2346.43	3728
2348.421	3735
2350.414	3769
2352.405	3807
2354.396	3768
2356.386	3768
2358.376	3727
2360.366	3753
2362.355	3789
2364.343	3779
2366.331	3749
2368.317	3777
2370.304	3652
2372.292	3801
2374.278	3750
2376.262	3683
2378.247	3757
2380.23	3710
2382.216	3731
2384.199	3729
2386.181	3631
2388.163	3637
2390.144	3781
2392.127	3704
2394.107	3738
2396.087	3739
2398.066	3781
2400.046	3745
2402.023	3707
2404.004	3741
2405.981	3715
2407.957	3680
2409.934	3748
2411.91	3650
2413.886	3712
2415.862	3741
2417.836	3692
2419.809	3678
2421.784	3733
2423.756	3740
2425.73	3683
2427.701	3680
2429.672	3686
2431.644	3731
2433.615	3693
2435.586	3744
2437.555	3712
2439.523	3620
2441.491	3699
2443.459	3739
2445.428	3724
2447.395	3696
2449.361	3749
2451.327	3693
2453.292	3676
2455.257	3649
2457.223	3755
2459.187	3689
2461.15	3659
2463.113	3587
2465.076	3677
2467.039	3663
2468.999	3653
2470.96	3656
2472.921	3688
2474.881	3701
2476.841	3627
2478.8	3658
2480.759	3651
2482.717	3665
2484.675	3658
2486.63	3569
2488.589	3665
2490.545	3741
2492.5	3608
2494.455	3668
2496.408	3673
2498.364	3636
2500.318	3712
2502.27	3548
2504.223	3626
2506.174	3673
2508.126	3704
2510.078	3691
2512.03	3633
2513.979	3566
2515.927	3639
2517.877	3679
2519.826	3629
2521.775	3614
2523.722	3637
2525.668	3688
2527.616	3582
2529.561	3652
2531.508	3672
2533.452	3583
2535.398	3627
2537.342	3634
2539.284	3577
2541.229	3642
2543.173	3653
2545.114	3655
2547.055	3676
2548.996	3596
2550.938	3757
2552.878	3677
2554.817	3617
2556.756	3604
2558.695	3594
2560.633	3543
2562.572	3605
2564.509	3644
2566.445	3570
2568.382	3657
2570.317	3555
2572.254	3650
2574.189	3606
2576.123	3632
2578.057	3632
2579.99	3597
2581.923	3692
2583.855	3603
2585.788	3678
2587.719	3650
2589.65	3669
2591.579	3643
2593.511	3649
2595.44	3648
2597.37	3654
2599.297	3636
2601.225	3592
2603.153	3651
2605.08	3687
2607.007	3626
2608.932	3690
2610.858	3561
2612.782	3527
2614.709	3697
2616.632	3736
2618.556	3498
2620.478	3650
2622.401	3664
2624.324	3750
2626.247	3644
2628.167	3571
2630.088	3683
2632.008	3655
2633.928	3667
2635.848	3659
2637.766	3653
2639.684	3624
2641.603	3641
2643.519	3575
2645.437	3617
2647.353	3571
2649.27	3688
2651.184	3678
2653.099	3708
2655.014	3675
2656.928	3657
2658.842	3690
2660.755	3639
2662.667	3680
2664.579	3654
2666.491	3576
2668.402	3573
2670.312	3607
2672.222	3657
2674.132	3689
2676.042	3577
2677.951	3585
2679.859	3632
2681.766	3558
2683.674	3638
2685.582	3550
2687.488	3542
2689.392	3613
2691.298	3543
2693.202	3661
2695.107	3622
2697.012	3552
2698.914	3532
2700.817	3602
2702.72	3436
2704.622	3560
2706.524	3629
2708.425	3558
2710.326	3590
2712.225	3554
2714.125	3609
2716.024	3597
2717.923	3576
2719.822	3534
2721.719	3579
2723.616	3481
2725.512	3543
2727.41	3478
2729.305	3611
2731.201	3579
2733.095	3597
2734.99	3613
2736.884	3582
2738.778	3618
2740.67	3613
2742.562	3558
2744.455	3664
2746.346	3586
2748.238	3608
2750.129	3628
2752.018	3571
2753.907	3561
2755.797	3589
2757.687	3558
2759.575	3561
2761.462	3483
2763.349	3507
2765.237	3568
2767.124	3533
2769.009	3601
2770.894	3543
2772.779	3560
2774.663	3556
2776.547	3460
2778.431	3529
2780.314	3553
2782.197	3578
2784.078	3541
2785.96	3592
2787.842	3510
2789.723	3615
2791.603	3565
2793.483	3481
2795.362	3576
2797.241	3544
2799.121	3517
2800.997	3489
2802.874	3525
2804.751	3501
2806.628	3486
2808.506	3552
2810.38	3433
2812.255	3493
2814.13	3525
2816.003	3543
2817.878	3532
2819.752	3508
2821.623	3561
2823.496	3520
2825.368	3521
2827.238	3485
2829.111	3627
2830.98	3494
2832.851	3517
2834.719	3536
2836.589	3480
2838.458	3615
2840.327	3481
2842.193	3562
2844.061	3532
2845.927	3508
2847.794	3573
2849.66	3580
2851.525	3687
2853.39	3609
2855.254	3595
2857.117	3606
2858.983	3596
2860.845	3583
2862.707	3565
2864.569	3613
2866.431	3586
2868.293	3583
2870.154	3688
2872.013	3705
2873.873	3690
2875.733	3782
2877.592	3687
2879.451	3754
2881.309	3755
2883.166	3722
2885.022	3874
2886.879	3741
2888.736	3832
2890.591	3876
2892.446	3862
2894.301	3885
2896.155	3818
2898.009	3887
2899.863	3877
2901.716	3862
2903.568	3883
2905.419	3805
2907.27	3846
2909.123	3770
2910.973	3906
2912.824	3834
2914.673	3824
2916.521	3956
2918.372	3932
2920.22	3943
2922.067	3967
2923.914	4020
2925.761	3986
2927.607	4128
2929.455	4164
2931.301	4107
2933.144	4101
2934.99	4067
2936.833	4104
2938.678	4151
2940.522	4209
2942.364	4191
2944.207	4321
2946.048	4310
2947.891	4407
2949.731	4347
2951.571	4304
2953.412	4290
2955.25	4263
2957.09	4271
2958.93	4239
2960.767	4183
2962.606	4148
2964.443	4098
2966.279	4107
2968.116	4049
2969.953	4021
2971.788	3977
2973.623	4000
2975.457	3978
2977.292	3878
2979.127	3910
2980.959	3915
2982.792	3851
2984.624	3737
2986.455	3789
2988.288	3883
2990.119	3779
2991.949	3831
2993.779	3738
2995.608	3712
2997.439	3669
2999.268	3639
3001.096	3681
3002.923	3736
3004.751	3597
3006.578	3599
3008.406	3518
3010.232	3579
3012.057	3592
3013.883	3410
3015.706	3465
3017.532	3440
3019.356	3451
3021.179	3512
3023.002	3410
3024.823	3418
3026.646	3390
3028.469	3401
3030.289	3404
3032.11	3312
3033.93	3378
3035.749	3361
3037.57	3359
3039.39	3441
3041.207	3439
3043.026	3311
3044.842	3383
3046.661	3297
3048.477	3408
3050.294	3319
3052.109	3408
3053.925	3344
3055.739	3300
3057.555	3305
3059.368	3356
3061.181	3314
3062.995	3342
3064.807	3288
3066.62	3295
3068.433	3399
3070.243	3306
3072.054	3304
3073.865	3264
3075.675	3270
3077.485	3267
3079.293	3275
3081.102	3307
3082.911	3323
3084.719	3221
3086.527	3336
3088.333	3235
3090.139	3312
3091.945	3284
3093.75	3366
3095.557	3187
3097.361	3284
3099.165	3304
3100.969	3216
3102.772	3202
3104.575	3230
3106.379	3285
3108.181	3186
3109.982	3261
3111.783	3199
3113.584	3289
3115.386	3171
3117.186	3244
3118.985	3250
3120.783	3161
3122.582	3214
3124.381	3244
3126.179	3157
3127.975	3207
3129.772	3147
3131.569	3115
3133.365	3182
3135.161	3151
3136.956	3229
3138.751	3243
3140.544	3165
3142.338	3219
3144.132	3226
3145.925	3272
3147.717	3177
3149.509	3218
3151.301	3211
3153.091	3120
3154.884	3154
3156.673	3165
3158.462	3239
3160.252	3153
3162.041	3174
3163.831	3134
3165.618	3137
3167.405	3171
3169.193	3157
3170.979	3128
3172.767	3154
3174.553	3183
3176.338	3174
3178.123	3144
3179.907	3146
3181.692	3167
3183.477	3124
3185.259	3164
3187.042	3130
3188.824	3215
3190.607	3117
3192.389	3131
3194.17	3181
3195.951	3094
3197.73	3123
3199.51	3134
3201.289	3146
3203.07	3099
3204.848	3064
3206.626	3124
3208.403	3181
3210.18	3150
3211.959	3171
3213.735	3192
3215.511	3088
3217.285	3103
3219.06	3143
3220.836	3127
3222.611	3089
3224.384	3111
3226.158	3134
3227.929	3129
3229.702	3152
3231.476	3062
3233.248	3157
3235.018	3124
3236.789	3110
3238.56	3189
3240.33	3106
3242.1	3052
3243.869	3181
3245.637	3177
3247.405	3077
3249.172	3131
3250.941	3116
3252.707	3109
3254.474	3126
3256.24	3091
3258.006	3147
3259.772	3149
3261.537	3184
3263.301	3124
3265.065	3129
3266.828	3168
3268.592	3045
3270.355	3133
3272.117	3162
3273.878	3153
3275.64	3145
3277.401	3073
3279.162	3147
3280.922	3071
3282.682	3080
3284.441	3140
3286.199	3154
3287.959	3183
3289.716	3053
3291.475	3148
3293.232	3132
3294.988	3091
3296.744	2983
3298.501	3160
3300.256	3166
3302.011	3127
3303.766	3164
3305.52	3089
3307.275	3094
3309.028	3102
3310.781	3060
3312.533	3083
3314.285	3067
3316.038	3085
3317.789	3065
3319.54	3102
3321.289	3097
3323.039	3106
3324.789	3129
3326.539	3096
3328.288	3039
3330.035	3104
3331.783	3088
3333.531	3149
3335.28	3074
3337.025	3095
3338.771	3011
3340.518	3060
3342.262	3022
3344.009	3038
3345.753	3105
3347.497	3100
3349.24	3123
3350.983	3064
3352.726	3051
3354.469	2988
3356.212	3049
3357.952	3032
3359.694	2995
3361.434	3070
3363.176	2948
3364.916	2960
3366.654	3057
3368.394	3010
3370.132	3028
3371.871	3011
3373.61	2982
3375.346	3042
3377.083	2991
3378.82	2982
3380.556	3017
3382.292	2987
3384.027	2965
3385.763	3057
3387.497	2989
3389.231	2979
3390.965	3026
3392.698	3072
3394.431	2938
3396.164	3014
3397.896	2973
3399.627	3022
3401.36	2998
3403.09	3007
3404.82	2973
3406.55	2896
3408.279	3047
3410.01	2974
3411.738	2981
3413.467	2994
3415.194	2945
3416.92	2922
3418.647	3006
3420.375	2930
3422.102	3020
3423.827	2968
3425.553	2951
3427.277	2950
3429.003	2976
3430.727	2897
3432.451	2980
3434.173	2948
3435.896	2915
3437.62	2960
3439.343	2951
3441.063	2966
3442.785	2903
3444.505	2908
3446.226	2965
3447.948	2905
3449.666	2948
3451.386	2900
3453.104	2983
3454.823	2904
3456.541	2929
3458.259	2837
3459.976	2836
3461.693	2869
3463.408	2876
3465.125	2817
3466.841	2937
3468.556	2864
3470.271	2886
3471.985	2872
3473.698	2852
3475.414	2867
3477.126	2864
3478.838	2928
3480.55	2868
3482.263	2818
3483.975	2902
3485.686	2816
3487.396	2795
3489.106	2790
3490.817	2890
3492.526	2802
3494.236	2878
3495.944	2857
3497.652	2834
3499.359	2782
3501.066	2789
3502.775	2780
3504.481	2832
3506.187	2838
3507.893	2804
3509.598	2721
3511.304	2817
3513.009	2725
3514.713	2828
3516.417	2736
3518.12	2758
3519.821	2850
3521.525	2769
3523.228	2774
3524.929	2804
3526.631	2699
3528.33	2733
3530.032	2702
3531.733	2749
3533.433	2779
3535.131	2810
3536.83	2694
3538.529	2763
3540.227	2795
3541.925	2745
3543.623	2646
3545.319	2725
3547.016	2704
3548.712	2745
3550.408	2706
3552.103	2677
3553.798	2705
3555.491	2707
3557.188	2726
3558.88	2698
3560.574	2656
3562.266	2713
3563.959	2690
3565.651	2709
3567.343	2627
3569.035	2699
3570.725	2678
3572.415	2714
3574.106	2706
3575.797	2688
3577.485	2624
3579.174	2616
3580.863	2665
3582.551	2684
3584.238	2653
3585.926	2652
3587.613	2662
3589.3	2645
3590.986	2603
3592.671	2668
3594.357	2616
3596.042	2635
3597.726	2649
3599.41	2592
3601.094	2630
3602.778	2615
3604.461	2555
3606.143	2661
3607.825	2611
3609.507	2619
3611.188	2614
3612.87	2653
3614.551	2577
3616.229	2607
3617.909	2544
3619.589	2649
3621.269	2582
3622.948	2555
3624.625	2558
3626.302	2585
3627.98	2574
3629.657	2520
3631.334	2627
3633.01	2620
3634.686	2537
3636.361	2565
3638.036	2527
3639.712	2565
3641.385	2606
3643.06	2516
3644.732	2546
3646.405	2506
3648.08	2541
3649.751	2535
3651.424	2557
3653.094	2476
3654.766	2507
3656.436	2504
3658.106	2550
3659.777	2510
3661.446	2498
3663.115	2545
3664.783	2486
3666.452	2555
3668.121	2455
3669.788	2435
3671.454	2539
3673.121	2544
3674.789	2549
3676.455	2521
3678.12	2485
3679.784	2509
3681.45	2479
3683.114	2521
3684.779	2490
3686.442	2427
3688.105	2476
3689.768	2496
3691.43	2414
3693.093	2457
3694.754	2519
3696.415	2499
3698.076	2504
3699.736	2449
3701.396	2476
3703.057	2508
3704.716	2466
3706.375	2443
3708.034	2416
3709.692	2433
3711.351	2404
3713.008	2453
3714.665	2481
3716.321	2413
3717.977	2449
3719.634	2511
3721.29	2473
3722.945	2416
3724.598	2427
3726.253	2406
3727.907	2438
3729.561	2434
3731.214	2413
3732.867	2441
3734.518	2430
3736.171	2467
3737.824	2419
3739.474	2468
3741.125	2448
3742.775	2395
3744.425	2413
3746.074	2387
3747.725	2357
3749.373	2404
3751.022	2417
3752.669	2440
3754.318	2425
3755.966	2351
3757.612	2428
3759.259	2401
3760.905	2395
3762.55	2379
3764.197	2471
3765.842	2377
3767.486	2448
3769.131	2404
3770.774	2412
3772.417	2337
3774.061	2381
3775.705	2399
3777.347	2360
3778.988	2316
3780.629	2394
3782.271	2368
3783.912	2324
3785.552	2338
3787.192	2343
3788.831	2348
3790.472	2320
3792.112	2327
3793.75	2355
3795.388	2366
3797.024	2294
3798.661	2338
3800.3	2343
3801.936	2318
3803.572	2318
3805.208	2324
3806.844	2353
3808.48	2325
3810.115	2314
3811.748	2335
3813.382	2315
3815.016	2347
3816.649	2296
3818.283	2307
3819.914	2313
3821.547	2329
3823.178	2328
3824.809	2357
3826.441	2283
3828.072	2318
3829.701	2372
3831.331	2306
3832.96	2311
3834.591	2258
3836.219	2275
3837.847	2308
3839.475	2246
3841.102	2296
3842.729	2337
3844.357	2268
3845.984	2289
3847.609	2304
3849.234	2318
3850.86	2265
3852.485	2343
3854.11	2222
3855.734	2305
3857.357	2297
3858.981	2238
3860.603	2259
3862.227	2258
3863.848	2295
3865.471	2213
3867.092	2307
3868.713	2281
3870.334	2245
3871.954	2308
3873.575	2264
3875.194	2209
3876.813	2312
3878.433	2171
3880.051	2259
3881.669	2310
3883.286	2235
3884.904	2234
3886.52	2216
3888.138	2277
3889.754	2126
3891.37	2240
3892.985	2229
3894.6	2220
3896.216	2209
3897.831	2202
3899.444	2243
3901.058	2258
3902.67	2179
3904.283	2159
3905.897	2213
3907.509	2236
3909.121	2242
3910.731	2152
3912.342	2248
3913.954	2255
3915.563	2217
3917.174	2208
3918.783	2186
3920.391	2229
3922.002	2229
3923.611	2247
3925.218	2272
3926.826	2197
3928.432	2226
3930.039	2127
3931.647	2211
3933.253	2182
3934.859	2248
3936.464	2209
3938.068	2202
3939.675	2279
3941.278	2247
3942.883	2253
3944.486	2202
3946.089	2162
3947.692	2190
3949.295	2196
3950.898	2186
3952.499	2140
3954.1	2226
3955.7	2098
3957.303	2261
3958.903	2202
3960.502	2189
3962.101	2165
3963.7	2169
3965.301	2174
3966.899	2194
3968.497	2118
3970.094	2182
3971.691	2122
3973.288	2100
3974.885	2142
3976.481	2156
3978.077	2166
3979.672	2090
3981.267	2138
3982.863	2163
3984.457	2192
3986.051	2119
3987.645	2150
3989.238	2102
3990.831	2131
3992.425	2106
3994.017	2146
3995.607	2106
3997.199	2160
3998.79	2172
4000.382	2156
4001.973	2122
4003.561	2059
4005.151	2051
4006.741	2143
4008.331	2122
4009.918	2093
4011.507	2099
4013.095	2035
4014.681	2083
4016.269	2083
4017.856	2058
4019.443	2084
4021.028	2072
4022.614	2122
4024.199	2055
4025.785	2018
4027.37	2034
4028.953	2072
4030.536	2036
4032.12	2083
4033.704	2040
4035.287	2063
4036.869	2001
4038.45	2051
4040.032	1993
4041.613	2095
4043.195	2040
4044.776	2060
4046.356	2033
4047.935	1987
4049.515	2044
4051.095	1991
4052.674	2032
4054.251	2057
4055.829	2059
4057.406	2009
4058.985	2014
4060.562	2062
4062.139	2025
4063.715	2041
4065.29	2036
4066.865	2072
4068.442	1999
4070.016	1983
4071.59	1994
4073.164	2054
4074.738	2056
4076.312	2060
4077.885	2058
4079.458	2080
4081.03	1961
4082.602	1973
4084.173	2013
4085.745	2029
4087.315	1998
4088.886	1995
4090.456	2033
4092.026	2006
4093.596	1971
4095.165	1949
4096.734	2049
4098.301	2018
4099.869	1982
4101.437	1953
4103.006	1983
4104.572	1980
4106.139	1942
4107.704	1985
4109.27	2014
4110.837	1948
4112.401	1969
4113.966	1940
4115.53	1980
4117.094	2022
4118.659	1965
4120.223	1923
4121.785	1966
4123.347	1915
4124.909	1926
4126.471	1918
4128.034	1988
4129.595	1928
4131.155	1946
4132.716	1936
4134.275	1993
4135.836	1951
4137.395	1955
4138.955	1938
4140.513	1923
4142.071	1968
4143.628	1938
4145.188	1917
4146.745	1946
4148.302	1909
4149.858	1950
4151.414	1936
4152.971	1872
4154.526	1927
4156.081	1914
4157.635	1892
4159.189	1924
4160.745	1878
4162.298	1914
4163.852	1908
4165.405	1919
4166.957	1930
4168.51	1855
4170.063	1905
4171.614	1887
4173.166	1959
4174.717	1865
4176.267	1914
4177.817	1922
4179.368	1921
4180.917	1900
4182.466	1910
4184.016	1925
4185.564	1833
4187.112	1833
4188.66	1864
4190.207	1829
4191.754	1949
4193.301	1864
4194.848	1881
4196.394	1802
4197.94	1857
4199.484	1892
4201.03	1857
4202.575	1830
4204.12	1854
4205.663	1875
4207.207	1778
4208.75	1791
4210.292	1849
4211.836	1870
4213.378	1828
4214.92	1841
4216.46	1857
4218.002	1874
4219.544	1822
4221.083	1786
4222.625	1875
4224.164	1830
4225.703	1847
4227.244	1852
4228.782	1891
4230.32	1813
4231.857	1852
4233.395	1851
4234.933	1787
4236.471	1849
4238.007	1832
4239.542	1740
4241.078	1843
4242.614	1827
4244.15	1830
4245.685	1868
4247.219	1820
4248.753	1802
4250.287	1792
4251.82	1835
4253.354	1796
4254.887	1820
4256.419	1806
4257.951	1803
4259.483	1794
4261.016	1813
4262.547	1800
4264.078	1796
4265.608	1811
4267.137	1785
4268.668	1777
4270.197	1800
4271.727	1839
4273.254	1760
4274.783	1774
4276.311	1832
4277.84	1745
4279.366	1819
4280.894	1805
4282.42	1788
4283.946	1813
4285.473	1814
4286.998	1774
4288.523	1763
4290.047	1782
4291.572	1769
4293.096	1786
4294.622	1773
4296.144	1795
4297.668	1807
4299.19	1755
4300.713	1826
4302.236	1807
4303.758	1777
4305.279	1781
4306.799	1720
4308.321	1798
4309.842	1700
4311.361	1806
4312.882	1719
4314.401	1704
