400.0961	2929
402.6185	2906
405.1424	2899
407.6635	2968
410.1838	2945
412.7035	2993
415.2225	2960
417.7388	3095
420.2585	2991
422.7754	3042
425.2917	3042
427.8072	3150
430.3221	3118
432.8363	3110
435.3498	3267
437.8626	3167
440.3727	3150
442.8841	3153
445.3969	3182
447.907	3208
450.4142	3192
452.9229	3136
455.4289	3150
457.9362	3080
460.4449	3144
462.9488	3089
465.454	3070
467.9566	3124
470.4604	3181
472.9637	3088
475.4662	3076
477.966	3181
480.4671	3056
482.9656	3044
485.4633	3064
487.9645	3196
490.4608	3175
492.9566	3151
495.4536	3089
497.948	3159
500.4437	3208
502.9387	3130
505.431	3139
507.9226	3161
510.4136	3195
512.9079	3149
515.3975	3181
517.8864	3140
520.3746	3175
522.8622	3136
525.3491	3220
527.8394	3206
530.3249	3200
532.8098	3198
535.2939	3216
537.7774	3227
540.2623	3205
542.7444	3146
545.2259	3168
547.7067	3304
550.1868	3211
552.6683	3216
555.147	3189
557.6231	3254
560.1005	3258
562.5773	3210
565.0534	3292
567.5308	3328
570.0056	3270
572.4776	3324
574.951	3274
577.4237	3323
579.8978	3318
582.3671	3364
584.8378	3289
587.3079	3448
589.7773	3436
592.244	3346
594.714	3339
597.1793	3348
599.6461	3339
602.1121	3384
604.5754	3239
607.0421	3361
609.5042	3341
611.9675	3239
614.4282	3375
616.8902	3301
619.3515	3284
621.8122	3335
624.2702	3231
626.7296	3284
629.1863	3277
631.6423	3198
634.1017	3212
636.5563	3199
639.0104	3278
641.4658	3302
643.9185	3234
646.3725	3278
648.8239	3289
651.2766	3312
653.7266	3268
656.176	3277
658.6247	3401
661.0748	3248
663.5242	3363
665.9709	3268
668.417	3329
670.8624	3300
673.3092	3354
675.7533	3446
678.1968	3386
680.6395	3339
683.0817	3323
685.5251	3329
687.9659	3301
690.4061	3392
692.8456	3438
695.2844	3362
697.7226	3477
700.1621	3346
702.599	3398
705.0332	3437
707.4688	3449
709.9036	3382
712.3399	3436
714.7735	3470
717.2044	3482
719.6367	3508
722.0683	3481
724.4993	3458
726.9296	3481
729.3593	3431
731.7883	3533
734.2147	3548
736.6423	3498
739.0714	3574
741.4958	3517
743.9216	3524
746.3447	3487
748.7691	3510
751.1929	3553
753.616	3529
756.0366	3620
758.4584	3601
760.8776	3540
763.2982	3578
765.718	3569
768.1373	3604
770.5539	3618
772.9698	3562
775.3871	3642
777.8038	3616
780.2178	3581
782.6332	3712
785.0459	3595
787.458	3619
789.8714	3580
792.2842	3602
794.6943	3629
797.1038	3597
799.5127	3675
801.9209	3645
804.3324	3662
806.7393	3696
809.1456	3688
811.5513	3688
813.9562	3612
816.3625	3696
818.7663	3765
821.1693	3730
823.5718	3732
825.9735	3673
828.3746	3681
830.7771	3603
833.177	3685
835.5762	3738
837.9747	3726
840.3727	3775
842.772	3719
845.1666	3718
847.5626	3756
849.958	3777
852.3527	3904
854.7488	3824
857.1403	3795
859.5331	3853
861.9253	3809
864.3168	3777
866.7057	3847
869.098	3767
871.4876	3672
873.8746	3757
876.263	3692
878.6487	3764
881.0378	3784
883.4243	3803
885.8081	3794
888.1933	3709
890.5759	3769
892.9598	3686
895.343	3773
897.7256	3749
900.1057	3758
902.4871	3785
904.8659	3866
907.246	3717
909.6254	3864
912.0023	3815
914.3786	3815
916.7562	3944
919.1331	4173
921.5074	4057
923.8831	3950
926.2562	4079
928.6287	4006
931.0005	4082
933.3757	3943
935.7462	4044
938.1162	4045
940.4855	4122
942.8542	4099
945.2242	4183
947.5916	4243
949.9584	4489
952.3266	4514
954.6921	4778
957.0571	4945
959.4233	5131
961.787	5207
964.15	5088
966.5125	4814
968.8742	4769
971.2354	4426
973.5959	4270
975.9559	4140
978.3151	4113
980.6738	4017
983.0338	3975
985.3912	3886
987.7461	3956
990.1022	3948
992.4578	3825
994.8127	3959
997.1689	3909
999.5207	3947
1001.874	3934
1004.226	3964
1006.576	3936
1008.929	3917
1011.28	3970
1013.628	3845
1015.977	3979
1018.324	3946
1020.674	4044
1023.019	3953
1025.366	3947
1027.713	3987
1030.056	3945
1032.399	3986
1034.746	3958
1037.087	4024
1039.431	4050
1041.771	4083
1044.113	4076
1046.454	3948
1048.793	3979
1051.133	3994
1053.471	4032
1055.807	3990
1058.146	4108
1060.483	4026
1062.818	4092
1065.153	4114
1067.489	4083
1069.822	4123
1072.156	4149
1074.488	4082
1076.82	4167
1079.15	4054
1081.48	4085
1083.814	4046
1086.143	4024
1088.471	4017
1090.799	4000
1093.126	3977
1095.452	4000
1097.78	4043
1100.105	4112
1102.43	4027
1104.754	3983
1107.077	3995
1109.4	4062
1111.722	3971
1114.044	3938
1116.365	3955
1118.685	3988
1121.005	4048
1123.324	4039
1125.643	4055
1127.961	4040
1130.278	4086
1132.595	3965
1134.911	3968
1137.226	3926
1139.541	4075
1141.854	3966
1144.167	4014
1146.482	4071
1148.793	3990
1151.105	3966
1153.414	4024
1155.725	4015
1158.033	3921
1160.344	4020
1162.651	4055
1164.959	4038
1167.265	3960
1169.572	4054
1171.878	4078
1174.184	4055
1176.488	3961
1178.79	4063
1181.094	4087
1183.396	3962
1185.699	4005
1188.001	4015
1190.301	4013
1192.6	3994
1194.9	4064
1197.2	4107
1199.497	4009
1201.794	4093
1204.09	3987
1206.387	4092
1208.684	4042
1210.978	4042
1213.272	4018
1215.565	3979
1217.858	4023
1220.15	4045
1222.443	4027
1224.734	4086
1227.024	4090
1229.313	4148
1231.602	4173
1233.892	4191
1236.18	4189
1238.467	4116
1240.754	4312
1243.04	4243
1245.325	4272
1247.612	4246
1249.896	4304
1252.178	4284
1254.461	4287
1256.743	4280
1259.027	4274
1261.308	4310
1263.587	4232
1265.867	4309
1268.146	4250
1270.425	4383
1272.703	4244
1274.981	4313
1277.256	4238
1279.532	4255
1281.808	4276
1284.083	4212
1286.358	4265
1288.63	4221
1290.904	4224
1293.175	4189
1295.449	4146
1297.719	4243
1299.99	4153
1302.259	4211
1304.529	4155
1306.798	4149
1309.065	4250
1311.333	4185
1313.599	4154
1315.866	4152
1318.131	4112
1320.396	4227
1322.66	4118
1324.925	4076
1327.187	4166
1329.448	4207
1331.711	4108
1333.974	4264
1336.234	4180
1338.493	4113
1340.752	4283
1343.01	4157
1345.269	4132
1347.526	4125
1349.784	4114
1352.04	4106
1354.295	4146
1356.552	4155
1358.806	4134
1361.059	4148
1363.312	4202
1365.564	4227
1367.818	4169
1370.069	4192
1372.318	4246
1374.568	4135
1376.817	4263
1379.066	4182
1381.316	4078
1383.564	4303
1385.809	4231
1388.056	4339
1390.301	4262
1392.549	4343
1394.793	4353
1397.036	4360
1399.279	4369
1401.522	4413
1403.763	4383
1406.007	4321
1408.248	4396
1410.487	4345
1412.727	4338
1414.965	4308
1417.205	4383
1419.442	4327
1421.68	4379
1423.915	4403
1426.152	4396
1428.388	4342
1430.623	4293
1432.857	4407
1435.091	4392
1437.323	4479
1439.556	4476
1441.789	4520
1444.019	4386
1446.25	4354
1448.48	4406
1450.708	4469
1452.938	4498
1455.167	4480
1457.394	4535
1459.62	4477
1461.846	4373
1464.073	4450
1466.299	4386
1468.523	4339
1470.746	4439
1472.969	4337
1475.191	4363
1477.415	4281
1479.636	4226
1481.858	4256
1484.078	4286
1486.298	4244
1488.518	4279
1490.736	4170
1492.954	4155
1495.169	4220
1497.386	4232
1499.602	4184
1501.819	4179
1504.034	4181
1506.248	4130
1508.462	4171
1510.675	4088
1512.888	4150
1515.1	4195
1517.311	4125
1519.522	4263
1521.732	4144
1523.942	4047
1526.151	4178
1528.36	4139
1530.566	4104
1532.773	4168
1534.98	4173
1537.187	4143
1539.392	4238
1541.596	4180
1543.801	4252
1546.005	4170
1548.208	4238
1550.411	4097
1552.612	4218
1554.814	4185
1557.013	4188
1559.212	4260
1561.414	4150
1563.612	4327
1565.811	4256
1568.007	4284
1570.203	4333
1572.403	4256
1574.598	4237
1576.792	4239
1578.988	4248
1581.181	4288
1583.376	4286
1585.568	4340
1587.761	4362
1589.952	4344
1592.143	4309
1594.333	4245
1596.524	4249
1598.715	4232
1600.903	4347
1603.091	4254
1605.278	4334
1607.466	4360
1609.652	4280
1611.838	4386
1614.023	4368
1616.207	4333
1618.391	4280
1620.576	4379
1622.759	4338
1624.941	4383
1627.123	4380
1629.304	4349
1631.484	4381
1633.664	4417
1635.844	4299
1638.022	4369
1640.201	4451
1642.38	4324
1644.556	4479
1646.732	4389
1648.908	4451
1651.084	4522
1653.257	4477
1655.433	4423
1657.607	4445
1659.779	4427
1661.951	4428
1664.122	4527
1666.295	4494
1668.467	4519
1670.635	4583
1672.805	4451
1674.973	4426
1677.142	4525
1679.31	4574
1681.478	4556
1683.644	4436
1685.81	4500
1687.975	4531
1690.142	4490
1692.305	4444
1694.468	4472
1696.632	4464
1698.794	4439
1700.957	4310
1703.119	4394
1705.279	4307
1707.439	4404
1709.598	4335
1711.758	4345
1713.917	4305
1716.075	4275
1718.231	4213
1720.388	4368
1722.543	4304
1724.702	4340
1726.856	4257
1729.01	4313
1731.164	4252
1733.317	4255
1735.471	4261
1737.623	4271
1739.774	4343
1741.925	4318
1744.075	4334
1746.225	4283
1748.376	4334
1750.524	4232
1752.672	4388
1754.82	4416
1756.965	4494
1759.113	4256
1761.259	4343
1763.405	4242
1765.549	4348
1767.694	4316
1769.836	4266
1771.981	4323
1774.123	4442
1776.264	4340
1778.405	4326
1780.546	4359
1782.687	4307
1784.827	4366
1786.966	4379
1789.103	4328
1791.242	4440
1793.381	4299
1795.517	4422
1797.653	4409
1799.788	4353
1801.923	4365
1804.057	4290
1806.193	4318
1808.326	4321
1810.457	4306
1812.59	4351
1814.721	4291
1816.855	4310
1818.984	4396
1821.113	4309
1823.244	4286
1825.372	4336
1827.499	4291
1829.63	4443
1831.756	4385
1833.882	4317
1836.007	4321
1838.132	4290
1840.26	4319
1842.384	4283
1844.507	4415
1846.63	4310
1848.752	4321
1850.875	4236
1852.996	4284
1855.118	4325
1857.238	4376
1859.358	4308
1861.477	4278
1863.597	4316
1865.715	4334
1867.832	4315
1869.948	4343
1872.064	4250
1874.181	4364
1876.297	4304
1878.411	4323
1880.526	4335
1882.639	4378
1884.752	4353
1886.865	4418
1888.977	4335
1891.089	4335
1893.2	4285
1895.308	4362
1897.42	4341
1899.53	4330
1901.639	4359
1903.745	4376
1905.853	4501
1907.962	4321
1910.067	4378
1912.174	4344
1914.278	4364
1916.383	4308
1918.486	4363
1920.592	4301
1922.694	4402
1924.797	4398
1926.898	4331
1929	4327
1931.102	4386
1933.203	4388
1935.301	4376
1937.401	4407
1939.499	4383
1941.598	4367
1943.697	4380
1945.793	4366
1947.888	4376
1949.985	4386
1952.08	4352
1954.176	4469
1956.269	4422
1958.364	4427
1960.457	4527
1962.549	4469
1964.642	4378
1966.733	4439
1968.823	4383
1970.913	4351
1973.005	4357
1975.093	4370
1977.184	4348
1979.271	4419
1981.359	4394
1983.446	4411
1985.532	4387
1987.619	4453
1989.705	4365
1991.789	4328
1993.874	4388
1995.956	4334
1998.041	4399
2000.123	4395
2002.206	4388
2004.287	4380
2006.368	4371
2008.449	4370
2010.529	4347
2012.609	4360
2014.688	4385
2016.766	4370
2018.843	4459
2020.922	4294
2022.999	4367
2025.074	4460
2027.15	4397
2029.225	4305
2031.299	4376
2033.375	4327
2035.447	4342
2037.52	4287
2039.592	4404
2041.664	4347
2043.736	4322
2045.807	4315
2047.876	4404
2049.947	4375
2052.015	4349
2054.086	4354
2056.153	4419
2058.221	4404
2060.288	4372
2062.353	4362
2064.42	4443
2066.486	4349
2068.55	4459
2070.614	4381
2072.678	4283
2074.741	4372
2076.805	4286
2078.866	4348
2080.929	4332
2082.99	4342
2085.049	4303
2087.109	4378
2089.17	4215
2091.228	4331
2093.286	4277
2095.344	4363
2097.4	4344
2099.46	4387
2101.516	4298
2103.572	4350
2105.626	4401
2107.679	4363
2109.735	4389
2111.788	4428
2113.841	4346
2115.894	4451
2117.945	4385
2119.997	4375
2122.049	4379
2124.1	4363
2126.148	4363
2128.197	4333
2130.246	4314
2132.296	4327
2134.342	4464
2136.39	4450
2138.437	4364
2140.483	4399
2142.527	4369
2144.574	4303
2146.619	4286
2148.661	4451
2150.705	4366
2152.747	4341
2154.792	4437
2156.832	4359
2158.874	4424
2160.915	4366
2162.954	4350
2164.995	4379
2167.034	4341
2169.072	4298
2171.111	4323
2173.148	4343
2175.186	4382
2177.223	4308
2179.258	4340
2181.294	4440
2183.328	4279
2185.362	4359
2187.398	4284
2189.431	4313
2191.463	4282
2193.495	4201
2195.528	4326
2197.56	4348
2199.59	4344
2201.62	4407
2203.649	4322
2205.678	4292
2207.708	4177
2209.737	4288
2211.764	4225
2213.791	4288
2215.817	4228
2217.843	4301
2219.87	4239
2221.895	4307
2223.919	4251
2225.942	4286
2227.966	4352
2229.988	4291
2232.012	4279
2234.032	4334
2236.054	4264
2238.074	4200
2240.095	4215
2242.116	4212
2244.135	4351
2246.153	4276
2248.171	4236
2250.188	4185
2252.208	4277
2254.223	4212
2256.239	4235
2258.255	4267
2260.269	4209
2262.283	4333
2264.3	4291
2266.312	4339
2268.325	4347
2270.336	4222
2272.349	4307
2274.362	4170
2276.372	4281
2278.383	4303
2280.392	4254
2282.402	4185
2284.409	4368
2286.418	4197
2288.427	4362
2290.433	4272
2292.441	4275
2294.446	4217
2296.453	4263
2298.459	4316
2300.463	4205
2302.466	4280
2304.471	4270
2306.475	4244
2308.477	4254
2310.478	4169
2312.481	4333
2314.481	4309
2316.481	4254
2318.482	4206
2320.482	4310
2322.48	4325
2324.48	4269
2326.478	4251
2328.476	4215
2330.473	4208
2332.469	4229
2334.465	4185
2336.46	4292
2338.454	4172
2340.45	4208
2342.444	4245
2344.437	4248
2346.43	4264
2348.421	4170
2350.414	4219
2352.405	4175
2354.396	4223
2356.386	4181
2358.376	4212
2360.366	4219
2362.355	4240
2364.343	4196
2366.331	4178
2368.317	4141
2370.304	4197
2372.292	4168
2374.278	4224
2376.262	4167
2378.247	4122
2380.23	4143
2382.216	4212
2384.199	4208
2386.181	4190
2388.163	4226
2390.144	4075
2392.127	4199
2394.107	4166
2396.087	4169
2398.066	4092
2400.046	4245
2402.023	4128
2404.004	4167
2405.981	4093
2407.957	4093
2409.934	4063
2411.91	4152
2413.886	4131
2415.862	4184
2417.836	4198
2419.809	4130
2421.784	4126
2423.756	4160
2425.73	4161
2427.701	4021
2429.672	4177
2431.644	4061
2433.615	4104
2435.586	4141
2437.555	4100
2439.523	4206
2441.491	4177
2443.459	4179
2445.428	4132
2447.395	4105
2449.361	4203
2451.327	4205
2453.292	4181
2455.257	4121
2457.223	4195
2459.187	4118
2461.15	4093
2463.113	4105
2465.076	4151
2467.039	4135
2468.999	4111
2470.96	4020
2472.921	4124
2474.881	4157
2476.841	4142
2478.8	4077
2480.759	4147
2482.717	4092
2484.675	4143
2486.63	4069
2488.589	4132
2490.545	4092
2492.5	4073
2494.455	4034
2496.408	4108
2498.364	4047
2500.318	4146
2502.27	4124
2504.223	4084
2506.174	4111
2508.126	4033
2510.078	4038
2512.03	4057
2513.979	4063
2515.927	4128
2517.877	4070
2519.826	4041
2521.775	4035
2523.722	4078
2525.668	4203
2527.616	4080
2529.561	4023
2531.508	4123
2533.452	4081
2535.398	4020
2537.342	3998
2539.284	4089
2541.229	4027
2543.173	4110
2545.114	4034
2547.055	4108
2548.996	4034
2550.938	4036
2552.878	4108
2554.817	3991
2556.756	4127
2558.695	4014
2560.633	3953
2562.572	4092
2564.509	4102
2566.445	4140
2568.382	4037
2570.317	4052
2572.254	4055
2574.189	4174
2576.123	4001
2578.057	4056
2579.99	4077
2581.923	4071
2583.855	4112
2585.788	4143
2587.719	4040
2589.65	4089
2591.579	4041
2593.511	4171
2595.44	4073
2597.37	4002
2599.297	3971
2601.225	4098
2603.153	4036
2605.08	4079
2607.007	4026
2608.932	4076
2610.858	3988
2612.782	4063
2614.709	4142
2616.632	4068
2618.556	4031
2620.478	4051
2622.401	4130
2624.324	4130
2626.247	4078
2628.167	4108
2630.088	4038
2632.008	4036
2633.928	4078
2635.848	4034
2637.766	4087
2639.684	4201
2641.603	4018
2643.519	4126
2645.437	4093
2647.353	4164
2649.27	4024
2651.184	4079
2653.099	4107
2655.014	4038
2656.928	4160
2658.842	4072
2660.755	4071
2662.667	4022
2664.579	4050
2666.491	4067
2668.402	4109
2670.312	4096
2672.222	4084
2674.132	4175
2676.042	4062
2677.951	4132
2679.859	4036
2681.766	4150
2683.674	4013
2685.582	4120
2687.488	3990
2689.392	4070
2691.298	4080
2693.202	4059
2695.107	4082
2697.012	3971
2698.914	4008
2700.817	4019
2702.72	4112
2704.622	3942
2706.524	4065
2708.425	3975
2710.326	4114
2712.225	4030
2714.125	3956
2716.024	4030
2717.923	3989
2719.822	3988
2721.719	4063
2723.616	3931
2725.512	4095
2727.41	3958
2729.305	4088
2731.201	3960
2733.095	4082
2734.99	4041
2736.884	4028
2738.778	4034
2740.67	4059
2742.562	4039
2744.455	4015
2746.346	4000
2748.238	4112
2750.129	3994
2752.018	4071
2753.907	4089
2755.797	4036
2757.687	4080
2759.575	3985
2761.462	3976
2763.349	4044
2765.237	4069
2767.124	4061
2769.009	3947
2770.894	4065
2772.779	3987
2774.663	4037
2776.547	3980
2778.431	3897
2780.314	3960
2782.197	4015
2784.078	4059
2785.96	3993
2787.842	4055
2789.723	4073
2791.603	3920
2793.483	3984
2795.362	3955
2797.241	4020
2799.121	3963
2800.997	4024
2802.874	4009
2804.751	3957
2806.628	3949
2808.506	3994
2810.38	4008
2812.255	3952
2814.13	4006
2816.003	3941
2817.878	3964
2819.752	3981
2821.623	4030
2823.496	3993
2825.368	3933
2827.238	4010
2829.111	4047
2830.98	3960
2832.851	3951
2834.719	3976
2836.589	3938
2838.458	4069
2840.327	3983
2842.193	4024
2844.061	4008
2845.927	4105
2847.794	4055
2849.66	4058
2851.525	4184
2853.39	4079
2855.254	4148
2857.117	4093
2858.983	4081
2860.845	4179
2862.707	4163
2864.569	4161
2866.431	4226
2868.293	4268
2870.154	4338
2872.013	4281
2873.873	4363
2875.733	4381
2877.592	4473
2879.451	4396
2881.309	4433
2883.166	4480
2885.022	4616
2886.879	4546
2888.736	4567
2890.591	4562
2892.446	4552
2894.301	4672
2896.155	4625
2898.009	4548
2899.863	4713
2901.716	4553
2903.568	4511
2905.419	4600
2907.27	4393
2909.123	4601
2910.973	4574
2912.824	4609
2914.673	4521
2916.521	4689
2918.372	4868
2920.22	4789
2922.067	4887
2923.914	4875
2925.761	4924
2927.607	4940
2929.455	4962
2931.301	5070
2933.144	5108
2934.99	5267
2936.833	5216
2938.678	5194
2940.522	5352
2942.364	5324
2944.207	5337
2946.048	5419
2947.891	5456
2949.731	5500
2951.571	5499
2953.412	5327
2955.25	5339
2957.09	5303
2958.93	5239
2960.767	5237
2962.606	5150
2964.443	5142
2966.279	5111
2968.116	5049
2969.953	4963
2971.788	4921
2973.623	4797
2975.457	4770
2977.292	4683
2979.127	4749
2980.959	4769
2982.792	4534
2984.624	4631
2986.455	4622
2988.288	4713
2990.119	4557
2991.949	4507
2993.779	4538
2995.608	4438
2997.439	4418
2999.268	4408
3001.096	4365
3002.923	4241
3004.751	4231
3006.578	4159
3008.406	4214
3010.232	4240
3012.057	4118
3013.883	4084
3015.706	4026
3017.532	4064
3019.356	4006
3021.179	4084
3023.002	3942
3024.823	3956
3026.646	3984
3028.469	3986
3030.289	3848
3032.11	3836
3033.93	3833
3035.749	3898
3037.57	3816
3039.39	3872
3041.207	3884
3043.026	3817
3044.842	3896
3046.661	3881
3048.477	3856
3050.294	3730
3052.109	3863
3053.925	3861
3055.739	3778
3057.555	3857
3059.368	3862
3061.181	3871
3062.995	3840
3064.807	3848
3066.62	3817
3068.433	3784
3070.243	3844
3072.054	3873
3073.865	3853
3075.675	3825
3077.485	3775
3079.293	3757
3081.102	3743
3082.911	3793
3084.719	3752
3086.527	3736
3088.333	3669
3090.139	3769
3091.945	3705
3093.75	3854
3095.557	3772
3097.361	3741
3099.165	3772
3100.969	3730
3102.772	3700
3104.575	3705
3106.379	3630
3108.181	3691
3109.982	3658
3111.783	3742
3113.584	3747
3115.386	3692
3117.186	3651
3118.985	3671
3120.783	3686
3122.582	3763
3124.381	3673
3126.179	3667
3127.975	3606
3129.772	3647
3131.569	3700
3133.365	3665
3135.161	3809
3136.956	3679
3138.751	3547
3140.544	3606
3142.338	3574
3144.132	3633
3145.925	3551
3147.717	3599
3149.509	3703
3151.301	3738
3153.091	3696
3154.884	3605
3156.673	3635
3158.462	3534
3160.252	3693
3162.041	3664
3163.831	3633
3165.618	3596
3167.405	3599
3169.193	3642
3170.979	3596
3172.767	3576
3174.553	3610
3176.338	3601
3178.123	3589
3179.907	3539
3181.692	3627
3183.477	3649
3185.259	3611
3187.042	3659
3188.824	3532
3190.607	3582
3192.389	3594
3194.17	3591
3195.951	3641
3197.73	3655
3199.51	3571
3201.289	3506
3203.07	3652
3204.848	3560
3206.626	3640
3208.403	3555
3210.18	3591
3211.959	3646
3213.735	3622
3215.511	3576
3217.285	3612
3219.06	3625
3220.836	3571
3222.611	3549
3224.384	3582
3226.158	3643
3227.929	3594
3229.702	3584
3231.476	3604
3233.248	3514
3235.018	3600
3236.789	3607
3238.56	3598
3240.33	3581
3242.1	3644
3243.869	3514
3245.637	3564
3247.405	3570
3249.172	3567
3250.941	3631
3252.707	3553
3254.474	3632
3256.24	3534
3258.006	3563
3259.772	3529
3261.537	3555
3263.301	3654
3265.065	3586
3266.828	3605
3268.592	3550
3270.355	3566
3272.117	3592
3273.878	3656
3275.64	3585
3277.401	3647
3279.162	3724
3280.922	3600
3282.682	3628
3284.441	3679
3286.199	3587
3287.959	3563
3289.716	3671
3291.475	3621
3293.232	3581
3294.988	3560
3296.744	3628
3298.501	3693
3300.256	3541
3302.011	3587
3303.766	3599
3305.52	3631
3307.275	3615
3309.028	3544
3310.781	3658
3312.533	3600
3314.285	3593
3316.038	3586
3317.789	3493
3319.54	3633
3321.289	3581
3323.039	3573
3324.789	3599
3326.539	3613
3328.288	3579
3330.035	3594
3331.783	3603
3333.531	3596
3335.28	3567
3337.025	3657
3338.771	3611
3340.518	3660
3342.262	3519
3344.009	3606
3345.753	3647
3347.497	3553
3349.24	3546
3350.983	3570
3352.726	3571
3354.469	3544
3356.212	3531
3357.952	3561
3359.694	3511
3361.434	3557
3363.176	3520
3364.916	3564
3366.654	3465
3368.394	3446
3370.132	3534
3371.871	3460
3373.61	3571
3375.346	3510
3377.083	3552
3378.82	3524
3380.556	3620
3382.292	3504
3384.027	3494
3385.763	3484
3387.497	3569
3389.231	3563
3390.965	3466
3392.698	3504
3394.431	3449
3396.164	3541
3397.896	3376
3399.627	3525
3401.36	3475
3403.09	3511
3404.82	3491
3406.55	3496
3408.279	3354
3410.01	3532
3411.738	3536
3413.467	3417
3415.194	3448
3416.92	3440
3418.647	3461
3420.375	3431
3422.102	3403
3423.827	3539
3425.553	3467
3427.277	3503
3429.003	3454
3430.727	3377
3432.451	3429
3434.173	3433
3435.896	3401
3437.62	3381
3439.343	3358
3441.063	3364
3442.785	3429
3444.505	3374
3446.226	3369
3447.948	3365
3449.666	3326
3451.386	3385
3453.104	3391
3454.823	3358
3456.541	3242
3458.259	3254
3459.976	3310
3461.693	3343
3463.408	3421
3465.125	3260
3466.841	3268
3468.556	3283
3470.271	3287
3471.985	3301
3473.698	3266
3475.414	3365
3477.126	3263
3478.838	3310
3480.55	3233
3482.263	3234
3483.975	3200
3485.686	3261
3487.396	3258
3489.106	3350
3490.817	3259
3492.526	3312
3494.236	3312
3495.944	3166
3497.652	3246
3499.359	3206
3501.066	3200
3502.775	3199
3504.481	3224
3506.187	3264
3507.893	3271
3509.598	3186
3511.304	3203
3513.009	3219
3514.713	3314
3516.417	3123
3518.12	3189
3519.821	3211
3521.525	3190
3523.228	3143
3524.929	3228
3526.631	3153
3528.33	3110
3530.032	3112
3531.733	3074
3533.433	3131
3535.131	3147
3536.83	3131
3538.529	3114
3540.227	3144
3541.925	3073
3543.623	3059
3545.319	3138
3547.016	3084
3548.712	3144
3550.408	3079
3552.103	3085
3553.798	3163
3555.491	3143
3557.188	3062
3558.88	3104
3560.574	3123
3562.266	3130
3563.959	3143
3565.651	3081
3567.343	3094
3569.035	3033
3570.725	3115
3572.415	3101
3574.106	3134
3575.797	3105
3577.485	3055
3579.174	3082
3580.863	3043
3582.551	3022
3584.238	3014
3585.926	3089
3587.613	3043
3589.3	2971
3590.986	2964
3592.671	3053
3594.357	3014
3596.042	3046
3597.726	2990
3599.41	3064
3601.094	2982
3602.778	2954
3604.461	2975
3606.143	2911
3607.825	2998
3609.507	2919
3611.188	2942
3612.87	3008
3614.551	2911
3616.229	2892
3617.909	2925
3619.589	2947
3621.269	2871
3622.948	2928
3624.625	2947
3626.302	2904
3627.98	2940
3629.657	2858
3631.334	2842
3633.01	2949
3634.686	2906
3636.361	2826
3638.036	2873
3639.712	2850
3641.385	2890
3643.06	2907
3644.732	2872
3646.405	2886
3648.08	2903
3649.751	2852
3651.424	2799
3653.094	2870
3654.766	2938
3656.436	2892
3658.106	2931
3659.777	2814
3661.446	2824
3663.115	2798
3664.783	2851
3666.452	2834
3668.121	2919
3669.788	2871
3671.454	2851
3673.121	2813
3674.789	2786
3676.455	2811
3678.12	2802
3679.784	2769
3681.45	2785
3683.114	2801
3684.779	2791
3686.442	2769
3688.105	2855
3689.768	2839
3691.43	2800
3693.093	2812
3694.754	2801
3696.415	2753
3698.076	2787
3699.736	2734
3701.396	2819
3703.057	2813
3704.716	2851
3706.375	2791
3708.034	2818
3709.692	2770
3711.351	2737
3713.008	2788
3714.665	2815
3716.321	2697
3717.977	2749
3719.634	2803
3721.29	2710
3722.945	2770
3724.598	2778
3726.253	2810
3727.907	2679
3729.561	2774
3731.214	2731
3732.867	2822
3734.518	2735
3736.171	2754
3737.824	2723
3739.474	2764
3741.125	2700
3742.775	2722
3744.425	2724
3746.074	2729
3747.725	2698
3749.373	2749
3751.022	2721
3752.669	2702
3754.318	2731
3755.966	2723
3757.612	2650
3759.259	2740
3760.905	2662
3762.55	2743
3764.197	2696
3765.842	2756
3767.486	2750
3769.131	2677
3770.774	2693
3772.417	2681
3774.061	2655
3775.705	2699
3777.347	2718
3778.988	2619
3780.629	2720
3782.271	2647
3783.912	2681
3785.552	2639
3787.192	2696
3788.831	2725
3790.472	2644
3792.112	2712
3793.75	2646
3795.388	2609
3797.024	2668
3798.661	2699
3800.3	2628
3801.936	2663
3803.572	2601
3805.208	2712
3806.844	2630
3808.48	2640
3810.115	2612
3811.748	2576
3813.382	2660
3815.016	2676
3816.649	2644
3818.283	2612
3819.914	2642
3821.547	2592
3823.178	2527
3824.809	2588
3826.441	2564
3828.072	2640
3829.701	2592
3831.331	2629
3832.96	2643
3834.591	2604
3836.219	2589
3837.847	2620
3839.475	2584
3841.102	2592
3842.729	2605
3844.357	2612
3845.984	2606
3847.609	2584
3849.234	2509
3850.86	2610
3852.485	2631
3854.11	2557
3855.734	2630
3857.357	2586
3858.981	2519
3860.603	2516
3862.227	2589
3863.848	2595
3865.471	2524
3867.092	2531
3868.713	2538
3870.334	2566
3871.954	2462
3873.575	2531
3875.194	2477
3876.813	2550
3878.433	2572
3880.051	2488
3881.669	2553
3883.286	2438
3884.904	2516
3886.52	2592
3888.138	2557
3889.754	2501
3891.37	2585
3892.985	2525
3894.6	2540
3896.216	2504
3897.831	2552
3899.444	2504
3901.058	2564
3902.67	2523
3904.283	2503
3905.897	2538
3907.509	2558
3909.121	2538
3910.731	2431
3912.342	2586
3913.954	2456
3915.563	2520
3917.174	2487
3918.783	2540
3920.391	2497
3922.002	2545
3923.611	2511
3925.218	2437
3926.826	2547
3928.432	2417
3930.039	2490
3931.647	2521
3933.253	2547
3934.859	2488
3936.464	2486
3938.068	2471
3939.675	2494
3941.278	2462
3942.883	2520
3944.486	2487
3946.089	2499
3947.692	2460
3949.295	2477
3950.898	2470
3952.499	2497
3954.1	2459
3955.7	2440
3957.303	2507
3958.903	2447
3960.502	2506
3962.101	2475
3963.7	2480
3965.301	2463
3966.899	2405
3968.497	2436
3970.094	2360
3971.691	2425
3973.288	2457
3974.885	2458
3976.481	2385
3978.077	2391
3979.672	2439
3981.267	2427
3982.863	2393
3984.457	2410
3986.051	2411
3987.645	2432
3989.238	2377
3990.831	2381
3992.425	2392
3994.017	2447
3995.607	2304
3997.199	2385
3998.79	2383
4000.382	2406
4001.973	2379
4003.561	2365
4005.151	2395
4006.741	2368
4008.331	2315
4009.918	2394
4011.507	2395
4013.095	2384
4014.681	2300
4016.269	2351
4017.856	2321
4019.443	2402
4021.028	2361
4022.614	2302
4024.199	2345
4025.785	2399
4027.37	2410
4028.953	2344
4030.536	2316
4032.12	2307
4033.704	2302
4035.287	2310
4036.869	2333
4038.45	2334
4040.032	2322
4041.613	2314
4043.195	2328
4044.776	2255
4046.356	2287
4047.935	2380
4049.515	2321
4051.095	2263
4052.674	2286
4054.251	2326
4055.829	2340
4057.406	2293
4058.985	2378
4060.562	2342
4062.139	2307
4063.715	2312
4065.29	2322
4066.865	2322
4068.442	2316
4070.016	2349
4071.59	2335
4073.164	2282
4074.738	2285
4076.312	2268
4077.885	2285
4079.458	2322
4081.03	2261
4082.602	2328
4084.173	2249
4085.745	2229
4087.315	2225
4088.886	2271
4090.456	2285
4092.026	2301
4093.596	2281
4095.165	2304
4096.734	2271
4098.301	2302
4099.869	2175
4101.437	2224
4103.006	2217
4104.572	2215
4106.139	2236
4107.704	2284
4109.27	2198
4110.837	2199
4112.401	2288
4113.966	2217
4115.53	2247
4117.094	2245
4118.659	2281
4120.223	2168
4121.785	2237
4123.347	2258
4124.909	2233
4126.471	2146
4128.034	2189
4129.595	2178
4131.155	2230
4132.716	2230
4134.275	2212
4135.836	2194
4137.395	2219
4138.955	2226
4140.513	2152
4142.071	2128
4143.628	2148
4145.188	2162
4146.745	2225
4148.302	2181
4149.858	2164
4151.414	2183
4152.971	2176
4154.526	2225
4156.081	2208
4157.635	2151
4159.189	2167
4160.745	2189
4162.298	2131
4163.852	2154
4165.405	2217
4166.957	2144
4168.51	2169
4170.063	2130
4171.614	2173
4173.166	2137
4174.717	2159
4176.267	2138
4177.817	2122
4179.368	2140
4180.917	2070
4182.466	2132
4184.016	2202
4185.564	2093
4187.112	2027
4188.66	2099
4190.207	2110
4191.754	2133
4193.301	2099
4194.848	2140
4196.394	2077
4197.94	2124
4199.484	2124
4201.03	2156
4202.575	2100
4204.12	2112
4205.663	2068
4207.207	2092
4208.75	2101
4210.292	2123
4211.836	2131
4213.378	2093
4214.92	2101
4216.46	2141
4218.002	2102
4219.544	2071
4221.083	1975
4222.625	2080
4224.164	2124
4225.703	2116
4227.244	2096
4228.782	2117
4230.32	2010
4231.857	2049
4233.395	2060
4234.933	2090
4236.471	2069
4238.007	2101
4239.542	2111
4241.078	2055
4242.614	2031
4244.15	2026
4245.685	2029
4247.219	2059
4248.753	2082
4250.287	2039
4251.82	2084
4253.354	2035
4254.887	2059
4256.419	2025
4257.951	2041
4259.483	1996
4261.016	2053
4262.547	2085
4264.078	2024
4265.608	2029
4267.137	1965
4268.668	2062
4270.197	1978
4271.727	2039
4273.254	2037
4274.783	2089
4276.311	2004
4277.84	1996
4279.366	2030
4280.894	2002
4282.42	2057
4283.946	2022
4285.473	2027
4286.998	2080
4288.523	2037
4290.047	2004
4291.572	2007
4293.096	2013
4294.622	2014
4296.144	1992
4297.668	1992
4299.19	2028
4300.713	2015
4302.236	1997
4303.758	1967
4305.279	1998
4306.799	1963
4308.321	1978
4309.842	2005
4311.361	1989
4312.882	1993
4314.401	1975
