400.0961	6683
402.6185	6634
405.1424	6568
407.6635	6754
410.1838	6800
412.7035	6739
415.2225	6849
417.7388	6760
420.2585	6776
422.7754	6886
425.2917	6996
427.8072	6971
430.3221	6988
432.8363	7116
435.3498	7086
437.8626	7224
440.3727	7155
442.8841	7104
445.3969	7209
447.907	7020
450.4142	7143
452.9229	7064
455.4289	7180
457.9362	7241
460.4449	7173
462.9488	7138
465.454	7173
467.9566	7102
470.4604	7129
472.9637	7093
475.4662	7295
477.966	7182
480.4671	7188
482.9656	7270
485.4633	7260
487.9645	7300
490.4608	7165
492.9566	7324
495.4536	7189
497.948	7279
500.4437	7409
502.9387	7367
505.431	7324
507.9226	7327
510.4136	7302
512.9079	7410
515.3975	7449
517.8864	7420
520.3746	7437
522.8622	7454
525.3491	7394
527.8394	7453
530.3249	7334
532.8098	7517
535.2939	7358
537.7774	7516
540.2623	7432
542.7444	7467
545.2259	7592
547.7067	7520
550.1868	7454
552.6683	7455
555.147	7460
557.6231	7613
560.1005	7575
562.5773	7573
565.0534	7583
567.5308	7590
570.0056	7642
572.4776	7757
574.951	7732
577.4237	7637
579.8978	7817
582.3671	7675
584.8378	7847
587.3079	7812
589.7773	7764
592.244	7858
594.714	7724
597.1793	7752
599.6461	7754
602.1121	7791
604.5754	7751
607.0421	7763
609.5042	7632
611.9675	7688
614.4282	7800
616.8902	7763
619.3515	7789
621.8122	7623
624.2702	7643
626.7296	7692
629.1863	7765
631.6423	7626
634.1017	7770
636.5563	7708
639.0104	7723
641.4658	7723
643.9185	7782
646.3725	7763
648.8239	7724
651.2766	7794
653.7266	7846
656.176	7789
658.6247	7930
661.0748	7846
663.5242	7875
665.9709	7745
668.417	7899
670.8624	7833
673.3092	7884
675.7533	7827
678.1968	7953
680.6395	8011
683.0817	7927
685.5251	7928
687.9659	8079
690.4061	7997
692.8456	7924
695.2844	8087
697.7226	7935
700.1621	8040
702.599	8002
705.0332	8129
707.4688	8060
709.9036	7973
712.3399	8157
714.7735	8251
717.2044	8171
719.6367	8169
722.0683	8152
724.4993	8278
726.9296	8292
729.3593	8064
731.7883	8196
734.2147	8130
736.6423	8264
739.0714	8400
741.4958	8369
743.9216	8451
746.3447	8372
748.7691	8310
751.1929	8462
753.616	8493
756.0366	8458
758.4584	8478
760.8776	8602
763.2982	8490
765.718	8486
768.1373	8529
770.5539	8657
772.9698	8493
775.3871	8680
777.8038	8579
780.2178	8609
782.6332	8617
785.0459	8433
787.458	8731
789.8714	8522
792.2842	8697
794.6943	8587
797.1038	8651
799.5127	8483
801.9209	8550
804.3324	8585
806.7393	8727
809.1456	8496
811.5513	8718
813.9562	8657
816.3625	8714
818.7663	8607
821.1693	8763
823.5718	8743
825.9735	8722
828.3746	8747
830.7771	8610
833.177	8775
835.5762	8800
837.9747	8770
840.3727	8685
842.772	8693
845.1666	8856
847.5626	8863
849.958	8810
852.3527	8933
854.7488	8924
857.1403	8820
859.5331	8761
861.9253	8889
864.3168	8748
866.7057	8843
869.098	8805
871.4876	8844
873.8746	9043
876.263	8880
878.6487	8997
881.0378	8829
883.4243	8877
885.8081	8897
888.1933	8866
890.5759	8823
892.9598	8781
895.343	8790
897.7256	8822
900.1057	8829
902.4871	8797
904.8659	8896
907.246	8999
909.6254	8956
912.0023	8922
914.3786	8927
916.7562	9128
919.1331	9208
921.5074	9183
923.8831	9198
926.2562	9116
928.6287	9240
931.0005	9215
933.3757	9249
935.7462	9314
938.1162	9195
940.4855	9266
942.8542	9492
945.2242	9591
947.5916	9650
949.9584	9740
952.3266	10162
954.6921	10412
957.0571	10711
959.4233	11115
961.787	11032
964.15	11061
966.5125	10798
968.8742	10425
971.2354	9962
973.5959	9815
975.9559	9482
978.3151	9572
980.6738	9372
983.0338	9150
985.3912	9127
987.7461	9142
990.1022	9166
992.4578	9083
994.8127	9060
997.1689	9208
999.5207	9109
1001.874	9140
1004.226	9217
1006.576	9202
1008.929	9159
1011.28	9195
1013.628	9179
1015.977	9243
1018.324	9229
1020.674	9262
1023.019	9254
1025.366	9321
1027.713	9354
1030.056	9299
1032.399	9365
1034.746	9441
1037.087	9452
1039.431	9351
1041.771	9468
1044.113	9384
1046.454	9410
1048.793	9266
1051.133	9258
1053.471	9461
1055.807	9263
1058.146	9517
1060.483	9379
1062.818	9335
1065.153	9513
1067.489	9352
1069.822	9534
1072.156	9643
1074.488	9490
1076.82	9611
1079.15	9523
1081.48	9496
1083.814	9365
1086.143	9512
1088.471	9519
1090.799	9346
1093.126	9435
1095.452	9335
1097.78	9449
1100.105	9471
1102.43	9436
1104.754	9379
1107.077	9422
1109.4	9422
1111.722	9502
1114.044	9351
1116.365	9430
1118.685	9343
1121.005	9370
1123.324	9441
1125.643	9483
1127.961	9308
1130.278	9475
1132.595	9445
1134.911	9455
1137.226	9521
1139.541	9486
1141.854	9498
1144.167	9370
1146.482	9512
1148.793	9459
1151.105	9382
1153.414	9547
1155.725	9478
1158.033	9492
1160.344	9517
1162.651	9478
1164.959	9461
1167.265	9463
1169.572	9521
1171.878	9524
1174.184	9620
1176.488	9455
1178.79	9450
1181.094	9457
1183.396	9516
1185.699	9349
1188.001	9497
1190.301	9448
1192.6	9497
1194.9	9533
1197.2	9453
1199.497	9386
1201.794	9420
1204.09	9434
1206.387	9668
1208.684	9530
1210.978	9489
1213.272	9571
1215.565	9385
1217.858	9561
1220.15	9573
1222.443	9563
1224.734	9516
1227.024	9674
1229.313	9728
1231.602	9556
1233.892	9672
1236.18	9709
1238.467	9797
1240.754	9793
1243.04	9779
1245.325	9689
1247.612	9746
1249.896	9852
1252.178	9750
1254.461	9810
1256.743	9653
1259.027	9748
1261.308	9890
1263.587	9805
1265.867	9749
1268.146	9739
1270.425	9941
1272.703	9918
1274.981	9894
1277.256	9788
1279.532	9931
1281.808	9700
1284.083	9762
1286.358	9843
1288.63	9634
1290.904	9574
1293.175	9660
1295.449	9759
1297.719	9731
1299.99	9699
1302.259	9704
1304.529	9704
1306.798	9749
1309.065	9790
1311.333	9687
1313.599	9703
1315.866	9595
1318.131	9707
1320.396	9722
1322.66	9714
1324.925	9749
1327.187	9845
1329.448	9823
1331.711	9727
1333.974	9736
1336.234	9798
1338.493	9649
1340.752	9859
1343.01	9734
1345.269	9813
1347.526	9803
1349.784	9800
1352.04	9769
1354.295	9716
1356.552	9820
1358.806	9840
1361.059	9963
1363.312	9607
1365.564	9791
1367.818	9684
1370.069	9857
1372.318	9819
1374.568	9909
1376.817	9695
1379.066	9775
1381.316	9920
1383.564	9837
1385.809	9899
1388.056	9838
1390.301	9969
1392.549	9887
1394.793	9944
1397.036	10006
1399.279	9937
1401.522	9875
1403.763	9968
1406.007	10035
1408.248	9917
1410.487	9886
1412.727	9988
1414.965	10161
1417.205	10034
1419.442	9869
1421.68	9945
1423.915	9991
1426.152	9956
1428.388	9981
1430.623	10032
1432.857	10077
1435.091	10002
1437.323	10077
1439.556	10158
1441.789	10126
1444.019	10055
1446.25	10157
1448.48	10120
1450.708	10227
1452.938	10244
1455.167	10157
1457.394	10187
1459.62	10199
1461.846	10210
1464.073	10020
1466.299	10152
1468.523	10027
1470.746	10058
1472.969	10137
1475.191	10122
1477.415	9965
1479.636	9974
1481.858	9948
1484.078	10024
1486.298	9917
1488.518	9753
1490.736	9807
1492.954	9828
1495.169	9790
1497.386	9759
1499.602	9798
1501.819	9838
1504.034	9764
1506.248	9877
1508.462	9789
1510.675	9658
1512.888	9797
1515.1	9853
1517.311	9872
1519.522	9912
1521.732	9788
1523.942	9844
1526.151	9695
1528.36	9905
1530.566	9802
1532.773	9659
1534.98	9798
1537.187	9754
1539.392	9865
1541.596	9839
1543.801	9848
1546.005	9815
1548.208	9852
1550.411	9893
1552.612	9882
1554.814	10057
1557.013	9877
1559.212	9993
1561.414	10038
1563.612	9916
1565.811	10105
1568.007	10041
1570.203	9984
1572.403	10015
1574.598	9858
1576.792	9974
1578.988	9988
1581.181	9955
1583.376	10103
1585.568	10090
1587.761	9923
1589.952	9918
1592.143	10143
1594.333	10167
1596.524	10125
1598.715	10138
1600.903	10074
1603.091	9973
1605.278	10081
1607.466	10097
1609.652	10064
1611.838	10140
1614.023	10214
1616.207	10158
1618.391	10156
1620.576	10031
1622.759	10209
1624.941	10143
1627.123	9999
1629.304	10213
1631.484	10293
1633.664	10251
1635.844	10252
1638.022	10195
1640.201	10272
1642.38	10176
1644.556	10202
1646.732	10181
1648.908	10299
1651.084	10178
1653.257	10290
1655.433	10104
1657.607	10138
1659.779	10280
1661.951	10226
1664.122	10393
1666.295	10439
1668.467	10236
1670.635	10338
1672.805	10471
1674.973	10349
1677.142	10182
1679.31	10303
1681.478	10201
1683.644	10320
1685.81	10210
1687.975	10102
1690.142	10268
1692.305	10146
1694.468	10122
1696.632	10113
1698.794	10143
1700.957	10064
1703.119	10078
1705.279	10034
1707.439	10044
1709.598	10185
1711.758	10094
1713.917	10103
1716.075	10125
1718.231	10114
1720.388	10110
1722.543	10038
1724.702	10071
1726.856	10098
1729.01	10064
1731.164	9982
1733.317	10003
1735.471	10152
1737.623	10050
1739.774	10171
1741.925	9948
1744.075	10039
1746.225	10086
1748.376	9970
1750.524	10107
1752.672	10074
1754.82	9977
1756.965	10079
1759.113	10064
1761.259	10208
1763.405	10233
1765.549	10115
1767.694	10218
1769.836	10127
1771.981	10174
1774.123	10066
1776.264	10272
1778.405	10187
1780.546	10273
1782.687	10101
1784.827	10279
1786.966	10110
1789.103	10361
1791.242	10129
1793.381	10215
1795.517	10151
1797.653	10154
1799.788	9959
1801.923	10350
1804.057	10150
1806.193	10131
1808.326	10253
1810.457	10126
1812.59	10202
1814.721	10262
1816.855	10274
1818.984	10119
1821.113	10177
1823.244	10096
1825.372	10051
1827.499	10020
1829.63	10016
1831.756	9953
1833.882	10050
1836.007	10038
1838.132	10086
1840.26	10206
1842.384	10101
1844.507	10063
1846.63	10271
1848.752	9943
1850.875	9940
1852.996	10126
1855.118	10019
1857.238	9931
1859.358	9956
1861.477	10135
1863.597	10089
1865.715	9966
1867.832	10081
1869.948	10109
1872.064	9930
1874.181	10015
1876.297	10030
1878.411	9949
1880.526	9973
1882.639	10069
1884.752	9993
1886.865	10030
1888.977	10075
1891.089	10032
1893.2	10016
1895.308	10072
1897.42	10191
1899.53	9998
1901.639	10089
1903.745	10042
1905.853	10109
1907.962	10111
1910.067	10033
1912.174	10046
1914.278	10129
1916.383	10196
1918.486	10200
1920.592	10065
1922.694	10181
1924.797	10190
1926.898	10210
1929	10065
1931.102	10087
1933.203	10239
1935.301	10220
1937.401	10044
1939.499	10101
1941.598	10163
1943.697	10236
1945.793	10249
1947.888	10223
1949.985	10277
1952.08	10039
1954.176	10073
1956.269	10002
1958.364	10030
1960.457	10127
1962.549	10218
1964.642	10210
1966.733	10301
1968.823	10263
1970.913	10141
1973.005	10106
1975.093	10210
1977.184	10095
1979.271	10098
1981.359	9996
1983.446	9948
1985.532	10105
1987.619	10133
1989.705	10109
1991.789	10037
1993.874	10075
1995.956	9923
1998.041	10032
2000.123	9953
2002.206	10074
2004.287	10093
2006.368	9936
2008.449	9967
2010.529	9955
2012.609	10224
2014.688	10016
2016.766	9998
2018.843	10020
2020.922	10032
2022.999	10026
2025.074	10008
2027.15	10011
2029.225	9968
2031.299	10085
2033.375	10026
2035.447	10069
2037.52	9881
2039.592	10060
2041.664	9981
2043.736	10021
2045.807	9913
2047.876	10028
2049.947	9953
2052.015	9924
2054.086	10053
2056.153	9996
2058.221	10048
2060.288	10000
2062.353	10042
2064.42	10086
2066.486	10111
2068.55	10188
2070.614	9830
2072.678	10013
2074.741	10083
2076.805	10041
2078.866	10067
2080.929	10014
2082.99	9985
2085.049	10044
2087.109	9890
2089.17	10042
2091.228	10107
2093.286	10016
2095.344	10017
2097.4	10005
2099.46	9972
2101.516	10014
2103.572	10018
2105.626	9926
2107.679	9999
2109.735	9964
2111.788	10002
2113.841	9958
2115.894	9931
2117.945	9966
2119.997	9986
2122.049	9965
2124.1	10087
2126.148	9873
2128.197	9901
2130.246	9960
2132.296	10024
2134.342	9987
2136.39	9919
2138.437	9911
2140.483	9957
2142.527	10010
2144.574	9870
2146.619	9941
2148.661	9826
2150.705	9804
2152.747	9820
2154.792	10035
2156.832	9955
2158.874	9811
2160.915	9798
2162.954	9835
2164.995	9915
2167.034	9977
2169.072	9822
2171.111	9756
2173.148	9899
2175.186	9788
2177.223	9854
2179.258	9766
2181.294	9938
2183.328	9797
2185.362	9789
2187.398	9717
2189.431	9784
2191.463	9725
2193.495	9920
2195.528	9703
2197.56	9740
2199.59	9636
2201.62	9583
2203.649	9628
2205.678	9680
2207.708	9662
2209.737	9701
2211.764	9694
2213.791	9605
2215.817	9654
2217.843	9684
2219.87	9782
2221.895	9664
2223.919	9799
2225.942	9546
2227.966	9629
2229.988	9561
2232.012	9630
2234.032	9798
2236.054	9722
2238.074	9590
2240.095	9756
2242.116	9624
2244.135	9721
2246.153	9524
2248.171	9812
2250.188	9565
2252.208	9538
2254.223	9681
2256.239	9679
2258.255	9718
2260.269	9713
2262.283	9626
2264.3	9692
2266.312	9647
2268.325	9618
2270.336	9533
2272.349	9654
2274.362	9598
2276.372	9630
2278.383	9664
2280.392	9558
2282.402	9676
2284.409	9494
2286.418	9607
2288.427	9697
2290.433	9652
2292.441	9719
2294.446	9559
2296.453	9576
2298.459	9557
2300.463	9746
2302.466	9746
2304.471	9607
2306.475	9507
2308.477	9622
2310.478	9577
2312.481	9568
2314.481	9479
2316.481	9616
2318.482	9557
2320.482	9462
2322.48	9506
2324.48	9654
2326.478	9447
2328.476	9511
2330.473	9536
2332.469	9461
2334.465	9416
2336.46	9535
2338.454	9473
2340.45	9393
2342.444	9380
2344.437	9350
2346.43	9491
2348.421	9392
2350.414	9425
2352.405	9344
2354.396	9427
2356.386	9624
2358.376	9389
2360.366	9345
2362.355	9413
2364.343	9339
2366.331	9326
2368.317	9379
2370.304	9269
2372.292	9437
2374.278	9222
2376.262	9285
2378.247	9334
2380.23	9260
2382.216	9380
2384.199	9232
2386.181	9366
2388.163	9380
2390.144	9284
2392.127	9381
2394.107	9231
2396.087	9333
2398.066	9373
2400.046	9409
2402.023	9227
2404.004	9111
2405.981	9192
2407.957	9271
2409.934	9263
2411.91	9347
2413.886	9209
2415.862	9218
2417.836	9191
2419.809	9184
2421.784	9304
2423.756	9253
2425.73	9256
2427.701	9170
2429.672	9328
2431.644	9298
2433.615	9312
2435.586	9245
2437.555	9238
2439.523	9129
2441.491	9111
2443.459	9320
2445.428	9251
2447.395	9292
2449.361	9239
2451.327	9092
2453.292	9092
2455.257	9204
2457.223	9077
2459.187	9105
2461.15	9083
2463.113	9104
2465.076	9127
2467.039	9061
2468.999	9181
2470.96	9265
2472.921	9077
2474.881	9143
2476.841	9062
2478.8	8991
2480.759	9176
2482.717	9131
2484.675	9189
2486.63	8978
2488.589	9027
2490.545	9052
2492.5	9004
2494.455	8985
2496.408	8988
2498.364	8926
2500.318	9119
2502.27	9092
2504.223	9001
2506.174	9024
2508.126	9099
2510.078	8854
2512.03	9006
2513.979	9017
2515.927	9083
2517.877	9011
2519.826	8925
2521.775	9079
2523.722	8941
2525.668	9024
2527.616	8956
2529.561	8877
2531.508	8896
2533.452	8986
2535.398	8940
2537.342	8811
2539.284	8941
2541.229	9028
2543.173	8931
2545.114	8840
2547.055	8966
2548.996	8776
2550.938	8849
2552.878	8913
2554.817	8845
2556.756	8939
2558.695	8826
2560.633	8924
2562.572	8894
2564.509	9038
2566.445	8974
2568.382	8932
2570.317	8788
2572.254	8774
2574.189	8906
2576.123	8795
2578.057	8879
2579.99	8917
2581.923	8729
2583.855	8887
2585.788	8951
2587.719	8973
2589.65	8941
2591.579	8860
2593.511	8885
2595.44	8820
2597.37	8924
2599.297	8966
2601.225	8872
2603.153	8896
2605.08	8941
2607.007	8924
2608.932	8834
2610.858	8854
2612.782	8972
2614.709	8819
2616.632	8919
2618.556	8722
2620.478	8886
2622.401	9021
2624.324	8890
2626.247	8931
2628.167	8958
2630.088	8923
2632.008	8953
2633.928	9033
2635.848	8889
2637.766	8808
2639.684	9004
2641.603	8878
2643.519	8840
2645.437	8781
2647.353	8931
2649.27	8871
2651.184	8773
2653.099	8904
2655.014	8863
2656.928	8842
2658.842	8967
2660.755	8862
2662.667	8890
2664.579	8797
2666.491	8862
2668.402	8993
2670.312	8886
2672.222	8682
2674.132	8903
2676.042	8838
2677.951	8720
2679.859	8969
2681.766	8715
2683.674	8811
2685.582	8921
2687.488	8782
2689.392	8754
2691.298	8783
2693.202	8735
2695.107	8785
2697.012	8685
2698.914	8770
2700.817	8792
2702.72	8773
2704.622	8720
2706.524	8735
2708.425	8567
2710.326	8796
2712.225	8623
2714.125	8592
2716.024	8723
2717.923	8700
2719.822	8548
2721.719	8644
2723.616	8629
2725.512	8745
2727.41	8753
2729.305	8682
2731.201	8721
2733.095	8533
2734.99	8618
2736.884	8597
2738.778	8583
2740.67	8728
2742.562	8616
2744.455	8733
2746.346	8494
2748.238	8611
2750.129	8837
2752.018	8626
2753.907	8555
2755.797	8573
2757.687	8650
2759.575	8601
2761.462	8616
2763.349	8780
2765.237	8531
2767.124	8622
2769.009	8595
2770.894	8529
2772.779	8675
2774.663	8620
2776.547	8639
2778.431	8444
2780.314	8591
2782.197	8479
2784.078	8662
2785.96	8514
2787.842	8517
2789.723	8619
2791.603	8560
2793.483	8545
2795.362	8562
2797.241	8487
2799.121	8447
2800.997	8364
2802.874	8512
2804.751	8348
2806.628	8593
2808.506	8428
2810.38	8464
2812.255	8369
2814.13	8408
2816.003	8581
2817.878	8507
2819.752	8498
2821.623	8463
2823.496	8504
2825.368	8470
2827.238	8426
2829.111	8420
2830.98	8469
2832.851	8300
2834.719	8432
2836.589	8480
2838.458	8295
2840.327	8444
2842.193	8464
2844.061	8475
2845.927	8623
2847.794	8431
2849.66	8430
2851.525	8439
2853.39	8483
2855.254	8354
2857.117	8530
2858.983	8411
2860.845	8574
2862.707	8490
2864.569	8526
2866.431	8694
2868.293	8582
2870.154	8710
2872.013	8761
2873.873	8684
2875.733	8734
2877.592	8706
2879.451	8904
2881.309	8699
2883.166	8880
2885.022	8939
2886.879	8908
2888.736	8910
2890.591	8852
2892.446	8889
2894.301	9007
2896.155	8980
2898.009	8991
2899.863	9034
2901.716	8791
2903.568	8905
2905.419	8873
2907.27	8874
2909.123	8966
2910.973	8836
2912.824	9012
2914.673	9054
2916.521	9035
2918.372	9161
2920.22	9175
2922.067	9202
2923.914	9297
2925.761	9428
2927.607	9349
2929.455	9261
2931.301	9387
2933.144	9452
2934.99	9505
2936.833	9587
2938.678	9678
2940.522	9580
2942.364	9655
2944.207	9751
2946.048	9812
2947.891	9686
2949.731	9581
2951.571	9662
2953.412	9580
2955.25	9597
2957.09	9456
2958.93	9432
2960.767	9437
2962.606	9353
2964.443	9251
2966.279	9191
2968.116	9133
2969.953	9090
2971.788	8988
2973.623	9199
2975.457	8975
2977.292	9073
2979.127	8808
2980.959	8920
2982.792	8917
2984.624	8796
2986.455	8790
2988.288	8756
2990.119	8658
2991.949	8785
2993.779	8665
2995.608	8647
2997.439	8705
2999.268	8535
3001.096	8534
3002.923	8380
3004.751	8490
3006.578	8271
3008.406	8441
3010.232	8261
3012.057	8263
3013.883	8142
3015.706	8306
3017.532	8084
3019.356	8051
3021.179	8121
3023.002	8144
3024.823	7993
3026.646	7971
3028.469	8068
3030.289	7984
3032.11	8072
3033.93	7966
3035.749	7974
3037.57	7989
3039.39	7954
3041.207	8024
3043.026	7884
3044.842	7882
3046.661	7824
3048.477	7902
3050.294	7945
3052.109	7954
3053.925	7870
3055.739	7786
3057.555	7887
3059.368	7965
3061.181	7832
3062.995	7849
3064.807	7888
3066.62	7733
3068.433	7914
3070.243	7835
3072.054	7764
3073.865	7844
3075.675	7791
3077.485	7802
3079.293	7738
3081.102	7801
3082.911	7832
3084.719	7737
3086.527	7806
3088.333	7718
3090.139	7791
3091.945	7535
3093.75	7661
3095.557	7682
3097.361	7636
3099.165	7537
3100.969	7689
3102.772	7556
3104.575	7519
3106.379	7540
3108.181	7554
3109.982	7559
3111.783	7520
3113.584	7617
3115.386	7549
3117.186	7526
3118.985	7570
3120.783	7591
3122.582	7659
3124.381	7405
3126.179	7549
3127.975	7457
3129.772	7360
3131.569	7509
3133.365	7312
3135.161	7418
3136.956	7493
3138.751	7497
3140.544	7263
3142.338	7427
3144.132	7397
3145.925	7285
3147.717	7407
3149.509	7406
3151.301	7355
3153.091	7413
3154.884	7363
3156.673	7476
3158.462	7266
3160.252	7441
3162.041	7374
3163.831	7421
3165.618	7384
3167.405	7389
3169.193	7377
3170.979	7229
3172.767	7280
3174.553	7253
3176.338	7263
3178.123	7352
3179.907	7365
3181.692	7350
3183.477	7286
3185.259	7358
3187.042	7153
3188.824	7245
3190.607	7255
3192.389	7351
3194.17	7249
3195.951	7375
3197.73	7183
3199.51	7241
3201.289	7194
3203.07	7260
3204.848	7185
3206.626	7218
3208.403	7256
3210.18	7267
3211.959	7354
3213.735	7243
3215.511	7163
3217.285	7267
3219.06	7165
3220.836	7170
3222.611	7080
3224.384	7220
3226.158	7239
3227.929	7251
3229.702	7188
3231.476	7248
3233.248	6997
3235.018	7179
3236.789	7238
3238.56	7224
3240.33	7089
3242.1	7264
3243.869	7087
3245.637	7267
3247.405	7180
3249.172	7185
3250.941	7201
3252.707	7118
3254.474	7008
3256.24	7201
3258.006	7087
3259.772	7149
3261.537	7037
3263.301	7178
3265.065	7210
3266.828	7195
3268.592	7015
3270.355	7054
3272.117	7238
3273.878	7235
3275.64	7149
3277.401	7143
3279.162	7036
3280.922	7159
3282.682	6961
3284.441	7078
3286.199	7086
3287.959	7083
3289.716	7087
3291.475	7129
3293.232	7094
3294.988	7078
3296.744	6895
3298.501	7125
3300.256	7126
3302.011	7023
3303.766	6986
3305.52	7029
3307.275	6951
3309.028	6999
3310.781	7130
3312.533	7139
3314.285	7046
3316.038	7185
3317.789	7018
3319.54	7114
3321.289	7058
3323.039	7070
3324.789	7040
3326.539	7082
3328.288	7023
3330.035	7136
3331.783	6962
3333.531	7096
3335.28	7123
3337.025	7021
3338.771	7025
3340.518	6990
3342.262	7006
3344.009	7026
3345.753	6871
3347.497	6945
3349.24	7024
3350.983	6940
3352.726	7095
3354.469	6991
3356.212	6981
3357.952	6927
3359.694	6959
3361.434	7019
3363.176	6907
3364.916	7024
3366.654	6897
3368.394	6971
3370.132	6903
3371.871	6907
3373.61	6854
3375.346	6829
3377.083	6749
3378.82	6846
3380.556	6876
3382.292	6851
3384.027	6778
3385.763	6808
3387.497	6719
3389.231	6779
3390.965	6704
3392.698	6754
3394.431	6779
3396.164	6757
3397.896	6705
3399.627	6815
3401.36	6716
3403.09	6752
3404.82	6850
3406.55	6668
3408.279	6760
3410.01	6664
3411.738	6760
3413.467	6725
3415.194	6758
3416.92	6659
3418.647	6680
3420.375	6596
3422.102	6688
3423.827	6557
3425.553	6527
3427.277	6615
3429.003	6764
3430.727	6530
3432.451	6678
3434.173	6642
3435.896	6696
3437.62	6567
3439.343	6619
3441.063	6631
3442.785	6627
3444.505	6585
3446.226	6651
3447.948	6620
3449.666	6517
3451.386	6564
3453.104	6504
3454.823	6656
3456.541	6474
3458.259	6438
3459.976	6519
3461.693	6458
3463.408	6288
3465.125	6530
3466.841	6377
3468.556	6457
3470.271	6493
3471.985	6462
3473.698	6457
3475.414	6443
3477.126	6398
3478.838	6298
3480.55	6400
3482.263	6345
3483.975	6412
3485.686	6345
3487.396	6396
3489.106	6302
3490.817	6328
3492.526	6453
3494.236	6429
3495.944	6264
3497.652	6184
3499.359	6355
3501.066	6151
3502.775	6315
3504.481	6404
3506.187	6315
3507.893	6314
3509.598	6093
3511.304	6258
3513.009	6184
3514.713	6180
3516.417	6323
3518.12	6289
3519.821	6202
3521.525	6220
3523.228	6181
3524.929	6213
3526.631	6213
3528.33	6216
3530.032	6155
3531.733	6164
3533.433	6257
3535.131	6100
3536.83	5951
3538.529	6135
3540.227	6204
3541.925	6127
3543.623	6192
3545.319	6143
3547.016	6184
3548.712	6107
3550.408	6168
3552.103	6123
3553.798	5996
3555.491	6052
3557.188	6029
3558.88	6112
3560.574	6032
3562.266	6173
3563.959	6163
3565.651	5959
3567.343	5951
3569.035	6048
3570.725	6008
3572.415	6093
3574.106	5966
3575.797	5979
3577.485	5963
3579.174	5983
3580.863	5979
3582.551	5992
3584.238	5988
3585.926	5875
3587.613	5937
3589.3	5985
3590.986	5923
3592.671	5827
3594.357	5852
3596.042	5889
3597.726	5872
3599.41	5988
3601.094	5776
3602.778	5815
3604.461	5921
3606.143	5790
3607.825	5735
3609.507	5796
3611.188	5811
3612.87	5696
3614.551	5884
3616.229	5677
3617.909	5809
3619.589	5721
3621.269	5792
3622.948	5623
3624.625	5699
3626.302	5667
3627.98	5683
3629.657	5622
3631.334	5670
3633.01	5810
3634.686	5736
3636.361	5588
3638.036	5786
3639.712	5642
3641.385	5675
3643.06	5529
3644.732	5707
3646.405	5640
3648.08	5623
3649.751	5647
3651.424	5681
3653.094	5628
3654.766	5505
3656.436	5620
3658.106	5547
3659.777	5473
3661.446	5659
3663.115	5626
3664.783	5503
3666.452	5651
3668.121	5542
3669.788	5556
3671.454	5554
3673.121	5466
3674.789	5496
3676.455	5508
3678.12	5634
3679.784	5566
3681.45	5571
3683.114	5430
3684.779	5506
3686.442	5374
3688.105	5453
3689.768	5545
3691.43	5549
3693.093	5433
3694.754	5443
3696.415	5367
3698.076	5315
3699.736	5425
3701.396	5400
3703.057	5427
3704.716	5410
3706.375	5441
3708.034	5285
3709.692	5427
3711.351	5376
3713.008	5497
3714.665	5367
3716.321	5467
3717.977	5452
3719.634	5381
3721.29	5275
3722.945	5424
3724.598	5368
3726.253	5391
3727.907	5432
3729.561	5391
3731.214	5375
3732.867	5342
3734.518	5232
3736.171	5424
3737.824	5296
3739.474	5320
3741.125	5347
3742.775	5308
3744.425	5322
3746.074	5270
3747.725	5316
3749.373	5327
3751.022	5230
3752.669	5298
3754.318	5238
3755.966	5253
3757.612	5237
3759.259	5243
3760.905	5330
3762.55	5345
3764.197	5204
3765.842	5128
3767.486	5156
3769.131	5349
3770.774	5252
3772.417	5232
3774.061	5210
3775.705	5160
3777.347	5251
3778.988	5141
3780.629	5236
3782.271	5188
3783.912	5192
3785.552	5181
3787.192	5112
3788.831	5177
3790.472	5202
3792.112	5230
3793.75	5189
3795.388	5104
3797.024	5176
3798.661	5158
3800.3	5128
3801.936	5038
3803.572	5085
3805.208	5067
3806.844	5113
3808.48	5141
3810.115	5054
3811.748	5012
3813.382	5170
3815.016	5103
3816.649	4973
3818.283	5084
3819.914	5012
3821.547	4982
3823.178	5039
3824.809	5100
3826.441	5053
3828.072	5031
3829.701	5132
3831.331	5003
3832.96	4989
3834.591	4997
3836.219	4968
3837.847	4992
3839.475	5033
3841.102	5048
3842.729	4967
3844.357	4933
3845.984	4968
3847.609	4972
3849.234	4978
3850.86	4961
3852.485	4911
3854.11	4943
3855.734	5005
3857.357	4963
3858.981	4978
3860.603	4857
3862.227	4902
3863.848	4901
3865.471	4825
3867.092	4876
3868.713	4868
3870.334	4910
3871.954	4902
3873.575	4929
3875.194	4874
3876.813	4808
3878.433	4816
3880.051	4853
3881.669	4864
3883.286	4829
3884.904	4900
3886.52	4868
3888.138	4800
3889.754	4878
3891.37	4813
3892.985	4856
3894.6	4754
3896.216	4853
3897.831	4715
3899.444	4769
3901.058	4840
3902.67	4784
3904.283	4910
3905.897	4805
3907.509	4835
3909.121	4765
3910.731	4742
3912.342	4876
3913.954	4882
3915.563	4759
3917.174	4776
3918.783	4707
3920.391	4797
3922.002	4848
3923.611	4837
3925.218	4700
3926.826	4782
3928.432	4779
3930.039	4760
3931.647	4678
3933.253	4796
3934.859	4742
3936.464	4692
3938.068	4576
3939.675	4774
3941.278	4687
3942.883	4786
3944.486	4751
3946.089	4765
3947.692	4804
3949.295	4673
3950.898	4661
3952.499	4587
3954.1	4683
3955.7	4707
3957.303	4770
3958.903	4675
3960.502	4769
3962.101	4599
3963.7	4708
3965.301	4763
3966.899	4570
3968.497	4703
3970.094	4594
3971.691	4524
3973.288	4575
3974.885	4628
3976.481	4633
3978.077	4652
3979.672	4576
3981.267	4542
3982.863	4613
3984.457	4667
3986.051	4567
3987.645	4498
3989.238	4574
3990.831	4403
3992.425	4560
3994.017	4533
3995.607	4560
3997.199	4459
3998.79	4372
4000.382	4572
4001.973	4483
4003.561	4487
4005.151	4580
4006.741	4541
4008.331	4438
4009.918	4489
4011.507	4480
4013.095	4510
4014.681	4523
4016.269	4402
4017.856	4322
4019.443	4442
4021.028	4353
4022.614	4453
4024.199	4412
4025.785	4252
4027.37	4489
4028.953	4379
4030.536	4371
4032.12	4313
4033.704	4344
4035.287	4335
4036.869	4338
4038.45	4376
4040.032	4356
4041.613	4320
4043.195	4278
4044.776	4328
4046.356	4332
4047.935	4362
4049.515	4280
4051.095	4254
4052.674	4218
4054.251	4266
4055.829	4220
4057.406	4291
4058.985	4231
4060.562	4328
4062.139	4299
4063.715	4300
4065.29	4225
4066.865	4208
4068.442	4235
4070.016	4299
4071.59	4303
4073.164	4128
4074.738	4262
4076.312	4282
4077.885	4242
4079.458	4249
4081.03	4195
4082.602	4258
4084.173	4241
4085.745	4268
4087.315	4234
4088.886	4297
4090.456	4200
4092.026	4229
4093.596	4102
4095.165	4230
4096.734	4151
4098.301	4196
4099.869	4206
4101.437	4145
4103.006	4248
4104.572	4135
4106.139	4115
4107.704	4209
4109.27	4161
4110.837	4174
4112.401	4197
4113.966	4265
4115.53	4092
4117.094	4171
4118.659	4146
4120.223	4109
4121.785	4117
4123.347	4089
4124.909	4065
4126.471	4098
4128.034	4043
4129.595	4114
4131.155	4113
4132.716	4074
4134.275	4102
4135.836	4134
4137.395	4024
4138.955	4028
4140.513	4085
4142.071	4016
4143.628	4067
4145.188	4082
4146.745	4007
4148.302	4023
4149.858	3958
4151.414	4043
4152.971	4074
4154.526	4052
4156.081	3943
4157.635	3970
4159.189	4038
4160.745	3954
4162.298	4087
4163.852	3886
4165.405	3939
4166.957	3942
4168.51	3928
4170.063	3945
4171.614	3941
4173.166	3953
4174.717	3942
4176.267	3882
4177.817	3981
4179.368	3864
4180.917	3977
4182.466	3915
4184.016	3947
4185.564	3839
4187.112	3873
4188.66	3945
4190.207	3913
4191.754	3820
4193.301	3908
4194.848	3930
4196.394	3869
4197.94	3867
4199.484	3887
4201.03	3883
4202.575	3757
4204.12	3835
4205.663	3817
4207.207	3877
4208.75	3842
4210.292	3799
4211.836	3842
4213.378	3790
4214.92	3764
4216.46	3784
4218.002	3855
4219.544	3803
4221.083	3741
4222.625	3772
4224.164	3798
4225.703	3824
4227.244	3753
4228.782	3771
4230.32	3768
4231.857	3787
4233.395	3791
4234.933	3855
4236.471	3786
4238.007	3793
4239.542	3793
4241.078	3760
4242.614	3748
4244.15	3810
4245.685	3663
4247.219	3815
4248.753	3725
4250.287	3672
4251.82	3764
4253.354	3716
4254.887	3726
4256.419	3698
4257.951	3744
4259.483	3735
4261.016	3737
4262.547	3791
4264.078	3677
4265.608	3756
4267.137	3724
4268.668	3648
4270.197	3685
4271.727	3754
4273.254	3666
4274.783	3691
4276.311	3670
4277.84	3621
4279.366	3685
4280.894	3676
4282.42	3606
4283.946	3704
4285.473	3624
4286.998	3585
4288.523	3577
4290.047	3716
4291.572	3645
4293.096	3603
4294.622	3654
4296.144	3659
4297.668	3621
4299.19	3636
4300.713	3599
4302.236	3602
4303.758	3631
4305.279	3587
4306.799	3543
4308.321	3474
4309.842	3479
4311.361	3585
4312.882	3606
4314.401	3564
