400.0961	3453
402.6185	3424
405.1424	3456
407.6635	3458
410.1838	3496
412.7035	3484
415.2225	3471
417.7388	3541
420.2585	3581
422.7754	3618
425.2917	3615
427.8072	3690
430.3221	3694
432.8363	3736
435.3498	3709
437.8626	3682
440.3727	3709
442.8841	3692
445.3969	3710
447.907	3719
450.4142	3775
452.9229	3729
455.4289	3680
457.9362	3617
460.4449	3619
462.9488	3664
465.454	3715
467.9566	3664
470.4604	3702
472.9637	3701
475.4662	3674
477.966	3744
480.4671	3705
482.9656	3745
485.4633	3658
487.9645	3708
490.4608	3705
492.9566	3690
495.4536	3791
497.948	3629
500.4437	3794
502.9387	3745
505.431	3790
507.9226	3689
510.4136	3749
512.9079	3762
515.3975	3760
517.8864	3834
520.3746	3788
522.8622	3857
525.3491	3765
527.8394	3899
530.3249	3740
532.8098	3784
535.2939	3827
537.7774	3829
540.2623	3849
542.7444	3823
545.2259	3748
547.7067	3849
550.1868	3786
552.6683	3859
555.147	3852
557.6231	3766
560.1005	3809
562.5773	3796
565.0534	3811
567.5308	3930
570.0056	3947
572.4776	3895
574.951	3918
577.4237	3949
579.8978	3972
582.3671	3936
584.8378	4006
587.3079	4009
589.7773	3942
592.244	4068
594.714	3946
597.1793	3993
599.6461	4007
602.1121	3932
604.5754	3984
607.0421	3992
609.5042	3902
611.9675	3945
614.4282	3865
616.8902	3876
619.3515	3987
621.8122	3999
624.2702	3830
626.7296	3973
629.1863	3904
631.6423	3937
634.1017	3839
636.5563	3904
639.0104	3909
641.4658	3931
643.9185	3971
646.3725	3952
648.8239	4032
651.2766	3971
653.7266	3950
656.176	3979
658.6247	4045
661.0748	3945
663.5242	3924
665.9709	3935
668.417	3953
670.8624	3916
673.3092	4049
675.7533	4028
678.1968	4026
680.6395	4011
683.0817	3972
685.5251	4019
687.9659	4113
690.4061	4065
692.8456	4061
695.2844	3995
697.7226	4129
700.1621	4042
702.599	4029
705.0332	4127
707.4688	4065
709.9036	4096
712.3399	4146
714.7735	4115
717.2044	4117
719.6367	4116
722.0683	4067
724.4993	4148
726.9296	4107
729.3593	4141
731.7883	4158
734.2147	4257
736.6423	4113
739.0714	4187
741.4958	4145
743.9216	4252
746.3447	4218
748.7691	4247
751.1929	4228
753.616	4326
756.0366	4218
758.4584	4359
760.8776	4298
763.2982	4289
765.718	4399
768.1373	4268
770.5539	4269
772.9698	4334
775.3871	4251
777.8038	4258
780.2178	4258
782.6332	4318
785.0459	4296
787.458	4290
789.8714	4327
792.2842	4376
794.6943	4327
797.1038	4316
799.5127	4333
801.9209	4364
804.3324	4425
806.7393	4298
809.1456	4327
811.5513	4382
813.9562	4428
816.3625	4351
818.7663	4351
821.1693	4346
823.5718	4300
825.9735	4464
828.3746	4403
830.7771	4272
833.177	4455
835.5762	4333
837.9747	4497
840.3727	4480
842.772	4429
845.1666	4518
847.5626	4415
849.958	4479
852.3527	4539
854.7488	4567
857.1403	4422
859.5331	4528
861.9253	4439
864.3168	4416
866.7057	4420
869.098	4440
871.4876	4472
873.8746	4366
876.263	4526
878.6487	4443
881.0378	4490
883.4243	4561
885.8081	4400
888.1933	4421
890.5759	4443
892.9598	4468
895.343	4473
897.7256	4483
900.1057	4384
902.4871	4491
904.8659	4588
907.246	4472
909.6254	4530
912.0023	4478
914.3786	4620
916.7562	4674
919.1331	4626
921.5074	4763
923.8831	4824
926.2562	4633
928.6287	4683
931.0005	4690
933.3757	4705
935.7462	4804
938.1162	4734
940.4855	4789
942.8542	4834
945.2242	4943
947.5916	4992
949.9584	5157
952.3266	5331
954.6921	5594
957.0571	5773
959.4233	5978
961.787	6017
964.15	5990
966.5125	5778
968.8742	5483
971.2354	5320
973.5959	5151
975.9559	4901
978.3151	4884
980.6738	4824
983.0338	4863
985.3912	4647
987.7461	4649
990.1022	4685
992.4578	4582
994.8127	4568
997.1689	4668
999.5207	4619
1001.874	4691
1004.226	4703
1006.576	4679
1008.929	4673
1011.28	4630
1013.628	4691
1015.977	4657
1018.324	4752
1020.674	4751
1023.019	4712
1025.366	4732
1027.713	4753
1030.056	4707
1032.399	4736
1034.746	4793
1037.087	4752
1039.431	4771
1041.771	4779
1044.113	4806
1046.454	4809
1048.793	4792
1051.133	4670
1053.471	4755
1055.807	4815
1058.146	4790
1060.483	4792
1062.818	4791
1065.153	4758
1067.489	4847
1069.822	4907
1072.156	4890
1074.488	4803
1076.82	4891
1079.15	4896
1081.48	4882
1083.814	4823
1086.143	4813
1088.471	4778
1090.799	4820
1093.126	4800
1095.452	4723
1097.78	4848
1100.105	4806
1102.43	4745
1104.754	4717
1107.077	4776
1109.4	4787
1111.722	4882
1114.044	4821
1116.365	4741
1118.685	4709
1121.005	4781
1123.324	4775
1125.643	4744
1127.961	4761
1130.278	4812
1132.595	4757
1134.911	4741
1137.226	4845
1139.541	4777
1141.854	4768
1144.167	4721
1146.482	4693
1148.793	4651
1151.105	4723
1153.414	4835
1155.725	4777
1158.033	4830
1160.344	4765
1162.651	4771
1164.959	4733
1167.265	4764
1169.572	4736
1171.878	4823
1174.184	4862
1176.488	4765
1178.79	4762
1181.094	4772
1183.396	4854
1185.699	4789
1188.001	4831
1190.301	4713
1192.6	4706
1194.9	4731
1197.2	4841
1199.497	4885
1201.794	4871
1204.09	4715
1206.387	4790
1208.684	4769
1210.978	4875
1213.272	4740
1215.565	4795
1217.858	4790
1220.15	4818
1222.443	4867
1224.734	4792
1227.024	4833
1229.313	4789
1231.602	4856
1233.892	4841
1236.18	4958
1238.467	4952
1240.754	4921
1243.04	4883
1245.325	5010
1247.612	4919
1249.896	4914
1252.178	5016
1254.461	5027
1256.743	5041
1259.027	5002
1261.308	4978
1263.587	5072
1265.867	5031
1268.146	4933
1270.425	4961
1272.703	5012
1274.981	4980
1277.256	5018
1279.532	4999
1281.808	4938
1284.083	4996
1286.358	5029
1288.63	4999
1290.904	4984
1293.175	4899
1295.449	4920
1297.719	5058
1299.99	5026
1302.259	5001
1304.529	4851
1306.798	4879
1309.065	4912
1311.333	4956
1313.599	4960
1315.866	4896
1318.131	4864
1320.396	4953
1322.66	4938
1324.925	4938
1327.187	4879
1329.448	4927
1331.711	4881
1333.974	4866
1336.234	4946
1338.493	4882
1340.752	4997
1343.01	4846
1345.269	4906
1347.526	4884
1349.784	4955
1352.04	4958
1354.295	4960
1356.552	4933
1358.806	4999
1361.059	4877
1363.312	4865
1365.564	4924
1367.818	4995
1370.069	4938
1372.318	4846
1374.568	4983
1376.817	4919
1379.066	5070
1381.316	5020
1383.564	4958
1385.809	4935
1388.056	4916
1390.301	5021
1392.549	5130
1394.793	5078
1397.036	5113
1399.279	5109
1401.522	5156
1403.763	5099
1406.007	5075
1408.248	5056
1410.487	5105
1412.727	5119
1414.965	5142
1417.205	5125
1419.442	5091
1421.68	5086
1423.915	4982
1426.152	5101
1428.388	5166
1430.623	5152
1432.857	5200
1435.091	5164
1437.323	5143
1439.556	5121
1441.789	5222
1444.019	5210
1446.25	5170
1448.48	5281
1450.708	5186
1452.938	5266
1455.167	5115
1457.394	5270
1459.62	5268
1461.846	5286
1464.073	5171
1466.299	5251
1468.523	5149
1470.746	5193
1472.969	5142
1475.191	5156
1477.415	5040
1479.636	5119
1481.858	5057
1484.078	5023
1486.298	5084
1488.518	5053
1490.736	4951
1492.954	4928
1495.169	4924
1497.386	4869
1499.602	4989
1501.819	5056
1504.034	4980
1506.248	4949
1508.462	4857
1510.675	4885
1512.888	4928
1515.1	4874
1517.311	4953
1519.522	4870
1521.732	4907
1523.942	4989
1526.151	4904
1528.36	5004
1530.566	4945
1532.773	4935
1534.98	4947
1537.187	4857
1539.392	4969
1541.596	5004
1543.801	5024
1546.005	4942
1548.208	5031
1550.411	5051
1552.612	4989
1554.814	4975
1557.013	4963
1559.212	5088
1561.414	4965
1563.612	5000
1565.811	5111
1568.007	5068
1570.203	4975
1572.403	4992
1574.598	5035
1576.792	5030
1578.988	4998
1581.181	5131
1583.376	5099
1585.568	5101
1587.761	5068
1589.952	5083
1592.143	5109
1594.333	5013
1596.524	5125
1598.715	5207
1600.903	5145
1603.091	5151
1605.278	5129
1607.466	5157
1609.652	5259
1611.838	5173
1614.023	5178
1616.207	5076
1618.391	5037
1620.576	5154
1622.759	5144
1624.941	5127
1627.123	5043
1629.304	5179
1631.484	5168
1633.664	5193
1635.844	5244
1638.022	5260
1640.201	5153
1642.38	5258
1644.556	5241
1646.732	5301
1648.908	5278
1651.084	5152
1653.257	5222
1655.433	5270
1657.607	5226
1659.779	5218
1661.951	5172
1664.122	5289
1666.295	5180
1668.467	5258
1670.635	5274
1672.805	5265
1674.973	5307
1677.142	5309
1679.31	5290
1681.478	5198
1683.644	5193
1685.81	5264
1687.975	5344
1690.142	5286
1692.305	5178
1694.468	5244
1696.632	5234
1698.794	5250
1700.957	5138
1703.119	5155
1705.279	5162
1707.439	5118
1709.598	5073
1711.758	5132
1713.917	5099
1716.075	5201
1718.231	5159
1720.388	5080
1722.543	5118
1724.702	5122
1726.856	5142
1729.01	5055
1731.164	5119
1733.317	5209
1735.471	5113
1737.623	5045
1739.774	5104
1741.925	5080
1744.075	5107
1746.225	5055
1748.376	5110
1750.524	5071
1752.672	5173
1754.82	5068
1756.965	5150
1759.113	5151
1761.259	5119
1763.405	5188
1765.549	5152
1767.694	5198
1769.836	5165
1771.981	5023
1774.123	5157
1776.264	5131
1778.405	5152
1780.546	5176
1782.687	5155
1784.827	5160
1786.966	5152
1789.103	5227
1791.242	5194
1793.381	5193
1795.517	5212
1797.653	5175
1799.788	5203
1801.923	5164
1804.057	5298
1806.193	5171
1808.326	5181
1810.457	5185
1812.59	5124
1814.721	5195
1816.855	5157
1818.984	5191
1821.113	5180
1823.244	5171
1825.372	5233
1827.499	5187
1829.63	5113
1831.756	5191
1833.882	5195
1836.007	5208
1838.132	5128
1840.26	5170
1842.384	5141
1844.507	5178
1846.63	5198
1848.752	5200
1850.875	5133
1852.996	5130
1855.118	5196
1857.238	5144
1859.358	5155
1861.477	5117
1863.597	5178
1865.715	5159
1867.832	5204
1869.948	5104
1872.064	5112
1874.181	5022
1876.297	5145
1878.411	5114
1880.526	5149
1882.639	5041
1884.752	5107
1886.865	5182
1888.977	5194
1891.089	5100
1893.2	5158
1895.308	5149
1897.42	5199
1899.53	5213
1901.639	5259
1903.745	5224
1905.853	5100
1907.962	5182
1910.067	5215
1912.174	5118
1914.278	5207
1916.383	5194
1918.486	5259
1920.592	5252
1922.694	5270
1924.797	5145
1926.898	5257
1929	5201
1931.102	5155
1933.203	5229
1935.301	5101
1937.401	5240
1939.499	5222
1941.598	5314
1943.697	5306
1945.793	5239
1947.888	5242
1949.985	5284
1952.08	5212
1954.176	5161
1956.269	5305
1958.364	5269
1960.457	5175
1962.549	5275
1964.642	5164
1966.733	5213
1968.823	5319
1970.913	5245
1973.005	5158
1975.093	5213
1977.184	5242
1979.271	5315
1981.359	5200
1983.446	5170
1985.532	5258
1987.619	5231
1989.705	5157
1991.789	5215
1993.874	5157
1995.956	5191
1998.041	5219
2000.123	5208
2002.206	5166
2004.287	5226
2006.368	5157
2008.449	5156
2010.529	5118
2012.609	5210
2014.688	5247
2016.766	5092
2018.843	5155
2020.922	5170
2022.999	5116
2025.074	5155
2027.15	5162
2029.225	5164
2031.299	5142
2033.375	5207
2035.447	5097
2037.52	5243
2039.592	5099
2041.664	5106
2043.736	5167
2045.807	5160
2047.876	5165
2049.947	5184
2052.015	5185
2054.086	5224
2056.153	5237
2058.221	5190
2060.288	5117
2062.353	5174
2064.42	5078
2066.486	5137
2068.55	5174
2070.614	5201
2072.678	5162
2074.741	5160
2076.805	5196
2078.866	5289
2080.929	5198
2082.99	5258
2085.049	5242
2087.109	5185
2089.17	5219
2091.228	5214
2093.286	5215
2095.344	5146
2097.4	5155
2099.46	5091
2101.516	5230
2103.572	5127
2105.626	5165
2107.679	5150
2109.735	5204
2111.788	5226
2113.841	5128
2115.894	5197
2117.945	5199
2119.997	5236
2122.049	5191
2124.1	5260
2126.148	5174
2128.197	5199
2130.246	5106
2132.296	5142
2134.342	5120
2136.39	5169
2138.437	5244
2140.483	5069
2142.527	5138
2144.574	5208
2146.619	5072
2148.661	5178
2150.705	5127
2152.747	5127
2154.792	5183
2156.832	5160
2158.874	5128
2160.915	5112
2162.954	5128
2164.995	5097
2167.034	5096
2169.072	5092
2171.111	5133
2173.148	5115
2175.186	5155
2177.223	5088
2179.258	5116
2181.294	5077
2183.328	5081
2185.362	5067
2187.398	5097
2189.431	5160
2191.463	5130
2193.495	5056
2195.528	5055
2197.56	5047
2199.59	5029
2201.62	4937
2203.649	5071
2205.678	5022
2207.708	5150
2209.737	5073
2211.764	5051
2213.791	5086
2215.817	5140
2217.843	5112
2219.87	5093
2221.895	5045
2223.919	5103
2225.942	5113
2227.966	5132
2229.988	5151
2232.012	4987
2234.032	5115
2236.054	5027
2238.074	5072
2240.095	5073
2242.116	4997
2244.135	5074
2246.153	5001
2248.171	5002
2250.188	5180
2252.208	4986
2254.223	5010
2256.239	5056
2258.255	4989
2260.269	5042
2262.283	5019
2264.3	4965
2266.312	5031
2268.325	5057
2270.336	5103
2272.349	5118
2274.362	4975
2276.372	5017
2278.383	5164
2280.392	4933
2282.402	5051
2284.409	5050
2286.418	4996
2288.427	5083
2290.433	5000
2292.441	5006
2294.446	5054
2296.453	5108
2298.459	5106
2300.463	5106
2302.466	5098
2304.471	5022
2306.475	5086
2308.477	5055
2310.478	4978
2312.481	4970
2314.481	5039
2316.481	5141
2318.482	5016
2320.482	4957
2322.48	5063
2324.48	5032
2326.478	5017
2328.476	5068
2330.473	4961
2332.469	4921
2334.465	5080
2336.46	4935
2338.454	4963
2340.45	4948
2342.444	4904
2344.437	5018
2346.43	5025
2348.421	4941
2350.414	4948
2352.405	5050
2354.396	5011
2356.386	4955
2358.376	4879
2360.366	5026
2362.355	4956
2364.343	4893
2366.331	4844
2368.317	4967
2370.304	4998
2372.292	4972
2374.278	4963
2376.262	4895
2378.247	4954
2380.23	4987
2382.216	4904
2384.199	4911
2386.181	4884
2388.163	4920
2390.144	4890
2392.127	4948
2394.107	4878
2396.087	4952
2398.066	4844
2400.046	4805
2402.023	4971
2404.004	4791
2405.981	4924
2407.957	4956
2409.934	4954
2411.91	4822
2413.886	4891
2415.862	4852
2417.836	4875
2419.809	4897
2421.784	4858
2423.756	4858
2425.73	4934
2427.701	4909
2429.672	4885
2431.644	4914
2433.615	4971
2435.586	4842
2437.555	4851
2439.523	4889
2441.491	4881
2443.459	4816
2445.428	4908
2447.395	4867
2449.361	4939
2451.327	4921
2453.292	4822
2455.257	4859
2457.223	4810
2459.187	4824
2461.15	4924
2463.113	4734
2465.076	4934
2467.039	4833
2468.999	4846
2470.96	4750
2472.921	4822
2474.881	4827
2476.841	4821
2478.8	4898
2480.759	4833
2482.717	4788
2484.675	4800
2486.63	4890
2488.589	4865
2490.545	4843
2492.5	4716
2494.455	4806
2496.408	4776
2498.364	4692
2500.318	4900
2502.27	4801
2504.223	4821
2506.174	4832
2508.126	4779
2510.078	4792
2512.03	4747
2513.979	4839
2515.927	4825
2517.877	4733
2519.826	4785
2521.775	4805
2523.722	4863
2525.668	4828
2527.616	4782
2529.561	4811
2531.508	4773
2533.452	4733
2535.398	4717
2537.342	4754
2539.284	4817
2541.229	4860
2543.173	4842
2545.114	4806
2547.055	4868
2548.996	4776
2550.938	4795
2552.878	4801
2554.817	4790
2556.756	4869
2558.695	4836
2560.633	4698
2562.572	4633
2564.509	4924
2566.445	4797
2568.382	4779
2570.317	4773
2572.254	4799
2574.189	4768
2576.123	4835
2578.057	4869
2579.99	4675
2581.923	4786
2583.855	4775
2585.788	4797
2587.719	4790
2589.65	4856
2591.579	4733
2593.511	4751
2595.44	4756
2597.37	4720
2599.297	4877
2601.225	4767
2603.153	4792
2605.08	4726
2607.007	4672
2608.932	4850
2610.858	4741
2612.782	4831
2614.709	4860
2616.632	4673
2618.556	4694
2620.478	4783
2622.401	4828
2624.324	4848
2626.247	4798
2628.167	4746
2630.088	4797
2632.008	4818
2633.928	4864
2635.848	4776
2637.766	4705
2639.684	4821
2641.603	4752
2643.519	4883
2645.437	4749
2647.353	4804
2649.27	4834
2651.184	4740
2653.099	4829
2655.014	4773
2656.928	4689
2658.842	4740
2660.755	4701
2662.667	4735
2664.579	4745
2666.491	4797
2668.402	4706
2670.312	4888
2672.222	4775
2674.132	4675
2676.042	4706
2677.951	4801
2679.859	4668
2681.766	4700
2683.674	4684
2685.582	4779
2687.488	4843
2689.392	4691
2691.298	4773
2693.202	4707
2695.107	4762
2697.012	4747
2698.914	4773
2700.817	4689
2702.72	4730
2704.622	4651
2706.524	4748
2708.425	4652
2710.326	4745
2712.225	4682
2714.125	4648
2716.024	4783
2717.923	4709
2719.822	4726
2721.719	4659
2723.616	4638
2725.512	4664
2727.41	4726
2729.305	4679
2731.201	4611
2733.095	4708
2734.99	4696
2736.884	4727
2738.778	4710
2740.67	4819
2742.562	4752
2744.455	4668
2746.346	4676
2748.238	4651
2750.129	4587
2752.018	4674
2753.907	4742
2755.797	4692
2757.687	4707
2759.575	4652
2761.462	4649
2763.349	4727
2765.237	4617
2767.124	4679
2769.009	4604
2770.894	4733
2772.779	4639
2774.663	4650
2776.547	4707
2778.431	4656
2780.314	4648
2782.197	4747
2784.078	4715
2785.96	4622
2787.842	4768
2789.723	4613
2791.603	4685
2793.483	4594
2795.362	4578
2797.241	4699
2799.121	4583
2800.997	4598
2802.874	4649
2804.751	4632
2806.628	4738
2808.506	4621
2810.38	4667
2812.255	4520
2814.13	4642
2816.003	4659
2817.878	4595
2819.752	4562
2821.623	4672
2823.496	4625
2825.368	4667
2827.238	4684
2829.111	4579
2830.98	4704
2832.851	4791
2834.719	4672
2836.589	4616
2838.458	4599
2840.327	4634
2842.193	4578
2844.061	4701
2845.927	4707
2847.794	4629
2849.66	4711
2851.525	4684
2853.39	4680
2855.254	4788
2857.117	4715
2858.983	4688
2860.845	4775
2862.707	4824
2864.569	4752
2866.431	4823
2868.293	4748
2870.154	4805
2872.013	4833
2873.873	4875
2875.733	4899
2877.592	4927
2879.451	4969
2881.309	5021
2883.166	4993
2885.022	5095
2886.879	5147
2888.736	5088
2890.591	5136
2892.446	5196
2894.301	5123
2896.155	5127
2898.009	5130
2899.863	5185
2901.716	5091
2903.568	5097
2905.419	5075
2907.27	5226
2909.123	5039
2910.973	5110
2912.824	5132
2914.673	5068
2916.521	5241
2918.372	5239
2920.22	5203
2922.067	5293
2923.914	5353
2925.761	5409
2927.607	5431
2929.455	5461
2931.301	5487
2933.144	5582
2934.99	5579
2936.833	5520
2938.678	5578
2940.522	5632
2942.364	5756
2944.207	5769
2946.048	5851
2947.891	5793
2949.731	5743
2951.571	5834
2953.412	5818
2955.25	5689
2957.09	5688
2958.93	5707
2960.767	5687
2962.606	5561
2964.443	5483
2966.279	5443
2968.116	5400
2969.953	5435
2971.788	5400
2973.623	5217
2975.457	5271
2977.292	5149
2979.127	5300
2980.959	5214
2982.792	4997
2984.624	5127
2986.455	5038
2988.288	5087
2990.119	5045
2991.949	5047
2993.779	5061
2995.608	4946
2997.439	4930
2999.268	4921
3001.096	4799
3002.923	4797
3004.751	4864
3006.578	4774
3008.406	4803
3010.232	4655
3012.057	4625
3013.883	4581
3015.706	4609
3017.532	4573
3019.356	4652
3021.179	4522
3023.002	4534
3024.823	4492
3026.646	4495
3028.469	4446
3030.289	4445
3032.11	4499
3033.93	4418
3035.749	4390
3037.57	4398
3039.39	4491
3041.207	4391
3043.026	4442
3044.842	4478
3046.661	4543
3048.477	4417
3050.294	4452
3052.109	4429
3053.925	4362
3055.739	4362
3057.555	4387
3059.368	4332
3061.181	4383
3062.995	4387
3064.807	4372
3066.62	4422
3068.433	4390
3070.243	4427
3072.054	4335
3073.865	4353
3075.675	4453
3077.485	4365
3079.293	4333
3081.102	4384
3082.911	4322
3084.719	4328
3086.527	4370
3088.333	4374
3090.139	4361
3091.945	4340
3093.75	4297
3095.557	4253
3097.361	4320
3099.165	4287
3100.969	4289
3102.772	4281
3104.575	4278
3106.379	4226
3108.181	4173
3109.982	4332
3111.783	4277
3113.584	4273
3115.386	4216
3117.186	4283
3118.985	4248
3120.783	4264
3122.582	4297
3124.381	4238
3126.179	4211
3127.975	4155
3129.772	4134
3131.569	4227
3133.365	4256
3135.161	4210
3136.956	4161
3138.751	4184
3140.544	4234
3142.338	4195
3144.132	4157
3145.925	4204
3147.717	4218
3149.509	4269
3151.301	4230
3153.091	4157
3154.884	4292
3156.673	4201
3158.462	4147
3160.252	4191
3162.041	4148
3163.831	4238
3165.618	4221
3167.405	4213
3169.193	4178
3170.979	4160
3172.767	4076
3174.553	4174
3176.338	4209
3178.123	4226
3179.907	4157
3181.692	4081
3183.477	4132
3185.259	4141
3187.042	4160
3188.824	4150
3190.607	4156
3192.389	4176
3194.17	4179
3195.951	4159
3197.73	4156
3199.51	4154
3201.289	4058
3203.07	4186
3204.848	4234
3206.626	4096
3208.403	4139
3210.18	4220
3211.959	4082
3213.735	4115
3215.511	4140
3217.285	4104
3219.06	4080
3220.836	4087
3222.611	4064
3224.384	4192
3226.158	4181
3227.929	4072
3229.702	4099
3231.476	4079
3233.248	4100
3235.018	4047
3236.789	4043
3238.56	4093
3240.33	4111
3242.1	4151
3243.869	4140
3245.637	4098
3247.405	4134
3249.172	4184
3250.941	4134
3252.707	4102
3254.474	4153
3256.24	4182
3258.006	4048
3259.772	4067
3261.537	4080
3263.301	4190
3265.065	4146
3266.828	4182
3268.592	4142
3270.355	4174
3272.117	4082
3273.878	4114
3275.64	4108
3277.401	4155
3279.162	4053
3280.922	4090
3282.682	4077
3284.441	4083
3286.199	4088
3287.959	4190
3289.716	4108
3291.475	4117
3293.232	4158
3294.988	4069
3296.744	4121
3298.501	4134
3300.256	4056
3302.011	4219
3303.766	4120
3305.52	4104
3307.275	4081
3309.028	4224
3310.781	4070
3312.533	4093
3314.285	4153
3316.038	4136
3317.789	4137
3319.54	4051
3321.289	4166
3323.039	4195
3324.789	4089
3326.539	4036
3328.288	4114
3330.035	4075
3331.783	4105
3333.531	4025
3335.28	4073
3337.025	4158
3338.771	4053
3340.518	4049
3342.262	3999
3344.009	4032
3345.753	4015
3347.497	4046
3349.24	4068
3350.983	4025
3352.726	4024
3354.469	4066
3356.212	4031
3357.952	3997
3359.694	3975
3361.434	3994
3363.176	4062
3364.916	4024
3366.654	4066
3368.394	3984
3370.132	3965
3371.871	4017
3373.61	4059
3375.346	3977
3377.083	4030
3378.82	3961
3380.556	3963
3382.292	3997
3384.027	3969
3385.763	4021
3387.497	3911
3389.231	4044
3390.965	3936
3392.698	3992
3394.431	3974
3396.164	4044
3397.896	4030
3399.627	3874
3401.36	3873
3403.09	3971
3404.82	3866
3406.55	3990
3408.279	3947
3410.01	3996
3411.738	3995
3413.467	3848
3415.194	3874
3416.92	3911
3418.647	3966
3420.375	3829
3422.102	3896
3423.827	3910
3425.553	3869
3427.277	3966
3429.003	3883
3430.727	3867
3432.451	3893
3434.173	3929
3435.896	3886
3437.62	3853
3439.343	3841
3441.063	3877
3442.785	3907
3444.505	3822
3446.226	3808
3447.948	3864
3449.666	3896
3451.386	3833
3453.104	3794
3454.823	3832
3456.541	3839
3458.259	3848
3459.976	3732
3461.693	3840
3463.408	3789
3465.125	3912
3466.841	3783
3468.556	3809
3470.271	3739
3471.985	3762
3473.698	3733
3475.414	3799
3477.126	3694
3478.838	3724
3480.55	3707
3482.263	3761
3483.975	3713
3485.686	3792
3487.396	3777
3489.106	3716
3490.817	3659
3492.526	3706
3494.236	3722
3495.944	3689
3497.652	3645
3499.359	3612
3501.066	3776
3502.775	3686
3504.481	3657
3506.187	3683
3507.893	3705
3509.598	3643
3511.304	3670
3513.009	3701
3514.713	3576
3516.417	3706
3518.12	3629
3519.821	3726
3521.525	3616
3523.228	3625
3524.929	3643
3526.631	3665
3528.33	3604
3530.032	3652
3531.733	3603
3533.433	3630
3535.131	3589
3536.83	3575
3538.529	3578
3540.227	3553
3541.925	3578
3543.623	3615
3545.319	3554
3547.016	3617
3548.712	3598
3550.408	3602
3552.103	3530
3553.798	3604
3555.491	3575
3557.188	3534
3558.88	3548
3560.574	3481
3562.266	3545
3563.959	3560
3565.651	3505
3567.343	3470
3569.035	3510
3570.725	3537
3572.415	3492
3574.106	3542
3575.797	3473
3577.485	3518
3579.174	3509
3580.863	3475
3582.551	3540
3584.238	3458
3585.926	3497
3587.613	3487
3589.3	3485
3590.986	3453
3592.671	3504
3594.357	3376
3596.042	3439
3597.726	3396
3599.41	3476
3601.094	3417
3602.778	3448
3604.461	3507
3606.143	3340
3607.825	3383
3609.507	3419
3611.188	3324
3612.87	3365
3614.551	3387
3616.229	3356
3617.909	3427
3619.589	3373
3621.269	3382
3622.948	3330
3624.625	3358
3626.302	3342
3627.98	3293
3629.657	3286
3631.334	3298
3633.01	3354
3634.686	3297
3636.361	3295
3638.036	3337
3639.712	3409
3641.385	3303
3643.06	3264
3644.732	3295
3646.405	3316
3648.08	3286
3649.751	3321
3651.424	3285
3653.094	3307
3654.766	3256
3656.436	3340
3658.106	3278
3659.777	3309
3661.446	3187
3663.115	3227
3664.783	3280
3666.452	3221
3668.121	3188
3669.788	3244
3671.454	3131
3673.121	3283
3674.789	3246
3676.455	3218
3678.12	3197
3679.784	3252
3681.45	3208
3683.114	3247
3684.779	3246
3686.442	3193
3688.105	3264
3689.768	3231
3691.43	3176
3693.093	3213
3694.754	3177
3696.415	3125
3698.076	3235
3699.736	3176
3701.396	3132
3703.057	3270
3704.716	3212
3706.375	3128
3708.034	3205
3709.692	3167
3711.351	3214
3713.008	3216
3714.665	3167
3716.321	3194
3717.977	3184
3719.634	3199
3721.29	3164
3722.945	3183
3724.598	3146
3726.253	3167
3727.907	3188
3729.561	3140
3731.214	3085
3732.867	3162
3734.518	3116
3736.171	3143
3737.824	3130
3739.474	3128
3741.125	3010
3742.775	3071
3744.425	3149
3746.074	3119
3747.725	3055
3749.373	3130
3751.022	3112
3752.669	3118
3754.318	3083
3755.966	3129
3757.612	3020
3759.259	3104
3760.905	3131
3762.55	3076
3764.197	3030
3765.842	3011
3767.486	3058
3769.131	3111
3770.774	3003
3772.417	3070
3774.061	3028
3775.705	3081
3777.347	3102
3778.988	3090
3780.629	3138
3782.271	3006
3783.912	3047
3785.552	3093
3787.192	3064
3788.831	3027
3790.472	3097
3792.112	3068
3793.75	3081
3795.388	3077
3797.024	3110
3798.661	3043
3800.3	3059
3801.936	2985
3803.572	2919
3805.208	2937
3806.844	3034
3808.48	2984
3810.115	2981
3811.748	2890
3813.382	3030
3815.016	2942
3816.649	2991
3818.283	2997
3819.914	2984
3821.547	2975
3823.178	3031
3824.809	2990
3826.441	2895
3828.072	2992
3829.701	2951
3831.331	2999
3832.96	3026
3834.591	2927
3836.219	2946
3837.847	2959
3839.475	2939
3841.102	2958
3842.729	2964
3844.357	2965
3845.984	2953
3847.609	2961
3849.234	2904
3850.86	2922
3852.485	2947
3854.11	2966
3855.734	2925
3857.357	2849
3858.981	2894
3860.603	2939
3862.227	2951
3863.848	2947
3865.471	2897
3867.092	2949
3868.713	2928
3870.334	2876
3871.954	2886
3873.575	2924
3875.194	2925
3876.813	2859
3878.433	2874
3880.051	2879
3881.669	2864
3883.286	2882
3884.904	2964
3886.52	2907
3888.138	2894
3889.754	2875
3891.37	2877
3892.985	2886
3894.6	2841
3896.216	2863
3897.831	2875
3899.444	2861
3901.058	2844
3902.67	2896
3904.283	2828
3905.897	2894
3907.509	2838
3909.121	2853
3910.731	2839
3912.342	2814
3913.954	2882
3915.563	2839
3917.174	2807
3918.783	2819
3920.391	2848
3922.002	2802
3923.611	2824
3925.218	2870
3926.826	2912
3928.432	2852
3930.039	2877
3931.647	2843
3933.253	2863
3934.859	2826
3936.464	2827
3938.068	2844
3939.675	2861
3941.278	2899
3942.883	2794
3944.486	2896
3946.089	2871
3947.692	2853
3949.295	2878
3950.898	2845
3952.499	2810
3954.1	2764
3955.7	2740
3957.303	2793
3958.903	2856
3960.502	2842
3962.101	2738
3963.7	2793
3965.301	2729
3966.899	2750
3968.497	2774
3970.094	2732
3971.691	2845
3973.288	2822
3974.885	2861
3976.481	2739
3978.077	2726
3979.672	2729
3981.267	2748
3982.863	2710
3984.457	2679
3986.051	2732
3987.645	2800
3989.238	2774
3990.831	2762
3992.425	2696
3994.017	2667
3995.607	2690
3997.199	2696
3998.79	2698
4000.382	2726
4001.973	2713
4003.561	2686
4005.151	2649
4006.741	2667
4008.331	2729
4009.918	2686
4011.507	2702
4013.095	2630
4014.681	2718
4016.269	2674
4017.856	2623
4019.443	2667
4021.028	2717
4022.614	2648
4024.199	2650
4025.785	2612
4027.37	2639
4028.953	2649
4030.536	2685
4032.12	2626
4033.704	2721
4035.287	2668
4036.869	2646
4038.45	2616
4040.032	2569
4041.613	2607
4043.195	2586
4044.776	2557
4046.356	2616
4047.935	2590
4049.515	2572
4051.095	2533
4052.674	2653
4054.251	2554
4055.829	2577
4057.406	2620
4058.985	2648
4060.562	2600
4062.139	2603
4063.715	2550
4065.29	2569
4066.865	2648
4068.442	2585
4070.016	2622
4071.59	2593
4073.164	2562
4074.738	2650
4076.312	2578
4077.885	2548
4079.458	2614
4081.03	2580
4082.602	2523
4084.173	2556
4085.745	2633
4087.315	2578
4088.886	2569
4090.456	2550
4092.026	2536
4093.596	2514
4095.165	2557
4096.734	2523
4098.301	2596
4099.869	2570
4101.437	2582
4103.006	2549
4104.572	2540
4106.139	2542
4107.704	2535
4109.27	2534
4110.837	2532
4112.401	2552
4113.966	2522
4115.53	2428
4117.094	2541
4118.659	2543
4120.223	2468
4121.785	2586
4123.347	2517
4124.909	2429
4126.471	2490
4128.034	2458
4129.595	2494
4131.155	2493
4132.716	2509
4134.275	2438
4135.836	2537
4137.395	2531
4138.955	2445
4140.513	2455
4142.071	2468
4143.628	2481
4145.188	2481
4146.745	2464
4148.302	2446
4149.858	2467
4151.414	2440
4152.971	2455
4154.526	2394
4156.081	2556
4157.635	2453
4159.189	2437
4160.745	2407
4162.298	2552
4163.852	2464
4165.405	2383
4166.957	2424
4168.51	2442
4170.063	2438
4171.614	2388
4173.166	2396
4174.717	2382
4176.267	2409
4177.817	2393
4179.368	2405
4180.917	2418
4182.466	2379
4184.016	2388
4185.564	2359
4187.112	2354
4188.66	2336
4190.207	2336
4191.754	2415
4193.301	2402
4194.848	2424
4196.394	2419
4197.94	2385
4199.484	2396
4201.03	2393
4202.575	2386
4204.12	2361
4205.663	2322
4207.207	2353
4208.75	2327
4210.292	2365
4211.836	2363
4213.378	2391
4214.92	2372
4216.46	2334
4218.002	2325
4219.544	2359
4221.083	2325
4222.625	2405
4224.164	2382
4225.703	2292
4227.244	2305
4228.782	2310
4230.32	2353
4231.857	2320
4233.395	2398
4234.933	2349
4236.471	2335
4238.007	2309
4239.542	2358
4241.078	2313
4242.614	2275
4244.15	2346
4245.685	2312
4247.219	2335
4248.753	2294
4250.287	2279
4251.82	2288
4253.354	2296
4254.887	2332
4256.419	2261
4257.951	2229
4259.483	2322
4261.016	2267
4262.547	2303
4264.078	2282
4265.608	2249
4267.137	2302
4268.668	2286
4270.197	2326
4271.727	2273
4273.254	2312
4274.783	2261
4276.311	2280
4277.84	2318
4279.366	2251
4280.894	2243
4282.42	2283
4283.946	2234
4285.473	2275
4286.998	2306
4288.523	2277
4290.047	2176
4291.572	2232
4293.096	2261
4294.622	2261
4296.144	2259
4297.668	2284
4299.19	2313
4300.713	2225
4302.236	2262
4303.758	2288
4305.279	2274
4306.799	2228
4308.321	2274
4309.842	2236
4311.361	2288
4312.882	2166
4314.401	2238
