400.0961	2312
402.6185	2392
405.1424	2275
407.6635	2336
410.1838	2425
412.7035	2403
415.2225	2387
417.7388	2438
420.2585	2402
422.7754	2479
425.2917	2460
427.8072	2479
430.3221	2490
432.8363	2442
435.3498	2510
437.8626	2471
440.3727	2519
442.8841	2531
445.3969	2551
447.907	2447
450.4142	2509
452.9229	2446
455.4289	2533
457.9362	2454
460.4449	2527
462.9488	2456
465.454	2486
467.9566	2435
470.4604	2394
472.9637	2417
475.4662	2522
477.966	2513
480.4671	2454
482.9656	2428
485.4633	2479
487.9645	2421
490.4608	2485
492.9566	2512
495.4536	2512
497.948	2520
500.4437	2498
502.9387	2477
505.431	2530
507.9226	2533
510.4136	2452
512.9079	2516
515.3975	2556
517.8864	2546
520.3746	2483
522.8622	2582
525.3491	2499
527.8394	2546
530.3249	2503
532.8098	2512
535.2939	2588
537.7774	2582
540.2623	2536
542.7444	2542
545.2259	2540
547.7067	2537
550.1868	2526
552.6683	2545
555.147	2609
557.6231	2596
560.1005	2614
562.5773	2606
565.0534	2597
567.5308	2511
570.0056	2622
572.4776	2501
574.951	2639
577.4237	2657
579.8978	2649
582.3671	2632
584.8378	2583
587.3079	2690
589.7773	2698
592.244	2624
594.714	2657
597.1793	2634
599.6461	2589
602.1121	2724
604.5754	2636
607.0421	2598
609.5042	2616
611.9675	2632
614.4282	2618
616.8902	2645
619.3515	2620
621.8122	2662
624.2702	2573
626.7296	2679
629.1863	2646
631.6423	2606
634.1017	2543
636.5563	2638
639.0104	2549
641.4658	2541
643.9185	2546
646.3725	2593
648.8239	2600
651.2766	2574
653.7266	2629
656.176	2650
658.6247	2620
661.0748	2578
663.5242	2595
665.9709	2721
668.417	2669
670.8624	2581
673.3092	2729
675.7533	2655
678.1968	2622
680.6395	2652
683.0817	2647
685.5251	2726
687.9659	2672
690.4061	2722
692.8456	2749
695.2844	2705
697.7226	2624
700.1621	2722
702.599	2697
705.0332	2761
707.4688	2726
709.9036	2622
712.3399	2762
714.7735	2720
717.2044	2758
719.6367	2721
722.0683	2755
724.4993	2778
726.9296	2738
729.3593	2766
731.7883	2665
734.2147	2713
736.6423	2823
739.0714	2798
741.4958	2780
743.9216	2811
746.3447	2822
748.7691	2806
751.1929	2834
753.616	2729
756.0366	2871
758.4584	2863
760.8776	2844
763.2982	2887
765.718	2780
768.1373	2827
770.5539	2842
772.9698	2814
775.3871	2807
777.8038	2836
780.2178	2805
782.6332	2787
785.0459	2910
787.458	2848
789.8714	2834
792.2842	2878
794.6943	2828
797.1038	2896
799.5127	2816
801.9209	2919
804.3324	2861
806.7393	2883
809.1456	2813
811.5513	2968
813.9562	2913
816.3625	2920
818.7663	2894
821.1693	3003
823.5718	2867
825.9735	2962
828.3746	2914
830.7771	2912
833.177	2947
835.5762	2941
837.9747	2942
840.3727	2939
842.772	2901
845.1666	3008
847.5626	2923
849.958	2983
852.3527	3016
854.7488	3066
857.1403	2986
859.5331	3015
861.9253	3050
864.3168	3030
866.7057	2990
869.098	3002
871.4876	3013
873.8746	2886
876.263	3006
878.6487	2971
881.0378	2976
883.4243	2943
885.8081	2897
888.1933	2929
890.5759	2952
892.9598	2943
895.343	2976
897.7256	2991
900.1057	2909
902.4871	2998
904.8659	2998
907.246	3023
909.6254	2993
912.0023	2973
914.3786	2986
916.7562	3015
919.1331	3109
921.5074	3173
923.8831	3187
926.2562	3147
928.6287	3100
931.0005	3129
933.3757	3091
935.7462	3126
938.1162	3208
940.4855	3203
942.8542	3206
945.2242	3309
947.5916	3359
949.9584	3497
952.3266	3491
954.6921	3616
957.0571	3769
959.4233	3912
961.787	3911
964.15	3849
966.5125	3806
968.8742	3696
971.2354	3538
973.5959	3352
975.9559	3205
978.3151	3127
980.6738	3099
983.0338	3090
985.3912	3058
987.7461	3046
990.1022	3060
992.4578	2976
994.8127	3037
997.1689	3063
999.5207	3081
1001.874	3115
1004.226	3108
1006.576	2985
1008.929	3037
1011.28	3142
1013.628	3034
1015.977	3061
1018.324	3082
1020.674	3126
1023.019	3149
1025.366	3091
1027.713	3107
1030.056	3090
1032.399	3170
1034.746	3215
1037.087	3179
1039.431	3122
1041.771	3119
1044.113	3157
1046.454	3140
1048.793	3152
1051.133	3136
1053.471	3135
1055.807	3124
1058.146	3202
1060.483	3174
1062.818	3164
1065.153	3236
1067.489	3257
1069.822	3273
1072.156	3208
1074.488	3244
1076.82	3212
1079.15	3183
1081.48	3244
1083.814	3181
1086.143	3177
1088.471	3182
1090.799	3201
1093.126	3130
1095.452	3166
1097.78	3130
1100.105	3161
1102.43	3096
1104.754	3130
1107.077	3164
1109.4	3214
1111.722	3181
1114.044	3124
1116.365	3161
1118.685	3106
1121.005	3217
1123.324	3201
1125.643	3210
1127.961	3235
1130.278	3178
1132.595	3153
1134.911	3228
1137.226	3182
1139.541	3199
1141.854	3236
1144.167	3121
1146.482	3192
1148.793	3197
1151.105	3131
1153.414	3204
1155.725	3125
1158.033	3119
1160.344	3138
1162.651	3234
1164.959	3140
1167.265	3186
1169.572	3188
1171.878	3164
1174.184	3208
1176.488	3201
1178.79	3235
1181.094	3232
1183.396	3235
1185.699	3160
1188.001	3185
1190.301	3157
1192.6	3193
1194.9	3233
1197.2	3231
1199.497	3169
1201.794	3266
1204.09	3243
1206.387	3251
1208.684	3173
1210.978	3224
1213.272	3243
1215.565	3199
1217.858	3198
1220.15	3184
1222.443	3163
1224.734	3184
1227.024	3218
1229.313	3262
1231.602	3297
1233.892	3226
1236.18	3327
1238.467	3360
1240.754	3289
1243.04	3290
1245.325	3360
1247.612	3317
1249.896	3348
1252.178	3332
1254.461	3397
1256.743	3371
1259.027	3301
1261.308	3462
1263.587	3359
1265.867	3354
1268.146	3296
1270.425	3388
1272.703	3352
1274.981	3360
1277.256	3394
1279.532	3295
1281.808	3366
1284.083	3399
1286.358	3305
1288.63	3327
1290.904	3277
1293.175	3242
1295.449	3348
1297.719	3305
1299.99	3227
1302.259	3326
1304.529	3203
1306.798	3259
1309.065	3182
1311.333	3297
1313.599	3298
1315.866	3212
1318.131	3260
1320.396	3298
1322.66	3305
1324.925	3287
1327.187	3284
1329.448	3291
1331.711	3349
1333.974	3315
1336.234	3345
1338.493	3279
1340.752	3354
1343.01	3216
1345.269	3330
1347.526	3353
1349.784	3398
1352.04	3334
1354.295	3324
1356.552	3338
1358.806	3283
1361.059	3325
1363.312	3343
1365.564	3268
1367.818	3331
1370.069	3306
1372.318	3319
1374.568	3349
1376.817	3322
1379.066	3306
1381.316	3278
1383.564	3262
1385.809	3388
1388.056	3372
1390.301	3362
1392.549	3352
1394.793	3415
1397.036	3375
1399.279	3390
1401.522	3408
1403.763	3474
1406.007	3366
1408.248	3411
1410.487	3406
1412.727	3462
1414.965	3416
1417.205	3402
1419.442	3396
1421.68	3379
1423.915	3429
1426.152	3407
1428.388	3454
1430.623	3405
1432.857	3406
1435.091	3488
1437.323	3486
1439.556	3423
1441.789	3482
1444.019	3487
1446.25	3474
1448.48	3427
1450.708	3550
1452.938	3509
1455.167	3591
1457.394	3516
1459.62	3544
1461.846	3553
1464.073	3485
1466.299	3516
1468.523	3541
1470.746	3403
1472.969	3446
1475.191	3369
1477.415	3451
1479.636	3335
1481.858	3389
1484.078	3408
1486.298	3369
1488.518	3352
1490.736	3395
1492.954	3361
1495.169	3277
1497.386	3255
1499.602	3302
1501.819	3321
1504.034	3306
1506.248	3342
1508.462	3268
1510.675	3288
1512.888	3297
1515.1	3325
1517.311	3321
1519.522	3301
1521.732	3264
1523.942	3284
1526.151	3314
1528.36	3331
1530.566	3347
1532.773	3304
1534.98	3339
1537.187	3355
1539.392	3339
1541.596	3338
1543.801	3386
1546.005	3334
1548.208	3332
1550.411	3307
1552.612	3345
1554.814	3340
1557.013	3295
1559.212	3341
1561.414	3455
1563.612	3371
1565.811	3427
1568.007	3429
1570.203	3444
1572.403	3378
1574.598	3303
1576.792	3457
1578.988	3396
1581.181	3397
1583.376	3359
1585.568	3481
1587.761	3470
1589.952	3458
1592.143	3437
1594.333	3434
1596.524	3489
1598.715	3429
1600.903	3419
1603.091	3470
1605.278	3426
1607.466	3444
1609.652	3514
1611.838	3455
1614.023	3460
1616.207	3397
1618.391	3468
1620.576	3552
1622.759	3499
1624.941	3482
1627.123	3390
1629.304	3506
1631.484	3463
1633.664	3428
1635.844	3523
1638.022	3488
1640.201	3518
1642.38	3481
1644.556	3497
1646.732	3518
1648.908	3529
1651.084	3556
1653.257	3477
1655.433	3534
1657.607	3491
1659.779	3614
1661.951	3548
1664.122	3504
1666.295	3517
1668.467	3566
1670.635	3534
1672.805	3577
1674.973	3560
1677.142	3561
1679.31	3536
1681.478	3532
1683.644	3564
1685.81	3563
1687.975	3520
1690.142	3510
1692.305	3478
1694.468	3491
1696.632	3540
1698.794	3473
1700.957	3457
1703.119	3523
1705.279	3472
1707.439	3382
1709.598	3332
1711.758	3513
1713.917	3438
1716.075	3406
1718.231	3346
1720.388	3443
1722.543	3485
1724.702	3399
1726.856	3410
1729.01	3481
1731.164	3349
1733.317	3490
1735.471	3414
1737.623	3416
1739.774	3468
1741.925	3533
1744.075	3436
1746.225	3459
1748.376	3415
1750.524	3496
1752.672	3449
1754.82	3484
1756.965	3494
1759.113	3445
1761.259	3420
1763.405	3502
1765.549	3413
1767.694	3469
1769.836	3383
1771.981	3416
1774.123	3538
1776.264	3414
1778.405	3437
1780.546	3542
1782.687	3430
1784.827	3318
1786.966	3515
1789.103	3487
1791.242	3453
1793.381	3525
1795.517	3497
1797.653	3498
1799.788	3468
1801.923	3536
1804.057	3481
1806.193	3509
1808.326	3519
1810.457	3368
1812.59	3468
1814.721	3462
1816.855	3425
1818.984	3525
1821.113	3449
1823.244	3433
1825.372	3489
1827.499	3507
1829.63	3442
1831.756	3346
1833.882	3455
1836.007	3445
1838.132	3443
1840.26	3605
1842.384	3447
1844.507	3382
1846.63	3440
1848.752	3405
1850.875	3452
1852.996	3440
1855.118	3477
1857.238	3452
1859.358	3367
1861.477	3480
1863.597	3387
1865.715	3385
1867.832	3455
1869.948	3433
1872.064	3401
1874.181	3487
1876.297	3394
1878.411	3356
1880.526	3501
1882.639	3462
1884.752	3372
1886.865	3419
1888.977	3485
1891.089	3450
1893.2	3514
1895.308	3346
1897.42	3452
1899.53	3445
1901.639	3458
1903.745	3468
1905.853	3488
1907.962	3379
1910.067	3464
1912.174	3530
1914.278	3535
1916.383	3481
1918.486	3545
1920.592	3539
1922.694	3483
1924.797	3509
1926.898	3532
1929	3559
1931.102	3445
1933.203	3512
1935.301	3461
1937.401	3546
1939.499	3471
1941.598	3492
1943.697	3475
1945.793	3575
1947.888	3506
1949.985	3524
1952.08	3576
1954.176	3503
1956.269	3473
1958.364	3480
1960.457	3518
1962.549	3436
1964.642	3449
1966.733	3523
1968.823	3421
1970.913	3407
1973.005	3473
1975.093	3528
1977.184	3481
1979.271	3505
1981.359	3523
1983.446	3562
1985.532	3469
1987.619	3507
1989.705	3553
1991.789	3409
1993.874	3480
1995.956	3439
1998.041	3422
2000.123	3491
2002.206	3443
2004.287	3437
2006.368	3431
2008.449	3490
2010.529	3522
2012.609	3495
2014.688	3488
2016.766	3534
2018.843	3503
2020.922	3498
2022.999	3484
2025.074	3480
2027.15	3550
2029.225	3535
2031.299	3406
2033.375	3498
2035.447	3393
2037.52	3443
2039.592	3446
2041.664	3470
2043.736	3533
2045.807	3370
2047.876	3444
2049.947	3485
2052.015	3447
2054.086	3471
2056.153	3528
2058.221	3520
2060.288	3477
2062.353	3485
2064.42	3513
2066.486	3503
2068.55	3464
2070.614	3459
2072.678	3549
2074.741	3487
2076.805	3497
2078.866	3500
2080.929	3580
2082.99	3465
2085.049	3500
2087.109	3530
2089.17	3469
2091.228	3487
2093.286	3525
2095.344	3537
2097.4	3544
2099.46	3543
2101.516	3488
2103.572	3503
2105.626	3527
2107.679	3477
2109.735	3534
2111.788	3523
2113.841	3478
2115.894	3437
2117.945	3504
2119.997	3486
2122.049	3530
2124.1	3449
2126.148	3524
2128.197	3458
2130.246	3507
2132.296	3486
2134.342	3531
2136.39	3393
2138.437	3483
2140.483	3445
2142.527	3531
2144.574	3469
2146.619	3437
2148.661	3503
2150.705	3473
2152.747	3491
2154.792	3534
2156.832	3387
2158.874	3517
2160.915	3453
2162.954	3518
2164.995	3492
2167.034	3391
2169.072	3478
2171.111	3472
2173.148	3485
2175.186	3421
2177.223	3402
2179.258	3544
2181.294	3514
2183.328	3397
2185.362	3504
2187.398	3408
2189.431	3399
2191.463	3419
2193.495	3402
2195.528	3363
2197.56	3433
2199.59	3521
2201.62	3374
2203.649	3454
2205.678	3424
2207.708	3427
2209.737	3484
2211.764	3426
2213.791	3361
2215.817	3446
2217.843	3458
2219.87	3459
2221.895	3437
2223.919	3436
2225.942	3359
2227.966	3438
2229.988	3459
2232.012	3423
2234.032	3370
2236.054	3443
2238.074	3346
2240.095	3469
2242.116	3428
2244.135	3425
2246.153	3412
2248.171	3442
2250.188	3460
2252.208	3436
2254.223	3408
2256.239	3430
2258.255	3490
2260.269	3474
2262.283	3387
2264.3	3485
2266.312	3457
2268.325	3396
2270.336	3361
2272.349	3442
2274.362	3389
2276.372	3374
2278.383	3411
2280.392	3393
2282.402	3484
2284.409	3357
2286.418	3429
2288.427	3407
2290.433	3453
2292.441	3418
2294.446	3340
2296.453	3462
2298.459	3474
2300.463	3354
2302.466	3379
2304.471	3371
2306.475	3464
2308.477	3446
2310.478	3423
2312.481	3440
2314.481	3335
2316.481	3361
2318.482	3406
2320.482	3373
2322.48	3380
2324.48	3429
2326.478	3449
2328.476	3333
2330.473	3429
2332.469	3420
2334.465	3457
2336.46	3427
2338.454	3362
2340.45	3373
2342.444	3404
2344.437	3392
2346.43	3356
2348.421	3315
2350.414	3366
2352.405	3354
2354.396	3333
2356.386	3346
2358.376	3389
2360.366	3363
2362.355	3315
2364.343	3424
2366.331	3322
2368.317	3393
2370.304	3407
2372.292	3368
2374.278	3373
2376.262	3300
2378.247	3357
2380.23	3355
2382.216	3305
2384.199	3409
2386.181	3332
2388.163	3394
2390.144	3344
2392.127	3270
2394.107	3337
2396.087	3431
2398.066	3367
2400.046	3303
2402.023	3329
2404.004	3389
2405.981	3321
2407.957	3333
2409.934	3299
2411.91	3247
2413.886	3285
2415.862	3337
2417.836	3388
2419.809	3313
2421.784	3334
2423.756	3348
2425.73	3322
2427.701	3384
2429.672	3364
2431.644	3372
2433.615	3259
2435.586	3355
2437.555	3393
2439.523	3391
2441.491	3257
2443.459	3260
2445.428	3344
2447.395	3403
2449.361	3281
2451.327	3386
2453.292	3373
2455.257	3317
2457.223	3349
2459.187	3345
2461.15	3344
2463.113	3273
2465.076	3325
2467.039	3249
2468.999	3425
2470.96	3308
2472.921	3294
2474.881	3365
2476.841	3288
2478.8	3306
2480.759	3322
2482.717	3311
2484.675	3318
2486.63	3201
2488.589	3347
2490.545	3306
2492.5	3254
2494.455	3299
2496.408	3296
2498.364	3303
2500.318	3325
2502.27	3326
2504.223	3322
2506.174	3283
2508.126	3323
2510.078	3324
2512.03	3264
2513.979	3330
2515.927	3304
2517.877	3313
2519.826	3225
2521.775	3328
2523.722	3265
2525.668	3260
2527.616	3247
2529.561	3214
2531.508	3227
2533.452	3278
2535.398	3283
2537.342	3276
2539.284	3330
2541.229	3282
2543.173	3254
2545.114	3268
2547.055	3322
2548.996	3279
2550.938	3259
2552.878	3231
2554.817	3189
2556.756	3262
2558.695	3224
2560.633	3339
2562.572	3293
2564.509	3342
2566.445	3297
2568.382	3296
2570.317	3295
2572.254	3244
2574.189	3292
2576.123	3275
2578.057	3328
2579.99	3163
2581.923	3250
2583.855	3250
2585.788	3343
2587.719	3284
2589.65	3273
2591.579	3288
2593.511	3223
2595.44	3265
2597.37	3288
2599.297	3259
2601.225	3269
2603.153	3357
2605.08	3268
2607.007	3204
2608.932	3265
2610.858	3257
2612.782	3300
2614.709	3407
2616.632	3226
2618.556	3263
2620.478	3356
2622.401	3294
2624.324	3299
2626.247	3331
2628.167	3268
2630.088	3286
2632.008	3373
2633.928	3251
2635.848	3263
2637.766	3251
2639.684	3228
2641.603	3322
2643.519	3338
2645.437	3288
2647.353	3330
2649.27	3300
2651.184	3293
2653.099	3215
2655.014	3290
2656.928	3237
2658.842	3277
2660.755	3321
2662.667	3295
2664.579	3294
2666.491	3282
2668.402	3322
2670.312	3334
2672.222	3307
2674.132	3259
2676.042	3300
2677.951	3277
2679.859	3296
2681.766	3293
2683.674	3338
2685.582	3288
2687.488	3297
2689.392	3272
2691.298	3267
2693.202	3255
2695.107	3237
2697.012	3212
2698.914	3370
2700.817	3267
2702.72	3225
2704.622	3241
2706.524	3262
2708.425	3220
2710.326	3285
2712.225	3302
2714.125	3197
2716.024	3207
2717.923	3308
2719.822	3290
2721.719	3289
2723.616	3328
2725.512	3211
2727.41	3264
2729.305	3340
2731.201	3239
2733.095	3250
2734.99	3276
2736.884	3239
2738.778	3334
2740.67	3270
2742.562	3193
2744.455	3286
2746.346	3265
2748.238	3216
2750.129	3245
2752.018	3307
2753.907	3272
2755.797	3336
2757.687	3259
2759.575	3257
2761.462	3242
2763.349	3227
2765.237	3320
2767.124	3291
2769.009	3243
2770.894	3269
2772.779	3156
2774.663	3203
2776.547	3291
2778.431	3243
2780.314	3245
2782.197	3124
2784.078	3255
2785.96	3214
2787.842	3279
2789.723	3300
2791.603	3220
2793.483	3186
2795.362	3210
2797.241	3207
2799.121	3287
2800.997	3318
2802.874	3328
2804.751	3214
2806.628	3279
2808.506	3254
2810.38	3191
2812.255	3239
2814.13	3168
2816.003	3179
2817.878	3217
2819.752	3211
2821.623	3187
2823.496	3244
2825.368	3254
2827.238	3289
2829.111	3276
2830.98	3209
2832.851	3245
2834.719	3234
2836.589	3288
2838.458	3264
2840.327	3207
2842.193	3247
2844.061	3264
2845.927	3289
2847.794	3292
2849.66	3271
2851.525	3332
2853.39	3359
2855.254	3307
2857.117	3341
2858.983	3385
2860.845	3370
2862.707	3372
2864.569	3379
2866.431	3367
2868.293	3422
2870.154	3437
2872.013	3575
2873.873	3548
2875.733	3562
2877.592	3589
2879.451	3538
2881.309	3640
2883.166	3733
2885.022	3612
2886.879	3663
2888.736	3710
2890.591	3671
2892.446	3775
2894.301	3707
2896.155	3813
2898.009	3705
2899.863	3750
2901.716	3700
2903.568	3700
2905.419	3659
2907.27	3694
2909.123	3706
2910.973	3700
2912.824	3677
2914.673	3766
2916.521	3690
2918.372	3748
2920.22	3816
2922.067	3824
2923.914	3941
2925.761	3840
2927.607	3987
2929.455	3914
2931.301	3982
2933.144	3993
2934.99	4046
2936.833	4111
2938.678	4054
2940.522	4110
2942.364	4118
2944.207	4231
2946.048	4275
2947.891	4303
2949.731	4245
2951.571	4304
2953.412	4301
2955.25	4301
2957.09	4162
2958.93	4211
2960.767	4204
2962.606	4177
2964.443	4170
2966.279	4076
2968.116	4083
2969.953	3933
2971.788	4028
2973.623	3960
2975.457	3873
2977.292	3859
2979.127	3851
2980.959	3790
2982.792	3730
2984.624	3702
2986.455	3634
2988.288	3679
2990.119	3656
2991.949	3540
2993.779	3541
2995.608	3545
2997.439	3550
2999.268	3531
3001.096	3452
3002.923	3474
3004.751	3354
3006.578	3428
3008.406	3362
3010.232	3352
3012.057	3335
3013.883	3268
3015.706	3247
3017.532	3240
3019.356	3256
3021.179	3205
3023.002	3173
3024.823	3231
3026.646	3234
3028.469	3246
3030.289	3123
3032.11	3179
3033.93	3113
3035.749	3166
3037.57	3040
3039.39	3139
3041.207	3133
3043.026	3074
3044.842	3165
3046.661	3097
3048.477	3134
3050.294	3086
3052.109	3161
3053.925	3133
3055.739	3046
3057.555	3116
3059.368	3149
3061.181	3110
3062.995	3016
3064.807	3171
3066.62	3122
3068.433	3161
3070.243	3108
3072.054	3069
3073.865	3031
3075.675	3136
3077.485	3104
3079.293	3060
3081.102	3009
3082.911	3063
3084.719	3085
3086.527	3076
3088.333	3072
3090.139	3040
3091.945	3011
3093.75	3063
3095.557	3108
3097.361	2964
3099.165	3115
3100.969	2971
3102.772	3067
3104.575	3051
3106.379	3099
3108.181	3021
3109.982	3125
3111.783	2978
3113.584	3029
3115.386	3029
3117.186	3140
3118.985	3047
3120.783	2990
3122.582	3034
3124.381	2996
3126.179	3022
3127.975	3025
3129.772	3023
3131.569	2952
3133.365	3015
3135.161	3012
3136.956	3013
3138.751	3041
3140.544	2976
3142.338	2991
3144.132	2940
3145.925	3026
3147.717	3049
3149.509	2993
3151.301	2958
3153.091	2951
3154.884	2985
3156.673	2969
3158.462	3002
3160.252	3031
3162.041	2947
3163.831	3019
3165.618	2961
3167.405	3011
3169.193	2953
3170.979	3035
3172.767	2957
3174.553	2983
3176.338	2986
3178.123	2964
3179.907	2902
3181.692	2979
3183.477	2973
3185.259	2914
3187.042	2955
3188.824	2970
3190.607	2949
3192.389	2931
3194.17	2894
3195.951	2953
3197.73	2972
3199.51	2930
3201.289	2940
3203.07	2908
3204.848	2948
3206.626	2983
3208.403	2926
3210.18	2934
3211.959	2899
3213.735	2988
3215.511	2958
3217.285	2916
3219.06	2941
3220.836	3019
3222.611	2989
3224.384	2924
3226.158	2920
3227.929	2975
3229.702	2937
3231.476	2950
3233.248	2941
3235.018	2897
3236.789	2949
3238.56	2904
3240.33	2975
3242.1	2969
3243.869	2983
3245.637	2948
3247.405	2926
3249.172	2947
3250.941	2949
3252.707	2899
3254.474	2851
3256.24	2876
3258.006	2909
3259.772	2934
3261.537	2948
3263.301	2928
3265.065	3021
3266.828	2919
3268.592	2924
3270.355	2943
3272.117	2976
3273.878	2934
3275.64	2939
3277.401	2948
3279.162	2946
3280.922	2912
3282.682	2958
3284.441	2947
3286.199	2944
3287.959	2969
3289.716	2878
3291.475	2902
3293.232	2953
3294.988	3001
3296.744	2976
3298.501	2917
3300.256	3021
3302.011	3012
3303.766	2914
3305.52	2957
3307.275	3011
3309.028	2961
3310.781	3004
3312.533	2958
3314.285	2973
3316.038	3016
3317.789	3020
3319.54	2964
3321.289	2985
3323.039	2999
3324.789	2960
3326.539	3024
3328.288	2942
3330.035	2867
3331.783	3000
3333.531	2938
3335.28	2939
3337.025	2980
3338.771	2914
3340.518	2905
3342.262	2962
3344.009	2999
3345.753	2899
3347.497	2943
3349.24	2911
3350.983	2942
3352.726	2922
3354.469	2962
3356.212	2929
3357.952	2897
3359.694	2894
3361.434	2882
3363.176	2908
3364.916	2948
3366.654	2787
3368.394	2889
3370.132	2905
3371.871	2909
3373.61	2895
3375.346	2854
3377.083	2836
3378.82	2886
3380.556	2950
3382.292	2844
3384.027	2910
3385.763	2845
3387.497	2850
3389.231	2864
3390.965	2854
3392.698	2762
3394.431	2797
3396.164	2831
3397.896	2831
3399.627	2892
3401.36	2791
3403.09	2828
3404.82	2859
3406.55	2816
3408.279	2818
3410.01	2841
3411.738	2810
3413.467	2846
3415.194	2817
3416.92	2794
3418.647	2724
3420.375	2777
3422.102	2791
3423.827	2807
3425.553	2872
3427.277	2803
3429.003	2828
3430.727	2741
3432.451	2837
3434.173	2808
3435.896	2792
3437.62	2833
3439.343	2838
3441.063	2831
3442.785	2754
3444.505	2770
3446.226	2769
3447.948	2745
3449.666	2799
3451.386	2813
3453.104	2775
3454.823	2788
3456.541	2760
3458.259	2762
3459.976	2734
3461.693	2782
3463.408	2731
3465.125	2767
3466.841	2765
3468.556	2741
3470.271	2680
3471.985	2770
3473.698	2657
3475.414	2743
3477.126	2778
3478.838	2724
3480.55	2758
3482.263	2690
3483.975	2737
3485.686	2702
3487.396	2702
3489.106	2664
3490.817	2710
3492.526	2671
3494.236	2649
3495.944	2701
3497.652	2634
3499.359	2667
3501.066	2634
3502.775	2655
3504.481	2601
3506.187	2705
3507.893	2596
3509.598	2635
3511.304	2666
3513.009	2603
3514.713	2613
3516.417	2593
3518.12	2634
3519.821	2605
3521.525	2578
3523.228	2647
3524.929	2628
3526.631	2580
3528.33	2617
3530.032	2643
3531.733	2636
3533.433	2609
3535.131	2597
3536.83	2608
3538.529	2597
3540.227	2542
3541.925	2596
3543.623	2570
3545.319	2536
3547.016	2590
3548.712	2529
3550.408	2542
3552.103	2580
3553.798	2578
3555.491	2569
3557.188	2553
3558.88	2596
3560.574	2587
3562.266	2536
3563.959	2591
3565.651	2602
3567.343	2592
3569.035	2541
3570.725	2594
3572.415	2532
3574.106	2585
3575.797	2507
3577.485	2539
3579.174	2546
3580.863	2530
3582.551	2605
3584.238	2530
3585.926	2524
3587.613	2515
3589.3	2530
3590.986	2542
3592.671	2520
3594.357	2508
3596.042	2548
3597.726	2441
3599.41	2525
3601.094	2485
3602.778	2485
3604.461	2504
3606.143	2529
3607.825	2465
3609.507	2455
3611.188	2439
3612.87	2466
3614.551	2445
3616.229	2492
3617.909	2489
3619.589	2458
3621.269	2386
3622.948	2431
3624.625	2413
3626.302	2466
3627.98	2363
3629.657	2420
3631.334	2440
3633.01	2437
3634.686	2359
3636.361	2482
3638.036	2416
3639.712	2404
3641.385	2432
3643.06	2457
3644.732	2369
3646.405	2350
3648.08	2407
3649.751	2352
3651.424	2353
3653.094	2353
3654.766	2392
3656.436	2314
3658.106	2417
3659.777	2431
3661.446	2365
3663.115	2443
3664.783	2366
3666.452	2398
3668.121	2319
3669.788	2321
3671.454	2389
3673.121	2385
3674.789	2291
3676.455	2398
3678.12	2329
3679.784	2338
3681.45	2400
3683.114	2435
3684.779	2342
3686.442	2341
3688.105	2268
3689.768	2363
3691.43	2387
3693.093	2350
3694.754	2344
3696.415	2329
3698.076	2357
3699.736	2332
3701.396	2346
3703.057	2291
3704.716	2309
3706.375	2394
3708.034	2316
3709.692	2314
3711.351	2301
3713.008	2385
3714.665	2363
3716.321	2347
3717.977	2309
3719.634	2314
3721.29	2365
3722.945	2349
3724.598	2244
3726.253	2266
3727.907	2280
3729.561	2280
3731.214	2327
3732.867	2286
3734.518	2337
3736.171	2351
3737.824	2314
3739.474	2263
3741.125	2316
3742.775	2266
3744.425	2270
3746.074	2238
3747.725	2295
3749.373	2286
3751.022	2224
3752.669	2349
3754.318	2263
3755.966	2306
3757.612	2191
3759.259	2252
3760.905	2232
3762.55	2263
3764.197	2120
3765.842	2263
3767.486	2253
3769.131	2224
3770.774	2237
3772.417	2243
3774.061	2268
3775.705	2300
3777.347	2204
3778.988	2237
3780.629	2277
3782.271	2257
3783.912	2250
3785.552	2241
3787.192	2229
3788.831	2221
3790.472	2192
3792.112	2243
3793.75	2191
3795.388	2221
3797.024	2213
3798.661	2225
3800.3	2173
3801.936	2227
3803.572	2225
3805.208	2174
3806.844	2222
3808.48	2197
3810.115	2170
3811.748	2208
3813.382	2228
3815.016	2263
3816.649	2167
3818.283	2218
3819.914	2197
3821.547	2258
3823.178	2144
3824.809	2152
3826.441	2232
3828.072	2204
3829.701	2225
3831.331	2173
3832.96	2233
3834.591	2147
3836.219	2220
3837.847	2168
3839.475	2207
3841.102	2181
3842.729	2169
3844.357	2147
3845.984	2159
3847.609	2225
3849.234	2154
3850.86	2234
3852.485	2168
3854.11	2091
3855.734	2157
3857.357	2168
3858.981	2142
3860.603	2156
3862.227	2148
3863.848	2172
3865.471	2139
3867.092	2177
3868.713	2181
3870.334	2112
3871.954	2132
3873.575	2143
3875.194	2160
3876.813	2075
3878.433	2145
3880.051	2114
3881.669	2122
3883.286	2132
3884.904	2100
3886.52	2147
3888.138	2173
3889.754	2095
3891.37	2160
3892.985	2157
3894.6	2120
3896.216	2170
3897.831	2126
3899.444	2159
3901.058	2212
3902.67	2094
3904.283	2092
3905.897	2146
3907.509	2079
3909.121	2174
3910.731	2136
3912.342	2098
3913.954	2101
3915.563	2134
3917.174	2109
3918.783	2071
3920.391	2111
3922.002	2099
3923.611	2095
3925.218	2124
3926.826	2092
3928.432	2080
3930.039	2133
3931.647	2123
3933.253	2076
3934.859	2124
3936.464	2097
3938.068	2106
3939.675	2144
3941.278	2166
3942.883	2146
3944.486	2088
3946.089	2101
3947.692	2060
3949.295	2127
3950.898	2099
3952.499	2101
3954.1	2073
3955.7	2037
3957.303	2059
3958.903	2044
3960.502	2064
3962.101	2132
3963.7	2116
3965.301	2068
3966.899	2032
3968.497	2028
3970.094	2056
3971.691	2070
3973.288	2049
3974.885	2071
3976.481	2045
3978.077	2020
3979.672	2035
3981.267	2085
3982.863	2065
3984.457	2028
3986.051	2035
3987.645	2076
3989.238	2028
3990.831	2039
3992.425	1999
3994.017	2099
3995.607	2027
3997.199	1991
3998.79	2036
4000.382	1998
4001.973	1990
4003.561	2021
4005.151	1969
4006.741	2019
4008.331	2019
4009.918	2010
4011.507	1972
4013.095	1979
4014.681	2011
4016.269	2070
4017.856	1988
4019.443	1972
4021.028	2017
4022.614	1977
4024.199	1975
4025.785	1972
4027.37	2000
4028.953	2026
4030.536	1958
4032.12	1977
4033.704	2019
4035.287	1963
4036.869	2000
4038.45	1936
4040.032	1961
4041.613	1957
4043.195	1913
4044.776	1982
4046.356	1928
4047.935	1988
4049.515	1955
4051.095	1908
4052.674	1953
4054.251	1967
4055.829	1964
4057.406	1955
4058.985	1939
4060.562	1967
4062.139	1948
4063.715	1977
4065.29	2011
4066.865	1938
4068.442	1982
4070.016	1952
4071.59	1899
4073.164	1985
4074.738	1940
4076.312	1955
4077.885	1920
4079.458	1895
4081.03	2006
4082.602	1966
4084.173	1963
4085.745	1892
4087.315	1950
4088.886	1924
4090.456	1867
4092.026	1931
4093.596	1871
4095.165	1913
4096.734	1934
4098.301	1913
4099.869	1897
4101.437	1949
4103.006	1966
4104.572	1957
4106.139	1961
4107.704	1873
4109.27	1901
4110.837	1870
4112.401	1896
4113.966	1905
4115.53	1899
4117.094	1947
4118.659	1906
4120.223	1908
4121.785	1840
4123.347	1865
4124.909	1909
4126.471	1894
4128.034	1935
4129.595	1871
4131.155	1845
4132.716	1835
4134.275	1900
4135.836	1900
4137.395	1831
4138.955	1855
4140.513	1936
4142.071	1839
4143.628	1871
4145.188	1850
4146.745	1806
4148.302	1874
4149.858	1854
4151.414	1833
4152.971	1861
4154.526	1874
4156.081	1821
4157.635	1798
4159.189	1856
4160.745	1875
4162.298	1807
4163.852	1820
4165.405	1836
4166.957	1883
4168.51	1872
4170.063	1863
4171.614	1846
4173.166	1813
4174.717	1881
4176.267	1762
4177.817	1854
4179.368	1826
4180.917	1789
4182.466	1835
4184.016	1793
4185.564	1829
4187.112	1823
4188.66	1808
4190.207	1811
4191.754	1841
4193.301	1801
4194.848	1819
4196.394	1826
4197.94	1773
4199.484	1787
4201.03	1790
4202.575	1839
4204.12	1859
4205.663	1823
4207.207	1783
4208.75	1718
4210.292	1750
4211.836	1795
4213.378	1785
4214.92	1782
4216.46	1811
4218.002	1811
4219.544	1748
4221.083	1799
4222.625	1772
4224.164	1782
4225.703	1766
4227.244	1753
4228.782	1789
4230.32	1804
4231.857	1762
4233.395	1743
4234.933	1789
4236.471	1702
4238.007	1829
4239.542	1772
4241.078	1794
4242.614	1776
4244.15	1740
4245.685	1750
4247.219	1736
4248.753	1798
4250.287	1769
4251.82	1802
4253.354	1705
4254.887	1812
4256.419	1771
4257.951	1738
4259.483	1749
4261.016	1783
4262.547	1780
4264.078	1749
4265.608	1708
4267.137	1772
4268.668	1707
4270.197	1760
4271.727	1706
4273.254	1755
4274.783	1739
4276.311	1790
4277.84	1770
4279.366	1744
4280.894	1743
4282.42	1699
4283.946	1700
4285.473	1755
4286.998	1716
4288.523	1721
4290.047	1736
4291.572	1737
4293.096	1786
4294.622	1720
4296.144	1768
4297.668	1730
4299.19	1696
4300.713	1755
4302.236	1649
4303.758	1749
4305.279	1719
4306.799	1723
4308.321	1685
4309.842	1741
4311.361	1757
4312.882	1737
4314.401	1686
