400.0961	2329
402.6185	2375
405.1424	2423
407.6635	2376
410.1838	2431
412.7035	2399
415.2225	2490
417.7388	2429
420.2585	2463
422.7754	2528
425.2917	2576
427.8072	2538
430.3221	2625
432.8363	2613
435.3498	2560
437.8626	2556
440.3727	2572
442.8841	2521
445.3969	2500
447.907	2607
450.4142	2589
452.9229	2618
455.4289	2525
457.9362	2584
460.4449	2584
462.9488	2454
465.454	2561
467.9566	2474
470.4604	2536
472.9637	2508
475.4662	2488
477.966	2497
480.4671	2515
482.9656	2524
485.4633	2532
487.9645	2501
490.4608	2533
492.9566	2503
495.4536	2530
497.948	2489
500.4437	2489
502.9387	2518
505.431	2541
507.9226	2506
510.4136	2506
512.9079	2527
515.3975	2561
517.8864	2575
520.3746	2515
522.8622	2568
525.3491	2570
527.8394	2585
530.3249	2551
532.8098	2627
535.2939	2562
537.7774	2595
540.2623	2634
542.7444	2561
545.2259	2588
547.7067	2560
550.1868	2590
552.6683	2592
555.147	2584
557.6231	2659
560.1005	2591
562.5773	2630
565.0534	2678
567.5308	2638
570.0056	2683
572.4776	2765
574.951	2681
577.4237	2766
579.8978	2779
582.3671	2713
584.8378	2767
587.3079	2721
589.7773	2724
592.244	2732
594.714	2768
597.1793	2712
599.6461	2771
602.1121	2635
604.5754	2686
607.0421	2616
609.5042	2684
611.9675	2647
614.4282	2734
616.8902	2610
619.3515	2642
621.8122	2683
624.2702	2644
626.7296	2670
629.1863	2572
631.6423	2671
634.1017	2661
636.5563	2546
639.0104	2689
641.4658	2656
643.9185	2588
646.3725	2632
648.8239	2629
651.2766	2613
653.7266	2631
656.176	2667
658.6247	2694
661.0748	2670
663.5242	2676
665.9709	2742
668.417	2657
670.8624	2702
673.3092	2659
675.7533	2651
678.1968	2675
680.6395	2728
683.0817	2696
685.5251	2810
687.9659	2723
690.4061	2710
692.8456	2635
695.2844	2679
697.7226	2672
700.1621	2759
702.599	2726
705.0332	2729
707.4688	2765
709.9036	2772
712.3399	2688
714.7735	2728
717.2044	2776
719.6367	2742
722.0683	2804
724.4993	2805
726.9296	2799
729.3593	2779
731.7883	2804
734.2147	2861
736.6423	2758
739.0714	2844
741.4958	2827
743.9216	2893
746.3447	2845
748.7691	2782
751.1929	2890
753.616	2853
756.0366	2880
758.4584	2781
760.8776	2889
763.2982	2904
765.718	2826
768.1373	2897
770.5539	2923
772.9698	2918
775.3871	2941
777.8038	2916
780.2178	2880
782.6332	2878
785.0459	2894
787.458	2817
789.8714	2881
792.2842	2835
794.6943	2843
797.1038	2881
799.5127	2876
801.9209	2913
804.3324	2840
806.7393	2936
809.1456	2875
811.5513	2930
813.9562	2944
816.3625	3007
818.7663	2939
821.1693	2977
823.5718	2936
825.9735	2934
828.3746	2901
830.7771	2924
833.177	2927
835.5762	2937
837.9747	2949
840.3727	2941
842.772	3022
845.1666	3000
847.5626	3036
849.958	3128
852.3527	3063
854.7488	3032
857.1403	2974
859.5331	3002
861.9253	3023
864.3168	3111
866.7057	3081
869.098	3062
871.4876	3010
873.8746	3073
876.263	3032
878.6487	3002
881.0378	3036
883.4243	3044
885.8081	3039
888.1933	3036
890.5759	3040
892.9598	3021
895.343	2934
897.7256	2974
900.1057	2966
902.4871	2954
904.8659	3109
907.246	3031
909.6254	3095
912.0023	2979
914.3786	3117
916.7562	3177
919.1331	3193
921.5074	3192
923.8831	3260
926.2562	3255
928.6287	3221
931.0005	3219
933.3757	3239
935.7462	3267
938.1162	3245
940.4855	3330
942.8542	3392
945.2242	3407
947.5916	3507
949.9584	3645
952.3266	3868
954.6921	4044
957.0571	4211
959.4233	4416
961.787	4606
964.15	4460
966.5125	4311
968.8742	4044
971.2354	3807
973.5959	3582
975.9559	3505
978.3151	3335
980.6738	3278
983.0338	3218
985.3912	3208
987.7461	3223
990.1022	3114
992.4578	3185
994.8127	3184
997.1689	3141
999.5207	3178
1001.874	3156
1004.226	3207
1006.576	3115
1008.929	3222
1011.28	3158
1013.628	3164
1015.977	3196
1018.324	3184
1020.674	3113
1023.019	3229
1025.366	3148
1027.713	3217
1030.056	3216
1032.399	3269
1034.746	3205
1037.087	3228
1039.431	3290
1041.771	3170
1044.113	3294
1046.454	3209
1048.793	3272
1051.133	3237
1053.471	3179
1055.807	3210
1058.146	3279
1060.483	3329
1062.818	3389
1065.153	3307
1067.489	3290
1069.822	3361
1072.156	3350
1074.488	3382
1076.82	3328
1079.15	3367
1081.48	3404
1083.814	3373
1086.143	3272
1088.471	3266
1090.799	3292
1093.126	3211
1095.452	3210
1097.78	3205
1100.105	3205
1102.43	3243
1104.754	3163
1107.077	3167
1109.4	3120
1111.722	3209
1114.044	3252
1116.365	3236
1118.685	3264
1121.005	3305
1123.324	3244
1125.643	3256
1127.961	3205
1130.278	3252
1132.595	3158
1134.911	3134
1137.226	3207
1139.541	3144
1141.854	3223
1144.167	3160
1146.482	3170
1148.793	3219
1151.105	3181
1153.414	3148
1155.725	3158
1158.033	3242
1160.344	3243
1162.651	3265
1164.959	3197
1167.265	3225
1169.572	3153
1171.878	3189
1174.184	3207
1176.488	3220
1178.79	3208
1181.094	3311
1183.396	3252
1185.699	3179
1188.001	3182
1190.301	3155
1192.6	3241
1194.9	3222
1197.2	3236
1199.497	3215
1201.794	3265
1204.09	3268
1206.387	3173
1208.684	3187
1210.978	3213
1213.272	3206
1215.565	3273
1217.858	3305
1220.15	3261
1222.443	3279
1224.734	3244
1227.024	3254
1229.313	3246
1231.602	3345
1233.892	3273
1236.18	3363
1238.467	3271
1240.754	3371
1243.04	3376
1245.325	3361
1247.612	3366
1249.896	3340
1252.178	3395
1254.461	3327
1256.743	3445
1259.027	3365
1261.308	3313
1263.587	3326
1265.867	3388
1268.146	3399
1270.425	3421
1272.703	3357
1274.981	3446
1277.256	3415
1279.532	3425
1281.808	3363
1284.083	3357
1286.358	3412
1288.63	3360
1290.904	3333
1293.175	3315
1295.449	3338
1297.719	3251
1299.99	3291
1302.259	3278
1304.529	3360
1306.798	3313
1309.065	3317
1311.333	3301
1313.599	3299
1315.866	3344
1318.131	3326
1320.396	3405
1322.66	3166
1324.925	3355
1327.187	3326
1329.448	3356
1331.711	3318
1333.974	3433
1336.234	3299
1338.493	3352
1340.752	3324
1343.01	3325
1345.269	3316
1347.526	3306
1349.784	3302
1352.04	3342
1354.295	3286
1356.552	3318
1358.806	3322
1361.059	3326
1363.312	3291
1365.564	3281
1367.818	3287
1370.069	3335
1372.318	3395
1374.568	3305
1376.817	3345
1379.066	3395
1381.316	3317
1383.564	3359
1385.809	3358
1388.056	3322
1390.301	3365
1392.549	3368
1394.793	3376
1397.036	3400
1399.279	3395
1401.522	3427
1403.763	3469
1406.007	3398
1408.248	3472
1410.487	3470
1412.727	3518
1414.965	3446
1417.205	3516
1419.442	3459
1421.68	3437
1423.915	3512
1426.152	3431
1428.388	3457
1430.623	3526
1432.857	3400
1435.091	3485
1437.323	3467
1439.556	3406
1441.789	3486
1444.019	3515
1446.25	3530
1448.48	3552
1450.708	3548
1452.938	3645
1455.167	3612
1457.394	3512
1459.62	3574
1461.846	3547
1464.073	3467
1466.299	3489
1468.523	3518
1470.746	3508
1472.969	3427
1475.191	3385
1477.415	3410
1479.636	3408
1481.858	3365
1484.078	3332
1486.298	3333
1488.518	3377
1490.736	3329
1492.954	3374
1495.169	3316
1497.386	3215
1499.602	3332
1501.819	3371
1504.034	3253
1506.248	3311
1508.462	3314
1510.675	3294
1512.888	3274
1515.1	3274
1517.311	3386
1519.522	3321
1521.732	3270
1523.942	3288
1526.151	3268
1528.36	3323
1530.566	3289
1532.773	3303
1534.98	3321
1537.187	3239
1539.392	3282
1541.596	3299
1543.801	3306
1546.005	3304
1548.208	3324
1550.411	3304
1552.612	3371
1554.814	3344
1557.013	3364
1559.212	3337
1561.414	3387
1563.612	3411
1565.811	3338
1568.007	3446
1570.203	3376
1572.403	3406
1574.598	3508
1576.792	3304
1578.988	3378
1581.181	3360
1583.376	3475
1585.568	3401
1587.761	3396
1589.952	3400
1592.143	3404
1594.333	3429
1596.524	3446
1598.715	3327
1600.903	3358
1603.091	3491
1605.278	3406
1607.466	3455
1609.652	3507
1611.838	3510
1614.023	3432
1616.207	3405
1618.391	3429
1620.576	3390
1622.759	3469
1624.941	3476
1627.123	3538
1629.304	3486
1631.484	3558
1633.664	3525
1635.844	3505
1638.022	3527
1640.201	3527
1642.38	3527
1644.556	3455
1646.732	3580
1648.908	3493
1651.084	3574
1653.257	3515
1655.433	3589
1657.607	3553
1659.779	3592
1661.951	3586
1664.122	3634
1666.295	3632
1668.467	3559
1670.635	3579
1672.805	3638
1674.973	3498
1677.142	3614
1679.31	3514
1681.478	3526
1683.644	3469
1685.81	3534
1687.975	3525
1690.142	3525
1692.305	3535
1694.468	3552
1696.632	3503
1698.794	3521
1700.957	3522
1703.119	3525
1705.279	3534
1707.439	3360
1709.598	3473
1711.758	3469
1713.917	3403
1716.075	3359
1718.231	3483
1720.388	3414
1722.543	3515
1724.702	3448
1726.856	3428
1729.01	3385
1731.164	3385
1733.317	3423
1735.471	3402
1737.623	3374
1739.774	3459
1741.925	3441
1744.075	3389
1746.225	3486
1748.376	3399
1750.524	3430
1752.672	3511
1754.82	3383
1756.965	3446
1759.113	3411
1761.259	3388
1763.405	3433
1765.549	3395
1767.694	3460
1769.836	3529
1771.981	3372
1774.123	3437
1776.264	3441
1778.405	3471
1780.546	3491
1782.687	3457
1784.827	3519
1786.966	3498
1789.103	3407
1791.242	3501
1793.381	3484
1795.517	3397
1797.653	3490
1799.788	3481
1801.923	3473
1804.057	3428
1806.193	3503
1808.326	3405
1810.457	3471
1812.59	3474
1814.721	3380
1816.855	3433
1818.984	3436
1821.113	3437
1823.244	3436
1825.372	3438
1827.499	3397
1829.63	3384
1831.756	3338
1833.882	3430
1836.007	3506
1838.132	3408
1840.26	3421
1842.384	3505
1844.507	3399
1846.63	3452
1848.752	3430
1850.875	3478
1852.996	3407
1855.118	3475
1857.238	3475
1859.358	3450
1861.477	3469
1863.597	3378
1865.715	3399
1867.832	3452
1869.948	3485
1872.064	3408
1874.181	3511
1876.297	3385
1878.411	3430
1880.526	3464
1882.639	3568
1884.752	3440
1886.865	3516
1888.977	3469
1891.089	3424
1893.2	3428
1895.308	3500
1897.42	3477
1899.53	3487
1901.639	3511
1903.745	3473
1905.853	3467
1907.962	3476
1910.067	3483
1912.174	3464
1914.278	3442
1916.383	3488
1918.486	3465
1920.592	3474
1922.694	3461
1924.797	3471
1926.898	3519
1929	3510
1931.102	3486
1933.203	3460
1935.301	3492
1937.401	3525
1939.499	3516
1941.598	3526
1943.697	3468
1945.793	3493
1947.888	3529
1949.985	3487
1952.08	3561
1954.176	3560
1956.269	3479
1958.364	3502
1960.457	3514
1962.549	3507
1964.642	3455
1966.733	3479
1968.823	3481
1970.913	3507
1973.005	3461
1975.093	3478
1977.184	3534
1979.271	3490
1981.359	3516
1983.446	3497
1985.532	3439
1987.619	3468
1989.705	3499
1991.789	3472
1993.874	3445
1995.956	3509
1998.041	3507
2000.123	3474
2002.206	3473
2004.287	3404
2006.368	3454
2008.449	3430
2010.529	3467
2012.609	3583
2014.688	3497
2016.766	3472
2018.843	3414
2020.922	3468
2022.999	3459
2025.074	3425
2027.15	3467
2029.225	3384
2031.299	3532
2033.375	3512
2035.447	3535
2037.52	3449
2039.592	3443
2041.664	3533
2043.736	3478
2045.807	3507
2047.876	3540
2049.947	3491
2052.015	3541
2054.086	3454
2056.153	3439
2058.221	3500
2060.288	3448
2062.353	3509
2064.42	3467
2066.486	3536
2068.55	3470
2070.614	3429
2072.678	3489
2074.741	3522
2076.805	3515
2078.866	3416
2080.929	3582
2082.99	3504
2085.049	3486
2087.109	3520
2089.17	3428
2091.228	3454
2093.286	3503
2095.344	3543
2097.4	3474
2099.46	3501
2101.516	3485
2103.572	3528
2105.626	3537
2107.679	3555
2109.735	3431
2111.788	3449
2113.841	3468
2115.894	3467
2117.945	3546
2119.997	3515
2122.049	3456
2124.1	3523
2126.148	3493
2128.197	3550
2130.246	3503
2132.296	3575
2134.342	3538
2136.39	3536
2138.437	3539
2140.483	3466
2142.527	3449
2144.574	3510
2146.619	3504
2148.661	3356
2150.705	3476
2152.747	3496
2154.792	3563
2156.832	3546
2158.874	3469
2160.915	3461
2162.954	3477
2164.995	3437
2167.034	3532
2169.072	3462
2171.111	3426
2173.148	3517
2175.186	3490
2177.223	3480
2179.258	3521
2181.294	3441
2183.328	3497
2185.362	3480
2187.398	3505
2189.431	3394
2191.463	3458
2193.495	3398
2195.528	3402
2197.56	3501
2199.59	3431
2201.62	3519
2203.649	3485
2205.678	3439
2207.708	3395
2209.737	3448
2211.764	3493
2213.791	3387
2215.817	3403
2217.843	3424
2219.87	3461
2221.895	3412
2223.919	3436
2225.942	3461
2227.966	3443
2229.988	3439
2232.012	3466
2234.032	3449
2236.054	3430
2238.074	3425
2240.095	3414
2242.116	3420
2244.135	3424
2246.153	3365
2248.171	3401
2250.188	3491
2252.208	3387
2254.223	3435
2256.239	3419
2258.255	3472
2260.269	3458
2262.283	3418
2264.3	3444
2266.312	3436
2268.325	3380
2270.336	3568
2272.349	3344
2274.362	3439
2276.372	3459
2278.383	3508
2280.392	3389
2282.402	3428
2284.409	3401
2286.418	3434
2288.427	3420
2290.433	3390
2292.441	3375
2294.446	3442
2296.453	3362
2298.459	3386
2300.463	3517
2302.466	3386
2304.471	3428
2306.475	3393
2308.477	3424
2310.478	3393
2312.481	3463
2314.481	3503
2316.481	3420
2318.482	3403
2320.482	3350
2322.48	3335
2324.48	3393
2326.478	3345
2328.476	3370
2330.473	3425
2332.469	3346
2334.465	3397
2336.46	3410
2338.454	3451
2340.45	3421
2342.444	3412
2344.437	3377
2346.43	3420
2348.421	3343
2350.414	3485
2352.405	3392
2354.396	3455
2356.386	3364
2358.376	3371
2360.366	3409
2362.355	3338
2364.343	3325
2366.331	3356
2368.317	3359
2370.304	3357
2372.292	3388
2374.278	3341
2376.262	3330
2378.247	3432
2380.23	3346
2382.216	3368
2384.199	3378
2386.181	3335
2388.163	3389
2390.144	3289
2392.127	3372
2394.107	3303
2396.087	3336
2398.066	3338
2400.046	3354
2402.023	3346
2404.004	3284
2405.981	3287
2407.957	3294
2409.934	3291
2411.91	3307
2413.886	3345
2415.862	3341
2417.836	3363
2419.809	3403
2421.784	3346
2423.756	3325
2425.73	3361
2427.701	3394
2429.672	3369
2431.644	3349
2433.615	3368
2435.586	3328
2437.555	3362
2439.523	3343
2441.491	3323
2443.459	3327
2445.428	3352
2447.395	3345
2449.361	3318
2451.327	3292
2453.292	3338
2455.257	3327
2457.223	3393
2459.187	3344
2461.15	3347
2463.113	3391
2465.076	3395
2467.039	3331
2468.999	3419
2470.96	3318
2472.921	3255
2474.881	3309
2476.841	3308
2478.8	3273
2480.759	3341
2482.717	3312
2484.675	3330
2486.63	3284
2488.589	3317
2490.545	3371
2492.5	3306
2494.455	3395
2496.408	3296
2498.364	3230
2500.318	3312
2502.27	3233
2504.223	3258
2506.174	3246
2508.126	3329
2510.078	3347
2512.03	3332
2513.979	3200
2515.927	3238
2517.877	3277
2519.826	3354
2521.775	3321
2523.722	3332
2525.668	3221
2527.616	3317
2529.561	3284
2531.508	3267
2533.452	3220
2535.398	3205
2537.342	3253
2539.284	3267
2541.229	3250
2543.173	3319
2545.114	3259
2547.055	3283
2548.996	3243
2550.938	3281
2552.878	3312
2554.817	3344
2556.756	3278
2558.695	3254
2560.633	3276
2562.572	3251
2564.509	3343
2566.445	3285
2568.382	3357
2570.317	3325
2572.254	3229
2574.189	3270
2576.123	3274
2578.057	3292
2579.99	3273
2581.923	3283
2583.855	3349
2585.788	3281
2587.719	3265
2589.65	3334
2591.579	3299
2593.511	3220
2595.44	3200
2597.37	3266
2599.297	3244
2601.225	3304
2603.153	3251
2605.08	3273
2607.007	3329
2608.932	3289
2610.858	3278
2612.782	3338
2614.709	3253
2616.632	3315
2618.556	3273
2620.478	3252
2622.401	3323
2624.324	3289
2626.247	3277
2628.167	3311
2630.088	3295
2632.008	3275
2633.928	3332
2635.848	3325
2637.766	3311
2639.684	3204
2641.603	3288
2643.519	3316
2645.437	3329
2647.353	3309
2649.27	3321
2651.184	3233
2653.099	3252
2655.014	3344
2656.928	3255
2658.842	3282
2660.755	3317
2662.667	3311
2664.579	3293
2666.491	3289
2668.402	3342
2670.312	3267
2672.222	3243
2674.132	3324
2676.042	3284
2677.951	3313
2679.859	3313
2681.766	3308
2683.674	3253
2685.582	3220
2687.488	3288
2689.392	3250
2691.298	3224
2693.202	3328
2695.107	3283
2697.012	3246
2698.914	3311
2700.817	3249
2702.72	3263
2704.622	3247
2706.524	3223
2708.425	3261
2710.326	3334
2712.225	3256
2714.125	3270
2716.024	3272
2717.923	3237
2719.822	3298
2721.719	3295
2723.616	3180
2725.512	3251
2727.41	3294
2729.305	3224
2731.201	3216
2733.095	3202
2734.99	3236
2736.884	3299
2738.778	3233
2740.67	3323
2742.562	3269
2744.455	3226
2746.346	3237
2748.238	3242
2750.129	3285
2752.018	3213
2753.907	3229
2755.797	3271
2757.687	3286
2759.575	3266
2761.462	3228
2763.349	3197
2765.237	3174
2767.124	3306
2769.009	3229
2770.894	3283
2772.779	3314
2774.663	3204
2776.547	3240
2778.431	3321
2780.314	3235
2782.197	3145
2784.078	3287
2785.96	3163
2787.842	3320
2789.723	3194
2791.603	3304
2793.483	3240
2795.362	3267
2797.241	3233
2799.121	3227
2800.997	3223
2802.874	3240
2804.751	3169
2806.628	3202
2808.506	3266
2810.38	3241
2812.255	3272
2814.13	3181
2816.003	3191
2817.878	3193
2819.752	3174
2821.623	3250
2823.496	3208
2825.368	3276
2827.238	3305
2829.111	3191
2830.98	3168
2832.851	3235
2834.719	3184
2836.589	3218
2838.458	3320
2840.327	3362
2842.193	3264
2844.061	3237
2845.927	3297
2847.794	3316
2849.66	3297
2851.525	3312
2853.39	3318
2855.254	3265
2857.117	3396
2858.983	3401
2860.845	3303
2862.707	3374
2864.569	3420
2866.431	3388
2868.293	3437
2870.154	3454
2872.013	3554
2873.873	3495
2875.733	3614
2877.592	3628
2879.451	3657
2881.309	3623
2883.166	3608
2885.022	3736
2886.879	3679
2888.736	3692
2890.591	3730
2892.446	3691
2894.301	3760
2896.155	3763
2898.009	3649
2899.863	3780
2901.716	3692
2903.568	3697
2905.419	3774
2907.27	3773
2909.123	3763
2910.973	3764
2912.824	3831
2914.673	3833
2916.521	3853
2918.372	3958
2920.22	3986
2922.067	4008
2923.914	4075
2925.761	4179
2927.607	4092
2929.455	4203
2931.301	4221
2933.144	4288
2934.99	4229
2936.833	4243
2938.678	4252
2940.522	4428
2942.364	4461
2944.207	4467
2946.048	4542
2947.891	4508
2949.731	4583
2951.571	4509
2953.412	4552
2955.25	4441
2957.09	4446
2958.93	4334
2960.767	4342
2962.606	4307
2964.443	4252
2966.279	4093
2968.116	3998
2969.953	4144
2971.788	4064
2973.623	3980
2975.457	3962
2977.292	3962
2979.127	3949
2980.959	3941
2982.792	3877
2984.624	3791
2986.455	3866
2988.288	3883
2990.119	3827
2991.949	3743
2993.779	3767
2995.608	3701
2997.439	3784
2999.268	3642
3001.096	3581
3002.923	3527
3004.751	3599
3006.578	3526
3008.406	3493
3010.232	3465
3012.057	3440
3013.883	3426
3015.706	3364
3017.532	3358
3019.356	3320
3021.179	3267
3023.002	3423
3024.823	3315
3026.646	3195
3028.469	3238
3030.289	3193
3032.11	3237
3033.93	3216
3035.749	3201
3037.57	3178
3039.39	3192
3041.207	3144
3043.026	3231
3044.842	3195
3046.661	3119
3048.477	3182
3050.294	3210
3052.109	3169
3053.925	3132
3055.739	3114
3057.555	3175
3059.368	3153
3061.181	3144
3062.995	3199
3064.807	3147
3066.62	3225
3068.433	3178
3070.243	3067
3072.054	3170
3073.865	3220
3075.675	3143
3077.485	3178
3079.293	3177
3081.102	3120
3082.911	3129
3084.719	3073
3086.527	3063
3088.333	3112
3090.139	3156
3091.945	3185
3093.75	3098
3095.557	3078
3097.361	3049
3099.165	3153
3100.969	3070
3102.772	3106
3104.575	3080
3106.379	3082
3108.181	3084
3109.982	3080
3111.783	2963
3113.584	3060
3115.386	3134
3117.186	3017
3118.985	3039
3120.783	3031
3122.582	3061
3124.381	2988
3126.179	3015
3127.975	3060
3129.772	3055
3131.569	3034
3133.365	2995
3135.161	3021
3136.956	3019
3138.751	3067
3140.544	3043
3142.338	3002
3144.132	2984
3145.925	2995
3147.717	3105
3149.509	2982
3151.301	2988
3153.091	3000
3154.884	2995
3156.673	3038
3158.462	2938
3160.252	2937
3162.041	3055
3163.831	3021
3165.618	3033
3167.405	2993
3169.193	3011
3170.979	2987
3172.767	2991
3174.553	2990
3176.338	3033
3178.123	3004
3179.907	2950
3181.692	3061
3183.477	2991
3185.259	3072
3187.042	2974
3188.824	3030
3190.607	3113
3192.389	2973
3194.17	3079
3195.951	2992
3197.73	2965
3199.51	2982
3201.289	2979
3203.07	2997
3204.848	2963
3206.626	2996
3208.403	2992
3210.18	2997
3211.959	3119
3213.735	2978
3215.511	2976
3217.285	2967
3219.06	3039
3220.836	3032
3222.611	3095
3224.384	3047
3226.158	3035
3227.929	3060
3229.702	3023
3231.476	2885
3233.248	3025
3235.018	3064
3236.789	3002
3238.56	3013
3240.33	2992
3242.1	3004
3243.869	3012
3245.637	2998
3247.405	3033
3249.172	3049
3250.941	3038
3252.707	3060
3254.474	3078
3256.24	2955
3258.006	2968
3259.772	3027
3261.537	3000
3263.301	3101
3265.065	3049
3266.828	3124
3268.592	2966
3270.355	3012
3272.117	3043
3273.878	2963
3275.64	2989
3277.401	3032
3279.162	3049
3280.922	2960
3282.682	3041
3284.441	3024
3286.199	2977
3287.959	3052
3289.716	3080
3291.475	3000
3293.232	3048
3294.988	3064
3296.744	3073
3298.501	3017
3300.256	3093
3302.011	3048
3303.766	3023
3305.52	3088
3307.275	2965
3309.028	3058
3310.781	3061
3312.533	3027
3314.285	3029
3316.038	3014
3317.789	3077
3319.54	3021
3321.289	3043
3323.039	3075
3324.789	3005
3326.539	3071
3328.288	3013
3330.035	3041
3331.783	3017
3333.531	3046
3335.28	3115
3337.025	3026
3338.771	3041
3340.518	3102
3342.262	3016
3344.009	3098
3345.753	3040
3347.497	3024
3349.24	3000
3350.983	2973
3352.726	3106
3354.469	2959
3356.212	2921
3357.952	3001
3359.694	3026
3361.434	3014
3363.176	2994
3364.916	3018
3366.654	2979
3368.394	3050
3370.132	2983
3371.871	2996
3373.61	3005
3375.346	2999
3377.083	2947
3378.82	2920
3380.556	2961
3382.292	2918
3384.027	2956
3385.763	2954
3387.497	2928
3389.231	2995
3390.965	2923
3392.698	2919
3394.431	2949
3396.164	2923
3397.896	2955
3399.627	2935
3401.36	2863
3403.09	2940
3404.82	2837
3406.55	2937
3408.279	2892
3410.01	2941
3411.738	2934
3413.467	2875
3415.194	2943
3416.92	2913
3418.647	2905
3420.375	2858
3422.102	2912
3423.827	2988
3425.553	2913
3427.277	2870
3429.003	2903
3430.727	2933
3432.451	2928
3434.173	2854
3435.896	2905
3437.62	2892
3439.343	2974
3441.063	2896
3442.785	2865
3444.505	2912
3446.226	2857
3447.948	2880
3449.666	2871
3451.386	2773
3453.104	2872
3454.823	2855
3456.541	2798
3458.259	2831
3459.976	2888
3461.693	2815
3463.408	2776
3465.125	2876
3466.841	2781
3468.556	2784
3470.271	2784
3471.985	2818
3473.698	2818
3475.414	2823
3477.126	2821
3478.838	2766
3480.55	2789
3482.263	2732
3483.975	2777
3485.686	2791
3487.396	2833
3489.106	2792
3490.817	2727
3492.526	2712
3494.236	2742
3495.944	2690
3497.652	2780
3499.359	2709
3501.066	2732
3502.775	2750
3504.481	2685
3506.187	2720
3507.893	2671
3509.598	2690
3511.304	2746
3513.009	2742
3514.713	2680
3516.417	2653
3518.12	2744
3519.821	2742
3521.525	2698
3523.228	2668
3524.929	2664
3526.631	2626
3528.33	2676
3530.032	2704
3531.733	2672
3533.433	2620
3535.131	2637
3536.83	2693
3538.529	2652
3540.227	2720
3541.925	2578
3543.623	2612
3545.319	2619
3547.016	2649
3548.712	2669
3550.408	2679
3552.103	2542
3553.798	2627
3555.491	2652
3557.188	2593
3558.88	2604
3560.574	2660
3562.266	2582
3563.959	2583
3565.651	2666
3567.343	2624
3569.035	2612
3570.725	2618
3572.415	2619
3574.106	2548
3575.797	2634
3577.485	2518
3579.174	2526
3580.863	2576
3582.551	2616
3584.238	2654
3585.926	2589
3587.613	2551
3589.3	2555
3590.986	2571
3592.671	2549
3594.357	2529
3596.042	2573
3597.726	2517
3599.41	2578
3601.094	2531
3602.778	2463
3604.461	2533
3606.143	2537
3607.825	2558
3609.507	2487
3611.188	2473
3612.87	2389
3614.551	2518
3616.229	2460
3617.909	2452
3619.589	2499
3621.269	2497
3622.948	2449
3624.625	2501
3626.302	2441
3627.98	2430
3629.657	2485
3631.334	2490
3633.01	2395
3634.686	2424
3636.361	2430
3638.036	2532
3639.712	2487
3641.385	2450
3643.06	2405
3644.732	2440
3646.405	2356
3648.08	2389
3649.751	2426
3651.424	2325
3653.094	2447
3654.766	2424
3656.436	2359
3658.106	2381
3659.777	2398
3661.446	2405
3663.115	2408
3664.783	2377
3666.452	2435
3668.121	2385
3669.788	2335
3671.454	2338
3673.121	2365
3674.789	2306
3676.455	2379
3678.12	2354
3679.784	2382
3681.45	2332
3683.114	2360
3684.779	2371
3686.442	2297
3688.105	2362
3689.768	2401
3691.43	2309
3693.093	2302
3694.754	2282
3696.415	2282
3698.076	2334
3699.736	2385
3701.396	2326
3703.057	2316
3704.716	2318
3706.375	2370
3708.034	2355
3709.692	2312
3711.351	2327
3713.008	2365
3714.665	2347
3716.321	2388
3717.977	2324
3719.634	2356
3721.29	2302
3722.945	2291
3724.598	2299
3726.253	2328
3727.907	2291
3729.561	2301
3731.214	2359
3732.867	2315
3734.518	2304
3736.171	2290
3737.824	2323
3739.474	2247
3741.125	2290
3742.775	2299
3744.425	2206
3746.074	2223
3747.725	2248
3749.373	2290
3751.022	2234
3752.669	2286
3754.318	2354
3755.966	2263
3757.612	2299
3759.259	2299
3760.905	2271
3762.55	2272
3764.197	2277
3765.842	2265
3767.486	2226
3769.131	2263
3770.774	2266
3772.417	2249
3774.061	2282
3775.705	2240
3777.347	2253
3778.988	2217
3780.629	2271
3782.271	2255
3783.912	2219
3785.552	2252
3787.192	2171
3788.831	2206
3790.472	2264
3792.112	2210
3793.75	2219
3795.388	2187
3797.024	2249
3798.661	2223
3800.3	2281
3801.936	2184
3803.572	2215
3805.208	2154
3806.844	2193
3808.48	2138
3810.115	2199
3811.748	2247
3813.382	2244
3815.016	2216
3816.649	2163
3818.283	2208
3819.914	2161
3821.547	2206
3823.178	2210
3824.809	2227
3826.441	2217
3828.072	2197
3829.701	2126
3831.331	2156
3832.96	2176
3834.591	2199
3836.219	2210
3837.847	2137
3839.475	2184
3841.102	2132
3842.729	2157
3844.357	2165
3845.984	2149
3847.609	2181
3849.234	2122
3850.86	2240
3852.485	2134
3854.11	2162
3855.734	2130
3857.357	2136
3858.981	2181
3860.603	2192
3862.227	2093
3863.848	2161
3865.471	2174
3867.092	2145
3868.713	2171
3870.334	2175
3871.954	2099
3873.575	2168
3875.194	2154
3876.813	2144
3878.433	2152
3880.051	2136
3881.669	2091
3883.286	2140
3884.904	2120
3886.52	2109
3888.138	2146
3889.754	2107
3891.37	2112
3892.985	2206
3894.6	2097
3896.216	2125
3897.831	2127
3899.444	2116
3901.058	2144
3902.67	2153
3904.283	2147
3905.897	2106
3907.509	2135
3909.121	2167
3910.731	2136
3912.342	2132
3913.954	2169
3915.563	2186
3917.174	2093
3918.783	2075
3920.391	2132
3922.002	2118
3923.611	2068
3925.218	2155
3926.826	2080
3928.432	2082
3930.039	2105
3931.647	2088
3933.253	2159
3934.859	2131
3936.464	2152
3938.068	2084
3939.675	2116
3941.278	2057
3942.883	2100
3944.486	2090
3946.089	2135
3947.692	2103
3949.295	2101
3950.898	2046
3952.499	2033
3954.1	2083
3955.7	2053
3957.303	2024
3958.903	2143
3960.502	2075
3962.101	2089
3963.7	2082
3965.301	2066
3966.899	2078
3968.497	2068
3970.094	2079
3971.691	2058
3973.288	2058
3974.885	2057
3976.481	2097
3978.077	2030
3979.672	2037
3981.267	2024
3982.863	2059
3984.457	2011
3986.051	2001
3987.645	1982
3989.238	2002
3990.831	1997
3992.425	2040
3994.017	1980
3995.607	2034
3997.199	2029
3998.79	2019
4000.382	2045
4001.973	1997
4003.561	2036
4005.151	1956
4006.741	1963
4008.331	2060
4009.918	2008
4011.507	2008
4013.095	2018
4014.681	1977
4016.269	1969
4017.856	1897
4019.443	1974
4021.028	2005
4022.614	1997
4024.199	1982
4025.785	1981
4027.37	1991
4028.953	1929
4030.536	1937
4032.12	1967
4033.704	1972
4035.287	1981
4036.869	1945
4038.45	1963
4040.032	1966
4041.613	1964
4043.195	1933
4044.776	2000
4046.356	1970
4047.935	1945
4049.515	1924
4051.095	1906
4052.674	1945
4054.251	1954
4055.829	1942
4057.406	1902
4058.985	1873
4060.562	1944
4062.139	1931
4063.715	1883
4065.29	1872
4066.865	1884
4068.442	1987
4070.016	1973
4071.59	1901
4073.164	1857
4074.738	1932
4076.312	1932
4077.885	1935
4079.458	1962
4081.03	1940
4082.602	1929
4084.173	1981
4085.745	1967
4087.315	1882
4088.886	1917
4090.456	1897
4092.026	1909
4093.596	1862
4095.165	1870
4096.734	1956
4098.301	1901
4099.869	1916
4101.437	1914
4103.006	1893
4104.572	1880
4106.139	1868
4107.704	1921
4109.27	1930
4110.837	1897
4112.401	1927
4113.966	1903
4115.53	1956
4117.094	1825
4118.659	1910
4120.223	1886
4121.785	1869
4123.347	1906
4124.909	1875
4126.471	1821
4128.034	1839
4129.595	1882
4131.155	1924
4132.716	1876
4134.275	1904
4135.836	1879
4137.395	1880
4138.955	1873
4140.513	1844
4142.071	1865
4143.628	1868
4145.188	1833
4146.745	1818
4148.302	1836
4149.858	1894
4151.414	1814
4152.971	1781
4154.526	1873
4156.081	1792
4157.635	1828
4159.189	1862
4160.745	1840
4162.298	1848
4163.852	1807
4165.405	1825
4166.957	1794
4168.51	1835
4170.063	1869
4171.614	1825
4173.166	1847
4174.717	1821
4176.267	1840
4177.817	1817
4179.368	1877
4180.917	1837
4182.466	1848
4184.016	1800
4185.564	1812
4187.112	1760
4188.66	1776
4190.207	1822
4191.754	1814
4193.301	1820
4194.848	1866
4196.394	1797
4197.94	1779
4199.484	1799
4201.03	1857
4202.575	1780
4204.12	1757
4205.663	1825
4207.207	1781
4208.75	1756
4210.292	1780
4211.836	1824
4213.378	1820
4214.92	1840
4216.46	1810
4218.002	1779
4219.544	1786
4221.083	1790
4222.625	1850
4224.164	1816
4225.703	1792
4227.244	1806
4228.782	1757
4230.32	1765
4231.857	1747
4233.395	1758
4234.933	1777
4236.471	1757
4238.007	1724
4239.542	1729
4241.078	1794
4242.614	1763
4244.15	1729
4245.685	1768
4247.219	1785
4248.753	1737
4250.287	1763
4251.82	1739
4253.354	1767
4254.887	1754
4256.419	1705
4257.951	1747
4259.483	1779
4261.016	1713
4262.547	1722
4264.078	1766
4265.608	1765
4267.137	1787
4268.668	1733
4270.197	1749
4271.727	1758
4273.254	1729
4274.783	1749
4276.311	1686
4277.84	1728
4279.366	1720
4280.894	1729
4282.42	1722
4283.946	1703
4285.473	1730
4286.998	1686
4288.523	1697
4290.047	1701
4291.572	1738
4293.096	1766
4294.622	1715
4296.144	1706
4297.668	1733
4299.19	1696
4300.713	1700
4302.236	1756
4303.758	1720
4305.279	1723
4306.799	1715
4308.321	1748
4309.842	1695
4311.361	1702
4312.882	1726
4314.401	1654
