400.0961	2386
402.6185	2403
405.1424	2349
407.6635	2387
410.1838	2425
412.7035	2412
415.2225	2395
417.7388	2487
420.2585	2448
422.7754	2459
425.2917	2495
427.8072	2563
430.3221	2582
432.8363	2596
435.3498	2534
437.8626	2564
440.3727	2541
442.8841	2558
445.3969	2523
447.907	2566
450.4142	2499
452.9229	2535
455.4289	2494
457.9362	2517
460.4449	2499
462.9488	2522
465.454	2452
467.9566	2520
470.4604	2509
472.9637	2524
475.4662	2502
477.966	2413
480.4671	2499
482.9656	2487
485.4633	2484
487.9645	2520
490.4608	2474
492.9566	2535
495.4536	2536
497.948	2540
500.4437	2531
502.9387	2501
505.431	2542
507.9226	2525
510.4136	2547
512.9079	2572
515.3975	2562
517.8864	2545
520.3746	2569
522.8622	2530
525.3491	2576
527.8394	2567
530.3249	2545
532.8098	2616
535.2939	2551
537.7774	2619
540.2623	2555
542.7444	2564
545.2259	2546
547.7067	2589
550.1868	2598
552.6683	2558
555.147	2628
557.6231	2540
560.1005	2588
562.5773	2663
565.0534	2607
567.5308	2585
570.0056	2594
572.4776	2650
574.951	2616
577.4237	2694
579.8978	2704
582.3671	2718
584.8378	2702
587.3079	2687
589.7773	2713
592.244	2714
594.714	2722
597.1793	2683
599.6461	2678
602.1121	2665
604.5754	2666
607.0421	2712
609.5042	2696
611.9675	2659
614.4282	2782
616.8902	2677
619.3515	2697
621.8122	2645
624.2702	2666
626.7296	2583
629.1863	2654
631.6423	2618
634.1017	2668
636.5563	2636
639.0104	2624
641.4658	2617
643.9185	2682
646.3725	2690
648.8239	2661
651.2766	2662
653.7266	2665
656.176	2640
658.6247	2730
661.0748	2731
663.5242	2749
665.9709	2722
668.417	2796
670.8624	2673
673.3092	2721
675.7533	2680
678.1968	2710
680.6395	2718
683.0817	2698
685.5251	2782
687.9659	2745
690.4061	2745
692.8456	2764
695.2844	2667
697.7226	2709
700.1621	2817
702.599	2707
705.0332	2725
707.4688	2896
709.9036	2742
712.3399	2827
714.7735	2713
717.2044	2794
719.6367	2845
722.0683	2825
724.4993	2775
726.9296	2792
729.3593	2807
731.7883	2795
734.2147	2793
736.6423	2769
739.0714	2809
741.4958	2797
743.9216	2824
746.3447	2774
748.7691	2833
751.1929	2873
753.616	2853
756.0366	2794
758.4584	2960
760.8776	2806
763.2982	2889
765.718	2902
768.1373	2914
770.5539	2921
772.9698	2963
775.3871	2869
777.8038	2923
780.2178	2939
782.6332	2899
785.0459	2868
787.458	2956
789.8714	2961
792.2842	2963
794.6943	2919
797.1038	2924
799.5127	2876
801.9209	2926
804.3324	2950
806.7393	2922
809.1456	2948
811.5513	2874
813.9562	2976
816.3625	2876
818.7663	2969
821.1693	2926
823.5718	2999
825.9735	2910
828.3746	3019
830.7771	2890
833.177	2934
835.5762	2955
837.9747	2978
840.3727	2957
842.772	3003
845.1666	2962
847.5626	3010
849.958	3006
852.3527	3039
854.7488	3034
857.1403	3090
859.5331	3036
861.9253	3059
864.3168	3008
866.7057	2945
869.098	3079
871.4876	3035
873.8746	3070
876.263	3084
878.6487	3060
881.0378	2994
883.4243	3005
885.8081	3014
888.1933	2956
890.5759	3016
892.9598	2996
895.343	3078
897.7256	2972
900.1057	3067
902.4871	2998
904.8659	3034
907.246	3082
909.6254	3036
912.0023	3046
914.3786	3087
916.7562	3113
919.1331	3189
921.5074	3249
923.8831	3266
926.2562	3223
928.6287	3217
931.0005	3267
933.3757	3289
935.7462	3173
938.1162	3165
940.4855	3243
942.8542	3237
945.2242	3356
947.5916	3319
949.9584	3461
952.3266	3550
954.6921	3690
957.0571	3859
959.4233	4086
961.787	4018
964.15	4068
966.5125	3879
968.8742	3615
971.2354	3528
973.5959	3520
975.9559	3342
978.3151	3310
980.6738	3251
983.0338	3183
985.3912	3170
987.7461	3190
990.1022	3167
992.4578	3155
994.8127	3159
997.1689	3139
999.5207	3119
1001.874	3220
1004.226	3189
1006.576	3162
1008.929	3178
1011.28	3106
1013.628	3115
1015.977	3117
1018.324	3158
1020.674	3132
1023.019	3089
1025.366	3227
1027.713	3117
1030.056	3122
1032.399	3220
1034.746	3195
1037.087	3164
1039.431	3222
1041.771	3306
1044.113	3218
1046.454	3233
1048.793	3238
1051.133	3222
1053.471	3195
1055.807	3228
1058.146	3236
1060.483	3259
1062.818	3242
1065.153	3260
1067.489	3330
1069.822	3297
1072.156	3309
1074.488	3285
1076.82	3304
1079.15	3233
1081.48	3261
1083.814	3296
1086.143	3320
1088.471	3176
1090.799	3274
1093.126	3187
1095.452	3221
1097.78	3217
1100.105	3215
1102.43	3287
1104.754	3204
1107.077	3266
1109.4	3214
1111.722	3325
1114.044	3183
1116.365	3150
1118.685	3206
1121.005	3275
1123.324	3221
1125.643	3246
1127.961	3352
1130.278	3184
1132.595	3270
1134.911	3199
1137.226	3243
1139.541	3272
1141.854	3238
1144.167	3190
1146.482	3227
1148.793	3151
1151.105	3213
1153.414	3207
1155.725	3232
1158.033	3256
1160.344	3236
1162.651	3234
1164.959	3191
1167.265	3250
1169.572	3194
1171.878	3280
1174.184	3271
1176.488	3271
1178.79	3207
1181.094	3273
1183.396	3205
1185.699	3216
1188.001	3289
1190.301	3250
1192.6	3260
1194.9	3276
1197.2	3291
1199.497	3169
1201.794	3181
1204.09	3259
1206.387	3296
1208.684	3232
1210.978	3263
1213.272	3252
1215.565	3259
1217.858	3259
1220.15	3214
1222.443	3262
1224.734	3310
1227.024	3345
1229.313	3285
1231.602	3347
1233.892	3389
1236.18	3378
1238.467	3350
1240.754	3412
1243.04	3393
1245.325	3373
1247.612	3430
1249.896	3423
1252.178	3398
1254.461	3375
1256.743	3439
1259.027	3340
1261.308	3371
1263.587	3306
1265.867	3420
1268.146	3463
1270.425	3384
1272.703	3403
1274.981	3425
1277.256	3402
1279.532	3449
1281.808	3430
1284.083	3466
1286.358	3364
1288.63	3429
1290.904	3321
1293.175	3377
1295.449	3419
1297.719	3280
1299.99	3292
1302.259	3286
1304.529	3335
1306.798	3365
1309.065	3275
1311.333	3379
1313.599	3371
1315.866	3279
1318.131	3395
1320.396	3355
1322.66	3373
1324.925	3366
1327.187	3433
1329.448	3388
1331.711	3432
1333.974	3483
1336.234	3415
1338.493	3408
1340.752	3428
1343.01	3405
1345.269	3315
1347.526	3414
1349.784	3308
1352.04	3303
1354.295	3376
1356.552	3300
1358.806	3312
1361.059	3411
1363.312	3287
1365.564	3299
1367.818	3342
1370.069	3457
1372.318	3335
1374.568	3413
1376.817	3429
1379.066	3411
1381.316	3385
1383.564	3428
1385.809	3437
1388.056	3498
1390.301	3434
1392.549	3492
1394.793	3504
1397.036	3553
1399.279	3536
1401.522	3554
1403.763	3555
1406.007	3564
1408.248	3587
1410.487	3556
1412.727	3520
1414.965	3602
1417.205	3489
1419.442	3631
1421.68	3530
1423.915	3501
1426.152	3474
1428.388	3584
1430.623	3533
1432.857	3533
1435.091	3529
1437.323	3531
1439.556	3571
1441.789	3433
1444.019	3468
1446.25	3566
1448.48	3520
1450.708	3544
1452.938	3554
1455.167	3534
1457.394	3662
1459.62	3667
1461.846	3595
1464.073	3552
1466.299	3541
1468.523	3498
1470.746	3513
1472.969	3534
1475.191	3458
1477.415	3436
1479.636	3416
1481.858	3360
1484.078	3311
1486.298	3455
1488.518	3362
1490.736	3445
1492.954	3387
1495.169	3387
1497.386	3412
1499.602	3309
1501.819	3357
1504.034	3457
1506.248	3350
1508.462	3362
1510.675	3364
1512.888	3443
1515.1	3333
1517.311	3324
1519.522	3372
1521.732	3359
1523.942	3462
1526.151	3414
1528.36	3422
1530.566	3370
1532.773	3323
1534.98	3345
1537.187	3337
1539.392	3313
1541.596	3470
1543.801	3333
1546.005	3313
1548.208	3430
1550.411	3464
1552.612	3457
1554.814	3384
1557.013	3405
1559.212	3418
1561.414	3458
1563.612	3471
1565.811	3410
1568.007	3469
1570.203	3520
1572.403	3462
1574.598	3409
1576.792	3548
1578.988	3457
1581.181	3401
1583.376	3408
1585.568	3536
1587.761	3505
1589.952	3469
1592.143	3476
1594.333	3419
1596.524	3526
1598.715	3425
1600.903	3464
1603.091	3543
1605.278	3486
1607.466	3415
1609.652	3509
1611.838	3527
1614.023	3565
1616.207	3443
1618.391	3478
1620.576	3523
1622.759	3578
1624.941	3581
1627.123	3597
1629.304	3533
1631.484	3587
1633.664	3583
1635.844	3561
1638.022	3535
1640.201	3541
1642.38	3553
1644.556	3590
1646.732	3551
1648.908	3556
1651.084	3617
1653.257	3574
1655.433	3506
1657.607	3562
1659.779	3576
1661.951	3597
1664.122	3590
1666.295	3656
1668.467	3607
1670.635	3598
1672.805	3651
1674.973	3579
1677.142	3655
1679.31	3659
1681.478	3631
1683.644	3608
1685.81	3583
1687.975	3573
1690.142	3604
1692.305	3647
1694.468	3521
1696.632	3549
1698.794	3520
1700.957	3477
1703.119	3456
1705.279	3576
1707.439	3489
1709.598	3476
1711.758	3501
1713.917	3479
1716.075	3489
1718.231	3505
1720.388	3485
1722.543	3481
1724.702	3470
1726.856	3459
1729.01	3512
1731.164	3454
1733.317	3472
1735.471	3503
1737.623	3493
1739.774	3468
1741.925	3431
1744.075	3483
1746.225	3404
1748.376	3441
1750.524	3437
1752.672	3511
1754.82	3510
1756.965	3585
1759.113	3500
1761.259	3539
1763.405	3491
1765.549	3533
1767.694	3503
1769.836	3570
1771.981	3523
1774.123	3461
1776.264	3474
1778.405	3525
1780.546	3635
1782.687	3493
1784.827	3502
1786.966	3498
1789.103	3548
1791.242	3520
1793.381	3537
1795.517	3482
1797.653	3530
1799.788	3408
1801.923	3533
1804.057	3490
1806.193	3467
1808.326	3607
1810.457	3474
1812.59	3569
1814.721	3488
1816.855	3550
1818.984	3414
1821.113	3515
1823.244	3492
1825.372	3447
1827.499	3610
1829.63	3542
1831.756	3485
1833.882	3466
1836.007	3440
1838.132	3460
1840.26	3512
1842.384	3483
1844.507	3549
1846.63	3503
1848.752	3409
1850.875	3562
1852.996	3494
1855.118	3486
1857.238	3519
1859.358	3472
1861.477	3425
1863.597	3474
1865.715	3516
1867.832	3518
1869.948	3588
1872.064	3433
1874.181	3534
1876.297	3495
1878.411	3500
1880.526	3587
1882.639	3475
1884.752	3446
1886.865	3495
1888.977	3470
1891.089	3523
1893.2	3480
1895.308	3513
1897.42	3492
1899.53	3496
1901.639	3563
1903.745	3554
1905.853	3479
1907.962	3557
1910.067	3506
1912.174	3538
1914.278	3545
1916.383	3516
1918.486	3557
1920.592	3602
1922.694	3553
1924.797	3638
1926.898	3593
1929	3553
1931.102	3557
1933.203	3586
1935.301	3553
1937.401	3597
1939.499	3527
1941.598	3663
1943.697	3597
1945.793	3610
1947.888	3575
1949.985	3609
1952.08	3562
1954.176	3583
1956.269	3559
1958.364	3584
1960.457	3577
1962.549	3620
1964.642	3629
1966.733	3528
1968.823	3581
1970.913	3554
1973.005	3543
1975.093	3541
1977.184	3528
1979.271	3609
1981.359	3612
1983.446	3553
1985.532	3616
1987.619	3596
1989.705	3492
1991.789	3544
1993.874	3577
1995.956	3530
1998.041	3470
2000.123	3512
2002.206	3572
2004.287	3574
2006.368	3588
2008.449	3594
2010.529	3604
2012.609	3504
2014.688	3521
2016.766	3533
2018.843	3565
2020.922	3535
2022.999	3524
2025.074	3506
2027.15	3568
2029.225	3580
2031.299	3556
2033.375	3491
2035.447	3567
2037.52	3595
2039.592	3555
2041.664	3529
2043.736	3543
2045.807	3545
2047.876	3559
2049.947	3573
2052.015	3532
2054.086	3557
2056.153	3515
2058.221	3573
2060.288	3533
2062.353	3600
2064.42	3435
2066.486	3531
2068.55	3516
2070.614	3509
2072.678	3559
2074.741	3556
2076.805	3565
2078.866	3623
2080.929	3540
2082.99	3528
2085.049	3490
2087.109	3529
2089.17	3563
2091.228	3550
2093.286	3606
2095.344	3582
2097.4	3556
2099.46	3486
2101.516	3583
2103.572	3587
2105.626	3691
2107.679	3563
2109.735	3595
2111.788	3529
2113.841	3497
2115.894	3574
2117.945	3571
2119.997	3542
2122.049	3557
2124.1	3561
2126.148	3574
2128.197	3552
2130.246	3592
2132.296	3550
2134.342	3544
2136.39	3619
2138.437	3632
2140.483	3519
2142.527	3647
2144.574	3574
2146.619	3496
2148.661	3539
2150.705	3530
2152.747	3581
2154.792	3595
2156.832	3557
2158.874	3592
2160.915	3574
2162.954	3522
2164.995	3471
2167.034	3473
2169.072	3481
2171.111	3520
2173.148	3508
2175.186	3478
2177.223	3509
2179.258	3486
2181.294	3537
2183.328	3485
2185.362	3617
2187.398	3486
2189.431	3544
2191.463	3566
2193.495	3470
2195.528	3549
2197.56	3466
2199.59	3484
2201.62	3451
2203.649	3446
2205.678	3562
2207.708	3487
2209.737	3443
2211.764	3493
2213.791	3487
2215.817	3520
2217.843	3529
2219.87	3499
2221.895	3546
2223.919	3463
2225.942	3502
2227.966	3490
2229.988	3500
2232.012	3489
2234.032	3495
2236.054	3530
2238.074	3386
2240.095	3497
2242.116	3540
2244.135	3506
2246.153	3538
2248.171	3459
2250.188	3541
2252.208	3487
2254.223	3520
2256.239	3465
2258.255	3444
2260.269	3518
2262.283	3452
2264.3	3466
2266.312	3409
2268.325	3455
2270.336	3516
2272.349	3486
2274.362	3558
2276.372	3447
2278.383	3500
2280.392	3522
2282.402	3570
2284.409	3530
2286.418	3468
2288.427	3469
2290.433	3534
2292.441	3499
2294.446	3518
2296.453	3482
2298.459	3517
2300.463	3507
2302.466	3514
2304.471	3491
2306.475	3474
2308.477	3560
2310.478	3428
2312.481	3545
2314.481	3501
2316.481	3477
2318.482	3409
2320.482	3506
2322.48	3450
2324.48	3593
2326.478	3454
2328.476	3442
2330.473	3393
2332.469	3443
2334.465	3518
2336.46	3482
2338.454	3416
2340.45	3401
2342.444	3460
2344.437	3521
2346.43	3463
2348.421	3475
2350.414	3406
2352.405	3510
2354.396	3344
2356.386	3460
2358.376	3453
2360.366	3466
2362.355	3452
2364.343	3450
2366.331	3389
2368.317	3422
2370.304	3339
2372.292	3465
2374.278	3365
2376.262	3474
2378.247	3503
2380.23	3455
2382.216	3384
2384.199	3350
2386.181	3396
2388.163	3497
2390.144	3375
2392.127	3415
2394.107	3453
2396.087	3428
2398.066	3453
2400.046	3356
2402.023	3425
2404.004	3441
2405.981	3386
2407.957	3403
2409.934	3396
2411.91	3378
2413.886	3380
2415.862	3392
2417.836	3415
2419.809	3415
2421.784	3334
2423.756	3389
2425.73	3402
2427.701	3380
2429.672	3500
2431.644	3444
2433.615	3394
2435.586	3403
2437.555	3380
2439.523	3425
2441.491	3444
2443.459	3444
2445.428	3415
2447.395	3365
2449.361	3458
2451.327	3322
2453.292	3485
2455.257	3351
2457.223	3396
2459.187	3395
2461.15	3427
2463.113	3345
2465.076	3447
2467.039	3365
2468.999	3352
2470.96	3360
2472.921	3439
2474.881	3398
2476.841	3381
2478.8	3426
2480.759	3441
2482.717	3375
2484.675	3432
2486.63	3318
2488.589	3428
2490.545	3387
2492.5	3391
2494.455	3402
2496.408	3350
2498.364	3380
2500.318	3345
2502.27	3292
2504.223	3373
2506.174	3383
2508.126	3354
2510.078	3336
2512.03	3348
2513.979	3343
2515.927	3262
2517.877	3391
2519.826	3393
2521.775	3363
2523.722	3341
2525.668	3306
2527.616	3341
2529.561	3333
2531.508	3342
2533.452	3390
2535.398	3340
2537.342	3263
2539.284	3328
2541.229	3375
2543.173	3408
2545.114	3361
2547.055	3328
2548.996	3340
2550.938	3365
2552.878	3371
2554.817	3289
2556.756	3289
2558.695	3384
2560.633	3420
2562.572	3355
2564.509	3407
2566.445	3313
2568.382	3328
2570.317	3292
2572.254	3376
2574.189	3436
2576.123	3290
2578.057	3328
2579.99	3371
2581.923	3399
2583.855	3383
2585.788	3351
2587.719	3299
2589.65	3437
2591.579	3357
2593.511	3383
2595.44	3328
2597.37	3274
2599.297	3411
2601.225	3344
2603.153	3389
2605.08	3382
2607.007	3367
2608.932	3397
2610.858	3334
2612.782	3397
2614.709	3330
2616.632	3399
2618.556	3372
2620.478	3384
2622.401	3427
2624.324	3310
2626.247	3376
2628.167	3406
2630.088	3355
2632.008	3394
2633.928	3343
2635.848	3320
2637.766	3372
2639.684	3424
2641.603	3347
2643.519	3390
2645.437	3371
2647.353	3359
2649.27	3393
2651.184	3378
2653.099	3396
2655.014	3388
2656.928	3374
2658.842	3337
2660.755	3381
2662.667	3380
2664.579	3368
2666.491	3377
2668.402	3354
2670.312	3352
2672.222	3313
2674.132	3411
2676.042	3356
2677.951	3334
2679.859	3304
2681.766	3395
2683.674	3384
2685.582	3379
2687.488	3412
2689.392	3375
2691.298	3336
2693.202	3360
2695.107	3332
2697.012	3353
2698.914	3344
2700.817	3356
2702.72	3347
2704.622	3412
2706.524	3308
2708.425	3310
2710.326	3309
2712.225	3378
2714.125	3328
2716.024	3302
2717.923	3372
2719.822	3362
2721.719	3365
2723.616	3346
2725.512	3405
2727.41	3357
2729.305	3353
2731.201	3357
2733.095	3358
2734.99	3338
2736.884	3302
2738.778	3359
2740.67	3345
2742.562	3285
2744.455	3350
2746.346	3280
2748.238	3305
2750.129	3304
2752.018	3286
2753.907	3386
2755.797	3301
2757.687	3407
2759.575	3289
2761.462	3371
2763.349	3237
2765.237	3305
2767.124	3328
2769.009	3271
2770.894	3354
2772.779	3293
2774.663	3378
2776.547	3311
2778.431	3240
2780.314	3333
2782.197	3276
2784.078	3326
2785.96	3317
2787.842	3257
2789.723	3350
2791.603	3307
2793.483	3255
2795.362	3285
2797.241	3342
2799.121	3281
2800.997	3297
2802.874	3346
2804.751	3218
2806.628	3291
2808.506	3305
2810.38	3297
2812.255	3241
2814.13	3284
2816.003	3285
2817.878	3363
2819.752	3276
2821.623	3306
2823.496	3342
2825.368	3337
2827.238	3304
2829.111	3248
2830.98	3267
2832.851	3344
2834.719	3365
2836.589	3335
2838.458	3317
2840.327	3401
2842.193	3263
2844.061	3360
2845.927	3364
2847.794	3417
2849.66	3367
2851.525	3345
2853.39	3360
2855.254	3403
2857.117	3405
2858.983	3414
2860.845	3421
2862.707	3336
2864.569	3464
2866.431	3487
2868.293	3393
2870.154	3573
2872.013	3467
2873.873	3618
2875.733	3536
2877.592	3645
2879.451	3602
2881.309	3595
2883.166	3634
2885.022	3690
2886.879	3754
2888.736	3671
2890.591	3754
2892.446	3775
2894.301	3821
2896.155	3712
2898.009	3760
2899.863	3659
2901.716	3714
2903.568	3809
2905.419	3616
2907.27	3748
2909.123	3720
2910.973	3752
2912.824	3772
2914.673	3831
2916.521	3860
2918.372	3885
2920.22	3845
2922.067	3868
2923.914	3844
2925.761	3919
2927.607	3983
2929.455	3960
2931.301	4066
2933.144	3984
2934.99	4071
2936.833	4060
2938.678	4162
2940.522	4094
2942.364	4180
2944.207	4222
2946.048	4317
2947.891	4379
2949.731	4256
2951.571	4418
2953.412	4390
2955.25	4269
2957.09	4321
2958.93	4314
2960.767	4172
2962.606	4199
2964.443	4196
2966.279	4068
2968.116	4034
2969.953	4059
2971.788	3934
2973.623	3865
2975.457	3879
2977.292	3857
2979.127	3890
2980.959	3830
2982.792	3756
2984.624	3694
2986.455	3774
2988.288	3753
2990.119	3701
2991.949	3660
2993.779	3665
2995.608	3593
2997.439	3577
2999.268	3564
3001.096	3520
3002.923	3464
3004.751	3507
3006.578	3459
3008.406	3500
3010.232	3358
3012.057	3495
3013.883	3389
3015.706	3419
3017.532	3320
3019.356	3294
3021.179	3278
3023.002	3345
3024.823	3288
3026.646	3281
3028.469	3242
3030.289	3221
3032.11	3178
3033.93	3261
3035.749	3143
3037.57	3207
3039.39	3291
3041.207	3328
3043.026	3241
3044.842	3240
3046.661	3156
3048.477	3206
3050.294	3236
3052.109	3275
3053.925	3229
3055.739	3196
3057.555	3238
3059.368	3221
3061.181	3212
3062.995	3206
3064.807	3194
3066.62	3188
3068.433	3233
3070.243	3234
3072.054	3217
3073.865	3194
3075.675	3140
3077.485	3138
3079.293	3169
3081.102	3175
3082.911	3151
3084.719	3189
3086.527	3134
3088.333	3189
3090.139	3227
3091.945	3229
3093.75	3070
3095.557	3151
3097.361	3166
3099.165	3114
3100.969	3172
3102.772	3084
3104.575	3115
3106.379	3088
3108.181	3114
3109.982	3072
3111.783	3119
3113.584	3180
3115.386	3059
3117.186	3059
3118.985	3091
3120.783	3117
3122.582	3054
3124.381	3049
3126.179	3007
3127.975	3045
3129.772	3160
3131.569	3076
3133.365	3079
3135.161	3032
3136.956	3077
3138.751	3078
3140.544	3096
3142.338	3016
3144.132	3080
3145.925	3088
3147.717	2948
3149.509	3067
3151.301	3069
3153.091	3011
3154.884	3071
3156.673	3031
3158.462	3087
3160.252	3049
3162.041	3069
3163.831	3040
3165.618	3015
3167.405	3049
3169.193	3120
3170.979	2975
3172.767	3026
3174.553	3016
3176.338	3002
3178.123	3105
3179.907	2967
3181.692	3016
3183.477	3038
3185.259	2982
3187.042	2979
3188.824	3076
3190.607	3028
3192.389	2952
3194.17	3053
3195.951	3045
3197.73	2961
3199.51	3042
3201.289	2995
3203.07	2992
3204.848	3077
3206.626	3002
3208.403	3031
3210.18	3054
3211.959	2991
3213.735	3059
3215.511	3034
3217.285	3003
3219.06	2961
3220.836	2955
3222.611	2953
3224.384	3008
3226.158	3013
3227.929	3021
3229.702	2944
3231.476	3096
3233.248	3009
3235.018	3015
3236.789	3015
3238.56	3076
3240.33	3018
3242.1	3048
3243.869	3031
3245.637	3027
3247.405	2987
3249.172	3058
3250.941	3056
3252.707	2991
3254.474	3065
3256.24	2973
3258.006	2942
3259.772	3051
3261.537	3002
3263.301	3000
3265.065	3000
3266.828	3025
3268.592	3089
3270.355	3083
3272.117	3004
3273.878	2975
3275.64	3049
3277.401	3098
3279.162	3061
3280.922	3006
3282.682	3053
3284.441	3117
3286.199	3067
3287.959	2982
3289.716	3057
3291.475	3126
3293.232	3037
3294.988	3059
3296.744	3055
3298.501	2992
3300.256	3040
3302.011	2996
3303.766	3080
3305.52	3085
3307.275	3056
3309.028	3029
3310.781	3059
3312.533	3007
3314.285	2945
3316.038	3046
3317.789	3068
3319.54	2993
3321.289	2977
3323.039	3012
3324.789	3007
3326.539	3004
3328.288	3030
3330.035	3060
3331.783	3009
3333.531	3035
3335.28	2996
3337.025	3000
3338.771	2995
3340.518	2938
3342.262	2977
3344.009	3059
3345.753	2988
3347.497	3046
3349.24	3048
3350.983	2955
3352.726	2936
3354.469	3046
3356.212	3020
3357.952	2950
3359.694	2955
3361.434	2981
3363.176	2952
3364.916	2934
3366.654	2971
3368.394	2989
3370.132	2998
3371.871	2893
3373.61	2923
3375.346	2911
3377.083	2943
3378.82	2904
3380.556	2930
3382.292	2940
3384.027	2812
3385.763	2944
3387.497	2880
3389.231	2949
3390.965	2936
3392.698	2972
3394.431	2944
3396.164	2908
3397.896	2940
3399.627	2921
3401.36	2900
3403.09	2914
3404.82	2900
3406.55	2953
3408.279	2865
3410.01	2978
3411.738	2866
3413.467	2867
3415.194	2886
3416.92	2858
3418.647	2868
3420.375	2826
3422.102	2848
3423.827	2852
3425.553	2881
3427.277	2822
3429.003	2808
3430.727	2829
3432.451	2889
3434.173	2914
3435.896	2869
3437.62	2820
3439.343	2820
3441.063	2899
3442.785	2857
3444.505	2874
3446.226	2863
3447.948	2854
3449.666	2796
3451.386	2771
3453.104	2812
3454.823	2826
3456.541	2875
3458.259	2755
3459.976	2777
3461.693	2862
3463.408	2794
3465.125	2789
3466.841	2677
3468.556	2757
3470.271	2757
3471.985	2752
3473.698	2770
3475.414	2777
3477.126	2799
3478.838	2789
3480.55	2731
3482.263	2775
3483.975	2793
3485.686	2728
3487.396	2758
3489.106	2783
3490.817	2858
3492.526	2720
3494.236	2752
3495.944	2732
3497.652	2702
3499.359	2675
3501.066	2693
3502.775	2695
3504.481	2771
3506.187	2703
3507.893	2674
3509.598	2636
3511.304	2727
3513.009	2766
3514.713	2738
3516.417	2734
3518.12	2693
3519.821	2668
3521.525	2614
3523.228	2741
3524.929	2688
3526.631	2667
3528.33	2682
3530.032	2644
3531.733	2634
3533.433	2627
3535.131	2639
3536.83	2612
3538.529	2657
3540.227	2652
3541.925	2617
3543.623	2669
3545.319	2588
3547.016	2628
3548.712	2574
3550.408	2661
3552.103	2658
3553.798	2641
3555.491	2638
3557.188	2630
3558.88	2673
3560.574	2588
3562.266	2601
3563.959	2621
3565.651	2550
3567.343	2588
3569.035	2558
3570.725	2636
3572.415	2641
3574.106	2660
3575.797	2634
3577.485	2532
3579.174	2591
3580.863	2634
3582.551	2646
3584.238	2541
3585.926	2564
3587.613	2576
3589.3	2507
3590.986	2546
3592.671	2580
3594.357	2560
3596.042	2560
3597.726	2575
3599.41	2619
3601.094	2522
3602.778	2491
3604.461	2513
3606.143	2487
3607.825	2531
3609.507	2517
3611.188	2571
3612.87	2513
3614.551	2485
3616.229	2546
3617.909	2577
3619.589	2545
3621.269	2485
3622.948	2435
3624.625	2534
3626.302	2522
3627.98	2547
3629.657	2499
3631.334	2491
3633.01	2508
3634.686	2464
3636.361	2405
3638.036	2456
3639.712	2476
3641.385	2415
3643.06	2478
3644.732	2520
3646.405	2416
3648.08	2466
3649.751	2491
3651.424	2448
3653.094	2399
3654.766	2416
3656.436	2404
3658.106	2392
3659.777	2382
3661.446	2426
3663.115	2478
3664.783	2405
3666.452	2421
3668.121	2387
3669.788	2431
3671.454	2391
3673.121	2402
3674.789	2389
3676.455	2384
3678.12	2413
3679.784	2416
3681.45	2372
3683.114	2369
3684.779	2358
3686.442	2382
3688.105	2386
3689.768	2417
3691.43	2432
3693.093	2388
3694.754	2441
3696.415	2372
3698.076	2382
3699.736	2392
3701.396	2375
3703.057	2355
3704.716	2363
3706.375	2299
3708.034	2422
3709.692	2394
3711.351	2351
3713.008	2403
3714.665	2327
3716.321	2352
3717.977	2357
3719.634	2435
3721.29	2366
3722.945	2316
3724.598	2400
3726.253	2348
3727.907	2395
3729.561	2430
3731.214	2368
3732.867	2403
3734.518	2317
3736.171	2335
3737.824	2349
3739.474	2316
3741.125	2299
3742.775	2332
3744.425	2364
3746.074	2242
3747.725	2313
3749.373	2325
3751.022	2352
3752.669	2321
3754.318	2312
3755.966	2373
3757.612	2318
3759.259	2335
3760.905	2349
3762.55	2284
3764.197	2305
3765.842	2298
3767.486	2296
3769.131	2293
3770.774	2309
3772.417	2285
3774.061	2310
3775.705	2305
3777.347	2280
3778.988	2260
3780.629	2249
3782.271	2336
3783.912	2255
3785.552	2219
3787.192	2306
3788.831	2270
3790.472	2300
3792.112	2218
3793.75	2226
3795.388	2262
3797.024	2269
3798.661	2232
3800.3	2183
3801.936	2289
3803.572	2334
3805.208	2275
3806.844	2251
3808.48	2290
3810.115	2221
3811.748	2242
3813.382	2235
3815.016	2202
3816.649	2239
3818.283	2249
3819.914	2316
3821.547	2234
3823.178	2246
3824.809	2178
3826.441	2265
3828.072	2251
3829.701	2210
3831.331	2285
3832.96	2238
3834.591	2205
3836.219	2205
3837.847	2277
3839.475	2221
3841.102	2254
3842.729	2150
3844.357	2228
3845.984	2207
3847.609	2207
3849.234	2224
3850.86	2252
3852.485	2208
3854.11	2167
3855.734	2211
3857.357	2156
3858.981	2171
3860.603	2247
3862.227	2169
3863.848	2180
3865.471	2212
3867.092	2196
3868.713	2223
3870.334	2231
3871.954	2217
3873.575	2206
3875.194	2143
3876.813	2230
3878.433	2113
3880.051	2168
3881.669	2156
3883.286	2206
3884.904	2217
3886.52	2144
3888.138	2196
3889.754	2146
3891.37	2179
3892.985	2158
3894.6	2185
3896.216	2175
3897.831	2195
3899.444	2196
3901.058	2153
3902.67	2170
3904.283	2248
3905.897	2175
3907.509	2147
3909.121	2183
3910.731	2194
3912.342	2180
3913.954	2218
3915.563	2143
3917.174	2168
3918.783	2142
3920.391	2153
3922.002	2142
3923.611	2188
3925.218	2158
3926.826	2110
3928.432	2132
3930.039	2102
3931.647	2190
3933.253	2212
3934.859	2114
3936.464	2195
3938.068	2140
3939.675	2179
3941.278	2084
3942.883	2126
3944.486	2135
3946.089	2180
3947.692	2133
3949.295	2096
3950.898	2153
3952.499	2122
3954.1	2126
3955.7	2145
3957.303	2100
3958.903	2115
3960.502	2126
3962.101	2125
3963.7	2115
3965.301	2121
3966.899	2084
3968.497	2095
3970.094	2023
3971.691	2122
3973.288	2100
3974.885	2100
3976.481	2118
3978.077	2112
3979.672	2112
3981.267	2089
3982.863	2067
3984.457	2083
3986.051	2068
3987.645	2062
3989.238	2066
3990.831	2092
3992.425	2049
3994.017	2005
3995.607	2096
3997.199	2043
3998.79	2065
4000.382	2067
4001.973	2077
4003.561	2059
4005.151	2032
4006.741	2030
4008.331	2075
4009.918	2070
4011.507	2034
4013.095	2059
4014.681	2008
4016.269	2097
4017.856	1999
4019.443	2016
4021.028	2030
4022.614	1986
4024.199	2061
4025.785	2036
4027.37	2004
4028.953	2024
4030.536	2092
4032.12	2065
4033.704	2025
4035.287	1974
4036.869	2019
4038.45	2014
4040.032	1994
4041.613	1989
4043.195	1998
4044.776	1977
4046.356	2029
4047.935	2043
4049.515	1956
4051.095	1983
4052.674	1988
4054.251	2001
4055.829	1959
4057.406	1988
4058.985	1969
4060.562	2018
4062.139	2000
4063.715	1962
4065.29	1978
4066.865	1933
4068.442	1972
4070.016	1891
4071.59	1983
4073.164	2004
4074.738	1944
4076.312	2041
4077.885	2044
4079.458	1981
4081.03	1955
4082.602	1947
4084.173	1988
4085.745	1966
4087.315	1935
4088.886	1932
4090.456	1970
4092.026	1962
4093.596	2014
4095.165	2004
4096.734	1971
4098.301	1940
4099.869	1964
4101.437	1952
4103.006	1960
4104.572	1937
4106.139	1973
4107.704	1960
4109.27	1942
4110.837	1946
4112.401	1948
4113.966	1962
4115.53	1916
4117.094	1938
4118.659	1954
4120.223	1937
4121.785	1941
4123.347	1946
4124.909	1889
4126.471	1933
4128.034	1896
4129.595	1950
4131.155	1914
4132.716	1887
4134.275	1902
4135.836	1943
4137.395	1902
4138.955	1894
4140.513	1905
4142.071	1930
4143.628	1888
4145.188	1936
4146.745	1901
4148.302	1857
4149.858	1840
4151.414	1869
4152.971	1914
4154.526	1885
4156.081	1927
4157.635	1863
4159.189	1870
4160.745	1919
4162.298	1926
4163.852	1927
4165.405	1864
4166.957	1849
4168.51	1829
4170.063	1838
4171.614	1867
4173.166	1898
4174.717	1807
4176.267	1857
4177.817	1909
4179.368	1820
4180.917	1895
4182.466	1851
4184.016	1810
4185.564	1937
4187.112	1878
4188.66	1886
4190.207	1881
4191.754	1794
4193.301	1859
4194.848	1843
4196.394	1836
4197.94	1811
4199.484	1858
4201.03	1845
4202.575	1851
4204.12	1850
4205.663	1846
4207.207	1840
4208.75	1803
4210.292	1858
4211.836	1767
4213.378	1781
4214.92	1825
4216.46	1794
4218.002	1825
4219.544	1816
4221.083	1810
4222.625	1857
4224.164	1787
4225.703	1821
4227.244	1776
4228.782	1814
4230.32	1805
4231.857	1805
4233.395	1800
4234.933	1780
4236.471	1792
4238.007	1808
4239.542	1851
4241.078	1821
4242.614	1755
4244.15	1807
4245.685	1781
4247.219	1819
4248.753	1748
4250.287	1784
4251.82	1812
4253.354	1767
4254.887	1787
4256.419	1782
4257.951	1784
4259.483	1840
4261.016	1842
4262.547	1749
4264.078	1793
4265.608	1804
4267.137	1807
4268.668	1785
4270.197	1791
4271.727	1755
4273.254	1840
4274.783	1727
4276.311	1703
4277.84	1752
4279.366	1777
4280.894	1752
4282.42	1784
4283.946	1761
4285.473	1771
4286.998	1769
4288.523	1757
4290.047	1797
4291.572	1749
4293.096	1735
4294.622	1783
4296.144	1754
4297.668	1772
4299.19	1752
4300.713	1761
4302.236	1755
4303.758	1753
4305.279	1698
4306.799	1752
4308.321	1719
4309.842	1752
4311.361	1745
4312.882	1762
4314.401	1726
