400.0961	3132
402.6185	3096
405.1424	3101
407.6635	3094
410.1838	3161
412.7035	3124
415.2225	3118
417.7388	3167
420.2585	3213
422.7754	3254
425.2917	3279
427.8072	3292
430.3221	3352
432.8363	3317
435.3498	3320
437.8626	3333
440.3727	3301
442.8841	3265
445.3969	3300
447.907	3244
450.4142	3359
452.9229	3319
455.4289	3326
457.9362	3274
460.4449	3311
462.9488	3282
465.454	3237
467.9566	3234
470.4604	3229
472.9637	3281
475.4662	3332
477.966	3246
480.4671	3312
482.9656	3307
485.4633	3304
487.9645	3325
490.4608	3320
492.9566	3265
495.4536	3262
497.948	3356
500.4437	3441
502.9387	3381
505.431	3270
507.9226	3342
510.4136	3322
512.9079	3357
515.3975	3394
517.8864	3370
520.3746	3360
522.8622	3374
525.3491	3417
527.8394	3420
530.3249	3425
532.8098	3396
535.2939	3377
537.7774	3415
540.2623	3401
542.7444	3412
545.2259	3371
547.7067	3309
550.1868	3412
552.6683	3344
555.147	3422
557.6231	3363
560.1005	3369
562.5773	3353
565.0534	3456
567.5308	3432
570.0056	3463
572.4776	3534
574.951	3504
577.4237	3465
579.8978	3598
582.3671	3535
584.8378	3512
587.3079	3586
589.7773	3489
592.244	3559
594.714	3606
597.1793	3607
599.6461	3545
602.1121	3452
604.5754	3429
607.0421	3501
609.5042	3511
611.9675	3499
614.4282	3575
616.8902	3493
619.3515	3474
621.8122	3504
624.2702	3469
626.7296	3537
629.1863	3471
631.6423	3460
634.1017	3468
636.5563	3470
639.0104	3408
641.4658	3541
643.9185	3485
646.3725	3436
648.8239	3454
651.2766	3481
653.7266	3511
656.176	3545
658.6247	3534
661.0748	3471
663.5242	3595
665.9709	3486
668.417	3528
670.8624	3551
673.3092	3557
675.7533	3558
678.1968	3630
680.6395	3635
683.0817	3539
685.5251	3569
687.9659	3576
690.4061	3569
692.8456	3642
695.2844	3541
697.7226	3620
700.1621	3657
702.599	3591
705.0332	3604
707.4688	3677
709.9036	3538
712.3399	3586
714.7735	3615
717.2044	3679
719.6367	3647
722.0683	3667
724.4993	3671
726.9296	3658
729.3593	3726
731.7883	3683
734.2147	3698
736.6423	3775
739.0714	3750
741.4958	3723
743.9216	3755
746.3447	3792
748.7691	3791
751.1929	3755
753.616	3786
756.0366	3858
758.4584	3788
760.8776	3758
763.2982	3792
765.718	3821
768.1373	3890
770.5539	3868
772.9698	3839
775.3871	3838
777.8038	3872
780.2178	3844
782.6332	3835
785.0459	3958
787.458	3941
789.8714	3792
792.2842	3833
794.6943	3780
797.1038	3859
799.5127	3814
801.9209	3855
804.3324	3845
806.7393	3835
809.1456	3864
811.5513	3761
813.9562	3849
816.3625	3894
818.7663	3884
821.1693	3891
823.5718	3876
825.9735	3936
828.3746	3913
830.7771	3884
833.177	3929
835.5762	3909
837.9747	3844
840.3727	3894
842.772	3850
845.1666	3959
847.5626	4026
849.958	3919
852.3527	4019
854.7488	3950
857.1403	4014
859.5331	4014
861.9253	3993
864.3168	4010
866.7057	3943
869.098	4053
871.4876	4019
873.8746	3958
876.263	3997
878.6487	3968
881.0378	3947
883.4243	3964
885.8081	3931
888.1933	4024
890.5759	4014
892.9598	3987
895.343	3911
897.7256	4011
900.1057	4035
902.4871	3992
904.8659	3955
907.246	4071
909.6254	3977
912.0023	4045
914.3786	4106
916.7562	4123
919.1331	4108
921.5074	4227
923.8831	4173
926.2562	4187
928.6287	4202
931.0005	4231
933.3757	4298
935.7462	4195
938.1162	4298
940.4855	4328
942.8542	4323
945.2242	4410
947.5916	4588
949.9584	4699
952.3266	4888
954.6921	5083
957.0571	5188
959.4233	5424
961.787	5420
964.15	5397
966.5125	5306
968.8742	4970
971.2354	4767
973.5959	4589
975.9559	4329
978.3151	4226
980.6738	4290
983.0338	4088
985.3912	4111
987.7461	4260
990.1022	4131
992.4578	4062
994.8127	4178
997.1689	4016
999.5207	4139
1001.874	4155
1004.226	4176
1006.576	4193
1008.929	4182
1011.28	4251
1013.628	4174
1015.977	4165
1018.324	4122
1020.674	4152
1023.019	4226
1025.366	4187
1027.713	4210
1030.056	4233
1032.399	4160
1034.746	4234
1037.087	4240
1039.431	4194
1041.771	4188
1044.113	4350
1046.454	4295
1048.793	4230
1051.133	4306
1053.471	4274
1055.807	4288
1058.146	4302
1060.483	4220
1062.818	4380
1065.153	4395
1067.489	4377
1069.822	4441
1072.156	4258
1074.488	4336
1076.82	4432
1079.15	4314
1081.48	4307
1083.814	4264
1086.143	4292
1088.471	4260
1090.799	4201
1093.126	4308
1095.452	4261
1097.78	4280
1100.105	4272
1102.43	4329
1104.754	4298
1107.077	4310
1109.4	4364
1111.722	4242
1114.044	4211
1116.365	4262
1118.685	4221
1121.005	4245
1123.324	4177
1125.643	4263
1127.961	4240
1130.278	4267
1132.595	4142
1134.911	4197
1137.226	4201
1139.541	4342
1141.854	4231
1144.167	4246
1146.482	4309
1148.793	4238
1151.105	4241
1153.414	4284
1155.725	4287
1158.033	4269
1160.344	4294
1162.651	4317
1164.959	4226
1167.265	4220
1169.572	4272
1171.878	4268
1174.184	4246
1176.488	4285
1178.79	4269
1181.094	4272
1183.396	4250
1185.699	4299
1188.001	4308
1190.301	4269
1192.6	4398
1194.9	4285
1197.2	4201
1199.497	4238
1201.794	4265
1204.09	4273
1206.387	4261
1208.684	4212
1210.978	4244
1213.272	4257
1215.565	4275
1217.858	4273
1220.15	4214
1222.443	4252
1224.734	4287
1227.024	4260
1229.313	4382
1231.602	4475
1233.892	4438
1236.18	4401
1238.467	4388
1240.754	4471
1243.04	4430
1245.325	4438
1247.612	4480
1249.896	4476
1252.178	4588
1254.461	4483
1256.743	4396
1259.027	4491
1261.308	4401
1263.587	4452
1265.867	4475
1268.146	4461
1270.425	4412
1272.703	4389
1274.981	4492
1277.256	4447
1279.532	4485
1281.808	4482
1284.083	4508
1286.358	4521
1288.63	4432
1290.904	4355
1293.175	4464
1295.449	4374
1297.719	4390
1299.99	4391
1302.259	4413
1304.529	4460
1306.798	4383
1309.065	4371
1311.333	4298
1313.599	4354
1315.866	4392
1318.131	4395
1320.396	4525
1322.66	4328
1324.925	4421
1327.187	4365
1329.448	4402
1331.711	4295
1333.974	4465
1336.234	4429
1338.493	4386
1340.752	4461
1343.01	4515
1345.269	4460
1347.526	4375
1349.784	4460
1352.04	4380
1354.295	4440
1356.552	4502
1358.806	4409
1361.059	4375
1363.312	4348
1365.564	4439
1367.818	4366
1370.069	4450
1372.318	4391
1374.568	4471
1376.817	4434
1379.066	4454
1381.316	4492
1383.564	4369
1385.809	4480
1388.056	4420
1390.301	4492
1392.549	4500
1394.793	4621
1397.036	4517
1399.279	4529
1401.522	4557
1403.763	4556
1406.007	4525
1408.248	4499
1410.487	4483
1412.727	4506
1414.965	4570
1417.205	4559
1419.442	4464
1421.68	4540
1423.915	4610
1426.152	4587
1428.388	4546
1430.623	4568
1432.857	4562
1435.091	4563
1437.323	4539
1439.556	4675
1441.789	4530
1444.019	4617
1446.25	4673
1448.48	4658
1450.708	4690
1452.938	4711
1455.167	4738
1457.394	4692
1459.62	4641
1461.846	4680
1464.073	4586
1466.299	4572
1468.523	4697
1470.746	4529
1472.969	4523
1475.191	4582
1477.415	4546
1479.636	4600
1481.858	4480
1484.078	4436
1486.298	4441
1488.518	4443
1490.736	4404
1492.954	4432
1495.169	4450
1497.386	4452
1499.602	4507
1501.819	4448
1504.034	4406
1506.248	4542
1508.462	4442
1510.675	4431
1512.888	4476
1515.1	4471
1517.311	4356
1519.522	4428
1521.732	4413
1523.942	4425
1526.151	4403
1528.36	4366
1530.566	4402
1532.773	4417
1534.98	4583
1537.187	4395
1539.392	4497
1541.596	4484
1543.801	4383
1546.005	4394
1548.208	4521
1550.411	4394
1552.612	4419
1554.814	4525
1557.013	4417
1559.212	4441
1561.414	4544
1563.612	4462
1565.811	4509
1568.007	4524
1570.203	4518
1572.403	4503
1574.598	4606
1576.792	4473
1578.988	4550
1581.181	4510
1583.376	4584
1585.568	4554
1587.761	4578
1589.952	4617
1592.143	4544
1594.333	4529
1596.524	4574
1598.715	4589
1600.903	4559
1603.091	4593
1605.278	4640
1607.466	4627
1609.652	4589
1611.838	4510
1614.023	4707
1616.207	4648
1618.391	4544
1620.576	4595
1622.759	4708
1624.941	4616
1627.123	4574
1629.304	4650
1631.484	4629
1633.664	4725
1635.844	4595
1638.022	4637
1640.201	4674
1642.38	4686
1644.556	4709
1646.732	4680
1648.908	4627
1651.084	4682
1653.257	4679
1655.433	4672
1657.607	4603
1659.779	4807
1661.951	4727
1664.122	4728
1666.295	4721
1668.467	4748
1670.635	4675
1672.805	4731
1674.973	4827
1677.142	4702
1679.31	4725
1681.478	4695
1683.644	4682
1685.81	4740
1687.975	4589
1690.142	4769
1692.305	4691
1694.468	4714
1696.632	4647
1698.794	4600
1700.957	4570
1703.119	4590
1705.279	4593
1707.439	4615
1709.598	4590
1711.758	4559
1713.917	4576
1716.075	4704
1718.231	4651
1720.388	4476
1722.543	4642
1724.702	4593
1726.856	4647
1729.01	4541
1731.164	4578
1733.317	4540
1735.471	4633
1737.623	4513
1739.774	4691
1741.925	4614
1744.075	4597
1746.225	4507
1748.376	4544
1750.524	4610
1752.672	4529
1754.82	4700
1756.965	4580
1759.113	4657
1761.259	4612
1763.405	4581
1765.549	4687
1767.694	4609
1769.836	4617
1771.981	4650
1774.123	4631
1776.264	4632
1778.405	4622
1780.546	4679
1782.687	4532
1784.827	4541
1786.966	4728
1789.103	4620
1791.242	4719
1793.381	4650
1795.517	4653
1797.653	4629
1799.788	4616
1801.923	4647
1804.057	4581
1806.193	4611
1808.326	4572
1810.457	4618
1812.59	4614
1814.721	4621
1816.855	4556
1818.984	4648
1821.113	4622
1823.244	4648
1825.372	4650
1827.499	4611
1829.63	4604
1831.756	4557
1833.882	4688
1836.007	4541
1838.132	4603
1840.26	4655
1842.384	4594
1844.507	4590
1846.63	4600
1848.752	4623
1850.875	4641
1852.996	4558
1855.118	4587
1857.238	4632
1859.358	4587
1861.477	4585
1863.597	4530
1865.715	4614
1867.832	4657
1869.948	4734
1872.064	4504
1874.181	4599
1876.297	4641
1878.411	4577
1880.526	4641
1882.639	4591
1884.752	4634
1886.865	4632
1888.977	4676
1891.089	4533
1893.2	4715
1895.308	4614
1897.42	4601
1899.53	4661
1901.639	4631
1903.745	4705
1905.853	4665
1907.962	4661
1910.067	4611
1912.174	4691
1914.278	4676
1916.383	4713
1918.486	4670
1920.592	4730
1922.694	4672
1924.797	4644
1926.898	4624
1929	4632
1931.102	4601
1933.203	4683
1935.301	4695
1937.401	4632
1939.499	4768
1941.598	4608
1943.697	4790
1945.793	4620
1947.888	4709
1949.985	4624
1952.08	4639
1954.176	4611
1956.269	4605
1958.364	4689
1960.457	4754
1962.549	4696
1964.642	4610
1966.733	4687
1968.823	4609
1970.913	4700
1973.005	4631
1975.093	4681
1977.184	4667
1979.271	4728
1981.359	4623
1983.446	4651
1985.532	4672
1987.619	4697
1989.705	4671
1991.789	4601
1993.874	4661
1995.956	4700
1998.041	4655
2000.123	4609
2002.206	4682
2004.287	4662
2006.368	4597
2008.449	4695
2010.529	4585
2012.609	4590
2014.688	4619
2016.766	4493
2018.843	4629
2020.922	4548
2022.999	4590
2025.074	4588
2027.15	4594
2029.225	4591
2031.299	4730
2033.375	4718
2035.447	4663
2037.52	4631
2039.592	4535
2041.664	4659
2043.736	4650
2045.807	4682
2047.876	4696
2049.947	4595
2052.015	4580
2054.086	4748
2056.153	4668
2058.221	4608
2060.288	4593
2062.353	4592
2064.42	4620
2066.486	4697
2068.55	4699
2070.614	4696
2072.678	4697
2074.741	4667
2076.805	4675
2078.866	4594
2080.929	4578
2082.99	4630
2085.049	4692
2087.109	4655
2089.17	4654
2091.228	4677
2093.286	4613
2095.344	4733
2097.4	4715
2099.46	4637
2101.516	4608
2103.572	4689
2105.626	4742
2107.679	4585
2109.735	4694
2111.788	4643
2113.841	4675
2115.894	4659
2117.945	4646
2119.997	4672
2122.049	4621
2124.1	4606
2126.148	4624
2128.197	4655
2130.246	4658
2132.296	4616
2134.342	4675
2136.39	4621
2138.437	4722
2140.483	4682
2142.527	4640
2144.574	4686
2146.619	4655
2148.661	4731
2150.705	4722
2152.747	4636
2154.792	4515
2156.832	4702
2158.874	4623
2160.915	4672
2162.954	4572
2164.995	4591
2167.034	4643
2169.072	4511
2171.111	4529
2173.148	4546
2175.186	4681
2177.223	4591
2179.258	4602
2181.294	4624
2183.328	4640
2185.362	4599
2187.398	4657
2189.431	4572
2191.463	4573
2193.495	4608
2195.528	4614
2197.56	4469
2199.59	4563
2201.62	4603
2203.649	4604
2205.678	4636
2207.708	4546
2209.737	4609
2211.764	4541
2213.791	4445
2215.817	4511
2217.843	4613
2219.87	4505
2221.895	4605
2223.919	4534
2225.942	4556
2227.966	4614
2229.988	4551
2232.012	4465
2234.032	4569
2236.054	4564
2238.074	4450
2240.095	4482
2242.116	4610
2244.135	4583
2246.153	4640
2248.171	4481
2250.188	4619
2252.208	4537
2254.223	4574
2256.239	4513
2258.255	4539
2260.269	4584
2262.283	4607
2264.3	4582
2266.312	4441
2268.325	4515
2270.336	4549
2272.349	4526
2274.362	4454
2276.372	4532
2278.383	4543
2280.392	4497
2282.402	4546
2284.409	4590
2286.418	4470
2288.427	4617
2290.433	4575
2292.441	4503
2294.446	4635
2296.453	4551
2298.459	4537
2300.463	4529
2302.466	4527
2304.471	4473
2306.475	4509
2308.477	4486
2310.478	4438
2312.481	4591
2314.481	4569
2316.481	4521
2318.482	4582
2320.482	4553
2322.48	4531
2324.48	4538
2326.478	4468
2328.476	4493
2330.473	4565
2332.469	4455
2334.465	4463
2336.46	4483
2338.454	4553
2340.45	4484
2342.444	4513
2344.437	4462
2346.43	4514
2348.421	4467
2350.414	4503
2352.405	4492
2354.396	4459
2356.386	4440
2358.376	4518
2360.366	4536
2362.355	4512
2364.343	4491
2366.331	4487
2368.317	4536
2370.304	4481
2372.292	4549
2374.278	4422
2376.262	4422
2378.247	4507
2380.23	4492
2382.216	4522
2384.199	4480
2386.181	4404
2388.163	4375
2390.144	4459
2392.127	4443
2394.107	4412
2396.087	4380
2398.066	4392
2400.046	4485
2402.023	4397
2404.004	4491
2405.981	4387
2407.957	4408
2409.934	4484
2411.91	4353
2413.886	4474
2415.862	4450
2417.836	4403
2419.809	4416
2421.784	4471
2423.756	4430
2425.73	4349
2427.701	4367
2429.672	4413
2431.644	4499
2433.615	4440
2435.586	4449
2437.555	4420
2439.523	4397
2441.491	4436
2443.459	4314
2445.428	4420
2447.395	4450
2449.361	4467
2451.327	4413
2453.292	4402
2455.257	4438
2457.223	4393
2459.187	4395
2461.15	4307
2463.113	4314
2465.076	4367
2467.039	4382
2468.999	4389
2470.96	4359
2472.921	4371
2474.881	4375
2476.841	4366
2478.8	4330
2480.759	4372
2482.717	4416
2484.675	4314
2486.63	4417
2488.589	4409
2490.545	4381
2492.5	4354
2494.455	4274
2496.408	4384
2498.364	4336
2500.318	4368
2502.27	4294
2504.223	4307
2506.174	4373
2508.126	4333
2510.078	4356
2512.03	4419
2513.979	4384
2515.927	4352
2517.877	4325
2519.826	4428
2521.775	4329
2523.722	4317
2525.668	4264
2527.616	4274
2529.561	4313
2531.508	4432
2533.452	4375
2535.398	4321
2537.342	4340
2539.284	4373
2541.229	4337
2543.173	4349
2545.114	4322
2547.055	4296
2548.996	4299
2550.938	4295
2552.878	4416
2554.817	4309
2556.756	4399
2558.695	4257
2560.633	4383
2562.572	4304
2564.509	4343
2566.445	4422
2568.382	4294
2570.317	4368
2572.254	4354
2574.189	4383
2576.123	4316
2578.057	4303
2579.99	4366
2581.923	4267
2583.855	4326
2585.788	4365
2587.719	4261
2589.65	4329
2591.579	4327
2593.511	4362
2595.44	4336
2597.37	4268
2599.297	4328
2601.225	4314
2603.153	4375
2605.08	4247
2607.007	4296
2608.932	4358
2610.858	4319
2612.782	4311
2614.709	4346
2616.632	4389
2618.556	4386
2620.478	4335
2622.401	4340
2624.324	4306
2626.247	4359
2628.167	4399
2630.088	4353
2632.008	4348
2633.928	4321
2635.848	4295
2637.766	4392
2639.684	4332
2641.603	4268
2643.519	4322
2645.437	4415
2647.353	4296
2649.27	4334
2651.184	4324
2653.099	4288
2655.014	4354
2656.928	4415
2658.842	4355
2660.755	4239
2662.667	4300
2664.579	4319
2666.491	4368
2668.402	4420
2670.312	4330
2672.222	4332
2674.132	4355
2676.042	4353
2677.951	4316
2679.859	4318
2681.766	4274
2683.674	4361
2685.582	4358
2687.488	4306
2689.392	4311
2691.298	4273
2693.202	4286
2695.107	4268
2697.012	4352
2698.914	4304
2700.817	4199
2702.72	4351
2704.622	4291
2706.524	4336
2708.425	4257
2710.326	4299
2712.225	4282
2714.125	4266
2716.024	4264
2717.923	4246
2719.822	4325
2721.719	4335
2723.616	4239
2725.512	4352
2727.41	4295
2729.305	4260
2731.201	4256
2733.095	4204
2734.99	4296
2736.884	4240
2738.778	4323
2740.67	4339
2742.562	4291
2744.455	4156
2746.346	4204
2748.238	4183
2750.129	4317
2752.018	4273
2753.907	4194
2755.797	4198
2757.687	4247
2759.575	4245
2761.462	4269
2763.349	4153
2765.237	4259
2767.124	4217
2769.009	4252
2770.894	4234
2772.779	4141
2774.663	4271
2776.547	4178
2778.431	4210
2780.314	4197
2782.197	4231
2784.078	4183
2785.96	4136
2787.842	4214
2789.723	4167
2791.603	4254
2793.483	4234
2795.362	4235
2797.241	4225
2799.121	4273
2800.997	4144
2802.874	4243
2804.751	4250
2806.628	4200
2808.506	4247
2810.38	4171
2812.255	4301
2814.13	4209
2816.003	4269
2817.878	4194
2819.752	4199
2821.623	4314
2823.496	4122
2825.368	4193
2827.238	4124
2829.111	4247
2830.98	4277
2832.851	4293
2834.719	4221
2836.589	4195
2838.458	4259
2840.327	4169
2842.193	4263
2844.061	4157
2845.927	4310
2847.794	4099
2849.66	4233
2851.525	4223
2853.39	4286
2855.254	4164
2857.117	4280
2858.983	4314
2860.845	4294
2862.707	4232
2864.569	4414
2866.431	4368
2868.293	4386
2870.154	4487
2872.013	4441
2873.873	4414
2875.733	4432
2877.592	4503
2879.451	4554
2881.309	4566
2883.166	4668
2885.022	4664
2886.879	4644
2888.736	4670
2890.591	4643
2892.446	4595
2894.301	4659
2896.155	4655
2898.009	4566
2899.863	4680
2901.716	4517
2903.568	4631
2905.419	4640
2907.27	4669
2909.123	4597
2910.973	4636
2912.824	4745
2914.673	4639
2916.521	4744
2918.372	4800
2920.22	4806
2922.067	4903
2923.914	4792
2925.761	4957
2927.607	5057
2929.455	4876
2931.301	4991
2933.144	5134
2934.99	5182
2936.833	5057
2938.678	5233
2940.522	5112
2942.364	5309
2944.207	5303
2946.048	5327
2947.891	5337
2949.731	5326
2951.571	5234
2953.412	5196
2955.25	5219
2957.09	5102
2958.93	5130
2960.767	5152
2962.606	5024
2964.443	5007
2966.279	5120
2968.116	4930
2969.953	4925
2971.788	4813
2973.623	4721
2975.457	4792
2977.292	4715
2979.127	4736
2980.959	4853
2982.792	4689
2984.624	4659
2986.455	4653
2988.288	4689
2990.119	4625
2991.949	4619
2993.779	4605
2995.608	4615
2997.439	4528
2999.268	4568
3001.096	4435
3002.923	4449
3004.751	4431
3006.578	4324
3008.406	4377
3010.232	4301
3012.057	4240
3013.883	4258
3015.706	4199
3017.532	4286
3019.356	4137
3021.179	4164
3023.002	4154
3024.823	4109
3026.646	4198
3028.469	4071
3030.289	4165
3032.11	4063
3033.93	4065
3035.749	4038
3037.57	4120
3039.39	4041
3041.207	4088
3043.026	4117
3044.842	4001
3046.661	3961
3048.477	4022
3050.294	4016
3052.109	4016
3053.925	4003
3055.739	3969
3057.555	4041
3059.368	4031
3061.181	3989
3062.995	4023
3064.807	4063
3066.62	3980
3068.433	4003
3070.243	3985
3072.054	4051
3073.865	4087
3075.675	3968
3077.485	4033
3079.293	3997
3081.102	3984
3082.911	3961
3084.719	3936
3086.527	4041
3088.333	3945
3090.139	3967
3091.945	3899
3093.75	4025
3095.557	3950
3097.361	3879
3099.165	4025
3100.969	3943
3102.772	3917
3104.575	3819
3106.379	3906
3108.181	3932
3109.982	3854
3111.783	3891
3113.584	3882
3115.386	3914
3117.186	3834
3118.985	3861
3120.783	3922
3122.582	3900
3124.381	3772
3126.179	3892
3127.975	3885
3129.772	3783
3131.569	3906
3133.365	3874
3135.161	3893
3136.956	3879
3138.751	3840
3140.544	3876
3142.338	3847
3144.132	3856
3145.925	3827
3147.717	3784
3149.509	3814
3151.301	3833
3153.091	3867
3154.884	3888
3156.673	3841
3158.462	3835
3160.252	3893
3162.041	3752
3163.831	3750
3165.618	3894
3167.405	3831
3169.193	3801
3170.979	3756
3172.767	3818
3174.553	3754
3176.338	3818
3178.123	3816
3179.907	3783
3181.692	3816
3183.477	3812
3185.259	3873
3187.042	3824
3188.824	3745
3190.607	3843
3192.389	3708
3194.17	3861
3195.951	3769
3197.73	3772
3199.51	3780
3201.289	3749
3203.07	3698
3204.848	3766
3206.626	3805
3208.403	3804
3210.18	3763
3211.959	3651
3213.735	3798
3215.511	3753
3217.285	3810
3219.06	3770
3220.836	3715
3222.611	3790
3224.384	3738
3226.158	3846
3227.929	3824
3229.702	3705
3231.476	3780
3233.248	3715
3235.018	3768
3236.789	3897
3238.56	3788
3240.33	3855
3242.1	3795
3243.869	3783
3245.637	3814
3247.405	3741
3249.172	3796
3250.941	3805
3252.707	3757
3254.474	3728
3256.24	3785
3258.006	3747
3259.772	3807
3261.537	3849
3263.301	3797
3265.065	3828
3266.828	3742
3268.592	3814
3270.355	3768
3272.117	3732
3273.878	3819
3275.64	3747
3277.401	3835
3279.162	3788
3280.922	3860
3282.682	3750
3284.441	3851
3286.199	3833
3287.959	3764
3289.716	3749
3291.475	3764
3293.232	3775
3294.988	3780
3296.744	3795
3298.501	3742
3300.256	3819
3302.011	3790
3303.766	3765
3305.52	3791
3307.275	3880
3309.028	3866
3310.781	3679
3312.533	3745
3314.285	3789
3316.038	3829
3317.789	3750
3319.54	3766
3321.289	3792
3323.039	3838
3324.789	3745
3326.539	3797
3328.288	3865
3330.035	3770
3331.783	3808
3333.531	3843
3335.28	3792
3337.025	3723
3338.771	3815
3340.518	3721
3342.262	3724
3344.009	3746
3345.753	3789
3347.497	3735
3349.24	3773
3350.983	3736
3352.726	3813
3354.469	3792
3356.212	3721
3357.952	3662
3359.694	3733
3361.434	3708
3363.176	3703
3364.916	3701
3366.654	3690
3368.394	3665
3370.132	3702
3371.871	3659
3373.61	3635
3375.346	3730
3377.083	3658
3378.82	3730
3380.556	3770
3382.292	3705
3384.027	3699
3385.763	3672
3387.497	3660
3389.231	3669
3390.965	3669
3392.698	3668
3394.431	3650
3396.164	3677
3397.896	3658
3399.627	3615
3401.36	3689
3403.09	3609
3404.82	3632
3406.55	3586
3408.279	3562
3410.01	3637
3411.738	3720
3413.467	3574
3415.194	3541
3416.92	3602
3418.647	3670
3420.375	3626
3422.102	3570
3423.827	3574
3425.553	3657
3427.277	3568
3429.003	3529
3430.727	3545
3432.451	3497
3434.173	3688
3435.896	3534
3437.62	3596
3439.343	3608
3441.063	3563
3442.785	3577
3444.505	3496
3446.226	3491
3447.948	3510
3449.666	3506
3451.386	3572
3453.104	3482
3454.823	3508
3456.541	3493
3458.259	3512
3459.976	3482
3461.693	3530
3463.408	3560
3465.125	3468
3466.841	3429
3468.556	3461
3470.271	3495
3471.985	3542
3473.698	3528
3475.414	3462
3477.126	3403
3478.838	3521
3480.55	3502
3482.263	3488
3483.975	3517
3485.686	3491
3487.396	3425
3489.106	3391
3490.817	3384
3492.526	3431
3494.236	3490
3495.944	3436
3497.652	3464
3499.359	3479
3501.066	3379
3502.775	3395
3504.481	3403
3506.187	3324
3507.893	3409
3509.598	3340
3511.304	3425
3513.009	3391
3514.713	3389
3516.417	3345
3518.12	3366
3519.821	3397
3521.525	3335
3523.228	3330
3524.929	3389
3526.631	3340
3528.33	3323
3530.032	3320
3531.733	3356
3533.433	3364
3535.131	3343
3536.83	3377
3538.529	3404
3540.227	3357
3541.925	3316
3543.623	3337
3545.319	3333
3547.016	3326
3548.712	3247
3550.408	3245
3552.103	3253
3553.798	3230
3555.491	3234
3557.188	3286
3558.88	3333
3560.574	3238
3562.266	3373
3563.959	3257
3565.651	3285
3567.343	3272
3569.035	3216
3570.725	3314
3572.415	3228
3574.106	3201
3575.797	3217
3577.485	3201
3579.174	3210
3580.863	3191
3582.551	3247
3584.238	3183
3585.926	3223
3587.613	3305
3589.3	3247
3590.986	3253
3592.671	3183
3594.357	3122
3596.042	3190
3597.726	3190
3599.41	3153
3601.094	3120
3602.778	3173
3604.461	3221
3606.143	3218
3607.825	3181
3609.507	3143
3611.188	3149
3612.87	3166
3614.551	3077
3616.229	3169
3617.909	3063
3619.589	3120
3621.269	3066
3622.948	3097
3624.625	3026
3626.302	3017
3627.98	3034
3629.657	3077
3631.334	3105
3633.01	3090
3634.686	3083
3636.361	3050
3638.036	3054
3639.712	3058
3641.385	3051
3643.06	3105
3644.732	3092
3646.405	3041
3648.08	3161
3649.751	3052
3651.424	3029
3653.094	3085
3654.766	2952
3656.436	3040
3658.106	2935
3659.777	3075
3661.446	3011
3663.115	3050
3664.783	3014
3666.452	3064
3668.121	3021
3669.788	2971
3671.454	2924
3673.121	3011
3674.789	3051
3676.455	2973
3678.12	3021
3679.784	2970
3681.45	2954
3683.114	2910
3684.779	2978
3686.442	3007
3688.105	3029
3689.768	2910
3691.43	2890
3693.093	2900
3694.754	3019
3696.415	2950
3698.076	2982
3699.736	2922
3701.396	2965
3703.057	2964
3704.716	2952
3706.375	2976
3708.034	3033
3709.692	2922
3711.351	2889
3713.008	2903
3714.665	2896
3716.321	2908
3717.977	2917
3719.634	2934
3721.29	3003
3722.945	2947
3724.598	2931
3726.253	2929
3727.907	2965
3729.561	2911
3731.214	2997
3732.867	2913
3734.518	2890
3736.171	2961
3737.824	2887
3739.474	2827
3741.125	2854
3742.775	2895
3744.425	2969
3746.074	2897
3747.725	2856
3749.373	2867
3751.022	2968
3752.669	2931
3754.318	2869
3755.966	2882
3757.612	2905
3759.259	2918
3760.905	2810
3762.55	2814
3764.197	2845
3765.842	2889
3767.486	2872
3769.131	2806
3770.774	2855
3772.417	2806
3774.061	2865
3775.705	2866
3777.347	2867
3778.988	2866
3780.629	2835
3782.271	2894
3783.912	2783
3785.552	2893
3787.192	2822
3788.831	2845
3790.472	2810
3792.112	2783
3793.75	2734
3795.388	2788
3797.024	2786
3798.661	2840
3800.3	2778
3801.936	2786
3803.572	2795
3805.208	2842
3806.844	2794
3808.48	2840
3810.115	2751
3811.748	2761
3813.382	2811
3815.016	2866
3816.649	2807
3818.283	2776
3819.914	2698
3821.547	2757
3823.178	2743
3824.809	2778
3826.441	2767
3828.072	2792
3829.701	2782
3831.331	2720
3832.96	2783
3834.591	2749
3836.219	2808
3837.847	2726
3839.475	2804
3841.102	2773
3842.729	2718
3844.357	2710
3845.984	2743
3847.609	2698
3849.234	2674
3850.86	2734
3852.485	2678
3854.11	2663
3855.734	2702
3857.357	2763
3858.981	2712
3860.603	2707
3862.227	2822
3863.848	2747
3865.471	2663
3867.092	2741
3868.713	2682
3870.334	2646
3871.954	2684
3873.575	2681
3875.194	2724
3876.813	2684
3878.433	2692
3880.051	2649
3881.669	2662
3883.286	2782
3884.904	2637
3886.52	2634
3888.138	2697
3889.754	2644
3891.37	2699
3892.985	2723
3894.6	2751
3896.216	2632
3897.831	2689
3899.444	2662
3901.058	2683
3902.67	2630
3904.283	2701
3905.897	2671
3907.509	2664
3909.121	2631
3910.731	2663
3912.342	2596
3913.954	2683
3915.563	2638
3917.174	2622
3918.783	2628
3920.391	2609
3922.002	2637
3923.611	2661
3925.218	2615
3926.826	2602
3928.432	2691
3930.039	2625
3931.647	2624
3933.253	2637
3934.859	2579
3936.464	2650
3938.068	2621
3939.675	2637
3941.278	2577
3942.883	2655
3944.486	2572
3946.089	2672
3947.692	2687
3949.295	2611
3950.898	2615
3952.499	2627
3954.1	2672
3955.7	2686
3957.303	2605
3958.903	2538
3960.502	2588
3962.101	2603
3963.7	2605
3965.301	2662
3966.899	2601
3968.497	2566
3970.094	2588
3971.691	2532
3973.288	2564
3974.885	2572
3976.481	2541
3978.077	2538
3979.672	2509
3981.267	2534
3982.863	2594
3984.457	2533
3986.051	2584
3987.645	2526
3989.238	2498
3990.831	2575
3992.425	2523
3994.017	2535
3995.607	2535
3997.199	2513
3998.79	2486
4000.382	2496
4001.973	2522
4003.561	2453
4005.151	2543
4006.741	2504
4008.331	2540
4009.918	2463
4011.507	2510
4013.095	2499
4014.681	2487
4016.269	2535
4017.856	2463
4019.443	2509
4021.028	2473
4022.614	2467
4024.199	2472
4025.785	2502
4027.37	2492
4028.953	2494
4030.536	2450
4032.12	2428
4033.704	2417
4035.287	2541
4036.869	2447
4038.45	2434
4040.032	2334
4041.613	2462
4043.195	2446
4044.776	2434
4046.356	2452
4047.935	2449
4049.515	2436
4051.095	2449
4052.674	2482
4054.251	2445
4055.829	2471
4057.406	2417
4058.985	2449
4060.562	2454
4062.139	2453
4063.715	2429
4065.29	2368
4066.865	2413
4068.442	2329
4070.016	2346
4071.59	2443
4073.164	2402
4074.738	2442
4076.312	2375
4077.885	2430
4079.458	2404
4081.03	2348
4082.602	2424
4084.173	2371
4085.745	2394
4087.315	2370
4088.886	2383
4090.456	2361
4092.026	2426
4093.596	2392
4095.165	2318
4096.734	2346
4098.301	2374
4099.869	2363
4101.437	2432
4103.006	2349
4104.572	2328
4106.139	2366
4107.704	2322
4109.27	2388
4110.837	2365
4112.401	2352
4113.966	2364
4115.53	2398
4117.094	2404
4118.659	2346
4120.223	2309
4121.785	2390
4123.347	2322
4124.909	2261
4126.471	2380
4128.034	2353
4129.595	2340
4131.155	2309
4132.716	2313
4134.275	2298
4135.836	2321
4137.395	2308
4138.955	2337
4140.513	2310
4142.071	2306
4143.628	2339
4145.188	2309
4146.745	2309
4148.302	2365
4149.858	2321
4151.414	2321
4152.971	2268
4154.526	2309
4156.081	2334
4157.635	2284
4159.189	2265
4160.745	2292
4162.298	2272
4163.852	2240
4165.405	2236
4166.957	2275
4168.51	2274
4170.063	2264
4171.614	2295
4173.166	2249
4174.717	2289
4176.267	2240
4177.817	2260
4179.368	2218
4180.917	2196
4182.466	2248
4184.016	2279
4185.564	2175
4187.112	2261
4188.66	2239
4190.207	2296
4191.754	2241
4193.301	2272
4194.848	2242
4196.394	2267
4197.94	2225
4199.484	2182
4201.03	2242
4202.575	2245
4204.12	2174
4205.663	2155
4207.207	2183
4208.75	2208
4210.292	2269
4211.836	2212
4213.378	2194
4214.92	2252
4216.46	2274
4218.002	2194
4219.544	2152
4221.083	2216
4222.625	2167
4224.164	2215
4225.703	2155
4227.244	2245
4228.782	2166
4230.32	2160
4231.857	2168
4233.395	2214
4234.933	2121
4236.471	2176
4238.007	2193
4239.542	2214
4241.078	2158
4242.614	2202
4244.15	2197
4245.685	2187
4247.219	2174
4248.753	2207
4250.287	2188
4251.82	2178
4253.354	2138
4254.887	2142
4256.419	2125
4257.951	2280
4259.483	2158
4261.016	2128
4262.547	2181
4264.078	2187
4265.608	2159
4267.137	2137
4268.668	2215
4270.197	2142
4271.727	2191
4273.254	2155
4274.783	2149
4276.311	2127
4277.84	2209
4279.366	2121
4280.894	2140
4282.42	2112
4283.946	2144
4285.473	2111
4286.998	2147
4288.523	2158
4290.047	2091
4291.572	2059
4293.096	2158
4294.622	2081
4296.144	2091
4297.668	2117
4299.19	2115
4300.713	2062
4302.236	2145
4303.758	2044
4305.279	2090
4306.799	2082
4308.321	2144
4309.842	2135
4311.361	2077
4312.882	2120
4314.401	2110
