400.0961	3219
402.6185	3320
405.1424	3303
407.6635	3308
410.1838	3315
412.7035	3329
415.2225	3401
417.7388	3416
420.2585	3521
422.7754	3433
425.2917	3434
427.8072	3487
430.3221	3545
432.8363	3508
435.3498	3537
437.8626	3538
440.3727	3479
442.8841	3540
445.3969	3601
447.907	3584
450.4142	3541
452.9229	3653
455.4289	3551
457.9362	3506
460.4449	3517
462.9488	3592
465.454	3505
467.9566	3506
470.4604	3558
472.9637	3600
475.4662	3581
477.966	3594
480.4671	3521
482.9656	3598
485.4633	3554
487.9645	3637
490.4608	3659
492.9566	3609
495.4536	3679
497.948	3593
500.4437	3647
502.9387	3603
505.431	3734
507.9226	3617
510.4136	3630
512.9079	3687
515.3975	3681
517.8864	3610
520.3746	3691
522.8622	3699
525.3491	3727
527.8394	3736
530.3249	3679
532.8098	3748
535.2939	3662
537.7774	3733
540.2623	3678
542.7444	3660
545.2259	3680
547.7067	3706
550.1868	3703
552.6683	3779
555.147	3738
557.6231	3678
560.1005	3763
562.5773	3738
565.0534	3719
567.5308	3709
570.0056	3765
572.4776	3738
574.951	3834
577.4237	3784
579.8978	3877
582.3671	3889
584.8378	3883
587.3079	3842
589.7773	3859
592.244	3801
594.714	3849
597.1793	3803
599.6461	3811
602.1121	3869
604.5754	3821
607.0421	3836
609.5042	3859
611.9675	3846
614.4282	3819
616.8902	3826
619.3515	3812
621.8122	3848
624.2702	3808
626.7296	3879
629.1863	3837
631.6423	3813
634.1017	3876
636.5563	3842
639.0104	3885
641.4658	3895
643.9185	3856
646.3725	3786
648.8239	3814
651.2766	3853
653.7266	3920
656.176	3923
658.6247	3920
661.0748	3889
663.5242	3869
665.9709	3892
668.417	3940
670.8624	3870
673.3092	4026
675.7533	3968
678.1968	3939
680.6395	3896
683.0817	4124
685.5251	3937
687.9659	3956
690.4061	4064
692.8456	3943
695.2844	4025
697.7226	3974
700.1621	4038
702.599	4025
705.0332	3975
707.4688	4006
709.9036	4007
712.3399	4053
714.7735	4079
717.2044	3953
719.6367	3959
722.0683	3937
724.4993	4042
726.9296	4108
729.3593	4075
731.7883	4025
734.2147	4058
736.6423	4156
739.0714	4115
741.4958	4138
743.9216	4207
746.3447	4269
748.7691	4144
751.1929	4092
753.616	4214
756.0366	4227
758.4584	4184
760.8776	4288
763.2982	4358
765.718	4155
768.1373	4289
770.5539	4117
772.9698	4171
775.3871	4227
777.8038	4315
780.2178	4285
782.6332	4253
785.0459	4270
787.458	4297
789.8714	4243
792.2842	4291
794.6943	4318
797.1038	4260
799.5127	4270
801.9209	4244
804.3324	4211
806.7393	4309
809.1456	4283
811.5513	4281
813.9562	4316
816.3625	4323
818.7663	4255
821.1693	4281
823.5718	4197
825.9735	4347
828.3746	4319
830.7771	4250
833.177	4308
835.5762	4227
837.9747	4338
840.3727	4264
842.772	4363
845.1666	4358
847.5626	4438
849.958	4340
852.3527	4346
854.7488	4379
857.1403	4418
859.5331	4367
861.9253	4389
864.3168	4371
866.7057	4305
869.098	4332
871.4876	4357
873.8746	4362
876.263	4394
878.6487	4318
881.0378	4386
883.4243	4308
885.8081	4400
888.1933	4384
890.5759	4421
892.9598	4314
895.343	4376
897.7256	4330
900.1057	4444
902.4871	4430
904.8659	4413
907.246	4401
909.6254	4441
912.0023	4301
914.3786	4416
916.7562	4484
919.1331	4547
921.5074	4493
923.8831	4505
926.2562	4473
928.6287	4584
931.0005	4516
933.3757	4590
935.7462	4500
938.1162	4647
940.4855	4580
942.8542	4655
945.2242	4657
947.5916	4735
949.9584	4820
952.3266	4900
954.6921	4982
957.0571	5056
959.4233	5207
961.787	5273
964.15	5260
966.5125	5194
968.8742	5008
971.2354	4953
973.5959	4812
975.9559	4757
978.3151	4600
980.6738	4585
983.0338	4455
985.3912	4584
987.7461	4471
990.1022	4644
992.4578	4561
994.8127	4547
997.1689	4464
999.5207	4495
1001.874	4506
1004.226	4526
1006.576	4590
1008.929	4533
1011.28	4525
1013.628	4588
1015.977	4556
1018.324	4600
1020.674	4629
1023.019	4620
1025.366	4500
1027.713	4503
1030.056	4606
1032.399	4601
1034.746	4604
1037.087	4550
1039.431	4572
1041.771	4622
1044.113	4608
1046.454	4750
1048.793	4598
1051.133	4598
1053.471	4616
1055.807	4606
1058.146	4614
1060.483	4601
1062.818	4721
1065.153	4657
1067.489	4654
1069.822	4628
1072.156	4731
1074.488	4745
1076.82	4775
1079.15	4657
1081.48	4691
1083.814	4601
1086.143	4632
1088.471	4565
1090.799	4641
1093.126	4665
1095.452	4674
1097.78	4670
1100.105	4577
1102.43	4722
1104.754	4670
1107.077	4577
1109.4	4677
1111.722	4677
1114.044	4617
1116.365	4697
1118.685	4792
1121.005	4752
1123.324	4671
1125.643	4831
1127.961	4683
1130.278	4653
1132.595	4773
1134.911	4736
1137.226	4679
1139.541	4627
1141.854	4679
1144.167	4591
1146.482	4565
1148.793	4773
1151.105	4737
1153.414	4705
1155.725	4659
1158.033	4741
1160.344	4672
1162.651	4718
1164.959	4787
1167.265	4699
1169.572	4793
1171.878	4767
1174.184	4720
1176.488	4665
1178.79	4671
1181.094	4663
1183.396	4785
1185.699	4706
1188.001	4726
1190.301	4671
1192.6	4723
1194.9	4719
1197.2	4671
1199.497	4674
1201.794	4716
1204.09	4674
1206.387	4775
1208.684	4750
1210.978	4724
1213.272	4696
1215.565	4685
1217.858	4712
1220.15	4737
1222.443	4770
1224.734	4752
1227.024	4868
1229.313	4819
1231.602	4797
1233.892	4657
1236.18	4748
1238.467	4877
1240.754	4786
1243.04	4853
1245.325	4914
1247.612	4826
1249.896	4960
1252.178	4841
1254.461	4755
1256.743	4869
1259.027	4883
1261.308	4922
1263.587	4935
1265.867	4912
1268.146	4857
1270.425	4854
1272.703	4899
1274.981	4874
1277.256	4866
1279.532	4735
1281.808	4977
1284.083	4838
1286.358	4932
1288.63	4806
1290.904	4795
1293.175	4794
1295.449	4757
1297.719	4908
1299.99	4752
1302.259	4803
1304.529	4697
1306.798	4744
1309.065	4779
1311.333	4854
1313.599	4847
1315.866	4889
1318.131	4693
1320.396	4721
1322.66	4809
1324.925	4817
1327.187	4797
1329.448	4857
1331.711	4787
1333.974	4917
1336.234	4761
1338.493	4851
1340.752	4790
1343.01	4807
1345.269	4847
1347.526	4876
1349.784	4882
1352.04	4842
1354.295	4873
1356.552	4849
1358.806	4856
1361.059	4770
1363.312	4849
1365.564	4862
1367.818	4778
1370.069	4827
1372.318	4952
1374.568	4906
1376.817	4881
1379.066	4942
1381.316	4875
1383.564	4890
1385.809	4931
1388.056	4972
1390.301	4846
1392.549	5024
1394.793	4846
1397.036	4964
1399.279	4913
1401.522	4765
1403.763	4948
1406.007	5080
1408.248	4895
1410.487	4979
1412.727	4942
1414.965	4969
1417.205	4873
1419.442	5013
1421.68	4920
1423.915	4952
1426.152	4985
1428.388	4935
1430.623	4932
1432.857	4922
1435.091	4930
1437.323	5010
1439.556	4994
1441.789	5064
1444.019	4948
1446.25	4991
1448.48	4926
1450.708	4962
1452.938	5030
1455.167	5086
1457.394	5170
1459.62	5119
1461.846	4946
1464.073	4995
1466.299	5122
1468.523	5000
1470.746	5020
1472.969	4962
1475.191	4881
1477.415	4916
1479.636	4933
1481.858	5012
1484.078	4954
1486.298	4889
1488.518	4878
1490.736	4889
1492.954	4884
1495.169	4846
1497.386	5032
1499.602	4875
1501.819	4871
1504.034	4789
1506.248	4903
1508.462	4895
1510.675	4857
1512.888	4811
1515.1	4897
1517.311	4841
1519.522	4890
1521.732	4852
1523.942	4971
1526.151	4862
1528.36	4878
1530.566	4847
1532.773	4962
1534.98	4762
1537.187	4877
1539.392	4907
1541.596	4903
1543.801	4909
1546.005	4962
1548.208	4823
1550.411	4947
1552.612	4916
1554.814	5077
1557.013	4970
1559.212	5026
1561.414	4930
1563.612	4948
1565.811	4971
1568.007	4966
1570.203	4979
1572.403	4952
1574.598	4964
1576.792	4905
1578.988	5061
1581.181	4988
1583.376	5118
1585.568	5050
1587.761	5041
1589.952	5084
1592.143	4983
1594.333	5036
1596.524	5123
1598.715	5015
1600.903	5095
1603.091	5026
1605.278	5032
1607.466	5143
1609.652	5081
1611.838	5086
1614.023	5021
1616.207	5029
1618.391	4971
1620.576	5069
1622.759	5066
1624.941	5084
1627.123	5053
1629.304	5000
1631.484	5104
1633.664	5148
1635.844	5092
1638.022	5111
1640.201	5108
1642.38	5150
1644.556	5043
1646.732	5084
1648.908	5080
1651.084	5036
1653.257	5125
1655.433	5145
1657.607	5117
1659.779	5124
1661.951	5127
1664.122	5091
1666.295	5152
1668.467	5118
1670.635	5141
1672.805	5096
1674.973	5160
1677.142	5043
1679.31	5120
1681.478	5086
1683.644	5198
1685.81	5126
1687.975	5107
1690.142	5042
1692.305	5107
1694.468	5113
1696.632	5091
1698.794	5049
1700.957	4960
1703.119	5090
1705.279	5071
1707.439	5046
1709.598	5098
1711.758	5019
1713.917	5063
1716.075	5001
1718.231	5154
1720.388	5043
1722.543	5054
1724.702	5042
1726.856	5059
1729.01	4991
1731.164	5036
1733.317	5045
1735.471	4976
1737.623	5060
1739.774	5065
1741.925	5053
1744.075	5066
1746.225	5046
1748.376	5061
1750.524	5073
1752.672	5108
1754.82	5012
1756.965	5087
1759.113	5026
1761.259	5027
1763.405	5068
1765.549	5128
1767.694	5018
1769.836	4955
1771.981	5080
1774.123	5232
1776.264	5115
1778.405	5017
1780.546	5173
1782.687	5137
1784.827	5220
1786.966	5039
1789.103	5134
1791.242	5168
1793.381	5148
1795.517	5031
1797.653	5084
1799.788	5085
1801.923	5086
1804.057	5078
1806.193	5117
1808.326	5077
1810.457	5139
1812.59	5124
1814.721	5150
1816.855	5090
1818.984	5128
1821.113	5100
1823.244	5000
1825.372	5078
1827.499	4998
1829.63	5098
1831.756	5014
1833.882	5093
1836.007	5084
1838.132	5049
1840.26	5080
1842.384	5062
1844.507	4999
1846.63	5151
1848.752	5033
1850.875	5161
1852.996	5161
1855.118	5089
1857.238	5016
1859.358	5008
1861.477	5027
1863.597	5083
1865.715	5063
1867.832	5047
1869.948	5044
1872.064	4993
1874.181	5093
1876.297	5023
1878.411	5048
1880.526	5079
1882.639	5110
1884.752	4992
1886.865	5080
1888.977	5028
1891.089	5087
1893.2	5088
1895.308	5038
1897.42	5129
1899.53	5050
1901.639	5096
1903.745	5078
1905.853	5133
1907.962	5031
1910.067	4973
1912.174	5111
1914.278	5125
1916.383	5116
1918.486	5187
1920.592	5045
1922.694	5040
1924.797	5069
1926.898	5157
1929	5100
1931.102	5147
1933.203	5072
1935.301	5248
1937.401	5124
1939.499	5116
1941.598	5279
1943.697	5047
1945.793	5065
1947.888	5126
1949.985	5106
1952.08	5087
1954.176	4968
1956.269	5277
1958.364	5084
1960.457	5239
1962.549	5162
1964.642	5135
1966.733	5080
1968.823	5084
1970.913	5161
1973.005	5097
1975.093	5068
1977.184	5075
1979.271	5227
1981.359	5047
1983.446	5125
1985.532	5095
1987.619	5028
1989.705	4978
1991.789	5060
1993.874	5146
1995.956	5077
1998.041	5115
2000.123	5075
2002.206	4938
2004.287	5066
2006.368	5020
2008.449	5069
2010.529	5041
2012.609	5029
2014.688	5015
2016.766	5106
2018.843	5007
2020.922	5078
2022.999	5113
2025.074	5011
2027.15	5129
2029.225	5056
2031.299	5124
2033.375	5076
2035.447	5044
2037.52	4943
2039.592	5145
2041.664	5002
2043.736	5057
2045.807	5106
2047.876	5025
2049.947	5018
2052.015	5001
2054.086	5101
2056.153	5193
2058.221	5066
2060.288	5089
2062.353	5065
2064.42	5067
2066.486	5002
2068.55	5052
2070.614	4991
2072.678	5043
2074.741	5108
2076.805	5016
2078.866	5142
2080.929	5157
2082.99	5130
2085.049	5108
2087.109	5142
2089.17	5000
2091.228	5144
2093.286	5065
2095.344	5037
2097.4	5133
2099.46	5045
2101.516	5043
2103.572	4966
2105.626	5044
2107.679	5026
2109.735	5080
2111.788	5007
2113.841	5160
2115.894	5060
2117.945	5164
2119.997	5058
2122.049	5024
2124.1	5157
2126.148	5109
2128.197	5041
2130.246	5092
2132.296	5048
2134.342	5161
2136.39	5115
2138.437	5062
2140.483	5026
2142.527	5012
2144.574	4987
2146.619	5063
2148.661	4949
2150.705	4968
2152.747	5092
2154.792	4959
2156.832	5050
2158.874	5190
2160.915	5004
2162.954	5012
2164.995	5038
2167.034	5070
2169.072	5051
2171.111	4991
2173.148	5021
2175.186	5024
2177.223	5005
2179.258	4939
2181.294	4961
2183.328	5073
2185.362	4986
2187.398	4859
2189.431	4949
2191.463	5025
2193.495	4989
2195.528	5047
2197.56	4985
2199.59	4965
2201.62	4924
2203.649	4983
2205.678	4906
2207.708	4948
2209.737	5001
2211.764	4964
2213.791	4860
2215.817	4952
2217.843	4972
2219.87	4852
2221.895	4909
2223.919	4928
2225.942	4877
2227.966	5041
2229.988	4821
2232.012	4913
2234.032	4909
2236.054	4869
2238.074	4834
2240.095	4924
2242.116	4920
2244.135	4917
2246.153	4934
2248.171	4999
2250.188	4920
2252.208	4976
2254.223	4950
2256.239	4896
2258.255	4875
2260.269	4963
2262.283	4934
2264.3	4928
2266.312	4904
2268.325	4994
2270.336	4899
2272.349	4881
2274.362	4970
2276.372	4880
2278.383	4963
2280.392	4860
2282.402	4781
2284.409	4931
2286.418	4956
2288.427	4907
2290.433	4826
2292.441	4980
2294.446	4897
2296.453	4933
2298.459	4845
2300.463	4988
2302.466	4859
2304.471	4840
2306.475	4865
2308.477	4864
2310.478	4839
2312.481	4918
2314.481	4873
2316.481	4874
2318.482	4873
2320.482	4902
2322.48	4965
2324.48	4871
2326.478	4839
2328.476	4878
2330.473	4966
2332.469	4851
2334.465	4845
2336.46	4830
2338.454	4801
2340.45	4914
2342.444	4881
2344.437	4928
2346.43	4804
2348.421	4761
2350.414	4760
2352.405	4894
2354.396	4882
2356.386	4816
2358.376	4795
2360.366	4802
2362.355	4721
2364.343	4739
2366.331	4762
2368.317	4719
2370.304	4829
2372.292	4845
2374.278	4856
2376.262	4802
2378.247	4616
2380.23	4821
2382.216	4699
2384.199	4794
2386.181	4715
2388.163	4805
2390.144	4696
2392.127	4777
2394.107	4772
2396.087	4683
2398.066	4756
2400.046	4643
2402.023	4712
2404.004	4748
2405.981	4740
2407.957	4741
2409.934	4734
2411.91	4734
2413.886	4777
2415.862	4810
2417.836	4697
2419.809	4796
2421.784	4740
2423.756	4650
2425.73	4779
2427.701	4727
2429.672	4625
2431.644	4712
2433.615	4657
2435.586	4627
2437.555	4726
2439.523	4716
2441.491	4821
2443.459	4721
2445.428	4682
2447.395	4656
2449.361	4735
2451.327	4742
2453.292	4745
2455.257	4777
2457.223	4727
2459.187	4833
2461.15	4679
2463.113	4713
2465.076	4756
2467.039	4725
2468.999	4635
2470.96	4645
2472.921	4733
2474.881	4673
2476.841	4664
2478.8	4665
2480.759	4571
2482.717	4695
2484.675	4626
2486.63	4699
2488.589	4535
2490.545	4690
2492.5	4693
2494.455	4653
2496.408	4631
2498.364	4677
2500.318	4607
2502.27	4627
2504.223	4609
2506.174	4639
2508.126	4705
2510.078	4610
2512.03	4588
2513.979	4608
2515.927	4618
2517.877	4692
2519.826	4630
2521.775	4564
2523.722	4654
2525.668	4566
2527.616	4519
2529.561	4652
2531.508	4667
2533.452	4582
2535.398	4639
2537.342	4591
2539.284	4563
2541.229	4552
2543.173	4633
2545.114	4543
2547.055	4559
2548.996	4562
2550.938	4497
2552.878	4594
2554.817	4616
2556.756	4598
2558.695	4610
2560.633	4609
2562.572	4532
2564.509	4708
2566.445	4689
2568.382	4623
2570.317	4668
2572.254	4575
2574.189	4525
2576.123	4591
2578.057	4615
2579.99	4587
2581.923	4552
2583.855	4668
2585.788	4616
2587.719	4491
2589.65	4575
2591.579	4546
2593.511	4633
2595.44	4620
2597.37	4556
2599.297	4627
2601.225	4636
2603.153	4614
2605.08	4561
2607.007	4625
2608.932	4562
2610.858	4547
2612.782	4681
2614.709	4615
2616.632	4600
2618.556	4566
2620.478	4621
2622.401	4545
2624.324	4634
2626.247	4635
2628.167	4656
2630.088	4627
2632.008	4550
2633.928	4672
2635.848	4616
2637.766	4698
2639.684	4547
2641.603	4589
2643.519	4615
2645.437	4517
2647.353	4630
2649.27	4616
2651.184	4540
2653.099	4612
2655.014	4596
2656.928	4583
2658.842	4641
2660.755	4473
2662.667	4649
2664.579	4570
2666.491	4585
2668.402	4582
2670.312	4586
2672.222	4622
2674.132	4536
2676.042	4594
2677.951	4561
2679.859	4625
2681.766	4611
2683.674	4554
2685.582	4585
2687.488	4467
2689.392	4485
2691.298	4542
2693.202	4555
2695.107	4499
2697.012	4616
2698.914	4498
2700.817	4451
2702.72	4514
2704.622	4500
2706.524	4568
2708.425	4535
2710.326	4493
2712.225	4548
2714.125	4468
2716.024	4520
2717.923	4490
2719.822	4507
2721.719	4553
2723.616	4519
2725.512	4495
2727.41	4513
2729.305	4406
2731.201	4432
2733.095	4486
2734.99	4582
2736.884	4485
2738.778	4539
2740.67	4528
2742.562	4491
2744.455	4515
2746.346	4436
2748.238	4432
2750.129	4511
2752.018	4442
2753.907	4440
2755.797	4374
2757.687	4434
2759.575	4499
2761.462	4490
2763.349	4524
2765.237	4526
2767.124	4449
2769.009	4476
2770.894	4537
2772.779	4459
2774.663	4445
2776.547	4445
2778.431	4435
2780.314	4361
2782.197	4421
2784.078	4529
2785.96	4429
2787.842	4420
2789.723	4490
2791.603	4361
2793.483	4386
2795.362	4407
2797.241	4491
2799.121	4430
2800.997	4388
2802.874	4409
2804.751	4504
2806.628	4363
2808.506	4456
2810.38	4383
2812.255	4292
2814.13	4412
2816.003	4462
2817.878	4427
2819.752	4422
2821.623	4416
2823.496	4249
2825.368	4447
2827.238	4348
2829.111	4546
2830.98	4379
2832.851	4336
2834.719	4376
2836.589	4421
2838.458	4422
2840.327	4323
2842.193	4389
2844.061	4406
2845.927	4449
2847.794	4407
2849.66	4411
2851.525	4462
2853.39	4377
2855.254	4350
2857.117	4393
2858.983	4513
2860.845	4394
2862.707	4516
2864.569	4495
2866.431	4368
2868.293	4506
2870.154	4470
2872.013	4602
2873.873	4500
2875.733	4589
2877.592	4568
2879.451	4582
2881.309	4572
2883.166	4534
2885.022	4540
2886.879	4651
2888.736	4602
2890.591	4694
2892.446	4612
2894.301	4545
2896.155	4537
2898.009	4596
2899.863	4584
2901.716	4576
2903.568	4699
2905.419	4517
2907.27	4651
2909.123	4598
2910.973	4556
2912.824	4716
2914.673	4681
2916.521	4662
2918.372	4706
2920.22	4535
2922.067	4714
2923.914	4752
2925.761	4736
2927.607	4730
2929.455	4821
2931.301	4818
2933.144	4812
2934.99	4792
2936.833	4871
2938.678	4938
2940.522	4963
2942.364	5029
2944.207	4929
2946.048	4963
2947.891	5018
2949.731	4981
2951.571	4929
2953.412	4995
2955.25	4914
2957.09	4851
2958.93	4843
2960.767	4959
2962.606	4792
2964.443	4817
2966.279	4805
2968.116	4716
2969.953	4686
2971.788	4773
2973.623	4650
2975.457	4683
2977.292	4582
2979.127	4607
2980.959	4645
2982.792	4558
2984.624	4573
2986.455	4544
2988.288	4590
2990.119	4516
2991.949	4494
2993.779	4452
2995.608	4465
2997.439	4470
2999.268	4432
3001.096	4391
3002.923	4418
3004.751	4257
3006.578	4467
3008.406	4454
3010.232	4338
3012.057	4361
3013.883	4263
3015.706	4310
3017.532	4225
3019.356	4266
3021.179	4210
3023.002	4160
3024.823	4240
3026.646	4182
3028.469	4155
3030.289	4213
3032.11	4157
3033.93	4153
3035.749	4197
3037.57	4158
3039.39	4084
3041.207	4081
3043.026	4113
3044.842	4139
3046.661	4062
3048.477	4091
3050.294	4163
3052.109	4104
3053.925	4139
3055.739	4082
3057.555	4146
3059.368	4116
3061.181	4181
3062.995	4075
3064.807	4176
3066.62	4167
3068.433	4099
3070.243	4038
3072.054	4069
3073.865	4129
3075.675	4084
3077.485	4165
3079.293	4019
3081.102	4001
3082.911	4044
3084.719	4032
3086.527	4054
3088.333	4079
3090.139	4088
3091.945	4064
3093.75	4079
3095.557	4013
3097.361	3969
3099.165	4013
3100.969	4021
3102.772	3935
3104.575	3976
3106.379	3991
3108.181	3918
3109.982	4014
3111.783	3993
3113.584	3961
3115.386	3913
3117.186	3985
3118.985	3996
3120.783	3905
3122.582	3998
3124.381	3888
3126.179	3956
3127.975	3891
3129.772	3950
3131.569	3883
3133.365	3855
3135.161	3886
3136.956	3912
3138.751	3929
3140.544	3849
3142.338	3858
3144.132	3985
3145.925	3882
3147.717	4010
3149.509	3880
3151.301	3917
3153.091	3949
3154.884	3939
3156.673	3870
3158.462	3926
3160.252	3947
3162.041	3839
3163.831	3879
3165.618	3863
3167.405	3867
3169.193	3895
3170.979	3889
3172.767	3904
3174.553	3869
3176.338	3890
3178.123	3788
3179.907	3785
3181.692	3763
3183.477	3760
3185.259	3910
3187.042	3790
3188.824	3776
3190.607	3801
3192.389	3866
3194.17	3767
3195.951	3887
3197.73	3840
3199.51	3824
3201.289	3748
3203.07	3851
3204.848	3789
3206.626	3807
3208.403	3847
3210.18	3898
3211.959	3914
3213.735	3848
3215.511	3736
3217.285	3807
3219.06	3738
3220.836	3839
3222.611	3791
3224.384	3904
3226.158	3911
3227.929	3725
3229.702	3766
3231.476	3787
3233.248	3817
3235.018	3752
3236.789	3807
3238.56	3736
3240.33	3837
3242.1	3829
3243.869	3805
3245.637	3813
3247.405	3845
3249.172	3835
3250.941	3830
3252.707	3732
3254.474	3800
3256.24	3770
3258.006	3798
3259.772	3721
3261.537	3752
3263.301	3772
3265.065	3758
3266.828	3751
3268.592	3769
3270.355	3806
3272.117	3798
3273.878	3808
3275.64	3756
3277.401	3805
3279.162	3736
3280.922	3748
3282.682	3686
3284.441	3799
3286.199	3791
3287.959	3724
3289.716	3827
3291.475	3854
3293.232	3772
3294.988	3829
3296.744	3689
3298.501	3764
3300.256	3639
3302.011	3781
3303.766	3757
3305.52	3807
3307.275	3760
3309.028	3726
3310.781	3756
3312.533	3755
3314.285	3776
3316.038	3620
3317.789	3668
3319.54	3649
3321.289	3740
3323.039	3749
3324.789	3739
3326.539	3748
3328.288	3710
3330.035	3756
3331.783	3820
3333.531	3662
3335.28	3784
3337.025	3668
3338.771	3745
3340.518	3699
3342.262	3695
3344.009	3678
3345.753	3677
3347.497	3640
3349.24	3686
3350.983	3693
3352.726	3678
3354.469	3756
3356.212	3766
3357.952	3665
3359.694	3690
3361.434	3713
3363.176	3643
3364.916	3702
3366.654	3657
3368.394	3673
3370.132	3708
3371.871	3679
3373.61	3654
3375.346	3663
3377.083	3670
3378.82	3683
3380.556	3645
3382.292	3603
3384.027	3689
3385.763	3610
3387.497	3588
3389.231	3582
3390.965	3658
3392.698	3739
3394.431	3612
3396.164	3623
3397.896	3642
3399.627	3603
3401.36	3693
3403.09	3606
3404.82	3613
3406.55	3601
3408.279	3562
3410.01	3501
3411.738	3595
3413.467	3586
3415.194	3534
3416.92	3511
3418.647	3591
3420.375	3653
3422.102	3516
3423.827	3554
3425.553	3606
3427.277	3629
3429.003	3617
3430.727	3503
3432.451	3582
3434.173	3524
3435.896	3514
3437.62	3597
3439.343	3542
3441.063	3548
3442.785	3651
3444.505	3484
3446.226	3520
3447.948	3535
3449.666	3482
3451.386	3453
3453.104	3471
3454.823	3574
3456.541	3531
3458.259	3467
3459.976	3526
3461.693	3386
3463.408	3528
3465.125	3477
3466.841	3394
3468.556	3498
3470.271	3485
3471.985	3481
3473.698	3433
3475.414	3409
3477.126	3444
3478.838	3495
3480.55	3466
3482.263	3467
3483.975	3439
3485.686	3431
3487.396	3417
3489.106	3431
3490.817	3355
3492.526	3418
3494.236	3406
3495.944	3377
3497.652	3365
3499.359	3379
3501.066	3386
3502.775	3389
3504.481	3442
3506.187	3395
3507.893	3336
3509.598	3277
3511.304	3407
3513.009	3363
3514.713	3303
3516.417	3292
3518.12	3384
3519.821	3320
3521.525	3355
3523.228	3377
3524.929	3335
3526.631	3239
3528.33	3307
3530.032	3342
3531.733	3350
3533.433	3356
3535.131	3313
3536.83	3265
3538.529	3416
3540.227	3273
3541.925	3312
3543.623	3266
3545.319	3382
3547.016	3258
3548.712	3274
3550.408	3308
3552.103	3306
3553.798	3231
3555.491	3245
3557.188	3159
3558.88	3295
3560.574	3186
3562.266	3244
3563.959	3260
3565.651	3223
3567.343	3184
3569.035	3256
3570.725	3224
3572.415	3212
3574.106	3270
3575.797	3248
3577.485	3234
3579.174	3166
3580.863	3199
3582.551	3221
3584.238	3162
3585.926	3262
3587.613	3204
3589.3	3165
3590.986	3138
3592.671	3139
3594.357	3177
3596.042	3183
3597.726	3196
3599.41	3131
3601.094	3134
3602.778	3183
3604.461	3134
3606.143	3140
3607.825	3209
3609.507	3136
3611.188	3046
3612.87	3161
3614.551	3103
3616.229	3149
3617.909	3124
3619.589	3168
3621.269	3120
3622.948	3119
3624.625	3121
3626.302	3138
3627.98	3021
3629.657	3104
3631.334	3092
3633.01	3107
3634.686	3089
3636.361	3067
3638.036	3088
3639.712	3090
3641.385	3055
3643.06	3179
3644.732	3063
3646.405	3000
3648.08	3071
3649.751	3066
3651.424	3017
3653.094	3051
3654.766	3070
3656.436	3022
3658.106	3120
3659.777	3001
3661.446	3044
3663.115	2991
3664.783	2985
3666.452	3081
3668.121	3045
3669.788	3101
3671.454	3014
3673.121	3069
3674.789	2974
3676.455	3009
3678.12	2959
3679.784	3045
3681.45	2952
3683.114	2989
3684.779	2982
3686.442	2976
3688.105	2985
3689.768	2993
3691.43	2961
3693.093	2981
3694.754	3008
3696.415	2987
3698.076	2967
3699.736	2954
3701.396	2956
3703.057	2991
3704.716	2954
3706.375	3007
3708.034	2994
3709.692	2934
3711.351	2999
3713.008	2992
3714.665	2906
3716.321	2935
3717.977	2960
3719.634	2957
3721.29	2986
3722.945	2905
3724.598	2924
3726.253	2964
3727.907	3015
3729.561	2998
3731.214	2945
3732.867	2865
3734.518	2922
3736.171	2869
3737.824	2948
3739.474	2893
3741.125	2992
3742.775	2884
3744.425	2887
3746.074	2926
3747.725	2923
3749.373	2885
3751.022	2926
3752.669	2907
3754.318	2972
3755.966	2961
3757.612	2877
3759.259	2907
3760.905	2917
3762.55	2952
3764.197	2827
3765.842	2851
3767.486	2923
3769.131	2893
3770.774	2824
3772.417	2830
3774.061	2885
3775.705	2860
3777.347	2919
3778.988	2843
3780.629	2826
3782.271	2876
3783.912	2930
3785.552	2866
3787.192	2917
3788.831	2884
3790.472	2856
3792.112	2875
3793.75	2857
3795.388	2808
3797.024	2838
3798.661	2837
3800.3	2793
3801.936	2810
3803.572	2799
3805.208	2871
3806.844	2803
3808.48	2788
3810.115	2753
3811.748	2770
3813.382	2766
3815.016	2825
3816.649	2817
3818.283	2819
3819.914	2760
3821.547	2739
3823.178	2770
3824.809	2852
3826.441	2739
3828.072	2721
3829.701	2800
3831.331	2794
3832.96	2778
3834.591	2746
3836.219	2723
3837.847	2760
3839.475	2729
3841.102	2784
3842.729	2773
3844.357	2771
3845.984	2693
3847.609	2779
3849.234	2722
3850.86	2746
3852.485	2705
3854.11	2721
3855.734	2767
3857.357	2711
3858.981	2689
3860.603	2672
3862.227	2736
3863.848	2695
3865.471	2658
3867.092	2677
3868.713	2751
3870.334	2697
3871.954	2742
3873.575	2677
3875.194	2618
3876.813	2661
3878.433	2736
3880.051	2656
3881.669	2742
3883.286	2714
3884.904	2765
3886.52	2631
3888.138	2666
3889.754	2714
3891.37	2740
3892.985	2745
3894.6	2651
3896.216	2655
3897.831	2710
3899.444	2645
3901.058	2668
3902.67	2629
3904.283	2697
3905.897	2687
3907.509	2662
3909.121	2626
3910.731	2674
3912.342	2673
3913.954	2693
3915.563	2575
3917.174	2620
3918.783	2642
3920.391	2619
3922.002	2696
3923.611	2618
3925.218	2631
3926.826	2705
3928.432	2659
3930.039	2649
3931.647	2639
3933.253	2591
3934.859	2597
3936.464	2645
3938.068	2635
3939.675	2667
3941.278	2612
3942.883	2624
3944.486	2695
3946.089	2580
3947.692	2583
3949.295	2606
3950.898	2630
3952.499	2528
3954.1	2534
3955.7	2542
3957.303	2564
3958.903	2552
3960.502	2538
3962.101	2572
3963.7	2654
3965.301	2591
3966.899	2620
3968.497	2522
3970.094	2606
3971.691	2544
3973.288	2549
3974.885	2585
3976.481	2520
3978.077	2585
3979.672	2574
3981.267	2481
3982.863	2502
3984.457	2581
3986.051	2506
3987.645	2582
3989.238	2471
3990.831	2485
3992.425	2486
3994.017	2535
3995.607	2521
3997.199	2544
3998.79	2529
4000.382	2472
4001.973	2490
4003.561	2491
4005.151	2473
4006.741	2466
4008.331	2512
4009.918	2484
4011.507	2445
4013.095	2439
4014.681	2481
4016.269	2458
4017.856	2477
4019.443	2561
4021.028	2475
4022.614	2462
4024.199	2444
4025.785	2472
4027.37	2396
4028.953	2467
4030.536	2465
4032.12	2429
4033.704	2426
4035.287	2426
4036.869	2385
4038.45	2456
4040.032	2385
4041.613	2441
4043.195	2424
4044.776	2397
4046.356	2426
4047.935	2389
4049.515	2425
4051.095	2363
4052.674	2430
4054.251	2407
4055.829	2371
4057.406	2452
4058.985	2390
4060.562	2383
4062.139	2417
4063.715	2375
4065.29	2417
4066.865	2375
4068.442	2436
4070.016	2355
4071.59	2406
4073.164	2384
4074.738	2357
4076.312	2400
4077.885	2361
4079.458	2435
4081.03	2342
4082.602	2397
4084.173	2379
4085.745	2425
4087.315	2340
4088.886	2392
4090.456	2344
4092.026	2382
4093.596	2353
4095.165	2393
4096.734	2352
4098.301	2339
4099.869	2331
4101.437	2364
4103.006	2352
4104.572	2302
4106.139	2342
4107.704	2319
4109.27	2338
4110.837	2355
4112.401	2300
4113.966	2360
4115.53	2284
4117.094	2300
4118.659	2328
4120.223	2349
4121.785	2275
4123.347	2328
4124.909	2345
4126.471	2334
4128.034	2287
4129.595	2304
4131.155	2282
4132.716	2312
4134.275	2279
4135.836	2233
4137.395	2280
4138.955	2242
4140.513	2315
4142.071	2282
4143.628	2251
4145.188	2257
4146.745	2271
4148.302	2356
4149.858	2250
4151.414	2349
4152.971	2212
4154.526	2273
4156.081	2226
4157.635	2264
4159.189	2203
4160.745	2193
4162.298	2321
4163.852	2244
4165.405	2168
4166.957	2187
4168.51	2226
4170.063	2204
4171.614	2268
4173.166	2225
4174.717	2206
4176.267	2177
4177.817	2223
4179.368	2209
4180.917	2176
4182.466	2200
4184.016	2291
4185.564	2218
4187.112	2223
4188.66	2154
4190.207	2238
4191.754	2199
4193.301	2181
4194.848	2165
4196.394	2170
4197.94	2174
4199.484	2183
4201.03	2222
4202.575	2223
4204.12	2150
4205.663	2190
4207.207	2178
4208.75	2151
4210.292	2137
4211.836	2211
4213.378	2123
4214.92	2210
4216.46	2137
4218.002	2214
4219.544	2141
4221.083	2194
4222.625	2124
4224.164	2148
4225.703	2121
4227.244	2147
4228.782	2146
4230.32	2149
4231.857	2149
4233.395	2163
4234.933	2142
4236.471	2178
4238.007	2196
4239.542	2160
4241.078	2101
4242.614	2152
4244.15	2145
4245.685	2151
4247.219	2120
4248.753	2170
4250.287	2128
4251.82	2134
4253.354	2054
4254.887	2114
4256.419	2099
4257.951	2108
4259.483	2141
4261.016	2129
4262.547	2095
4264.078	2124
4265.608	2128
4267.137	2135
4268.668	2104
4270.197	2084
4271.727	2148
4273.254	2110
4274.783	2082
4276.311	2086
4277.84	2103
4279.366	2125
4280.894	2115
4282.42	2111
4283.946	2007
4285.473	2078
4286.998	2090
4288.523	2122
4290.047	2033
4291.572	2059
4293.096	2027
4294.622	2079
4296.144	2099
4297.668	2075
4299.19	2028
4300.713	2124
4302.236	2034
4303.758	2010
4305.279	2077
4306.799	2076
4308.321	1989
4309.842	2036
4311.361	2029
4312.882	2004
4314.401	2031
