400.0961	5410
402.6185	5472
405.1424	5427
407.6635	5467
410.1838	5634
412.7035	5554
415.2225	5602
417.7388	5573
420.2585	5706
422.7754	5647
425.2917	5819
427.8072	5789
430.3221	5882
432.8363	5774
435.3498	5868
437.8626	5948
440.3727	5921
442.8841	5897
445.3969	5896
447.907	6013
450.4142	5985
452.9229	5966
455.4289	5785
457.9362	5945
460.4449	5861
462.9488	5917
465.454	5865
467.9566	5852
470.4604	5873
472.9637	5959
475.4662	5905
477.966	5961
480.4671	5934
482.9656	5990
485.4633	5997
487.9645	5881
490.4608	5823
492.9566	5978
495.4536	6077
497.948	6028
500.4437	6107
502.9387	5955
505.431	6100
507.9226	5958
510.4136	6099
512.9079	6155
515.3975	6080
517.8864	6246
520.3746	6037
522.8622	6110
525.3491	6130
527.8394	6147
530.3249	6152
532.8098	6212
535.2939	6138
537.7774	6103
540.2623	6154
542.7444	6115
545.2259	6086
547.7067	6211
550.1868	6130
552.6683	6138
555.147	6185
557.6231	6179
560.1005	6210
562.5773	6216
565.0534	6202
567.5308	6317
570.0056	6255
572.4776	6339
574.951	6215
577.4237	6349
579.8978	6252
582.3671	6344
584.8378	6261
587.3079	6403
589.7773	6355
592.244	6372
594.714	6288
597.1793	6365
599.6461	6319
602.1121	6402
604.5754	6348
607.0421	6252
609.5042	6326
611.9675	6279
614.4282	6366
616.8902	6280
619.3515	6402
621.8122	6385
624.2702	6396
626.7296	6450
629.1863	6259
631.6423	6340
634.1017	6426
636.5563	6374
639.0104	6422
641.4658	6383
643.9185	6357
646.3725	6444
648.8239	6528
651.2766	6409
653.7266	6485
656.176	6499
658.6247	6460
661.0748	6471
663.5242	6470
665.9709	6490
668.417	6452
670.8624	6367
673.3092	6548
675.7533	6501
678.1968	6355
680.6395	6645
683.0817	6597
685.5251	6429
687.9659	6663
690.4061	6515
692.8456	6690
695.2844	6642
697.7226	6629
700.1621	6696
702.599	6593
705.0332	6619
707.4688	6615
709.9036	6677
712.3399	6687
714.7735	6579
717.2044	6625
719.6367	6660
722.0683	6766
724.4993	6731
726.9296	6827
729.3593	6768
731.7883	6764
734.2147	6763
736.6423	6775
739.0714	6909
741.4958	6878
743.9216	6865
746.3447	6822
748.7691	6997
751.1929	6990
753.616	6871
756.0366	6925
758.4584	6956
760.8776	6994
763.2982	7006
765.718	6902
768.1373	7213
770.5539	7039
772.9698	7086
775.3871	7094
777.8038	6978
780.2178	7048
782.6332	7020
785.0459	7148
787.458	7043
789.8714	7086
792.2842	7114
794.6943	6957
797.1038	7124
799.5127	7008
801.9209	7107
804.3324	7098
806.7393	6979
809.1456	7070
811.5513	7134
813.9562	7141
816.3625	7184
818.7663	7074
821.1693	7197
823.5718	7102
825.9735	7075
828.3746	7089
830.7771	7221
833.177	7229
835.5762	7238
837.9747	7151
840.3727	7144
842.772	7222
845.1666	7203
847.5626	7218
849.958	7344
852.3527	7366
854.7488	7279
857.1403	7274
859.5331	7337
861.9253	7380
864.3168	7206
866.7057	7210
869.098	7300
871.4876	7276
873.8746	7191
876.263	7261
878.6487	7309
881.0378	7405
883.4243	7251
885.8081	7304
888.1933	7121
890.5759	7320
892.9598	7156
895.343	7229
897.7256	7150
900.1057	7309
902.4871	7284
904.8659	7338
907.246	7211
909.6254	7359
912.0023	7380
914.3786	7540
916.7562	7497
919.1331	7503
921.5074	7602
923.8831	7774
926.2562	7641
928.6287	7696
931.0005	7685
933.3757	7588
935.7462	7581
938.1162	7640
940.4855	7743
942.8542	7785
945.2242	7918
947.5916	7838
949.9584	7991
952.3266	8134
954.6921	8320
957.0571	8492
959.4233	8626
961.787	8860
964.15	8676
966.5125	8652
968.8742	8241
971.2354	8160
973.5959	7805
975.9559	7906
978.3151	7783
980.6738	7731
983.0338	7618
985.3912	7554
987.7461	7586
990.1022	7554
992.4578	7533
994.8127	7636
997.1689	7474
999.5207	7388
1001.874	7616
1004.226	7522
1006.576	7554
1008.929	7587
1011.28	7544
1013.628	7494
1015.977	7496
1018.324	7445
1020.674	7788
1023.019	7585
1025.366	7617
1027.713	7464
1030.056	7698
1032.399	7590
1034.746	7575
1037.087	7700
1039.431	7746
1041.771	7729
1044.113	7671
1046.454	7680
1048.793	7787
1051.133	7754
1053.471	7699
1055.807	7704
1058.146	7724
1060.483	7550
1062.818	7701
1065.153	7774
1067.489	7821
1069.822	7765
1072.156	7859
1074.488	7962
1076.82	7769
1079.15	7729
1081.48	7807
1083.814	7831
1086.143	7743
1088.471	7770
1090.799	7774
1093.126	7702
1095.452	7602
1097.78	7764
1100.105	7825
1102.43	7671
1104.754	7848
1107.077	7688
1109.4	7660
1111.722	7802
1114.044	7795
1116.365	7699
1118.685	7891
1121.005	7777
1123.324	7793
1125.643	7831
1127.961	7873
1130.278	7813
1132.595	7741
1134.911	7835
1137.226	7781
1139.541	7901
1141.854	7881
1144.167	7685
1146.482	7828
1148.793	7658
1151.105	7794
1153.414	7822
1155.725	7853
1158.033	7824
1160.344	7859
1162.651	7841
1164.959	7813
1167.265	7851
1169.572	7835
1171.878	7839
1174.184	7788
1176.488	7850
1178.79	7709
1181.094	7959
1183.396	7745
1185.699	7852
1188.001	7829
1190.301	7908
1192.6	7864
1194.9	7904
1197.2	7800
1199.497	7791
1201.794	7773
1204.09	7895
1206.387	7768
1208.684	7719
1210.978	7858
1213.272	7943
1215.565	7905
1217.858	7872
1220.15	7960
1222.443	7852
1224.734	7946
1227.024	7856
1229.313	7980
1231.602	7919
1233.892	7981
1236.18	7922
1238.467	8090
1240.754	8004
1243.04	8062
1245.325	8135
1247.612	8131
1249.896	8045
1252.178	8223
1254.461	8116
1256.743	8091
1259.027	8041
1261.308	7992
1263.587	8158
1265.867	8120
1268.146	8203
1270.425	8236
1272.703	8150
1274.981	8200
1277.256	8078
1279.532	8038
1281.808	8207
1284.083	8011
1286.358	8095
1288.63	8161
1290.904	8041
1293.175	7994
1295.449	8022
1297.719	7939
1299.99	7931
1302.259	7913
1304.529	8120
1306.798	7971
1309.065	8102
1311.333	8110
1313.599	8021
1315.866	7976
1318.131	7981
1320.396	8049
1322.66	8075
1324.925	7964
1327.187	8011
1329.448	8077
1331.711	8143
1333.974	8121
1336.234	8095
1338.493	8123
1340.752	8055
1343.01	8199
1345.269	8001
1347.526	8115
1349.784	8101
1352.04	8145
1354.295	7927
1356.552	7956
1358.806	8052
1361.059	8110
1363.312	8043
1365.564	7956
1367.818	8166
1370.069	8151
1372.318	8050
1374.568	8190
1376.817	8118
1379.066	8194
1381.316	8073
1383.564	8184
1385.809	8212
1388.056	8283
1390.301	8130
1392.549	8233
1394.793	8243
1397.036	8229
1399.279	8367
1401.522	8340
1403.763	8358
1406.007	8362
1408.248	8329
1410.487	8250
1412.727	8347
1414.965	8293
1417.205	8343
1419.442	8344
1421.68	8238
1423.915	8326
1426.152	8238
1428.388	8341
1430.623	8216
1432.857	8454
1435.091	8279
1437.323	8339
1439.556	8444
1441.789	8482
1444.019	8511
1446.25	8439
1448.48	8396
1450.708	8341
1452.938	8557
1455.167	8343
1457.394	8586
1459.62	8402
1461.846	8543
1464.073	8440
1466.299	8410
1468.523	8305
1470.746	8416
1472.969	8358
1475.191	8183
1477.415	8329
1479.636	8313
1481.858	8137
1484.078	8205
1486.298	8156
1488.518	8200
1490.736	8083
1492.954	8069
1495.169	8213
1497.386	8128
1499.602	8079
1501.819	8107
1504.034	8092
1506.248	8157
1508.462	8016
1510.675	7988
1512.888	8009
1515.1	8047
1517.311	8192
1519.522	7974
1521.732	8064
1523.942	8201
1526.151	8201
1528.36	8031
1530.566	8146
1532.773	8116
1534.98	8219
1537.187	8129
1539.392	8229
1541.596	8235
1543.801	8164
1546.005	8128
1548.208	8043
1550.411	8213
1552.612	8216
1554.814	8164
1557.013	8247
1559.212	8099
1561.414	8241
1563.612	8079
1565.811	8268
1568.007	8412
1570.203	8362
1572.403	8331
1574.598	8258
1576.792	8347
1578.988	8324
1581.181	8317
1583.376	8256
1585.568	8408
1587.761	8429
1589.952	8298
1592.143	8328
1594.333	8363
1596.524	8365
1598.715	8402
1600.903	8440
1603.091	8408
1605.278	8261
1607.466	8345
1609.652	8501
1611.838	8394
1614.023	8417
1616.207	8372
1618.391	8405
1620.576	8485
1622.759	8445
1624.941	8434
1627.123	8340
1629.304	8491
1631.484	8533
1633.664	8506
1635.844	8480
1638.022	8534
1640.201	8466
1642.38	8425
1644.556	8512
1646.732	8490
1648.908	8387
1651.084	8488
1653.257	8477
1655.433	8513
1657.607	8401
1659.779	8551
1661.951	8540
1664.122	8513
1666.295	8586
1668.467	8432
1670.635	8605
1672.805	8511
1674.973	8473
1677.142	8636
1679.31	8424
1681.478	8388
1683.644	8427
1685.81	8441
1687.975	8386
1690.142	8503
1692.305	8402
1694.468	8557
1696.632	8372
1698.794	8546
1700.957	8318
1703.119	8563
1705.279	8544
1707.439	8439
1709.598	8302
1711.758	8378
1713.917	8252
1716.075	8495
1718.231	8206
1720.388	8300
1722.543	8319
1724.702	8270
1726.856	8336
1729.01	8487
1731.164	8281
1733.317	8299
1735.471	8321
1737.623	8392
1739.774	8379
1741.925	8468
1744.075	8440
1746.225	8248
1748.376	8362
1750.524	8453
1752.672	8320
1754.82	8320
1756.965	8377
1759.113	8450
1761.259	8449
1763.405	8319
1765.549	8358
1767.694	8350
1769.836	8419
1771.981	8510
1774.123	8276
1776.264	8436
1778.405	8444
1780.546	8561
1782.687	8370
1784.827	8358
1786.966	8475
1789.103	8429
1791.242	8578
1793.381	8356
1795.517	8415
1797.653	8207
1799.788	8438
1801.923	8415
1804.057	8539
1806.193	8387
1808.326	8521
1810.457	8427
1812.59	8362
1814.721	8417
1816.855	8302
1818.984	8490
1821.113	8378
1823.244	8361
1825.372	8440
1827.499	8346
1829.63	8404
1831.756	8200
1833.882	8438
1836.007	8458
1838.132	8427
1840.26	8368
1842.384	8309
1844.507	8381
1846.63	8310
1848.752	8230
1850.875	8423
1852.996	8354
1855.118	8368
1857.238	8293
1859.358	8240
1861.477	8351
1863.597	8552
1865.715	8267
1867.832	8351
1869.948	8274
1872.064	8360
1874.181	8240
1876.297	8279
1878.411	8286
1880.526	8333
1882.639	8350
1884.752	8361
1886.865	8309
1888.977	8315
1891.089	8305
1893.2	8320
1895.308	8391
1897.42	8417
1899.53	8433
1901.639	8438
1903.745	8383
1905.853	8434
1907.962	8439
1910.067	8482
1912.174	8468
1914.278	8484
1916.383	8403
1918.486	8482
1920.592	8469
1922.694	8497
1924.797	8454
1926.898	8493
1929	8438
1931.102	8421
1933.203	8449
1935.301	8417
1937.401	8633
1939.499	8462
1941.598	8505
1943.697	8431
1945.793	8484
1947.888	8540
1949.985	8479
1952.08	8337
1954.176	8421
1956.269	8431
1958.364	8295
1960.457	8273
1962.549	8406
1964.642	8384
1966.733	8513
1968.823	8451
1970.913	8424
1973.005	8368
1975.093	8399
1977.184	8327
1979.271	8528
1981.359	8508
1983.446	8301
1985.532	8450
1987.619	8406
1989.705	8500
1991.789	8435
1993.874	8320
1995.956	8290
1998.041	8427
2000.123	8322
2002.206	8324
2004.287	8332
2006.368	8302
2008.449	8353
2010.529	8381
2012.609	8330
2014.688	8378
2016.766	8273
2018.843	8283
2020.922	8322
2022.999	8359
2025.074	8421
2027.15	8437
2029.225	8324
2031.299	8409
2033.375	8340
2035.447	8299
2037.52	8307
2039.592	8405
2041.664	8261
2043.736	8280
2045.807	8326
2047.876	8240
2049.947	8370
2052.015	8386
2054.086	8354
2056.153	8357
2058.221	8379
2060.288	8471
2062.353	8209
2064.42	8346
2066.486	8196
2068.55	8318
2070.614	8278
2072.678	8343
2074.741	8306
2076.805	8430
2078.866	8410
2080.929	8366
2082.99	8456
2085.049	8420
2087.109	8320
2089.17	8379
2091.228	8247
2093.286	8327
2095.344	8451
2097.4	8411
2099.46	8391
2101.516	8274
2103.572	8214
2105.626	8217
2107.679	8397
2109.735	8269
2111.788	8392
2113.841	8375
2115.894	8316
2117.945	8349
2119.997	8329
2122.049	8267
2124.1	8307
2126.148	8302
2128.197	8263
2130.246	8197
2132.296	8294
2134.342	8168
2136.39	8273
2138.437	8278
2140.483	8362
2142.527	8299
2144.574	8317
2146.619	8203
2148.661	8465
2150.705	8217
2152.747	8262
2154.792	8206
2156.832	8272
2158.874	8219
2160.915	8269
2162.954	8268
2164.995	8222
2167.034	8216
2169.072	8240
2171.111	8255
2173.148	8171
2175.186	8151
2177.223	8223
2179.258	8128
2181.294	8136
2183.328	8168
2185.362	8349
2187.398	7979
2189.431	8094
2191.463	8111
2193.495	8099
2195.528	8180
2197.56	8091
2199.59	8141
2201.62	8180
2203.649	8130
2205.678	8053
2207.708	8081
2209.737	8140
2211.764	8170
2213.791	8045
2215.817	8076
2217.843	8036
2219.87	8043
2221.895	7994
2223.919	8136
2225.942	8153
2227.966	8120
2229.988	8081
2232.012	8021
2234.032	8023
2236.054	8086
2238.074	8080
2240.095	8135
2242.116	7988
2244.135	8095
2246.153	7979
2248.171	7998
2250.188	8001
2252.208	7910
2254.223	8117
2256.239	8108
2258.255	7996
2260.269	8033
2262.283	7990
2264.3	7987
2266.312	8056
2268.325	7998
2270.336	7893
2272.349	8018
2274.362	7942
2276.372	8117
2278.383	7954
2280.392	8042
2282.402	8212
2284.409	8147
2286.418	8086
2288.427	8079
2290.433	7966
2292.441	8106
2294.446	8147
2296.453	7989
2298.459	8088
2300.463	8099
2302.466	8070
2304.471	7954
2306.475	8004
2308.477	7933
2310.478	7876
2312.481	7959
2314.481	7955
2316.481	7995
2318.482	7920
2320.482	7999
2322.48	7965
2324.48	7978
2326.478	7875
2328.476	7978
2330.473	7985
2332.469	7938
2334.465	7988
2336.46	7916
2338.454	8044
2340.45	7912
2342.444	7827
2344.437	7859
2346.43	7881
2348.421	7876
2350.414	7756
2352.405	7924
2354.396	7922
2356.386	7918
2358.376	7812
2360.366	7789
2362.355	7831
2364.343	7729
2366.331	7860
2368.317	7849
2370.304	7735
2372.292	7879
2374.278	7718
2376.262	7888
2378.247	7803
2380.23	7774
2382.216	7848
2384.199	7768
2386.181	7853
2388.163	7692
2390.144	7760
2392.127	7839
2394.107	7698
2396.087	7774
2398.066	7779
2400.046	7677
2402.023	7710
2404.004	7731
2405.981	7760
2407.957	7687
2409.934	7645
2411.91	7639
2413.886	7808
2415.862	7769
2417.836	7739
2419.809	7778
2421.784	7855
2423.756	7791
2425.73	7699
2427.701	7691
2429.672	7670
2431.644	7757
2433.615	7614
2435.586	7588
2437.555	7730
2439.523	7667
2441.491	7763
2443.459	7675
2445.428	7659
2447.395	7615
2449.361	7735
2451.327	7699
2453.292	7659
2455.257	7618
2457.223	7720
2459.187	7686
2461.15	7680
2463.113	7736
2465.076	7641
2467.039	7663
2468.999	7559
2470.96	7441
2472.921	7747
2474.881	7716
2476.841	7662
2478.8	7590
2480.759	7634
2482.717	7659
2484.675	7605
2486.63	7513
2488.589	7608
2490.545	7631
2492.5	7505
2494.455	7591
2496.408	7536
2498.364	7588
2500.318	7607
2502.27	7509
2504.223	7426
2506.174	7472
2508.126	7518
2510.078	7555
2512.03	7560
2513.979	7611
2515.927	7470
2517.877	7627
2519.826	7518
2521.775	7499
2523.722	7514
2525.668	7509
2527.616	7399
2529.561	7446
2531.508	7542
2533.452	7538
2535.398	7460
2537.342	7376
2539.284	7385
2541.229	7527
2543.173	7535
2545.114	7482
2547.055	7491
2548.996	7454
2550.938	7528
2552.878	7489
2554.817	7537
2556.756	7521
2558.695	7473
2560.633	7459
2562.572	7480
2564.509	7485
2566.445	7489
2568.382	7473
2570.317	7461
2572.254	7379
2574.189	7511
2576.123	7583
2578.057	7480
2579.99	7514
2581.923	7517
2583.855	7383
2585.788	7613
2587.719	7541
2589.65	7450
2591.579	7403
2593.511	7519
2595.44	7512
2597.37	7462
2599.297	7528
2601.225	7480
2603.153	7390
2605.08	7508
2607.007	7657
2608.932	7362
2610.858	7510
2612.782	7447
2614.709	7499
2616.632	7553
2618.556	7473
2620.478	7432
2622.401	7381
2624.324	7552
2626.247	7596
2628.167	7443
2630.088	7397
2632.008	7526
2633.928	7470
2635.848	7472
2637.766	7640
2639.684	7532
2641.603	7446
2643.519	7443
2645.437	7523
2647.353	7444
2649.27	7495
2651.184	7468
2653.099	7380
2655.014	7567
2656.928	7488
2658.842	7467
2660.755	7423
2662.667	7500
2664.579	7409
2666.491	7603
2668.402	7363
2670.312	7480
2672.222	7361
2674.132	7423
2676.042	7492
2677.951	7352
2679.859	7330
2681.766	7431
2683.674	7401
2685.582	7413
2687.488	7321
2689.392	7394
2691.298	7345
2693.202	7400
2695.107	7317
2697.012	7455
2698.914	7413
2700.817	7134
2702.72	7346
2704.622	7362
2706.524	7480
2708.425	7401
2710.326	7280
2712.225	7329
2714.125	7252
2716.024	7304
2717.923	7182
2719.822	7363
2721.719	7193
2723.616	7242
2725.512	7308
2727.41	7225
2729.305	7344
2731.201	7445
2733.095	7321
2734.99	7330
2736.884	7296
2738.778	7352
2740.67	7277
2742.562	7231
2744.455	7326
2746.346	7306
2748.238	7249
2750.129	7350
2752.018	7309
2753.907	7179
2755.797	7223
2757.687	7305
2759.575	7253
2761.462	7253
2763.349	7319
2765.237	7201
2767.124	7197
2769.009	7339
2770.894	7248
2772.779	7294
2774.663	7316
2776.547	7252
2778.431	7285
2780.314	7170
2782.197	7134
2784.078	7272
2785.96	7206
2787.842	7308
2789.723	7166
2791.603	7271
2793.483	7104
2795.362	7194
2797.241	7285
2799.121	7223
2800.997	7217
2802.874	7213
2804.751	7155
2806.628	7277
2808.506	7272
2810.38	7166
2812.255	7196
2814.13	7295
2816.003	7115
2817.878	7185
2819.752	7159
2821.623	7185
2823.496	7243
2825.368	7129
2827.238	7087
2829.111	7163
2830.98	7157
2832.851	7068
2834.719	7196
2836.589	7148
2838.458	7276
2840.327	7278
2842.193	7099
2844.061	7248
2845.927	7135
2847.794	7161
2849.66	7248
2851.525	7219
2853.39	7155
2855.254	7103
2857.117	7275
2858.983	7301
2860.845	7139
2862.707	7242
2864.569	7382
2866.431	7303
2868.293	7345
2870.154	7294
2872.013	7353
2873.873	7380
2875.733	7545
2877.592	7529
2879.451	7561
2881.309	7579
2883.166	7710
2885.022	7742
2886.879	7711
2888.736	7568
2890.591	7732
2892.446	7702
2894.301	7748
2896.155	7843
2898.009	7671
2899.863	7682
2901.716	7596
2903.568	7744
2905.419	7754
2907.27	7732
2909.123	7742
2910.973	7523
2912.824	7734
2914.673	7652
2916.521	7622
2918.372	7807
2920.22	7776
2922.067	7890
2923.914	7983
2925.761	7937
2927.607	8011
2929.455	8073
2931.301	8130
2933.144	8151
2934.99	8166
2936.833	8216
2938.678	8234
2940.522	8230
2942.364	8472
2944.207	8413
2946.048	8486
2947.891	8587
2949.731	8477
2951.571	8437
2953.412	8477
2955.25	8341
2957.09	8218
2958.93	8244
2960.767	8348
2962.606	8157
2964.443	8115
2966.279	8189
2968.116	7865
2969.953	7872
2971.788	7858
2973.623	7713
2975.457	7855
2977.292	7709
2979.127	7651
2980.959	7591
2982.792	7602
2984.624	7533
2986.455	7566
2988.288	7557
2990.119	7396
2991.949	7417
2993.779	7403
2995.608	7553
2997.439	7409
2999.268	7306
3001.096	7153
3002.923	7245
3004.751	7137
3006.578	7252
3008.406	7192
3010.232	7044
3012.057	6934
3013.883	6975
3015.706	6955
3017.532	7016
3019.356	6879
3021.179	6954
3023.002	6862
3024.823	6775
3026.646	6811
3028.469	6748
3030.289	6685
3032.11	6699
3033.93	6730
3035.749	6776
3037.57	6690
3039.39	6669
3041.207	6654
3043.026	6828
3044.842	6752
3046.661	6720
3048.477	6697
3050.294	6670
3052.109	6671
3053.925	6772
3055.739	6642
3057.555	6716
3059.368	6586
3061.181	6739
3062.995	6726
3064.807	6721
3066.62	6640
3068.433	6731
3070.243	6629
3072.054	6674
3073.865	6656
3075.675	6593
3077.485	6587
3079.293	6582
3081.102	6623
3082.911	6600
3084.719	6492
3086.527	6586
3088.333	6592
3090.139	6600
3091.945	6451
3093.75	6585
3095.557	6490
3097.361	6507
3099.165	6561
3100.969	6454
3102.772	6456
3104.575	6553
3106.379	6423
3108.181	6464
3109.982	6498
3111.783	6426
3113.584	6453
3115.386	6434
3117.186	6411
3118.985	6435
3120.783	6436
3122.582	6367
3124.381	6393
3126.179	6424
3127.975	6366
3129.772	6356
3131.569	6381
3133.365	6410
3135.161	6406
3136.956	6273
3138.751	6341
3140.544	6295
3142.338	6408
3144.132	6249
3145.925	6338
3147.717	6250
3149.509	6353
3151.301	6190
3153.091	6228
3154.884	6262
3156.673	6298
3158.462	6347
3160.252	6380
3162.041	6218
3163.831	6277
3165.618	6184
3167.405	6280
3169.193	6268
3170.979	6235
3172.767	6285
3174.553	6201
3176.338	6221
3178.123	6181
3179.907	6216
3181.692	6144
3183.477	6193
3185.259	6231
3187.042	6122
3188.824	6164
3190.607	6166
3192.389	6189
3194.17	6188
3195.951	6138
3197.73	6144
3199.51	6201
3201.289	6108
3203.07	6148
3204.848	6182
3206.626	6223
3208.403	6242
3210.18	6139
3211.959	6141
3213.735	6118
3215.511	6188
3217.285	6236
3219.06	6222
3220.836	6059
3222.611	6253
3224.384	6159
3226.158	6212
3227.929	6115
3229.702	6142
3231.476	6267
3233.248	6026
3235.018	6155
3236.789	6047
3238.56	6111
3240.33	6108
3242.1	6071
3243.869	6200
3245.637	6038
3247.405	6130
3249.172	6030
3250.941	6120
3252.707	6078
3254.474	6063
3256.24	6090
3258.006	6044
3259.772	6148
3261.537	6064
3263.301	6071
3265.065	6089
3266.828	6098
3268.592	6110
3270.355	6041
3272.117	6201
3273.878	6053
3275.64	6101
3277.401	6212
3279.162	6082
3280.922	6082
3282.682	5971
3284.441	6170
3286.199	6075
3287.959	6063
3289.716	6134
3291.475	6105
3293.232	6122
3294.988	6075
3296.744	6071
3298.501	6116
3300.256	6005
3302.011	6113
3303.766	6012
3305.52	6038
3307.275	6132
3309.028	5996
3310.781	6135
3312.533	6071
3314.285	6210
3316.038	6021
3317.789	5988
3319.54	6084
3321.289	5984
3323.039	6007
3324.789	6046
3326.539	5996
3328.288	6052
3330.035	6043
3331.783	5992
3333.531	6145
3335.28	6146
3337.025	6046
3338.771	6025
3340.518	6044
3342.262	6050
3344.009	5914
3345.753	5995
3347.497	5971
3349.24	5964
3350.983	5994
3352.726	5957
3354.469	5897
3356.212	5926
3357.952	5892
3359.694	5921
3361.434	5856
3363.176	5950
3364.916	5967
3366.654	5846
3368.394	5927
3370.132	5915
3371.871	5811
3373.61	6019
3375.346	5811
3377.083	5863
3378.82	5750
3380.556	5898
3382.292	5981
3384.027	5905
3385.763	5778
3387.497	5775
3389.231	5901
3390.965	5791
3392.698	5785
3394.431	5668
3396.164	5898
3397.896	5658
3399.627	5830
3401.36	5842
3403.09	5818
3404.82	5678
3406.55	5708
3408.279	5679
3410.01	5864
3411.738	5792
3413.467	5700
3415.194	5645
3416.92	5625
3418.647	5599
3420.375	5664
3422.102	5712
3423.827	5714
3425.553	5682
3427.277	5672
3429.003	5668
3430.727	5676
3432.451	5697
3434.173	5626
3435.896	5711
3437.62	5674
3439.343	5659
3441.063	5647
3442.785	5601
3444.505	5591
3446.226	5698
3447.948	5634
3449.666	5609
3451.386	5584
3453.104	5518
3454.823	5573
3456.541	5552
3458.259	5508
3459.976	5497
3461.693	5525
3463.408	5532
3465.125	5489
3466.841	5450
3468.556	5486
3470.271	5454
3471.985	5447
3473.698	5473
3475.414	5488
3477.126	5477
3478.838	5454
3480.55	5463
3482.263	5462
3483.975	5445
3485.686	5424
3487.396	5447
3489.106	5462
3490.817	5399
3492.526	5454
3494.236	5425
3495.944	5436
3497.652	5393
3499.359	5410
3501.066	5397
3502.775	5419
3504.481	5321
3506.187	5405
3507.893	5321
3509.598	5409
3511.304	5391
3513.009	5262
3514.713	5405
3516.417	5401
3518.12	5296
3519.821	5437
3521.525	5292
3523.228	5285
3524.929	5402
3526.631	5265
3528.33	5300
3530.032	5370
3531.733	5351
3533.433	5260
3535.131	5290
3536.83	5256
3538.529	5196
3540.227	5192
3541.925	5115
3543.623	5231
3545.319	5190
3547.016	5189
3548.712	5180
3550.408	5207
3552.103	5188
3553.798	5138
3555.491	5240
3557.188	5100
3558.88	5223
3560.574	5139
3562.266	5130
3563.959	5219
3565.651	5127
3567.343	5151
3569.035	5210
3570.725	5230
3572.415	5111
3574.106	5124
3575.797	5089
3577.485	5213
3579.174	5160
3580.863	5101
3582.551	5167
3584.238	5125
3585.926	5073
3587.613	5077
3589.3	5017
3590.986	5128
3592.671	5030
3594.357	5001
3596.042	5044
3597.726	5069
3599.41	5079
3601.094	4967
3602.778	4979
3604.461	4978
3606.143	5008
3607.825	5070
3609.507	5045
3611.188	5020
3612.87	4962
3614.551	5058
3616.229	4990
3617.909	4832
3619.589	4963
3621.269	5025
3622.948	4855
3624.625	4854
3626.302	4948
3627.98	4820
3629.657	4914
3631.334	4910
3633.01	4939
3634.686	4950
3636.361	4858
3638.036	4949
3639.712	4827
3641.385	4882
3643.06	4760
3644.732	4816
3646.405	4859
3648.08	4808
3649.751	4857
3651.424	4825
3653.094	4806
3654.766	4921
3656.436	4755
3658.106	4812
3659.777	4794
3661.446	4817
3663.115	4730
3664.783	4786
3666.452	4782
3668.121	4745
3669.788	4752
3671.454	4729
3673.121	4717
3674.789	4721
3676.455	4773
3678.12	4758
3679.784	4796
3681.45	4719
3683.114	4654
3684.779	4742
3686.442	4717
3688.105	4794
3689.768	4663
3691.43	4718
3693.093	4682
3694.754	4666
3696.415	4632
3698.076	4668
3699.736	4667
3701.396	4726
3703.057	4685
3704.716	4622
3706.375	4635
3708.034	4572
3709.692	4710
3711.351	4598
3713.008	4667
3714.665	4651
3716.321	4682
3717.977	4682
3719.634	4732
3721.29	4474
3722.945	4613
3724.598	4630
3726.253	4600
3727.907	4749
3729.561	4606
3731.214	4667
3732.867	4626
3734.518	4506
3736.171	4610
3737.824	4492
3739.474	4584
3741.125	4531
3742.775	4479
3744.425	4580
3746.074	4609
3747.725	4504
3749.373	4568
3751.022	4537
3752.669	4500
3754.318	4534
3755.966	4535
3757.612	4500
3759.259	4512
3760.905	4610
3762.55	4451
3764.197	4433
3765.842	4448
3767.486	4541
3769.131	4406
3770.774	4494
3772.417	4450
3774.061	4527
3775.705	4396
3777.347	4427
3778.988	4453
3780.629	4549
3782.271	4516
3783.912	4414
3785.552	4535
3787.192	4502
3788.831	4405
3790.472	4366
3792.112	4471
3793.75	4464
3795.388	4412
3797.024	4310
3798.661	4475
3800.3	4376
3801.936	4380
3803.572	4423
3805.208	4343
3806.844	4447
3808.48	4428
3810.115	4331
3811.748	4432
3813.382	4321
3815.016	4396
3816.649	4418
3818.283	4341
3819.914	4330
3821.547	4376
3823.178	4360
3824.809	4369
3826.441	4271
3828.072	4299
3829.701	4342
3831.331	4343
3832.96	4360
3834.591	4289
3836.219	4449
3837.847	4320
3839.475	4314
3841.102	4328
3842.729	4281
3844.357	4242
3845.984	4351
3847.609	4329
3849.234	4315
3850.86	4261
3852.485	4212
3854.11	4235
3855.734	4307
3857.357	4206
3858.981	4265
3860.603	4257
3862.227	4159
3863.848	4221
3865.471	4241
3867.092	4173
3868.713	4192
3870.334	4151
3871.954	4194
3873.575	4256
3875.194	4264
3876.813	4257
3878.433	4139
3880.051	4252
3881.669	4149
3883.286	4239
3884.904	4189
3886.52	4145
3888.138	4219
3889.754	4206
3891.37	4161
3892.985	4105
3894.6	4104
3896.216	4132
3897.831	4076
3899.444	4105
3901.058	4137
3902.67	4072
3904.283	4133
3905.897	4185
3907.509	4047
3909.121	4169
3910.731	4069
3912.342	4097
3913.954	4145
3915.563	4109
3917.174	4119
3918.783	4071
3920.391	4136
3922.002	4098
3923.611	4125
3925.218	4120
3926.826	4120
3928.432	4132
3930.039	4127
3931.647	4124
3933.253	4089
3934.859	4064
3936.464	4133
3938.068	4115
3939.675	4095
3941.278	4023
3942.883	4113
3944.486	4155
3946.089	3974
3947.692	4056
3949.295	4020
3950.898	4046
3952.499	4064
3954.1	4063
3955.7	4028
3957.303	4083
3958.903	3993
3960.502	4036
3962.101	4041
3963.7	3987
3965.301	4044
3966.899	4001
3968.497	3922
3970.094	3972
3971.691	4008
3973.288	3965
3974.885	4040
3976.481	4021
3978.077	3842
3979.672	4003
3981.267	3965
3982.863	3951
3984.457	3899
3986.051	3947
3987.645	3927
3989.238	3882
3990.831	3965
3992.425	3890
3994.017	3838
3995.607	4002
3997.199	3836
3998.79	3804
4000.382	3840
4001.973	3887
4003.561	3846
4005.151	3832
4006.741	3847
4008.331	3837
4009.918	3868
4011.507	3845
4013.095	3896
4014.681	3880
4016.269	3824
4017.856	3770
4019.443	3872
4021.028	3887
4022.614	3805
4024.199	3863
4025.785	3724
4027.37	3823
4028.953	3767
4030.536	3806
4032.12	3697
4033.704	3726
4035.287	3723
4036.869	3699
4038.45	3743
4040.032	3718
4041.613	3764
4043.195	3796
4044.776	3724
4046.356	3745
4047.935	3765
4049.515	3748
4051.095	3727
4052.674	3747
4054.251	3766
4055.829	3734
4057.406	3632
4058.985	3767
4060.562	3689
4062.139	3705
4063.715	3718
4065.29	3728
4066.865	3735
4068.442	3693
4070.016	3762
4071.59	3724
4073.164	3668
4074.738	3696
4076.312	3713
4077.885	3666
4079.458	3701
4081.03	3696
4082.602	3673
4084.173	3679
4085.745	3670
4087.315	3621
4088.886	3641
4090.456	3568
4092.026	3611
4093.596	3633
4095.165	3703
4096.734	3646
4098.301	3562
4099.869	3683
4101.437	3640
4103.006	3610
4104.572	3567
4106.139	3645
4107.704	3608
4109.27	3610
4110.837	3621
4112.401	3537
4113.966	3544
4115.53	3616
4117.094	3553
4118.659	3566
4120.223	3612
4121.785	3586
4123.347	3582
4124.909	3520
4126.471	3579
4128.034	3464
4129.595	3551
4131.155	3494
4132.716	3551
4134.275	3460
4135.836	3449
4137.395	3568
4138.955	3554
4140.513	3580
4142.071	3544
4143.628	3457
4145.188	3483
4146.745	3427
4148.302	3505
4149.858	3433
4151.414	3453
4152.971	3443
4154.526	3510
4156.081	3487
4157.635	3492
4159.189	3443
4160.745	3458
4162.298	3429
4163.852	3482
4165.405	3408
4166.957	3482
4168.51	3451
4170.063	3429
4171.614	3400
4173.166	3476
4174.717	3400
4176.267	3435
4177.817	3402
4179.368	3451
4180.917	3458
4182.466	3409
4184.016	3410
4185.564	3352
4187.112	3432
4188.66	3399
4190.207	3397
4191.754	3331
4193.301	3390
4194.848	3384
4196.394	3292
4197.94	3352
4199.484	3395
4201.03	3321
4202.575	3368
4204.12	3360
4205.663	3351
4207.207	3330
4208.75	3311
4210.292	3293
4211.836	3384
4213.378	3347
4214.92	3361
4216.46	3385
4218.002	3321
4219.544	3286
4221.083	3257
4222.625	3257
4224.164	3337
4225.703	3320
4227.244	3330
4228.782	3312
4230.32	3288
4231.857	3231
4233.395	3225
4234.933	3309
4236.471	3261
4238.007	3254
4239.542	3266
4241.078	3268
4242.614	3258
4244.15	3296
4245.685	3301
4247.219	3253
4248.753	3359
4250.287	3215
4251.82	3273
4253.354	3188
4254.887	3231
4256.419	3250
4257.951	3277
4259.483	3328
4261.016	3195
4262.547	3302
4264.078	3278
4265.608	3271
4267.137	3188
4268.668	3219
4270.197	3238
4271.727	3253
4273.254	3234
4274.783	3220
4276.311	3175
4277.84	3198
4279.366	3193
4280.894	3185
4282.42	3184
4283.946	3149
4285.473	3152
4286.998	3150
4288.523	3183
4290.047	3153
4291.572	3244
4293.096	3084
4294.622	3165
4296.144	3226
4297.668	3171
4299.19	3203
4300.713	3200
4302.236	3155
4303.758	3237
4305.279	3106
4306.799	3140
4308.321	3097
4309.842	3204
4311.361	3143
4312.882	3177
4314.401	3108
