400.0961	2735
402.6185	2698
405.1424	2730
407.6635	2712
410.1838	2823
412.7035	2774
415.2225	2778
417.7388	2824
420.2585	2807
422.7754	2898
425.2917	2938
427.8072	2947
430.3221	2915
432.8363	2917
435.3498	2916
437.8626	2932
440.3727	2908
442.8841	2972
445.3969	2980
447.907	2945
450.4142	2937
452.9229	2964
455.4289	2887
457.9362	2926
460.4449	2823
462.9488	2811
465.454	2962
467.9566	2810
470.4604	2837
472.9637	2822
475.4662	2861
477.966	2838
480.4671	2939
482.9656	2933
485.4633	2883
487.9645	2822
490.4608	2917
492.9566	2867
495.4536	2917
497.948	2923
500.4437	2892
502.9387	2921
505.431	2981
507.9226	2914
510.4136	2882
512.9079	2913
515.3975	2980
517.8864	2866
520.3746	2894
522.8622	2930
525.3491	3014
527.8394	2933
530.3249	2977
532.8098	2961
535.2939	2914
537.7774	2874
540.2623	2966
542.7444	2919
545.2259	2915
547.7067	2966
550.1868	2996
552.6683	2931
555.147	3004
557.6231	3053
560.1005	2990
562.5773	3013
565.0534	2949
567.5308	3022
570.0056	3055
572.4776	3056
574.951	3039
577.4237	3090
579.8978	3162
582.3671	3075
584.8378	3136
587.3079	3136
589.7773	3122
592.244	3042
594.714	3094
597.1793	3101
599.6461	3008
602.1121	3050
604.5754	3146
607.0421	3141
609.5042	3049
611.9675	3041
614.4282	3104
616.8902	3110
619.3515	3145
621.8122	3046
624.2702	2980
626.7296	2970
629.1863	3034
631.6423	3006
634.1017	2964
636.5563	3003
639.0104	3037
641.4658	3107
643.9185	3038
646.3725	2982
648.8239	3095
651.2766	3013
653.7266	2994
656.176	3057
658.6247	3003
661.0748	3069
663.5242	3040
665.9709	3079
668.417	3077
670.8624	3081
673.3092	3194
675.7533	3085
678.1968	3076
680.6395	3057
683.0817	3163
685.5251	3119
687.9659	3149
690.4061	3127
692.8456	3119
695.2844	3121
697.7226	3158
700.1621	3143
702.599	3156
705.0332	3207
707.4688	3171
709.9036	3096
712.3399	3185
714.7735	3243
717.2044	3179
719.6367	3254
722.0683	3144
724.4993	3180
726.9296	3258
729.3593	3235
731.7883	3349
734.2147	3293
736.6423	3257
739.0714	3299
741.4958	3289
743.9216	3183
746.3447	3240
748.7691	3308
751.1929	3266
753.616	3277
756.0366	3278
758.4584	3262
760.8776	3244
763.2982	3330
765.718	3322
768.1373	3342
770.5539	3361
772.9698	3422
775.3871	3369
777.8038	3375
780.2178	3308
782.6332	3364
785.0459	3345
787.458	3307
789.8714	3415
792.2842	3383
794.6943	3343
797.1038	3351
799.5127	3351
801.9209	3323
804.3324	3329
806.7393	3373
809.1456	3371
811.5513	3410
813.9562	3409
816.3625	3372
818.7663	3347
821.1693	3387
823.5718	3396
825.9735	3385
828.3746	3401
830.7771	3350
833.177	3398
835.5762	3350
837.9747	3381
840.3727	3423
842.772	3437
845.1666	3478
847.5626	3514
849.958	3556
852.3527	3424
854.7488	3547
857.1403	3485
859.5331	3514
861.9253	3503
864.3168	3539
866.7057	3442
869.098	3501
871.4876	3459
873.8746	3510
876.263	3466
878.6487	3530
881.0378	3504
883.4243	3461
885.8081	3500
888.1933	3518
890.5759	3458
892.9598	3582
895.343	3468
897.7256	3496
900.1057	3462
902.4871	3429
904.8659	3479
907.246	3486
909.6254	3588
912.0023	3602
914.3786	3539
916.7562	3600
919.1331	3620
921.5074	3591
923.8831	3693
926.2562	3734
928.6287	3759
931.0005	3717
933.3757	3704
935.7462	3730
938.1162	3776
940.4855	3784
942.8542	3838
945.2242	3984
947.5916	4059
949.9584	4122
952.3266	4345
954.6921	4542
957.0571	4726
959.4233	4918
961.787	4971
964.15	5084
966.5125	4772
968.8742	4503
971.2354	4279
973.5959	4114
975.9559	3977
978.3151	3744
980.6738	3766
983.0338	3716
985.3912	3590
987.7461	3664
990.1022	3614
992.4578	3651
994.8127	3693
997.1689	3583
999.5207	3616
1001.874	3710
1004.226	3686
1006.576	3718
1008.929	3668
1011.28	3707
1013.628	3617
1015.977	3656
1018.324	3689
1020.674	3692
1023.019	3650
1025.366	3752
1027.713	3776
1030.056	3751
1032.399	3682
1034.746	3803
1037.087	3729
1039.431	3767
1041.771	3700
1044.113	3678
1046.454	3694
1048.793	3740
1051.133	3734
1053.471	3653
1055.807	3630
1058.146	3737
1060.483	3765
1062.818	3731
1065.153	3835
1067.489	3746
1069.822	3845
1072.156	3925
1074.488	3863
1076.82	3790
1079.15	3865
1081.48	3809
1083.814	3782
1086.143	3756
1088.471	3733
1090.799	3630
1093.126	3715
1095.452	3678
1097.78	3687
1100.105	3722
1102.43	3769
1104.754	3714
1107.077	3830
1109.4	3699
1111.722	3686
1114.044	3735
1116.365	3714
1118.685	3673
1121.005	3732
1123.324	3693
1125.643	3703
1127.961	3730
1130.278	3722
1132.595	3781
1134.911	3743
1137.226	3662
1139.541	3749
1141.854	3738
1144.167	3748
1146.482	3758
1148.793	3720
1151.105	3698
1153.414	3727
1155.725	3686
1158.033	3680
1160.344	3701
1162.651	3705
1164.959	3731
1167.265	3705
1169.572	3736
1171.878	3687
1174.184	3743
1176.488	3692
1178.79	3666
1181.094	3759
1183.396	3700
1185.699	3690
1188.001	3738
1190.301	3700
1192.6	3634
1194.9	3695
1197.2	3736
1199.497	3646
1201.794	3655
1204.09	3687
1206.387	3829
1208.684	3779
1210.978	3733
1213.272	3689
1215.565	3668
1217.858	3731
1220.15	3782
1222.443	3801
1224.734	3733
1227.024	3774
1229.313	3791
1231.602	3867
1233.892	3853
1236.18	3780
1238.467	3839
1240.754	3949
1243.04	3947
1245.325	3907
1247.612	3902
1249.896	3865
1252.178	3924
1254.461	3859
1256.743	4022
1259.027	3971
1261.308	3965
1263.587	3993
1265.867	3953
1268.146	3922
1270.425	3965
1272.703	3962
1274.981	3902
1277.256	3972
1279.532	3947
1281.808	3921
1284.083	3895
1286.358	3906
1288.63	3879
1290.904	3853
1293.175	3805
1295.449	3781
1297.719	3808
1299.99	3840
1302.259	3838
1304.529	3784
1306.798	3920
1309.065	3859
1311.333	3871
1313.599	3806
1315.866	3937
1318.131	3849
1320.396	3882
1322.66	3794
1324.925	3879
1327.187	3755
1329.448	3878
1331.711	3959
1333.974	3847
1336.234	3858
1338.493	3895
1340.752	3822
1343.01	3844
1345.269	3900
1347.526	3816
1349.784	3865
1352.04	3906
1354.295	3878
1356.552	3928
1358.806	3804
1361.059	3831
1363.312	3829
1365.564	3903
1367.818	3799
1370.069	3746
1372.318	3845
1374.568	3769
1376.817	3870
1379.066	3859
1381.316	3949
1383.564	3950
1385.809	3921
1388.056	3843
1390.301	3986
1392.549	3942
1394.793	4016
1397.036	4037
1399.279	4022
1401.522	4057
1403.763	3978
1406.007	4041
1408.248	3974
1410.487	4080
1412.727	4020
1414.965	3891
1417.205	4060
1419.442	3969
1421.68	4017
1423.915	4004
1426.152	4021
1428.388	3989
1430.623	4018
1432.857	4000
1435.091	4036
1437.323	4130
1439.556	4044
1441.789	4086
1444.019	4028
1446.25	4131
1448.48	4117
1450.708	4138
1452.938	4168
1455.167	4194
1457.394	4090
1459.62	4119
1461.846	4246
1464.073	4025
1466.299	4076
1468.523	4058
1470.746	4011
1472.969	3990
1475.191	4008
1477.415	4003
1479.636	3926
1481.858	3841
1484.078	3942
1486.298	3922
1488.518	3835
1490.736	3914
1492.954	3796
1495.169	3797
1497.386	3781
1499.602	3880
1501.819	3839
1504.034	3921
1506.248	3809
1508.462	3835
1510.675	3765
1512.888	3838
1515.1	3751
1517.311	3791
1519.522	3785
1521.732	3793
1523.942	3838
1526.151	3786
1528.36	3791
1530.566	3814
1532.773	3815
1534.98	3852
1537.187	3861
1539.392	3777
1541.596	3889
1543.801	3797
1546.005	3846
1548.208	3814
1550.411	3924
1552.612	3799
1554.814	3892
1557.013	3892
1559.212	3912
1561.414	3961
1563.612	3915
1565.811	3861
1568.007	3965
1570.203	3977
1572.403	3887
1574.598	3938
1576.792	3907
1578.988	3880
1581.181	3929
1583.376	3943
1585.568	3969
1587.761	3926
1589.952	3848
1592.143	3975
1594.333	3950
1596.524	3945
1598.715	3995
1600.903	3884
1603.091	3983
1605.278	3968
1607.466	3976
1609.652	4035
1611.838	4030
1614.023	4078
1616.207	4013
1618.391	4035
1620.576	4025
1622.759	4002
1624.941	4026
1627.123	4042
1629.304	4117
1631.484	4013
1633.664	4059
1635.844	4133
1638.022	4060
1640.201	4092
1642.38	4068
1644.556	4052
1646.732	4095
1648.908	4058
1651.084	4138
1653.257	4100
1655.433	4141
1657.607	4168
1659.779	4178
1661.951	4089
1664.122	4183
1666.295	4105
1668.467	4176
1670.635	4230
1672.805	4169
1674.973	4255
1677.142	4174
1679.31	4061
1681.478	4143
1683.644	4189
1685.81	4132
1687.975	4142
1690.142	4153
1692.305	4016
1694.468	4123
1696.632	4064
1698.794	3994
1700.957	4010
1703.119	4002
1705.279	4022
1707.439	3932
1709.598	4020
1711.758	3944
1713.917	3969
1716.075	3954
1718.231	3955
1720.388	3840
1722.543	3929
1724.702	3948
1726.856	3983
1729.01	3909
1731.164	4006
1733.317	3883
1735.471	4049
1737.623	3991
1739.774	3971
1741.925	3889
1744.075	3982
1746.225	3919
1748.376	3937
1750.524	3991
1752.672	3943
1754.82	3942
1756.965	3993
1759.113	3956
1761.259	4026
1763.405	4012
1765.549	3945
1767.694	3940
1769.836	4016
1771.981	3975
1774.123	3919
1776.264	3991
1778.405	4042
1780.546	3969
1782.687	3997
1784.827	3989
1786.966	3881
1789.103	3908
1791.242	3965
1793.381	4004
1795.517	3993
1797.653	3969
1799.788	4024
1801.923	3937
1804.057	3952
1806.193	4026
1808.326	4050
1810.457	3988
1812.59	4041
1814.721	4062
1816.855	3981
1818.984	4053
1821.113	3904
1823.244	3931
1825.372	4001
1827.499	3908
1829.63	3964
1831.756	3928
1833.882	3812
1836.007	3970
1838.132	4011
1840.26	3985
1842.384	3969
1844.507	3992
1846.63	3999
1848.752	3850
1850.875	3964
1852.996	3905
1855.118	3891
1857.238	3951
1859.358	3932
1861.477	4050
1863.597	3925
1865.715	3944
1867.832	3984
1869.948	4068
1872.064	3946
1874.181	3999
1876.297	4013
1878.411	4011
1880.526	3991
1882.639	3951
1884.752	3952
1886.865	3989
1888.977	4016
1891.089	3961
1893.2	4027
1895.308	3969
1897.42	3959
1899.53	4016
1901.639	4027
1903.745	4058
1905.853	4038
1907.962	4002
1910.067	3977
1912.174	3967
1914.278	4081
1916.383	4002
1918.486	4008
1920.592	4020
1922.694	4020
1924.797	4125
1926.898	3986
1929	4051
1931.102	4032
1933.203	4040
1935.301	4039
1937.401	3932
1939.499	4016
1941.598	4038
1943.697	4174
1945.793	4067
1947.888	4054
1949.985	4044
1952.08	4018
1954.176	3993
1956.269	4050
1958.364	4029
1960.457	4090
1962.549	4003
1964.642	4059
1966.733	4035
1968.823	4036
1970.913	3962
1973.005	3977
1975.093	4020
1977.184	4081
1979.271	3975
1981.359	4027
1983.446	4019
1985.532	4116
1987.619	4014
1989.705	4033
1991.789	3953
1993.874	3979
1995.956	3969
1998.041	3971
2000.123	3925
2002.206	4028
2004.287	4017
2006.368	4020
2008.449	4006
2010.529	4023
2012.609	4002
2014.688	4050
2016.766	3952
2018.843	3933
2020.922	4008
2022.999	3994
2025.074	3985
2027.15	4076
2029.225	4041
2031.299	3945
2033.375	3992
2035.447	4006
2037.52	3949
2039.592	3977
2041.664	4048
2043.736	3981
2045.807	4011
2047.876	3987
2049.947	4038
2052.015	4024
2054.086	4025
2056.153	3977
2058.221	3921
2060.288	4002
2062.353	4013
2064.42	4007
2066.486	4064
2068.55	4044
2070.614	3990
2072.678	4012
2074.741	4045
2076.805	4036
2078.866	4024
2080.929	3942
2082.99	4102
2085.049	4075
2087.109	3901
2089.17	4031
2091.228	3948
2093.286	4042
2095.344	4038
2097.4	3975
2099.46	4020
2101.516	3993
2103.572	4032
2105.626	3943
2107.679	4015
2109.735	3958
2111.788	3965
2113.841	3998
2115.894	3997
2117.945	4040
2119.997	3920
2122.049	4080
2124.1	4079
2126.148	3989
2128.197	4075
2130.246	4063
2132.296	3949
2134.342	3966
2136.39	3970
2138.437	4004
2140.483	4075
2142.527	3950
2144.574	4133
2146.619	3982
2148.661	3974
2150.705	3931
2152.747	4011
2154.792	3995
2156.832	3921
2158.874	4006
2160.915	3972
2162.954	3987
2164.995	4001
2167.034	4029
2169.072	3961
2171.111	4010
2173.148	3969
2175.186	3951
2177.223	3957
2179.258	3944
2181.294	4014
2183.328	3984
2185.362	3909
2187.398	3997
2189.431	3929
2191.463	3892
2193.495	3925
2195.528	3850
2197.56	3919
2199.59	4008
2201.62	3882
2203.649	3941
2205.678	3941
2207.708	4023
2209.737	3948
2211.764	3946
2213.791	3944
2215.817	4011
2217.843	3944
2219.87	3951
2221.895	3954
2223.919	3952
2225.942	3881
2227.966	3945
2229.988	3895
2232.012	4011
2234.032	3953
2236.054	3948
2238.074	3906
2240.095	3872
2242.116	3895
2244.135	4047
2246.153	3893
2248.171	3984
2250.188	4000
2252.208	3876
2254.223	4044
2256.239	3918
2258.255	3821
2260.269	3807
2262.283	3908
2264.3	3937
2266.312	3891
2268.325	3902
2270.336	4007
2272.349	3924
2274.362	3894
2276.372	4004
2278.383	3819
2280.392	3883
2282.402	3850
2284.409	3960
2286.418	3840
2288.427	3965
2290.433	3906
2292.441	3947
2294.446	3940
2296.453	3907
2298.459	3891
2300.463	3872
2302.466	3980
2304.471	3930
2306.475	3870
2308.477	3953
2310.478	3920
2312.481	3914
2314.481	3997
2316.481	3910
2318.482	3862
2320.482	3920
2322.48	3915
2324.48	3906
2326.478	3943
2328.476	3922
2330.473	3846
2332.469	3916
2334.465	3915
2336.46	3918
2338.454	3850
2340.45	3862
2342.444	3925
2344.437	3929
2346.43	3850
2348.421	3824
2350.414	3830
2352.405	3713
2354.396	3794
2356.386	3819
2358.376	3866
2360.366	3805
2362.355	3818
2364.343	3802
2366.331	3854
2368.317	3869
2370.304	3842
2372.292	3963
2374.278	3910
2376.262	3956
2378.247	3786
2380.23	3835
2382.216	3860
2384.199	3872
2386.181	3788
2388.163	3718
2390.144	3809
2392.127	3799
2394.107	3795
2396.087	3787
2398.066	3741
2400.046	3914
2402.023	3817
2404.004	3779
2405.981	3863
2407.957	3820
2409.934	3779
2411.91	3795
2413.886	3905
2415.862	3827
2417.836	3765
2419.809	3796
2421.784	3829
2423.756	3794
2425.73	3762
2427.701	3797
2429.672	3897
2431.644	3740
2433.615	3842
2435.586	3802
2437.555	3816
2439.523	3746
2441.491	3776
2443.459	3822
2445.428	3804
2447.395	3732
2449.361	3735
2451.327	3776
2453.292	3790
2455.257	3752
2457.223	3813
2459.187	3759
2461.15	3776
2463.113	3819
2465.076	3776
2467.039	3728
2468.999	3894
2470.96	3763
2472.921	3799
2474.881	3777
2476.841	3715
2478.8	3742
2480.759	3804
2482.717	3686
2484.675	3769
2486.63	3723
2488.589	3798
2490.545	3672
2492.5	3737
2494.455	3809
2496.408	3684
2498.364	3829
2500.318	3750
2502.27	3727
2504.223	3759
2506.174	3747
2508.126	3758
2510.078	3804
2512.03	3700
2513.979	3712
2515.927	3690
2517.877	3698
2519.826	3723
2521.775	3732
2523.722	3649
2525.668	3826
2527.616	3693
2529.561	3804
2531.508	3747
2533.452	3721
2535.398	3687
2537.342	3735
2539.284	3791
2541.229	3639
2543.173	3756
2545.114	3671
2547.055	3722
2548.996	3774
2550.938	3669
2552.878	3720
2554.817	3733
2556.756	3723
2558.695	3692
2560.633	3734
2562.572	3717
2564.509	3755
2566.445	3777
2568.382	3776
2570.317	3801
2572.254	3734
2574.189	3718
2576.123	3664
2578.057	3733
2579.99	3753
2581.923	3722
2583.855	3684
2585.788	3816
2587.719	3752
2589.65	3730
2591.579	3751
2593.511	3718
2595.44	3766
2597.37	3655
2599.297	3800
2601.225	3756
2603.153	3758
2605.08	3781
2607.007	3746
2608.932	3715
2610.858	3747
2612.782	3675
2614.709	3690
2616.632	3825
2618.556	3700
2620.478	3676
2622.401	3722
2624.324	3706
2626.247	3761
2628.167	3723
2630.088	3724
2632.008	3846
2633.928	3743
2635.848	3710
2637.766	3730
2639.684	3723
2641.603	3698
2643.519	3743
2645.437	3715
2647.353	3667
2649.27	3759
2651.184	3712
2653.099	3753
2655.014	3764
2656.928	3730
2658.842	3831
2660.755	3734
2662.667	3718
2664.579	3763
2666.491	3789
2668.402	3799
2670.312	3744
2672.222	3732
2674.132	3770
2676.042	3725
2677.951	3723
2679.859	3711
2681.766	3725
2683.674	3716
2685.582	3727
2687.488	3699
2689.392	3664
2691.298	3755
2693.202	3657
2695.107	3704
2697.012	3744
2698.914	3633
2700.817	3730
2702.72	3659
2704.622	3783
2706.524	3619
2708.425	3625
2710.326	3618
2712.225	3660
2714.125	3652
2716.024	3668
2717.923	3650
2719.822	3637
2721.719	3714
2723.616	3626
2725.512	3699
2727.41	3698
2729.305	3805
2731.201	3648
2733.095	3664
2734.99	3689
2736.884	3688
2738.778	3659
2740.67	3739
2742.562	3674
2744.455	3683
2746.346	3698
2748.238	3665
2750.129	3679
2752.018	3611
2753.907	3677
2755.797	3670
2757.687	3727
2759.575	3714
2761.462	3664
2763.349	3705
2765.237	3698
2767.124	3688
2769.009	3688
2770.894	3626
2772.779	3674
2774.663	3688
2776.547	3572
2778.431	3672
2780.314	3647
2782.197	3607
2784.078	3670
2785.96	3625
2787.842	3817
2789.723	3661
2791.603	3613
2793.483	3606
2795.362	3644
2797.241	3636
2799.121	3662
2800.997	3684
2802.874	3589
2804.751	3654
2806.628	3632
2808.506	3646
2810.38	3608
2812.255	3646
2814.13	3595
2816.003	3645
2817.878	3719
2819.752	3610
2821.623	3672
2823.496	3663
2825.368	3648
2827.238	3670
2829.111	3695
2830.98	3607
2832.851	3691
2834.719	3672
2836.589	3613
2838.458	3702
2840.327	3659
2842.193	3655
2844.061	3648
2845.927	3644
2847.794	3648
2849.66	3739
2851.525	3757
2853.39	3663
2855.254	3720
2857.117	3783
2858.983	3692
2860.845	3807
2862.707	3781
2864.569	3872
2866.431	3804
2868.293	3945
2870.154	3868
2872.013	3950
2873.873	4003
2875.733	3991
2877.592	4056
2879.451	4153
2881.309	4146
2883.166	4292
2885.022	4294
2886.879	4130
2888.736	4206
2890.591	4248
2892.446	4192
2894.301	4304
2896.155	4222
2898.009	4265
2899.863	4237
2901.716	4215
2903.568	4179
2905.419	4132
2907.27	4265
2909.123	4222
2910.973	4173
2912.824	4327
2914.673	4305
2916.521	4341
2918.372	4451
2920.22	4346
2922.067	4335
2923.914	4490
2925.761	4387
2927.607	4611
2929.455	4607
2931.301	4603
2933.144	4722
2934.99	4774
2936.833	4789
2938.678	4823
2940.522	4907
2942.364	5021
2944.207	4845
2946.048	5060
2947.891	5047
2949.731	5031
2951.571	5030
2953.412	5014
2955.25	4927
2957.09	4833
2958.93	4876
2960.767	4792
2962.606	4736
2964.443	4710
2966.279	4667
2968.116	4595
2969.953	4470
2971.788	4563
2973.623	4475
2975.457	4433
2977.292	4422
2979.127	4324
2980.959	4423
2982.792	4313
2984.624	4272
2986.455	4316
2988.288	4270
2990.119	4229
2991.949	4176
2993.779	4167
2995.608	4139
2997.439	4083
2999.268	4005
3001.096	3993
3002.923	3989
3004.751	3939
3006.578	3894
3008.406	3911
3010.232	3836
3012.057	3835
3013.883	3735
3015.706	3728
3017.532	3746
3019.356	3644
3021.179	3702
3023.002	3676
3024.823	3628
3026.646	3568
3028.469	3617
3030.289	3671
3032.11	3583
3033.93	3597
3035.749	3516
3037.57	3500
3039.39	3644
3041.207	3568
3043.026	3503
3044.842	3524
3046.661	3590
3048.477	3501
3050.294	3550
3052.109	3549
3053.925	3556
3055.739	3514
3057.555	3459
3059.368	3487
3061.181	3532
3062.995	3521
3064.807	3522
3066.62	3605
3068.433	3491
3070.243	3460
3072.054	3529
3073.865	3548
3075.675	3527
3077.485	3531
3079.293	3592
3081.102	3514
3082.911	3456
3084.719	3397
3086.527	3524
3088.333	3422
3090.139	3393
3091.945	3408
3093.75	3424
3095.557	3430
3097.361	3415
3099.165	3484
3100.969	3486
3102.772	3354
3104.575	3454
3106.379	3381
3108.181	3392
3109.982	3328
3111.783	3415
3113.584	3394
3115.386	3394
3117.186	3373
3118.985	3324
3120.783	3331
3122.582	3357
3124.381	3349
3126.179	3380
3127.975	3411
3129.772	3337
3131.569	3313
3133.365	3292
3135.161	3313
3136.956	3391
3138.751	3307
3140.544	3300
3142.338	3379
3144.132	3334
3145.925	3302
3147.717	3343
3149.509	3337
3151.301	3377
3153.091	3331
3154.884	3277
3156.673	3315
3158.462	3373
3160.252	3363
3162.041	3333
3163.831	3274
3165.618	3310
3167.405	3254
3169.193	3336
3170.979	3306
3172.767	3327
3174.553	3335
3176.338	3290
3178.123	3346
3179.907	3408
3181.692	3259
3183.477	3373
3185.259	3377
3187.042	3347
3188.824	3267
3190.607	3283
3192.389	3283
3194.17	3315
3195.951	3322
3197.73	3304
3199.51	3368
3201.289	3228
3203.07	3306
3204.848	3363
3206.626	3356
3208.403	3293
3210.18	3254
3211.959	3310
3213.735	3344
3215.511	3321
3217.285	3350
3219.06	3356
3220.836	3348
3222.611	3296
3224.384	3291
3226.158	3341
3227.929	3306
3229.702	3297
3231.476	3325
3233.248	3303
3235.018	3289
3236.789	3351
3238.56	3273
3240.33	3353
3242.1	3279
3243.869	3274
3245.637	3285
3247.405	3304
3249.172	3342
3250.941	3320
3252.707	3290
3254.474	3341
3256.24	3276
3258.006	3289
3259.772	3337
3261.537	3325
3263.301	3368
3265.065	3364
3266.828	3404
3268.592	3325
3270.355	3356
3272.117	3284
3273.878	3295
3275.64	3396
3277.401	3352
3279.162	3382
3280.922	3349
3282.682	3390
3284.441	3365
3286.199	3416
3287.959	3354
3289.716	3265
3291.475	3299
3293.232	3344
3294.988	3428
3296.744	3382
3298.501	3367
3300.256	3405
3302.011	3289
3303.766	3324
3305.52	3380
3307.275	3258
3309.028	3328
3310.781	3304
3312.533	3369
3314.285	3374
3316.038	3310
3317.789	3311
3319.54	3355
3321.289	3417
3323.039	3399
3324.789	3402
3326.539	3295
3328.288	3343
3330.035	3304
3331.783	3401
3333.531	3311
3335.28	3291
3337.025	3263
3338.771	3345
3340.518	3342
3342.262	3261
3344.009	3251
3345.753	3344
3347.497	3292
3349.24	3294
3350.983	3281
3352.726	3302
3354.469	3320
3356.212	3366
3357.952	3271
3359.694	3243
3361.434	3254
3363.176	3332
3364.916	3261
3366.654	3165
3368.394	3297
3370.132	3347
3371.871	3318
3373.61	3242
3375.346	3279
3377.083	3253
3378.82	3252
3380.556	3266
3382.292	3239
3384.027	3191
3385.763	3187
3387.497	3313
3389.231	3227
3390.965	3166
3392.698	3289
3394.431	3200
3396.164	3183
3397.896	3276
3399.627	3144
3401.36	3217
3403.09	3176
3404.82	3140
3406.55	3190
3408.279	3184
3410.01	3226
3411.738	3174
3413.467	3112
3415.194	3244
3416.92	3183
3418.647	3169
3420.375	3188
3422.102	3186
3423.827	3179
3425.553	3127
3427.277	3148
3429.003	3106
3430.727	3203
3432.451	3151
3434.173	3183
3435.896	3126
3437.62	3182
3439.343	3169
3441.063	3159
3442.785	3136
3444.505	3011
3446.226	3201
3447.948	3104
3449.666	3091
3451.386	3100
3453.104	3079
3454.823	3079
3456.541	3082
3458.259	3057
3459.976	2991
3461.693	3046
3463.408	3014
3465.125	3096
3466.841	3119
3468.556	3018
3470.271	3009
3471.985	3038
3473.698	2979
3475.414	2972
3477.126	3056
3478.838	3085
3480.55	3054
3482.263	3066
3483.975	2954
3485.686	3075
3487.396	2954
3489.106	2953
3490.817	3004
3492.526	2959
3494.236	3038
3495.944	2984
3497.652	2933
3499.359	3057
3501.066	2956
3502.775	2930
3504.481	2918
3506.187	2977
3507.893	2973
3509.598	2912
3511.304	2978
3513.009	2945
3514.713	2915
3516.417	2917
3518.12	2924
3519.821	2922
3521.525	2896
3523.228	2947
3524.929	2942
3526.631	2940
3528.33	2852
3530.032	2905
3531.733	2866
3533.433	2928
3535.131	2928
3536.83	2862
3538.529	2896
3540.227	2851
3541.925	2867
3543.623	2818
3545.319	2900
3547.016	2854
3548.712	2830
3550.408	2874
3552.103	2898
3553.798	2889
3555.491	2833
3557.188	2764
3558.88	2877
3560.574	2858
3562.266	2755
3563.959	2872
3565.651	2782
3567.343	2847
3569.035	2760
3570.725	2759
3572.415	2756
3574.106	2705
3575.797	2844
3577.485	2835
3579.174	2734
3580.863	2753
3582.551	2764
3584.238	2895
3585.926	2708
3587.613	2787
3589.3	2719
3590.986	2778
3592.671	2753
3594.357	2768
3596.042	2751
3597.726	2679
3599.41	2739
3601.094	2754
3602.778	2751
3604.461	2747
3606.143	2678
3607.825	2729
3609.507	2738
3611.188	2733
3612.87	2758
3614.551	2682
3616.229	2678
3617.909	2693
3619.589	2667
3621.269	2691
3622.948	2615
3624.625	2653
3626.302	2716
3627.98	2635
3629.657	2688
3631.334	2646
3633.01	2572
3634.686	2722
3636.361	2615
3638.036	2668
3639.712	2687
3641.385	2578
3643.06	2680
3644.732	2595
3646.405	2569
3648.08	2685
3649.751	2599
3651.424	2589
3653.094	2667
3654.766	2612
3656.436	2617
3658.106	2696
3659.777	2646
3661.446	2605
3663.115	2584
3664.783	2620
3666.452	2577
3668.121	2519
3669.788	2547
3671.454	2562
3673.121	2617
3674.789	2610
3676.455	2590
3678.12	2550
3679.784	2587
3681.45	2582
3683.114	2619
3684.779	2579
3686.442	2510
3688.105	2533
3689.768	2530
3691.43	2580
3693.093	2587
3694.754	2516
3696.415	2578
3698.076	2543
3699.736	2551
3701.396	2476
3703.057	2507
3704.716	2516
3706.375	2585
3708.034	2572
3709.692	2490
3711.351	2490
3713.008	2469
3714.665	2500
3716.321	2537
3717.977	2518
3719.634	2487
3721.29	2561
3722.945	2422
3724.598	2509
3726.253	2445
3727.907	2502
3729.561	2530
3731.214	2480
3732.867	2540
3734.518	2515
3736.171	2460
3737.824	2539
3739.474	2460
3741.125	2431
3742.775	2478
3744.425	2514
3746.074	2451
3747.725	2453
3749.373	2415
3751.022	2434
3752.669	2522
3754.318	2436
3755.966	2450
3757.612	2482
3759.259	2407
3760.905	2498
3762.55	2522
3764.197	2471
3765.842	2471
3767.486	2470
3769.131	2392
3770.774	2477
3772.417	2410
3774.061	2475
3775.705	2463
3777.347	2405
3778.988	2417
3780.629	2445
3782.271	2470
3783.912	2409
3785.552	2499
3787.192	2384
3788.831	2454
3790.472	2375
3792.112	2381
3793.75	2423
3795.388	2424
3797.024	2377
3798.661	2457
3800.3	2411
3801.936	2401
3803.572	2430
3805.208	2392
3806.844	2355
3808.48	2429
3810.115	2334
3811.748	2406
3813.382	2418
3815.016	2398
3816.649	2346
3818.283	2410
3819.914	2337
3821.547	2433
3823.178	2360
3824.809	2335
3826.441	2340
3828.072	2413
3829.701	2417
3831.331	2316
3832.96	2339
3834.591	2372
3836.219	2373
3837.847	2404
3839.475	2350
3841.102	2312
3842.729	2322
3844.357	2339
3845.984	2416
3847.609	2305
3849.234	2288
3850.86	2346
3852.485	2315
3854.11	2282
3855.734	2337
3857.357	2361
3858.981	2320
3860.603	2361
3862.227	2358
3863.848	2335
3865.471	2317
3867.092	2330
3868.713	2329
3870.334	2303
3871.954	2290
3873.575	2367
3875.194	2336
3876.813	2339
3878.433	2256
3880.051	2324
3881.669	2364
3883.286	2310
3884.904	2279
3886.52	2324
3888.138	2356
3889.754	2326
3891.37	2321
3892.985	2295
3894.6	2301
3896.216	2346
3897.831	2282
3899.444	2253
3901.058	2294
3902.67	2378
3904.283	2241
3905.897	2311
3907.509	2275
3909.121	2238
3910.731	2206
3912.342	2288
3913.954	2375
3915.563	2236
3917.174	2287
3918.783	2274
3920.391	2255
3922.002	2223
3923.611	2257
3925.218	2244
3926.826	2287
3928.432	2253
3930.039	2265
3931.647	2330
3933.253	2261
3934.859	2206
3936.464	2306
3938.068	2276
3939.675	2266
3941.278	2245
3942.883	2307
3944.486	2267
3946.089	2273
3947.692	2232
3949.295	2256
3950.898	2233
3952.499	2244
3954.1	2249
3955.7	2181
3957.303	2271
3958.903	2241
3960.502	2174
3962.101	2266
3963.7	2223
3965.301	2257
3966.899	2274
3968.497	2238
3970.094	2244
3971.691	2243
3973.288	2266
3974.885	2301
3976.481	2205
3978.077	2203
3979.672	2255
3981.267	2202
3982.863	2256
3984.457	2266
3986.051	2180
3987.645	2206
3989.238	2192
3990.831	2208
3992.425	2184
3994.017	2190
3995.607	2154
3997.199	2219
3998.79	2154
4000.382	2176
4001.973	2110
4003.561	2148
4005.151	2177
4006.741	2228
4008.331	2102
4009.918	2190
4011.507	2180
4013.095	2144
4014.681	2176
4016.269	2168
4017.856	2155
4019.443	2167
4021.028	2134
4022.614	2155
4024.199	2093
4025.785	2118
4027.37	2084
4028.953	2109
4030.536	2131
4032.12	2143
4033.704	2069
4035.287	2068
4036.869	2145
4038.45	2117
4040.032	2106
4041.613	2097
4043.195	2130
4044.776	2099
4046.356	2089
4047.935	2062
4049.515	2072
4051.095	2057
4052.674	2073
4054.251	2076
4055.829	2091
4057.406	2133
4058.985	2019
4060.562	2057
4062.139	2142
4063.715	2043
4065.29	2137
4066.865	2046
4068.442	2044
4070.016	2124
4071.59	2126
4073.164	2044
4074.738	2058
4076.312	2074
4077.885	2069
4079.458	2081
4081.03	2024
4082.602	2065
4084.173	2041
4085.745	2049
4087.315	2082
4088.886	2064
4090.456	2071
4092.026	2099
4093.596	2054
4095.165	2072
4096.734	2041
4098.301	2115
4099.869	2028
4101.437	2050
4103.006	2067
4104.572	2007
4106.139	2074
4107.704	2011
4109.27	2050
4110.837	2022
4112.401	2064
4113.966	2012
4115.53	1997
4117.094	2003
4118.659	2037
4120.223	1986
4121.785	2038
4123.347	2005
4124.909	2003
4126.471	2053
4128.034	2008
4129.595	1968
4131.155	2025
4132.716	2037
4134.275	1966
4135.836	1973
4137.395	1974
4138.955	2075
4140.513	2010
4142.071	2038
4143.628	2065
4145.188	1967
4146.745	1999
4148.302	1930
4149.858	2009
4151.414	1924
4152.971	2052
4154.526	2050
4156.081	1992
4157.635	1965
4159.189	1940
4160.745	1975
4162.298	1972
4163.852	1941
4165.405	1966
4166.957	1940
4168.51	1976
4170.063	1977
4171.614	1962
4173.166	1965
4174.717	1912
4176.267	1912
4177.817	1941
4179.368	1947
4180.917	1985
4182.466	1899
4184.016	1967
4185.564	1942
4187.112	1956
4188.66	1937
4190.207	1926
4191.754	1899
4193.301	1908
4194.848	1906
4196.394	1910
4197.94	1893
4199.484	1962
4201.03	1887
4202.575	1894
4204.12	1858
4205.663	1915
4207.207	1916
4208.75	1869
4210.292	1874
4211.836	1948
4213.378	1895
4214.92	1898
4216.46	1909
4218.002	1939
4219.544	1966
4221.083	1940
4222.625	1903
4224.164	1886
4225.703	1901
4227.244	1939
4228.782	1906
4230.32	1874
4231.857	1899
4233.395	1872
4234.933	1927
4236.471	1956
4238.007	1913
4239.542	1923
4241.078	1908
4242.614	1869
4244.15	1919
4245.685	1859
4247.219	1856
4248.753	1880
4250.287	1857
4251.82	1916
4253.354	1868
4254.887	1829
4256.419	1892
4257.951	1838
4259.483	1860
4261.016	1860
4262.547	1862
4264.078	1888
4265.608	1852
4267.137	1859
4268.668	1811
4270.197	1861
4271.727	1867
4273.254	1816
4274.783	1876
4276.311	1802
4277.84	1879
4279.366	1839
4280.894	1809
4282.42	1827
4283.946	1811
4285.473	1766
4286.998	1816
4288.523	1886
4290.047	1857
4291.572	1833
4293.096	1815
4294.622	1836
4296.144	1817
4297.668	1853
4299.19	1849
4300.713	1805
4302.236	1806
4303.758	1863
4305.279	1828
4306.799	1806
4308.321	1822
4309.842	1801
4311.361	1803
4312.882	1808
4314.401	1793
