400.0961	4195
402.6185	4263
405.1424	4206
407.6635	4289
410.1838	4281
412.7035	4260
415.2225	4222
417.7388	4379
420.2585	4367
422.7754	4374
425.2917	4402
427.8072	4500
430.3221	4570
432.8363	4628
435.3498	4598
437.8626	4560
440.3727	4462
442.8841	4558
445.3969	4440
447.907	4532
450.4142	4442
452.9229	4524
455.4289	4513
457.9362	4573
460.4449	4482
462.9488	4430
465.454	4497
467.9566	4521
470.4604	4505
472.9637	4507
475.4662	4467
477.966	4489
480.4671	4582
482.9656	4550
485.4633	4574
487.9645	4594
490.4608	4598
492.9566	4568
495.4536	4648
497.948	4635
500.4437	4651
502.9387	4609
505.431	4610
507.9226	4704
510.4136	4676
512.9079	4710
515.3975	4666
517.8864	4664
520.3746	4673
522.8622	4696
525.3491	4753
527.8394	4754
530.3249	4634
532.8098	4612
535.2939	4672
537.7774	4784
540.2623	4757
542.7444	4727
545.2259	4786
547.7067	4793
550.1868	4671
552.6683	4798
555.147	4713
557.6231	4657
560.1005	4867
562.5773	4735
565.0534	4805
567.5308	4774
570.0056	4738
572.4776	4851
574.951	4810
577.4237	4921
579.8978	4907
582.3671	4964
584.8378	4865
587.3079	4930
589.7773	4963
592.244	4873
594.714	4912
597.1793	4984
599.6461	4878
602.1121	4873
604.5754	4813
607.0421	4929
609.5042	4860
611.9675	4942
614.4282	4922
616.8902	4903
619.3515	4856
621.8122	4856
624.2702	4924
626.7296	4869
629.1863	4798
631.6423	4897
634.1017	4777
636.5563	4934
639.0104	4908
641.4658	4854
643.9185	4914
646.3725	4933
648.8239	4869
651.2766	4984
653.7266	4913
656.176	4907
658.6247	4896
661.0748	4926
663.5242	4961
665.9709	4981
668.417	4935
670.8624	4932
673.3092	4933
675.7533	5020
678.1968	5035
680.6395	4959
683.0817	5008
685.5251	5054
687.9659	4992
690.4061	5036
692.8456	4996
695.2844	5036
697.7226	5076
700.1621	5146
702.599	5032
705.0332	5085
707.4688	5093
709.9036	5188
712.3399	5140
714.7735	5114
717.2044	5234
719.6367	5148
722.0683	5129
724.4993	5179
726.9296	5100
729.3593	5170
731.7883	5213
734.2147	5243
736.6423	5209
739.0714	5296
741.4958	5197
743.9216	5183
746.3447	5249
748.7691	5316
751.1929	5367
753.616	5412
756.0366	5370
758.4584	5340
760.8776	5363
763.2982	5331
765.718	5360
768.1373	5391
770.5539	5467
772.9698	5378
775.3871	5405
777.8038	5427
780.2178	5378
782.6332	5424
785.0459	5397
787.458	5442
789.8714	5386
792.2842	5352
794.6943	5458
797.1038	5347
799.5127	5452
801.9209	5441
804.3324	5404
806.7393	5422
809.1456	5459
811.5513	5385
813.9562	5392
816.3625	5404
818.7663	5529
821.1693	5524
823.5718	5437
825.9735	5525
828.3746	5444
830.7771	5507
833.177	5443
835.5762	5491
837.9747	5557
840.3727	5500
842.772	5527
845.1666	5549
847.5626	5504
849.958	5636
852.3527	5634
854.7488	5589
857.1403	5647
859.5331	5568
861.9253	5557
864.3168	5610
866.7057	5551
869.098	5547
871.4876	5499
873.8746	5618
876.263	5636
878.6487	5506
881.0378	5495
883.4243	5618
885.8081	5628
888.1933	5483
890.5759	5528
892.9598	5595
895.343	5622
897.7256	5508
900.1057	5478
902.4871	5581
904.8659	5626
907.246	5633
909.6254	5555
912.0023	5651
914.3786	5549
916.7562	5724
919.1331	5673
921.5074	5858
923.8831	5819
926.2562	5879
928.6287	5715
931.0005	5926
933.3757	5881
935.7462	5902
938.1162	5811
940.4855	5926
942.8542	5993
945.2242	5937
947.5916	6085
949.9584	6179
952.3266	6339
954.6921	6456
957.0571	6728
959.4233	6811
961.787	6943
964.15	6719
966.5125	6800
968.8742	6459
971.2354	6268
973.5959	6065
975.9559	6024
978.3151	5946
980.6738	5880
983.0338	5875
985.3912	5848
987.7461	5806
990.1022	5767
992.4578	5791
994.8127	5810
997.1689	5721
999.5207	5802
1001.874	5820
1004.226	5843
1006.576	5822
1008.929	5842
1011.28	5791
1013.628	5712
1015.977	5793
1018.324	5805
1020.674	5757
1023.019	5820
1025.366	5835
1027.713	5791
1030.056	5824
1032.399	5897
1034.746	5807
1037.087	5882
1039.431	5821
1041.771	5787
1044.113	5982
1046.454	5928
1048.793	5893
1051.133	5893
1053.471	5883
1055.807	5923
1058.146	6025
1060.483	5887
1062.818	5940
1065.153	5921
1067.489	6067
1069.822	5966
1072.156	6020
1074.488	5965
1076.82	6069
1079.15	6068
1081.48	5944
1083.814	6006
1086.143	6011
1088.471	5978
1090.799	5919
1093.126	5863
1095.452	5893
1097.78	5816
1100.105	5998
1102.43	5958
1104.754	5968
1107.077	5930
1109.4	5940
1111.722	6064
1114.044	5913
1116.365	5869
1118.685	5921
1121.005	5914
1123.324	5870
1125.643	6001
1127.961	6019
1130.278	5968
1132.595	6120
1134.911	5949
1137.226	5981
1139.541	5912
1141.854	5966
1144.167	5977
1146.482	5983
1148.793	5880
1151.105	6001
1153.414	6040
1155.725	6084
1158.033	5935
1160.344	5905
1162.651	5950
1164.959	5984
1167.265	5932
1169.572	5921
1171.878	5965
1174.184	6039
1176.488	6047
1178.79	6008
1181.094	6051
1183.396	6009
1185.699	6070
1188.001	6007
1190.301	5904
1192.6	5905
1194.9	5909
1197.2	6047
1199.497	6017
1201.794	5981
1204.09	5963
1206.387	6007
1208.684	6017
1210.978	6033
1213.272	6098
1215.565	5955
1217.858	6095
1220.15	5934
1222.443	6055
1224.734	6022
1227.024	6107
1229.313	6034
1231.602	6165
1233.892	6146
1236.18	6153
1238.467	6162
1240.754	6278
1243.04	6213
1245.325	6231
1247.612	6235
1249.896	6239
1252.178	6152
1254.461	6170
1256.743	6172
1259.027	6286
1261.308	6105
1263.587	6210
1265.867	6185
1268.146	6173
1270.425	6200
1272.703	6273
1274.981	6213
1277.256	6153
1279.532	6200
1281.808	6186
1284.083	6231
1286.358	6226
1288.63	6145
1290.904	6081
1293.175	6222
1295.449	6139
1297.719	6147
1299.99	6122
1302.259	6041
1304.529	6137
1306.798	6062
1309.065	6038
1311.333	6091
1313.599	6215
1315.866	6077
1318.131	6113
1320.396	6148
1322.66	6108
1324.925	6102
1327.187	6138
1329.448	6037
1331.711	6153
1333.974	6192
1336.234	6151
1338.493	6234
1340.752	6156
1343.01	6081
1345.269	6137
1347.526	6151
1349.784	6078
1352.04	6208
1354.295	6098
1356.552	6149
1358.806	6217
1361.059	6096
1363.312	6088
1365.564	6199
1367.818	6244
1370.069	6195
1372.318	6184
1374.568	6248
1376.817	6209
1379.066	6192
1381.316	6207
1383.564	6274
1385.809	6163
1388.056	6214
1390.301	6240
1392.549	6303
1394.793	6469
1397.036	6454
1399.279	6347
1401.522	6453
1403.763	6368
1406.007	6227
1408.248	6302
1410.487	6311
1412.727	6339
1414.965	6315
1417.205	6409
1419.442	6442
1421.68	6280
1423.915	6259
1426.152	6276
1428.388	6372
1430.623	6353
1432.857	6391
1435.091	6453
1437.323	6361
1439.556	6388
1441.789	6449
1444.019	6445
1446.25	6520
1448.48	6449
1450.708	6533
1452.938	6475
1455.167	6565
1457.394	6553
1459.62	6578
1461.846	6512
1464.073	6338
1466.299	6509
1468.523	6489
1470.746	6368
1472.969	6408
1475.191	6301
1477.415	6474
1479.636	6268
1481.858	6348
1484.078	6314
1486.298	6195
1488.518	6312
1490.736	6173
1492.954	6153
1495.169	6140
1497.386	6172
1499.602	6145
1501.819	6272
1504.034	6081
1506.248	6062
1508.462	6176
1510.675	6184
1512.888	6144
1515.1	6121
1517.311	6172
1519.522	6230
1521.732	6130
1523.942	6203
1526.151	6193
1528.36	6242
1530.566	6136
1532.773	6113
1534.98	6216
1537.187	6225
1539.392	6276
1541.596	6325
1543.801	6312
1546.005	6228
1548.208	6253
1550.411	6229
1552.612	6210
1554.814	6258
1557.013	6359
1559.212	6319
1561.414	6303
1563.612	6325
1565.811	6320
1568.007	6325
1570.203	6265
1572.403	6426
1574.598	6420
1576.792	6309
1578.988	6395
1581.181	6404
1583.376	6471
1585.568	6316
1587.761	6358
1589.952	6333
1592.143	6332
1594.333	6370
1596.524	6491
1598.715	6415
1600.903	6247
1603.091	6461
1605.278	6394
1607.466	6477
1609.652	6461
1611.838	6416
1614.023	6405
1616.207	6302
1618.391	6497
1620.576	6400
1622.759	6508
1624.941	6408
1627.123	6441
1629.304	6534
1631.484	6423
1633.664	6437
1635.844	6353
1638.022	6463
1640.201	6450
1642.38	6508
1644.556	6457
1646.732	6503
1648.908	6441
1651.084	6584
1653.257	6446
1655.433	6450
1657.607	6583
1659.779	6554
1661.951	6537
1664.122	6552
1666.295	6538
1668.467	6588
1670.635	6582
1672.805	6566
1674.973	6669
1677.142	6611
1679.31	6500
1681.478	6537
1683.644	6566
1685.81	6480
1687.975	6547
1690.142	6446
1692.305	6554
1694.468	6358
1696.632	6504
1698.794	6464
1700.957	6413
1703.119	6446
1705.279	6334
1707.439	6346
1709.598	6510
1711.758	6507
1713.917	6334
1716.075	6375
1718.231	6357
1720.388	6411
1722.543	6366
1724.702	6434
1726.856	6353
1729.01	6450
1731.164	6397
1733.317	6376
1735.471	6432
1737.623	6336
1739.774	6365
1741.925	6467
1744.075	6456
1746.225	6450
1748.376	6380
1750.524	6447
1752.672	6489
1754.82	6414
1756.965	6513
1759.113	6455
1761.259	6329
1763.405	6429
1765.549	6300
1767.694	6360
1769.836	6454
1771.981	6536
1774.123	6442
1776.264	6530
1778.405	6462
1780.546	6486
1782.687	6380
1784.827	6484
1786.966	6504
1789.103	6483
1791.242	6474
1793.381	6458
1795.517	6479
1797.653	6554
1799.788	6432
1801.923	6350
1804.057	6490
1806.193	6425
1808.326	6492
1810.457	6456
1812.59	6485
1814.721	6414
1816.855	6453
1818.984	6461
1821.113	6519
1823.244	6455
1825.372	6474
1827.499	6401
1829.63	6412
1831.756	6396
1833.882	6360
1836.007	6499
1838.132	6550
1840.26	6443
1842.384	6429
1844.507	6435
1846.63	6465
1848.752	6437
1850.875	6441
1852.996	6484
1855.118	6379
1857.238	6359
1859.358	6475
1861.477	6351
1863.597	6320
1865.715	6422
1867.832	6424
1869.948	6353
1872.064	6410
1874.181	6341
1876.297	6365
1878.411	6438
1880.526	6387
1882.639	6381
1884.752	6357
1886.865	6428
1888.977	6378
1891.089	6478
1893.2	6433
1895.308	6413
1897.42	6357
1899.53	6468
1901.639	6462
1903.745	6444
1905.853	6393
1907.962	6503
1910.067	6408
1912.174	6440
1914.278	6500
1916.383	6474
1918.486	6569
1920.592	6505
1922.694	6479
1924.797	6471
1926.898	6442
1929	6612
1931.102	6441
1933.203	6501
1935.301	6563
1937.401	6550
1939.499	6538
1941.598	6595
1943.697	6490
1945.793	6547
1947.888	6568
1949.985	6587
1952.08	6529
1954.176	6452
1956.269	6496
1958.364	6543
1960.457	6588
1962.549	6539
1964.642	6494
1966.733	6517
1968.823	6535
1970.913	6542
1973.005	6370
1975.093	6465
1977.184	6488
1979.271	6496
1981.359	6459
1983.446	6346
1985.532	6372
1987.619	6634
1989.705	6415
1991.789	6465
1993.874	6471
1995.956	6557
1998.041	6506
2000.123	6408
2002.206	6564
2004.287	6408
2006.368	6387
2008.449	6391
2010.529	6460
2012.609	6485
2014.688	6382
2016.766	6581
2018.843	6414
2020.922	6385
2022.999	6410
2025.074	6495
2027.15	6404
2029.225	6407
2031.299	6422
2033.375	6363
2035.447	6367
2037.52	6532
2039.592	6336
2041.664	6444
2043.736	6407
2045.807	6406
2047.876	6460
2049.947	6445
2052.015	6306
2054.086	6396
2056.153	6378
2058.221	6455
2060.288	6513
2062.353	6444
2064.42	6369
2066.486	6415
2068.55	6449
2070.614	6491
2072.678	6397
2074.741	6423
2076.805	6443
2078.866	6399
2080.929	6330
2082.99	6368
2085.049	6475
2087.109	6609
2089.17	6440
2091.228	6373
2093.286	6362
2095.344	6432
2097.4	6463
2099.46	6467
2101.516	6393
2103.572	6411
2105.626	6448
2107.679	6380
2109.735	6546
2111.788	6366
2113.841	6485
2115.894	6444
2117.945	6394
2119.997	6438
2122.049	6389
2124.1	6493
2126.148	6377
2128.197	6334
2130.246	6371
2132.296	6374
2134.342	6450
2136.39	6476
2138.437	6444
2140.483	6397
2142.527	6344
2144.574	6314
2146.619	6375
2148.661	6500
2150.705	6373
2152.747	6356
2154.792	6422
2156.832	6354
2158.874	6416
2160.915	6401
2162.954	6323
2164.995	6410
2167.034	6364
2169.072	6328
2171.111	6352
2173.148	6345
2175.186	6423
2177.223	6390
2179.258	6358
2181.294	6362
2183.328	6360
2185.362	6322
2187.398	6328
2189.431	6176
2191.463	6348
2193.495	6292
2195.528	6313
2197.56	6371
2199.59	6215
2201.62	6317
2203.649	6229
2205.678	6297
2207.708	6256
2209.737	6388
2211.764	6309
2213.791	6250
2215.817	6319
2217.843	6143
2219.87	6234
2221.895	6198
2223.919	6244
2225.942	6140
2227.966	6215
2229.988	6191
2232.012	6221
2234.032	6262
2236.054	6177
2238.074	6189
2240.095	6268
2242.116	6234
2244.135	6265
2246.153	6157
2248.171	6256
2250.188	6237
2252.208	6255
2254.223	6290
2256.239	6208
2258.255	6054
2260.269	6251
2262.283	6231
2264.3	6241
2266.312	6244
2268.325	6079
2270.336	6223
2272.349	6244
2274.362	6352
2276.372	6091
2278.383	6218
2280.392	6214
2282.402	6278
2284.409	6337
2286.418	6132
2288.427	6269
2290.433	6179
2292.441	6260
2294.446	6259
2296.453	6171
2298.459	6249
2300.463	6180
2302.466	6162
2304.471	6236
2306.475	6293
2308.477	6174
2310.478	6271
2312.481	6339
2314.481	6139
2316.481	6121
2318.482	6276
2320.482	6220
2322.48	6146
2324.48	6127
2326.478	6104
2328.476	6078
2330.473	6084
2332.469	6186
2334.465	6216
2336.46	6163
2338.454	6129
2340.45	6164
2342.444	6080
2344.437	6155
2346.43	6126
2348.421	6211
2350.414	6058
2352.405	6147
2354.396	6140
2356.386	6119
2358.376	6174
2360.366	6062
2362.355	6132
2364.343	6117
2366.331	6065
2368.317	6049
2370.304	6123
2372.292	6067
2374.278	6083
2376.262	6040
2378.247	6151
2380.23	5996
2382.216	6087
2384.199	6027
2386.181	6089
2388.163	5895
2390.144	5989
2392.127	6039
2394.107	5949
2396.087	5984
2398.066	6097
2400.046	6040
2402.023	6002
2404.004	6000
2405.981	6029
2407.957	5975
2409.934	6009
2411.91	5958
2413.886	6127
2415.862	5943
2417.836	6054
2419.809	6022
2421.784	5964
2423.756	5965
2425.73	6034
2427.701	6045
2429.672	6078
2431.644	6013
2433.615	6011
2435.586	5926
2437.555	5948
2439.523	5920
2441.491	5976
2443.459	5909
2445.428	5976
2447.395	5875
2449.361	6131
2451.327	5870
2453.292	6069
2455.257	5932
2457.223	6034
2459.187	5944
2461.15	6037
2463.113	6078
2465.076	5926
2467.039	5930
2468.999	5944
2470.96	5868
2472.921	5988
2474.881	5888
2476.841	5849
2478.8	5877
2480.759	5910
2482.717	5891
2484.675	5981
2486.63	5870
2488.589	5890
2490.545	5848
2492.5	5880
2494.455	5861
2496.408	5793
2498.364	5763
2500.318	5916
2502.27	5982
2504.223	5836
2506.174	5841
2508.126	5902
2510.078	5869
2512.03	5691
2513.979	5983
2515.927	5804
2517.877	5881
2519.826	5939
2521.775	5858
2523.722	5868
2525.668	5816
2527.616	5811
2529.561	5731
2531.508	5877
2533.452	5751
2535.398	5818
2537.342	5759
2539.284	5790
2541.229	5909
2543.173	5723
2545.114	5845
2547.055	5868
2548.996	5809
2550.938	5793
2552.878	5824
2554.817	5856
2556.756	5849
2558.695	5863
2560.633	5771
2562.572	5768
2564.509	5867
2566.445	5867
2568.382	5858
2570.317	5732
2572.254	5845
2574.189	5769
2576.123	5829
2578.057	5773
2579.99	5771
2581.923	5790
2583.855	5791
2585.788	5922
2587.719	5810
2589.65	5759
2591.579	5762
2593.511	5764
2595.44	5884
2597.37	5691
2599.297	5901
2601.225	5884
2603.153	5795
2605.08	5791
2607.007	5842
2608.932	5876
2610.858	5929
2612.782	5755
2614.709	5839
2616.632	5801
2618.556	5840
2620.478	5822
2622.401	5847
2624.324	5808
2626.247	5634
2628.167	5885
2630.088	5843
2632.008	5902
2633.928	5770
2635.848	5703
2637.766	5877
2639.684	5854
2641.603	5867
2643.519	5781
2645.437	5831
2647.353	5864
2649.27	5788
2651.184	5779
2653.099	5838
2655.014	5791
2656.928	5870
2658.842	5820
2660.755	5756
2662.667	5849
2664.579	5695
2666.491	5714
2668.402	5827
2670.312	5806
2672.222	5792
2674.132	5817
2676.042	5712
2677.951	5801
2679.859	5783
2681.766	5852
2683.674	5887
2685.582	5816
2687.488	5795
2689.392	5795
2691.298	5795
2693.202	5746
2695.107	5763
2697.012	5769
2698.914	5856
2700.817	5693
2702.72	5716
2704.622	5850
2706.524	5789
2708.425	5808
2710.326	5746
2712.225	5695
2714.125	5643
2716.024	5738
2717.923	5690
2719.822	5693
2721.719	5780
2723.616	5652
2725.512	5729
2727.41	5675
2729.305	5588
2731.201	5602
2733.095	5734
2734.99	5743
2736.884	5776
2738.778	5737
2740.67	5714
2742.562	5697
2744.455	5711
2746.346	5645
2748.238	5683
2750.129	5779
2752.018	5642
2753.907	5686
2755.797	5678
2757.687	5711
2759.575	5670
2761.462	5717
2763.349	5702
2765.237	5631
2767.124	5588
2769.009	5589
2770.894	5696
2772.779	5615
2774.663	5545
2776.547	5630
2778.431	5590
2780.314	5598
2782.197	5687
2784.078	5709
2785.96	5557
2787.842	5638
2789.723	5672
2791.603	5598
2793.483	5704
2795.362	5688
2797.241	5673
2799.121	5626
2800.997	5527
2802.874	5650
2804.751	5642
2806.628	5612
2808.506	5600
2810.38	5602
2812.255	5732
2814.13	5552
2816.003	5566
2817.878	5625
2819.752	5702
2821.623	5633
2823.496	5633
2825.368	5598
2827.238	5566
2829.111	5739
2830.98	5629
2832.851	5545
2834.719	5634
2836.589	5642
2838.458	5677
2840.327	5718
2842.193	5545
2844.061	5560
2845.927	5692
2847.794	5540
2849.66	5566
2851.525	5540
2853.39	5649
2855.254	5680
2857.117	5650
2858.983	5647
2860.845	5685
2862.707	5644
2864.569	5691
2866.431	5751
2868.293	5732
2870.154	5709
2872.013	5864
2873.873	5767
2875.733	5754
2877.592	5864
2879.451	5895
2881.309	5970
2883.166	5947
2885.022	6042
2886.879	6050
2888.736	6053
2890.591	5985
2892.446	6057
2894.301	6095
2896.155	5952
2898.009	6017
2899.863	5912
2901.716	5863
2903.568	5979
2905.419	5937
2907.27	5981
2909.123	6025
2910.973	6023
2912.824	6001
2914.673	6038
2916.521	6099
2918.372	6146
2920.22	6215
2922.067	6086
2923.914	6155
2925.761	6169
2927.607	6345
2929.455	6264
2931.301	6344
2933.144	6419
2934.99	6352
2936.833	6327
2938.678	6433
2940.522	6379
2942.364	6372
2944.207	6563
2946.048	6601
2947.891	6625
2949.731	6469
2951.571	6601
2953.412	6573
2955.25	6635
2957.09	6556
2958.93	6413
2960.767	6379
2962.606	6392
2964.443	6358
2966.279	6254
2968.116	6098
2969.953	6149
2971.788	6290
2973.623	6060
2975.457	6080
2977.292	6007
2979.127	6027
2980.959	5932
2982.792	5924
2984.624	5943
2986.455	6005
2988.288	5962
2990.119	5789
2991.949	5880
2993.779	5812
2995.608	5843
2997.439	5728
2999.268	5719
3001.096	5719
3002.923	5561
3004.751	5665
3006.578	5605
3008.406	5587
3010.232	5563
3012.057	5443
3013.883	5550
3015.706	5541
3017.532	5374
3019.356	5407
3021.179	5491
3023.002	5419
3024.823	5415
3026.646	5424
3028.469	5307
3030.289	5309
3032.11	5349
3033.93	5366
3035.749	5288
3037.57	5284
3039.39	5251
3041.207	5283
3043.026	5357
3044.842	5298
3046.661	5196
3048.477	5298
3050.294	5165
3052.109	5426
3053.925	5302
3055.739	5297
3057.555	5223
3059.368	5256
3061.181	5260
3062.995	5119
3064.807	5293
3066.62	5295
3068.433	5220
3070.243	5203
3072.054	5158
3073.865	5184
3075.675	5184
3077.485	5192
3079.293	5144
3081.102	5126
3082.911	5128
3084.719	5128
3086.527	5286
3088.333	5074
3090.139	5179
3091.945	5090
3093.75	5156
3095.557	5053
3097.361	5077
3099.165	5106
3100.969	5036
3102.772	5030
3104.575	5129
3106.379	5134
3108.181	5063
3109.982	5160
3111.783	5080
3113.584	5045
3115.386	5069
3117.186	5149
3118.985	5051
3120.783	5170
3122.582	5089
3124.381	4984
3126.179	5033
3127.975	5040
3129.772	4879
3131.569	5104
3133.365	4962
3135.161	4976
3136.956	5016
3138.751	4874
3140.544	4863
3142.338	4968
3144.132	5026
3145.925	4950
3147.717	4939
3149.509	4901
3151.301	4967
3153.091	4923
3154.884	4993
3156.673	4936
3158.462	5032
3160.252	4903
3162.041	4905
3163.831	4935
3165.618	4947
3167.405	4971
3169.193	4870
3170.979	4918
3172.767	4993
3174.553	4971
3176.338	4943
3178.123	4965
3179.907	4874
3181.692	4905
3183.477	4937
3185.259	4911
3187.042	4933
3188.824	4859
3190.607	4881
3192.389	4960
3194.17	4935
3195.951	4932
3197.73	4900
3199.51	4920
3201.289	4798
3203.07	4947
3204.848	4923
3206.626	4865
3208.403	4854
3210.18	4867
3211.959	4975
3213.735	4852
3215.511	4842
3217.285	4806
3219.06	4951
3220.836	4795
3222.611	4874
3224.384	4815
3226.158	4867
3227.929	4802
3229.702	4893
3231.476	4823
3233.248	4764
3235.018	4910
3236.789	4884
3238.56	4853
3240.33	4860
3242.1	4819
3243.869	4792
3245.637	4876
3247.405	4819
3249.172	4765
3250.941	4844
3252.707	4881
3254.474	4803
3256.24	4781
3258.006	4746
3259.772	4826
3261.537	4836
3263.301	4836
3265.065	4914
3266.828	4754
3268.592	4875
3270.355	4941
3272.117	4787
3273.878	4834
3275.64	4781
3277.401	4802
3279.162	4748
3280.922	4767
3282.682	4748
3284.441	4870
3286.199	4876
3287.959	4831
3289.716	4790
3291.475	4743
3293.232	4809
3294.988	4786
3296.744	4837
3298.501	4771
3300.256	4896
3302.011	4797
3303.766	4756
3305.52	4712
3307.275	4800
3309.028	4847
3310.781	4787
3312.533	4781
3314.285	4727
3316.038	4735
3317.789	4725
3319.54	4845
3321.289	4774
3323.039	4699
3324.789	4787
3326.539	4767
3328.288	4708
3330.035	4822
3331.783	4697
3333.531	4740
3335.28	4810
3337.025	4762
3338.771	4708
3340.518	4730
3342.262	4738
3344.009	4781
3345.753	4759
3347.497	4796
3349.24	4770
3350.983	4708
3352.726	4702
3354.469	4685
3356.212	4670
3357.952	4752
3359.694	4750
3361.434	4700
3363.176	4736
3364.916	4636
3366.654	4549
3368.394	4607
3370.132	4719
3371.871	4613
3373.61	4699
3375.346	4689
3377.083	4744
3378.82	4635
3380.556	4565
3382.292	4657
3384.027	4538
3385.763	4562
3387.497	4608
3389.231	4615
3390.965	4566
3392.698	4632
3394.431	4614
3396.164	4645
3397.896	4654
3399.627	4645
3401.36	4587
3403.09	4563
3404.82	4498
3406.55	4554
3408.279	4495
3410.01	4544
3411.738	4553
3413.467	4575
3415.194	4613
3416.92	4630
3418.647	4495
3420.375	4507
3422.102	4556
3423.827	4611
3425.553	4572
3427.277	4470
3429.003	4497
3430.727	4556
3432.451	4471
3434.173	4483
3435.896	4526
3437.62	4524
3439.343	4487
3441.063	4449
3442.785	4506
3444.505	4402
3446.226	4386
3447.948	4451
3449.666	4378
3451.386	4395
3453.104	4414
3454.823	4439
3456.541	4448
3458.259	4451
3459.976	4390
3461.693	4413
3463.408	4449
3465.125	4331
3466.841	4424
3468.556	4313
3470.271	4268
3471.985	4449
3473.698	4363
3475.414	4343
3477.126	4359
3478.838	4307
3480.55	4390
3482.263	4371
3483.975	4337
3485.686	4338
3487.396	4242
3489.106	4381
3490.817	4356
3492.526	4344
3494.236	4342
3495.944	4330
3497.652	4290
3499.359	4300
3501.066	4309
3502.775	4344
3504.481	4292
3506.187	4203
3507.893	4309
3509.598	4280
3511.304	4182
3513.009	4180
3514.713	4283
3516.417	4180
3518.12	4259
3519.821	4276
3521.525	4164
3523.228	4272
3524.929	4218
3526.631	4154
3528.33	4223
3530.032	4274
3531.733	4267
3533.433	4151
3535.131	4156
3536.83	4170
3538.529	4232
3540.227	4275
3541.925	4234
3543.623	4091
3545.319	4197
3547.016	4178
3548.712	4114
3550.408	4108
3552.103	4186
3553.798	4082
3555.491	4138
3557.188	4134
3558.88	4206
3560.574	4206
3562.266	4126
3563.959	4118
3565.651	4119
3567.343	4161
3569.035	4128
3570.725	4100
3572.415	4156
3574.106	4132
3575.797	4162
3577.485	4028
3579.174	4108
3580.863	4079
3582.551	4107
3584.238	3925
3585.926	4069
3587.613	3946
3589.3	4030
3590.986	4055
3592.671	4048
3594.357	4046
3596.042	4072
3597.726	3998
3599.41	4022
3601.094	4066
3602.778	4064
3604.461	4001
3606.143	3900
3607.825	4014
3609.507	3910
3611.188	3973
3612.87	3901
3614.551	3933
3616.229	3889
3617.909	3998
3619.589	3985
3621.269	3968
3622.948	3894
3624.625	3945
3626.302	3999
3627.98	3874
3629.657	3978
3631.334	3934
3633.01	3869
3634.686	3846
3636.361	3843
3638.036	3955
3639.712	3869
3641.385	3901
3643.06	3850
3644.732	3843
3646.405	3880
3648.08	3856
3649.751	3853
3651.424	3849
3653.094	3822
3654.766	3811
3656.436	3841
3658.106	3835
3659.777	3842
3661.446	3917
3663.115	3764
3664.783	3788
3666.452	3891
3668.121	3754
3669.788	3795
3671.454	3809
3673.121	3777
3674.789	3884
3676.455	3788
3678.12	3786
3679.784	3941
3681.45	3834
3683.114	3726
3684.779	3754
3686.442	3761
3688.105	3753
3689.768	3787
3691.43	3744
3693.093	3819
3694.754	3704
3696.415	3795
3698.076	3695
3699.736	3839
3701.396	3703
3703.057	3743
3704.716	3831
3706.375	3735
3708.034	3730
3709.692	3736
3711.351	3703
3713.008	3705
3714.665	3811
3716.321	3723
3717.977	3666
3719.634	3721
3721.29	3652
3722.945	3717
3724.598	3723
3726.253	3723
3727.907	3638
3729.561	3738
3731.214	3751
3732.867	3668
3734.518	3675
3736.171	3685
3737.824	3624
3739.474	3692
3741.125	3712
3742.775	3689
3744.425	3663
3746.074	3669
3747.725	3742
3749.373	3628
3751.022	3634
3752.669	3628
3754.318	3576
3755.966	3658
3757.612	3552
3759.259	3566
3760.905	3637
3762.55	3613
3764.197	3573
3765.842	3600
3767.486	3635
3769.131	3630
3770.774	3560
3772.417	3599
3774.061	3571
3775.705	3588
3777.347	3585
3778.988	3560
3780.629	3647
3782.271	3576
3783.912	3470
3785.552	3633
3787.192	3540
3788.831	3579
3790.472	3546
3792.112	3601
3793.75	3512
3795.388	3594
3797.024	3504
3798.661	3581
3800.3	3465
3801.936	3552
3803.572	3551
3805.208	3555
3806.844	3590
3808.48	3502
3810.115	3524
3811.748	3545
3813.382	3449
3815.016	3515
3816.649	3477
3818.283	3541
3819.914	3462
3821.547	3517
3823.178	3431
3824.809	3451
3826.441	3427
3828.072	3479
3829.701	3397
3831.331	3419
3832.96	3473
3834.591	3431
3836.219	3438
3837.847	3498
3839.475	3457
3841.102	3393
3842.729	3448
3844.357	3405
3845.984	3406
3847.609	3473
3849.234	3436
3850.86	3406
3852.485	3435
3854.11	3409
3855.734	3346
3857.357	3441
3858.981	3407
3860.603	3408
3862.227	3435
3863.848	3317
3865.471	3426
3867.092	3339
3868.713	3343
3870.334	3446
3871.954	3404
3873.575	3384
3875.194	3365
3876.813	3392
3878.433	3311
3880.051	3436
3881.669	3386
3883.286	3351
3884.904	3372
3886.52	3356
3888.138	3310
3889.754	3280
3891.37	3375
3892.985	3372
3894.6	3396
3896.216	3367
3897.831	3295
3899.444	3286
3901.058	3442
3902.67	3270
3904.283	3279
3905.897	3418
3907.509	3314
3909.121	3332
3910.731	3348
3912.342	3356
3913.954	3300
3915.563	3311
3917.174	3276
3918.783	3362
3920.391	3272
3922.002	3460
3923.611	3373
3925.218	3252
3926.826	3321
3928.432	3246
3930.039	3289
3931.647	3328
3933.253	3312
3934.859	3294
3936.464	3298
3938.068	3220
3939.675	3350
3941.278	3330
3942.883	3302
3944.486	3278
3946.089	3296
3947.692	3309
3949.295	3312
3950.898	3279
3952.499	3345
3954.1	3207
3955.7	3298
3957.303	3139
3958.903	3206
3960.502	3277
3962.101	3239
3963.7	3217
3965.301	3174
3966.899	3229
3968.497	3221
3970.094	3202
3971.691	3205
3973.288	3229
3974.885	3211
3976.481	3126
3978.077	3238
3979.672	3164
3981.267	3167
3982.863	3201
3984.457	3164
3986.051	3179
3987.645	3173
3989.238	3138
3990.831	3187
3992.425	3173
3994.017	3175
3995.607	3112
3997.199	3140
3998.79	3111
4000.382	3169
4001.973	3168
4003.561	3155
4005.151	3087
4006.741	3164
4008.331	3112
4009.918	3043
4011.507	3141
4013.095	3110
4014.681	3063
4016.269	3078
4017.856	3022
4019.443	3082
4021.028	3105
4022.614	3081
4024.199	3076
4025.785	3045
4027.37	3032
4028.953	3083
4030.536	3116
4032.12	3054
4033.704	3068
4035.287	3036
4036.869	3043
4038.45	3078
4040.032	2982
4041.613	3089
4043.195	3000
4044.776	2979
4046.356	3066
4047.935	3003
4049.515	2999
4051.095	2984
4052.674	3017
4054.251	3047
4055.829	2942
4057.406	2986
4058.985	3003
4060.562	3023
4062.139	2983
4063.715	2960
4065.29	2970
4066.865	2994
4068.442	2900
4070.016	3009
4071.59	3017
4073.164	2928
4074.738	2996
4076.312	2959
4077.885	3053
4079.458	2909
4081.03	2986
4082.602	2873
4084.173	2906
4085.745	3042
4087.315	2945
4088.886	2958
4090.456	2907
4092.026	2972
4093.596	2973
4095.165	2970
4096.734	2888
4098.301	2950
4099.869	2978
4101.437	2925
4103.006	2984
4104.572	2992
4106.139	2911
4107.704	2977
4109.27	2867
4110.837	2947
4112.401	2941
4113.966	2894
4115.53	2904
4117.094	2953
4118.659	2893
4120.223	2915
4121.785	2937
4123.347	2892
4124.909	2920
4126.471	2896
4128.034	2845
4129.595	2939
4131.155	2866
4132.716	2872
4134.275	2850
4135.836	2860
4137.395	2824
4138.955	2819
4140.513	2785
4142.071	2811
4143.628	2777
4145.188	2838
4146.745	2799
4148.302	2814
4149.858	2762
4151.414	2821
4152.971	2898
4154.526	2770
4156.081	2807
4157.635	2762
4159.189	2851
4160.745	2813
4162.298	2893
4163.852	2725
4165.405	2781
4166.957	2758
4168.51	2787
4170.063	2749
4171.614	2708
4173.166	2782
4174.717	2685
4176.267	2797
4177.817	2826
4179.368	2762
4180.917	2744
4182.466	2776
4184.016	2760
4185.564	2711
4187.112	2734
4188.66	2758
4190.207	2659
4191.754	2792
4193.301	2730
4194.848	2784
4196.394	2745
4197.94	2710
4199.484	2753
4201.03	2722
4202.575	2667
4204.12	2699
4205.663	2785
4207.207	2765
4208.75	2744
4210.292	2712
4211.836	2698
4213.378	2719
4214.92	2727
4216.46	2657
4218.002	2712
4219.544	2747
4221.083	2683
4222.625	2640
4224.164	2686
4225.703	2689
4227.244	2637
4228.782	2703
4230.32	2701
4231.857	2780
4233.395	2667
4234.933	2635
4236.471	2677
4238.007	2706
4239.542	2652
4241.078	2652
4242.614	2652
4244.15	2712
4245.685	2666
4247.219	2650
4248.753	2637
4250.287	2664
4251.82	2658
4253.354	2647
4254.887	2654
4256.419	2621
4257.951	2604
4259.483	2671
4261.016	2690
4262.547	2694
4264.078	2650
4265.608	2656
4267.137	2621
4268.668	2671
4270.197	2542
4271.727	2578
4273.254	2600
4274.783	2607
4276.311	2704
4277.84	2619
4279.366	2609
4280.894	2591
4282.42	2617
4283.946	2624
4285.473	2570
4286.998	2574
4288.523	2543
4290.047	2539
4291.572	2623
4293.096	2608
4294.622	2631
4296.144	2596
4297.668	2568
4299.19	2522
4300.713	2589
4302.236	2556
4303.758	2596
4305.279	2570
4306.799	2517
4308.321	2629
4309.842	2510
4311.361	2581
4312.882	2473
4314.401	2474
