400.0961	2659
402.6185	2655
405.1424	2579
407.6635	2661
410.1838	2662
412.7035	2723
415.2225	2630
417.7388	2695
420.2585	2756
422.7754	2756
425.2917	2796
427.8072	2788
430.3221	2784
432.8363	2812
435.3498	2817
437.8626	2799
440.3727	2845
442.8841	2842
445.3969	2768
447.907	2886
450.4142	2859
452.9229	2772
455.4289	2784
457.9362	2765
460.4449	2731
462.9488	2715
465.454	2687
467.9566	2757
470.4604	2817
472.9637	2751
475.4662	2687
477.966	2735
480.4671	2717
482.9656	2847
485.4633	2727
487.9645	2778
490.4608	2753
492.9566	2803
495.4536	2776
497.948	2819
500.4437	2704
502.9387	2838
505.431	2797
507.9226	2823
510.4136	2847
512.9079	2788
515.3975	2818
517.8864	2753
520.3746	2799
522.8622	2828
525.3491	2817
527.8394	2841
530.3249	2889
532.8098	2884
535.2939	2861
537.7774	2866
540.2623	2943
542.7444	2836
545.2259	2802
547.7067	2834
550.1868	2868
552.6683	2855
555.147	2848
557.6231	2838
560.1005	2844
562.5773	2872
565.0534	2901
567.5308	2927
570.0056	2950
572.4776	2905
574.951	2914
577.4237	3043
579.8978	3016
582.3671	3026
584.8378	2953
587.3079	2992
589.7773	3023
592.244	3073
594.714	3017
597.1793	3010
599.6461	2907
602.1121	2910
604.5754	3038
607.0421	2962
609.5042	2970
611.9675	2956
614.4282	2951
616.8902	2910
619.3515	2899
621.8122	2914
624.2702	2940
626.7296	2924
629.1863	2875
631.6423	2923
634.1017	2918
636.5563	2896
639.0104	2887
641.4658	2868
643.9185	2873
646.3725	2880
648.8239	2859
651.2766	2991
653.7266	2984
656.176	2963
658.6247	2953
661.0748	2959
663.5242	2932
665.9709	2938
668.417	3030
670.8624	2973
673.3092	3012
675.7533	3024
678.1968	2973
680.6395	3029
683.0817	3024
685.5251	2994
687.9659	3073
690.4061	3003
692.8456	2984
695.2844	2934
697.7226	3053
700.1621	3021
702.599	3074
705.0332	3058
707.4688	3030
709.9036	3018
712.3399	3085
714.7735	3060
717.2044	3060
719.6367	3127
722.0683	3062
724.4993	3054
726.9296	3145
729.3593	3143
731.7883	3086
734.2147	3058
736.6423	3096
739.0714	3152
741.4958	3143
743.9216	3142
746.3447	3096
748.7691	3111
751.1929	3130
753.616	3103
756.0366	3214
758.4584	3217
760.8776	3173
763.2982	3161
765.718	3186
768.1373	3259
770.5539	3239
772.9698	3206
775.3871	3216
777.8038	3149
780.2178	3240
782.6332	3203
785.0459	3257
787.458	3228
789.8714	3178
792.2842	3254
794.6943	3122
797.1038	3123
799.5127	3259
801.9209	3298
804.3324	3238
806.7393	3210
809.1456	3134
811.5513	3301
813.9562	3175
816.3625	3270
818.7663	3225
821.1693	3288
823.5718	3300
825.9735	3255
828.3746	3301
830.7771	3266
833.177	3297
835.5762	3247
837.9747	3343
840.3727	3264
842.772	3287
845.1666	3363
847.5626	3285
849.958	3442
852.3527	3335
854.7488	3349
857.1403	3369
859.5331	3336
861.9253	3422
864.3168	3454
866.7057	3344
869.098	3394
871.4876	3394
873.8746	3349
876.263	3446
878.6487	3379
881.0378	3355
883.4243	3265
885.8081	3368
888.1933	3384
890.5759	3300
892.9598	3363
895.343	3294
897.7256	3334
900.1057	3354
902.4871	3384
904.8659	3363
907.246	3415
909.6254	3460
912.0023	3463
914.3786	3547
916.7562	3541
919.1331	3594
921.5074	3542
923.8831	3633
926.2562	3561
928.6287	3652
931.0005	3564
933.3757	3634
935.7462	3530
938.1162	3647
940.4855	3670
942.8542	3670
945.2242	3699
947.5916	3787
949.9584	3975
952.3266	3960
954.6921	4180
957.0571	4377
959.4233	4560
961.787	4599
964.15	4565
966.5125	4405
968.8742	4152
971.2354	4068
973.5959	3868
975.9559	3807
978.3151	3641
980.6738	3611
983.0338	3529
985.3912	3535
987.7461	3523
990.1022	3440
992.4578	3466
994.8127	3570
997.1689	3479
999.5207	3454
1001.874	3513
1004.226	3588
1006.576	3561
1008.929	3461
1011.28	3428
1013.628	3475
1015.977	3468
1018.324	3548
1020.674	3572
1023.019	3522
1025.366	3584
1027.713	3547
1030.056	3557
1032.399	3648
1034.746	3589
1037.087	3534
1039.431	3644
1041.771	3681
1044.113	3629
1046.454	3595
1048.793	3667
1051.133	3548
1053.471	3597
1055.807	3673
1058.146	3613
1060.483	3617
1062.818	3647
1065.153	3711
1067.489	3660
1069.822	3677
1072.156	3624
1074.488	3706
1076.82	3651
1079.15	3714
1081.48	3663
1083.814	3690
1086.143	3663
1088.471	3637
1090.799	3699
1093.126	3653
1095.452	3598
1097.78	3628
1100.105	3631
1102.43	3610
1104.754	3632
1107.077	3602
1109.4	3622
1111.722	3609
1114.044	3591
1116.365	3597
1118.685	3616
1121.005	3607
1123.324	3530
1125.643	3630
1127.961	3540
1130.278	3601
1132.595	3696
1134.911	3581
1137.226	3653
1139.541	3543
1141.854	3597
1144.167	3566
1146.482	3599
1148.793	3592
1151.105	3618
1153.414	3586
1155.725	3602
1158.033	3605
1160.344	3630
1162.651	3574
1164.959	3530
1167.265	3535
1169.572	3663
1171.878	3616
1174.184	3622
1176.488	3650
1178.79	3636
1181.094	3608
1183.396	3681
1185.699	3647
1188.001	3559
1190.301	3533
1192.6	3563
1194.9	3588
1197.2	3629
1199.497	3633
1201.794	3543
1204.09	3600
1206.387	3599
1208.684	3634
1210.978	3635
1213.272	3691
1215.565	3539
1217.858	3681
1220.15	3601
1222.443	3669
1224.734	3697
1227.024	3655
1229.313	3658
1231.602	3732
1233.892	3683
1236.18	3767
1238.467	3790
1240.754	3774
1243.04	3829
1245.325	3817
1247.612	3872
1249.896	3879
1252.178	3822
1254.461	3854
1256.743	3804
1259.027	3829
1261.308	3764
1263.587	3821
1265.867	3930
1268.146	3799
1270.425	3851
1272.703	3819
1274.981	3879
1277.256	3828
1279.532	3806
1281.808	3738
1284.083	3747
1286.358	3807
1288.63	3824
1290.904	3758
1293.175	3737
1295.449	3802
1297.719	3720
1299.99	3763
1302.259	3777
1304.529	3704
1306.798	3697
1309.065	3754
1311.333	3790
1313.599	3706
1315.866	3858
1318.131	3785
1320.396	3783
1322.66	3724
1324.925	3762
1327.187	3823
1329.448	3897
1331.711	3792
1333.974	3820
1336.234	3824
1338.493	3841
1340.752	3767
1343.01	3724
1345.269	3800
1347.526	3850
1349.784	3833
1352.04	3799
1354.295	3754
1356.552	3787
1358.806	3801
1361.059	3730
1363.312	3763
1365.564	3771
1367.818	3802
1370.069	3766
1372.318	3845
1374.568	3893
1376.817	3768
1379.066	3814
1381.316	3864
1383.564	3797
1385.809	3920
1388.056	3887
1390.301	3867
1392.549	3899
1394.793	3943
1397.036	3922
1399.279	4055
1401.522	4001
1403.763	4013
1406.007	3953
1408.248	3970
1410.487	3988
1412.727	3982
1414.965	3887
1417.205	4010
1419.442	3962
1421.68	3927
1423.915	4041
1426.152	3889
1428.388	3952
1430.623	3989
1432.857	4005
1435.091	3956
1437.323	4001
1439.556	3942
1441.789	4090
1444.019	3958
1446.25	4039
1448.48	4086
1450.708	4055
1452.938	4080
1455.167	4155
1457.394	4068
1459.62	4067
1461.846	4064
1464.073	4102
1466.299	3958
1468.523	3991
1470.746	4029
1472.969	4029
1475.191	3925
1477.415	3949
1479.636	3896
1481.858	3866
1484.078	3893
1486.298	3870
1488.518	3837
1490.736	3812
1492.954	3771
1495.169	3784
1497.386	3855
1499.602	3830
1501.819	3763
1504.034	3776
1506.248	3772
1508.462	3822
1510.675	3832
1512.888	3767
1515.1	3771
1517.311	3721
1519.522	3759
1521.732	3794
1523.942	3869
1526.151	3761
1528.36	3809
1530.566	3809
1532.773	3870
1534.98	3813
1537.187	3811
1539.392	3832
1541.596	3754
1543.801	3809
1546.005	3916
1548.208	3804
1550.411	3812
1552.612	3873
1554.814	3862
1557.013	3911
1559.212	3763
1561.414	3800
1563.612	3849
1565.811	3915
1568.007	3909
1570.203	3860
1572.403	3917
1574.598	3876
1576.792	3867
1578.988	3934
1581.181	3835
1583.376	3945
1585.568	3952
1587.761	3885
1589.952	3892
1592.143	3920
1594.333	3879
1596.524	3944
1598.715	3948
1600.903	3913
1603.091	3945
1605.278	4001
1607.466	3936
1609.652	3927
1611.838	4005
1614.023	4030
1616.207	4029
1618.391	3965
1620.576	3953
1622.759	4005
1624.941	3907
1627.123	3946
1629.304	3987
1631.484	4050
1633.664	4103
1635.844	4043
1638.022	4008
1640.201	4023
1642.38	4013
1644.556	3942
1646.732	4057
1648.908	4007
1651.084	4093
1653.257	3997
1655.433	4140
1657.607	4046
1659.779	4051
1661.951	4081
1664.122	4146
1666.295	4138
1668.467	4163
1670.635	4119
1672.805	4149
1674.973	4048
1677.142	4082
1679.31	4058
1681.478	4094
1683.644	4014
1685.81	4034
1687.975	4038
1690.142	4077
1692.305	4041
1694.468	4127
1696.632	3965
1698.794	4013
1700.957	3964
1703.119	4023
1705.279	4009
1707.439	3999
1709.598	3925
1711.758	3959
1713.917	3925
1716.075	3946
1718.231	3944
1720.388	3957
1722.543	3880
1724.702	4027
1726.856	3937
1729.01	3921
1731.164	3875
1733.317	3799
1735.471	3862
1737.623	3855
1739.774	3971
1741.925	3956
1744.075	3881
1746.225	3944
1748.376	4001
1750.524	3916
1752.672	3942
1754.82	3988
1756.965	3921
1759.113	3880
1761.259	3957
1763.405	3923
1765.549	3986
1767.694	3912
1769.836	4081
1771.981	3939
1774.123	3923
1776.264	3968
1778.405	3950
1780.546	3988
1782.687	4017
1784.827	3919
1786.966	3857
1789.103	3980
1791.242	3984
1793.381	3981
1795.517	3924
1797.653	3997
1799.788	3982
1801.923	3949
1804.057	3914
1806.193	3948
1808.326	4056
1810.457	3997
1812.59	4015
1814.721	3939
1816.855	3879
1818.984	3964
1821.113	3981
1823.244	3937
1825.372	4011
1827.499	3992
1829.63	3885
1831.756	3973
1833.882	3976
1836.007	3898
1838.132	3927
1840.26	3946
1842.384	3935
1844.507	3946
1846.63	4058
1848.752	3834
1850.875	4015
1852.996	3996
1855.118	3996
1857.238	3972
1859.358	3953
1861.477	3980
1863.597	3969
1865.715	3984
1867.832	3831
1869.948	4014
1872.064	3918
1874.181	3893
1876.297	3876
1878.411	3866
1880.526	3917
1882.639	3891
1884.752	3961
1886.865	3955
1888.977	3918
1891.089	3954
1893.2	3928
1895.308	3948
1897.42	3970
1899.53	4003
1901.639	4069
1903.745	3928
1905.853	4043
1907.962	4018
1910.067	3953
1912.174	3938
1914.278	3990
1916.383	3923
1918.486	4003
1920.592	4044
1922.694	4009
1924.797	3963
1926.898	4015
1929	4039
1931.102	3978
1933.203	3967
1935.301	4047
1937.401	3933
1939.499	4018
1941.598	4031
1943.697	4054
1945.793	3982
1947.888	4133
1949.985	3946
1952.08	4043
1954.176	4029
1956.269	4100
1958.364	4028
1960.457	3964
1962.549	4067
1964.642	3982
1966.733	4102
1968.823	4055
1970.913	4006
1973.005	3984
1975.093	4015
1977.184	3929
1979.271	4011
1981.359	3975
1983.446	3979
1985.532	3958
1987.619	4023
1989.705	4039
1991.789	3970
1993.874	3929
1995.956	3903
1998.041	3982
2000.123	3945
2002.206	3980
2004.287	3979
2006.368	3959
2008.449	4000
2010.529	4010
2012.609	3934
2014.688	3944
2016.766	3977
2018.843	3897
2020.922	3946
2022.999	3946
2025.074	3933
2027.15	3976
2029.225	4008
2031.299	3926
2033.375	3969
2035.447	3926
2037.52	4011
2039.592	3948
2041.664	3944
2043.736	3961
2045.807	3978
2047.876	3948
2049.947	4033
2052.015	3961
2054.086	3980
2056.153	3998
2058.221	4008
2060.288	3969
2062.353	3911
2064.42	3974
2066.486	4015
2068.55	3955
2070.614	3976
2072.678	3998
2074.741	4059
2076.805	3973
2078.866	3907
2080.929	3979
2082.99	4017
2085.049	3978
2087.109	4012
2089.17	4048
2091.228	3935
2093.286	3954
2095.344	4027
2097.4	4034
2099.46	4068
2101.516	4022
2103.572	3939
2105.626	3982
2107.679	3915
2109.735	4031
2111.788	4007
2113.841	3985
2115.894	4041
2117.945	4021
2119.997	4023
2122.049	3981
2124.1	4010
2126.148	4044
2128.197	4017
2130.246	3945
2132.296	3956
2134.342	4012
2136.39	4040
2138.437	3992
2140.483	3993
2142.527	3978
2144.574	3936
2146.619	3945
2148.661	4021
2150.705	4024
2152.747	4025
2154.792	3942
2156.832	4007
2158.874	4006
2160.915	3994
2162.954	3968
2164.995	3974
2167.034	4047
2169.072	4025
2171.111	3979
2173.148	3987
2175.186	3975
2177.223	3920
2179.258	3908
2181.294	4066
2183.328	3937
2185.362	3979
2187.398	3942
2189.431	4021
2191.463	3939
2193.495	3935
2195.528	3918
2197.56	3963
2199.59	3881
2201.62	4008
2203.649	3996
2205.678	3963
2207.708	3931
2209.737	3934
2211.764	3896
2213.791	3960
2215.817	3917
2217.843	3922
2219.87	3971
2221.895	3974
2223.919	3928
2225.942	3951
2227.966	3907
2229.988	3890
2232.012	3841
2234.032	3982
2236.054	4018
2238.074	3911
2240.095	3890
2242.116	3931
2244.135	3907
2246.153	3866
2248.171	3963
2250.188	3838
2252.208	3925
2254.223	3878
2256.239	3897
2258.255	3915
2260.269	3873
2262.283	3987
2264.3	3906
2266.312	3915
2268.325	3887
2270.336	3900
2272.349	3899
2274.362	3878
2276.372	4011
2278.383	3911
2280.392	3894
2282.402	3922
2284.409	3929
2286.418	3953
2288.427	3980
2290.433	3893
2292.441	3926
2294.446	3992
2296.453	3880
2298.459	3898
2300.463	3883
2302.466	3893
2304.471	3954
2306.475	3959
2308.477	3905
2310.478	3948
2312.481	3873
2314.481	3955
2316.481	3913
2318.482	3858
2320.482	3931
2322.48	3927
2324.48	3913
2326.478	3820
2328.476	3965
2330.473	3961
2332.469	3884
2334.465	3811
2336.46	3881
2338.454	3846
2340.45	3889
2342.444	3859
2344.437	3907
2346.43	3760
2348.421	3898
2350.414	3895
2352.405	3814
2354.396	3899
2356.386	3827
2358.376	3846
2360.366	3949
2362.355	3863
2364.343	3873
2366.331	3855
2368.317	3915
2370.304	3880
2372.292	3873
2374.278	3803
2376.262	3838
2378.247	3864
2380.23	3794
2382.216	3901
2384.199	3784
2386.181	3770
2388.163	3842
2390.144	3884
2392.127	3833
2394.107	3834
2396.087	3827
2398.066	3772
2400.046	3861
2402.023	3869
2404.004	3852
2405.981	3763
2407.957	3770
2409.934	3763
2411.91	3847
2413.886	3763
2415.862	3818
2417.836	3771
2419.809	3868
2421.784	3754
2423.756	3811
2425.73	3928
2427.701	3901
2429.672	3857
2431.644	3818
2433.615	3825
2435.586	3793
2437.555	3853
2439.523	3865
2441.491	3884
2443.459	3805
2445.428	3796
2447.395	3804
2449.361	3870
2451.327	3761
2453.292	3862
2455.257	3869
2457.223	3845
2459.187	3840
2461.15	3762
2463.113	3835
2465.076	3793
2467.039	3791
2468.999	3841
2470.96	3799
2472.921	3855
2474.881	3747
2476.841	3807
2478.8	3823
2480.759	3767
2482.717	3842
2484.675	3839
2486.63	3811
2488.589	3795
2490.545	3807
2492.5	3804
2494.455	3882
2496.408	3777
2498.364	3788
2500.318	3758
2502.27	3807
2504.223	3705
2506.174	3826
2508.126	3834
2510.078	3740
2512.03	3714
2513.979	3810
2515.927	3712
2517.877	3742
2519.826	3789
2521.775	3784
2523.722	3798
2525.668	3709
2527.616	3788
2529.561	3848
2531.508	3710
2533.452	3768
2535.398	3746
2537.342	3790
2539.284	3745
2541.229	3794
2543.173	3757
2545.114	3736
2547.055	3784
2548.996	3734
2550.938	3786
2552.878	3726
2554.817	3806
2556.756	3807
2558.695	3738
2560.633	3810
2562.572	3769
2564.509	3777
2566.445	3764
2568.382	3798
2570.317	3865
2572.254	3840
2574.189	3750
2576.123	3742
2578.057	3786
2579.99	3775
2581.923	3710
2583.855	3790
2585.788	3721
2587.719	3714
2589.65	3832
2591.579	3771
2593.511	3796
2595.44	3763
2597.37	3749
2599.297	3840
2601.225	3775
2603.153	3772
2605.08	3810
2607.007	3754
2608.932	3726
2610.858	3754
2612.782	3830
2614.709	3795
2616.632	3697
2618.556	3777
2620.478	3725
2622.401	3819
2624.324	3788
2626.247	3825
2628.167	3854
2630.088	3818
2632.008	3816
2633.928	3783
2635.848	3845
2637.766	3707
2639.684	3753
2641.603	3795
2643.519	3821
2645.437	3811
2647.353	3735
2649.27	3835
2651.184	3855
2653.099	3805
2655.014	3879
2656.928	3803
2658.842	3815
2660.755	3758
2662.667	3819
2664.579	3860
2666.491	3803
2668.402	3808
2670.312	3772
2672.222	3835
2674.132	3798
2676.042	3801
2677.951	3845
2679.859	3725
2681.766	3841
2683.674	3871
2685.582	3717
2687.488	3802
2689.392	3809
2691.298	3774
2693.202	3816
2695.107	3776
2697.012	3756
2698.914	3733
2700.817	3736
2702.72	3810
2704.622	3803
2706.524	3766
2708.425	3697
2710.326	3748
2712.225	3678
2714.125	3725
2716.024	3723
2717.923	3736
2719.822	3811
2721.719	3719
2723.616	3798
2725.512	3733
2727.41	3787
2729.305	3776
2731.201	3774
2733.095	3772
2734.99	3803
2736.884	3740
2738.778	3808
2740.67	3747
2742.562	3835
2744.455	3758
2746.346	3659
2748.238	3703
2750.129	3691
2752.018	3767
2753.907	3750
2755.797	3681
2757.687	3784
2759.575	3725
2761.462	3808
2763.349	3781
2765.237	3782
2767.124	3803
2769.009	3745
2770.894	3743
2772.779	3760
2774.663	3672
2776.547	3760
2778.431	3776
2780.314	3799
2782.197	3813
2784.078	3735
2785.96	3734
2787.842	3806
2789.723	3758
2791.603	3771
2793.483	3680
2795.362	3709
2797.241	3777
2799.121	3708
2800.997	3644
2802.874	3742
2804.751	3644
2806.628	3740
2808.506	3757
2810.38	3714
2812.255	3804
2814.13	3758
2816.003	3790
2817.878	3771
2819.752	3697
2821.623	3733
2823.496	3721
2825.368	3745
2827.238	3703
2829.111	3703
2830.98	3741
2832.851	3732
2834.719	3714
2836.589	3812
2838.458	3708
2840.327	3729
2842.193	3742
2844.061	3803
2845.927	3744
2847.794	3679
2849.66	3839
2851.525	3741
2853.39	3785
2855.254	3898
2857.117	3797
2858.983	3857
2860.845	3803
2862.707	4001
2864.569	3974
2866.431	3869
2868.293	3958
2870.154	4009
2872.013	4056
2873.873	4073
2875.733	4087
2877.592	4120
2879.451	4152
2881.309	4259
2883.166	4172
2885.022	4194
2886.879	4277
2888.736	4257
2890.591	4259
2892.446	4221
2894.301	4172
2896.155	4211
2898.009	4264
2899.863	4196
2901.716	4220
2903.568	4272
2905.419	4245
2907.27	4256
2909.123	4328
2910.973	4287
2912.824	4325
2914.673	4306
2916.521	4446
2918.372	4449
2920.22	4495
2922.067	4512
2923.914	4587
2925.761	4632
2927.607	4665
2929.455	4661
2931.301	4659
2933.144	4694
2934.99	4805
2936.833	4740
2938.678	4831
2940.522	4923
2942.364	5053
2944.207	4940
2946.048	4907
2947.891	5030
2949.731	5009
2951.571	4973
2953.412	4986
2955.25	4997
2957.09	4822
2958.93	4834
2960.767	4842
2962.606	4753
2964.443	4745
2966.279	4576
2968.116	4588
2969.953	4559
2971.788	4460
2973.623	4561
2975.457	4434
2977.292	4464
2979.127	4426
2980.959	4410
2982.792	4283
2984.624	4222
2986.455	4264
2988.288	4301
2990.119	4172
2991.949	4326
2993.779	4262
2995.608	4100
2997.439	4135
2999.268	4090
3001.096	4059
3002.923	4012
3004.751	4009
3006.578	3939
3008.406	3867
3010.232	3972
3012.057	3833
3013.883	3850
3015.706	3765
3017.532	3817
3019.356	3798
3021.179	3844
3023.002	3774
3024.823	3694
3026.646	3724
3028.469	3706
3030.289	3703
3032.11	3622
3033.93	3712
3035.749	3692
3037.57	3763
3039.39	3605
3041.207	3601
3043.026	3607
3044.842	3679
3046.661	3630
3048.477	3607
3050.294	3620
3052.109	3567
3053.925	3635
3055.739	3602
3057.555	3625
3059.368	3549
3061.181	3601
3062.995	3654
3064.807	3639
3066.62	3625
3068.433	3687
3070.243	3595
3072.054	3652
3073.865	3629
3075.675	3603
3077.485	3646
3079.293	3586
3081.102	3589
3082.911	3601
3084.719	3580
3086.527	3535
3088.333	3561
3090.139	3595
3091.945	3490
3093.75	3517
3095.557	3511
3097.361	3632
3099.165	3565
3100.969	3540
3102.772	3463
3104.575	3454
3106.379	3541
3108.181	3529
3109.982	3555
3111.783	3542
3113.584	3517
3115.386	3472
3117.186	3526
3118.985	3496
3120.783	3493
3122.582	3501
3124.381	3453
3126.179	3401
3127.975	3480
3129.772	3406
3131.569	3541
3133.365	3410
3135.161	3469
3136.956	3435
3138.751	3504
3140.544	3413
3142.338	3483
3144.132	3475
3145.925	3450
3147.717	3464
3149.509	3391
3151.301	3405
3153.091	3456
3154.884	3373
3156.673	3437
3158.462	3440
3160.252	3418
3162.041	3345
3163.831	3430
3165.618	3454
3167.405	3356
3169.193	3472
3170.979	3491
3172.767	3459
3174.553	3395
3176.338	3516
3178.123	3458
3179.907	3421
3181.692	3459
3183.477	3424
3185.259	3427
3187.042	3371
3188.824	3443
3190.607	3488
3192.389	3483
3194.17	3411
3195.951	3323
3197.73	3374
3199.51	3409
3201.289	3336
3203.07	3376
3204.848	3411
3206.626	3440
3208.403	3379
3210.18	3417
3211.959	3405
3213.735	3426
3215.511	3375
3217.285	3456
3219.06	3466
3220.836	3405
3222.611	3430
3224.384	3486
3226.158	3438
3227.929	3380
3229.702	3358
3231.476	3402
3233.248	3426
3235.018	3472
3236.789	3423
3238.56	3392
3240.33	3411
3242.1	3419
3243.869	3408
3245.637	3379
3247.405	3410
3249.172	3500
3250.941	3372
3252.707	3370
3254.474	3411
3256.24	3422
3258.006	3441
3259.772	3450
3261.537	3413
3263.301	3498
3265.065	3410
3266.828	3437
3268.592	3436
3270.355	3442
3272.117	3485
3273.878	3392
3275.64	3490
3277.401	3445
3279.162	3473
3280.922	3480
3282.682	3434
3284.441	3411
3286.199	3495
3287.959	3382
3289.716	3423
3291.475	3450
3293.232	3458
3294.988	3473
3296.744	3481
3298.501	3404
3300.256	3489
3302.011	3457
3303.766	3430
3305.52	3416
3307.275	3378
3309.028	3370
3310.781	3386
3312.533	3387
3314.285	3465
3316.038	3389
3317.789	3467
3319.54	3352
3321.289	3394
3323.039	3419
3324.789	3397
3326.539	3438
3328.288	3490
3330.035	3420
3331.783	3361
3333.531	3425
3335.28	3382
3337.025	3446
3338.771	3363
3340.518	3451
3342.262	3368
3344.009	3407
3345.753	3411
3347.497	3414
3349.24	3400
3350.983	3360
3352.726	3408
3354.469	3343
3356.212	3444
3357.952	3418
3359.694	3434
3361.434	3366
3363.176	3362
3364.916	3367
3366.654	3426
3368.394	3251
3370.132	3406
3371.871	3338
3373.61	3248
3375.346	3369
3377.083	3355
3378.82	3328
3380.556	3402
3382.292	3236
3384.027	3324
3385.763	3365
3387.497	3353
3389.231	3305
3390.965	3260
3392.698	3305
3394.431	3340
3396.164	3384
3397.896	3294
3399.627	3315
3401.36	3305
3403.09	3336
3404.82	3293
3406.55	3267
3408.279	3321
3410.01	3321
3411.738	3266
3413.467	3369
3415.194	3302
3416.92	3256
3418.647	3317
3420.375	3331
3422.102	3274
3423.827	3267
3425.553	3285
3427.277	3245
3429.003	3260
3430.727	3306
3432.451	3252
3434.173	3224
3435.896	3268
3437.62	3218
3439.343	3190
3441.063	3317
3442.785	3254
3444.505	3200
3446.226	3261
3447.948	3221
3449.666	3226
3451.386	3112
3453.104	3171
3454.823	3219
3456.541	3156
3458.259	3196
3459.976	3196
3461.693	3204
3463.408	3198
3465.125	3253
3466.841	3236
3468.556	3245
3470.271	3139
3471.985	3183
3473.698	3240
3475.414	3058
3477.126	3184
3478.838	3094
3480.55	3164
3482.263	3151
3483.975	3165
3485.686	3202
3487.396	3153
3489.106	3126
3490.817	3123
3492.526	3123
3494.236	3076
3495.944	3126
3497.652	3118
3499.359	3135
3501.066	3041
3502.775	3138
3504.481	3008
3506.187	3118
3507.893	3042
3509.598	3088
3511.304	3057
3513.009	3077
3514.713	3092
3516.417	3105
3518.12	3105
3519.821	3045
3521.525	3033
3523.228	3001
3524.929	3093
3526.631	3057
3528.33	3066
3530.032	3069
3531.733	3033
3533.433	3047
3535.131	2966
3536.83	3051
3538.529	3027
3540.227	3037
3541.925	2988
3543.623	2960
3545.319	3016
3547.016	3071
3548.712	3063
3550.408	2920
3552.103	3021
3553.798	2996
3555.491	3019
3557.188	3016
3558.88	3009
3560.574	2979
3562.266	2957
3563.959	2943
3565.651	2987
3567.343	2984
3569.035	2967
3570.725	2935
3572.415	2922
3574.106	2951
3575.797	2943
3577.485	2944
3579.174	2965
3580.863	2985
3582.551	3038
3584.238	2934
3585.926	2895
3587.613	2941
3589.3	3000
3590.986	2947
3592.671	2882
3594.357	2869
3596.042	2955
3597.726	2879
3599.41	2897
3601.094	2904
3602.778	2951
3604.461	2858
3606.143	2804
3607.825	2882
3609.507	2875
3611.188	2865
3612.87	2888
3614.551	2895
3616.229	2837
3617.909	2765
3619.589	2785
3621.269	2856
3622.948	2817
3624.625	2876
3626.302	2865
3627.98	2807
3629.657	2818
3631.334	2845
3633.01	2812
3634.686	2826
3636.361	2787
3638.036	2826
3639.712	2795
3641.385	2870
3643.06	2752
3644.732	2768
3646.405	2780
3648.08	2836
3649.751	2755
3651.424	2783
3653.094	2809
3654.766	2787
3656.436	2733
3658.106	2827
3659.777	2710
3661.446	2725
3663.115	2848
3664.783	2727
3666.452	2732
3668.121	2788
3669.788	2780
3671.454	2810
3673.121	2741
3674.789	2805
3676.455	2761
3678.12	2828
3679.784	2708
3681.45	2761
3683.114	2713
3684.779	2763
3686.442	2774
3688.105	2693
3689.768	2720
3691.43	2696
3693.093	2679
3694.754	2707
3696.415	2786
3698.076	2731
3699.736	2712
3701.396	2707
3703.057	2757
3704.716	2667
3706.375	2679
3708.034	2681
3709.692	2696
3711.351	2704
3713.008	2658
3714.665	2736
3716.321	2774
3717.977	2736
3719.634	2683
3721.29	2721
3722.945	2690
3724.598	2769
3726.253	2696
3727.907	2724
3729.561	2650
3731.214	2676
3732.867	2720
3734.518	2717
3736.171	2682
3737.824	2655
3739.474	2649
3741.125	2747
3742.775	2663
3744.425	2737
3746.074	2720
3747.725	2653
3749.373	2680
3751.022	2704
3752.669	2677
3754.318	2670
3755.966	2654
3757.612	2728
3759.259	2640
3760.905	2650
3762.55	2649
3764.197	2626
3765.842	2646
3767.486	2632
3769.131	2669
3770.774	2592
3772.417	2653
3774.061	2585
3775.705	2650
3777.347	2626
3778.988	2646
3780.629	2576
3782.271	2597
3783.912	2570
3785.552	2599
3787.192	2679
3788.831	2589
3790.472	2572
3792.112	2554
3793.75	2587
3795.388	2596
3797.024	2592
3798.661	2586
3800.3	2583
3801.936	2555
3803.572	2584
3805.208	2630
3806.844	2593
3808.48	2598
3810.115	2534
3811.748	2612
3813.382	2552
3815.016	2576
3816.649	2544
3818.283	2610
3819.914	2604
3821.547	2569
3823.178	2514
3824.809	2575
3826.441	2599
3828.072	2616
3829.701	2509
3831.331	2555
3832.96	2517
3834.591	2531
3836.219	2502
3837.847	2524
3839.475	2573
3841.102	2573
3842.729	2542
3844.357	2567
3845.984	2529
3847.609	2533
3849.234	2586
3850.86	2523
3852.485	2532
3854.11	2554
3855.734	2485
3857.357	2577
3858.981	2490
3860.603	2498
3862.227	2484
3863.848	2501
3865.471	2527
3867.092	2502
3868.713	2537
3870.334	2523
3871.954	2532
3873.575	2501
3875.194	2550
3876.813	2493
3878.433	2482
3880.051	2469
3881.669	2505
3883.286	2511
3884.904	2417
3886.52	2483
3888.138	2441
3889.754	2486
3891.37	2498
3892.985	2454
3894.6	2569
3896.216	2461
3897.831	2452
3899.444	2468
3901.058	2503
3902.67	2456
3904.283	2460
3905.897	2426
3907.509	2535
3909.121	2411
3910.731	2515
3912.342	2477
3913.954	2476
3915.563	2509
3917.174	2466
3918.783	2512
3920.391	2405
3922.002	2482
3923.611	2526
3925.218	2528
3926.826	2442
3928.432	2442
3930.039	2410
3931.647	2434
3933.253	2499
3934.859	2440
3936.464	2472
3938.068	2421
3939.675	2440
3941.278	2442
3942.883	2496
3944.486	2473
3946.089	2445
3947.692	2428
3949.295	2458
3950.898	2419
3952.499	2440
3954.1	2421
3955.7	2408
3957.303	2445
3958.903	2499
3960.502	2416
3962.101	2388
3963.7	2412
3965.301	2458
3966.899	2440
3968.497	2433
3970.094	2460
3971.691	2347
3973.288	2374
3974.885	2443
3976.481	2411
3978.077	2328
3979.672	2381
3981.267	2416
3982.863	2428
3984.457	2415
3986.051	2371
3987.645	2404
3989.238	2350
3990.831	2386
3992.425	2348
3994.017	2412
3995.607	2308
3997.199	2358
3998.79	2428
4000.382	2356
4001.973	2375
4003.561	2354
4005.151	2339
4006.741	2410
4008.331	2334
4009.918	2401
4011.507	2338
4013.095	2305
4014.681	2271
4016.269	2366
4017.856	2336
4019.443	2340
4021.028	2322
4022.614	2317
4024.199	2359
4025.785	2317
4027.37	2378
4028.953	2389
4030.536	2285
4032.12	2377
4033.704	2324
4035.287	2291
4036.869	2296
4038.45	2302
4040.032	2285
4041.613	2320
4043.195	2320
4044.776	2281
4046.356	2240
4047.935	2288
4049.515	2294
4051.095	2273
4052.674	2279
4054.251	2297
4055.829	2244
4057.406	2291
4058.985	2269
4060.562	2320
4062.139	2217
4063.715	2252
4065.29	2258
4066.865	2296
4068.442	2298
4070.016	2270
4071.59	2219
4073.164	2281
4074.738	2304
4076.312	2255
4077.885	2301
4079.458	2278
4081.03	2206
4082.602	2357
4084.173	2265
4085.745	2235
4087.315	2290
4088.886	2260
4090.456	2312
4092.026	2270
4093.596	2256
4095.165	2317
4096.734	2288
4098.301	2253
4099.869	2261
4101.437	2224
4103.006	2246
4104.572	2279
4106.139	2217
4107.704	2243
4109.27	2177
4110.837	2253
4112.401	2261
4113.966	2277
4115.53	2160
4117.094	2268
4118.659	2317
4120.223	2238
4121.785	2170
4123.347	2221
4124.909	2220
4126.471	2174
4128.034	2193
4129.595	2291
4131.155	2288
4132.716	2168
4134.275	2238
4135.836	2214
4137.395	2171
4138.955	2177
4140.513	2133
4142.071	2178
4143.628	2174
4145.188	2235
4146.745	2174
4148.302	2197
4149.858	2190
4151.414	2202
4152.971	2159
4154.526	2142
4156.081	2189
4157.635	2166
4159.189	2236
4160.745	2197
4162.298	2173
4163.852	2155
4165.405	2207
4166.957	2089
4168.51	2166
4170.063	2142
4171.614	2166
4173.166	2186
4174.717	2196
4176.267	2055
4177.817	2143
4179.368	2182
4180.917	2124
4182.466	2168
4184.016	2142
4185.564	2126
4187.112	2160
4188.66	2107
4190.207	2144
4191.754	2140
4193.301	2116
4194.848	2097
4196.394	2127
4197.94	2113
4199.484	2150
4201.03	2105
4202.575	2085
4204.12	2185
4205.663	2158
4207.207	2117
4208.75	2138
4210.292	2135
4211.836	2149
4213.378	2126
4214.92	2078
4216.46	2075
4218.002	2154
4219.544	2058
4221.083	2050
4222.625	2084
4224.164	2116
4225.703	2108
4227.244	2105
4228.782	2049
4230.32	2107
4231.857	2045
4233.395	2066
4234.933	2038
4236.471	2108
4238.007	2075
4239.542	2127
4241.078	2074
4242.614	2057
4244.15	2132
4245.685	2069
4247.219	2060
4248.753	2178
4250.287	2109
4251.82	2090
4253.354	2120
4254.887	2063
4256.419	2035
4257.951	2087
4259.483	2100
4261.016	2046
4262.547	2038
4264.078	2116
4265.608	2078
4267.137	2061
4268.668	2037
4270.197	2034
4271.727	2022
4273.254	2036
4274.783	2013
4276.311	2033
4277.84	2056
4279.366	2067
4280.894	1996
4282.42	2099
4283.946	2018
4285.473	2042
4286.998	2075
4288.523	2022
4290.047	2063
4291.572	2060
4293.096	2010
4294.622	2074
4296.144	2051
4297.668	2020
4299.19	2049
4300.713	2012
4302.236	2061
4303.758	2043
4305.279	2001
4306.799	2002
4308.321	1991
4309.842	2032
4311.361	1981
4312.882	2002
4314.401	1978
