400.0961	3508
402.6185	3483
405.1424	3540
407.6635	3404
410.1838	3498
412.7035	3460
415.2225	3436
417.7388	3575
420.2585	3526
422.7754	3598
425.2917	3638
427.8072	3689
430.3221	3715
432.8363	3594
435.3498	3672
437.8626	3659
440.3727	3611
442.8841	3647
445.3969	3692
447.907	3707
450.4142	3687
452.9229	3674
455.4289	3757
457.9362	3661
460.4449	3668
462.9488	3655
465.454	3701
467.9566	3709
470.4604	3686
472.9637	3653
475.4662	3763
477.966	3746
480.4671	3745
482.9656	3662
485.4633	3790
487.9645	3784
490.4608	3800
492.9566	3789
495.4536	3870
497.948	3797
500.4437	3782
502.9387	3756
505.431	3936
507.9226	3838
510.4136	3828
512.9079	3771
515.3975	3843
517.8864	3837
520.3746	3823
522.8622	3849
525.3491	3894
527.8394	3942
530.3249	3814
532.8098	3913
535.2939	3918
537.7774	3884
540.2623	3824
542.7444	3840
545.2259	3822
547.7067	3874
550.1868	3841
552.6683	3879
555.147	3869
557.6231	3859
560.1005	3863
562.5773	3966
565.0534	3945
567.5308	3894
570.0056	3924
572.4776	3946
574.951	3929
577.4237	3958
579.8978	3973
582.3671	3998
584.8378	3986
587.3079	3938
589.7773	3908
592.244	4026
594.714	4038
597.1793	4045
599.6461	3978
602.1121	3975
604.5754	3983
607.0421	3970
609.5042	4001
611.9675	3928
614.4282	4022
616.8902	4074
619.3515	4002
621.8122	4038
624.2702	3901
626.7296	4010
629.1863	3955
631.6423	4008
634.1017	4014
636.5563	3987
639.0104	4035
641.4658	4012
643.9185	4053
646.3725	4013
648.8239	4124
651.2766	4165
653.7266	4053
656.176	4089
658.6247	4054
661.0748	4173
663.5242	4052
665.9709	4123
668.417	4115
670.8624	4087
673.3092	4112
675.7533	4166
678.1968	4155
680.6395	4106
683.0817	4099
685.5251	4188
687.9659	4167
690.4061	4269
692.8456	4132
695.2844	4173
697.7226	4119
700.1621	4158
702.599	4156
705.0332	4302
707.4688	4083
709.9036	4163
712.3399	4236
714.7735	4277
717.2044	4191
719.6367	4275
722.0683	4263
724.4993	4287
726.9296	4254
729.3593	4187
731.7883	4288
734.2147	4228
736.6423	4327
739.0714	4284
741.4958	4337
743.9216	4294
746.3447	4394
748.7691	4341
751.1929	4372
753.616	4379
756.0366	4474
758.4584	4419
760.8776	4501
763.2982	4384
765.718	4490
768.1373	4450
770.5539	4467
772.9698	4486
775.3871	4385
777.8038	4380
780.2178	4373
782.6332	4423
785.0459	4478
787.458	4427
789.8714	4424
792.2842	4419
794.6943	4347
797.1038	4391
799.5127	4479
801.9209	4445
804.3324	4398
806.7393	4511
809.1456	4450
811.5513	4459
813.9562	4397
816.3625	4365
818.7663	4465
821.1693	4475
823.5718	4552
825.9735	4505
828.3746	4378
830.7771	4444
833.177	4439
835.5762	4491
837.9747	4538
840.3727	4576
842.772	4535
845.1666	4530
847.5626	4515
849.958	4610
852.3527	4598
854.7488	4566
857.1403	4447
859.5331	4538
861.9253	4485
864.3168	4538
866.7057	4506
869.098	4555
871.4876	4492
873.8746	4528
876.263	4560
878.6487	4600
881.0378	4555
883.4243	4510
885.8081	4500
888.1933	4588
890.5759	4442
892.9598	4524
895.343	4547
897.7256	4566
900.1057	4524
902.4871	4563
904.8659	4555
907.246	4641
909.6254	4601
912.0023	4532
914.3786	4698
916.7562	4628
919.1331	4647
921.5074	4646
923.8831	4710
926.2562	4671
928.6287	4677
931.0005	4776
933.3757	4728
935.7462	4791
938.1162	4771
940.4855	4842
942.8542	4796
945.2242	4815
947.5916	4931
949.9584	4963
952.3266	4986
954.6921	5159
957.0571	5118
959.4233	5305
961.787	5298
964.15	5319
966.5125	5326
968.8742	5195
971.2354	4934
973.5959	4929
975.9559	4839
978.3151	4809
980.6738	4842
983.0338	4801
985.3912	4717
987.7461	4688
990.1022	4726
992.4578	4674
994.8127	4693
997.1689	4675
999.5207	4680
1001.874	4804
1004.226	4804
1006.576	4721
1008.929	4713
1011.28	4777
1013.628	4707
1015.977	4728
1018.324	4837
1020.674	4728
1023.019	4708
1025.366	4685
1027.713	4764
1030.056	4745
1032.399	4846
1034.746	4792
1037.087	4915
1039.431	4840
1041.771	4868
1044.113	4794
1046.454	4824
1048.793	4823
1051.133	4768
1053.471	4842
1055.807	4702
1058.146	4804
1060.483	4864
1062.818	4891
1065.153	4798
1067.489	4876
1069.822	4850
1072.156	4818
1074.488	4962
1076.82	4889
1079.15	4868
1081.48	4907
1083.814	4899
1086.143	4926
1088.471	4822
1090.799	4907
1093.126	4905
1095.452	4843
1097.78	4912
1100.105	4843
1102.43	4899
1104.754	4897
1107.077	4894
1109.4	4869
1111.722	4802
1114.044	4815
1116.365	4845
1118.685	4848
1121.005	4935
1123.324	4879
1125.643	4936
1127.961	4949
1130.278	4921
1132.595	4891
1134.911	4913
1137.226	4907
1139.541	4796
1141.854	4866
1144.167	4920
1146.482	4832
1148.793	4904
1151.105	4951
1153.414	4896
1155.725	4939
1158.033	4909
1160.344	4872
1162.651	4891
1164.959	4903
1167.265	4988
1169.572	4863
1171.878	4901
1174.184	4974
1176.488	4949
1178.79	4985
1181.094	4934
1183.396	4879
1185.699	4913
1188.001	5007
1190.301	4910
1192.6	4882
1194.9	5054
1197.2	4831
1199.497	4910
1201.794	4952
1204.09	4831
1206.387	4914
1208.684	4915
1210.978	4910
1213.272	5040
1215.565	4950
1217.858	4918
1220.15	4960
1222.443	4944
1224.734	4964
1227.024	4969
1229.313	4938
1231.602	5043
1233.892	4993
1236.18	4974
1238.467	4911
1240.754	5071
1243.04	4999
1245.325	5124
1247.612	5064
1249.896	5062
1252.178	5069
1254.461	5098
1256.743	4982
1259.027	5012
1261.308	5076
1263.587	5126
1265.867	5101
1268.146	5067
1270.425	5113
1272.703	5064
1274.981	5079
1277.256	5054
1279.532	5088
1281.808	5077
1284.083	5043
1286.358	5021
1288.63	5140
1290.904	4992
1293.175	5136
1295.449	5052
1297.719	5060
1299.99	4900
1302.259	4967
1304.529	5030
1306.798	5057
1309.065	4990
1311.333	5077
1313.599	5043
1315.866	5104
1318.131	5041
1320.396	5091
1322.66	5045
1324.925	5096
1327.187	5017
1329.448	5049
1331.711	5130
1333.974	5083
1336.234	5022
1338.493	5080
1340.752	5053
1343.01	5052
1345.269	5035
1347.526	5067
1349.784	5026
1352.04	5026
1354.295	5027
1356.552	5126
1358.806	5047
1361.059	4950
1363.312	4984
1365.564	5003
1367.818	5038
1370.069	5129
1372.318	5064
1374.568	5065
1376.817	5158
1379.066	5067
1381.316	5134
1383.564	5092
1385.809	5042
1388.056	5180
1390.301	5065
1392.549	5212
1394.793	5190
1397.036	5185
1399.279	5160
1401.522	5160
1403.763	5064
1406.007	5085
1408.248	5230
1410.487	5185
1412.727	5093
1414.965	5107
1417.205	5145
1419.442	5114
1421.68	5100
1423.915	5261
1426.152	5212
1428.388	5187
1430.623	5221
1432.857	5372
1435.091	5164
1437.323	5247
1439.556	5230
1441.789	5284
1444.019	5228
1446.25	5315
1448.48	5170
1450.708	5320
1452.938	5303
1455.167	5251
1457.394	5316
1459.62	5341
1461.846	5298
1464.073	5215
1466.299	5294
1468.523	5285
1470.746	5133
1472.969	5279
1475.191	5223
1477.415	5166
1479.636	5150
1481.858	5114
1484.078	5167
1486.298	5177
1488.518	5143
1490.736	5155
1492.954	5156
1495.169	5099
1497.386	5022
1499.602	5160
1501.819	5192
1504.034	5078
1506.248	5064
1508.462	5157
1510.675	5097
1512.888	5175
1515.1	5126
1517.311	5183
1519.522	5096
1521.732	5129
1523.942	5075
1526.151	5061
1528.36	5044
1530.566	5161
1532.773	5133
1534.98	5104
1537.187	5113
1539.392	5196
1541.596	5053
1543.801	5193
1546.005	5231
1548.208	5123
1550.411	5110
1552.612	5122
1554.814	5188
1557.013	5102
1559.212	5154
1561.414	5257
1563.612	5135
1565.811	5179
1568.007	5243
1570.203	5263
1572.403	5260
1574.598	5219
1576.792	5263
1578.988	5208
1581.181	5276
1583.376	5286
1585.568	5366
1587.761	5275
1589.952	5314
1592.143	5255
1594.333	5266
1596.524	5202
1598.715	5288
1600.903	5261
1603.091	5274
1605.278	5323
1607.466	5274
1609.652	5385
1611.838	5270
1614.023	5264
1616.207	5207
1618.391	5330
1620.576	5380
1622.759	5318
1624.941	5257
1627.123	5269
1629.304	5439
1631.484	5379
1633.664	5334
1635.844	5386
1638.022	5431
1640.201	5322
1642.38	5362
1644.556	5317
1646.732	5325
1648.908	5340
1651.084	5326
1653.257	5317
1655.433	5336
1657.607	5379
1659.779	5353
1661.951	5358
1664.122	5373
1666.295	5355
1668.467	5541
1670.635	5440
1672.805	5479
1674.973	5247
1677.142	5491
1679.31	5437
1681.478	5383
1683.644	5323
1685.81	5329
1687.975	5402
1690.142	5386
1692.305	5413
1694.468	5355
1696.632	5237
1698.794	5314
1700.957	5244
1703.119	5406
1705.279	5369
1707.439	5344
1709.598	5331
1711.758	5298
1713.917	5304
1716.075	5387
1718.231	5306
1720.388	5235
1722.543	5325
1724.702	5220
1726.856	5345
1729.01	5252
1731.164	5219
1733.317	5259
1735.471	5299
1737.623	5327
1739.774	5258
1741.925	5386
1744.075	5279
1746.225	5364
1748.376	5368
1750.524	5304
1752.672	5289
1754.82	5392
1756.965	5310
1759.113	5353
1761.259	5316
1763.405	5326
1765.549	5323
1767.694	5314
1769.836	5353
1771.981	5467
1774.123	5311
1776.264	5402
1778.405	5295
1780.546	5445
1782.687	5287
1784.827	5403
1786.966	5402
1789.103	5335
1791.242	5343
1793.381	5328
1795.517	5440
1797.653	5382
1799.788	5392
1801.923	5314
1804.057	5454
1806.193	5421
1808.326	5362
1810.457	5342
1812.59	5509
1814.721	5465
1816.855	5363
1818.984	5440
1821.113	5372
1823.244	5292
1825.372	5316
1827.499	5362
1829.63	5320
1831.756	5316
1833.882	5467
1836.007	5355
1838.132	5339
1840.26	5393
1842.384	5309
1844.507	5328
1846.63	5236
1848.752	5249
1850.875	5234
1852.996	5295
1855.118	5366
1857.238	5274
1859.358	5192
1861.477	5341
1863.597	5288
1865.715	5288
1867.832	5366
1869.948	5278
1872.064	5358
1874.181	5300
1876.297	5308
1878.411	5269
1880.526	5236
1882.639	5388
1884.752	5350
1886.865	5239
1888.977	5289
1891.089	5401
1893.2	5356
1895.308	5356
1897.42	5344
1899.53	5360
1901.639	5292
1903.745	5330
1905.853	5365
1907.962	5336
1910.067	5379
1912.174	5336
1914.278	5317
1916.383	5353
1918.486	5270
1920.592	5434
1922.694	5343
1924.797	5411
1926.898	5382
1929	5531
1931.102	5297
1933.203	5346
1935.301	5335
1937.401	5392
1939.499	5367
1941.598	5328
1943.697	5392
1945.793	5392
1947.888	5497
1949.985	5447
1952.08	5361
1954.176	5252
1956.269	5433
1958.364	5396
1960.457	5445
1962.549	5339
1964.642	5330
1966.733	5420
1968.823	5438
1970.913	5386
1973.005	5382
1975.093	5443
1977.184	5285
1979.271	5325
1981.359	5418
1983.446	5269
1985.532	5368
1987.619	5309
1989.705	5207
1991.789	5386
1993.874	5325
1995.956	5367
1998.041	5267
2000.123	5345
2002.206	5389
2004.287	5394
2006.368	5221
2008.449	5403
2010.529	5421
2012.609	5394
2014.688	5395
2016.766	5343
2018.843	5346
2020.922	5336
2022.999	5175
2025.074	5359
2027.15	5420
2029.225	5368
2031.299	5302
2033.375	5308
2035.447	5406
2037.52	5260
2039.592	5343
2041.664	5344
2043.736	5316
2045.807	5271
2047.876	5324
2049.947	5318
2052.015	5311
2054.086	5301
2056.153	5442
2058.221	5384
2060.288	5390
2062.353	5320
2064.42	5357
2066.486	5307
2068.55	5220
2070.614	5317
2072.678	5381
2074.741	5346
2076.805	5347
2078.866	5402
2080.929	5318
2082.99	5369
2085.049	5351
2087.109	5391
2089.17	5367
2091.228	5307
2093.286	5381
2095.344	5246
2097.4	5468
2099.46	5392
2101.516	5300
2103.572	5295
2105.626	5279
2107.679	5340
2109.735	5328
2111.788	5300
2113.841	5305
2115.894	5423
2117.945	5414
2119.997	5383
2122.049	5376
2124.1	5305
2126.148	5331
2128.197	5327
2130.246	5343
2132.296	5361
2134.342	5276
2136.39	5359
2138.437	5362
2140.483	5358
2142.527	5352
2144.574	5357
2146.619	5270
2148.661	5310
2150.705	5165
2152.747	5248
2154.792	5314
2156.832	5322
2158.874	5248
2160.915	5196
2162.954	5266
2164.995	5289
2167.034	5315
2169.072	5221
2171.111	5331
2173.148	5220
2175.186	5183
2177.223	5210
2179.258	5186
2181.294	5218
2183.328	5242
2185.362	5134
2187.398	5218
2189.431	5284
2191.463	5219
2193.495	5195
2195.528	5196
2197.56	5186
2199.59	5212
2201.62	5240
2203.649	5105
2205.678	5219
2207.708	5151
2209.737	5401
2211.764	5112
2213.791	5244
2215.817	5160
2217.843	5121
2219.87	5231
2221.895	5046
2223.919	5084
2225.942	5170
2227.966	5185
2229.988	5219
2232.012	5094
2234.032	5172
2236.054	5174
2238.074	5190
2240.095	5183
2242.116	5198
2244.135	5206
2246.153	5188
2248.171	5232
2250.188	5146
2252.208	5185
2254.223	5188
2256.239	5200
2258.255	5159
2260.269	5230
2262.283	5200
2264.3	5129
2266.312	5122
2268.325	5171
2270.336	5182
2272.349	5187
2274.362	5170
2276.372	4992
2278.383	5068
2280.392	5095
2282.402	5185
2284.409	5106
2286.418	5068
2288.427	5199
2290.433	5200
2292.441	5186
2294.446	5045
2296.453	5181
2298.459	5177
2300.463	5104
2302.466	5101
2304.471	5167
2306.475	5093
2308.477	5199
2310.478	5100
2312.481	5104
2314.481	5161
2316.481	5138
2318.482	5160
2320.482	5155
2322.48	5173
2324.48	5031
2326.478	5058
2328.476	5077
2330.473	5044
2332.469	5035
2334.465	5122
2336.46	5191
2338.454	5079
2340.45	5158
2342.444	5098
2344.437	5102
2346.43	5013
2348.421	5077
2350.414	4989
2352.405	5095
2354.396	5065
2356.386	5049
2358.376	4980
2360.366	5101
2362.355	4979
2364.343	5150
2366.331	5050
2368.317	4938
2370.304	4993
2372.292	5018
2374.278	5055
2376.262	4978
2378.247	5029
2380.23	5064
2382.216	5003
2384.199	5007
2386.181	5102
2388.163	4955
2390.144	4954
2392.127	4990
2394.107	4833
2396.087	4913
2398.066	5025
2400.046	5078
2402.023	4922
2404.004	4985
2405.981	4944
2407.957	4981
2409.934	4931
2411.91	4967
2413.886	5004
2415.862	4963
2417.836	4993
2419.809	4968
2421.784	4969
2423.756	4997
2425.73	4966
2427.701	4960
2429.672	4898
2431.644	4997
2433.615	4925
2435.586	4959
2437.555	4983
2439.523	4971
2441.491	5011
2443.459	5021
2445.428	4903
2447.395	4993
2449.361	4975
2451.327	4996
2453.292	4912
2455.257	4925
2457.223	4990
2459.187	5017
2461.15	4955
2463.113	4843
2465.076	4953
2467.039	4923
2468.999	4867
2470.96	4960
2472.921	4922
2474.881	4931
2476.841	4887
2478.8	4996
2480.759	4917
2482.717	4838
2484.675	4898
2486.63	4853
2488.589	4881
2490.545	4949
2492.5	4857
2494.455	4891
2496.408	4929
2498.364	4924
2500.318	4837
2502.27	4859
2504.223	4847
2506.174	4827
2508.126	4956
2510.078	4851
2512.03	4879
2513.979	4808
2515.927	4907
2517.877	4804
2519.826	4886
2521.775	4897
2523.722	4855
2525.668	4804
2527.616	4835
2529.561	4878
2531.508	4848
2533.452	5009
2535.398	4868
2537.342	4859
2539.284	4810
2541.229	4810
2543.173	4780
2545.114	4838
2547.055	4876
2548.996	4912
2550.938	4762
2552.878	4784
2554.817	4884
2556.756	4728
2558.695	4870
2560.633	4824
2562.572	4807
2564.509	4818
2566.445	4826
2568.382	4832
2570.317	4825
2572.254	4833
2574.189	4787
2576.123	4814
2578.057	4840
2579.99	4802
2581.923	4883
2583.855	4810
2585.788	4839
2587.719	4712
2589.65	4821
2591.579	4715
2593.511	4916
2595.44	4787
2597.37	4882
2599.297	4913
2601.225	4800
2603.153	4804
2605.08	4848
2607.007	4843
2608.932	4891
2610.858	4836
2612.782	4878
2614.709	4789
2616.632	4876
2618.556	4884
2620.478	4805
2622.401	4848
2624.324	4922
2626.247	4733
2628.167	4791
2630.088	4888
2632.008	4806
2633.928	4800
2635.848	4878
2637.766	4810
2639.684	4779
2641.603	4855
2643.519	4851
2645.437	4877
2647.353	4823
2649.27	4739
2651.184	4875
2653.099	4901
2655.014	4728
2656.928	4872
2658.842	4841
2660.755	4796
2662.667	4837
2664.579	4809
2666.491	4871
2668.402	4818
2670.312	4853
2672.222	4840
2674.132	4800
2676.042	4817
2677.951	4781
2679.859	4776
2681.766	4778
2683.674	4882
2685.582	4786
2687.488	4712
2689.392	4706
2691.298	4769
2693.202	4711
2695.107	4699
2697.012	4744
2698.914	4862
2700.817	4666
2702.72	4863
2704.622	4817
2706.524	4752
2708.425	4703
2710.326	4757
2712.225	4804
2714.125	4740
2716.024	4748
2717.923	4745
2719.822	4708
2721.719	4729
2723.616	4671
2725.512	4738
2727.41	4765
2729.305	4672
2731.201	4721
2733.095	4735
2734.99	4712
2736.884	4670
2738.778	4711
2740.67	4706
2742.562	4671
2744.455	4739
2746.346	4731
2748.238	4718
2750.129	4710
2752.018	4708
2753.907	4753
2755.797	4699
2757.687	4770
2759.575	4630
2761.462	4763
2763.349	4652
2765.237	4746
2767.124	4622
2769.009	4681
2770.894	4630
2772.779	4758
2774.663	4538
2776.547	4698
2778.431	4658
2780.314	4638
2782.197	4782
2784.078	4639
2785.96	4689
2787.842	4636
2789.723	4738
2791.603	4602
2793.483	4614
2795.362	4653
2797.241	4651
2799.121	4548
2800.997	4621
2802.874	4615
2804.751	4592
2806.628	4628
2808.506	4584
2810.38	4600
2812.255	4648
2814.13	4571
2816.003	4526
2817.878	4610
2819.752	4565
2821.623	4700
2823.496	4599
2825.368	4574
2827.238	4632
2829.111	4581
2830.98	4610
2832.851	4526
2834.719	4514
2836.589	4548
2838.458	4668
2840.327	4503
2842.193	4573
2844.061	4633
2845.927	4629
2847.794	4598
2849.66	4592
2851.525	4573
2853.39	4590
2855.254	4652
2857.117	4590
2858.983	4620
2860.845	4680
2862.707	4628
2864.569	4609
2866.431	4626
2868.293	4560
2870.154	4654
2872.013	4715
2873.873	4602
2875.733	4679
2877.592	4764
2879.451	4748
2881.309	4753
2883.166	4660
2885.022	4754
2886.879	4732
2888.736	4815
2890.591	4794
2892.446	4863
2894.301	4713
2896.155	4797
2898.009	4722
2899.863	4721
2901.716	4691
2903.568	4769
2905.419	4761
2907.27	4728
2909.123	4697
2910.973	4679
2912.824	4706
2914.673	4732
2916.521	4720
2918.372	4824
2920.22	4835
2922.067	4778
2923.914	4771
2925.761	4864
2927.607	4849
2929.455	5013
2931.301	4859
2933.144	4810
2934.99	4872
2936.833	4868
2938.678	4925
2940.522	4942
2942.364	5020
2944.207	4911
2946.048	4926
2947.891	5003
2949.731	4982
2951.571	5070
2953.412	4926
2955.25	4947
2957.09	4949
2958.93	4946
2960.767	4981
2962.606	4861
2964.443	4775
2966.279	4841
2968.116	4804
2969.953	4776
2971.788	4729
2973.623	4753
2975.457	4807
2977.292	4742
2979.127	4727
2980.959	4719
2982.792	4649
2984.624	4754
2986.455	4689
2988.288	4625
2990.119	4631
2991.949	4530
2993.779	4599
2995.608	4674
2997.439	4528
2999.268	4593
3001.096	4586
3002.923	4554
3004.751	4514
3006.578	4501
3008.406	4565
3010.232	4405
3012.057	4419
3013.883	4450
3015.706	4442
3017.532	4396
3019.356	4420
3021.179	4427
3023.002	4401
3024.823	4384
3026.646	4395
3028.469	4371
3030.289	4391
3032.11	4367
3033.93	4404
3035.749	4318
3037.57	4265
3039.39	4343
3041.207	4302
3043.026	4358
3044.842	4329
3046.661	4373
3048.477	4303
3050.294	4347
3052.109	4355
3053.925	4255
3055.739	4349
3057.555	4267
3059.368	4337
3061.181	4248
3062.995	4311
3064.807	4318
3066.62	4331
3068.433	4306
3070.243	4321
3072.054	4268
3073.865	4342
3075.675	4279
3077.485	4316
3079.293	4213
3081.102	4231
3082.911	4227
3084.719	4111
3086.527	4347
3088.333	4317
3090.139	4118
3091.945	4209
3093.75	4239
3095.557	4225
3097.361	4256
3099.165	4226
3100.969	4163
3102.772	4093
3104.575	4109
3106.379	4250
3108.181	4179
3109.982	4175
3111.783	4053
3113.584	4187
3115.386	4165
3117.186	4159
3118.985	4165
3120.783	4095
3122.582	4141
3124.381	4081
3126.179	4141
3127.975	4166
3129.772	4072
3131.569	4116
3133.365	4138
3135.161	4085
3136.956	4136
3138.751	4188
3140.544	4022
3142.338	4048
3144.132	4048
3145.925	4094
3147.717	4087
3149.509	4089
3151.301	4099
3153.091	4093
3154.884	4096
3156.673	4051
3158.462	4087
3160.252	4012
3162.041	4016
3163.831	4003
3165.618	4040
3167.405	4047
3169.193	4109
3170.979	4017
3172.767	4111
3174.553	4054
3176.338	4013
3178.123	4016
3179.907	3958
3181.692	4036
3183.477	4055
3185.259	4026
3187.042	4113
3188.824	4000
3190.607	3917
3192.389	3977
3194.17	3992
3195.951	4010
3197.73	3955
3199.51	3984
3201.289	3970
3203.07	3879
3204.848	3977
3206.626	3953
3208.403	4028
3210.18	3908
3211.959	3883
3213.735	4031
3215.511	3963
3217.285	3989
3219.06	3974
3220.836	4087
3222.611	3891
3224.384	3938
3226.158	3987
3227.929	3907
3229.702	4030
3231.476	4057
3233.248	3913
3235.018	4023
3236.789	3927
3238.56	3911
3240.33	3934
3242.1	3984
3243.869	3952
3245.637	3914
3247.405	4008
3249.172	3884
3250.941	3939
3252.707	3939
3254.474	3924
3256.24	3924
3258.006	3901
3259.772	3919
3261.537	3871
3263.301	3900
3265.065	3891
3266.828	3869
3268.592	3909
3270.355	3823
3272.117	3964
3273.878	3937
3275.64	3919
3277.401	3858
3279.162	3939
3280.922	3966
3282.682	3862
3284.441	3945
3286.199	3893
3287.959	3834
3289.716	3872
3291.475	3965
3293.232	3946
3294.988	3918
3296.744	3941
3298.501	3881
3300.256	3872
3302.011	3920
3303.766	3899
3305.52	3926
3307.275	3886
3309.028	3872
3310.781	3975
3312.533	4003
3314.285	3799
3316.038	3939
3317.789	3847
3319.54	3863
3321.289	3897
3323.039	3895
3324.789	3828
3326.539	3886
3328.288	3864
3330.035	3903
3331.783	3882
3333.531	3912
3335.28	3841
3337.025	3872
3338.771	3888
3340.518	3889
3342.262	3890
3344.009	3858
3345.753	3807
3347.497	3773
3349.24	3865
3350.983	3814
3352.726	3842
3354.469	3873
3356.212	3818
3357.952	3818
3359.694	3805
3361.434	3906
3363.176	3775
3364.916	3838
3366.654	3737
3368.394	3775
3370.132	3841
3371.871	3775
3373.61	3723
3375.346	3809
3377.083	3792
3378.82	3816
3380.556	3787
3382.292	3922
3384.027	3778
3385.763	3747
3387.497	3807
3389.231	3777
3390.965	3825
3392.698	3786
3394.431	3799
3396.164	3839
3397.896	3710
3399.627	3700
3401.36	3768
3403.09	3784
3404.82	3797
3406.55	3703
3408.279	3796
3410.01	3741
3411.738	3715
3413.467	3723
3415.194	3654
3416.92	3698
3418.647	3742
3420.375	3667
3422.102	3666
3423.827	3746
3425.553	3687
3427.277	3714
3429.003	3730
3430.727	3638
3432.451	3703
3434.173	3669
3435.896	3732
3437.62	3637
3439.343	3653
3441.063	3630
3442.785	3741
3444.505	3559
3446.226	3690
3447.948	3731
3449.666	3644
3451.386	3705
3453.104	3600
3454.823	3617
3456.541	3519
3458.259	3588
3459.976	3561
3461.693	3552
3463.408	3622
3465.125	3626
3466.841	3643
3468.556	3517
3470.271	3579
3471.985	3550
3473.698	3561
3475.414	3616
3477.126	3526
3478.838	3484
3480.55	3565
3482.263	3537
3483.975	3580
3485.686	3545
3487.396	3467
3489.106	3528
3490.817	3538
3492.526	3640
3494.236	3499
3495.944	3600
3497.652	3545
3499.359	3479
3501.066	3435
3502.775	3520
3504.481	3449
3506.187	3521
3507.893	3493
3509.598	3444
3511.304	3515
3513.009	3458
3514.713	3538
3516.417	3550
3518.12	3572
3519.821	3477
3521.525	3432
3523.228	3588
3524.929	3487
3526.631	3463
3528.33	3524
3530.032	3507
3531.733	3484
3533.433	3506
3535.131	3376
3536.83	3476
3538.529	3429
3540.227	3428
3541.925	3411
3543.623	3519
3545.319	3439
3547.016	3460
3548.712	3448
3550.408	3431
3552.103	3479
3553.798	3409
3555.491	3430
3557.188	3439
3558.88	3386
3560.574	3434
3562.266	3435
3563.959	3394
3565.651	3388
3567.343	3420
3569.035	3376
3570.725	3373
3572.415	3278
3574.106	3375
3575.797	3326
3577.485	3342
3579.174	3256
3580.863	3417
3582.551	3316
3584.238	3346
3585.926	3380
3587.613	3408
3589.3	3370
3590.986	3324
3592.671	3361
3594.357	3330
3596.042	3282
3597.726	3284
3599.41	3382
3601.094	3339
3602.778	3299
3604.461	3341
3606.143	3289
3607.825	3333
3609.507	3198
3611.188	3302
3612.87	3232
3614.551	3300
3616.229	3221
3617.909	3278
3619.589	3188
3621.269	3209
3622.948	3230
3624.625	3265
3626.302	3223
3627.98	3226
3629.657	3241
3631.334	3214
3633.01	3181
3634.686	3224
3636.361	3250
3638.036	3183
3639.712	3287
3641.385	3221
3643.06	3260
3644.732	3235
3646.405	3272
3648.08	3257
3649.751	3236
3651.424	3203
3653.094	3225
3654.766	3208
3656.436	3231
3658.106	3212
3659.777	3113
3661.446	3176
3663.115	3199
3664.783	3157
3666.452	3149
3668.121	3167
3669.788	3192
3671.454	3183
3673.121	3173
3674.789	3131
3676.455	3207
3678.12	3178
3679.784	3062
3681.45	3130
3683.114	3180
3684.779	3093
3686.442	3161
3688.105	3112
3689.768	3159
3691.43	3125
3693.093	3093
3694.754	3225
3696.415	3166
3698.076	3140
3699.736	3104
3701.396	3138
3703.057	3025
3704.716	3076
3706.375	3223
3708.034	3131
3709.692	3114
3711.351	3112
3713.008	3112
3714.665	3153
3716.321	3101
3717.977	3123
3719.634	3080
3721.29	3107
3722.945	3024
3724.598	3053
3726.253	3095
3727.907	3122
3729.561	3128
3731.214	3122
3732.867	3008
3734.518	3114
3736.171	3033
3737.824	3065
3739.474	3124
3741.125	3127
3742.775	3087
3744.425	3047
3746.074	3066
3747.725	3110
3749.373	3048
3751.022	3025
3752.669	3030
3754.318	3080
3755.966	3098
3757.612	2982
3759.259	3101
3760.905	3046
3762.55	3043
3764.197	3019
3765.842	3056
3767.486	3066
3769.131	3024
3770.774	3002
3772.417	2994
3774.061	3021
3775.705	2983
3777.347	2983
3778.988	2964
3780.629	3021
3782.271	2956
3783.912	3030
3785.552	2976
3787.192	2973
3788.831	2920
3790.472	2965
3792.112	2920
3793.75	2882
3795.388	3077
3797.024	2961
3798.661	3034
3800.3	2908
3801.936	2995
3803.572	2950
3805.208	2939
3806.844	2967
3808.48	2957
3810.115	2955
3811.748	2875
3813.382	2942
3815.016	2932
3816.649	2894
3818.283	2822
3819.914	2873
3821.547	2878
3823.178	2901
3824.809	2925
3826.441	2915
3828.072	2910
3829.701	2956
3831.331	2870
3832.96	2914
3834.591	2929
3836.219	2849
3837.847	2932
3839.475	2891
3841.102	2909
3842.729	2830
3844.357	2873
3845.984	2860
3847.609	2862
3849.234	2881
3850.86	2829
3852.485	2907
3854.11	2853
3855.734	2905
3857.357	2846
3858.981	2914
3860.603	2882
3862.227	2904
3863.848	2832
3865.471	2886
3867.092	2879
3868.713	2847
3870.334	2874
3871.954	2861
3873.575	2908
3875.194	2812
3876.813	2877
3878.433	2873
3880.051	2908
3881.669	2883
3883.286	2823
3884.904	2833
3886.52	2750
3888.138	2804
3889.754	2863
3891.37	2861
3892.985	2817
3894.6	2843
3896.216	2810
3897.831	2763
3899.444	2817
3901.058	2808
3902.67	2830
3904.283	2762
3905.897	2819
3907.509	2804
3909.121	2838
3910.731	2786
3912.342	2759
3913.954	2754
3915.563	2759
3917.174	2812
3918.783	2744
3920.391	2810
3922.002	2772
3923.611	2808
3925.218	2754
3926.826	2785
3928.432	2766
3930.039	2790
3931.647	2809
3933.253	2768
3934.859	2815
3936.464	2905
3938.068	2791
3939.675	2706
3941.278	2686
3942.883	2781
3944.486	2726
3946.089	2774
3947.692	2759
3949.295	2761
3950.898	2660
3952.499	2776
3954.1	2706
3955.7	2765
3957.303	2723
3958.903	2790
3960.502	2686
3962.101	2681
3963.7	2709
3965.301	2672
3966.899	2718
3968.497	2700
3970.094	2646
3971.691	2712
3973.288	2684
3974.885	2681
3976.481	2723
3978.077	2705
3979.672	2690
3981.267	2726
3982.863	2698
3984.457	2637
3986.051	2639
3987.645	2651
3989.238	2649
3990.831	2670
3992.425	2654
3994.017	2678
3995.607	2627
3997.199	2596
3998.79	2619
4000.382	2592
4001.973	2598
4003.561	2610
4005.151	2651
4006.741	2674
4008.331	2691
4009.918	2580
4011.507	2593
4013.095	2610
4014.681	2611
4016.269	2614
4017.856	2584
4019.443	2635
4021.028	2538
4022.614	2551
4024.199	2583
4025.785	2578
4027.37	2490
4028.953	2559
4030.536	2527
4032.12	2560
4033.704	2546
4035.287	2662
4036.869	2554
4038.45	2564
4040.032	2580
4041.613	2567
4043.195	2576
4044.776	2504
4046.356	2552
4047.935	2638
4049.515	2502
4051.095	2523
4052.674	2560
4054.251	2530
4055.829	2515
4057.406	2472
4058.985	2496
4060.562	2540
4062.139	2533
4063.715	2495
4065.29	2523
4066.865	2496
4068.442	2463
4070.016	2495
4071.59	2491
4073.164	2460
4074.738	2472
4076.312	2478
4077.885	2433
4079.458	2516
4081.03	2545
4082.602	2488
4084.173	2531
4085.745	2495
4087.315	2532
4088.886	2455
4090.456	2470
4092.026	2420
4093.596	2439
4095.165	2459
4096.734	2504
4098.301	2475
4099.869	2524
4101.437	2430
4103.006	2521
4104.572	2414
4106.139	2505
4107.704	2446
4109.27	2448
4110.837	2435
4112.401	2390
4113.966	2471
4115.53	2404
4117.094	2432
4118.659	2458
4120.223	2415
4121.785	2480
4123.347	2476
4124.909	2453
4126.471	2445
4128.034	2456
4129.595	2450
4131.155	2379
4132.716	2367
4134.275	2353
4135.836	2409
4137.395	2410
4138.955	2446
4140.513	2378
4142.071	2379
4143.628	2393
4145.188	2420
4146.745	2381
4148.302	2369
4149.858	2399
4151.414	2321
4152.971	2374
4154.526	2415
4156.081	2416
4157.635	2417
4159.189	2377
4160.745	2328
4162.298	2353
4163.852	2282
4165.405	2336
4166.957	2352
4168.51	2380
4170.063	2338
4171.614	2366
4173.166	2410
4174.717	2337
4176.267	2347
4177.817	2375
4179.368	2299
4180.917	2321
4182.466	2330
4184.016	2295
4185.564	2331
4187.112	2285
4188.66	2322
4190.207	2330
4191.754	2282
4193.301	2236
4194.848	2282
4196.394	2273
4197.94	2275
4199.484	2323
4201.03	2274
4202.575	2265
4204.12	2248
4205.663	2357
4207.207	2270
4208.75	2178
4210.292	2244
4211.836	2314
4213.378	2295
4214.92	2255
4216.46	2235
4218.002	2274
4219.544	2212
4221.083	2279
4222.625	2281
4224.164	2294
4225.703	2274
4227.244	2293
4228.782	2263
4230.32	2223
4231.857	2259
4233.395	2212
4234.933	2255
4236.471	2239
4238.007	2255
4239.542	2257
4241.078	2248
4242.614	2254
4244.15	2271
4245.685	2185
4247.219	2247
4248.753	2246
4250.287	2204
4251.82	2214
4253.354	2251
4254.887	2249
4256.419	2203
4257.951	2230
4259.483	2242
4261.016	2237
4262.547	2255
4264.078	2265
4265.608	2238
4267.137	2209
4268.668	2272
4270.197	2186
4271.727	2168
4273.254	2182
4274.783	2225
4276.311	2263
4277.84	2156
4279.366	2242
4280.894	2186
4282.42	2154
4283.946	2244
4285.473	2169
4286.998	2168
4288.523	2208
4290.047	2163
4291.572	2195
4293.096	2131
4294.622	2170
4296.144	2212
4297.668	2151
4299.19	2174
4300.713	2149
4302.236	2223
4303.758	2171
4305.279	2150
4306.799	2130
4308.321	2144
4309.842	2185
4311.361	2171
4312.882	2204
4314.401	2154
