400.0961	5989
402.6185	5917
405.1424	5963
407.6635	6060
410.1838	6032
412.7035	5896
415.2225	5958
417.7388	6037
420.2585	6214
422.7754	6232
425.2917	6258
427.8072	6236
430.3221	6164
432.8363	6371
435.3498	6312
437.8626	6313
440.3727	6325
442.8841	6385
445.3969	6471
447.907	6368
450.4142	6327
452.9229	6334
455.4289	6455
457.9362	6424
460.4449	6332
462.9488	6415
465.454	6368
467.9566	6468
470.4604	6525
472.9637	6475
475.4662	6408
477.966	6486
480.4671	6510
482.9656	6545
485.4633	6447
487.9645	6546
490.4608	6446
492.9566	6550
495.4536	6560
497.948	6757
500.4437	6630
502.9387	6583
505.431	6620
507.9226	6699
510.4136	6514
512.9079	6572
515.3975	6607
517.8864	6640
520.3746	6585
522.8622	6737
525.3491	6703
527.8394	6678
530.3249	6652
532.8098	6741
535.2939	6602
537.7774	6693
540.2623	6646
542.7444	6660
545.2259	6695
547.7067	6839
550.1868	6747
552.6683	6709
555.147	6624
557.6231	6692
560.1005	6740
562.5773	6755
565.0534	6747
567.5308	6914
570.0056	6832
572.4776	6733
574.951	6905
577.4237	6829
579.8978	6910
582.3671	6910
584.8378	6974
587.3079	6970
589.7773	6833
592.244	6965
594.714	6868
597.1793	6870
599.6461	6837
602.1121	6950
604.5754	6910
607.0421	6984
609.5042	6882
611.9675	6970
614.4282	6951
616.8902	6913
619.3515	6906
621.8122	6958
624.2702	6876
626.7296	6974
629.1863	6732
631.6423	6852
634.1017	6988
636.5563	6955
639.0104	6920
641.4658	6970
643.9185	6943
646.3725	6946
648.8239	6967
651.2766	7005
653.7266	7096
656.176	7011
658.6247	6950
661.0748	7087
663.5242	7020
665.9709	6942
668.417	7123
670.8624	7069
673.3092	7138
675.7533	7034
678.1968	7092
680.6395	7224
683.0817	7100
685.5251	7209
687.9659	7132
690.4061	7120
692.8456	7139
695.2844	7177
697.7226	7133
700.1621	7214
702.599	7200
705.0332	7208
707.4688	7381
709.9036	7165
712.3399	7168
714.7735	7299
717.2044	7281
719.6367	7395
722.0683	7337
724.4993	7300
726.9296	7427
729.3593	7360
731.7883	7414
734.2147	7465
736.6423	7439
739.0714	7627
741.4958	7457
743.9216	7479
746.3447	7428
748.7691	7475
751.1929	7562
753.616	7603
756.0366	7624
758.4584	7530
760.8776	7652
763.2982	7642
765.718	7537
768.1373	7636
770.5539	7613
772.9698	7720
775.3871	7703
777.8038	7674
780.2178	7666
782.6332	7615
785.0459	7637
787.458	7635
789.8714	7625
792.2842	7667
794.6943	7758
797.1038	7713
799.5127	7760
801.9209	7660
804.3324	7684
806.7393	7775
809.1456	7684
811.5513	7700
813.9562	7686
816.3625	7796
818.7663	7772
821.1693	7690
823.5718	7718
825.9735	7773
828.3746	7755
830.7771	7856
833.177	7732
835.5762	7833
837.9747	7878
840.3727	7675
842.772	7988
845.1666	7835
847.5626	7868
849.958	7971
852.3527	7992
854.7488	7981
857.1403	8000
859.5331	7962
861.9253	8050
864.3168	7972
866.7057	7908
869.098	7944
871.4876	8031
873.8746	7966
876.263	7856
878.6487	7858
881.0378	7863
883.4243	7991
885.8081	7936
888.1933	7914
890.5759	7711
892.9598	8025
895.343	7998
897.7256	7840
900.1057	8019
902.4871	7982
904.8659	7792
907.246	8017
909.6254	8017
912.0023	7866
914.3786	8035
916.7562	8130
919.1331	8238
921.5074	8203
923.8831	8287
926.2562	8326
928.6287	8299
931.0005	8407
933.3757	8249
935.7462	8277
938.1162	8464
940.4855	8432
942.8542	8441
945.2242	8502
947.5916	8616
949.9584	8809
952.3266	9058
954.6921	9165
957.0571	9403
959.4233	9585
961.787	9915
964.15	9700
966.5125	9465
968.8742	9069
971.2354	8911
973.5959	8714
975.9559	8593
978.3151	8448
980.6738	8433
983.0338	8300
985.3912	8355
987.7461	8286
990.1022	8094
992.4578	8190
994.8127	8223
997.1689	8267
999.5207	8163
1001.874	8431
1004.226	8336
1006.576	8336
1008.929	8335
1011.28	8227
1013.628	8213
1015.977	8285
1018.324	8313
1020.674	8304
1023.019	8216
1025.366	8270
1027.713	8294
1030.056	8358
1032.399	8406
1034.746	8358
1037.087	8385
1039.431	8284
1041.771	8317
1044.113	8354
1046.454	8366
1048.793	8266
1051.133	8441
1053.471	8216
1055.807	8475
1058.146	8543
1060.483	8221
1062.818	8573
1065.153	8482
1067.489	8504
1069.822	8510
1072.156	8746
1074.488	8532
1076.82	8490
1079.15	8579
1081.48	8601
1083.814	8493
1086.143	8459
1088.471	8544
1090.799	8517
1093.126	8263
1095.452	8564
1097.78	8572
1100.105	8434
1102.43	8486
1104.754	8465
1107.077	8516
1109.4	8632
1111.722	8567
1114.044	8520
1116.365	8473
1118.685	8485
1121.005	8633
1123.324	8592
1125.643	8692
1127.961	8433
1130.278	8647
1132.595	8560
1134.911	8508
1137.226	8558
1139.541	8513
1141.854	8576
1144.167	8588
1146.482	8473
1148.793	8582
1151.105	8552
1153.414	8544
1155.725	8604
1158.033	8658
1160.344	8522
1162.651	8711
1164.959	8701
1167.265	8616
1169.572	8544
1171.878	8520
1174.184	8595
1176.488	8652
1178.79	8654
1181.094	8689
1183.396	8634
1185.699	8528
1188.001	8624
1190.301	8584
1192.6	8694
1194.9	8598
1197.2	8633
1199.497	8644
1201.794	8702
1204.09	8714
1206.387	8825
1208.684	8739
1210.978	8696
1213.272	8616
1215.565	8597
1217.858	8753
1220.15	8767
1222.443	8709
1224.734	8835
1227.024	8741
1229.313	8948
1231.602	8810
1233.892	8738
1236.18	8814
1238.467	9086
1240.754	8932
1243.04	8974
1245.325	8941
1247.612	9083
1249.896	9119
1252.178	9069
1254.461	8958
1256.743	9019
1259.027	8975
1261.308	8946
1263.587	8870
1265.867	9001
1268.146	9097
1270.425	9092
1272.703	9053
1274.981	9099
1277.256	8949
1279.532	9046
1281.808	8937
1284.083	8866
1286.358	8979
1288.63	8914
1290.904	9014
1293.175	8902
1295.449	8899
1297.719	8840
1299.99	8951
1302.259	8816
1304.529	8767
1306.798	8864
1309.065	8859
1311.333	8945
1313.599	8923
1315.866	8884
1318.131	9019
1320.396	8857
1322.66	8949
1324.925	8844
1327.187	9039
1329.448	8974
1331.711	8975
1333.974	8877
1336.234	8815
1338.493	9010
1340.752	9100
1343.01	9124
1345.269	8922
1347.526	9062
1349.784	8739
1352.04	9096
1354.295	8928
1356.552	8922
1358.806	9090
1361.059	9046
1363.312	8955
1365.564	8904
1367.818	9143
1370.069	9110
1372.318	9028
1374.568	9173
1376.817	9042
1379.066	9036
1381.316	9062
1383.564	9039
1385.809	8997
1388.056	9134
1390.301	9146
1392.549	9098
1394.793	9309
1397.036	9311
1399.279	9297
1401.522	9261
1403.763	9377
1406.007	9298
1408.248	9334
1410.487	9137
1412.727	9175
1414.965	9195
1417.205	9219
1419.442	9286
1421.68	9363
1423.915	9178
1426.152	9199
1428.388	9252
1430.623	9423
1432.857	9120
1435.091	9428
1437.323	9237
1439.556	9369
1441.789	9318
1444.019	9378
1446.25	9414
1448.48	9427
1450.708	9436
1452.938	9573
1455.167	9539
1457.394	9372
1459.62	9403
1461.846	9410
1464.073	9540
1466.299	9428
1468.523	9381
1470.746	9361
1472.969	9366
1475.191	9353
1477.415	9374
1479.636	9214
1481.858	9315
1484.078	9169
1486.298	9212
1488.518	9230
1490.736	9144
1492.954	9059
1495.169	9072
1497.386	9237
1499.602	9267
1501.819	9036
1504.034	8932
1506.248	9101
1508.462	9113
1510.675	9029
1512.888	9023
1515.1	9010
1517.311	9102
1519.522	9176
1521.732	9131
1523.942	9135
1526.151	9038
1528.36	9090
1530.566	9097
1532.773	9077
1534.98	9106
1537.187	9238
1539.392	9136
1541.596	9037
1543.801	9270
1546.005	9224
1548.208	9212
1550.411	9110
1552.612	9246
1554.814	9161
1557.013	9279
1559.212	9247
1561.414	9315
1563.612	9320
1565.811	9249
1568.007	9410
1570.203	9448
1572.403	9349
1574.598	9390
1576.792	9495
1578.988	9514
1581.181	9380
1583.376	9573
1585.568	9386
1587.761	9354
1589.952	9400
1592.143	9453
1594.333	9316
1596.524	9428
1598.715	9303
1600.903	9480
1603.091	9545
1605.278	9642
1607.466	9382
1609.652	9509
1611.838	9483
1614.023	9543
1616.207	9570
1618.391	9466
1620.576	9500
1622.759	9535
1624.941	9481
1627.123	9432
1629.304	9494
1631.484	9443
1633.664	9516
1635.844	9556
1638.022	9637
1640.201	9607
1642.38	9503
1644.556	9557
1646.732	9445
1648.908	9568
1651.084	9707
1653.257	9487
1655.433	9450
1657.607	9616
1659.779	9620
1661.951	9561
1664.122	9618
1666.295	9589
1668.467	9570
1670.635	9662
1672.805	9729
1674.973	9608
1677.142	9523
1679.31	9663
1681.478	9603
1683.644	9578
1685.81	9696
1687.975	9540
1690.142	9539
1692.305	9608
1694.468	9573
1696.632	9384
1698.794	9604
1700.957	9539
1703.119	9521
1705.279	9405
1707.439	9485
1709.598	9503
1711.758	9367
1713.917	9544
1716.075	9431
1718.231	9485
1720.388	9324
1722.543	9447
1724.702	9469
1726.856	9344
1729.01	9495
1731.164	9455
1733.317	9424
1735.471	9412
1737.623	9443
1739.774	9504
1741.925	9382
1744.075	9434
1746.225	9405
1748.376	9439
1750.524	9554
1752.672	9455
1754.82	9540
1756.965	9406
1759.113	9450
1761.259	9468
1763.405	9382
1765.549	9491
1767.694	9435
1769.836	9471
1771.981	9569
1774.123	9512
1776.264	9587
1778.405	9670
1780.546	9459
1782.687	9417
1784.827	9517
1786.966	9611
1789.103	9438
1791.242	9571
1793.381	9566
1795.517	9634
1797.653	9695
1799.788	9642
1801.923	9546
1804.057	9630
1806.193	9546
1808.326	9496
1810.457	9509
1812.59	9471
1814.721	9530
1816.855	9437
1818.984	9629
1821.113	9495
1823.244	9577
1825.372	9438
1827.499	9463
1829.63	9512
1831.756	9542
1833.882	9417
1836.007	9498
1838.132	9460
1840.26	9525
1842.384	9466
1844.507	9491
1846.63	9538
1848.752	9377
1850.875	9470
1852.996	9504
1855.118	9490
1857.238	9457
1859.358	9529
1861.477	9476
1863.597	9528
1865.715	9492
1867.832	9476
1869.948	9536
1872.064	9577
1874.181	9440
1876.297	9333
1878.411	9352
1880.526	9486
1882.639	9591
1884.752	9363
1886.865	9516
1888.977	9422
1891.089	9483
1893.2	9554
1895.308	9556
1897.42	9632
1899.53	9496
1901.639	9620
1903.745	9462
1905.853	9640
1907.962	9493
1910.067	9572
1912.174	9757
1914.278	9699
1916.383	9670
1918.486	9656
1920.592	9512
1922.694	9513
1924.797	9620
1926.898	9606
1929	9715
1931.102	9700
1933.203	9727
1935.301	9789
1937.401	9668
1939.499	9712
1941.598	9662
1943.697	9647
1945.793	9665
1947.888	9696
1949.985	9672
1952.08	9780
1954.176	9649
1956.269	9633
1958.364	9600
1960.457	9709
1962.549	9659
1964.642	9650
1966.733	9731
1968.823	9714
1970.913	9512
1973.005	9541
1975.093	9750
1977.184	9640
1979.271	9658
1981.359	9598
1983.446	9640
1985.532	9820
1987.619	9663
1989.705	9634
1991.789	9598
1993.874	9663
1995.956	9618
1998.041	9527
2000.123	9550
2002.206	9579
2004.287	9573
2006.368	9590
2008.449	9444
2010.529	9432
2012.609	9562
2014.688	9414
2016.766	9624
2018.843	9507
2020.922	9523
2022.999	9650
2025.074	9458
2027.15	9603
2029.225	9569
2031.299	9557
2033.375	9568
2035.447	9503
2037.52	9613
2039.592	9619
2041.664	9627
2043.736	9590
2045.807	9678
2047.876	9603
2049.947	9548
2052.015	9656
2054.086	9613
2056.153	9705
2058.221	9538
2060.288	9627
2062.353	9684
2064.42	9559
2066.486	9556
2068.55	9667
2070.614	9586
2072.678	9697
2074.741	9591
2076.805	9605
2078.866	9488
2080.929	9601
2082.99	9450
2085.049	9695
2087.109	9545
2089.17	9612
2091.228	9608
2093.286	9523
2095.344	9697
2097.4	9772
2099.46	9550
2101.516	9607
2103.572	9778
2105.626	9616
2107.679	9617
2109.735	9621
2111.788	9533
2113.841	9494
2115.894	9575
2117.945	9721
2119.997	9568
2122.049	9663
2124.1	9429
2126.148	9573
2128.197	9586
2130.246	9726
2132.296	9538
2134.342	9553
2136.39	9571
2138.437	9548
2140.483	9646
2142.527	9592
2144.574	9651
2146.619	9476
2148.661	9543
2150.705	9544
2152.747	9466
2154.792	9479
2156.832	9550
2158.874	9712
2160.915	9516
2162.954	9500
2164.995	9573
2167.034	9639
2169.072	9442
2171.111	9453
2173.148	9409
2175.186	9401
2177.223	9519
2179.258	9553
2181.294	9501
2183.328	9484
2185.362	9292
2187.398	9436
2189.431	9426
2191.463	9353
2193.495	9466
2195.528	9356
2197.56	9474
2199.59	9475
2201.62	9411
2203.649	9379
2205.678	9503
2207.708	9433
2209.737	9461
2211.764	9398
2213.791	9432
2215.817	9554
2217.843	9604
2219.87	9370
2221.895	9364
2223.919	9511
2225.942	9436
2227.966	9486
2229.988	9199
2232.012	9354
2234.032	9386
2236.054	9302
2238.074	9359
2240.095	9330
2242.116	9403
2244.135	9498
2246.153	9409
2248.171	9377
2250.188	9437
2252.208	9394
2254.223	9291
2256.239	9467
2258.255	9378
2260.269	9516
2262.283	9373
2264.3	9421
2266.312	9382
2268.325	9466
2270.336	9370
2272.349	9322
2274.362	9369
2276.372	9269
2278.383	9401
2280.392	9374
2282.402	9440
2284.409	9513
2286.418	9358
2288.427	9288
2290.433	9350
2292.441	9268
2294.446	9403
2296.453	9348
2298.459	9392
2300.463	9344
2302.466	9452
2304.471	9451
2306.475	9248
2308.477	9548
2310.478	9379
2312.481	9350
2314.481	9164
2316.481	9354
2318.482	9186
2320.482	9431
2322.48	9175
2324.48	9369
2326.478	9285
2328.476	9185
2330.473	9213
2332.469	9143
2334.465	9281
2336.46	9216
2338.454	9243
2340.45	9152
2342.444	9369
2344.437	9232
2346.43	9331
2348.421	9206
2350.414	9238
2352.405	9158
2354.396	9250
2356.386	9199
2358.376	9278
2360.366	9128
2362.355	9184
2364.343	9204
2366.331	9160
2368.317	9278
2370.304	9077
2372.292	9253
2374.278	9048
2376.262	9227
2378.247	9059
2380.23	9186
2382.216	9012
2384.199	9063
2386.181	9053
2388.163	9221
2390.144	9173
2392.127	9089
2394.107	9039
2396.087	9162
2398.066	9064
2400.046	9088
2402.023	9094
2404.004	9169
2405.981	9155
2407.957	9187
2409.934	9057
2411.91	9190
2413.886	9037
2415.862	8994
2417.836	9124
2419.809	9182
2421.784	9146
2423.756	9033
2425.73	9184
2427.701	9145
2429.672	9007
2431.644	9052
2433.615	8957
2435.586	9054
2437.555	9070
2439.523	9119
2441.491	9047
2443.459	9165
2445.428	8984
2447.395	8918
2449.361	9132
2451.327	9116
2453.292	9085
2455.257	9054
2457.223	9037
2459.187	9124
2461.15	9078
2463.113	9029
2465.076	9148
2467.039	9020
2468.999	9105
2470.96	9081
2472.921	9189
2474.881	8977
2476.841	8954
2478.8	9014
2480.759	9035
2482.717	8865
2484.675	8959
2486.63	8954
2488.589	8910
2490.545	8917
2492.5	8839
2494.455	8973
2496.408	9052
2498.364	8905
2500.318	8859
2502.27	9031
2504.223	8915
2506.174	8877
2508.126	8912
2510.078	8921
2512.03	9045
2513.979	8950
2515.927	8895
2517.877	8922
2519.826	9042
2521.775	8913
2523.722	9021
2525.668	8995
2527.616	8911
2529.561	9005
2531.508	8879
2533.452	8978
2535.398	8834
2537.342	8917
2539.284	8940
2541.229	8941
2543.173	8972
2545.114	8955
2547.055	8926
2548.996	9030
2550.938	8870
2552.878	8887
2554.817	8992
2556.756	8893
2558.695	8926
2560.633	8991
2562.572	8995
2564.509	8977
2566.445	9071
2568.382	8947
2570.317	8863
2572.254	8939
2574.189	8991
2576.123	9005
2578.057	8843
2579.99	8941
2581.923	8955
2583.855	8932
2585.788	9132
2587.719	8830
2589.65	8913
2591.579	8904
2593.511	8873
2595.44	9062
2597.37	9001
2599.297	8936
2601.225	8919
2603.153	8823
2605.08	9006
2607.007	8983
2608.932	9060
2610.858	8825
2612.782	8994
2614.709	8926
2616.632	8993
2618.556	9052
2620.478	9060
2622.401	9011
2624.324	8916
2626.247	8982
2628.167	9146
2630.088	8922
2632.008	8918
2633.928	9001
2635.848	8983
2637.766	8957
2639.684	8942
2641.603	8999
2643.519	9078
2645.437	9003
2647.353	8998
2649.27	8886
2651.184	8998
2653.099	8959
2655.014	8972
2656.928	9000
2658.842	9071
2660.755	8855
2662.667	8995
2664.579	8875
2666.491	8962
2668.402	8955
2670.312	8947
2672.222	8881
2674.132	8975
2676.042	9037
2677.951	8890
2679.859	9121
2681.766	9031
2683.674	8833
2685.582	8781
2687.488	8904
2689.392	8834
2691.298	8943
2693.202	8933
2695.107	8893
2697.012	8853
2698.914	8984
2700.817	8864
2702.72	9034
2704.622	8907
2706.524	8760
2708.425	8832
2710.326	8975
2712.225	8877
2714.125	8836
2716.024	8725
2717.923	8701
2719.822	8824
2721.719	8894
2723.616	8759
2725.512	9016
2727.41	8948
2729.305	8801
2731.201	8854
2733.095	8872
2734.99	8668
2736.884	8721
2738.778	8891
2740.67	8809
2742.562	8770
2744.455	8855
2746.346	8831
2748.238	8866
2750.129	8828
2752.018	8824
2753.907	8705
2755.797	8852
2757.687	8832
2759.575	8782
2761.462	8840
2763.349	8730
2765.237	8824
2767.124	8795
2769.009	8824
2770.894	8773
2772.779	8889
2774.663	8708
2776.547	8819
2778.431	8756
2780.314	8749
2782.197	8815
2784.078	8697
2785.96	8684
2787.842	8827
2789.723	8794
2791.603	8787
2793.483	8756
2795.362	8755
2797.241	8821
2799.121	8809
2800.997	8747
2802.874	8811
2804.751	8760
2806.628	8665
2808.506	8692
2810.38	8642
2812.255	8744
2814.13	8608
2816.003	8767
2817.878	8561
2819.752	8678
2821.623	8858
2823.496	8559
2825.368	8634
2827.238	8693
2829.111	8661
2830.98	8742
2832.851	8686
2834.719	8778
2836.589	8590
2838.458	8700
2840.327	8661
2842.193	8583
2844.061	8729
2845.927	8720
2847.794	8671
2849.66	8901
2851.525	8821
2853.39	8771
2855.254	8806
2857.117	8913
2858.983	8833
2860.845	8906
2862.707	8883
2864.569	8939
2866.431	8773
2868.293	8949
2870.154	9018
2872.013	8971
2873.873	9060
2875.733	9112
2877.592	9216
2879.451	9183
2881.309	9285
2883.166	9247
2885.022	9356
2886.879	9404
2888.736	9190
2890.591	9247
2892.446	9397
2894.301	9342
2896.155	9359
2898.009	9267
2899.863	9239
2901.716	9195
2903.568	9256
2905.419	9217
2907.27	9251
2909.123	9217
2910.973	9305
2912.824	9387
2914.673	9242
2916.521	9445
2918.372	9491
2920.22	9518
2922.067	9571
2923.914	9492
2925.761	9541
2927.607	9576
2929.455	9686
2931.301	9779
2933.144	9680
2934.99	9729
2936.833	9893
2938.678	9932
2940.522	10018
2942.364	10008
2944.207	9938
2946.048	9919
2947.891	10153
2949.731	10150
2951.571	10072
2953.412	10076
2955.25	9906
2957.09	9821
2958.93	9873
2960.767	9820
2962.606	9739
2964.443	9792
2966.279	9660
2968.116	9592
2969.953	9488
2971.788	9660
2973.623	9537
2975.457	9330
2977.292	9367
2979.127	9255
2980.959	9472
2982.792	9113
2984.624	9261
2986.455	9289
2988.288	9171
2990.119	9083
2991.949	9039
2993.779	9072
2995.608	9035
2997.439	8954
2999.268	8994
3001.096	8878
3002.923	8838
3004.751	8744
3006.578	8943
3008.406	8725
3010.232	8640
3012.057	8470
3013.883	8644
3015.706	8546
3017.532	8545
3019.356	8642
3021.179	8528
3023.002	8518
3024.823	8451
3026.646	8478
3028.469	8334
3030.289	8502
3032.11	8544
3033.93	8511
3035.749	8369
3037.57	8353
3039.39	8255
3041.207	8361
3043.026	8378
3044.842	8272
3046.661	8353
3048.477	8377
3050.294	8240
3052.109	8334
3053.925	8355
3055.739	8286
3057.555	8342
3059.368	8258
3061.181	8278
3062.995	8328
3064.807	8401
3066.62	8127
3068.433	8377
3070.243	8277
3072.054	8335
3073.865	8324
3075.675	8273
3077.485	8242
3079.293	8292
3081.102	8166
3082.911	8256
3084.719	8059
3086.527	8110
3088.333	8134
3090.139	8148
3091.945	8156
3093.75	8069
3095.557	8173
3097.361	8055
3099.165	8048
3100.969	8161
3102.772	8008
3104.575	8140
3106.379	8096
3108.181	7932
3109.982	8146
3111.783	7876
3113.584	8039
3115.386	8062
3117.186	7888
3118.985	8047
3120.783	7942
3122.582	8009
3124.381	8084
3126.179	7993
3127.975	8065
3129.772	7940
3131.569	7974
3133.365	7877
3135.161	7769
3136.956	8020
3138.751	7961
3140.544	7994
3142.338	7942
3144.132	7917
3145.925	7916
3147.717	7927
3149.509	7756
3151.301	7940
3153.091	7852
3154.884	7843
3156.673	7798
3158.462	7803
3160.252	7878
3162.041	7829
3163.831	7857
3165.618	7852
3167.405	7898
3169.193	7836
3170.979	7635
3172.767	7791
3174.553	7838
3176.338	7759
3178.123	7900
3179.907	7806
3181.692	7738
3183.477	7814
3185.259	7686
3187.042	7873
3188.824	7848
3190.607	7959
3192.389	7551
3194.17	7752
3195.951	7654
3197.73	7800
3199.51	7780
3201.289	7644
3203.07	7794
3204.848	7660
3206.626	7723
3208.403	7780
3210.18	7721
3211.959	7744
3213.735	7683
3215.511	7774
3217.285	7637
3219.06	7821
3220.836	7783
3222.611	7684
3224.384	7723
3226.158	7659
3227.929	7750
3229.702	7606
3231.476	7626
3233.248	7585
3235.018	7777
3236.789	7635
3238.56	7662
3240.33	7639
3242.1	7669
3243.869	7767
3245.637	7733
3247.405	7679
3249.172	7780
3250.941	7599
3252.707	7690
3254.474	7730
3256.24	7803
3258.006	7523
3259.772	7675
3261.537	7734
3263.301	7774
3265.065	7666
3266.828	7736
3268.592	7736
3270.355	7571
3272.117	7683
3273.878	7667
3275.64	7533
3277.401	7777
3279.162	7716
3280.922	7650
3282.682	7763
3284.441	7738
3286.199	7685
3287.959	7736
3289.716	7729
3291.475	7856
3293.232	7784
3294.988	7713
3296.744	7610
3298.501	7776
3300.256	7717
3302.011	7774
3303.766	7625
3305.52	7742
3307.275	7631
3309.028	7790
3310.781	7764
3312.533	7570
3314.285	7757
3316.038	7727
3317.789	7684
3319.54	7797
3321.289	7577
3323.039	7531
3324.789	7521
3326.539	7512
3328.288	7631
3330.035	7768
3331.783	7621
3333.531	7635
3335.28	7708
3337.025	7507
3338.771	7653
3340.518	7711
3342.262	7613
3344.009	7460
3345.753	7693
3347.497	7618
3349.24	7563
3350.983	7583
3352.726	7630
3354.469	7485
3356.212	7600
3357.952	7586
3359.694	7640
3361.434	7564
3363.176	7497
3364.916	7627
3366.654	7586
3368.394	7404
3370.132	7469
3371.871	7416
3373.61	7571
3375.346	7496
3377.083	7549
3378.82	7289
3380.556	7478
3382.292	7425
3384.027	7458
3385.763	7470
3387.497	7458
3389.231	7521
3390.965	7447
3392.698	7366
3394.431	7378
3396.164	7446
3397.896	7524
3399.627	7392
3401.36	7521
3403.09	7504
3404.82	7528
3406.55	7447
3408.279	7440
3410.01	7326
3411.738	7404
3413.467	7381
3415.194	7403
3416.92	7479
3418.647	7268
3420.375	7304
3422.102	7294
3423.827	7424
3425.553	7393
3427.277	7205
3429.003	7373
3430.727	7306
3432.451	7397
3434.173	7294
3435.896	7221
3437.62	7439
3439.343	7424
3441.063	7308
3442.785	7255
3444.505	7250
3446.226	7233
3447.948	7307
3449.666	7322
3451.386	7078
3453.104	7160
3454.823	7302
3456.541	7119
3458.259	7189
3459.976	7142
3461.693	7134
3463.408	7142
3465.125	7105
3466.841	7112
3468.556	7166
3470.271	7107
3471.985	7221
3473.698	7135
3475.414	7153
3477.126	7010
3478.838	7140
3480.55	7075
3482.263	6988
3483.975	7057
3485.686	7112
3487.396	6995
3489.106	7116
3490.817	6965
3492.526	7058
3494.236	6979
3495.944	7047
3497.652	7036
3499.359	7066
3501.066	7018
3502.775	6976
3504.481	6967
3506.187	7063
3507.893	6963
3509.598	7046
3511.304	6988
3513.009	6946
3514.713	6921
3516.417	6935
3518.12	6923
3519.821	6974
3521.525	7136
3523.228	7035
3524.929	6899
3526.631	6879
3528.33	6932
3530.032	6835
3531.733	6990
3533.433	7028
3535.131	6857
3536.83	6838
3538.529	6974
3540.227	6872
3541.925	6808
3543.623	6820
3545.319	6888
3547.016	6920
3548.712	6909
3550.408	6894
3552.103	6708
3553.798	6858
3555.491	6824
3557.188	6924
3558.88	6786
3560.574	6729
3562.266	6767
3563.959	6942
3565.651	6765
3567.343	6790
3569.035	6760
3570.725	6617
3572.415	6882
3574.106	6810
3575.797	6773
3577.485	6771
3579.174	6683
3580.863	6835
3582.551	6742
3584.238	6632
3585.926	6736
3587.613	6718
3589.3	6714
3590.986	6784
3592.671	6731
3594.357	6658
3596.042	6661
3597.726	6528
3599.41	6676
3601.094	6594
3602.778	6672
3604.461	6668
3606.143	6566
3607.825	6691
3609.507	6525
3611.188	6661
3612.87	6545
3614.551	6642
3616.229	6538
3617.909	6495
3619.589	6548
3621.269	6422
3622.948	6568
3624.625	6528
3626.302	6472
3627.98	6530
3629.657	6500
3631.334	6619
3633.01	6448
3634.686	6428
3636.361	6446
3638.036	6567
3639.712	6438
3641.385	6549
3643.06	6379
3644.732	6568
3646.405	6472
3648.08	6442
3649.751	6533
3651.424	6359
3653.094	6431
3654.766	6382
3656.436	6483
3658.106	6304
3659.777	6445
3661.446	6456
3663.115	6428
3664.783	6352
3666.452	6479
3668.121	6456
3669.788	6434
3671.454	6407
3673.121	6373
3674.789	6261
3676.455	6355
3678.12	6422
3679.784	6296
3681.45	6332
3683.114	6314
3684.779	6288
3686.442	6295
3688.105	6380
3689.768	6238
3691.43	6333
3693.093	6201
3694.754	6265
3696.415	6304
3698.076	6253
3699.736	6297
3701.396	6356
3703.057	6277
3704.716	6207
3706.375	6317
3708.034	6200
3709.692	6272
3711.351	6205
3713.008	6434
3714.665	6258
3716.321	6204
3717.977	6282
3719.634	6347
3721.29	6270
3722.945	6325
3724.598	6324
3726.253	6398
3727.907	6192
3729.561	6196
3731.214	6233
3732.867	6163
3734.518	6202
3736.171	6250
3737.824	6233
3739.474	6120
3741.125	6169
3742.775	6274
3744.425	6237
3746.074	6241
3747.725	6199
3749.373	6179
3751.022	6182
3752.669	6139
3754.318	6122
3755.966	6061
3757.612	6056
3759.259	6176
3760.905	6200
3762.55	6155
3764.197	6144
3765.842	6104
3767.486	6072
3769.131	6104
3770.774	6069
3772.417	6153
3774.061	6198
3775.705	6045
3777.347	6111
3778.988	6076
3780.629	5982
3782.271	6080
3783.912	6093
3785.552	6012
3787.192	6099
3788.831	6022
3790.472	6158
3792.112	6069
3793.75	6123
3795.388	5975
3797.024	6041
3798.661	6073
3800.3	5952
3801.936	6054
3803.572	6024
3805.208	5964
3806.844	6020
3808.48	5999
3810.115	6044
3811.748	5986
3813.382	6045
3815.016	6053
3816.649	5929
3818.283	5938
3819.914	6028
3821.547	5873
3823.178	5907
3824.809	5892
3826.441	5877
3828.072	5871
3829.701	5924
3831.331	5958
3832.96	5892
3834.591	6059
3836.219	6031
3837.847	6003
3839.475	5997
3841.102	5891
3842.729	5872
3844.357	5792
3845.984	5812
3847.609	5898
3849.234	5911
3850.86	5839
3852.485	5968
3854.11	5799
3855.734	5816
3857.357	5861
3858.981	5946
3860.603	5944
3862.227	5813
3863.848	5805
3865.471	5772
3867.092	5863
3868.713	5909
3870.334	5810
3871.954	5845
3873.575	5623
3875.194	5811
3876.813	5782
3878.433	5668
3880.051	5707
3881.669	5760
3883.286	5833
3884.904	5758
3886.52	5637
3888.138	5834
3889.754	5831
3891.37	5649
3892.985	5775
3894.6	5689
3896.216	5839
3897.831	5796
3899.444	5821
3901.058	5745
3902.67	5793
3904.283	5861
3905.897	5635
3907.509	5741
3909.121	5814
3910.731	5715
3912.342	5742
3913.954	5826
3915.563	5753
3917.174	5699
3918.783	5703
3920.391	5764
3922.002	5687
3923.611	5732
3925.218	5571
3926.826	5701
3928.432	5631
3930.039	5581
3931.647	5741
3933.253	5674
3934.859	5622
3936.464	5675
3938.068	5669
3939.675	5639
3941.278	5644
3942.883	5688
3944.486	5583
3946.089	5779
3947.692	5664
3949.295	5689
3950.898	5719
3952.499	5687
3954.1	5688
3955.7	5542
3957.303	5728
3958.903	5594
3960.502	5624
3962.101	5522
3963.7	5561
3965.301	5592
3966.899	5481
3968.497	5603
3970.094	5603
3971.691	5582
3973.288	5614
3974.885	5656
3976.481	5531
3978.077	5551
3979.672	5536
3981.267	5608
3982.863	5403
3984.457	5542
3986.051	5488
3987.645	5468
3989.238	5538
3990.831	5554
3992.425	5529
3994.017	5511
3995.607	5437
3997.199	5343
3998.79	5539
4000.382	5481
4001.973	5463
4003.561	5527
4005.151	5415
4006.741	5391
4008.331	5422
4009.918	5435
4011.507	5404
4013.095	5343
4014.681	5372
4016.269	5458
4017.856	5317
4019.443	5393
4021.028	5312
4022.614	5380
4024.199	5387
4025.785	5232
4027.37	5327
4028.953	5352
4030.536	5331
4032.12	5335
4033.704	5320
4035.287	5368
4036.869	5297
4038.45	5346
4040.032	5273
4041.613	5334
4043.195	5372
4044.776	5316
4046.356	5309
4047.935	5333
4049.515	5344
4051.095	5237
4052.674	5288
4054.251	5272
4055.829	5312
4057.406	5301
4058.985	5152
4060.562	5329
4062.139	5179
4063.715	5330
4065.29	5219
4066.865	5372
4068.442	5262
4070.016	5260
4071.59	5324
4073.164	5178
4074.738	5111
4076.312	5371
4077.885	5235
4079.458	5213
4081.03	5239
4082.602	5336
4084.173	5234
4085.745	5231
4087.315	5164
4088.886	5179
4090.456	5138
4092.026	5224
4093.596	5069
4095.165	5296
4096.734	5149
4098.301	5229
4099.869	5145
4101.437	5146
4103.006	5206
4104.572	5181
4106.139	5157
4107.704	5114
4109.27	5077
4110.837	5171
4112.401	5137
4113.966	5049
4115.53	5049
4117.094	5117
4118.659	5181
4120.223	5146
4121.785	5064
4123.347	5176
4124.909	5001
4126.471	5125
4128.034	5132
4129.595	5043
4131.155	5078
4132.716	5117
4134.275	5069
4135.836	5124
4137.395	5016
4138.955	5019
4140.513	5085
4142.071	5005
4143.628	5033
4145.188	5043
4146.745	5017
4148.302	5015
4149.858	4944
4151.414	4929
4152.971	5036
4154.526	4978
4156.081	4917
4157.635	5007
4159.189	4962
4160.745	4920
4162.298	5007
4163.852	4965
4165.405	4851
4166.957	4950
4168.51	5130
4170.063	4961
4171.614	4845
4173.166	5024
4174.717	4900
4176.267	4863
4177.817	4932
4179.368	4921
4180.917	4908
4182.466	4821
4184.016	4879
4185.564	4975
4187.112	4916
4188.66	4916
4190.207	4793
4191.754	4891
4193.301	4829
4194.848	4976
4196.394	4786
4197.94	5009
4199.484	4860
4201.03	4862
4202.575	4902
4204.12	4870
4205.663	4829
4207.207	4752
4208.75	4798
4210.292	4857
4211.836	4819
4213.378	4888
4214.92	4788
4216.46	4843
4218.002	4785
4219.544	4842
4221.083	4749
4222.625	4777
4224.164	4793
4225.703	4803
4227.244	4814
4228.782	4766
4230.32	4754
4231.857	4733
4233.395	4747
4234.933	4757
4236.471	4840
4238.007	4915
4239.542	4750
4241.078	4793
4242.614	4877
4244.15	4802
4245.685	4810
4247.219	4863
4248.753	4859
4250.287	4727
4251.82	4792
4253.354	4733
4254.887	4817
4256.419	4723
4257.951	4699
4259.483	4778
4261.016	4768
4262.547	4722
4264.078	4745
4265.608	4742
4267.137	4706
4268.668	4633
4270.197	4699
4271.727	4725
4273.254	4726
4274.783	4651
4276.311	4743
4277.84	4716
4279.366	4662
4280.894	4626
4282.42	4659
4283.946	4664
4285.473	4758
4286.998	4640
4288.523	4613
4290.047	4709
4291.572	4705
4293.096	4608
4294.622	4674
4296.144	4599
4297.668	4672
4299.19	4603
4300.713	4633
4302.236	4514
4303.758	4577
4305.279	4627
4306.799	4607
4308.321	4586
4309.842	4580
4311.361	4593
4312.882	4621
4314.401	4565
