400.0961	2367
402.6185	2499
405.1424	2443
407.6635	2436
410.1838	2443
412.7035	2476
415.2225	2444
417.7388	2518
420.2585	2487
422.7754	2588
425.2917	2586
427.8072	2561
430.3221	2652
432.8363	2610
435.3498	2625
437.8626	2656
440.3727	2607
442.8841	2618
445.3969	2647
447.907	2573
450.4142	2601
452.9229	2601
455.4289	2604
457.9362	2633
460.4449	2557
462.9488	2523
465.454	2601
467.9566	2601
470.4604	2651
472.9637	2552
475.4662	2586
477.966	2564
480.4671	2613
482.9656	2628
485.4633	2619
487.9645	2690
490.4608	2658
492.9566	2593
495.4536	2567
497.948	2652
500.4437	2653
502.9387	2589
505.431	2681
507.9226	2617
510.4136	2634
512.9079	2704
515.3975	2702
517.8864	2631
520.3746	2617
522.8622	2665
525.3491	2669
527.8394	2734
530.3249	2686
532.8098	2679
535.2939	2650
537.7774	2657
540.2623	2674
542.7444	2686
545.2259	2716
547.7067	2715
550.1868	2724
552.6683	2704
555.147	2628
557.6231	2650
560.1005	2733
562.5773	2683
565.0534	2637
567.5308	2729
570.0056	2677
572.4776	2686
574.951	2707
577.4237	2707
579.8978	2742
582.3671	2769
584.8378	2789
587.3079	2785
589.7773	2759
592.244	2821
594.714	2774
597.1793	2753
599.6461	2726
602.1121	2663
604.5754	2689
607.0421	2727
609.5042	2730
611.9675	2743
614.4282	2678
616.8902	2792
619.3515	2705
621.8122	2676
624.2702	2700
626.7296	2762
629.1863	2710
631.6423	2733
634.1017	2760
636.5563	2744
639.0104	2790
641.4658	2681
643.9185	2828
646.3725	2730
648.8239	2769
651.2766	2754
653.7266	2690
656.176	2743
658.6247	2798
661.0748	2789
663.5242	2851
665.9709	2733
668.417	2778
670.8624	2790
673.3092	2796
675.7533	2796
678.1968	2809
680.6395	2773
683.0817	2777
685.5251	2742
687.9659	2835
690.4061	2794
692.8456	2808
695.2844	2868
697.7226	2820
700.1621	2733
702.599	2856
705.0332	2943
707.4688	2870
709.9036	2926
712.3399	2848
714.7735	2837
717.2044	2831
719.6367	2956
722.0683	2870
724.4993	2890
726.9296	2915
729.3593	2907
731.7883	2953
734.2147	2908
736.6423	2885
739.0714	2976
741.4958	2979
743.9216	2899
746.3447	2906
748.7691	2957
751.1929	2970
753.616	3029
756.0366	2979
758.4584	2902
760.8776	2983
763.2982	3021
765.718	3038
768.1373	2970
770.5539	3014
772.9698	2988
775.3871	3029
777.8038	2978
780.2178	2977
782.6332	2994
785.0459	3051
787.458	3046
789.8714	2989
792.2842	2962
794.6943	3056
797.1038	2994
799.5127	2940
801.9209	3038
804.3324	3042
806.7393	3041
809.1456	3077
811.5513	3036
813.9562	3027
816.3625	3058
818.7663	3092
821.1693	3048
823.5718	3040
825.9735	3088
828.3746	3066
830.7771	3081
833.177	2971
835.5762	3027
837.9747	3124
840.3727	3026
842.772	3070
845.1666	3039
847.5626	3167
849.958	3171
852.3527	3197
854.7488	3184
857.1403	3096
859.5331	3166
861.9253	3208
864.3168	3090
866.7057	3108
869.098	3124
871.4876	3108
873.8746	3057
876.263	3161
878.6487	3126
881.0378	3073
883.4243	3074
885.8081	3107
888.1933	3078
890.5759	3103
892.9598	3195
895.343	3175
897.7256	3178
900.1057	3078
902.4871	3121
904.8659	3168
907.246	3168
909.6254	3169
912.0023	3209
914.3786	3202
916.7562	3243
919.1331	3291
921.5074	3280
923.8831	3325
926.2562	3374
928.6287	3322
931.0005	3269
933.3757	3330
935.7462	3347
938.1162	3345
940.4855	3304
942.8542	3349
945.2242	3386
947.5916	3405
949.9584	3486
952.3266	3559
954.6921	3670
957.0571	3662
959.4233	3919
961.787	3865
964.15	3869
966.5125	3868
968.8742	3628
971.2354	3562
973.5959	3502
975.9559	3354
978.3151	3237
980.6738	3297
983.0338	3275
985.3912	3204
987.7461	3268
990.1022	3193
992.4578	3142
994.8127	3172
997.1689	3210
999.5207	3276
1001.874	3351
1004.226	3294
1006.576	3235
1008.929	3353
1011.28	3278
1013.628	3183
1015.977	3294
1018.324	3215
1020.674	3229
1023.019	3293
1025.366	3206
1027.713	3350
1030.056	3265
1032.399	3287
1034.746	3326
1037.087	3356
1039.431	3285
1041.771	3417
1044.113	3301
1046.454	3294
1048.793	3294
1051.133	3290
1053.471	3297
1055.807	3289
1058.146	3309
1060.483	3311
1062.818	3364
1065.153	3334
1067.489	3272
1069.822	3387
1072.156	3341
1074.488	3331
1076.82	3354
1079.15	3362
1081.48	3342
1083.814	3339
1086.143	3329
1088.471	3335
1090.799	3334
1093.126	3299
1095.452	3343
1097.78	3271
1100.105	3339
1102.43	3272
1104.754	3292
1107.077	3327
1109.4	3344
1111.722	3376
1114.044	3290
1116.365	3360
1118.685	3325
1121.005	3358
1123.324	3365
1125.643	3331
1127.961	3327
1130.278	3318
1132.595	3342
1134.911	3421
1137.226	3274
1139.541	3400
1141.854	3333
1144.167	3325
1146.482	3353
1148.793	3308
1151.105	3284
1153.414	3348
1155.725	3288
1158.033	3296
1160.344	3368
1162.651	3331
1164.959	3305
1167.265	3324
1169.572	3323
1171.878	3353
1174.184	3446
1176.488	3298
1178.79	3412
1181.094	3336
1183.396	3372
1185.699	3301
1188.001	3290
1190.301	3318
1192.6	3296
1194.9	3307
1197.2	3389
1199.497	3351
1201.794	3347
1204.09	3395
1206.387	3339
1208.684	3365
1210.978	3378
1213.272	3379
1215.565	3334
1217.858	3352
1220.15	3377
1222.443	3355
1224.734	3406
1227.024	3481
1229.313	3447
1231.602	3411
1233.892	3418
1236.18	3502
1238.467	3502
1240.754	3560
1243.04	3439
1245.325	3519
1247.612	3560
1249.896	3539
1252.178	3538
1254.461	3484
1256.743	3462
1259.027	3518
1261.308	3471
1263.587	3540
1265.867	3514
1268.146	3591
1270.425	3560
1272.703	3523
1274.981	3604
1277.256	3500
1279.532	3537
1281.808	3465
1284.083	3522
1286.358	3545
1288.63	3459
1290.904	3517
1293.175	3542
1295.449	3480
1297.719	3449
1299.99	3516
1302.259	3467
1304.529	3420
1306.798	3405
1309.065	3447
1311.333	3551
1313.599	3476
1315.866	3468
1318.131	3573
1320.396	3461
1322.66	3525
1324.925	3408
1327.187	3472
1329.448	3509
1331.711	3525
1333.974	3554
1336.234	3435
1338.493	3477
1340.752	3574
1343.01	3458
1345.269	3445
1347.526	3549
1349.784	3497
1352.04	3437
1354.295	3465
1356.552	3554
1358.806	3426
1361.059	3457
1363.312	3467
1365.564	3455
1367.818	3453
1370.069	3531
1372.318	3436
1374.568	3445
1376.817	3528
1379.066	3466
1381.316	3557
1383.564	3564
1385.809	3492
1388.056	3485
1390.301	3625
1392.549	3587
1394.793	3599
1397.036	3617
1399.279	3733
1401.522	3637
1403.763	3713
1406.007	3632
1408.248	3650
1410.487	3659
1412.727	3609
1414.965	3653
1417.205	3606
1419.442	3661
1421.68	3539
1423.915	3699
1426.152	3620
1428.388	3653
1430.623	3630
1432.857	3693
1435.091	3663
1437.323	3654
1439.556	3758
1441.789	3785
1444.019	3681
1446.25	3745
1448.48	3715
1450.708	3665
1452.938	3694
1455.167	3817
1457.394	3841
1459.62	3673
1461.846	3780
1464.073	3763
1466.299	3767
1468.523	3711
1470.746	3651
1472.969	3639
1475.191	3590
1477.415	3583
1479.636	3482
1481.858	3550
1484.078	3538
1486.298	3625
1488.518	3471
1490.736	3574
1492.954	3508
1495.169	3450
1497.386	3494
1499.602	3462
1501.819	3601
1504.034	3464
1506.248	3498
1508.462	3496
1510.675	3567
1512.888	3570
1515.1	3499
1517.311	3552
1519.522	3530
1521.732	3553
1523.942	3472
1526.151	3520
1528.36	3520
1530.566	3437
1532.773	3532
1534.98	3487
1537.187	3430
1539.392	3514
1541.596	3457
1543.801	3544
1546.005	3569
1548.208	3583
1550.411	3565
1552.612	3495
1554.814	3606
1557.013	3512
1559.212	3528
1561.414	3600
1563.612	3564
1565.811	3611
1568.007	3551
1570.203	3549
1572.403	3571
1574.598	3713
1576.792	3583
1578.988	3599
1581.181	3583
1583.376	3677
1585.568	3632
1587.761	3663
1589.952	3576
1592.143	3681
1594.333	3578
1596.524	3653
1598.715	3611
1600.903	3674
1603.091	3666
1605.278	3616
1607.466	3646
1609.652	3617
1611.838	3663
1614.023	3603
1616.207	3676
1618.391	3712
1620.576	3550
1622.759	3695
1624.941	3686
1627.123	3658
1629.304	3648
1631.484	3695
1633.664	3633
1635.844	3728
1638.022	3698
1640.201	3664
1642.38	3682
1644.556	3731
1646.732	3806
1648.908	3668
1651.084	3694
1653.257	3678
1655.433	3718
1657.607	3690
1659.779	3816
1661.951	3726
1664.122	3748
1666.295	3807
1668.467	3749
1670.635	3759
1672.805	3688
1674.973	3717
1677.142	3794
1679.31	3753
1681.478	3707
1683.644	3695
1685.81	3735
1687.975	3722
1690.142	3666
1692.305	3714
1694.468	3670
1696.632	3678
1698.794	3721
1700.957	3619
1703.119	3785
1705.279	3680
1707.439	3643
1709.598	3622
1711.758	3597
1713.917	3676
1716.075	3676
1718.231	3587
1720.388	3619
1722.543	3641
1724.702	3653
1726.856	3580
1729.01	3679
1731.164	3607
1733.317	3635
1735.471	3608
1737.623	3608
1739.774	3671
1741.925	3610
1744.075	3573
1746.225	3632
1748.376	3569
1750.524	3720
1752.672	3613
1754.82	3611
1756.965	3644
1759.113	3671
1761.259	3604
1763.405	3631
1765.549	3676
1767.694	3684
1769.836	3728
1771.981	3667
1774.123	3681
1776.264	3616
1778.405	3632
1780.546	3714
1782.687	3607
1784.827	3722
1786.966	3684
1789.103	3675
1791.242	3677
1793.381	3624
1795.517	3653
1797.653	3594
1799.788	3631
1801.923	3696
1804.057	3664
1806.193	3632
1808.326	3623
1810.457	3761
1812.59	3699
1814.721	3686
1816.855	3559
1818.984	3720
1821.113	3652
1823.244	3684
1825.372	3616
1827.499	3645
1829.63	3636
1831.756	3679
1833.882	3655
1836.007	3586
1838.132	3608
1840.26	3616
1842.384	3626
1844.507	3603
1846.63	3655
1848.752	3604
1850.875	3629
1852.996	3618
1855.118	3656
1857.238	3639
1859.358	3696
1861.477	3615
1863.597	3696
1865.715	3661
1867.832	3647
1869.948	3620
1872.064	3607
1874.181	3678
1876.297	3533
1878.411	3706
1880.526	3727
1882.639	3651
1884.752	3630
1886.865	3646
1888.977	3579
1891.089	3636
1893.2	3652
1895.308	3616
1897.42	3670
1899.53	3666
1901.639	3626
1903.745	3669
1905.853	3727
1907.962	3664
1910.067	3705
1912.174	3599
1914.278	3719
1916.383	3689
1918.486	3772
1920.592	3707
1922.694	3652
1924.797	3691
1926.898	3715
1929	3728
1931.102	3666
1933.203	3633
1935.301	3773
1937.401	3647
1939.499	3690
1941.598	3657
1943.697	3754
1945.793	3681
1947.888	3653
1949.985	3677
1952.08	3745
1954.176	3687
1956.269	3652
1958.364	3653
1960.457	3662
1962.549	3675
1964.642	3650
1966.733	3727
1968.823	3787
1970.913	3639
1973.005	3618
1975.093	3627
1977.184	3795
1979.271	3666
1981.359	3721
1983.446	3679
1985.532	3667
1987.619	3669
1989.705	3694
1991.789	3706
1993.874	3631
1995.956	3632
1998.041	3683
2000.123	3702
2002.206	3618
2004.287	3678
2006.368	3712
2008.449	3628
2010.529	3690
2012.609	3712
2014.688	3654
2016.766	3651
2018.843	3666
2020.922	3626
2022.999	3579
2025.074	3670
2027.15	3694
2029.225	3757
2031.299	3635
2033.375	3631
2035.447	3590
2037.52	3671
2039.592	3622
2041.664	3718
2043.736	3690
2045.807	3603
2047.876	3672
2049.947	3669
2052.015	3666
2054.086	3699
2056.153	3654
2058.221	3719
2060.288	3734
2062.353	3749
2064.42	3702
2066.486	3682
2068.55	3640
2070.614	3741
2072.678	3719
2074.741	3657
2076.805	3739
2078.866	3578
2080.929	3704
2082.99	3653
2085.049	3638
2087.109	3687
2089.17	3697
2091.228	3687
2093.286	3694
2095.344	3673
2097.4	3670
2099.46	3718
2101.516	3658
2103.572	3702
2105.626	3703
2107.679	3670
2109.735	3720
2111.788	3747
2113.841	3671
2115.894	3710
2117.945	3711
2119.997	3706
2122.049	3731
2124.1	3762
2126.148	3701
2128.197	3664
2130.246	3706
2132.296	3627
2134.342	3750
2136.39	3750
2138.437	3644
2140.483	3742
2142.527	3685
2144.574	3676
2146.619	3687
2148.661	3652
2150.705	3594
2152.747	3832
2154.792	3630
2156.832	3738
2158.874	3676
2160.915	3567
2162.954	3755
2164.995	3679
2167.034	3645
2169.072	3725
2171.111	3648
2173.148	3665
2175.186	3662
2177.223	3622
2179.258	3720
2181.294	3652
2183.328	3620
2185.362	3694
2187.398	3588
2189.431	3633
2191.463	3619
2193.495	3632
2195.528	3666
2197.56	3618
2199.59	3647
2201.62	3634
2203.649	3610
2205.678	3567
2207.708	3601
2209.737	3697
2211.764	3562
2213.791	3612
2215.817	3635
2217.843	3601
2219.87	3591
2221.895	3640
2223.919	3587
2225.942	3714
2227.966	3592
2229.988	3673
2232.012	3531
2234.032	3647
2236.054	3652
2238.074	3580
2240.095	3624
2242.116	3671
2244.135	3628
2246.153	3587
2248.171	3587
2250.188	3604
2252.208	3628
2254.223	3682
2256.239	3592
2258.255	3607
2260.269	3637
2262.283	3586
2264.3	3639
2266.312	3734
2268.325	3595
2270.336	3573
2272.349	3593
2274.362	3619
2276.372	3613
2278.383	3529
2280.392	3520
2282.402	3689
2284.409	3569
2286.418	3582
2288.427	3692
2290.433	3615
2292.441	3637
2294.446	3614
2296.453	3616
2298.459	3660
2300.463	3643
2302.466	3652
2304.471	3591
2306.475	3563
2308.477	3615
2310.478	3682
2312.481	3615
2314.481	3638
2316.481	3659
2318.482	3551
2320.482	3605
2322.48	3604
2324.48	3586
2326.478	3550
2328.476	3622
2330.473	3580
2332.469	3541
2334.465	3566
2336.46	3541
2338.454	3572
2340.45	3509
2342.444	3602
2344.437	3537
2346.43	3576
2348.421	3502
2350.414	3613
2352.405	3569
2354.396	3578
2356.386	3575
2358.376	3598
2360.366	3506
2362.355	3542
2364.343	3543
2366.331	3611
2368.317	3621
2370.304	3494
2372.292	3507
2374.278	3496
2376.262	3530
2378.247	3542
2380.23	3520
2382.216	3547
2384.199	3572
2386.181	3486
2388.163	3555
2390.144	3515
2392.127	3536
2394.107	3511
2396.087	3638
2398.066	3477
2400.046	3579
2402.023	3518
2404.004	3588
2405.981	3550
2407.957	3579
2409.934	3493
2411.91	3455
2413.886	3505
2415.862	3500
2417.836	3481
2419.809	3507
2421.784	3523
2423.756	3507
2425.73	3531
2427.701	3507
2429.672	3601
2431.644	3495
2433.615	3514
2435.586	3550
2437.555	3553
2439.523	3561
2441.491	3512
2443.459	3499
2445.428	3493
2447.395	3530
2449.361	3515
2451.327	3571
2453.292	3494
2455.257	3602
2457.223	3530
2459.187	3492
2461.15	3518
2463.113	3457
2465.076	3611
2467.039	3517
2468.999	3485
2470.96	3540
2472.921	3541
2474.881	3466
2476.841	3461
2478.8	3550
2480.759	3581
2482.717	3578
2484.675	3439
2486.63	3522
2488.589	3455
2490.545	3536
2492.5	3392
2494.455	3506
2496.408	3494
2498.364	3509
2500.318	3504
2502.27	3398
2504.223	3493
2506.174	3432
2508.126	3450
2510.078	3456
2512.03	3501
2513.979	3501
2515.927	3379
2517.877	3474
2519.826	3508
2521.775	3455
2523.722	3498
2525.668	3476
2527.616	3433
2529.561	3411
2531.508	3529
2533.452	3494
2535.398	3495
2537.342	3479
2539.284	3401
2541.229	3470
2543.173	3418
2545.114	3439
2547.055	3476
2548.996	3435
2550.938	3443
2552.878	3499
2554.817	3420
2556.756	3514
2558.695	3520
2560.633	3492
2562.572	3482
2564.509	3481
2566.445	3482
2568.382	3442
2570.317	3511
2572.254	3498
2574.189	3472
2576.123	3417
2578.057	3499
2579.99	3521
2581.923	3485
2583.855	3488
2585.788	3498
2587.719	3437
2589.65	3568
2591.579	3480
2593.511	3445
2595.44	3478
2597.37	3454
2599.297	3526
2601.225	3424
2603.153	3524
2605.08	3438
2607.007	3476
2608.932	3427
2610.858	3474
2612.782	3490
2614.709	3528
2616.632	3452
2618.556	3446
2620.478	3452
2622.401	3575
2624.324	3529
2626.247	3440
2628.167	3528
2630.088	3476
2632.008	3428
2633.928	3547
2635.848	3458
2637.766	3532
2639.684	3486
2641.603	3522
2643.519	3486
2645.437	3502
2647.353	3441
2649.27	3466
2651.184	3538
2653.099	3585
2655.014	3530
2656.928	3484
2658.842	3504
2660.755	3481
2662.667	3443
2664.579	3418
2666.491	3482
2668.402	3453
2670.312	3498
2672.222	3472
2674.132	3516
2676.042	3563
2677.951	3435
2679.859	3515
2681.766	3405
2683.674	3510
2685.582	3470
2687.488	3428
2689.392	3426
2691.298	3442
2693.202	3485
2695.107	3494
2697.012	3482
2698.914	3485
2700.817	3443
2702.72	3508
2704.622	3456
2706.524	3462
2708.425	3431
2710.326	3504
2712.225	3429
2714.125	3475
2716.024	3415
2717.923	3426
2719.822	3480
2721.719	3428
2723.616	3468
2725.512	3490
2727.41	3494
2729.305	3399
2731.201	3427
2733.095	3524
2734.99	3463
2736.884	3388
2738.778	3427
2740.67	3437
2742.562	3483
2744.455	3515
2746.346	3417
2748.238	3420
2750.129	3503
2752.018	3359
2753.907	3456
2755.797	3471
2757.687	3529
2759.575	3403
2761.462	3441
2763.349	3426
2765.237	3443
2767.124	3456
2769.009	3495
2770.894	3451
2772.779	3456
2774.663	3503
2776.547	3523
2778.431	3464
2780.314	3425
2782.197	3400
2784.078	3437
2785.96	3428
2787.842	3434
2789.723	3403
2791.603	3404
2793.483	3424
2795.362	3483
2797.241	3448
2799.121	3469
2800.997	3385
2802.874	3504
2804.751	3403
2806.628	3450
2808.506	3521
2810.38	3435
2812.255	3484
2814.13	3490
2816.003	3425
2817.878	3425
2819.752	3466
2821.623	3398
2823.496	3396
2825.368	3493
2827.238	3402
2829.111	3506
2830.98	3361
2832.851	3421
2834.719	3432
2836.589	3386
2838.458	3397
2840.327	3410
2842.193	3502
2844.061	3440
2845.927	3540
2847.794	3507
2849.66	3514
2851.525	3526
2853.39	3546
2855.254	3537
2857.117	3557
2858.983	3570
2860.845	3596
2862.707	3605
2864.569	3674
2866.431	3711
2868.293	3619
2870.154	3708
2872.013	3704
2873.873	3664
2875.733	3800
2877.592	3746
2879.451	3851
2881.309	3879
2883.166	3963
2885.022	3918
2886.879	3899
2888.736	3954
2890.591	3960
2892.446	3969
2894.301	3942
2896.155	3996
2898.009	3983
2899.863	3962
2901.716	3913
2903.568	4030
2905.419	3902
2907.27	3916
2909.123	3860
2910.973	3886
2912.824	4000
2914.673	3970
2916.521	4034
2918.372	3945
2920.22	4038
2922.067	4159
2923.914	4170
2925.761	4217
2927.607	4200
2929.455	4182
2931.301	4207
2933.144	4274
2934.99	4303
2936.833	4313
2938.678	4319
2940.522	4316
2942.364	4399
2944.207	4452
2946.048	4526
2947.891	4598
2949.731	4584
2951.571	4538
2953.412	4671
2955.25	4562
2957.09	4500
2958.93	4505
2960.767	4532
2962.606	4403
2964.443	4434
2966.279	4323
2968.116	4349
2969.953	4194
2971.788	4213
2973.623	4184
2975.457	4175
2977.292	4085
2979.127	4005
2980.959	4017
2982.792	3970
2984.624	3928
2986.455	3944
2988.288	3939
2990.119	3853
2991.949	3847
2993.779	3826
2995.608	3792
2997.439	3764
2999.268	3697
3001.096	3679
3002.923	3741
3004.751	3584
3006.578	3610
3008.406	3595
3010.232	3549
3012.057	3505
3013.883	3461
3015.706	3553
3017.532	3458
3019.356	3462
3021.179	3448
3023.002	3462
3024.823	3358
3026.646	3368
3028.469	3345
3030.289	3326
3032.11	3350
3033.93	3319
3035.749	3321
3037.57	3326
3039.39	3289
3041.207	3347
3043.026	3387
3044.842	3401
3046.661	3291
3048.477	3317
3050.294	3319
3052.109	3343
3053.925	3308
3055.739	3263
3057.555	3338
3059.368	3273
3061.181	3265
3062.995	3261
3064.807	3343
3066.62	3180
3068.433	3329
3070.243	3305
3072.054	3339
3073.865	3293
3075.675	3280
3077.485	3330
3079.293	3294
3081.102	3244
3082.911	3222
3084.719	3175
3086.527	3263
3088.333	3321
3090.139	3207
3091.945	3277
3093.75	3247
3095.557	3292
3097.361	3248
3099.165	3203
3100.969	3242
3102.772	3180
3104.575	3293
3106.379	3217
3108.181	3189
3109.982	3191
3111.783	3231
3113.584	3212
3115.386	3221
3117.186	3215
3118.985	3223
3120.783	3210
3122.582	3155
3124.381	3195
3126.179	3103
3127.975	3189
3129.772	3176
3131.569	3267
3133.365	3146
3135.161	3191
3136.956	3183
3138.751	3172
3140.544	3180
3142.338	3142
3144.132	3171
3145.925	3143
3147.717	3097
3149.509	3094
3151.301	3229
3153.091	3076
3154.884	3129
3156.673	3180
3158.462	3089
3160.252	3151
3162.041	3110
3163.831	3147
3165.618	3084
3167.405	3115
3169.193	3141
3170.979	3181
3172.767	3123
3174.553	3069
3176.338	3154
3178.123	3128
3179.907	3114
3181.692	3035
3183.477	3148
3185.259	3125
3187.042	3147
3188.824	3100
3190.607	3068
3192.389	3106
3194.17	3058
3195.951	3138
3197.73	3143
3199.51	3103
3201.289	3097
3203.07	3128
3204.848	3116
3206.626	3155
3208.403	3137
3210.18	3159
3211.959	3131
3213.735	3068
3215.511	3064
3217.285	3134
3219.06	3081
3220.836	3148
3222.611	3120
3224.384	3078
3226.158	3106
3227.929	3085
3229.702	3007
3231.476	3123
3233.248	3154
3235.018	3133
3236.789	3110
3238.56	3081
3240.33	3088
3242.1	3108
3243.869	3186
3245.637	3107
3247.405	3020
3249.172	3093
3250.941	3157
3252.707	3061
3254.474	3094
3256.24	3135
3258.006	3115
3259.772	3085
3261.537	3119
3263.301	3086
3265.065	3117
3266.828	3075
3268.592	3077
3270.355	3189
3272.117	3105
3273.878	3123
3275.64	3068
3277.401	3114
3279.162	3109
3280.922	3157
3282.682	3119
3284.441	3074
3286.199	3141
3287.959	3159
3289.716	3069
3291.475	3129
3293.232	3058
3294.988	3097
3296.744	3147
3298.501	3065
3300.256	3085
3302.011	3136
3303.766	3136
3305.52	3097
3307.275	3173
3309.028	3103
3310.781	3168
3312.533	3098
3314.285	3126
3316.038	3126
3317.789	3140
3319.54	3144
3321.289	3156
3323.039	3131
3324.789	3172
3326.539	3104
3328.288	3141
3330.035	3155
3331.783	3098
3333.531	3144
3335.28	3154
3337.025	3064
3338.771	3012
3340.518	3130
3342.262	3188
3344.009	3012
3345.753	3076
3347.497	3108
3349.24	3113
3350.983	3084
3352.726	3101
3354.469	3137
3356.212	3111
3357.952	3098
3359.694	3030
3361.434	3065
3363.176	3061
3364.916	3077
3366.654	3032
3368.394	3146
3370.132	3068
3371.871	2998
3373.61	3008
3375.346	3067
3377.083	3049
3378.82	2972
3380.556	3002
3382.292	3048
3384.027	3060
3385.763	3040
3387.497	2981
3389.231	3059
3390.965	3013
3392.698	2968
3394.431	3011
3396.164	3027
3397.896	3056
3399.627	2964
3401.36	2965
3403.09	2994
3404.82	2955
3406.55	3039
3408.279	2972
3410.01	3023
3411.738	2972
3413.467	3032
3415.194	3007
3416.92	2956
3418.647	2951
3420.375	2942
3422.102	2948
3423.827	2960
3425.553	2930
3427.277	2916
3429.003	2967
3430.727	3002
3432.451	2989
3434.173	2968
3435.896	2954
3437.62	2961
3439.343	2975
3441.063	2978
3442.785	2975
3444.505	2863
3446.226	3002
3447.948	2927
3449.666	2919
3451.386	2831
3453.104	2941
3454.823	2941
3456.541	2926
3458.259	2926
3459.976	2865
3461.693	2956
3463.408	2895
3465.125	2874
3466.841	2830
3468.556	2876
3470.271	2836
3471.985	2937
3473.698	2828
3475.414	2864
3477.126	2819
3478.838	2849
3480.55	2827
3482.263	2814
3483.975	2854
3485.686	2870
3487.396	2809
3489.106	2805
3490.817	2868
3492.526	2786
3494.236	2724
3495.944	2803
3497.652	2790
3499.359	2834
3501.066	2852
3502.775	2791
3504.481	2787
3506.187	2824
3507.893	2812
3509.598	2754
3511.304	2732
3513.009	2848
3514.713	2763
3516.417	2790
3518.12	2847
3519.821	2770
3521.525	2825
3523.228	2759
3524.929	2743
3526.631	2770
3528.33	2762
3530.032	2760
3531.733	2817
3533.433	2819
3535.131	2743
3536.83	2761
3538.529	2785
3540.227	2758
3541.925	2821
3543.623	2757
3545.319	2723
3547.016	2767
3548.712	2784
3550.408	2738
3552.103	2727
3553.798	2718
3555.491	2683
3557.188	2674
3558.88	2707
3560.574	2682
3562.266	2771
3563.959	2702
3565.651	2649
3567.343	2713
3569.035	2680
3570.725	2691
3572.415	2727
3574.106	2672
3575.797	2711
3577.485	2690
3579.174	2670
3580.863	2687
3582.551	2678
3584.238	2681
3585.926	2674
3587.613	2730
3589.3	2660
3590.986	2642
3592.671	2685
3594.357	2644
3596.042	2638
3597.726	2685
3599.41	2595
3601.094	2625
3602.778	2604
3604.461	2600
3606.143	2659
3607.825	2617
3609.507	2678
3611.188	2588
3612.87	2615
3614.551	2574
3616.229	2647
3617.909	2507
3619.589	2598
3621.269	2636
3622.948	2463
3624.625	2613
3626.302	2557
3627.98	2536
3629.657	2556
3631.334	2485
3633.01	2582
3634.686	2599
3636.361	2570
3638.036	2576
3639.712	2528
3641.385	2550
3643.06	2525
3644.732	2597
3646.405	2615
3648.08	2511
3649.751	2462
3651.424	2585
3653.094	2531
3654.766	2497
3656.436	2606
3658.106	2517
3659.777	2530
3661.446	2507
3663.115	2503
3664.783	2540
3666.452	2488
3668.121	2556
3669.788	2511
3671.454	2529
3673.121	2575
3674.789	2428
3676.455	2456
3678.12	2476
3679.784	2500
3681.45	2503
3683.114	2448
3684.779	2519
3686.442	2455
3688.105	2446
3689.768	2478
3691.43	2516
3693.093	2563
3694.754	2499
3696.415	2568
3698.076	2452
3699.736	2446
3701.396	2457
3703.057	2457
3704.716	2479
3706.375	2449
3708.034	2438
3709.692	2484
3711.351	2466
3713.008	2471
3714.665	2508
3716.321	2419
3717.977	2455
3719.634	2501
3721.29	2396
3722.945	2433
3724.598	2414
3726.253	2480
3727.907	2489
3729.561	2487
3731.214	2456
3732.867	2392
3734.518	2439
3736.171	2455
3737.824	2398
3739.474	2452
3741.125	2394
3742.775	2409
3744.425	2402
3746.074	2372
3747.725	2412
3749.373	2403
3751.022	2394
3752.669	2366
3754.318	2437
3755.966	2463
3757.612	2401
3759.259	2427
3760.905	2507
3762.55	2460
3764.197	2387
3765.842	2372
3767.486	2382
3769.131	2387
3770.774	2363
3772.417	2407
3774.061	2368
3775.705	2403
3777.347	2360
3778.988	2402
3780.629	2387
3782.271	2383
3783.912	2353
3785.552	2322
3787.192	2342
3788.831	2396
3790.472	2356
3792.112	2360
3793.75	2339
3795.388	2447
3797.024	2366
3798.661	2357
3800.3	2368
3801.936	2354
3803.572	2327
3805.208	2352
3806.844	2344
3808.48	2327
3810.115	2349
3811.748	2288
3813.382	2293
3815.016	2372
3816.649	2338
3818.283	2310
3819.914	2407
3821.547	2285
3823.178	2233
3824.809	2290
3826.441	2261
3828.072	2337
3829.701	2354
3831.331	2353
3832.96	2313
3834.591	2294
3836.219	2365
3837.847	2348
3839.475	2310
3841.102	2304
3842.729	2305
3844.357	2328
3845.984	2358
3847.609	2296
3849.234	2318
3850.86	2260
3852.485	2322
3854.11	2270
3855.734	2327
3857.357	2269
3858.981	2312
3860.603	2282
3862.227	2334
3863.848	2298
3865.471	2280
3867.092	2267
3868.713	2245
3870.334	2297
3871.954	2253
3873.575	2321
3875.194	2279
3876.813	2267
3878.433	2274
3880.051	2208
3881.669	2308
3883.286	2265
3884.904	2241
3886.52	2272
3888.138	2275
3889.754	2277
3891.37	2277
3892.985	2328
3894.6	2287
3896.216	2215
3897.831	2229
3899.444	2220
3901.058	2294
3902.67	2277
3904.283	2189
3905.897	2273
3907.509	2227
3909.121	2289
3910.731	2227
3912.342	2232
3913.954	2263
3915.563	2243
3917.174	2266
3918.783	2263
3920.391	2280
3922.002	2213
3923.611	2230
3925.218	2188
3926.826	2227
3928.432	2214
3930.039	2230
3931.647	2201
3933.253	2267
3934.859	2310
3936.464	2232
3938.068	2152
3939.675	2227
3941.278	2290
3942.883	2218
3944.486	2227
3946.089	2191
3947.692	2233
3949.295	2189
3950.898	2167
3952.499	2210
3954.1	2250
3955.7	2218
3957.303	2182
3958.903	2192
3960.502	2166
3962.101	2220
3963.7	2134
3965.301	2282
3966.899	2228
3968.497	2260
3970.094	2173
3971.691	2179
3973.288	2182
3974.885	2160
3976.481	2229
3978.077	2176
3979.672	2162
3981.267	2198
3982.863	2192
3984.457	2188
3986.051	2180
3987.645	2163
3989.238	2164
3990.831	2135
3992.425	2124
3994.017	2214
3995.607	2224
3997.199	2176
3998.79	2155
4000.382	2149
4001.973	2151
4003.561	2195
4005.151	2146
4006.741	2158
4008.331	2145
4009.918	2123
4011.507	2149
4013.095	2138
4014.681	2055
4016.269	2132
4017.856	2156
4019.443	2105
4021.028	2077
4022.614	2125
4024.199	2128
4025.785	2120
4027.37	2066
4028.953	2079
4030.536	2142
4032.12	2075
4033.704	2073
4035.287	2072
4036.869	2123
4038.45	2109
4040.032	2086
4041.613	2082
4043.195	2043
4044.776	2045
4046.356	2119
4047.935	2103
4049.515	2070
4051.095	2063
4052.674	2066
4054.251	2061
4055.829	2098
4057.406	2051
4058.985	2020
4060.562	2071
4062.139	2096
4063.715	2081
4065.29	2061
4066.865	2048
4068.442	2096
4070.016	2015
4071.59	2061
4073.164	2023
4074.738	2000
4076.312	2096
4077.885	2077
4079.458	2069
4081.03	2037
4082.602	2092
4084.173	2056
4085.745	2047
4087.315	2035
4088.886	2029
4090.456	2023
4092.026	2056
4093.596	2064
4095.165	2027
4096.734	2062
4098.301	2036
4099.869	2072
4101.437	2012
4103.006	2064
4104.572	1990
4106.139	2012
4107.704	2053
4109.27	2041
4110.837	2033
4112.401	2014
4113.966	2007
4115.53	2009
4117.094	1984
4118.659	1988
4120.223	2014
4121.785	1986
4123.347	2010
4124.909	1993
4126.471	1960
4128.034	1918
4129.595	1976
4131.155	2006
4132.716	1990
4134.275	1990
4135.836	2012
4137.395	2018
4138.955	2005
4140.513	1984
4142.071	2042
4143.628	1963
4145.188	2032
4146.745	1934
4148.302	1954
4149.858	1937
4151.414	1967
4152.971	1984
4154.526	1937
4156.081	1969
4157.635	1998
4159.189	1939
4160.745	1927
4162.298	1878
4163.852	1898
4165.405	1970
4166.957	1866
4168.51	1911
4170.063	1894
4171.614	1937
4173.166	1918
4174.717	1976
4176.267	1962
4177.817	1902
4179.368	1957
4180.917	1946
4182.466	1983
4184.016	1938
4185.564	1938
4187.112	1906
4188.66	1983
4190.207	1910
4191.754	1916
4193.301	1927
4194.848	1929
4196.394	1967
4197.94	1905
4199.484	1893
4201.03	1905
4202.575	1900
4204.12	1907
4205.663	1924
4207.207	1857
4208.75	1945
4210.292	1910
4211.836	1891
4213.378	1900
4214.92	1892
4216.46	1914
4218.002	1935
4219.544	1865
4221.083	1906
4222.625	1942
4224.164	1900
4225.703	1915
4227.244	1883
4228.782	1897
4230.32	1923
4231.857	1861
4233.395	1835
4234.933	1877
4236.471	1920
4238.007	1859
4239.542	1911
4241.078	1905
4242.614	1897
4244.15	1897
4245.685	1847
4247.219	1874
4248.753	1848
4250.287	1834
4251.82	1847
4253.354	1864
4254.887	1860
4256.419	1834
4257.951	1841
4259.483	1873
4261.016	1876
4262.547	1879
4264.078	1852
4265.608	1860
4267.137	1853
4268.668	1815
4270.197	1854
4271.727	1908
4273.254	1845
4274.783	1853
4276.311	1854
4277.84	1806
4279.366	1860
4280.894	1884
4282.42	1878
4283.946	1830
4285.473	1842
4286.998	1812
4288.523	1807
4290.047	1831
4291.572	1849
4293.096	1821
4294.622	1826
4296.144	1787
4297.668	1795
4299.19	1877
4300.713	1802
4302.236	1783
4303.758	1839
4305.279	1798
4306.799	1760
4308.321	1811
4309.842	1841
4311.361	1787
4312.882	1819
4314.401	1832
