400.0961	2516
402.6185	2500
405.1424	2553
407.6635	2543
410.1838	2485
412.7035	2541
415.2225	2553
417.7388	2636
420.2585	2699
422.7754	2653
425.2917	2677
427.8072	2705
430.3221	2682
432.8363	2737
435.3498	2694
437.8626	2787
440.3727	2715
442.8841	2720
445.3969	2761
447.907	2727
450.4142	2745
452.9229	2703
455.4289	2696
457.9362	2723
460.4449	2653
462.9488	2653
465.454	2641
467.9566	2657
470.4604	2678
472.9637	2659
475.4662	2611
477.966	2593
480.4671	2665
482.9656	2659
485.4633	2667
487.9645	2635
490.4608	2669
492.9566	2664
495.4536	2694
497.948	2735
500.4437	2702
502.9387	2705
505.431	2706
507.9226	2776
510.4136	2727
512.9079	2734
515.3975	2717
517.8864	2757
520.3746	2689
522.8622	2674
525.3491	2732
527.8394	2760
530.3249	2689
532.8098	2749
535.2939	2737
537.7774	2720
540.2623	2733
542.7444	2717
545.2259	2758
547.7067	2738
550.1868	2690
552.6683	2754
555.147	2816
557.6231	2807
560.1005	2794
562.5773	2860
565.0534	2767
567.5308	2821
570.0056	2831
572.4776	2900
574.951	2853
577.4237	2840
579.8978	2876
582.3671	2863
584.8378	2943
587.3079	2926
589.7773	2941
592.244	2897
594.714	2903
597.1793	2932
599.6461	2904
602.1121	2876
604.5754	2860
607.0421	2858
609.5042	2818
611.9675	2857
614.4282	2833
616.8902	2867
619.3515	2875
621.8122	2911
624.2702	2771
626.7296	2825
629.1863	2835
631.6423	2836
634.1017	2797
636.5563	2821
639.0104	2767
641.4658	2809
643.9185	2739
646.3725	2783
648.8239	2844
651.2766	2782
653.7266	2835
656.176	2845
658.6247	2847
661.0748	2871
663.5242	2795
665.9709	2809
668.417	2869
670.8624	2843
673.3092	2864
675.7533	2836
678.1968	2922
680.6395	2849
683.0817	2916
685.5251	2901
687.9659	2922
690.4061	2879
692.8456	2859
695.2844	2878
697.7226	2913
700.1621	2908
702.599	2939
705.0332	2928
707.4688	2960
709.9036	2914
712.3399	2907
714.7735	2949
717.2044	2918
719.6367	3007
722.0683	2924
724.4993	3012
726.9296	2983
729.3593	2913
731.7883	2897
734.2147	2976
736.6423	2976
739.0714	3008
741.4958	3027
743.9216	2962
746.3447	3055
748.7691	3053
751.1929	3056
753.616	2991
756.0366	3118
758.4584	3056
760.8776	3060
763.2982	3098
765.718	3058
768.1373	3110
770.5539	3089
772.9698	3091
775.3871	3020
777.8038	3070
780.2178	3086
782.6332	3115
785.0459	3079
787.458	3126
789.8714	3050
792.2842	3092
794.6943	3069
797.1038	3187
799.5127	3084
801.9209	3115
804.3324	3122
806.7393	3248
809.1456	3112
811.5513	3142
813.9562	3145
816.3625	3207
818.7663	3174
821.1693	3127
823.5718	3095
825.9735	3151
828.3746	3064
830.7771	3074
833.177	3103
835.5762	3135
837.9747	3206
840.3727	3123
842.772	3156
845.1666	3137
847.5626	3164
849.958	3248
852.3527	3203
854.7488	3247
857.1403	3211
859.5331	3277
861.9253	3229
864.3168	3159
866.7057	3149
869.098	3242
871.4876	3223
873.8746	3180
876.263	3227
878.6487	3232
881.0378	3160
883.4243	3282
885.8081	3231
888.1933	3215
890.5759	3236
892.9598	3180
895.343	3177
897.7256	3187
900.1057	3201
902.4871	3183
904.8659	3262
907.246	3190
909.6254	3270
912.0023	3270
914.3786	3242
916.7562	3390
919.1331	3354
921.5074	3448
923.8831	3430
926.2562	3455
928.6287	3468
931.0005	3387
933.3757	3458
935.7462	3545
938.1162	3421
940.4855	3520
942.8542	3561
945.2242	3647
947.5916	3716
949.9584	3789
952.3266	4027
954.6921	4183
957.0571	4443
959.4233	4637
961.787	4700
964.15	4738
966.5125	4575
968.8742	4287
971.2354	4105
973.5959	3810
975.9559	3678
978.3151	3572
980.6738	3448
983.0338	3408
985.3912	3397
987.7461	3361
990.1022	3397
992.4578	3349
994.8127	3382
997.1689	3321
999.5207	3406
1001.874	3292
1004.226	3409
1006.576	3392
1008.929	3442
1011.28	3456
1013.628	3330
1015.977	3340
1018.324	3365
1020.674	3322
1023.019	3383
1025.366	3382
1027.713	3406
1030.056	3405
1032.399	3398
1034.746	3381
1037.087	3393
1039.431	3422
1041.771	3500
1044.113	3394
1046.454	3453
1048.793	3407
1051.133	3458
1053.471	3521
1055.807	3485
1058.146	3380
1060.483	3406
1062.818	3487
1065.153	3518
1067.489	3574
1069.822	3557
1072.156	3610
1074.488	3543
1076.82	3573
1079.15	3514
1081.48	3485
1083.814	3453
1086.143	3368
1088.471	3436
1090.799	3453
1093.126	3405
1095.452	3410
1097.78	3434
1100.105	3460
1102.43	3487
1104.754	3422
1107.077	3484
1109.4	3413
1111.722	3418
1114.044	3430
1116.365	3429
1118.685	3472
1121.005	3424
1123.324	3446
1125.643	3459
1127.961	3395
1130.278	3486
1132.595	3445
1134.911	3371
1137.226	3441
1139.541	3323
1141.854	3358
1144.167	3424
1146.482	3374
1148.793	3442
1151.105	3380
1153.414	3406
1155.725	3348
1158.033	3432
1160.344	3415
1162.651	3462
1164.959	3380
1167.265	3418
1169.572	3406
1171.878	3424
1174.184	3483
1176.488	3430
1178.79	3475
1181.094	3434
1183.396	3402
1185.699	3394
1188.001	3389
1190.301	3454
1192.6	3403
1194.9	3386
1197.2	3474
1199.497	3383
1201.794	3433
1204.09	3367
1206.387	3445
1208.684	3428
1210.978	3477
1213.272	3428
1215.565	3452
1217.858	3409
1220.15	3437
1222.443	3478
1224.734	3405
1227.024	3494
1229.313	3617
1231.602	3563
1233.892	3491
1236.18	3571
1238.467	3624
1240.754	3607
1243.04	3596
1245.325	3593
1247.612	3656
1249.896	3553
1252.178	3702
1254.461	3671
1256.743	3575
1259.027	3593
1261.308	3607
1263.587	3615
1265.867	3667
1268.146	3716
1270.425	3569
1272.703	3605
1274.981	3601
1277.256	3532
1279.532	3633
1281.808	3602
1284.083	3655
1286.358	3575
1288.63	3581
1290.904	3510
1293.175	3525
1295.449	3558
1297.719	3495
1299.99	3521
1302.259	3481
1304.529	3476
1306.798	3492
1309.065	3538
1311.333	3536
1313.599	3474
1315.866	3518
1318.131	3538
1320.396	3537
1322.66	3468
1324.925	3591
1327.187	3533
1329.448	3488
1331.711	3575
1333.974	3514
1336.234	3535
1338.493	3533
1340.752	3565
1343.01	3528
1345.269	3545
1347.526	3517
1349.784	3602
1352.04	3447
1354.295	3541
1356.552	3618
1358.806	3576
1361.059	3508
1363.312	3481
1365.564	3542
1367.818	3496
1370.069	3488
1372.318	3573
1374.568	3497
1376.817	3580
1379.066	3595
1381.316	3549
1383.564	3543
1385.809	3533
1388.056	3601
1390.301	3646
1392.549	3661
1394.793	3689
1397.036	3676
1399.279	3652
1401.522	3631
1403.763	3611
1406.007	3713
1408.248	3596
1410.487	3712
1412.727	3668
1414.965	3639
1417.205	3681
1419.442	3636
1421.68	3717
1423.915	3661
1426.152	3711
1428.388	3626
1430.623	3686
1432.857	3803
1435.091	3698
1437.323	3703
1439.556	3771
1441.789	3741
1444.019	3680
1446.25	3763
1448.48	3751
1450.708	3730
1452.938	3715
1455.167	3796
1457.394	3818
1459.62	3800
1461.846	3758
1464.073	3740
1466.299	3716
1468.523	3690
1470.746	3791
1472.969	3665
1475.191	3709
1477.415	3698
1479.636	3653
1481.858	3623
1484.078	3529
1486.298	3561
1488.518	3531
1490.736	3570
1492.954	3626
1495.169	3558
1497.386	3504
1499.602	3521
1501.819	3561
1504.034	3619
1506.248	3570
1508.462	3577
1510.675	3545
1512.888	3510
1515.1	3555
1517.311	3539
1519.522	3546
1521.732	3548
1523.942	3531
1526.151	3574
1528.36	3548
1530.566	3482
1532.773	3532
1534.98	3581
1537.187	3422
1539.392	3557
1541.596	3511
1543.801	3510
1546.005	3524
1548.208	3578
1550.411	3586
1552.612	3517
1554.814	3554
1557.013	3577
1559.212	3604
1561.414	3611
1563.612	3621
1565.811	3554
1568.007	3571
1570.203	3643
1572.403	3694
1574.598	3635
1576.792	3652
1578.988	3626
1581.181	3636
1583.376	3586
1585.568	3605
1587.761	3644
1589.952	3649
1592.143	3644
1594.333	3640
1596.524	3635
1598.715	3664
1600.903	3648
1603.091	3687
1605.278	3670
1607.466	3698
1609.652	3642
1611.838	3657
1614.023	3658
1616.207	3708
1618.391	3676
1620.576	3752
1622.759	3755
1624.941	3731
1627.123	3703
1629.304	3765
1631.484	3783
1633.664	3756
1635.844	3817
1638.022	3711
1640.201	3768
1642.38	3751
1644.556	3834
1646.732	3815
1648.908	3797
1651.084	3793
1653.257	3841
1655.433	3777
1657.607	3802
1659.779	3784
1661.951	3818
1664.122	3820
1666.295	3839
1668.467	3884
1670.635	3808
1672.805	3768
1674.973	3894
1677.142	3867
1679.31	3798
1681.478	3795
1683.644	3915
1685.81	3831
1687.975	3780
1690.142	3800
1692.305	3742
1694.468	3713
1696.632	3691
1698.794	3666
1700.957	3694
1703.119	3723
1705.279	3710
1707.439	3680
1709.598	3719
1711.758	3706
1713.917	3618
1716.075	3678
1718.231	3656
1720.388	3664
1722.543	3712
1724.702	3660
1726.856	3661
1729.01	3615
1731.164	3692
1733.317	3637
1735.471	3658
1737.623	3703
1739.774	3668
1741.925	3723
1744.075	3613
1746.225	3617
1748.376	3607
1750.524	3613
1752.672	3677
1754.82	3710
1756.965	3653
1759.113	3637
1761.259	3714
1763.405	3692
1765.549	3759
1767.694	3778
1769.836	3649
1771.981	3649
1774.123	3673
1776.264	3613
1778.405	3740
1780.546	3729
1782.687	3577
1784.827	3623
1786.966	3685
1789.103	3672
1791.242	3690
1793.381	3720
1795.517	3737
1797.653	3697
1799.788	3646
1801.923	3678
1804.057	3659
1806.193	3729
1808.326	3712
1810.457	3713
1812.59	3673
1814.721	3720
1816.855	3661
1818.984	3712
1821.113	3685
1823.244	3670
1825.372	3780
1827.499	3762
1829.63	3646
1831.756	3669
1833.882	3661
1836.007	3707
1838.132	3731
1840.26	3702
1842.384	3758
1844.507	3665
1846.63	3698
1848.752	3648
1850.875	3629
1852.996	3654
1855.118	3757
1857.238	3729
1859.358	3638
1861.477	3699
1863.597	3718
1865.715	3665
1867.832	3634
1869.948	3702
1872.064	3678
1874.181	3753
1876.297	3749
1878.411	3762
1880.526	3656
1882.639	3727
1884.752	3676
1886.865	3759
1888.977	3708
1891.089	3676
1893.2	3725
1895.308	3765
1897.42	3693
1899.53	3658
1901.639	3729
1903.745	3689
1905.853	3752
1907.962	3714
1910.067	3663
1912.174	3725
1914.278	3711
1916.383	3673
1918.486	3750
1920.592	3738
1922.694	3704
1924.797	3808
1926.898	3707
1929	3673
1931.102	3706
1933.203	3773
1935.301	3743
1937.401	3755
1939.499	3703
1941.598	3723
1943.697	3707
1945.793	3726
1947.888	3735
1949.985	3804
1952.08	3655
1954.176	3723
1956.269	3803
1958.364	3754
1960.457	3749
1962.549	3802
1964.642	3676
1966.733	3767
1968.823	3693
1970.913	3654
1973.005	3765
1975.093	3712
1977.184	3697
1979.271	3703
1981.359	3764
1983.446	3709
1985.532	3733
1987.619	3689
1989.705	3709
1991.789	3775
1993.874	3756
1995.956	3756
1998.041	3722
2000.123	3722
2002.206	3736
2004.287	3720
2006.368	3777
2008.449	3687
2010.529	3693
2012.609	3667
2014.688	3653
2016.766	3758
2018.843	3768
2020.922	3686
2022.999	3675
2025.074	3785
2027.15	3751
2029.225	3840
2031.299	3781
2033.375	3764
2035.447	3773
2037.52	3700
2039.592	3737
2041.664	3788
2043.736	3654
2045.807	3761
2047.876	3738
2049.947	3713
2052.015	3718
2054.086	3703
2056.153	3739
2058.221	3718
2060.288	3727
2062.353	3685
2064.42	3711
2066.486	3735
2068.55	3716
2070.614	3685
2072.678	3749
2074.741	3601
2076.805	3690
2078.866	3734
2080.929	3798
2082.99	3757
2085.049	3736
2087.109	3759
2089.17	3754
2091.228	3703
2093.286	3771
2095.344	3851
2097.4	3762
2099.46	3688
2101.516	3738
2103.572	3783
2105.626	3770
2107.679	3709
2109.735	3712
2111.788	3640
2113.841	3652
2115.894	3767
2117.945	3834
2119.997	3688
2122.049	3753
2124.1	3703
2126.148	3676
2128.197	3736
2130.246	3760
2132.296	3667
2134.342	3746
2136.39	3787
2138.437	3720
2140.483	3735
2142.527	3694
2144.574	3735
2146.619	3658
2148.661	3778
2150.705	3717
2152.747	3807
2154.792	3667
2156.832	3720
2158.874	3683
2160.915	3768
2162.954	3707
2164.995	3646
2167.034	3672
2169.072	3685
2171.111	3674
2173.148	3735
2175.186	3740
2177.223	3704
2179.258	3608
2181.294	3754
2183.328	3681
2185.362	3700
2187.398	3647
2189.431	3645
2191.463	3601
2193.495	3663
2195.528	3751
2197.56	3646
2199.59	3708
2201.62	3635
2203.649	3667
2205.678	3668
2207.708	3705
2209.737	3664
2211.764	3616
2213.791	3586
2215.817	3687
2217.843	3681
2219.87	3719
2221.895	3701
2223.919	3593
2225.942	3663
2227.966	3687
2229.988	3623
2232.012	3682
2234.032	3608
2236.054	3658
2238.074	3636
2240.095	3592
2242.116	3601
2244.135	3653
2246.153	3651
2248.171	3669
2250.188	3665
2252.208	3706
2254.223	3635
2256.239	3705
2258.255	3614
2260.269	3612
2262.283	3621
2264.3	3646
2266.312	3677
2268.325	3634
2270.336	3752
2272.349	3635
2274.362	3619
2276.372	3694
2278.383	3651
2280.392	3683
2282.402	3644
2284.409	3603
2286.418	3607
2288.427	3638
2290.433	3688
2292.441	3719
2294.446	3644
2296.453	3613
2298.459	3622
2300.463	3709
2302.466	3625
2304.471	3638
2306.475	3636
2308.477	3607
2310.478	3675
2312.481	3653
2314.481	3592
2316.481	3635
2318.482	3641
2320.482	3587
2322.48	3623
2324.48	3640
2326.478	3609
2328.476	3678
2330.473	3573
2332.469	3627
2334.465	3631
2336.46	3565
2338.454	3669
2340.45	3584
2342.444	3577
2344.437	3590
2346.43	3671
2348.421	3565
2350.414	3580
2352.405	3631
2354.396	3608
2356.386	3580
2358.376	3580
2360.366	3647
2362.355	3603
2364.343	3633
2366.331	3592
2368.317	3673
2370.304	3597
2372.292	3559
2374.278	3548
2376.262	3609
2378.247	3522
2380.23	3578
2382.216	3614
2384.199	3555
2386.181	3567
2388.163	3481
2390.144	3589
2392.127	3550
2394.107	3549
2396.087	3536
2398.066	3664
2400.046	3617
2402.023	3478
2404.004	3544
2405.981	3542
2407.957	3649
2409.934	3494
2411.91	3542
2413.886	3546
2415.862	3542
2417.836	3588
2419.809	3610
2421.784	3550
2423.756	3517
2425.73	3586
2427.701	3544
2429.672	3565
2431.644	3458
2433.615	3565
2435.586	3534
2437.555	3492
2439.523	3513
2441.491	3560
2443.459	3564
2445.428	3482
2447.395	3506
2449.361	3589
2451.327	3594
2453.292	3567
2455.257	3584
2457.223	3624
2459.187	3502
2461.15	3544
2463.113	3523
2465.076	3411
2467.039	3545
2468.999	3561
2470.96	3488
2472.921	3460
2474.881	3509
2476.841	3473
2478.8	3535
2480.759	3545
2482.717	3536
2484.675	3442
2486.63	3451
2488.589	3517
2490.545	3506
2492.5	3480
2494.455	3509
2496.408	3552
2498.364	3494
2500.318	3480
2502.27	3584
2504.223	3507
2506.174	3508
2508.126	3472
2510.078	3489
2512.03	3517
2513.979	3484
2515.927	3468
2517.877	3524
2519.826	3463
2521.775	3522
2523.722	3529
2525.668	3455
2527.616	3510
2529.561	3502
2531.508	3498
2533.452	3532
2535.398	3631
2537.342	3437
2539.284	3470
2541.229	3464
2543.173	3419
2545.114	3483
2547.055	3481
2548.996	3471
2550.938	3467
2552.878	3453
2554.817	3473
2556.756	3473
2558.695	3441
2560.633	3499
2562.572	3545
2564.509	3470
2566.445	3472
2568.382	3481
2570.317	3496
2572.254	3524
2574.189	3462
2576.123	3513
2578.057	3489
2579.99	3459
2581.923	3451
2583.855	3502
2585.788	3514
2587.719	3503
2589.65	3442
2591.579	3435
2593.511	3394
2595.44	3483
2597.37	3451
2599.297	3439
2601.225	3563
2603.153	3436
2605.08	3570
2607.007	3533
2608.932	3474
2610.858	3510
2612.782	3484
2614.709	3497
2616.632	3511
2618.556	3464
2620.478	3558
2622.401	3414
2624.324	3506
2626.247	3607
2628.167	3537
2630.088	3487
2632.008	3529
2633.928	3475
2635.848	3481
2637.766	3499
2639.684	3523
2641.603	3579
2643.519	3577
2645.437	3567
2647.353	3563
2649.27	3515
2651.184	3511
2653.099	3591
2655.014	3466
2656.928	3547
2658.842	3596
2660.755	3482
2662.667	3486
2664.579	3394
2666.491	3610
2668.402	3433
2670.312	3590
2672.222	3483
2674.132	3535
2676.042	3479
2677.951	3546
2679.859	3525
2681.766	3490
2683.674	3461
2685.582	3548
2687.488	3526
2689.392	3464
2691.298	3537
2693.202	3457
2695.107	3524
2697.012	3483
2698.914	3485
2700.817	3450
2702.72	3542
2704.622	3416
2706.524	3473
2708.425	3452
2710.326	3491
2712.225	3418
2714.125	3457
2716.024	3415
2717.923	3462
2719.822	3303
2721.719	3499
2723.616	3425
2725.512	3389
2727.41	3421
2729.305	3511
2731.201	3421
2733.095	3489
2734.99	3542
2736.884	3453
2738.778	3440
2740.67	3401
2742.562	3437
2744.455	3458
2746.346	3442
2748.238	3434
2750.129	3467
2752.018	3398
2753.907	3494
2755.797	3395
2757.687	3423
2759.575	3425
2761.462	3382
2763.349	3475
2765.237	3479
2767.124	3438
2769.009	3478
2770.894	3442
2772.779	3437
2774.663	3409
2776.547	3457
2778.431	3466
2780.314	3511
2782.197	3397
2784.078	3427
2785.96	3432
2787.842	3483
2789.723	3448
2791.603	3462
2793.483	3442
2795.362	3439
2797.241	3395
2799.121	3405
2800.997	3401
2802.874	3477
2804.751	3414
2806.628	3461
2808.506	3471
2810.38	3404
2812.255	3465
2814.13	3427
2816.003	3426
2817.878	3434
2819.752	3453
2821.623	3427
2823.496	3441
2825.368	3482
2827.238	3491
2829.111	3454
2830.98	3371
2832.851	3469
2834.719	3374
2836.589	3390
2838.458	3377
2840.327	3390
2842.193	3431
2844.061	3455
2845.927	3425
2847.794	3443
2849.66	3407
2851.525	3503
2853.39	3402
2855.254	3412
2857.117	3509
2858.983	3466
2860.845	3503
2862.707	3504
2864.569	3621
2866.431	3555
2868.293	3616
2870.154	3578
2872.013	3637
2873.873	3663
2875.733	3638
2877.592	3758
2879.451	3787
2881.309	3831
2883.166	3803
2885.022	3868
2886.879	3844
2888.736	3769
2890.591	3882
2892.446	3897
2894.301	3910
2896.155	3862
2898.009	3842
2899.863	3882
2901.716	3773
2903.568	3801
2905.419	3922
2907.27	3815
2909.123	3885
2910.973	3875
2912.824	3986
2914.673	3920
2916.521	3843
2918.372	3975
2920.22	4024
2922.067	4060
2923.914	4098
2925.761	4185
2927.607	4290
2929.455	4225
2931.301	4173
2933.144	4215
2934.99	4378
2936.833	4394
2938.678	4377
2940.522	4425
2942.364	4507
2944.207	4544
2946.048	4595
2947.891	4517
2949.731	4491
2951.571	4586
2953.412	4537
2955.25	4414
2957.09	4452
2958.93	4413
2960.767	4494
2962.606	4311
2964.443	4277
2966.279	4162
2968.116	4250
2969.953	4162
2971.788	4148
2973.623	4027
2975.457	4068
2977.292	3926
2979.127	4051
2980.959	4022
2982.792	4038
2984.624	3954
2986.455	3886
2988.288	3990
2990.119	3850
2991.949	3915
2993.779	3864
2995.608	3873
2997.439	3753
2999.268	3777
3001.096	3723
3002.923	3616
3004.751	3636
3006.578	3683
3008.406	3566
3010.232	3563
3012.057	3623
3013.883	3504
3015.706	3540
3017.532	3449
3019.356	3362
3021.179	3444
3023.002	3445
3024.823	3351
3026.646	3460
3028.469	3370
3030.289	3459
3032.11	3395
3033.93	3487
3035.749	3376
3037.57	3355
3039.39	3319
3041.207	3299
3043.026	3337
3044.842	3416
3046.661	3313
3048.477	3317
3050.294	3321
3052.109	3298
3053.925	3367
3055.739	3305
3057.555	3414
3059.368	3264
3061.181	3338
3062.995	3348
3064.807	3421
3066.62	3273
3068.433	3319
3070.243	3334
3072.054	3277
3073.865	3344
3075.675	3236
3077.485	3294
3079.293	3309
3081.102	3272
3082.911	3305
3084.719	3307
3086.527	3303
3088.333	3341
3090.139	3234
3091.945	3322
3093.75	3223
3095.557	3203
3097.361	3207
3099.165	3230
3100.969	3216
3102.772	3325
3104.575	3236
3106.379	3193
3108.181	3200
3109.982	3204
3111.783	3182
3113.584	3251
3115.386	3205
3117.186	3146
3118.985	3219
3120.783	3155
3122.582	3218
3124.381	3232
3126.179	3133
3127.975	3186
3129.772	3215
3131.569	3150
3133.365	3126
3135.161	3153
3136.956	3178
3138.751	3169
3140.544	3163
3142.338	3081
3144.132	3219
3145.925	3095
3147.717	3161
3149.509	3085
3151.301	3187
3153.091	3079
3154.884	3137
3156.673	3155
3158.462	3205
3160.252	3161
3162.041	3180
3163.831	3138
3165.618	3152
3167.405	3167
3169.193	3183
3170.979	3123
3172.767	3170
3174.553	3187
3176.338	3162
3178.123	3145
3179.907	3196
3181.692	3100
3183.477	3215
3185.259	3158
3187.042	3162
3188.824	3142
3190.607	3139
3192.389	3136
3194.17	3108
3195.951	3143
3197.73	3114
3199.51	3154
3201.289	3133
3203.07	3181
3204.848	3163
3206.626	3152
3208.403	3165
3210.18	3098
3211.959	3153
3213.735	3112
3215.511	3160
3217.285	3198
3219.06	3092
3220.836	3158
3222.611	3118
3224.384	3100
3226.158	3199
3227.929	3148
3229.702	3198
3231.476	3077
3233.248	3108
3235.018	3141
3236.789	3174
3238.56	3171
3240.33	3179
3242.1	3172
3243.869	3101
3245.637	3238
3247.405	3185
3249.172	3098
3250.941	3170
3252.707	3130
3254.474	3141
3256.24	3143
3258.006	3175
3259.772	3124
3261.537	3141
3263.301	3167
3265.065	3223
3266.828	3109
3268.592	3131
3270.355	3222
3272.117	3063
3273.878	3153
3275.64	3170
3277.401	3203
3279.162	3198
3280.922	3209
3282.682	3168
3284.441	3192
3286.199	3105
3287.959	3186
3289.716	3176
3291.475	3234
3293.232	3168
3294.988	3243
3296.744	3215
3298.501	3128
3300.256	3186
3302.011	3146
3303.766	3175
3305.52	3135
3307.275	3192
3309.028	3140
3310.781	3162
3312.533	3283
3314.285	3092
3316.038	3210
3317.789	3156
3319.54	3177
3321.289	3141
3323.039	3214
3324.789	3218
3326.539	3191
3328.288	3124
3330.035	3162
3331.783	3184
3333.531	3127
3335.28	3143
3337.025	3145
3338.771	3161
3340.518	3061
3342.262	3117
3344.009	3148
3345.753	3061
3347.497	3157
3349.24	3194
3350.983	3129
3352.726	3078
3354.469	3119
3356.212	3071
3357.952	3076
3359.694	3099
3361.434	3119
3363.176	3072
3364.916	3170
3366.654	3109
3368.394	3104
3370.132	3090
3371.871	3016
3373.61	3105
3375.346	3131
3377.083	3117
3378.82	3102
3380.556	3109
3382.292	3002
3384.027	3148
3385.763	3132
3387.497	3027
3389.231	3084
3390.965	3057
3392.698	3109
3394.431	2988
3396.164	2999
3397.896	3055
3399.627	3004
3401.36	3029
3403.09	3052
3404.82	3025
3406.55	2972
3408.279	2996
3410.01	3070
3411.738	3066
3413.467	3014
3415.194	2958
3416.92	3067
3418.647	3034
3420.375	2976
3422.102	3057
3423.827	3039
3425.553	2989
3427.277	3008
3429.003	3022
3430.727	2972
3432.451	3085
3434.173	3024
3435.896	2943
3437.62	3085
3439.343	3022
3441.063	2952
3442.785	3020
3444.505	3024
3446.226	2951
3447.948	2971
3449.666	2977
3451.386	3032
3453.104	2907
3454.823	2965
3456.541	2985
3458.259	2901
3459.976	2884
3461.693	2926
3463.408	3021
3465.125	2887
3466.841	2908
3468.556	2845
3470.271	2917
3471.985	2893
3473.698	2944
3475.414	2885
3477.126	2961
3478.838	2882
3480.55	2895
3482.263	2872
3483.975	2885
3485.686	2835
3487.396	2899
3489.106	2807
3490.817	2867
3492.526	2899
3494.236	2892
3495.944	2873
3497.652	2854
3499.359	2869
3501.066	2808
3502.775	2835
3504.481	2771
3506.187	2759
3507.893	2875
3509.598	2776
3511.304	2798
3513.009	2798
3514.713	2859
3516.417	2744
3518.12	2800
3519.821	2795
3521.525	2840
3523.228	2821
3524.929	2799
3526.631	2777
3528.33	2722
3530.032	2840
3531.733	2796
3533.433	2822
3535.131	2704
3536.83	2728
3538.529	2759
3540.227	2677
3541.925	2695
3543.623	2751
3545.319	2726
3547.016	2749
3548.712	2695
3550.408	2744
3552.103	2725
3553.798	2689
3555.491	2745
3557.188	2753
3558.88	2756
3560.574	2673
3562.266	2752
3563.959	2666
3565.651	2690
3567.343	2745
3569.035	2704
3570.725	2721
3572.415	2628
3574.106	2680
3575.797	2710
3577.485	2771
3579.174	2692
3580.863	2711
3582.551	2697
3584.238	2637
3585.926	2696
3587.613	2751
3589.3	2692
3590.986	2709
3592.671	2604
3594.357	2643
3596.042	2667
3597.726	2681
3599.41	2622
3601.094	2620
3602.778	2608
3604.461	2603
3606.143	2599
3607.825	2497
3609.507	2608
3611.188	2541
3612.87	2627
3614.551	2611
3616.229	2585
3617.909	2562
3619.589	2576
3621.269	2613
3622.948	2573
3624.625	2594
3626.302	2553
3627.98	2550
3629.657	2587
3631.334	2512
3633.01	2521
3634.686	2530
3636.361	2473
3638.036	2538
3639.712	2554
3641.385	2574
3643.06	2485
3644.732	2546
3646.405	2486
3648.08	2536
3649.751	2539
3651.424	2520
3653.094	2529
3654.766	2500
3656.436	2541
3658.106	2497
3659.777	2421
3661.446	2560
3663.115	2471
3664.783	2473
3666.452	2490
3668.121	2515
3669.788	2485
3671.454	2534
3673.121	2510
3674.789	2449
3676.455	2449
3678.12	2505
3679.784	2464
3681.45	2415
3683.114	2494
3684.779	2478
3686.442	2445
3688.105	2460
3689.768	2430
3691.43	2496
3693.093	2428
3694.754	2475
3696.415	2408
3698.076	2520
3699.736	2439
3701.396	2441
3703.057	2439
3704.716	2412
3706.375	2422
3708.034	2504
3709.692	2372
3711.351	2491
3713.008	2394
3714.665	2455
3716.321	2489
3717.977	2367
3719.634	2365
3721.29	2468
3722.945	2439
3724.598	2404
3726.253	2462
3727.907	2449
3729.561	2398
3731.214	2379
3732.867	2417
3734.518	2354
3736.171	2392
3737.824	2362
3739.474	2417
3741.125	2392
3742.775	2375
3744.425	2454
3746.074	2374
3747.725	2414
3749.373	2423
3751.022	2321
3752.669	2399
3754.318	2318
3755.966	2364
3757.612	2348
3759.259	2374
3760.905	2367
3762.55	2378
3764.197	2360
3765.842	2339
3767.486	2338
3769.131	2393
3770.774	2379
3772.417	2306
3774.061	2387
3775.705	2334
3777.347	2400
3778.988	2362
3780.629	2391
3782.271	2317
3783.912	2374
3785.552	2343
3787.192	2327
3788.831	2324
3790.472	2362
3792.112	2336
3793.75	2306
3795.388	2332
3797.024	2318
3798.661	2288
3800.3	2357
3801.936	2302
3803.572	2259
3805.208	2379
3806.844	2341
3808.48	2309
3810.115	2277
3811.748	2364
3813.382	2286
3815.016	2293
3816.649	2235
3818.283	2309
3819.914	2327
3821.547	2310
3823.178	2292
3824.809	2287
3826.441	2325
3828.072	2279
3829.701	2309
3831.331	2275
3832.96	2289
3834.591	2312
3836.219	2260
3837.847	2242
3839.475	2286
3841.102	2287
3842.729	2285
3844.357	2249
3845.984	2228
3847.609	2191
3849.234	2317
3850.86	2311
3852.485	2269
3854.11	2324
3855.734	2243
3857.357	2244
3858.981	2197
3860.603	2278
3862.227	2272
3863.848	2241
3865.471	2194
3867.092	2276
3868.713	2214
3870.334	2254
3871.954	2213
3873.575	2234
3875.194	2210
3876.813	2313
3878.433	2209
3880.051	2200
3881.669	2208
3883.286	2232
3884.904	2197
3886.52	2219
3888.138	2252
3889.754	2251
3891.37	2207
3892.985	2179
3894.6	2241
3896.216	2256
3897.831	2245
3899.444	2234
3901.058	2229
3902.67	2239
3904.283	2199
3905.897	2207
3907.509	2197
3909.121	2198
3910.731	2237
3912.342	2157
3913.954	2288
3915.563	2250
3917.174	2245
3918.783	2237
3920.391	2202
3922.002	2136
3923.611	2208
3925.218	2198
3926.826	2190
3928.432	2144
3930.039	2177
3931.647	2224
3933.253	2200
3934.859	2114
3936.464	2201
3938.068	2161
3939.675	2174
3941.278	2165
3942.883	2224
3944.486	2177
3946.089	2191
3947.692	2132
3949.295	2181
3950.898	2183
3952.499	2135
3954.1	2166
3955.7	2131
3957.303	2161
3958.903	2142
3960.502	2137
3962.101	2144
3963.7	2199
3965.301	2144
3966.899	2154
3968.497	2191
3970.094	2152
3971.691	2142
3973.288	2171
3974.885	2126
3976.481	2067
3978.077	2142
3979.672	2110
3981.267	2134
3982.863	2090
3984.457	2186
3986.051	2117
3987.645	2141
3989.238	2137
3990.831	2105
3992.425	2151
3994.017	2012
3995.607	2174
3997.199	2075
3998.79	2089
4000.382	2127
4001.973	2152
4003.561	2081
4005.151	2091
4006.741	2115
4008.331	2063
4009.918	2042
4011.507	2109
4013.095	2056
4014.681	2057
4016.269	2058
4017.856	2053
4019.443	2060
4021.028	2068
4022.614	2042
4024.199	2042
4025.785	2055
4027.37	2072
4028.953	2077
4030.536	2048
4032.12	2107
4033.704	2028
4035.287	2027
4036.869	2031
4038.45	2041
4040.032	2027
4041.613	2009
4043.195	2015
4044.776	2050
4046.356	1970
4047.935	2073
4049.515	2003
4051.095	2019
4052.674	2062
4054.251	2001
4055.829	2023
4057.406	2002
4058.985	2003
4060.562	2050
4062.139	1991
4063.715	2007
4065.29	2064
4066.865	2004
4068.442	1992
4070.016	2042
4071.59	2028
4073.164	2013
4074.738	1990
4076.312	2045
4077.885	2011
4079.458	1988
4081.03	2034
4082.602	1969
4084.173	2014
4085.745	2047
4087.315	1992
4088.886	1993
4090.456	1973
4092.026	1966
4093.596	2024
4095.165	1947
4096.734	2021
4098.301	1984
4099.869	1975
4101.437	2009
4103.006	2039
4104.572	1946
4106.139	1986
4107.704	1934
4109.27	1941
4110.837	1958
4112.401	1949
4113.966	1973
4115.53	1953
4117.094	1965
4118.659	1957
4120.223	1979
4121.785	1972
4123.347	1934
4124.909	1976
4126.471	1992
4128.034	1968
4129.595	1948
4131.155	1919
4132.716	1977
4134.275	1920
4135.836	1982
4137.395	1920
4138.955	1940
4140.513	1924
4142.071	1940
4143.628	1954
4145.188	1919
4146.745	1943
4148.302	1905
4149.858	1919
4151.414	1930
4152.971	1924
4154.526	1998
4156.081	1914
4157.635	1911
4159.189	1907
4160.745	1901
4162.298	1937
4163.852	1954
4165.405	1896
4166.957	1934
4168.51	1901
4170.063	1916
4171.614	1884
4173.166	1852
4174.717	1886
4176.267	1897
4177.817	1885
4179.368	1891
4180.917	1850
4182.466	1897
4184.016	1867
4185.564	1866
4187.112	1877
4188.66	1885
4190.207	1866
4191.754	1890
4193.301	1878
4194.848	1868
4196.394	1877
4197.94	1841
4199.484	1899
4201.03	1886
4202.575	1806
4204.12	1857
4205.663	1870
4207.207	1907
4208.75	1877
4210.292	1834
4211.836	1830
4213.378	1854
4214.92	1836
4216.46	1819
4218.002	1840
4219.544	1793
4221.083	1826
4222.625	1769
4224.164	1858
4225.703	1846
4227.244	1844
4228.782	1853
4230.32	1849
4231.857	1821
4233.395	1856
4234.933	1774
4236.471	1902
4238.007	1793
4239.542	1871
4241.078	1845
4242.614	1861
4244.15	1777
4245.685	1813
4247.219	1821
4248.753	1801
4250.287	1844
4251.82	1807
4253.354	1900
4254.887	1821
4256.419	1769
4257.951	1788
4259.483	1832
4261.016	1825
4262.547	1786
4264.078	1837
4265.608	1783
4267.137	1877
4268.668	1826
4270.197	1765
4271.727	1770
4273.254	1819
4274.783	1773
4276.311	1805
4277.84	1763
4279.366	1814
4280.894	1789
4282.42	1800
4283.946	1836
4285.473	1742
4286.998	1810
4288.523	1796
4290.047	1836
4291.572	1759
4293.096	1784
4294.622	1737
4296.144	1760
4297.668	1785
4299.19	1764
4300.713	1768
4302.236	1777
4303.758	1800
4305.279	1757
4306.799	1695
4308.321	1748
4309.842	1773
4311.361	1787
4312.882	1774
4314.401	1777
