400.0961	2589
402.6185	2570
405.1424	2573
407.6635	2653
410.1838	2654
412.7035	2601
415.2225	2621
417.7388	2651
420.2585	2667
422.7754	2674
425.2917	2774
427.8072	2742
430.3221	2750
432.8363	2777
435.3498	2834
437.8626	2739
440.3727	2803
442.8841	2784
445.3969	2769
447.907	2803
450.4142	2760
452.9229	2745
455.4289	2760
457.9362	2738
460.4449	2778
462.9488	2761
465.454	2770
467.9566	2632
470.4604	2791
472.9637	2701
475.4662	2743
477.966	2719
480.4671	2780
482.9656	2704
485.4633	2762
487.9645	2754
490.4608	2752
492.9566	2778
495.4536	2743
497.948	2800
500.4437	2805
502.9387	2759
505.431	2754
507.9226	2793
510.4136	2808
512.9079	2822
515.3975	2795
517.8864	2777
520.3746	2800
522.8622	2769
525.3491	2790
527.8394	2801
530.3249	2804
532.8098	2843
535.2939	2815
537.7774	2839
540.2623	2762
542.7444	2812
545.2259	2809
547.7067	2862
550.1868	2850
552.6683	2834
555.147	2821
557.6231	2834
560.1005	2864
562.5773	2782
565.0534	2880
567.5308	2927
570.0056	2920
572.4776	2845
574.951	2872
577.4237	2900
579.8978	2982
582.3671	3015
584.8378	3054
587.3079	2954
589.7773	2981
592.244	2953
594.714	2946
597.1793	2925
599.6461	2921
602.1121	2923
604.5754	2925
607.0421	2957
609.5042	2931
611.9675	2981
614.4282	2942
616.8902	2964
619.3515	2919
621.8122	2910
624.2702	2897
626.7296	2941
629.1863	2847
631.6423	2880
634.1017	2881
636.5563	2903
639.0104	2864
641.4658	2862
643.9185	2912
646.3725	2908
648.8239	2888
651.2766	2898
653.7266	2962
656.176	2871
658.6247	2888
661.0748	3013
663.5242	2866
665.9709	2912
668.417	2938
670.8624	2967
673.3092	3031
675.7533	2907
678.1968	3042
680.6395	2996
683.0817	3024
685.5251	2965
687.9659	2971
690.4061	2970
692.8456	2941
695.2844	3072
697.7226	3040
700.1621	3016
702.599	3019
705.0332	3023
707.4688	3019
709.9036	2998
712.3399	3079
714.7735	3075
717.2044	3065
719.6367	3069
722.0683	2992
724.4993	3107
726.9296	3058
729.3593	3009
731.7883	2990
734.2147	3120
736.6423	3061
739.0714	3041
741.4958	3097
743.9216	3128
746.3447	3135
748.7691	3113
751.1929	3105
753.616	3085
756.0366	3158
758.4584	3219
760.8776	3191
763.2982	3164
765.718	3186
768.1373	3213
770.5539	3171
772.9698	3160
775.3871	3161
777.8038	3186
780.2178	3207
782.6332	3194
785.0459	3174
787.458	3174
789.8714	3231
792.2842	3155
794.6943	3139
797.1038	3137
799.5127	3148
801.9209	3159
804.3324	3143
806.7393	3157
809.1456	3209
811.5513	3161
813.9562	3215
816.3625	3203
818.7663	3247
821.1693	3162
823.5718	3246
825.9735	3276
828.3746	3206
830.7771	3301
833.177	3220
835.5762	3254
837.9747	3194
840.3727	3237
842.772	3255
845.1666	3333
847.5626	3318
849.958	3285
852.3527	3348
854.7488	3286
857.1403	3328
859.5331	3356
861.9253	3301
864.3168	3309
866.7057	3265
869.098	3320
871.4876	3265
873.8746	3293
876.263	3278
878.6487	3296
881.0378	3300
883.4243	3280
885.8081	3248
888.1933	3268
890.5759	3288
892.9598	3353
895.343	3277
897.7256	3360
900.1057	3259
902.4871	3346
904.8659	3322
907.246	3301
909.6254	3355
912.0023	3328
914.3786	3324
916.7562	3388
919.1331	3513
921.5074	3496
923.8831	3511
926.2562	3474
928.6287	3539
931.0005	3438
933.3757	3519
935.7462	3550
938.1162	3473
940.4855	3574
942.8542	3567
945.2242	3664
947.5916	3746
949.9584	3917
952.3266	4068
954.6921	4208
957.0571	4323
959.4233	4538
961.787	4551
964.15	4496
966.5125	4431
968.8742	4313
971.2354	4067
973.5959	3876
975.9559	3732
978.3151	3636
980.6738	3495
983.0338	3468
985.3912	3447
987.7461	3381
990.1022	3472
992.4578	3505
994.8127	3496
997.1689	3450
999.5207	3478
1001.874	3449
1004.226	3471
1006.576	3449
1008.929	3521
1011.28	3401
1013.628	3436
1015.977	3455
1018.324	3454
1020.674	3481
1023.019	3491
1025.366	3500
1027.713	3477
1030.056	3550
1032.399	3533
1034.746	3565
1037.087	3543
1039.431	3499
1041.771	3582
1044.113	3508
1046.454	3517
1048.793	3543
1051.133	3547
1053.471	3535
1055.807	3572
1058.146	3595
1060.483	3574
1062.818	3635
1065.153	3561
1067.489	3595
1069.822	3622
1072.156	3621
1074.488	3590
1076.82	3642
1079.15	3559
1081.48	3585
1083.814	3644
1086.143	3517
1088.471	3554
1090.799	3548
1093.126	3576
1095.452	3512
1097.78	3491
1100.105	3614
1102.43	3485
1104.754	3504
1107.077	3449
1109.4	3551
1111.722	3591
1114.044	3519
1116.365	3467
1118.685	3499
1121.005	3506
1123.324	3442
1125.643	3558
1127.961	3472
1130.278	3490
1132.595	3550
1134.911	3561
1137.226	3524
1139.541	3514
1141.854	3560
1144.167	3481
1146.482	3495
1148.793	3529
1151.105	3469
1153.414	3463
1155.725	3566
1158.033	3562
1160.344	3545
1162.651	3545
1164.959	3499
1167.265	3469
1169.572	3593
1171.878	3541
1174.184	3510
1176.488	3559
1178.79	3539
1181.094	3522
1183.396	3496
1185.699	3522
1188.001	3546
1190.301	3517
1192.6	3515
1194.9	3482
1197.2	3486
1199.497	3482
1201.794	3546
1204.09	3589
1206.387	3539
1208.684	3567
1210.978	3531
1213.272	3495
1215.565	3577
1217.858	3577
1220.15	3606
1222.443	3632
1224.734	3603
1227.024	3601
1229.313	3650
1231.602	3591
1233.892	3597
1236.18	3651
1238.467	3643
1240.754	3782
1243.04	3729
1245.325	3676
1247.612	3732
1249.896	3746
1252.178	3721
1254.461	3678
1256.743	3758
1259.027	3787
1261.308	3757
1263.587	3675
1265.867	3728
1268.146	3687
1270.425	3672
1272.703	3655
1274.981	3723
1277.256	3730
1279.532	3691
1281.808	3575
1284.083	3678
1286.358	3628
1288.63	3673
1290.904	3627
1293.175	3674
1295.449	3695
1297.719	3723
1299.99	3696
1302.259	3636
1304.529	3597
1306.798	3658
1309.065	3600
1311.333	3623
1313.599	3699
1315.866	3661
1318.131	3594
1320.396	3721
1322.66	3668
1324.925	3692
1327.187	3705
1329.448	3665
1331.711	3713
1333.974	3643
1336.234	3658
1338.493	3578
1340.752	3608
1343.01	3640
1345.269	3667
1347.526	3741
1349.784	3730
1352.04	3644
1354.295	3624
1356.552	3578
1358.806	3661
1361.059	3571
1363.312	3681
1365.564	3745
1367.818	3707
1370.069	3672
1372.318	3758
1374.568	3645
1376.817	3764
1379.066	3661
1381.316	3599
1383.564	3733
1385.809	3731
1388.056	3752
1390.301	3654
1392.549	3704
1394.793	3691
1397.036	3801
1399.279	3706
1401.522	3878
1403.763	3844
1406.007	3756
1408.248	3847
1410.487	3848
1412.727	3770
1414.965	3784
1417.205	3793
1419.442	3839
1421.68	3845
1423.915	3812
1426.152	3801
1428.388	3805
1430.623	3800
1432.857	3796
1435.091	3813
1437.323	3849
1439.556	3897
1441.789	3937
1444.019	3851
1446.25	3889
1448.48	3969
1450.708	3883
1452.938	3904
1455.167	3885
1457.394	3925
1459.62	3981
1461.846	4015
1464.073	3901
1466.299	3894
1468.523	3940
1470.746	3788
1472.969	3791
1475.191	3768
1477.415	3821
1479.636	3745
1481.858	3736
1484.078	3748
1486.298	3747
1488.518	3663
1490.736	3756
1492.954	3737
1495.169	3740
1497.386	3675
1499.602	3717
1501.819	3752
1504.034	3579
1506.248	3683
1508.462	3735
1510.675	3625
1512.888	3669
1515.1	3718
1517.311	3653
1519.522	3709
1521.732	3626
1523.942	3683
1526.151	3646
1528.36	3672
1530.566	3648
1532.773	3731
1534.98	3640
1537.187	3711
1539.392	3663
1541.596	3704
1543.801	3670
1546.005	3724
1548.208	3746
1550.411	3786
1552.612	3782
1554.814	3714
1557.013	3763
1559.212	3740
1561.414	3716
1563.612	3720
1565.811	3718
1568.007	3758
1570.203	3822
1572.403	3771
1574.598	3787
1576.792	3830
1578.988	3773
1581.181	3787
1583.376	3786
1585.568	3808
1587.761	3717
1589.952	3822
1592.143	3769
1594.333	3836
1596.524	3826
1598.715	3788
1600.903	3900
1603.091	3739
1605.278	3823
1607.466	3854
1609.652	3838
1611.838	3871
1614.023	3805
1616.207	3843
1618.391	3912
1620.576	3852
1622.759	3892
1624.941	3916
1627.123	3817
1629.304	3934
1631.484	3938
1633.664	3868
1635.844	3972
1638.022	3912
1640.201	3907
1642.38	3908
1644.556	3867
1646.732	3860
1648.908	3921
1651.084	3919
1653.257	3901
1655.433	3966
1657.607	3980
1659.779	3944
1661.951	3936
1664.122	3900
1666.295	3958
1668.467	3912
1670.635	4024
1672.805	3933
1674.973	4001
1677.142	3964
1679.31	3970
1681.478	3867
1683.644	3939
1685.81	3938
1687.975	3919
1690.142	3852
1692.305	3836
1694.468	3854
1696.632	3869
1698.794	3855
1700.957	3785
1703.119	3925
1705.279	3860
1707.439	3877
1709.598	3829
1711.758	3848
1713.917	3800
1716.075	3878
1718.231	3849
1720.388	3768
1722.543	3872
1724.702	3809
1726.856	3726
1729.01	3834
1731.164	3760
1733.317	3842
1735.471	3852
1737.623	3849
1739.774	3766
1741.925	3851
1744.075	3912
1746.225	3814
1748.376	3863
1750.524	3828
1752.672	3788
1754.82	3797
1756.965	3809
1759.113	3718
1761.259	3787
1763.405	3777
1765.549	3845
1767.694	3875
1769.836	3851
1771.981	3841
1774.123	3864
1776.264	3797
1778.405	3963
1780.546	3911
1782.687	3834
1784.827	3845
1786.966	3888
1789.103	3862
1791.242	3819
1793.381	3866
1795.517	3821
1797.653	3924
1799.788	3770
1801.923	3927
1804.057	3868
1806.193	3876
1808.326	3798
1810.457	3918
1812.59	3832
1814.721	3863
1816.855	3880
1818.984	3877
1821.113	3814
1823.244	3801
1825.372	3885
1827.499	3846
1829.63	3793
1831.756	3886
1833.882	3804
1836.007	3789
1838.132	3874
1840.26	3868
1842.384	3748
1844.507	3833
1846.63	3816
1848.752	3783
1850.875	3830
1852.996	3827
1855.118	3768
1857.238	3837
1859.358	3799
1861.477	3806
1863.597	3851
1865.715	3773
1867.832	3829
1869.948	3897
1872.064	3813
1874.181	3740
1876.297	3784
1878.411	3807
1880.526	3847
1882.639	3824
1884.752	3868
1886.865	3873
1888.977	3866
1891.089	3846
1893.2	3804
1895.308	3867
1897.42	3940
1899.53	3911
1901.639	3866
1903.745	3849
1905.853	3969
1907.962	3703
1910.067	3933
1912.174	3966
1914.278	3850
1916.383	3841
1918.486	3916
1920.592	3842
1922.694	3848
1924.797	3910
1926.898	3832
1929	3820
1931.102	3901
1933.203	3855
1935.301	3887
1937.401	3880
1939.499	3929
1941.598	3918
1943.697	3824
1945.793	3814
1947.888	3993
1949.985	3900
1952.08	3909
1954.176	3871
1956.269	3930
1958.364	3826
1960.457	3854
1962.549	3851
1964.642	3830
1966.733	3921
1968.823	3857
1970.913	3918
1973.005	3937
1975.093	3989
1977.184	3798
1979.271	3766
1981.359	3910
1983.446	3864
1985.532	3884
1987.619	3896
1989.705	3837
1991.789	3858
1993.874	3908
1995.956	3847
1998.041	3833
2000.123	3788
2002.206	3854
2004.287	3911
2006.368	3779
2008.449	3865
2010.529	3878
2012.609	3805
2014.688	3856
2016.766	3875
2018.843	3845
2020.922	3848
2022.999	3782
2025.074	3896
2027.15	3773
2029.225	3861
2031.299	3819
2033.375	3767
2035.447	3854
2037.52	3858
2039.592	3916
2041.664	3844
2043.736	3771
2045.807	3795
2047.876	3746
2049.947	3820
2052.015	3884
2054.086	3874
2056.153	3854
2058.221	3846
2060.288	3891
2062.353	3771
2064.42	3875
2066.486	3888
2068.55	3823
2070.614	3903
2072.678	3887
2074.741	3820
2076.805	3836
2078.866	3853
2080.929	3832
2082.99	3920
2085.049	3882
2087.109	3871
2089.17	3800
2091.228	3831
2093.286	3919
2095.344	3857
2097.4	3906
2099.46	3836
2101.516	3859
2103.572	3889
2105.626	3847
2107.679	3836
2109.735	3896
2111.788	3818
2113.841	3888
2115.894	3853
2117.945	3835
2119.997	3940
2122.049	3869
2124.1	3921
2126.148	3868
2128.197	3879
2130.246	3881
2132.296	3880
2134.342	3944
2136.39	3862
2138.437	3856
2140.483	3786
2142.527	3787
2144.574	3911
2146.619	3865
2148.661	3933
2150.705	3789
2152.747	3792
2154.792	3794
2156.832	3860
2158.874	3788
2160.915	3891
2162.954	3832
2164.995	3863
2167.034	3809
2169.072	3830
2171.111	3842
2173.148	3794
2175.186	3808
2177.223	3808
2179.258	3824
2181.294	3813
2183.328	3803
2185.362	3865
2187.398	3813
2189.431	3807
2191.463	3806
2193.495	3784
2195.528	3757
2197.56	3763
2199.59	3767
2201.62	3801
2203.649	3821
2205.678	3812
2207.708	3730
2209.737	3781
2211.764	3780
2213.791	3818
2215.817	3790
2217.843	3834
2219.87	3678
2221.895	3678
2223.919	3707
2225.942	3830
2227.966	3792
2229.988	3788
2232.012	3779
2234.032	3683
2236.054	3783
2238.074	3808
2240.095	3832
2242.116	3756
2244.135	3752
2246.153	3797
2248.171	3729
2250.188	3719
2252.208	3820
2254.223	3741
2256.239	3788
2258.255	3782
2260.269	3790
2262.283	3733
2264.3	3823
2266.312	3725
2268.325	3693
2270.336	3764
2272.349	3730
2274.362	3841
2276.372	3816
2278.383	3836
2280.392	3796
2282.402	3703
2284.409	3759
2286.418	3766
2288.427	3756
2290.433	3705
2292.441	3794
2294.446	3863
2296.453	3795
2298.459	3841
2300.463	3744
2302.466	3806
2304.471	3797
2306.475	3744
2308.477	3755
2310.478	3689
2312.481	3755
2314.481	3786
2316.481	3724
2318.482	3739
2320.482	3777
2322.48	3821
2324.48	3743
2326.478	3707
2328.476	3722
2330.473	3755
2332.469	3651
2334.465	3738
2336.46	3736
2338.454	3771
2340.45	3707
2342.444	3697
2344.437	3737
2346.43	3650
2348.421	3667
2350.414	3679
2352.405	3720
2354.396	3708
2356.386	3728
2358.376	3691
2360.366	3689
2362.355	3758
2364.343	3733
2366.331	3605
2368.317	3753
2370.304	3698
2372.292	3737
2374.278	3707
2376.262	3650
2378.247	3696
2380.23	3654
2382.216	3638
2384.199	3710
2386.181	3699
2388.163	3661
2390.144	3656
2392.127	3768
2394.107	3736
2396.087	3674
2398.066	3638
2400.046	3741
2402.023	3684
2404.004	3690
2405.981	3743
2407.957	3683
2409.934	3679
2411.91	3777
2413.886	3657
2415.862	3695
2417.836	3596
2419.809	3714
2421.784	3726
2423.756	3674
2425.73	3649
2427.701	3706
2429.672	3643
2431.644	3705
2433.615	3711
2435.586	3717
2437.555	3684
2439.523	3669
2441.491	3692
2443.459	3649
2445.428	3619
2447.395	3693
2449.361	3740
2451.327	3655
2453.292	3645
2455.257	3667
2457.223	3649
2459.187	3589
2461.15	3655
2463.113	3675
2465.076	3655
2467.039	3628
2468.999	3652
2470.96	3614
2472.921	3697
2474.881	3621
2476.841	3582
2478.8	3642
2480.759	3670
2482.717	3639
2484.675	3568
2486.63	3623
2488.589	3681
2490.545	3602
2492.5	3723
2494.455	3629
2496.408	3543
2498.364	3554
2500.318	3671
2502.27	3583
2504.223	3591
2506.174	3639
2508.126	3634
2510.078	3588
2512.03	3569
2513.979	3541
2515.927	3541
2517.877	3635
2519.826	3633
2521.775	3592
2523.722	3577
2525.668	3637
2527.616	3618
2529.561	3615
2531.508	3658
2533.452	3572
2535.398	3596
2537.342	3504
2539.284	3614
2541.229	3580
2543.173	3580
2545.114	3629
2547.055	3611
2548.996	3589
2550.938	3602
2552.878	3705
2554.817	3640
2556.756	3571
2558.695	3542
2560.633	3539
2562.572	3477
2564.509	3649
2566.445	3577
2568.382	3657
2570.317	3608
2572.254	3547
2574.189	3542
2576.123	3665
2578.057	3628
2579.99	3644
2581.923	3679
2583.855	3622
2585.788	3636
2587.719	3643
2589.65	3601
2591.579	3572
2593.511	3583
2595.44	3592
2597.37	3596
2599.297	3572
2601.225	3590
2603.153	3525
2605.08	3560
2607.007	3723
2608.932	3585
2610.858	3564
2612.782	3612
2614.709	3633
2616.632	3668
2618.556	3619
2620.478	3671
2622.401	3679
2624.324	3574
2626.247	3638
2628.167	3694
2630.088	3636
2632.008	3646
2633.928	3638
2635.848	3664
2637.766	3598
2639.684	3727
2641.603	3596
2643.519	3676
2645.437	3609
2647.353	3694
2649.27	3660
2651.184	3634
2653.099	3667
2655.014	3582
2656.928	3547
2658.842	3657
2660.755	3603
2662.667	3615
2664.579	3666
2666.491	3591
2668.402	3602
2670.312	3541
2672.222	3560
2674.132	3612
2676.042	3578
2677.951	3646
2679.859	3545
2681.766	3568
2683.674	3616
2685.582	3661
2687.488	3578
2689.392	3580
2691.298	3707
2693.202	3554
2695.107	3482
2697.012	3606
2698.914	3659
2700.817	3581
2702.72	3523
2704.622	3559
2706.524	3584
2708.425	3586
2710.326	3586
2712.225	3554
2714.125	3565
2716.024	3570
2717.923	3502
2719.822	3538
2721.719	3571
2723.616	3599
2725.512	3545
2727.41	3522
2729.305	3541
2731.201	3573
2733.095	3577
2734.99	3572
2736.884	3546
2738.778	3525
2740.67	3589
2742.562	3567
2744.455	3545
2746.346	3512
2748.238	3536
2750.129	3619
2752.018	3520
2753.907	3491
2755.797	3547
2757.687	3577
2759.575	3502
2761.462	3526
2763.349	3514
2765.237	3596
2767.124	3524
2769.009	3460
2770.894	3525
2772.779	3529
2774.663	3559
2776.547	3463
2778.431	3556
2780.314	3530
2782.197	3584
2784.078	3497
2785.96	3536
2787.842	3627
2789.723	3557
2791.603	3593
2793.483	3504
2795.362	3543
2797.241	3588
2799.121	3593
2800.997	3498
2802.874	3491
2804.751	3549
2806.628	3507
2808.506	3494
2810.38	3519
2812.255	3517
2814.13	3533
2816.003	3546
2817.878	3485
2819.752	3580
2821.623	3491
2823.496	3518
2825.368	3529
2827.238	3479
2829.111	3572
2830.98	3464
2832.851	3522
2834.719	3542
2836.589	3557
2838.458	3551
2840.327	3559
2842.193	3566
2844.061	3558
2845.927	3601
2847.794	3527
2849.66	3540
2851.525	3662
2853.39	3479
2855.254	3592
2857.117	3634
2858.983	3604
2860.845	3618
2862.707	3635
2864.569	3679
2866.431	3688
2868.293	3651
2870.154	3694
2872.013	3806
2873.873	3753
2875.733	3812
2877.592	3956
2879.451	3781
2881.309	3871
2883.166	3878
2885.022	3949
2886.879	3916
2888.736	3902
2890.591	3945
2892.446	4089
2894.301	3920
2896.155	3948
2898.009	4066
2899.863	3992
2901.716	3917
2903.568	3970
2905.419	3951
2907.27	4015
2909.123	3923
2910.973	4033
2912.824	3995
2914.673	4013
2916.521	4019
2918.372	4060
2920.22	4085
2922.067	4140
2923.914	4166
2925.761	4171
2927.607	4213
2929.455	4331
2931.301	4358
2933.144	4359
2934.99	4406
2936.833	4319
2938.678	4445
2940.522	4531
2942.364	4547
2944.207	4585
2946.048	4569
2947.891	4633
2949.731	4593
2951.571	4593
2953.412	4590
2955.25	4555
2957.09	4528
2958.93	4407
2960.767	4462
2962.606	4408
2964.443	4361
2966.279	4278
2968.116	4294
2969.953	4208
2971.788	4148
2973.623	4179
2975.457	4223
2977.292	4190
2979.127	4042
2980.959	4164
2982.792	4053
2984.624	4076
2986.455	4113
2988.288	4026
2990.119	3961
2991.949	4019
2993.779	3902
2995.608	3944
2997.439	3898
2999.268	3829
3001.096	3812
3002.923	3644
3004.751	3814
3006.578	3761
3008.406	3729
3010.232	3679
3012.057	3659
3013.883	3622
3015.706	3652
3017.532	3516
3019.356	3595
3021.179	3579
3023.002	3470
3024.823	3439
3026.646	3531
3028.469	3499
3030.289	3500
3032.11	3431
3033.93	3482
3035.749	3369
3037.57	3544
3039.39	3437
3041.207	3484
3043.026	3381
3044.842	3452
3046.661	3445
3048.477	3450
3050.294	3396
3052.109	3383
3053.925	3455
3055.739	3426
3057.555	3414
3059.368	3455
3061.181	3527
3062.995	3340
3064.807	3424
3066.62	3430
3068.433	3395
3070.243	3372
3072.054	3394
3073.865	3386
3075.675	3325
3077.485	3342
3079.293	3415
3081.102	3417
3082.911	3363
3084.719	3313
3086.527	3371
3088.333	3366
3090.139	3319
3091.945	3297
3093.75	3319
3095.557	3317
3097.361	3365
3099.165	3342
3100.969	3312
3102.772	3402
3104.575	3238
3106.379	3283
3108.181	3301
3109.982	3357
3111.783	3223
3113.584	3296
3115.386	3199
3117.186	3335
3118.985	3330
3120.783	3233
3122.582	3294
3124.381	3350
3126.179	3285
3127.975	3256
3129.772	3307
3131.569	3340
3133.365	3268
3135.161	3258
3136.956	3256
3138.751	3222
3140.544	3307
3142.338	3281
3144.132	3206
3145.925	3213
3147.717	3179
3149.509	3247
3151.301	3212
3153.091	3247
3154.884	3232
3156.673	3159
3158.462	3287
3160.252	3270
3162.041	3154
3163.831	3237
3165.618	3290
3167.405	3181
3169.193	3273
3170.979	3207
3172.767	3286
3174.553	3271
3176.338	3257
3178.123	3205
3179.907	3281
3181.692	3166
3183.477	3180
3185.259	3225
3187.042	3221
3188.824	3285
3190.607	3189
3192.389	3227
3194.17	3166
3195.951	3255
3197.73	3198
3199.51	3109
3201.289	3151
3203.07	3245
3204.848	3263
3206.626	3235
3208.403	3216
3210.18	3189
3211.959	3207
3213.735	3160
3215.511	3274
3217.285	3216
3219.06	3277
3220.836	3168
3222.611	3137
3224.384	3254
3226.158	3124
3227.929	3244
3229.702	3171
3231.476	3168
3233.248	3143
3235.018	3215
3236.789	3173
3238.56	3229
3240.33	3204
3242.1	3250
3243.869	3248
3245.637	3242
3247.405	3249
3249.172	3163
3250.941	3153
3252.707	3295
3254.474	3183
3256.24	3217
3258.006	3158
3259.772	3167
3261.537	3217
3263.301	3223
3265.065	3183
3266.828	3230
3268.592	3188
3270.355	3208
3272.117	3203
3273.878	3218
3275.64	3163
3277.401	3239
3279.162	3181
3280.922	3199
3282.682	3187
3284.441	3246
3286.199	3261
3287.959	3206
3289.716	3161
3291.475	3232
3293.232	3232
3294.988	3274
3296.744	3284
3298.501	3237
3300.256	3261
3302.011	3264
3303.766	3261
3305.52	3183
3307.275	3190
3309.028	3212
3310.781	3248
3312.533	3208
3314.285	3287
3316.038	3128
3317.789	3245
3319.54	3203
3321.289	3217
3323.039	3246
3324.789	3250
3326.539	3252
3328.288	3239
3330.035	3163
3331.783	3096
3333.531	3231
3335.28	3230
3337.025	3069
3338.771	3221
3340.518	3247
3342.262	3189
3344.009	3203
3345.753	3231
3347.497	3210
3349.24	3176
3350.983	3220
3352.726	3221
3354.469	3265
3356.212	3117
3357.952	3207
3359.694	3225
3361.434	3197
3363.176	3152
3364.916	3086
3366.654	3143
3368.394	3146
3370.132	3132
3371.871	3141
3373.61	3159
3375.346	3102
3377.083	3135
3378.82	3208
3380.556	3140
3382.292	3154
3384.027	3132
3385.763	3115
3387.497	3051
3389.231	3116
3390.965	3147
3392.698	3117
3394.431	3165
3396.164	3099
3397.896	3093
3399.627	3037
3401.36	3015
3403.09	3104
3404.82	3044
3406.55	3091
3408.279	3104
3410.01	3103
3411.738	3109
3413.467	3086
3415.194	3088
3416.92	3095
3418.647	3084
3420.375	3075
3422.102	3088
3423.827	3102
3425.553	3058
3427.277	3021
3429.003	3097
3430.727	3117
3432.451	3071
3434.173	3078
3435.896	3017
3437.62	3014
3439.343	2991
3441.063	3088
3442.785	3051
3444.505	3025
3446.226	3049
3447.948	2974
3449.666	2947
3451.386	3073
3453.104	3028
3454.823	2974
3456.541	2997
3458.259	3021
3459.976	3019
3461.693	3065
3463.408	2982
3465.125	3017
3466.841	3007
3468.556	2981
3470.271	2963
3471.985	2877
3473.698	2989
3475.414	3010
3477.126	2975
3478.838	2935
3480.55	2881
3482.263	2938
3483.975	2906
3485.686	2944
3487.396	2884
3489.106	2881
3490.817	2878
3492.526	2904
3494.236	2920
3495.944	2946
3497.652	2965
3499.359	2881
3501.066	2932
3502.775	2895
3504.481	2935
3506.187	2869
3507.893	2916
3509.598	2888
3511.304	2852
3513.009	2864
3514.713	2784
3516.417	2864
3518.12	2904
3519.821	2861
3521.525	2897
3523.228	2855
3524.929	2825
3526.631	2811
3528.33	2869
3530.032	2879
3531.733	2772
3533.433	2842
3535.131	2820
3536.83	2803
3538.529	2788
3540.227	2801
3541.925	2812
3543.623	2782
3545.319	2801
3547.016	2863
3548.712	2807
3550.408	2759
3552.103	2762
3553.798	2846
3555.491	2778
3557.188	2771
3558.88	2753
3560.574	2721
3562.266	2760
3563.959	2788
3565.651	2844
3567.343	2703
3569.035	2750
3570.725	2791
3572.415	2755
3574.106	2738
3575.797	2789
3577.485	2836
3579.174	2784
3580.863	2734
3582.551	2758
3584.238	2696
3585.926	2728
3587.613	2772
3589.3	2728
3590.986	2668
3592.671	2708
3594.357	2656
3596.042	2725
3597.726	2694
3599.41	2701
3601.094	2760
3602.778	2656
3604.461	2678
3606.143	2686
3607.825	2683
3609.507	2633
3611.188	2707
3612.87	2663
3614.551	2720
3616.229	2646
3617.909	2659
3619.589	2662
3621.269	2578
3622.948	2581
3624.625	2651
3626.302	2591
3627.98	2647
3629.657	2615
3631.334	2694
3633.01	2655
3634.686	2620
3636.361	2595
3638.036	2577
3639.712	2625
3641.385	2571
3643.06	2538
3644.732	2603
3646.405	2677
3648.08	2587
3649.751	2592
3651.424	2562
3653.094	2564
3654.766	2539
3656.436	2547
3658.106	2583
3659.777	2530
3661.446	2519
3663.115	2548
3664.783	2575
3666.452	2540
3668.121	2527
3669.788	2531
3671.454	2531
3673.121	2501
3674.789	2554
3676.455	2517
3678.12	2491
3679.784	2502
3681.45	2550
3683.114	2575
3684.779	2508
3686.442	2508
3688.105	2495
3689.768	2548
3691.43	2494
3693.093	2524
3694.754	2506
3696.415	2547
3698.076	2528
3699.736	2486
3701.396	2462
3703.057	2454
3704.716	2485
3706.375	2500
3708.034	2472
3709.692	2484
3711.351	2535
3713.008	2450
3714.665	2508
3716.321	2488
3717.977	2466
3719.634	2449
3721.29	2415
3722.945	2528
3724.598	2418
3726.253	2494
3727.907	2500
3729.561	2512
3731.214	2449
3732.867	2431
3734.518	2508
3736.171	2422
3737.824	2462
3739.474	2423
3741.125	2485
3742.775	2525
3744.425	2505
3746.074	2453
3747.725	2426
3749.373	2418
3751.022	2388
3752.669	2472
3754.318	2453
3755.966	2492
3757.612	2481
3759.259	2399
3760.905	2405
3762.55	2441
3764.197	2444
3765.842	2442
3767.486	2459
3769.131	2405
3770.774	2391
3772.417	2384
3774.061	2389
3775.705	2327
3777.347	2406
3778.988	2398
3780.629	2413
3782.271	2383
3783.912	2345
3785.552	2373
3787.192	2423
3788.831	2458
3790.472	2359
3792.112	2391
3793.75	2399
3795.388	2386
3797.024	2472
3798.661	2436
3800.3	2334
3801.936	2397
3803.572	2386
3805.208	2392
3806.844	2407
3808.48	2335
3810.115	2407
3811.748	2346
3813.382	2277
3815.016	2378
3816.649	2289
3818.283	2371
3819.914	2370
3821.547	2352
3823.178	2384
3824.809	2364
3826.441	2358
3828.072	2333
3829.701	2435
3831.331	2328
3832.96	2348
3834.591	2336
3836.219	2337
3837.847	2324
3839.475	2322
3841.102	2309
3842.729	2282
3844.357	2339
3845.984	2266
3847.609	2318
3849.234	2318
3850.86	2337
3852.485	2317
3854.11	2290
3855.734	2378
3857.357	2271
3858.981	2346
3860.603	2312
3862.227	2318
3863.848	2335
3865.471	2287
3867.092	2302
3868.713	2328
3870.334	2318
3871.954	2277
3873.575	2207
3875.194	2317
3876.813	2307
3878.433	2278
3880.051	2292
3881.669	2224
3883.286	2291
3884.904	2238
3886.52	2312
3888.138	2278
3889.754	2285
3891.37	2249
3892.985	2253
3894.6	2240
3896.216	2272
3897.831	2275
3899.444	2267
3901.058	2233
3902.67	2307
3904.283	2262
3905.897	2242
3907.509	2197
3909.121	2286
3910.731	2298
3912.342	2251
3913.954	2282
3915.563	2239
3917.174	2256
3918.783	2275
3920.391	2229
3922.002	2273
3923.611	2252
3925.218	2258
3926.826	2236
3928.432	2248
3930.039	2284
3931.647	2274
3933.253	2266
3934.859	2237
3936.464	2269
3938.068	2227
3939.675	2258
3941.278	2209
3942.883	2260
3944.486	2257
3946.089	2223
3947.692	2276
3949.295	2205
3950.898	2209
3952.499	2194
3954.1	2229
3955.7	2266
3957.303	2214
3958.903	2237
3960.502	2223
3962.101	2219
3963.7	2221
3965.301	2212
3966.899	2194
3968.497	2141
3970.094	2188
3971.691	2208
3973.288	2156
3974.885	2251
3976.481	2209
3978.077	2149
3979.672	2182
3981.267	2168
3982.863	2158
3984.457	2190
3986.051	2239
3987.645	2252
3989.238	2243
3990.831	2171
3992.425	2157
3994.017	2246
3995.607	2201
3997.199	2122
3998.79	2200
4000.382	2203
4001.973	2135
4003.561	2143
4005.151	2185
4006.741	2113
4008.331	2123
4009.918	2144
4011.507	2073
4013.095	2144
4014.681	2102
4016.269	2073
4017.856	2093
4019.443	2131
4021.028	2126
4022.614	2112
4024.199	2073
4025.785	2117
4027.37	2098
4028.953	2101
4030.536	2109
4032.12	2054
4033.704	2117
4035.287	2086
4036.869	2056
4038.45	2097
4040.032	2086
4041.613	2082
4043.195	2116
4044.776	2082
4046.356	2081
4047.935	2119
4049.515	2060
4051.095	2074
4052.674	2100
4054.251	2009
4055.829	2091
4057.406	2111
4058.985	2049
4060.562	2040
4062.139	2079
4063.715	2099
4065.29	2049
4066.865	2071
4068.442	2033
4070.016	2047
4071.59	1995
4073.164	2062
4074.738	2086
4076.312	2087
4077.885	2070
4079.458	2122
4081.03	2037
4082.602	2056
4084.173	1996
4085.745	2024
4087.315	2056
4088.886	1988
4090.456	2032
4092.026	2064
4093.596	2031
4095.165	2018
4096.734	2033
4098.301	1997
4099.869	2008
4101.437	2039
4103.006	2057
4104.572	2009
4106.139	2008
4107.704	2016
4109.27	2002
4110.837	2069
4112.401	2029
4113.966	2000
4115.53	2006
4117.094	2007
4118.659	2021
4120.223	2050
4121.785	2011
4123.347	2006
4124.909	2042
4126.471	2001
4128.034	1999
4129.595	2008
4131.155	1993
4132.716	2015
4134.275	1970
4135.836	1959
4137.395	2001
4138.955	1981
4140.513	1896
4142.071	2002
4143.628	2011
4145.188	1986
4146.745	1989
4148.302	2000
4149.858	1908
4151.414	1972
4152.971	1956
4154.526	1947
4156.081	1939
4157.635	2019
4159.189	1951
4160.745	1947
4162.298	1946
4163.852	1948
4165.405	1932
4166.957	1942
4168.51	1919
4170.063	1917
4171.614	1964
4173.166	1982
4174.717	1952
4176.267	1914
4177.817	1942
4179.368	1979
4180.917	1950
4182.466	1974
4184.016	1931
4185.564	1969
4187.112	1833
4188.66	1911
4190.207	1883
4191.754	1922
4193.301	1870
4194.848	1910
4196.394	1922
4197.94	1886
4199.484	1940
4201.03	1916
4202.575	1906
4204.12	1874
4205.663	1925
4207.207	1874
4208.75	1895
4210.292	1866
4211.836	1929
4213.378	1844
4214.92	1914
4216.46	1877
4218.002	1867
4219.544	1913
4221.083	1846
4222.625	1939
4224.164	1903
4225.703	1848
4227.244	1831
4228.782	1870
4230.32	1860
4231.857	1869
4233.395	1892
4234.933	1846
4236.471	1851
4238.007	1907
4239.542	1832
4241.078	1865
4242.614	1855
4244.15	1885
4245.685	1839
4247.219	1903
4248.753	1849
4250.287	1801
4251.82	1828
4253.354	1879
4254.887	1865
4256.419	1859
4257.951	1830
4259.483	1811
4261.016	1793
4262.547	1854
4264.078	1841
4265.608	1833
4267.137	1873
4268.668	1845
4270.197	1829
4271.727	1871
4273.254	1848
4274.783	1852
4276.311	1863
4277.84	1859
4279.366	1855
4280.894	1817
4282.42	1862
4283.946	1823
4285.473	1794
4286.998	1836
4288.523	1864
4290.047	1849
4291.572	1787
4293.096	1880
4294.622	1835
4296.144	1843
4297.668	1841
4299.19	1810
4300.713	1794
4302.236	1802
4303.758	1787
4305.279	1816
4306.799	1857
4308.321	1868
4309.842	1793
4311.361	1790
4312.882	1816
4314.401	1807
