400.0961	2361
402.6185	2371
405.1424	2369
407.6635	2355
410.1838	2397
412.7035	2429
415.2225	2367
417.7388	2441
420.2585	2414
422.7754	2478
425.2917	2558
427.8072	2547
430.3221	2558
432.8363	2551
435.3498	2560
437.8626	2563
440.3727	2532
442.8841	2549
445.3969	2553
447.907	2577
450.4142	2557
452.9229	2541
455.4289	2582
457.9362	2623
460.4449	2485
462.9488	2444
465.454	2475
467.9566	2472
470.4604	2519
472.9637	2500
475.4662	2511
477.966	2570
480.4671	2482
482.9656	2496
485.4633	2524
487.9645	2492
490.4608	2526
492.9566	2525
495.4536	2480
497.948	2522
500.4437	2540
502.9387	2545
505.431	2529
507.9226	2564
510.4136	2508
512.9079	2540
515.3975	2506
517.8864	2578
520.3746	2552
522.8622	2526
525.3491	2480
527.8394	2553
530.3249	2528
532.8098	2512
535.2939	2592
537.7774	2527
540.2623	2573
542.7444	2561
545.2259	2494
547.7067	2552
550.1868	2609
552.6683	2528
555.147	2658
557.6231	2626
560.1005	2560
562.5773	2692
565.0534	2633
567.5308	2672
570.0056	2623
572.4776	2685
574.951	2683
577.4237	2699
579.8978	2671
582.3671	2714
584.8378	2745
587.3079	2755
589.7773	2724
592.244	2743
594.714	2714
597.1793	2667
599.6461	2680
602.1121	2608
604.5754	2680
607.0421	2613
609.5042	2612
611.9675	2639
614.4282	2679
616.8902	2669
619.3515	2620
621.8122	2608
624.2702	2674
626.7296	2669
629.1863	2654
631.6423	2661
634.1017	2664
636.5563	2569
639.0104	2639
641.4658	2656
643.9185	2647
646.3725	2650
648.8239	2671
651.2766	2649
653.7266	2645
656.176	2661
658.6247	2716
661.0748	2636
663.5242	2695
665.9709	2680
668.417	2727
670.8624	2652
673.3092	2710
675.7533	2761
678.1968	2749
680.6395	2761
683.0817	2675
685.5251	2756
687.9659	2819
690.4061	2741
692.8456	2761
695.2844	2745
697.7226	2728
700.1621	2759
702.599	2706
705.0332	2781
707.4688	2758
709.9036	2703
712.3399	2872
714.7735	2744
717.2044	2756
719.6367	2818
722.0683	2782
724.4993	2794
726.9296	2748
729.3593	2799
731.7883	2775
734.2147	2790
736.6423	2846
739.0714	2779
741.4958	2832
743.9216	2820
746.3447	2826
748.7691	2787
751.1929	2825
753.616	2802
756.0366	2903
758.4584	2862
760.8776	2835
763.2982	2894
765.718	2843
768.1373	2913
770.5539	2892
772.9698	2909
775.3871	2900
777.8038	2942
780.2178	2932
782.6332	2926
785.0459	2918
787.458	2856
789.8714	2928
792.2842	2807
794.6943	2880
797.1038	2914
799.5127	2874
801.9209	2926
804.3324	2918
806.7393	2894
809.1456	2915
811.5513	2953
813.9562	2927
816.3625	2961
818.7663	2939
821.1693	2920
823.5718	2921
825.9735	2990
828.3746	2886
830.7771	2933
833.177	2924
835.5762	2919
837.9747	2953
840.3727	2943
842.772	2942
845.1666	3021
847.5626	3024
849.958	2997
852.3527	2976
854.7488	2975
857.1403	3012
859.5331	3075
861.9253	3059
864.3168	3015
866.7057	3051
869.098	3053
871.4876	3025
873.8746	2976
876.263	2992
878.6487	3030
881.0378	3003
883.4243	3063
885.8081	3030
888.1933	3122
890.5759	2994
892.9598	3051
895.343	2971
897.7256	3061
900.1057	3008
902.4871	2996
904.8659	3077
907.246	3122
909.6254	3090
912.0023	3050
914.3786	3141
916.7562	3112
919.1331	3193
921.5074	3239
923.8831	3137
926.2562	3208
928.6287	3165
931.0005	3256
933.3757	3183
935.7462	3244
938.1162	3260
940.4855	3309
942.8542	3349
945.2242	3453
947.5916	3408
949.9584	3606
952.3266	3685
954.6921	3845
957.0571	3999
959.4233	4192
961.787	4322
964.15	4136
966.5125	4132
968.8742	3941
971.2354	3676
973.5959	3516
975.9559	3306
978.3151	3288
980.6738	3266
983.0338	3177
985.3912	3204
987.7461	3151
990.1022	3152
992.4578	3156
994.8127	3063
997.1689	3196
999.5207	3027
1001.874	3146
1004.226	3227
1006.576	3250
1008.929	3145
1011.28	3173
1013.628	3109
1015.977	3235
1018.324	3178
1020.674	3208
1023.019	3209
1025.366	3249
1027.713	3194
1030.056	3220
1032.399	3208
1034.746	3245
1037.087	3251
1039.431	3214
1041.771	3231
1044.113	3203
1046.454	3167
1048.793	3270
1051.133	3201
1053.471	3228
1055.807	3233
1058.146	3248
1060.483	3283
1062.818	3277
1065.153	3374
1067.489	3299
1069.822	3296
1072.156	3262
1074.488	3406
1076.82	3361
1079.15	3323
1081.48	3290
1083.814	3235
1086.143	3307
1088.471	3233
1090.799	3187
1093.126	3185
1095.452	3227
1097.78	3177
1100.105	3227
1102.43	3244
1104.754	3207
1107.077	3239
1109.4	3239
1111.722	3231
1114.044	3256
1116.365	3269
1118.685	3221
1121.005	3214
1123.324	3193
1125.643	3177
1127.961	3125
1130.278	3256
1132.595	3146
1134.911	3111
1137.226	3163
1139.541	3162
1141.854	3201
1144.167	3125
1146.482	3230
1148.793	3155
1151.105	3104
1153.414	3266
1155.725	3224
1158.033	3197
1160.344	3199
1162.651	3186
1164.959	3160
1167.265	3255
1169.572	3137
1171.878	3214
1174.184	3183
1176.488	3195
1178.79	3271
1181.094	3255
1183.396	3164
1185.699	3249
1188.001	3279
1190.301	3172
1192.6	3167
1194.9	3234
1197.2	3179
1199.497	3188
1201.794	3241
1204.09	3261
1206.387	3224
1208.684	3169
1210.978	3234
1213.272	3240
1215.565	3229
1217.858	3223
1220.15	3223
1222.443	3205
1224.734	3216
1227.024	3310
1229.313	3324
1231.602	3326
1233.892	3299
1236.18	3335
1238.467	3308
1240.754	3306
1243.04	3368
1245.325	3324
1247.612	3426
1249.896	3363
1252.178	3372
1254.461	3400
1256.743	3405
1259.027	3415
1261.308	3391
1263.587	3382
1265.867	3352
1268.146	3437
1270.425	3471
1272.703	3349
1274.981	3412
1277.256	3342
1279.532	3407
1281.808	3303
1284.083	3406
1286.358	3365
1288.63	3355
1290.904	3329
1293.175	3388
1295.449	3294
1297.719	3306
1299.99	3264
1302.259	3348
1304.529	3319
1306.798	3310
1309.065	3299
1311.333	3280
1313.599	3360
1315.866	3287
1318.131	3362
1320.396	3351
1322.66	3344
1324.925	3293
1327.187	3341
1329.448	3251
1331.711	3328
1333.974	3310
1336.234	3301
1338.493	3368
1340.752	3325
1343.01	3258
1345.269	3312
1347.526	3276
1349.784	3329
1352.04	3363
1354.295	3311
1356.552	3360
1358.806	3251
1361.059	3317
1363.312	3359
1365.564	3313
1367.818	3302
1370.069	3434
1372.318	3301
1374.568	3355
1376.817	3387
1379.066	3312
1381.316	3316
1383.564	3415
1385.809	3374
1388.056	3346
1390.301	3411
1392.549	3341
1394.793	3419
1397.036	3401
1399.279	3391
1401.522	3459
1403.763	3486
1406.007	3396
1408.248	3379
1410.487	3422
1412.727	3443
1414.965	3377
1417.205	3466
1419.442	3355
1421.68	3499
1423.915	3502
1426.152	3442
1428.388	3414
1430.623	3425
1432.857	3480
1435.091	3497
1437.323	3500
1439.556	3488
1441.789	3514
1444.019	3452
1446.25	3504
1448.48	3561
1450.708	3636
1452.938	3537
1455.167	3614
1457.394	3557
1459.62	3549
1461.846	3569
1464.073	3637
1466.299	3544
1468.523	3499
1470.746	3502
1472.969	3433
1475.191	3494
1477.415	3503
1479.636	3442
1481.858	3413
1484.078	3388
1486.298	3430
1488.518	3382
1490.736	3371
1492.954	3316
1495.169	3384
1497.386	3355
1499.602	3252
1501.819	3382
1504.034	3315
1506.248	3273
1508.462	3398
1510.675	3349
1512.888	3280
1515.1	3299
1517.311	3382
1519.522	3289
1521.732	3303
1523.942	3315
1526.151	3309
1528.36	3264
1530.566	3319
1532.773	3325
1534.98	3277
1537.187	3389
1539.392	3323
1541.596	3400
1543.801	3263
1546.005	3380
1548.208	3343
1550.411	3315
1552.612	3352
1554.814	3343
1557.013	3354
1559.212	3374
1561.414	3311
1563.612	3378
1565.811	3311
1568.007	3405
1570.203	3482
1572.403	3333
1574.598	3364
1576.792	3339
1578.988	3467
1581.181	3444
1583.376	3437
1585.568	3477
1587.761	3446
1589.952	3447
1592.143	3439
1594.333	3457
1596.524	3430
1598.715	3462
1600.903	3479
1603.091	3402
1605.278	3427
1607.466	3405
1609.652	3439
1611.838	3486
1614.023	3468
1616.207	3492
1618.391	3501
1620.576	3484
1622.759	3498
1624.941	3463
1627.123	3460
1629.304	3533
1631.484	3522
1633.664	3536
1635.844	3520
1638.022	3619
1640.201	3440
1642.38	3500
1644.556	3533
1646.732	3558
1648.908	3558
1651.084	3696
1653.257	3484
1655.433	3552
1657.607	3527
1659.779	3558
1661.951	3544
1664.122	3569
1666.295	3569
1668.467	3576
1670.635	3644
1672.805	3570
1674.973	3591
1677.142	3576
1679.31	3617
1681.478	3604
1683.644	3610
1685.81	3593
1687.975	3540
1690.142	3598
1692.305	3544
1694.468	3561
1696.632	3526
1698.794	3490
1700.957	3483
1703.119	3445
1705.279	3511
1707.439	3477
1709.598	3467
1711.758	3426
1713.917	3421
1716.075	3477
1718.231	3531
1720.388	3454
1722.543	3431
1724.702	3473
1726.856	3458
1729.01	3426
1731.164	3417
1733.317	3418
1735.471	3477
1737.623	3361
1739.774	3511
1741.925	3512
1744.075	3479
1746.225	3466
1748.376	3478
1750.524	3456
1752.672	3444
1754.82	3549
1756.965	3416
1759.113	3429
1761.259	3495
1763.405	3477
1765.549	3458
1767.694	3414
1769.836	3513
1771.981	3486
1774.123	3486
1776.264	3432
1778.405	3549
1780.546	3473
1782.687	3503
1784.827	3454
1786.966	3546
1789.103	3446
1791.242	3560
1793.381	3514
1795.517	3536
1797.653	3449
1799.788	3490
1801.923	3427
1804.057	3580
1806.193	3445
1808.326	3454
1810.457	3431
1812.59	3549
1814.721	3514
1816.855	3500
1818.984	3512
1821.113	3528
1823.244	3482
1825.372	3448
1827.499	3420
1829.63	3532
1831.756	3509
1833.882	3489
1836.007	3436
1838.132	3498
1840.26	3492
1842.384	3400
1844.507	3470
1846.63	3494
1848.752	3440
1850.875	3464
1852.996	3514
1855.118	3411
1857.238	3450
1859.358	3413
1861.477	3479
1863.597	3451
1865.715	3390
1867.832	3467
1869.948	3589
1872.064	3447
1874.181	3432
1876.297	3401
1878.411	3464
1880.526	3482
1882.639	3504
1884.752	3548
1886.865	3490
1888.977	3507
1891.089	3496
1893.2	3541
1895.308	3429
1897.42	3526
1899.53	3447
1901.639	3494
1903.745	3482
1905.853	3465
1907.962	3451
1910.067	3518
1912.174	3545
1914.278	3568
1916.383	3576
1918.486	3540
1920.592	3571
1922.694	3547
1924.797	3554
1926.898	3537
1929	3524
1931.102	3551
1933.203	3516
1935.301	3550
1937.401	3478
1939.499	3658
1941.598	3508
1943.697	3525
1945.793	3502
1947.888	3532
1949.985	3553
1952.08	3606
1954.176	3531
1956.269	3511
1958.364	3555
1960.457	3564
1962.549	3566
1964.642	3459
1966.733	3584
1968.823	3612
1970.913	3486
1973.005	3512
1975.093	3540
1977.184	3546
1979.271	3524
1981.359	3515
1983.446	3484
1985.532	3534
1987.619	3611
1989.705	3552
1991.789	3481
1993.874	3570
1995.956	3531
1998.041	3557
2000.123	3548
2002.206	3478
2004.287	3524
2006.368	3502
2008.449	3484
2010.529	3551
2012.609	3557
2014.688	3507
2016.766	3531
2018.843	3508
2020.922	3447
2022.999	3533
2025.074	3473
2027.15	3585
2029.225	3549
2031.299	3428
2033.375	3523
2035.447	3475
2037.52	3532
2039.592	3547
2041.664	3546
2043.736	3514
2045.807	3455
2047.876	3619
2049.947	3552
2052.015	3464
2054.086	3478
2056.153	3539
2058.221	3545
2060.288	3579
2062.353	3534
2064.42	3542
2066.486	3494
2068.55	3549
2070.614	3522
2072.678	3514
2074.741	3505
2076.805	3479
2078.866	3615
2080.929	3513
2082.99	3514
2085.049	3619
2087.109	3552
2089.17	3498
2091.228	3502
2093.286	3469
2095.344	3574
2097.4	3508
2099.46	3568
2101.516	3541
2103.572	3502
2105.626	3478
2107.679	3485
2109.735	3509
2111.788	3478
2113.841	3534
2115.894	3549
2117.945	3556
2119.997	3520
2122.049	3494
2124.1	3476
2126.148	3542
2128.197	3538
2130.246	3541
2132.296	3479
2134.342	3593
2136.39	3547
2138.437	3566
2140.483	3507
2142.527	3566
2144.574	3491
2146.619	3474
2148.661	3507
2150.705	3495
2152.747	3524
2154.792	3511
2156.832	3570
2158.874	3520
2160.915	3491
2162.954	3583
2164.995	3560
2167.034	3551
2169.072	3482
2171.111	3494
2173.148	3389
2175.186	3448
2177.223	3387
2179.258	3517
2181.294	3423
2183.328	3511
2185.362	3523
2187.398	3512
2189.431	3471
2191.463	3480
2193.495	3500
2195.528	3456
2197.56	3510
2199.59	3529
2201.62	3371
2203.649	3444
2205.678	3466
2207.708	3519
2209.737	3499
2211.764	3499
2213.791	3431
2215.817	3448
2217.843	3423
2219.87	3441
2221.895	3449
2223.919	3477
2225.942	3441
2227.966	3474
2229.988	3500
2232.012	3461
2234.032	3519
2236.054	3406
2238.074	3399
2240.095	3452
2242.116	3507
2244.135	3437
2246.153	3435
2248.171	3513
2250.188	3457
2252.208	3426
2254.223	3501
2256.239	3566
2258.255	3459
2260.269	3479
2262.283	3391
2264.3	3417
2266.312	3427
2268.325	3528
2270.336	3452
2272.349	3420
2274.362	3444
2276.372	3428
2278.383	3492
2280.392	3472
2282.402	3502
2284.409	3432
2286.418	3465
2288.427	3456
2290.433	3480
2292.441	3518
2294.446	3441
2296.453	3501
2298.459	3444
2300.463	3472
2302.466	3433
2304.471	3401
2306.475	3399
2308.477	3436
2310.478	3420
2312.481	3411
2314.481	3478
2316.481	3472
2318.482	3482
2320.482	3433
2322.48	3406
2324.48	3454
2326.478	3427
2328.476	3476
2330.473	3513
2332.469	3417
2334.465	3397
2336.46	3416
2338.454	3397
2340.45	3519
2342.444	3462
2344.437	3353
2346.43	3402
2348.421	3375
2350.414	3468
2352.405	3372
2354.396	3389
2356.386	3397
2358.376	3353
2360.366	3422
2362.355	3375
2364.343	3420
2366.331	3401
2368.317	3377
2370.304	3389
2372.292	3357
2374.278	3370
2376.262	3466
2378.247	3403
2380.23	3408
2382.216	3431
2384.199	3376
2386.181	3397
2388.163	3378
2390.144	3373
2392.127	3358
2394.107	3371
2396.087	3370
2398.066	3298
2400.046	3447
2402.023	3370
2404.004	3315
2405.981	3384
2407.957	3415
2409.934	3355
2411.91	3389
2413.886	3310
2415.862	3412
2417.836	3323
2419.809	3433
2421.784	3398
2423.756	3356
2425.73	3370
2427.701	3318
2429.672	3384
2431.644	3397
2433.615	3388
2435.586	3347
2437.555	3272
2439.523	3327
2441.491	3395
2443.459	3394
2445.428	3388
2447.395	3341
2449.361	3350
2451.327	3408
2453.292	3320
2455.257	3381
2457.223	3344
2459.187	3346
2461.15	3393
2463.113	3346
2465.076	3366
2467.039	3310
2468.999	3395
2470.96	3392
2472.921	3325
2474.881	3317
2476.841	3280
2478.8	3373
2480.759	3362
2482.717	3340
2484.675	3323
2486.63	3244
2488.589	3356
2490.545	3370
2492.5	3368
2494.455	3368
2496.408	3327
2498.364	3342
2500.318	3330
2502.27	3335
2504.223	3357
2506.174	3364
2508.126	3335
2510.078	3241
2512.03	3323
2513.979	3309
2515.927	3369
2517.877	3354
2519.826	3260
2521.775	3328
2523.722	3339
2525.668	3275
2527.616	3326
2529.561	3290
2531.508	3362
2533.452	3331
2535.398	3275
2537.342	3338
2539.284	3343
2541.229	3298
2543.173	3288
2545.114	3271
2547.055	3381
2548.996	3284
2550.938	3267
2552.878	3275
2554.817	3348
2556.756	3385
2558.695	3311
2560.633	3282
2562.572	3354
2564.509	3338
2566.445	3213
2568.382	3244
2570.317	3326
2572.254	3289
2574.189	3316
2576.123	3352
2578.057	3362
2579.99	3325
2581.923	3262
2583.855	3294
2585.788	3359
2587.719	3288
2589.65	3370
2591.579	3331
2593.511	3356
2595.44	3383
2597.37	3333
2599.297	3317
2601.225	3353
2603.153	3371
2605.08	3345
2607.007	3442
2608.932	3371
2610.858	3304
2612.782	3305
2614.709	3312
2616.632	3312
2618.556	3334
2620.478	3343
2622.401	3278
2624.324	3340
2626.247	3360
2628.167	3297
2630.088	3294
2632.008	3329
2633.928	3285
2635.848	3383
2637.766	3324
2639.684	3341
2641.603	3274
2643.519	3268
2645.437	3413
2647.353	3264
2649.27	3364
2651.184	3381
2653.099	3369
2655.014	3311
2656.928	3318
2658.842	3348
2660.755	3386
2662.667	3300
2664.579	3235
2666.491	3231
2668.402	3356
2670.312	3378
2672.222	3309
2674.132	3295
2676.042	3300
2677.951	3357
2679.859	3318
2681.766	3355
2683.674	3284
2685.582	3321
2687.488	3288
2689.392	3413
2691.298	3287
2693.202	3310
2695.107	3306
2697.012	3308
2698.914	3271
2700.817	3275
2702.72	3289
2704.622	3237
2706.524	3341
2708.425	3252
2710.326	3270
2712.225	3302
2714.125	3186
2716.024	3306
2717.923	3327
2719.822	3201
2721.719	3346
2723.616	3271
2725.512	3269
2727.41	3311
2729.305	3256
2731.201	3317
2733.095	3242
2734.99	3371
2736.884	3329
2738.778	3303
2740.67	3255
2742.562	3294
2744.455	3253
2746.346	3298
2748.238	3293
2750.129	3275
2752.018	3278
2753.907	3334
2755.797	3276
2757.687	3234
2759.575	3332
2761.462	3256
2763.349	3328
2765.237	3274
2767.124	3222
2769.009	3219
2770.894	3298
2772.779	3278
2774.663	3272
2776.547	3268
2778.431	3265
2780.314	3279
2782.197	3216
2784.078	3252
2785.96	3242
2787.842	3304
2789.723	3252
2791.603	3254
2793.483	3286
2795.362	3224
2797.241	3288
2799.121	3260
2800.997	3172
2802.874	3293
2804.751	3212
2806.628	3211
2808.506	3256
2810.38	3278
2812.255	3251
2814.13	3261
2816.003	3335
2817.878	3274
2819.752	3223
2821.623	3152
2823.496	3250
2825.368	3295
2827.238	3315
2829.111	3215
2830.98	3267
2832.851	3281
2834.719	3295
2836.589	3367
2838.458	3320
2840.327	3295
2842.193	3318
2844.061	3260
2845.927	3320
2847.794	3287
2849.66	3321
2851.525	3239
2853.39	3363
2855.254	3317
2857.117	3304
2858.983	3391
2860.845	3381
2862.707	3375
2864.569	3459
2866.431	3485
2868.293	3503
2870.154	3491
2872.013	3537
2873.873	3493
2875.733	3531
2877.592	3572
2879.451	3561
2881.309	3586
2883.166	3677
2885.022	3722
2886.879	3714
2888.736	3746
2890.591	3834
2892.446	3782
2894.301	3773
2896.155	3723
2898.009	3780
2899.863	3886
2901.716	3743
2903.568	3689
2905.419	3667
2907.27	3775
2909.123	3773
2910.973	3658
2912.824	3688
2914.673	3792
2916.521	3819
2918.372	3855
2920.22	3860
2922.067	3871
2923.914	4009
2925.761	3890
2927.607	4018
2929.455	4021
2931.301	4094
2933.144	4038
2934.99	4115
2936.833	4270
2938.678	4210
2940.522	4238
2942.364	4248
2944.207	4392
2946.048	4345
2947.891	4429
2949.731	4364
2951.571	4430
2953.412	4411
2955.25	4274
2957.09	4330
2958.93	4162
2960.767	4208
2962.606	4138
2964.443	4185
2966.279	4263
2968.116	4066
2969.953	4054
2971.788	4083
2973.623	3893
2975.457	3873
2977.292	3854
2979.127	3882
2980.959	3864
2982.792	3805
2984.624	3755
2986.455	3781
2988.288	3792
2990.119	3645
2991.949	3708
2993.779	3675
2995.608	3627
2997.439	3695
2999.268	3628
3001.096	3580
3002.923	3526
3004.751	3497
3006.578	3443
3008.406	3446
3010.232	3420
3012.057	3394
3013.883	3309
3015.706	3312
3017.532	3217
3019.356	3275
3021.179	3314
3023.002	3239
3024.823	3251
3026.646	3286
3028.469	3188
3030.289	3132
3032.11	3167
3033.93	3173
3035.749	3167
3037.57	3142
3039.39	3173
3041.207	3193
3043.026	3213
3044.842	3188
3046.661	3187
3048.477	3084
3050.294	3161
3052.109	3079
3053.925	3077
3055.739	3170
3057.555	3127
3059.368	3144
3061.181	3154
3062.995	3208
3064.807	3142
3066.62	3126
3068.433	3129
3070.243	3126
3072.054	3121
3073.865	3195
3075.675	3125
3077.485	3176
3079.293	3130
3081.102	3128
3082.911	3103
3084.719	3039
3086.527	3118
3088.333	3134
3090.139	3050
3091.945	3073
3093.75	3068
3095.557	3078
3097.361	3069
3099.165	3070
3100.969	3123
3102.772	2986
3104.575	3098
3106.379	3048
3108.181	2981
3109.982	2970
3111.783	3015
3113.584	3011
3115.386	3039
3117.186	2981
3118.985	3078
3120.783	3089
3122.582	3121
3124.381	3054
3126.179	3024
3127.975	3001
3129.772	3022
3131.569	2995
3133.365	2986
3135.161	3024
3136.956	2930
3138.751	3015
3140.544	2966
3142.338	3027
3144.132	3067
3145.925	3004
3147.717	3020
3149.509	2987
3151.301	3028
3153.091	3051
3154.884	2989
3156.673	2981
3158.462	2953
3160.252	3079
3162.041	3009
3163.831	2955
3165.618	2941
3167.405	2947
3169.193	3009
3170.979	2957
3172.767	2949
3174.553	2998
3176.338	3034
3178.123	3008
3179.907	2967
3181.692	2989
3183.477	3016
3185.259	3027
3187.042	2956
3188.824	3029
3190.607	3011
3192.389	2913
3194.17	2914
3195.951	2989
3197.73	2970
3199.51	3017
3201.289	2978
3203.07	2994
3204.848	2990
3206.626	3004
3208.403	2971
3210.18	2983
3211.959	2928
3213.735	2960
3215.511	2987
3217.285	2930
3219.06	2984
3220.836	2987
3222.611	2945
3224.384	2975
3226.158	2981
3227.929	3023
3229.702	3054
3231.476	2978
3233.248	2956
3235.018	2982
3236.789	2937
3238.56	3017
3240.33	2973
3242.1	3001
3243.869	3031
3245.637	2992
3247.405	2960
3249.172	3027
3250.941	2967
3252.707	2977
3254.474	3056
3256.24	3034
3258.006	3082
3259.772	3020
3261.537	3000
3263.301	2995
3265.065	3035
3266.828	2947
3268.592	3012
3270.355	3046
3272.117	2964
3273.878	2983
3275.64	2950
3277.401	3005
3279.162	3015
3280.922	2974
3282.682	2947
3284.441	3039
3286.199	3023
3287.959	2994
3289.716	2970
3291.475	3013
3293.232	3023
3294.988	3013
3296.744	3022
3298.501	2927
3300.256	3049
3302.011	3040
3303.766	2980
3305.52	2993
3307.275	3018
3309.028	2971
3310.781	3066
3312.533	3019
3314.285	3029
3316.038	3002
3317.789	3046
3319.54	3029
3321.289	3004
3323.039	3009
3324.789	3032
3326.539	2956
3328.288	2959
3330.035	3031
3331.783	3012
3333.531	3059
3335.28	2966
3337.025	2972
3338.771	2959
3340.518	3002
3342.262	2948
3344.009	2975
3345.753	3061
3347.497	3023
3349.24	2989
3350.983	2985
3352.726	3044
3354.469	2924
3356.212	2933
3357.952	2963
3359.694	2940
3361.434	2928
3363.176	2939
3364.916	2973
3366.654	2940
3368.394	2972
3370.132	2954
3371.871	2999
3373.61	2956
3375.346	2889
3377.083	2976
3378.82	2903
3380.556	2857
3382.292	2913
3384.027	2891
3385.763	2911
3387.497	2982
3389.231	2909
3390.965	2929
3392.698	2970
3394.431	2900
3396.164	2861
3397.896	2904
3399.627	2903
3401.36	2945
3403.09	2859
3404.82	2911
3406.55	2897
3408.279	2887
3410.01	2856
3411.738	2882
3413.467	2827
3415.194	2912
3416.92	2889
3418.647	2930
3420.375	2840
3422.102	2899
3423.827	2899
3425.553	2894
3427.277	2874
3429.003	2950
3430.727	2842
3432.451	2838
3434.173	2873
3435.896	2832
3437.62	2857
3439.343	2758
3441.063	2856
3442.785	2871
3444.505	2768
3446.226	2808
3447.948	2806
3449.666	2771
3451.386	2853
3453.104	2813
3454.823	2811
3456.541	2830
3458.259	2799
3459.976	2834
3461.693	2869
3463.408	2753
3465.125	2792
3466.841	2827
3468.556	2733
3470.271	2772
3471.985	2789
3473.698	2749
3475.414	2755
3477.126	2793
3478.838	2719
3480.55	2735
3482.263	2738
3483.975	2733
3485.686	2740
3487.396	2727
3489.106	2663
3490.817	2699
3492.526	2735
3494.236	2699
3495.944	2687
3497.652	2782
3499.359	2742
3501.066	2634
3502.775	2772
3504.481	2744
3506.187	2672
3507.893	2685
3509.598	2694
3511.304	2715
3513.009	2701
3514.713	2714
3516.417	2671
3518.12	2694
3519.821	2636
3521.525	2652
3523.228	2649
3524.929	2692
3526.631	2646
3528.33	2677
3530.032	2564
3531.733	2691
3533.433	2678
3535.131	2638
3536.83	2674
3538.529	2636
3540.227	2606
3541.925	2654
3543.623	2676
3545.319	2635
3547.016	2623
3548.712	2665
3550.408	2598
3552.103	2637
3553.798	2642
3555.491	2589
3557.188	2621
3558.88	2598
3560.574	2628
3562.266	2606
3563.959	2574
3565.651	2593
3567.343	2621
3569.035	2614
3570.725	2578
3572.415	2545
3574.106	2539
3575.797	2599
3577.485	2538
3579.174	2592
3580.863	2562
3582.551	2548
3584.238	2548
3585.926	2526
3587.613	2599
3589.3	2552
3590.986	2646
3592.671	2550
3594.357	2517
3596.042	2514
3597.726	2499
3599.41	2492
3601.094	2513
3602.778	2522
3604.461	2512
3606.143	2573
3607.825	2496
3609.507	2442
3611.188	2569
3612.87	2506
3614.551	2503
3616.229	2459
3617.909	2453
3619.589	2501
3621.269	2459
3622.948	2483
3624.625	2434
3626.302	2454
3627.98	2516
3629.657	2478
3631.334	2439
3633.01	2396
3634.686	2482
3636.361	2421
3638.036	2447
3639.712	2482
3641.385	2433
3643.06	2402
3644.732	2433
3646.405	2370
3648.08	2413
3649.751	2383
3651.424	2400
3653.094	2357
3654.766	2388
3656.436	2397
3658.106	2384
3659.777	2380
3661.446	2401
3663.115	2393
3664.783	2417
3666.452	2404
3668.121	2413
3669.788	2342
3671.454	2383
3673.121	2367
3674.789	2413
3676.455	2356
3678.12	2352
3679.784	2434
3681.45	2324
3683.114	2311
3684.779	2329
3686.442	2416
3688.105	2331
3689.768	2335
3691.43	2406
3693.093	2378
3694.754	2369
3696.415	2368
3698.076	2313
3699.736	2392
3701.396	2331
3703.057	2369
3704.716	2344
3706.375	2373
3708.034	2382
3709.692	2303
3711.351	2321
3713.008	2399
3714.665	2341
3716.321	2354
3717.977	2364
3719.634	2279
3721.29	2380
3722.945	2413
3724.598	2253
3726.253	2278
3727.907	2342
3729.561	2291
3731.214	2264
3732.867	2356
3734.518	2316
3736.171	2309
3737.824	2264
3739.474	2347
3741.125	2318
3742.775	2346
3744.425	2320
3746.074	2307
3747.725	2262
3749.373	2309
3751.022	2346
3752.669	2290
3754.318	2312
3755.966	2311
3757.612	2258
3759.259	2235
3760.905	2256
3762.55	2360
3764.197	2271
3765.842	2341
3767.486	2268
3769.131	2309
3770.774	2236
3772.417	2306
3774.061	2207
3775.705	2216
3777.347	2269
3778.988	2211
3780.629	2245
3782.271	2232
3783.912	2242
3785.552	2275
3787.192	2205
3788.831	2256
3790.472	2209
3792.112	2263
3793.75	2256
3795.388	2159
3797.024	2168
3798.661	2197
3800.3	2272
3801.936	2210
3803.572	2219
3805.208	2164
3806.844	2245
3808.48	2274
3810.115	2192
3811.748	2253
3813.382	2180
3815.016	2211
3816.649	2203
3818.283	2246
3819.914	2219
3821.547	2219
3823.178	2236
3824.809	2174
3826.441	2249
3828.072	2271
3829.701	2168
3831.331	2202
3832.96	2260
3834.591	2251
3836.219	2215
3837.847	2175
3839.475	2166
3841.102	2245
3842.729	2138
3844.357	2179
3845.984	2138
3847.609	2194
3849.234	2220
3850.86	2197
3852.485	2223
3854.11	2188
3855.734	2206
3857.357	2177
3858.981	2172
3860.603	2202
3862.227	2166
3863.848	2099
3865.471	2174
3867.092	2133
3868.713	2175
3870.334	2191
3871.954	2137
3873.575	2137
3875.194	2184
3876.813	2145
3878.433	2141
3880.051	2149
3881.669	2143
3883.286	2139
3884.904	2192
3886.52	2169
3888.138	2196
3889.754	2205
3891.37	2183
3892.985	2185
3894.6	2151
3896.216	2112
3897.831	2095
3899.444	2125
3901.058	2148
3902.67	2162
3904.283	2135
3905.897	2135
3907.509	2128
3909.121	2170
3910.731	2089
3912.342	2151
3913.954	2041
3915.563	2097
3917.174	2128
3918.783	2037
3920.391	2123
3922.002	2122
3923.611	2104
3925.218	2097
3926.826	2092
3928.432	2068
3930.039	2099
3931.647	2078
3933.253	2112
3934.859	2152
3936.464	2071
3938.068	2133
3939.675	2117
3941.278	2082
3942.883	2101
3944.486	2109
3946.089	2067
3947.692	2099
3949.295	2152
3950.898	2135
3952.499	2112
3954.1	2082
3955.7	2108
3957.303	2059
3958.903	2047
3960.502	1994
3962.101	2107
3963.7	2084
3965.301	2046
3966.899	2151
3968.497	2045
3970.094	2101
3971.691	2041
3973.288	2056
3974.885	2084
3976.481	2085
3978.077	2024
3979.672	2028
3981.267	2010
3982.863	2030
3984.457	2080
3986.051	1980
3987.645	2072
3989.238	2069
3990.831	2049
3992.425	1993
3994.017	2060
3995.607	2032
3997.199	2066
3998.79	2017
4000.382	2031
4001.973	2012
4003.561	2023
4005.151	2038
4006.741	1973
4008.331	2034
4009.918	2004
4011.507	2044
4013.095	2035
4014.681	2025
4016.269	1996
4017.856	2043
4019.443	1994
4021.028	2029
4022.614	1994
4024.199	2008
4025.785	1961
4027.37	1892
4028.953	1954
4030.536	2022
4032.12	1984
4033.704	1970
4035.287	1983
4036.869	2001
4038.45	1971
4040.032	1947
4041.613	2016
4043.195	1951
4044.776	1971
4046.356	1972
4047.935	1962
4049.515	1957
4051.095	1965
4052.674	1925
4054.251	1996
4055.829	2000
4057.406	1968
4058.985	1954
4060.562	1943
4062.139	1994
4063.715	1941
4065.29	1914
4066.865	1941
4068.442	1887
4070.016	1930
4071.59	1952
4073.164	1920
4074.738	1927
4076.312	1929
4077.885	1920
4079.458	1947
4081.03	1953
4082.602	1920
4084.173	1893
4085.745	1963
4087.315	1933
4088.886	1966
4090.456	1892
4092.026	1962
4093.596	1901
4095.165	1946
4096.734	1901
4098.301	1892
4099.869	1897
4101.437	1894
4103.006	1921
4104.572	1885
4106.139	1913
4107.704	1939
4109.27	1920
4110.837	1942
4112.401	1932
4113.966	1937
4115.53	1856
4117.094	1922
4118.659	1879
4120.223	1934
4121.785	1844
4123.347	1876
4124.909	1859
4126.471	1891
4128.034	1876
4129.595	1809
4131.155	1915
4132.716	1852
4134.275	1870
4135.836	1896
4137.395	1877
4138.955	1839
4140.513	1882
4142.071	1852
4143.628	1851
4145.188	1915
4146.745	1840
4148.302	1894
4149.858	1852
4151.414	1811
4152.971	1862
4154.526	1882
4156.081	1856
4157.635	1859
4159.189	1849
4160.745	1861
4162.298	1830
4163.852	1868
4165.405	1845
4166.957	1855
4168.51	1785
4170.063	1850
4171.614	1807
4173.166	1877
4174.717	1851
4176.267	1806
4177.817	1841
4179.368	1823
4180.917	1823
4182.466	1842
4184.016	1810
4185.564	1743
4187.112	1869
4188.66	1825
4190.207	1802
4191.754	1856
4193.301	1794
4194.848	1807
4196.394	1830
4197.94	1803
4199.484	1790
4201.03	1819
4202.575	1816
4204.12	1787
4205.663	1766
4207.207	1751
4208.75	1814
4210.292	1769
4211.836	1846
4213.378	1814
4214.92	1813
4216.46	1827
4218.002	1790
4219.544	1770
4221.083	1815
4222.625	1779
4224.164	1777
4225.703	1853
4227.244	1790
4228.782	1782
4230.32	1787
4231.857	1768
4233.395	1820
4234.933	1792
4236.471	1814
4238.007	1751
4239.542	1785
4241.078	1776
4242.614	1749
4244.15	1787
4245.685	1736
4247.219	1775
4248.753	1733
4250.287	1782
4251.82	1792
4253.354	1750
4254.887	1772
4256.419	1748
4257.951	1758
4259.483	1771
4261.016	1771
4262.547	1772
4264.078	1726
4265.608	1750
4267.137	1826
4268.668	1777
4270.197	1766
4271.727	1758
4273.254	1754
4274.783	1724
4276.311	1775
4277.84	1757
4279.366	1719
4280.894	1724
4282.42	1748
4283.946	1747
4285.473	1737
4286.998	1735
4288.523	1705
4290.047	1720
4291.572	1741
4293.096	1696
4294.622	1701
4296.144	1743
4297.668	1713
4299.19	1717
4300.713	1737
4302.236	1698
4303.758	1680
4305.279	1736
4306.799	1676
4308.321	1658
4309.842	1707
4311.361	1679
4312.882	1721
4314.401	1734
