400.0961	3926
402.6185	3928
405.1424	3992
407.6635	4061
410.1838	4065
412.7035	3976
415.2225	4131
417.7388	4116
420.2585	4267
422.7754	4230
425.2917	4198
427.8072	4317
430.3221	4312
432.8363	4409
435.3498	4353
437.8626	4265
440.3727	4319
442.8841	4374
445.3969	4308
447.907	4322
450.4142	4289
452.9229	4363
455.4289	4322
457.9362	4221
460.4449	4214
462.9488	4311
465.454	4229
467.9566	4224
470.4604	4230
472.9637	4185
475.4662	4279
477.966	4180
480.4671	4285
482.9656	4283
485.4633	4237
487.9645	4213
490.4608	4278
492.9566	4193
495.4536	4283
497.948	4278
500.4437	4166
502.9387	4222
505.431	4377
507.9226	4338
510.4136	4359
512.9079	4324
515.3975	4255
517.8864	4341
520.3746	4393
522.8622	4374
525.3491	4328
527.8394	4275
530.3249	4369
532.8098	4348
535.2939	4334
537.7774	4381
540.2623	4397
542.7444	4341
545.2259	4392
547.7067	4417
550.1868	4381
552.6683	4354
555.147	4379
557.6231	4304
560.1005	4336
562.5773	4436
565.0534	4515
567.5308	4528
570.0056	4434
572.4776	4479
574.951	4685
577.4237	4593
579.8978	4577
582.3671	4729
584.8378	4589
587.3079	4621
589.7773	4671
592.244	4591
594.714	4639
597.1793	4578
599.6461	4593
602.1121	4628
604.5754	4612
607.0421	4605
609.5042	4575
611.9675	4507
614.4282	4560
616.8902	4568
619.3515	4647
621.8122	4509
624.2702	4472
626.7296	4504
629.1863	4489
631.6423	4488
634.1017	4458
636.5563	4522
639.0104	4540
641.4658	4539
643.9185	4569
646.3725	4522
648.8239	4534
651.2766	4536
653.7266	4568
656.176	4563
658.6247	4454
661.0748	4597
663.5242	4551
665.9709	4575
668.417	4672
670.8624	4560
673.3092	4579
675.7533	4614
678.1968	4662
680.6395	4475
683.0817	4549
685.5251	4568
687.9659	4623
690.4061	4570
692.8456	4630
695.2844	4638
697.7226	4696
700.1621	4665
702.599	4697
705.0332	4688
707.4688	4774
709.9036	4748
712.3399	4706
714.7735	4686
717.2044	4685
719.6367	4790
722.0683	4813
724.4993	4763
726.9296	4752
729.3593	4859
731.7883	4790
734.2147	4839
736.6423	4785
739.0714	4924
741.4958	4848
743.9216	5010
746.3447	4845
748.7691	4887
751.1929	4957
753.616	4861
756.0366	4925
758.4584	5002
760.8776	4983
763.2982	4985
765.718	5025
768.1373	4965
770.5539	4925
772.9698	5017
775.3871	4987
777.8038	4982
780.2178	4969
782.6332	4944
785.0459	5033
787.458	5014
789.8714	4856
792.2842	4913
794.6943	4966
797.1038	4956
799.5127	4912
801.9209	5026
804.3324	5040
806.7393	5042
809.1456	5042
811.5513	5052
813.9562	5022
816.3625	5091
818.7663	5034
821.1693	5032
823.5718	5042
825.9735	5106
828.3746	5047
830.7771	4978
833.177	5067
835.5762	5097
837.9747	5114
840.3727	5037
842.772	5095
845.1666	5076
847.5626	5169
849.958	5144
852.3527	5215
854.7488	5241
857.1403	5241
859.5331	5264
861.9253	5057
864.3168	5172
866.7057	5112
869.098	5172
871.4876	5241
873.8746	5217
876.263	5206
878.6487	5134
881.0378	5173
883.4243	5139
885.8081	5147
888.1933	5092
890.5759	5068
892.9598	5239
895.343	5008
897.7256	5157
900.1057	5072
902.4871	5138
904.8659	5204
907.246	5212
909.6254	5182
912.0023	5235
914.3786	5203
916.7562	5409
919.1331	5356
921.5074	5364
923.8831	5468
926.2562	5491
928.6287	5414
931.0005	5505
933.3757	5486
935.7462	5531
938.1162	5531
940.4855	5658
942.8542	5664
945.2242	5781
947.5916	6001
949.9584	6220
952.3266	6474
954.6921	6842
957.0571	7182
959.4233	7492
961.787	7633
964.15	7530
966.5125	7323
968.8742	6863
971.2354	6407
973.5959	6066
975.9559	5831
978.3151	5567
980.6738	5608
983.0338	5411
985.3912	5305
987.7461	5389
990.1022	5377
992.4578	5364
994.8127	5402
997.1689	5449
999.5207	5526
1001.874	5434
1004.226	5484
1006.576	5471
1008.929	5409
1011.28	5442
1013.628	5414
1015.977	5440
1018.324	5509
1020.674	5449
1023.019	5478
1025.366	5575
1027.713	5485
1030.056	5449
1032.399	5469
1034.746	5520
1037.087	5428
1039.431	5490
1041.771	5555
1044.113	5601
1046.454	5566
1048.793	5575
1051.133	5524
1053.471	5650
1055.807	5575
1058.146	5547
1060.483	5586
1062.818	5733
1065.153	5603
1067.489	5710
1069.822	5740
1072.156	5706
1074.488	5762
1076.82	5676
1079.15	5696
1081.48	5604
1083.814	5721
1086.143	5661
1088.471	5581
1090.799	5512
1093.126	5453
1095.452	5487
1097.78	5528
1100.105	5520
1102.43	5511
1104.754	5666
1107.077	5522
1109.4	5625
1111.722	5525
1114.044	5585
1116.365	5481
1118.685	5403
1121.005	5443
1123.324	5497
1125.643	5523
1127.961	5514
1130.278	5497
1132.595	5494
1134.911	5478
1137.226	5416
1139.541	5401
1141.854	5506
1144.167	5497
1146.482	5506
1148.793	5505
1151.105	5533
1153.414	5523
1155.725	5632
1158.033	5527
1160.344	5460
1162.651	5587
1164.959	5500
1167.265	5539
1169.572	5446
1171.878	5563
1174.184	5525
1176.488	5532
1178.79	5494
1181.094	5527
1183.396	5592
1185.699	5387
1188.001	5545
1190.301	5476
1192.6	5569
1194.9	5510
1197.2	5390
1199.497	5479
1201.794	5541
1204.09	5576
1206.387	5533
1208.684	5491
1210.978	5514
1213.272	5529
1215.565	5516
1217.858	5519
1220.15	5568
1222.443	5514
1224.734	5546
1227.024	5522
1229.313	5667
1231.602	5634
1233.892	5682
1236.18	5691
1238.467	5685
1240.754	5764
1243.04	5744
1245.325	5789
1247.612	5756
1249.896	5787
1252.178	5791
1254.461	5658
1256.743	5746
1259.027	5834
1261.308	5776
1263.587	5825
1265.867	5654
1268.146	5768
1270.425	5780
1272.703	5768
1274.981	5778
1277.256	5719
1279.532	5710
1281.808	5743
1284.083	5719
1286.358	5730
1288.63	5758
1290.904	5605
1293.175	5705
1295.449	5669
1297.719	5660
1299.99	5665
1302.259	5633
1304.529	5712
1306.798	5702
1309.065	5674
1311.333	5626
1313.599	5667
1315.866	5625
1318.131	5770
1320.396	5772
1322.66	5607
1324.925	5705
1327.187	5729
1329.448	5667
1331.711	5688
1333.974	5700
1336.234	5715
1338.493	5654
1340.752	5701
1343.01	5626
1345.269	5751
1347.526	5747
1349.784	5690
1352.04	5661
1354.295	5639
1356.552	5672
1358.806	5560
1361.059	5674
1363.312	5692
1365.564	5697
1367.818	5680
1370.069	5838
1372.318	5688
1374.568	5667
1376.817	5652
1379.066	5650
1381.316	5656
1383.564	5859
1385.809	5742
1388.056	5655
1390.301	5800
1392.549	5806
1394.793	5795
1397.036	5836
1399.279	5709
1401.522	5910
1403.763	5866
1406.007	5845
1408.248	5875
1410.487	5864
1412.727	5867
1414.965	5835
1417.205	5989
1419.442	5779
1421.68	5844
1423.915	5954
1426.152	5880
1428.388	5963
1430.623	5967
1432.857	5927
1435.091	5993
1437.323	5921
1439.556	6034
1441.789	5986
1444.019	6004
1446.25	6059
1448.48	5962
1450.708	5957
1452.938	6047
1455.167	6120
1457.394	6093
1459.62	6093
1461.846	6079
1464.073	5922
1466.299	6049
1468.523	5911
1470.746	5912
1472.969	5902
1475.191	5754
1477.415	5910
1479.636	5905
1481.858	5728
1484.078	5791
1486.298	5719
1488.518	5844
1490.736	5833
1492.954	5664
1495.169	5715
1497.386	5746
1499.602	5662
1501.819	5666
1504.034	5620
1506.248	5706
1508.462	5627
1510.675	5739
1512.888	5740
1515.1	5685
1517.311	5648
1519.522	5673
1521.732	5680
1523.942	5673
1526.151	5649
1528.36	5628
1530.566	5647
1532.773	5713
1534.98	5706
1537.187	5667
1539.392	5757
1541.596	5719
1543.801	5721
1546.005	5734
1548.208	5746
1550.411	5747
1552.612	5809
1554.814	5751
1557.013	5774
1559.212	5782
1561.414	5719
1563.612	5874
1565.811	5799
1568.007	5834
1570.203	5932
1572.403	5877
1574.598	5797
1576.792	5787
1578.988	5721
1581.181	5914
1583.376	5896
1585.568	5805
1587.761	5821
1589.952	5890
1592.143	6012
1594.333	5723
1596.524	5857
1598.715	5905
1600.903	5863
1603.091	5958
1605.278	5948
1607.466	5985
1609.652	5865
1611.838	5890
1614.023	5975
1616.207	5891
1618.391	5842
1620.576	5921
1622.759	5838
1624.941	5956
1627.123	5816
1629.304	5954
1631.484	5967
1633.664	6012
1635.844	5980
1638.022	5884
1640.201	6065
1642.38	5958
1644.556	6054
1646.732	6059
1648.908	5991
1651.084	6069
1653.257	6054
1655.433	5975
1657.607	6000
1659.779	6151
1661.951	6083
1664.122	6077
1666.295	5986
1668.467	6062
1670.635	5881
1672.805	6111
1674.973	5958
1677.142	6044
1679.31	6140
1681.478	5951
1683.644	6178
1685.81	5961
1687.975	5997
1690.142	5940
1692.305	6054
1694.468	5934
1696.632	5910
1698.794	5819
1700.957	5877
1703.119	5943
1705.279	5876
1707.439	5940
1709.598	5991
1711.758	5765
1713.917	5890
1716.075	5942
1718.231	5899
1720.388	5804
1722.543	5839
1724.702	5892
1726.856	5896
1729.01	5825
1731.164	5912
1733.317	5778
1735.471	5805
1737.623	5788
1739.774	5829
1741.925	5902
1744.075	5809
1746.225	5918
1748.376	5784
1750.524	5889
1752.672	5941
1754.82	5827
1756.965	5932
1759.113	5830
1761.259	5909
1763.405	5949
1765.549	5963
1767.694	5997
1769.836	5855
1771.981	5914
1774.123	5947
1776.264	5898
1778.405	5951
1780.546	5867
1782.687	5966
1784.827	5929
1786.966	5887
1789.103	5924
1791.242	5917
1793.381	5964
1795.517	5968
1797.653	5881
1799.788	5917
1801.923	6002
1804.057	5980
1806.193	5894
1808.326	5864
1810.457	5840
1812.59	5865
1814.721	6073
1816.855	5949
1818.984	5927
1821.113	6083
1823.244	5843
1825.372	6008
1827.499	5977
1829.63	5940
1831.756	5913
1833.882	5912
1836.007	5855
1838.132	5841
1840.26	5845
1842.384	5896
1844.507	5954
1846.63	5962
1848.752	5870
1850.875	5723
1852.996	5816
1855.118	5912
1857.238	5821
1859.358	5857
1861.477	5896
1863.597	5928
1865.715	5821
1867.832	5820
1869.948	5853
1872.064	5891
1874.181	5815
1876.297	5863
1878.411	5855
1880.526	5878
1882.639	5859
1884.752	5910
1886.865	5903
1888.977	5880
1891.089	5851
1893.2	5882
1895.308	6002
1897.42	5892
1899.53	5851
1901.639	5979
1903.745	5887
1905.853	5955
1907.962	6014
1910.067	5994
1912.174	5912
1914.278	5995
1916.383	5889
1918.486	5894
1920.592	5977
1922.694	5984
1924.797	5936
1926.898	5940
1929	5942
1931.102	6032
1933.203	5979
1935.301	5924
1937.401	5986
1939.499	5941
1941.598	6065
1943.697	5929
1945.793	5948
1947.888	5975
1949.985	5885
1952.08	5847
1954.176	5962
1956.269	6067
1958.364	6024
1960.457	5915
1962.549	6039
1964.642	5960
1966.733	5910
1968.823	5860
1970.913	5943
1973.005	5795
1975.093	5860
1977.184	5888
1979.271	5973
1981.359	6041
1983.446	5885
1985.532	6003
1987.619	5950
1989.705	5935
1991.789	5934
1993.874	6000
1995.956	5981
1998.041	5807
2000.123	6011
2002.206	5875
2004.287	5849
2006.368	5834
2008.449	5947
2010.529	5928
2012.609	5878
2014.688	5802
2016.766	5908
2018.843	6001
2020.922	5938
2022.999	5979
2025.074	5932
2027.15	5833
2029.225	5893
2031.299	5934
2033.375	5814
2035.447	5847
2037.52	5864
2039.592	5953
2041.664	5756
2043.736	5950
2045.807	5851
2047.876	5978
2049.947	5888
2052.015	5886
2054.086	5873
2056.153	5920
2058.221	5876
2060.288	5883
2062.353	5831
2064.42	5769
2066.486	5889
2068.55	5934
2070.614	5903
2072.678	5941
2074.741	5966
2076.805	5858
2078.866	5861
2080.929	5801
2082.99	5907
2085.049	5913
2087.109	5953
2089.17	5960
2091.228	5950
2093.286	5919
2095.344	5940
2097.4	5952
2099.46	5785
2101.516	5879
2103.572	5864
2105.626	5891
2107.679	5835
2109.735	5882
2111.788	5948
2113.841	5937
2115.894	5938
2117.945	5948
2119.997	5894
2122.049	5876
2124.1	5990
2126.148	5844
2128.197	5694
2130.246	5829
2132.296	5916
2134.342	5937
2136.39	5772
2138.437	5880
2140.483	5874
2142.527	5845
2144.574	5832
2146.619	5744
2148.661	5933
2150.705	5855
2152.747	5912
2154.792	5932
2156.832	5847
2158.874	5924
2160.915	5676
2162.954	5877
2164.995	5818
2167.034	5749
2169.072	5877
2171.111	5844
2173.148	5841
2175.186	5845
2177.223	5829
2179.258	5750
2181.294	5792
2183.328	5823
2185.362	5765
2187.398	5829
2189.431	5835
2191.463	5836
2193.495	5837
2195.528	5923
2197.56	5760
2199.59	5705
2201.62	5777
2203.649	5772
2205.678	5797
2207.708	5730
2209.737	5759
2211.764	5765
2213.791	5688
2215.817	5677
2217.843	5726
2219.87	5758
2221.895	5727
2223.919	5702
2225.942	5652
2227.966	5786
2229.988	5693
2232.012	5807
2234.032	5727
2236.054	5695
2238.074	5721
2240.095	5716
2242.116	5691
2244.135	5842
2246.153	5847
2248.171	5734
2250.188	5726
2252.208	5765
2254.223	5742
2256.239	5719
2258.255	5653
2260.269	5657
2262.283	5737
2264.3	5762
2266.312	5731
2268.325	5782
2270.336	5702
2272.349	5827
2274.362	5711
2276.372	5824
2278.383	5739
2280.392	5711
2282.402	5800
2284.409	5788
2286.418	5732
2288.427	5755
2290.433	5728
2292.441	5712
2294.446	5692
2296.453	5658
2298.459	5716
2300.463	5740
2302.466	5725
2304.471	5632
2306.475	5733
2308.477	5686
2310.478	5764
2312.481	5657
2314.481	5767
2316.481	5752
2318.482	5843
2320.482	5711
2322.48	5656
2324.48	5656
2326.478	5645
2328.476	5648
2330.473	5740
2332.469	5690
2334.465	5685
2336.46	5571
2338.454	5547
2340.45	5568
2342.444	5728
2344.437	5652
2346.43	5595
2348.421	5547
2350.414	5719
2352.405	5647
2354.396	5734
2356.386	5532
2358.376	5549
2360.366	5626
2362.355	5631
2364.343	5507
2366.331	5612
2368.317	5644
2370.304	5581
2372.292	5640
2374.278	5488
2376.262	5632
2378.247	5588
2380.23	5584
2382.216	5694
2384.199	5518
2386.181	5619
2388.163	5519
2390.144	5449
2392.127	5582
2394.107	5417
2396.087	5558
2398.066	5584
2400.046	5556
2402.023	5581
2404.004	5570
2405.981	5554
2407.957	5451
2409.934	5470
2411.91	5533
2413.886	5520
2415.862	5520
2417.836	5448
2419.809	5500
2421.784	5521
2423.756	5512
2425.73	5546
2427.701	5615
2429.672	5550
2431.644	5503
2433.615	5444
2435.586	5451
2437.555	5474
2439.523	5535
2441.491	5518
2443.459	5527
2445.428	5589
2447.395	5432
2449.361	5556
2451.327	5475
2453.292	5471
2455.257	5479
2457.223	5504
2459.187	5519
2461.15	5439
2463.113	5571
2465.076	5505
2467.039	5548
2468.999	5623
2470.96	5538
2472.921	5576
2474.881	5403
2476.841	5430
2478.8	5518
2480.759	5390
2482.717	5498
2484.675	5510
2486.63	5481
2488.589	5435
2490.545	5393
2492.5	5445
2494.455	5435
2496.408	5427
2498.364	5374
2500.318	5349
2502.27	5495
2504.223	5370
2506.174	5356
2508.126	5528
2510.078	5328
2512.03	5336
2513.979	5441
2515.927	5436
2517.877	5405
2519.826	5428
2521.775	5479
2523.722	5367
2525.668	5406
2527.616	5337
2529.561	5410
2531.508	5383
2533.452	5448
2535.398	5392
2537.342	5325
2539.284	5437
2541.229	5563
2543.173	5353
2545.114	5328
2547.055	5447
2548.996	5290
2550.938	5407
2552.878	5374
2554.817	5380
2556.756	5319
2558.695	5400
2560.633	5347
2562.572	5356
2564.509	5454
2566.445	5418
2568.382	5343
2570.317	5347
2572.254	5500
2574.189	5287
2576.123	5300
2578.057	5363
2579.99	5470
2581.923	5373
2583.855	5402
2585.788	5424
2587.719	5360
2589.65	5482
2591.579	5419
2593.511	5392
2595.44	5444
2597.37	5324
2599.297	5445
2601.225	5473
2603.153	5309
2605.08	5349
2607.007	5483
2608.932	5363
2610.858	5415
2612.782	5340
2614.709	5284
2616.632	5444
2618.556	5324
2620.478	5430
2622.401	5459
2624.324	5488
2626.247	5320
2628.167	5369
2630.088	5445
2632.008	5467
2633.928	5473
2635.848	5376
2637.766	5391
2639.684	5430
2641.603	5459
2643.519	5433
2645.437	5300
2647.353	5343
2649.27	5382
2651.184	5411
2653.099	5307
2655.014	5393
2656.928	5347
2658.842	5385
2660.755	5453
2662.667	5369
2664.579	5350
2666.491	5432
2668.402	5340
2670.312	5404
2672.222	5323
2674.132	5306
2676.042	5351
2677.951	5374
2679.859	5333
2681.766	5316
2683.674	5392
2685.582	5265
2687.488	5341
2689.392	5389
2691.298	5368
2693.202	5284
2695.107	5271
2697.012	5303
2698.914	5418
2700.817	5171
2702.72	5341
2704.622	5334
2706.524	5339
2708.425	5263
2710.326	5409
2712.225	5310
2714.125	5257
2716.024	5320
2717.923	5313
2719.822	5337
2721.719	5295
2723.616	5296
2725.512	5285
2727.41	5369
2729.305	5269
2731.201	5308
2733.095	5372
2734.99	5384
2736.884	5305
2738.778	5274
2740.67	5241
2742.562	5261
2744.455	5359
2746.346	5310
2748.238	5215
2750.129	5286
2752.018	5265
2753.907	5216
2755.797	5265
2757.687	5307
2759.575	5185
2761.462	5305
2763.349	5360
2765.237	5292
2767.124	5335
2769.009	5173
2770.894	5306
2772.779	5204
2774.663	5258
2776.547	5279
2778.431	5316
2780.314	5267
2782.197	5324
2784.078	5265
2785.96	5136
2787.842	5359
2789.723	5223
2791.603	5239
2793.483	5280
2795.362	5328
2797.241	5195
2799.121	5312
2800.997	5172
2802.874	5213
2804.751	5137
2806.628	5234
2808.506	5275
2810.38	5240
2812.255	5241
2814.13	5321
2816.003	5243
2817.878	5139
2819.752	5222
2821.623	5255
2823.496	5220
2825.368	5252
2827.238	5246
2829.111	5229
2830.98	5193
2832.851	5179
2834.719	5224
2836.589	5335
2838.458	5219
2840.327	5273
2842.193	5246
2844.061	5300
2845.927	5272
2847.794	5236
2849.66	5280
2851.525	5240
2853.39	5222
2855.254	5316
2857.117	5255
2858.983	5358
2860.845	5338
2862.707	5275
2864.569	5441
2866.431	5286
2868.293	5411
2870.154	5525
2872.013	5526
2873.873	5499
2875.733	5556
2877.592	5512
2879.451	5614
2881.309	5766
2883.166	5665
2885.022	5667
2886.879	5658
2888.736	5754
2890.591	5648
2892.446	5790
2894.301	5712
2896.155	5808
2898.009	5757
2899.863	5700
2901.716	5620
2903.568	5776
2905.419	5626
2907.27	5664
2909.123	5713
2910.973	5708
2912.824	5744
2914.673	5792
2916.521	5805
2918.372	5977
2920.22	5942
2922.067	6061
2923.914	5934
2925.761	6062
2927.607	6116
2929.455	6200
2931.301	6208
2933.144	6272
2934.99	6307
2936.833	6156
2938.678	6494
2940.522	6342
2942.364	6427
2944.207	6555
2946.048	6603
2947.891	6549
2949.731	6564
2951.571	6508
2953.412	6562
2955.25	6470
2957.09	6383
2958.93	6312
2960.767	6289
2962.606	6213
2964.443	6078
2966.279	6165
2968.116	6069
2969.953	5987
2971.788	5941
2973.623	6016
2975.457	5946
2977.292	5846
2979.127	5933
2980.959	5933
2982.792	5839
2984.624	5720
2986.455	5785
2988.288	5759
2990.119	5734
2991.949	5706
2993.779	5712
2995.608	5464
2997.439	5524
2999.268	5443
3001.096	5500
3002.923	5495
3004.751	5394
3006.578	5378
3008.406	5331
3010.232	5333
3012.057	5295
3013.883	5119
3015.706	5223
3017.532	5137
3019.356	5151
3021.179	5139
3023.002	5193
3024.823	5077
3026.646	5072
3028.469	4984
3030.289	4944
3032.11	4891
3033.93	5049
3035.749	4966
3037.57	5051
3039.39	4994
3041.207	5029
3043.026	4958
3044.842	4989
3046.661	4898
3048.477	4987
3050.294	5112
3052.109	5001
3053.925	4915
3055.739	4889
3057.555	4992
3059.368	4998
3061.181	4974
3062.995	4890
3064.807	5026
3066.62	4937
3068.433	4997
3070.243	4947
3072.054	4834
3073.865	4932
3075.675	4809
3077.485	4951
3079.293	4914
3081.102	4897
3082.911	4976
3084.719	4901
3086.527	4889
3088.333	4912
3090.139	4812
3091.945	4847
3093.75	4881
3095.557	4887
3097.361	4836
3099.165	4894
3100.969	4838
3102.772	4804
3104.575	4846
3106.379	4728
3108.181	4850
3109.982	4782
3111.783	4730
3113.584	4730
3115.386	4761
3117.186	4732
3118.985	4731
3120.783	4785
3122.582	4815
3124.381	4820
3126.179	4710
3127.975	4784
3129.772	4801
3131.569	4710
3133.365	4747
3135.161	4775
3136.956	4750
3138.751	4683
3140.544	4704
3142.338	4742
3144.132	4771
3145.925	4732
3147.717	4765
3149.509	4714
3151.301	4690
3153.091	4754
3154.884	4746
3156.673	4662
3158.462	4659
3160.252	4690
3162.041	4559
3163.831	4692
3165.618	4636
3167.405	4699
3169.193	4717
3170.979	4689
3172.767	4691
3174.553	4664
3176.338	4627
3178.123	4641
3179.907	4675
3181.692	4658
3183.477	4662
3185.259	4610
3187.042	4672
3188.824	4662
3190.607	4640
3192.389	4680
3194.17	4747
3195.951	4692
3197.73	4734
3199.51	4645
3201.289	4581
3203.07	4653
3204.848	4778
3206.626	4665
3208.403	4727
3210.18	4702
3211.959	4553
3213.735	4722
3215.511	4573
3217.285	4695
3219.06	4646
3220.836	4592
3222.611	4568
3224.384	4684
3226.158	4679
3227.929	4503
3229.702	4614
3231.476	4652
3233.248	4658
3235.018	4600
3236.789	4578
3238.56	4521
3240.33	4528
3242.1	4588
3243.869	4626
3245.637	4637
3247.405	4559
3249.172	4634
3250.941	4584
3252.707	4652
3254.474	4588
3256.24	4654
3258.006	4650
3259.772	4523
3261.537	4531
3263.301	4654
3265.065	4537
3266.828	4573
3268.592	4688
3270.355	4627
3272.117	4575
3273.878	4629
3275.64	4554
3277.401	4689
3279.162	4583
3280.922	4667
3282.682	4640
3284.441	4635
3286.199	4537
3287.959	4663
3289.716	4561
3291.475	4638
3293.232	4565
3294.988	4561
3296.744	4617
3298.501	4659
3300.256	4602
3302.011	4644
3303.766	4651
3305.52	4655
3307.275	4644
3309.028	4613
3310.781	4675
3312.533	4628
3314.285	4625
3316.038	4647
3317.789	4632
3319.54	4639
3321.289	4635
3323.039	4618
3324.789	4574
3326.539	4587
3328.288	4577
3330.035	4643
3331.783	4612
3333.531	4547
3335.28	4574
3337.025	4565
3338.771	4593
3340.518	4561
3342.262	4604
3344.009	4570
3345.753	4543
3347.497	4477
3349.24	4566
3350.983	4501
3352.726	4520
3354.469	4458
3356.212	4485
3357.952	4497
3359.694	4538
3361.434	4530
3363.176	4526
3364.916	4541
3366.654	4511
3368.394	4576
3370.132	4568
3371.871	4498
3373.61	4527
3375.346	4517
3377.083	4519
3378.82	4405
3380.556	4485
3382.292	4428
3384.027	4435
3385.763	4403
3387.497	4426
3389.231	4442
3390.965	4371
3392.698	4447
3394.431	4404
3396.164	4368
3397.896	4422
3399.627	4381
3401.36	4469
3403.09	4353
3404.82	4418
3406.55	4391
3408.279	4360
3410.01	4364
3411.738	4380
3413.467	4386
3415.194	4469
3416.92	4329
3418.647	4428
3420.375	4389
3422.102	4486
3423.827	4330
3425.553	4427
3427.277	4342
3429.003	4341
3430.727	4251
3432.451	4333
3434.173	4405
3435.896	4299
3437.62	4352
3439.343	4393
3441.063	4387
3442.785	4352
3444.505	4234
3446.226	4342
3447.948	4378
3449.666	4278
3451.386	4360
3453.104	4243
3454.823	4299
3456.541	4274
3458.259	4244
3459.976	4222
3461.693	4290
3463.408	4206
3465.125	4251
3466.841	4211
3468.556	4272
3470.271	4229
3471.985	4260
3473.698	4197
3475.414	4313
3477.126	4174
3478.838	4096
3480.55	4222
3482.263	4200
3483.975	4150
3485.686	4187
3487.396	4097
3489.106	4165
3490.817	4089
3492.526	4067
3494.236	4197
3495.944	4123
3497.652	4044
3499.359	4104
3501.066	4166
3502.775	4088
3504.481	4080
3506.187	4140
3507.893	4108
3509.598	4079
3511.304	4125
3513.009	4093
3514.713	4063
3516.417	4070
3518.12	4080
3519.821	4053
3521.525	4020
3523.228	4055
3524.929	4004
3526.631	4059
3528.33	4101
3530.032	4061
3531.733	4024
3533.433	4032
3535.131	4034
3536.83	4029
3538.529	4004
3540.227	4047
3541.925	3989
3543.623	3890
3545.319	3892
3547.016	3932
3548.712	4068
3550.408	3889
3552.103	3906
3553.798	3937
3555.491	3949
3557.188	3846
3558.88	3960
3560.574	3966
3562.266	3968
3563.959	3847
3565.651	3966
3567.343	3907
3569.035	3932
3570.725	3937
3572.415	3970
3574.106	3900
3575.797	3863
3577.485	3880
3579.174	3855
3580.863	3833
3582.551	3896
3584.238	3864
3585.926	3813
3587.613	3882
3589.3	3839
3590.986	3865
3592.671	3882
3594.357	3858
3596.042	3865
3597.726	3788
3599.41	3828
3601.094	3767
3602.778	3841
3604.461	3854
3606.143	3732
3607.825	3860
3609.507	3753
3611.188	3850
3612.87	3791
3614.551	3693
3616.229	3708
3617.909	3755
3619.589	3715
3621.269	3825
3622.948	3742
3624.625	3698
3626.302	3773
3627.98	3704
3629.657	3663
3631.334	3735
3633.01	3694
3634.686	3580
3636.361	3703
3638.036	3653
3639.712	3670
3641.385	3664
3643.06	3672
3644.732	3672
3646.405	3711
3648.08	3698
3649.751	3650
3651.424	3588
3653.094	3631
3654.766	3615
3656.436	3636
3658.106	3625
3659.777	3547
3661.446	3634
3663.115	3585
3664.783	3628
3666.452	3582
3668.121	3641
3669.788	3556
3671.454	3562
3673.121	3576
3674.789	3661
3676.455	3599
3678.12	3566
3679.784	3513
3681.45	3535
3683.114	3568
3684.779	3612
3686.442	3547
3688.105	3514
3689.768	3567
3691.43	3535
3693.093	3586
3694.754	3454
3696.415	3540
3698.076	3602
3699.736	3542
3701.396	3564
3703.057	3469
3704.716	3516
3706.375	3521
3708.034	3482
3709.692	3564
3711.351	3456
3713.008	3495
3714.665	3497
3716.321	3499
3717.977	3526
3719.634	3377
3721.29	3510
3722.945	3440
3724.598	3526
3726.253	3482
3727.907	3439
3729.561	3447
3731.214	3463
3732.867	3402
3734.518	3437
3736.171	3470
3737.824	3481
3739.474	3526
3741.125	3424
3742.775	3428
3744.425	3382
3746.074	3418
3747.725	3482
3749.373	3422
3751.022	3425
3752.669	3503
3754.318	3441
3755.966	3502
3757.612	3447
3759.259	3374
3760.905	3409
3762.55	3334
3764.197	3414
3765.842	3347
3767.486	3421
3769.131	3335
3770.774	3438
3772.417	3378
3774.061	3392
3775.705	3407
3777.347	3341
3778.988	3329
3780.629	3347
3782.271	3371
3783.912	3393
3785.552	3334
3787.192	3331
3788.831	3391
3790.472	3351
3792.112	3389
3793.75	3383
3795.388	3404
3797.024	3303
3798.661	3319
3800.3	3301
3801.936	3352
3803.572	3324
3805.208	3380
3806.844	3252
3808.48	3317
3810.115	3317
3811.748	3309
3813.382	3323
3815.016	3276
3816.649	3262
3818.283	3234
3819.914	3302
3821.547	3315
3823.178	3298
3824.809	3245
3826.441	3296
3828.072	3288
3829.701	3296
3831.331	3290
3832.96	3268
3834.591	3170
3836.219	3257
3837.847	3308
3839.475	3220
3841.102	3233
3842.729	3260
3844.357	3316
3845.984	3298
3847.609	3286
3849.234	3230
3850.86	3235
3852.485	3309
3854.11	3241
3855.734	3234
3857.357	3184
3858.981	3254
3860.603	3155
3862.227	3290
3863.848	3243
3865.471	3162
3867.092	3302
3868.713	3160
3870.334	3213
3871.954	3190
3873.575	3168
3875.194	3166
3876.813	3192
3878.433	3226
3880.051	3190
3881.669	3119
3883.286	3140
3884.904	3141
3886.52	3111
3888.138	3152
3889.754	3115
3891.37	3164
3892.985	3092
3894.6	3137
3896.216	3154
3897.831	3075
3899.444	3196
3901.058	3124
3902.67	3122
3904.283	3161
3905.897	3230
3907.509	3166
3909.121	3101
3910.731	3134
3912.342	3022
3913.954	3166
3915.563	3092
3917.174	3149
3918.783	3092
3920.391	3188
3922.002	3123
3923.611	3107
3925.218	3063
3926.826	3122
3928.432	3133
3930.039	3166
3931.647	3141
3933.253	3121
3934.859	3042
3936.464	3095
3938.068	3099
3939.675	3115
3941.278	3079
3942.883	3105
3944.486	3066
3946.089	3140
3947.692	3050
3949.295	3097
3950.898	3056
3952.499	3035
3954.1	3062
3955.7	3049
3957.303	3112
3958.903	3068
3960.502	3053
3962.101	3075
3963.7	3063
3965.301	3043
3966.899	3039
3968.497	3090
3970.094	3013
3971.691	3018
3973.288	3053
3974.885	3086
3976.481	3030
3978.077	3021
3979.672	2997
3981.267	3002
3982.863	3013
3984.457	2966
3986.051	3021
3987.645	3034
3989.238	3041
3990.831	3056
3992.425	3010
3994.017	3024
3995.607	3043
3997.199	2927
3998.79	2963
4000.382	2950
4001.973	2952
4003.561	2994
4005.151	2917
4006.741	2989
4008.331	2951
4009.918	2933
4011.507	2949
4013.095	2954
4014.681	2934
4016.269	2921
4017.856	2835
4019.443	2947
4021.028	2937
4022.614	2864
4024.199	2944
4025.785	2921
4027.37	2948
4028.953	2973
4030.536	2879
4032.12	2891
4033.704	2962
4035.287	2920
4036.869	2908
4038.45	2893
4040.032	2904
4041.613	2906
4043.195	2878
4044.776	2854
4046.356	2848
4047.935	2859
4049.515	2931
4051.095	2857
4052.674	2866
4054.251	2920
4055.829	2825
4057.406	2826
4058.985	2795
4060.562	2869
4062.139	2804
4063.715	2831
4065.29	2774
4066.865	2829
4068.442	2783
4070.016	2886
4071.59	2831
4073.164	2838
4074.738	2753
4076.312	2808
4077.885	2822
4079.458	2824
4081.03	2809
4082.602	2835
4084.173	2796
4085.745	2825
4087.315	2765
4088.886	2764
4090.456	2777
4092.026	2793
4093.596	2816
4095.165	2762
4096.734	2830
4098.301	2794
4099.869	2737
4101.437	2763
4103.006	2773
4104.572	2812
4106.139	2757
4107.704	2822
4109.27	2793
4110.837	2748
4112.401	2790
4113.966	2758
4115.53	2693
4117.094	2792
4118.659	2765
4120.223	2763
4121.785	2686
4123.347	2706
4124.909	2730
4126.471	2662
4128.034	2737
4129.595	2754
4131.155	2731
4132.716	2677
4134.275	2767
4135.836	2756
4137.395	2705
4138.955	2718
4140.513	2666
4142.071	2715
4143.628	2701
4145.188	2615
4146.745	2760
4148.302	2684
4149.858	2611
4151.414	2701
4152.971	2692
4154.526	2617
4156.081	2663
4157.635	2614
4159.189	2659
4160.745	2716
4162.298	2632
4163.852	2687
4165.405	2686
4166.957	2638
4168.51	2672
4170.063	2689
4171.614	2699
4173.166	2589
4174.717	2652
4176.267	2604
4177.817	2664
4179.368	2635
4180.917	2607
4182.466	2569
4184.016	2626
4185.564	2610
4187.112	2572
4188.66	2636
4190.207	2574
4191.754	2551
4193.301	2610
4194.848	2588
4196.394	2532
4197.94	2565
4199.484	2624
4201.03	2543
4202.575	2689
4204.12	2600
4205.663	2588
4207.207	2602
4208.75	2594
4210.292	2603
4211.836	2545
4213.378	2507
4214.92	2537
4216.46	2540
4218.002	2532
4219.544	2551
4221.083	2531
4222.625	2540
4224.164	2517
4225.703	2581
4227.244	2549
4228.782	2551
4230.32	2573
4231.857	2490
4233.395	2522
4234.933	2520
4236.471	2572
4238.007	2622
4239.542	2520
4241.078	2535
4242.614	2499
4244.15	2488
4245.685	2492
4247.219	2545
4248.753	2515
4250.287	2611
4251.82	2541
4253.354	2481
4254.887	2507
4256.419	2425
4257.951	2504
4259.483	2498
4261.016	2478
4262.547	2502
4264.078	2486
4265.608	2535
4267.137	2551
4268.668	2504
4270.197	2550
4271.727	2545
4273.254	2484
4274.783	2464
4276.311	2443
4277.84	2449
4279.366	2442
4280.894	2500
4282.42	2441
4283.946	2471
4285.473	2470
4286.998	2433
4288.523	2418
4290.047	2464
4291.572	2495
4293.096	2460
4294.622	2469
4296.144	2487
4297.668	2439
4299.19	2502
4300.713	2497
4302.236	2412
4303.758	2365
4305.279	2421
4306.799	2422
4308.321	2444
4309.842	2351
4311.361	2486
4312.882	2368
4314.401	2367
