400.0961	2968
402.6185	2926
405.1424	2924
407.6635	2894
410.1838	2946
412.7035	2996
415.2225	2936
417.7388	3039
420.2585	3073
422.7754	3058
425.2917	3066
427.8072	3128
430.3221	3175
432.8363	3156
435.3498	3215
437.8626	3205
440.3727	3119
442.8841	3143
445.3969	3183
447.907	3267
450.4142	3152
452.9229	3114
455.4289	3102
457.9362	3106
460.4449	3223
462.9488	3113
465.454	3103
467.9566	3110
470.4604	3115
472.9637	3037
475.4662	3111
477.966	3087
480.4671	3122
482.9656	3125
485.4633	3146
487.9645	3174
490.4608	3105
492.9566	3134
495.4536	3111
497.948	3128
500.4437	3203
502.9387	3132
505.431	3204
507.9226	3122
510.4136	3136
512.9079	3197
515.3975	3212
517.8864	3186
520.3746	3189
522.8622	3151
525.3491	3148
527.8394	3186
530.3249	3199
532.8098	3197
535.2939	3222
537.7774	3269
540.2623	3278
542.7444	3110
545.2259	3264
547.7067	3232
550.1868	3233
552.6683	3167
555.147	3238
557.6231	3142
560.1005	3211
562.5773	3305
565.0534	3214
567.5308	3323
570.0056	3281
572.4776	3325
574.951	3382
577.4237	3344
579.8978	3371
582.3671	3353
584.8378	3446
587.3079	3404
589.7773	3439
592.244	3347
594.714	3358
597.1793	3461
599.6461	3298
602.1121	3354
604.5754	3367
607.0421	3300
609.5042	3378
611.9675	3350
614.4282	3271
616.8902	3277
619.3515	3219
621.8122	3329
624.2702	3268
626.7296	3304
629.1863	3229
631.6423	3287
634.1017	3183
636.5563	3346
639.0104	3298
641.4658	3280
643.9185	3241
646.3725	3300
648.8239	3341
651.2766	3349
653.7266	3324
656.176	3318
658.6247	3316
661.0748	3322
663.5242	3335
665.9709	3309
668.417	3379
670.8624	3286
673.3092	3414
675.7533	3376
678.1968	3387
680.6395	3368
683.0817	3392
685.5251	3321
687.9659	3371
690.4061	3477
692.8456	3367
695.2844	3431
697.7226	3419
700.1621	3423
702.599	3424
705.0332	3397
707.4688	3416
709.9036	3475
712.3399	3432
714.7735	3444
717.2044	3481
719.6367	3515
722.0683	3453
724.4993	3411
726.9296	3455
729.3593	3431
731.7883	3498
734.2147	3508
736.6423	3554
739.0714	3556
741.4958	3584
743.9216	3543
746.3447	3519
748.7691	3541
751.1929	3560
753.616	3594
756.0366	3542
758.4584	3561
760.8776	3626
763.2982	3588
765.718	3621
768.1373	3580
770.5539	3631
772.9698	3630
775.3871	3653
777.8038	3648
780.2178	3581
782.6332	3580
785.0459	3697
787.458	3646
789.8714	3585
792.2842	3719
794.6943	3623
797.1038	3645
799.5127	3528
801.9209	3707
804.3324	3643
806.7393	3724
809.1456	3570
811.5513	3677
813.9562	3614
816.3625	3734
818.7663	3662
821.1693	3596
823.5718	3726
825.9735	3715
828.3746	3641
830.7771	3770
833.177	3618
835.5762	3701
837.9747	3783
840.3727	3780
842.772	3706
845.1666	3723
847.5626	3776
849.958	3741
852.3527	3837
854.7488	3834
857.1403	3713
859.5331	3825
861.9253	3825
864.3168	3782
866.7057	3751
869.098	3784
871.4876	3747
873.8746	3725
876.263	3720
878.6487	3796
881.0378	3682
883.4243	3822
885.8081	3748
888.1933	3751
890.5759	3738
892.9598	3733
895.343	3798
897.7256	3757
900.1057	3811
902.4871	3807
904.8659	3737
907.246	3774
909.6254	3819
912.0023	3751
914.3786	3867
916.7562	3916
919.1331	3879
921.5074	4045
923.8831	3974
926.2562	3988
928.6287	4017
931.0005	3965
933.3757	3966
935.7462	3972
938.1162	3989
940.4855	4114
942.8542	4076
945.2242	4166
947.5916	4261
949.9584	4424
952.3266	4558
954.6921	4776
957.0571	4928
959.4233	5135
961.787	5242
964.15	5109
966.5125	4977
968.8742	4770
971.2354	4574
973.5959	4332
975.9559	4197
978.3151	4083
980.6738	4025
983.0338	3980
985.3912	3885
987.7461	3995
990.1022	3901
992.4578	3875
994.8127	3942
997.1689	3960
999.5207	3970
1001.874	3903
1004.226	4012
1006.576	3868
1008.929	3900
1011.28	3924
1013.628	3988
1015.977	4029
1018.324	3928
1020.674	3969
1023.019	3948
1025.366	3885
1027.713	3962
1030.056	3997
1032.399	4002
1034.746	4062
1037.087	4069
1039.431	4021
1041.771	4015
1044.113	4012
1046.454	4074
1048.793	4032
1051.133	4046
1053.471	4054
1055.807	3988
1058.146	4102
1060.483	4019
1062.818	4099
1065.153	4115
1067.489	4116
1069.822	4139
1072.156	4165
1074.488	4114
1076.82	4102
1079.15	4171
1081.48	4076
1083.814	4094
1086.143	4024
1088.471	4029
1090.799	3950
1093.126	4000
1095.452	4073
1097.78	4093
1100.105	4006
1102.43	4091
1104.754	4080
1107.077	4050
1109.4	4083
1111.722	4009
1114.044	4068
1116.365	4042
1118.685	4135
1121.005	4115
1123.324	4070
1125.643	4010
1127.961	4037
1130.278	4085
1132.595	4029
1134.911	4049
1137.226	4034
1139.541	4012
1141.854	4023
1144.167	3955
1146.482	3996
1148.793	3940
1151.105	4061
1153.414	4045
1155.725	4011
1158.033	3985
1160.344	3979
1162.651	4093
1164.959	4064
1167.265	3979
1169.572	3995
1171.878	3967
1174.184	4066
1176.488	4058
1178.79	4050
1181.094	4039
1183.396	4120
1185.699	4024
1188.001	3998
1190.301	4035
1192.6	3988
1194.9	3977
1197.2	4070
1199.497	4144
1201.794	4055
1204.09	4089
1206.387	4115
1208.684	4075
1210.978	4092
1213.272	4055
1215.565	4043
1217.858	4116
1220.15	4067
1222.443	4079
1224.734	4044
1227.024	4063
1229.313	4184
1231.602	4136
1233.892	4191
1236.18	4198
1238.467	4236
1240.754	4153
1243.04	4251
1245.325	4195
1247.612	4278
1249.896	4228
1252.178	4236
1254.461	4245
1256.743	4197
1259.027	4255
1261.308	4231
1263.587	4262
1265.867	4303
1268.146	4210
1270.425	4212
1272.703	4198
1274.981	4211
1277.256	4202
1279.532	4239
1281.808	4245
1284.083	4155
1286.358	4245
1288.63	4191
1290.904	4171
1293.175	4166
1295.449	4179
1297.719	4183
1299.99	4141
1302.259	4196
1304.529	4206
1306.798	4119
1309.065	4211
1311.333	4085
1313.599	4106
1315.866	4096
1318.131	4148
1320.396	4197
1322.66	4128
1324.925	4121
1327.187	4204
1329.448	4177
1331.711	4291
1333.974	4139
1336.234	4209
1338.493	4180
1340.752	4155
1343.01	4150
1345.269	4265
1347.526	4260
1349.784	4151
1352.04	4138
1354.295	4116
1356.552	4200
1358.806	4137
1361.059	4189
1363.312	4122
1365.564	4021
1367.818	4100
1370.069	4307
1372.318	4195
1374.568	4145
1376.817	4179
1379.066	4258
1381.316	4079
1383.564	4311
1385.809	4217
1388.056	4316
1390.301	4324
1392.549	4222
1394.793	4262
1397.036	4244
1399.279	4295
1401.522	4275
1403.763	4344
1406.007	4280
1408.248	4340
1410.487	4198
1412.727	4265
1414.965	4252
1417.205	4331
1419.442	4258
1421.68	4214
1423.915	4332
1426.152	4272
1428.388	4393
1430.623	4316
1432.857	4359
1435.091	4329
1437.323	4299
1439.556	4405
1441.789	4449
1444.019	4367
1446.25	4359
1448.48	4398
1450.708	4424
1452.938	4405
1455.167	4436
1457.394	4472
1459.62	4502
1461.846	4447
1464.073	4381
1466.299	4395
1468.523	4323
1470.746	4309
1472.969	4321
1475.191	4284
1477.415	4264
1479.636	4299
1481.858	4251
1484.078	4241
1486.298	4301
1488.518	4207
1490.736	4216
1492.954	4126
1495.169	4205
1497.386	4278
1499.602	4178
1501.819	4197
1504.034	4133
1506.248	4202
1508.462	4197
1510.675	4113
1512.888	4218
1515.1	4183
1517.311	4194
1519.522	4217
1521.732	4104
1523.942	4053
1526.151	4103
1528.36	4102
1530.566	4256
1532.773	4145
1534.98	4245
1537.187	4212
1539.392	4203
1541.596	4321
1543.801	4140
1546.005	4256
1548.208	4142
1550.411	4278
1552.612	4264
1554.814	4295
1557.013	4285
1559.212	4207
1561.414	4139
1563.612	4287
1565.811	4206
1568.007	4289
1570.203	4288
1572.403	4314
1574.598	4291
1576.792	4254
1578.988	4343
1581.181	4227
1583.376	4266
1585.568	4360
1587.761	4313
1589.952	4233
1592.143	4409
1594.333	4305
1596.524	4267
1598.715	4379
1600.903	4346
1603.091	4374
1605.278	4313
1607.466	4376
1609.652	4293
1611.838	4354
1614.023	4348
1616.207	4335
1618.391	4287
1620.576	4279
1622.759	4432
1624.941	4384
1627.123	4355
1629.304	4370
1631.484	4398
1633.664	4448
1635.844	4370
1638.022	4400
1640.201	4447
1642.38	4505
1644.556	4441
1646.732	4354
1648.908	4349
1651.084	4458
1653.257	4492
1655.433	4502
1657.607	4453
1659.779	4540
1661.951	4449
1664.122	4560
1666.295	4647
1668.467	4504
1670.635	4505
1672.805	4432
1674.973	4534
1677.142	4487
1679.31	4447
1681.478	4492
1683.644	4530
1685.81	4510
1687.975	4377
1690.142	4450
1692.305	4433
1694.468	4332
1696.632	4460
1698.794	4545
1700.957	4397
1703.119	4447
1705.279	4265
1707.439	4352
1709.598	4361
1711.758	4378
1713.917	4387
1716.075	4327
1718.231	4227
1720.388	4325
1722.543	4273
1724.702	4377
1726.856	4283
1729.01	4365
1731.164	4360
1733.317	4261
1735.471	4252
1737.623	4249
1739.774	4293
1741.925	4363
1744.075	4316
1746.225	4344
1748.376	4288
1750.524	4397
1752.672	4352
1754.82	4375
1756.965	4392
1759.113	4251
1761.259	4416
1763.405	4327
1765.549	4442
1767.694	4353
1769.836	4272
1771.981	4298
1774.123	4378
1776.264	4385
1778.405	4427
1780.546	4403
1782.687	4308
1784.827	4354
1786.966	4373
1789.103	4316
1791.242	4353
1793.381	4331
1795.517	4387
1797.653	4355
1799.788	4367
1801.923	4363
1804.057	4473
1806.193	4416
1808.326	4481
1810.457	4363
1812.59	4348
1814.721	4338
1816.855	4379
1818.984	4455
1821.113	4390
1823.244	4327
1825.372	4368
1827.499	4352
1829.63	4333
1831.756	4355
1833.882	4399
1836.007	4320
1838.132	4392
1840.26	4371
1842.384	4333
1844.507	4350
1846.63	4344
1848.752	4309
1850.875	4387
1852.996	4369
1855.118	4363
1857.238	4342
1859.358	4413
1861.477	4410
1863.597	4458
1865.715	4285
1867.832	4330
1869.948	4324
1872.064	4351
1874.181	4326
1876.297	4366
1878.411	4317
1880.526	4296
1882.639	4434
1884.752	4384
1886.865	4352
1888.977	4370
1891.089	4331
1893.2	4395
1895.308	4352
1897.42	4384
1899.53	4384
1901.639	4346
1903.745	4399
1905.853	4390
1907.962	4405
1910.067	4361
1912.174	4480
1914.278	4320
1916.383	4499
1918.486	4449
1920.592	4442
1922.694	4404
1924.797	4326
1926.898	4394
1929	4381
1931.102	4412
1933.203	4420
1935.301	4452
1937.401	4346
1939.499	4467
1941.598	4407
1943.697	4423
1945.793	4438
1947.888	4389
1949.985	4453
1952.08	4457
1954.176	4437
1956.269	4508
1958.364	4423
1960.457	4420
1962.549	4370
1964.642	4459
1966.733	4421
1968.823	4419
1970.913	4467
1973.005	4428
1975.093	4448
1977.184	4420
1979.271	4469
1981.359	4383
1983.446	4359
1985.532	4369
1987.619	4382
1989.705	4347
1991.789	4368
1993.874	4469
1995.956	4387
1998.041	4399
2000.123	4440
2002.206	4384
2004.287	4426
2006.368	4385
2008.449	4386
2010.529	4393
2012.609	4391
2014.688	4399
2016.766	4355
2018.843	4437
2020.922	4386
2022.999	4368
2025.074	4375
2027.15	4445
2029.225	4345
2031.299	4416
2033.375	4344
2035.447	4437
2037.52	4356
2039.592	4470
2041.664	4487
2043.736	4391
2045.807	4419
2047.876	4402
2049.947	4329
2052.015	4375
2054.086	4377
2056.153	4415
2058.221	4456
2060.288	4392
2062.353	4476
2064.42	4429
2066.486	4446
2068.55	4516
2070.614	4444
2072.678	4392
2074.741	4414
2076.805	4390
2078.866	4431
2080.929	4407
2082.99	4408
2085.049	4328
2087.109	4369
2089.17	4410
2091.228	4363
2093.286	4450
2095.344	4421
2097.4	4523
2099.46	4367
2101.516	4497
2103.572	4400
2105.626	4380
2107.679	4337
2109.735	4374
2111.788	4431
2113.841	4532
2115.894	4349
2117.945	4431
2119.997	4353
2122.049	4374
2124.1	4331
2126.148	4399
2128.197	4307
2130.246	4338
2132.296	4344
2134.342	4464
2136.39	4422
2138.437	4427
2140.483	4430
2142.527	4350
2144.574	4374
2146.619	4427
2148.661	4300
2150.705	4343
2152.747	4348
2154.792	4393
2156.832	4374
2158.874	4482
2160.915	4391
2162.954	4414
2164.995	4366
2167.034	4357
2169.072	4439
2171.111	4306
2173.148	4397
2175.186	4304
2177.223	4354
2179.258	4344
2181.294	4359
2183.328	4365
2185.362	4376
2187.398	4344
2189.431	4448
2191.463	4408
2193.495	4332
2195.528	4324
2197.56	4295
2199.59	4285
2201.62	4373
2203.649	4362
2205.678	4159
2207.708	4393
2209.737	4393
2211.764	4341
2213.791	4250
2215.817	4326
2217.843	4280
2219.87	4294
2221.895	4291
2223.919	4258
2225.942	4401
2227.966	4271
2229.988	4294
2232.012	4355
2234.032	4439
2236.054	4348
2238.074	4242
2240.095	4280
2242.116	4356
2244.135	4321
2246.153	4304
2248.171	4293
2250.188	4330
2252.208	4350
2254.223	4330
2256.239	4325
2258.255	4266
2260.269	4313
2262.283	4297
2264.3	4227
2266.312	4353
2268.325	4323
2270.336	4259
2272.349	4271
2274.362	4299
2276.372	4320
2278.383	4297
2280.392	4286
2282.402	4440
2284.409	4383
2286.418	4313
2288.427	4396
2290.433	4335
2292.441	4280
2294.446	4252
2296.453	4256
2298.459	4257
2300.463	4308
2302.466	4326
2304.471	4335
2306.475	4299
2308.477	4269
2310.478	4284
2312.481	4357
2314.481	4297
2316.481	4212
2318.482	4371
2320.482	4329
2322.48	4309
2324.48	4282
2326.478	4221
2328.476	4289
2330.473	4328
2332.469	4260
2334.465	4262
2336.46	4310
2338.454	4189
2340.45	4172
2342.444	4278
2344.437	4219
2346.43	4221
2348.421	4293
2350.414	4266
2352.405	4233
2354.396	4347
2356.386	4172
2358.376	4146
2360.366	4258
2362.355	4227
2364.343	4254
2366.331	4242
2368.317	4244
2370.304	4165
2372.292	4292
2374.278	4254
2376.262	4359
2378.247	4269
2380.23	4175
2382.216	4239
2384.199	4209
2386.181	4172
2388.163	4204
2390.144	4300
2392.127	4239
2394.107	4175
2396.087	4123
2398.066	4190
2400.046	4242
2402.023	4196
2404.004	4149
2405.981	4150
2407.957	4206
2409.934	4172
2411.91	4205
2413.886	4225
2415.862	4158
2417.836	4201
2419.809	4150
2421.784	4161
2423.756	4087
2425.73	4145
2427.701	4122
2429.672	4168
2431.644	4136
2433.615	4224
2435.586	4141
2437.555	4225
2439.523	4153
2441.491	4302
2443.459	4229
2445.428	4166
2447.395	4155
2449.361	4110
2451.327	4264
2453.292	4168
2455.257	4239
2457.223	4138
2459.187	4124
2461.15	4141
2463.113	4159
2465.076	4130
2467.039	4143
2468.999	4146
2470.96	4138
2472.921	4125
2474.881	4160
2476.841	4141
2478.8	4081
2480.759	4119
2482.717	4120
2484.675	4197
2486.63	4125
2488.589	4110
2490.545	4105
2492.5	4112
2494.455	4153
2496.408	4064
2498.364	4108
2500.318	4121
2502.27	4056
2504.223	4062
2506.174	4069
2508.126	4122
2510.078	4058
2512.03	4124
2513.979	4104
2515.927	4050
2517.877	4163
2519.826	4084
2521.775	4202
2523.722	4085
2525.668	4117
2527.616	4155
2529.561	4094
2531.508	4100
2533.452	4099
2535.398	4211
2537.342	4004
2539.284	4093
2541.229	4171
2543.173	4155
2545.114	4191
2547.055	4170
2548.996	4088
2550.938	4060
2552.878	4115
2554.817	4025
2556.756	4062
2558.695	4107
2560.633	4072
2562.572	4117
2564.509	4110
2566.445	4120
2568.382	4127
2570.317	4078
2572.254	4152
2574.189	4186
2576.123	4096
2578.057	4189
2579.99	4050
2581.923	4118
2583.855	4088
2585.788	4168
2587.719	4067
2589.65	4245
2591.579	4079
2593.511	4227
2595.44	4145
2597.37	4152
2599.297	4118
2601.225	4001
2603.153	4112
2605.08	4083
2607.007	4092
2608.932	4156
2610.858	4088
2612.782	4236
2614.709	4077
2616.632	4222
2618.556	4117
2620.478	4138
2622.401	4135
2624.324	4151
2626.247	4075
2628.167	4144
2630.088	4176
2632.008	4067
2633.928	4120
2635.848	4053
2637.766	4135
2639.684	4161
2641.603	4159
2643.519	4204
2645.437	4139
2647.353	4092
2649.27	4155
2651.184	4133
2653.099	4108
2655.014	4141
2656.928	4067
2658.842	4280
2660.755	4130
2662.667	4023
2664.579	4052
2666.491	4091
2668.402	4134
2670.312	4091
2672.222	4055
2674.132	4110
2676.042	4097
2677.951	4114
2679.859	4113
2681.766	4082
2683.674	4100
2685.582	4105
2687.488	4105
2689.392	4103
2691.298	4059
2693.202	4068
2695.107	4108
2697.012	4088
2698.914	3996
2700.817	4085
2702.72	3971
2704.622	4079
2706.524	4063
2708.425	4097
2710.326	3978
2712.225	4034
2714.125	3951
2716.024	4064
2717.923	4075
2719.822	4109
2721.719	4070
2723.616	4058
2725.512	4058
2727.41	4115
2729.305	4023
2731.201	4107
2733.095	4093
2734.99	4137
2736.884	4064
2738.778	4115
2740.67	4067
2742.562	4086
2744.455	4057
2746.346	3977
2748.238	4027
2750.129	4152
2752.018	4088
2753.907	3983
2755.797	4070
2757.687	4101
2759.575	4046
2761.462	4008
2763.349	4045
2765.237	4065
2767.124	4067
2769.009	3970
2770.894	3994
2772.779	3971
2774.663	4104
2776.547	4041
2778.431	3962
2780.314	4055
2782.197	4013
2784.078	3960
2785.96	4001
2787.842	4015
2789.723	3977
2791.603	4038
2793.483	4041
2795.362	3889
2797.241	4102
2799.121	4038
2800.997	3926
2802.874	3934
2804.751	4053
2806.628	4005
2808.506	3981
2810.38	3990
2812.255	3918
2814.13	3990
2816.003	4009
2817.878	3984
2819.752	3988
2821.623	3978
2823.496	4039
2825.368	4011
2827.238	3937
2829.111	4000
2830.98	3951
2832.851	4088
2834.719	3999
2836.589	4076
2838.458	3991
2840.327	3930
2842.193	4014
2844.061	4043
2845.927	3996
2847.794	4003
2849.66	4127
2851.525	4059
2853.39	4005
2855.254	3983
2857.117	4045
2858.983	3995
2860.845	4183
2862.707	4088
2864.569	4195
2866.431	4128
2868.293	4238
2870.154	4169
2872.013	4294
2873.873	4236
2875.733	4288
2877.592	4375
2879.451	4454
2881.309	4371
2883.166	4421
2885.022	4440
2886.879	4490
2888.736	4488
2890.591	4501
2892.446	4524
2894.301	4482
2896.155	4532
2898.009	4567
2899.863	4498
2901.716	4439
2903.568	4416
2905.419	4485
2907.27	4462
2909.123	4409
2910.973	4393
2912.824	4604
2914.673	4581
2916.521	4503
2918.372	4635
2920.22	4539
2922.067	4651
2923.914	4712
2925.761	4770
2927.607	4754
2929.455	4824
2931.301	4844
2933.144	4836
2934.99	4971
2936.833	5023
2938.678	4995
2940.522	4939
2942.364	5083
2944.207	5126
2946.048	5140
2947.891	5175
2949.731	5099
2951.571	5108
2953.412	5183
2955.25	5098
2957.09	5027
2958.93	5077
2960.767	4967
2962.606	4966
2964.443	4889
2966.279	4845
2968.116	4873
2969.953	4787
2971.788	4684
2973.623	4614
2975.457	4576
2977.292	4573
2979.127	4560
2980.959	4665
2982.792	4562
2984.624	4623
2986.455	4562
2988.288	4517
2990.119	4501
2991.949	4395
2993.779	4404
2995.608	4353
2997.439	4356
2999.268	4338
3001.096	4266
3002.923	4207
3004.751	4233
3006.578	4183
3008.406	4153
3010.232	4148
3012.057	4139
3013.883	4005
3015.706	3976
3017.532	3879
3019.356	3969
3021.179	4005
3023.002	3869
3024.823	3954
3026.646	3913
3028.469	3886
3030.289	3859
3032.11	3844
3033.93	3946
3035.749	3913
3037.57	3815
3039.39	3876
3041.207	3901
3043.026	3854
3044.842	3815
3046.661	3900
3048.477	3939
3050.294	3858
3052.109	3807
3053.925	3842
3055.739	3709
3057.555	3859
3059.368	3816
3061.181	3896
3062.995	3826
3064.807	3837
3066.62	3812
3068.433	3893
3070.243	3758
3072.054	3825
3073.865	3839
3075.675	3726
3077.485	3812
3079.293	3891
3081.102	3736
3082.911	3781
3084.719	3832
3086.527	3763
3088.333	3742
3090.139	3788
3091.945	3765
3093.75	3773
3095.557	3778
3097.361	3663
3099.165	3756
3100.969	3669
3102.772	3723
3104.575	3691
3106.379	3675
3108.181	3696
3109.982	3708
3111.783	3697
3113.584	3735
3115.386	3630
3117.186	3651
3118.985	3692
3120.783	3658
3122.582	3704
3124.381	3619
3126.179	3641
3127.975	3700
3129.772	3681
3131.569	3723
3133.365	3632
3135.161	3577
3136.956	3622
3138.751	3704
3140.544	3632
3142.338	3723
3144.132	3658
3145.925	3690
3147.717	3750
3149.509	3676
3151.301	3650
3153.091	3639
3154.884	3655
3156.673	3645
3158.462	3586
3160.252	3675
3162.041	3530
3163.831	3686
3165.618	3579
3167.405	3642
3169.193	3685
3170.979	3545
3172.767	3552
3174.553	3665
3176.338	3569
3178.123	3654
3179.907	3608
3181.692	3619
3183.477	3605
3185.259	3747
3187.042	3587
3188.824	3615
3190.607	3623
3192.389	3566
3194.17	3581
3195.951	3607
3197.73	3616
3199.51	3567
3201.289	3527
3203.07	3606
3204.848	3577
3206.626	3581
3208.403	3593
3210.18	3591
3211.959	3664
3213.735	3631
3215.511	3602
3217.285	3650
3219.06	3584
3220.836	3607
3222.611	3629
3224.384	3654
3226.158	3632
3227.929	3685
3229.702	3658
3231.476	3569
3233.248	3555
3235.018	3591
3236.789	3690
3238.56	3584
3240.33	3583
3242.1	3586
3243.869	3590
3245.637	3599
3247.405	3580
3249.172	3678
3250.941	3485
3252.707	3531
3254.474	3683
3256.24	3615
3258.006	3628
3259.772	3603
3261.537	3593
3263.301	3617
3265.065	3635
3266.828	3597
3268.592	3666
3270.355	3561
3272.117	3611
3273.878	3625
3275.64	3654
3277.401	3572
3279.162	3691
3280.922	3586
3282.682	3663
3284.441	3636
3286.199	3622
3287.959	3611
3289.716	3743
3291.475	3676
3293.232	3593
3294.988	3567
3296.744	3654
3298.501	3629
3300.256	3570
3302.011	3566
3303.766	3608
3305.52	3657
3307.275	3566
3309.028	3596
3310.781	3623
3312.533	3592
3314.285	3626
3316.038	3582
3317.789	3655
3319.54	3688
3321.289	3617
3323.039	3683
3324.789	3623
3326.539	3591
3328.288	3574
3330.035	3584
3331.783	3559
3333.531	3579
3335.28	3555
3337.025	3556
3338.771	3585
3340.518	3569
3342.262	3579
3344.009	3633
3345.753	3522
3347.497	3614
3349.24	3538
3350.983	3622
3352.726	3513
3354.469	3657
3356.212	3527
3357.952	3568
3359.694	3548
3361.434	3607
3363.176	3558
3364.916	3593
3366.654	3507
3368.394	3545
3370.132	3578
3371.871	3485
3373.61	3440
3375.346	3519
3377.083	3507
3378.82	3531
3380.556	3560
3382.292	3474
3384.027	3485
3385.763	3515
3387.497	3430
3389.231	3503
3390.965	3542
3392.698	3451
3394.431	3528
3396.164	3422
3397.896	3532
3399.627	3498
3401.36	3511
3403.09	3475
3404.82	3394
3406.55	3513
3408.279	3385
3410.01	3424
3411.738	3478
3413.467	3518
3415.194	3491
3416.92	3494
3418.647	3363
3420.375	3388
3422.102	3461
3423.827	3473
3425.553	3435
3427.277	3410
3429.003	3384
3430.727	3472
3432.451	3416
3434.173	3403
3435.896	3511
3437.62	3416
3439.343	3413
3441.063	3362
3442.785	3375
3444.505	3395
3446.226	3386
3447.948	3460
3449.666	3337
3451.386	3378
3453.104	3438
3454.823	3363
3456.541	3329
3458.259	3355
3459.976	3337
3461.693	3346
3463.408	3415
3465.125	3329
3466.841	3267
3468.556	3285
3470.271	3372
3471.985	3356
3473.698	3341
3475.414	3326
3477.126	3213
3478.838	3308
3480.55	3389
3482.263	3350
3483.975	3325
3485.686	3332
3487.396	3261
3489.106	3271
3490.817	3265
3492.526	3328
3494.236	3213
3495.944	3297
3497.652	3275
3499.359	3183
3501.066	3169
3502.775	3286
3504.481	3211
3506.187	3277
3507.893	3213
3509.598	3218
3511.304	3248
3513.009	3273
3514.713	3189
3516.417	3218
3518.12	3151
3519.821	3273
3521.525	3236
3523.228	3255
3524.929	3162
3526.631	3188
3528.33	3134
3530.032	3161
3531.733	3206
3533.433	3188
3535.131	3134
3536.83	3138
3538.529	3168
3540.227	3193
3541.925	3170
3543.623	3095
3545.319	3242
3547.016	3151
3548.712	3150
3550.408	3135
3552.103	3088
3553.798	3166
3555.491	3158
3557.188	3093
3558.88	3097
3560.574	3127
3562.266	3079
3563.959	3142
3565.651	3092
3567.343	3066
3569.035	3138
3570.725	3067
3572.415	3147
3574.106	3153
3575.797	3123
3577.485	3095
3579.174	3084
3580.863	3051
3582.551	3060
3584.238	3096
3585.926	3105
3587.613	3094
3589.3	3098
3590.986	3031
3592.671	3056
3594.357	3073
3596.042	3025
3597.726	3045
3599.41	3024
3601.094	2997
3602.778	3017
3604.461	3002
3606.143	3002
3607.825	2917
3609.507	3004
3611.188	2986
3612.87	2935
3614.551	2879
3616.229	2965
3617.909	2942
3619.589	2980
3621.269	2997
3622.948	2953
3624.625	2938
3626.302	2961
3627.98	2936
3629.657	2916
3631.334	2994
3633.01	2896
3634.686	2952
3636.361	2877
3638.036	2950
3639.712	2862
3641.385	2915
3643.06	2862
3644.732	2885
3646.405	2864
3648.08	2904
3649.751	2938
3651.424	2913
3653.094	2873
3654.766	2881
3656.436	2934
3658.106	2824
3659.777	2895
3661.446	2810
3663.115	2848
3664.783	2865
3666.452	2908
3668.121	2902
3669.788	2892
3671.454	2900
3673.121	2850
3674.789	2857
3676.455	2841
3678.12	2831
3679.784	2844
3681.45	2798
3683.114	2833
3684.779	2866
3686.442	2857
3688.105	2816
3689.768	2888
3691.43	2830
3693.093	2812
3694.754	2877
3696.415	2870
3698.076	2804
3699.736	2775
3701.396	2848
3703.057	2834
3704.716	2774
3706.375	2854
3708.034	2797
3709.692	2748
3711.351	2795
3713.008	2765
3714.665	2778
3716.321	2738
3717.977	2755
3719.634	2807
3721.29	2795
3722.945	2748
3724.598	2763
3726.253	2803
3727.907	2814
3729.561	2716
3731.214	2800
3732.867	2762
3734.518	2679
3736.171	2809
3737.824	2784
3739.474	2792
3741.125	2687
3742.775	2716
3744.425	2750
3746.074	2770
3747.725	2773
3749.373	2748
3751.022	2684
3752.669	2789
3754.318	2728
3755.966	2710
3757.612	2684
3759.259	2692
3760.905	2677
3762.55	2772
3764.197	2709
3765.842	2702
3767.486	2751
3769.131	2739
3770.774	2726
3772.417	2741
3774.061	2695
3775.705	2678
3777.347	2722
3778.988	2737
3780.629	2622
3782.271	2722
3783.912	2636
3785.552	2684
3787.192	2727
3788.831	2706
3790.472	2707
3792.112	2622
3793.75	2639
3795.388	2657
3797.024	2648
3798.661	2665
3800.3	2673
3801.936	2638
3803.572	2682
3805.208	2645
3806.844	2653
3808.48	2643
3810.115	2661
3811.748	2561
3813.382	2606
3815.016	2567
3816.649	2653
3818.283	2655
3819.914	2644
3821.547	2642
3823.178	2633
3824.809	2596
3826.441	2646
3828.072	2598
3829.701	2612
3831.331	2641
3832.96	2568
3834.591	2607
3836.219	2601
3837.847	2594
3839.475	2585
3841.102	2598
3842.729	2663
3844.357	2611
3845.984	2602
3847.609	2599
3849.234	2551
3850.86	2580
3852.485	2543
3854.11	2553
3855.734	2575
3857.357	2591
3858.981	2582
3860.603	2615
3862.227	2584
3863.848	2605
3865.471	2531
3867.092	2593
3868.713	2597
3870.334	2511
3871.954	2534
3873.575	2554
3875.194	2592
3876.813	2540
3878.433	2603
3880.051	2532
3881.669	2594
3883.286	2513
3884.904	2592
3886.52	2512
3888.138	2604
3889.754	2594
3891.37	2519
3892.985	2530
3894.6	2571
3896.216	2600
3897.831	2536
3899.444	2556
3901.058	2560
3902.67	2544
3904.283	2550
3905.897	2539
3907.509	2542
3909.121	2467
3910.731	2511
3912.342	2554
3913.954	2565
3915.563	2546
3917.174	2472
3918.783	2592
3920.391	2520
3922.002	2548
3923.611	2543
3925.218	2529
3926.826	2512
3928.432	2499
3930.039	2538
3931.647	2516
3933.253	2502
3934.859	2511
3936.464	2473
3938.068	2532
3939.675	2544
3941.278	2510
3942.883	2486
3944.486	2499
3946.089	2450
3947.692	2528
3949.295	2515
3950.898	2470
3952.499	2478
3954.1	2509
3955.7	2485
3957.303	2482
3958.903	2467
3960.502	2476
3962.101	2450
3963.7	2450
3965.301	2471
3966.899	2530
3968.497	2462
3970.094	2491
3971.691	2448
3973.288	2527
3974.885	2488
3976.481	2489
3978.077	2505
3979.672	2433
3981.267	2477
3982.863	2413
3984.457	2418
3986.051	2424
3987.645	2384
3989.238	2429
3990.831	2449
3992.425	2386
3994.017	2432
3995.607	2440
3997.199	2473
3998.79	2384
4000.382	2410
4001.973	2467
4003.561	2377
4005.151	2400
4006.741	2356
4008.331	2376
4009.918	2400
4011.507	2388
4013.095	2385
4014.681	2430
4016.269	2369
4017.856	2413
4019.443	2349
4021.028	2333
4022.614	2354
4024.199	2408
4025.785	2374
4027.37	2324
4028.953	2359
4030.536	2329
4032.12	2349
4033.704	2351
4035.287	2265
4036.869	2334
4038.45	2341
4040.032	2301
4041.613	2312
4043.195	2349
4044.776	2284
4046.356	2345
4047.935	2359
4049.515	2388
4051.095	2281
4052.674	2315
4054.251	2297
4055.829	2281
4057.406	2338
4058.985	2292
4060.562	2318
4062.139	2292
4063.715	2321
4065.29	2251
4066.865	2257
4068.442	2265
4070.016	2267
4071.59	2318
4073.164	2299
4074.738	2311
4076.312	2298
4077.885	2246
4079.458	2322
4081.03	2277
4082.602	2265
4084.173	2329
4085.745	2284
4087.315	2277
4088.886	2236
4090.456	2230
4092.026	2287
4093.596	2398
4095.165	2266
4096.734	2310
4098.301	2224
4099.869	2307
4101.437	2263
4103.006	2280
4104.572	2241
4106.139	2273
4107.704	2214
4109.27	2229
4110.837	2276
4112.401	2257
4113.966	2269
4115.53	2230
4117.094	2206
4118.659	2296
4120.223	2274
4121.785	2261
4123.347	2205
4124.909	2207
4126.471	2218
4128.034	2181
4129.595	2253
4131.155	2237
4132.716	2232
4134.275	2267
4135.836	2245
4137.395	2205
4138.955	2219
4140.513	2159
4142.071	2270
4143.628	2176
4145.188	2203
4146.745	2114
4148.302	2145
4149.858	2178
4151.414	2202
4152.971	2161
4154.526	2189
4156.081	2228
4157.635	2160
4159.189	2207
4160.745	2118
4162.298	2186
4163.852	2155
4165.405	2191
4166.957	2171
4168.51	2203
4170.063	2147
4171.614	2159
4173.166	2194
4174.717	2148
4176.267	2190
4177.817	2167
4179.368	2163
4180.917	2181
4182.466	2177
4184.016	2162
4185.564	2107
4187.112	2101
4188.66	2162
4190.207	2116
4191.754	2159
4193.301	2126
4194.848	2110
4196.394	2116
4197.94	2147
4199.484	2099
4201.03	2063
4202.575	2113
4204.12	2107
4205.663	2120
4207.207	2105
4208.75	2086
4210.292	2114
4211.836	2100
4213.378	2071
4214.92	2137
4216.46	2073
4218.002	2131
4219.544	2077
4221.083	2079
4222.625	2063
4224.164	2114
4225.703	2047
4227.244	2063
4228.782	2071
4230.32	2106
4231.857	2080
4233.395	2057
4234.933	2115
4236.471	2107
4238.007	2118
4239.542	2091
4241.078	2112
4242.614	2086
4244.15	2053
4245.685	2114
4247.219	2054
4248.753	2089
4250.287	2085
4251.82	2044
4253.354	2034
4254.887	2113
4256.419	2032
4257.951	2066
4259.483	2054
4261.016	2067
4262.547	2023
4264.078	2058
4265.608	2040
4267.137	2040
4268.668	2014
4270.197	2043
4271.727	2039
4273.254	2020
4274.783	2043
4276.311	2112
4277.84	2021
4279.366	2041
4280.894	2027
4282.42	2026
4283.946	2054
4285.473	2075
4286.998	1997
4288.523	2010
4290.047	2058
4291.572	2016
4293.096	2025
4294.622	2088
4296.144	2039
4297.668	2001
4299.19	2030
4300.713	2029
4302.236	2022
4303.758	1948
4305.279	2018
4306.799	2121
4308.321	2093
4309.842	1974
4311.361	2057
4312.882	2006
4314.401	1999
