400.0961	2569
402.6185	2498
405.1424	2530
407.6635	2573
410.1838	2514
412.7035	2573
415.2225	2615
417.7388	2615
420.2585	2581
422.7754	2708
425.2917	2641
427.8072	2665
430.3221	2688
432.8363	2662
435.3498	2736
437.8626	2750
440.3727	2688
442.8841	2716
445.3969	2696
447.907	2667
450.4142	2781
452.9229	2675
455.4289	2653
457.9362	2706
460.4449	2659
462.9488	2667
465.454	2631
467.9566	2687
470.4604	2637
472.9637	2629
475.4662	2703
477.966	2633
480.4671	2673
482.9656	2666
485.4633	2632
487.9645	2663
490.4608	2694
492.9566	2666
495.4536	2708
497.948	2701
500.4437	2712
502.9387	2682
505.431	2690
507.9226	2748
510.4136	2731
512.9079	2746
515.3975	2710
517.8864	2757
520.3746	2731
522.8622	2732
525.3491	2763
527.8394	2750
530.3249	2749
532.8098	2804
535.2939	2797
537.7774	2733
540.2623	2746
542.7444	2730
545.2259	2722
547.7067	2721
550.1868	2789
552.6683	2696
555.147	2850
557.6231	2761
560.1005	2787
562.5773	2768
565.0534	2760
567.5308	2834
570.0056	2776
572.4776	2799
574.951	2785
577.4237	2799
579.8978	3001
582.3671	2901
584.8378	2896
587.3079	2886
589.7773	2906
592.244	2843
594.714	2902
597.1793	2895
599.6461	2894
602.1121	2815
604.5754	2804
607.0421	2911
609.5042	2839
611.9675	2925
614.4282	2849
616.8902	2836
619.3515	2815
621.8122	2866
624.2702	2853
626.7296	2749
629.1863	2830
631.6423	2837
634.1017	2829
636.5563	2822
639.0104	2790
641.4658	2843
643.9185	2842
646.3725	2815
648.8239	2891
651.2766	2814
653.7266	2889
656.176	2878
658.6247	2783
661.0748	2905
663.5242	2845
665.9709	2882
668.417	2846
670.8624	2779
673.3092	2808
675.7533	2846
678.1968	2934
680.6395	2907
683.0817	2894
685.5251	2873
687.9659	2881
690.4061	2839
692.8456	3003
695.2844	2992
697.7226	2943
700.1621	2829
702.599	2977
705.0332	2967
707.4688	2886
709.9036	2911
712.3399	2936
714.7735	2937
717.2044	2877
719.6367	2910
722.0683	2932
724.4993	2971
726.9296	3000
729.3593	3010
731.7883	2955
734.2147	3011
736.6423	2996
739.0714	2972
741.4958	3017
743.9216	3030
746.3447	3059
748.7691	3170
751.1929	3086
753.616	3081
756.0366	3121
758.4584	3170
760.8776	3046
763.2982	3040
765.718	3071
768.1373	3123
770.5539	3094
772.9698	3130
775.3871	3072
777.8038	3085
780.2178	3166
782.6332	3122
785.0459	3036
787.458	3052
789.8714	3085
792.2842	3093
794.6943	3101
797.1038	3120
799.5127	3134
801.9209	3062
804.3324	3083
806.7393	3112
809.1456	3145
811.5513	3195
813.9562	3137
816.3625	3197
818.7663	3138
821.1693	3199
823.5718	3205
825.9735	3153
828.3746	3118
830.7771	3159
833.177	3143
835.5762	3207
837.9747	3231
840.3727	3209
842.772	3151
845.1666	3211
847.5626	3195
849.958	3263
852.3527	3281
854.7488	3310
857.1403	3276
859.5331	3262
861.9253	3221
864.3168	3302
866.7057	3223
869.098	3194
871.4876	3168
873.8746	3247
876.263	3288
878.6487	3234
881.0378	3221
883.4243	3239
885.8081	3159
888.1933	3281
890.5759	3207
892.9598	3210
895.343	3221
897.7256	3216
900.1057	3275
902.4871	3268
904.8659	3246
907.246	3256
909.6254	3244
912.0023	3351
914.3786	3355
916.7562	3440
919.1331	3439
921.5074	3466
923.8831	3463
926.2562	3457
928.6287	3492
931.0005	3499
933.3757	3387
935.7462	3541
938.1162	3484
940.4855	3535
942.8542	3528
945.2242	3585
947.5916	3662
949.9584	3750
952.3266	3831
954.6921	3975
957.0571	4261
959.4233	4334
961.787	4450
964.15	4438
966.5125	4209
968.8742	4106
971.2354	3888
973.5959	3677
975.9559	3625
978.3151	3460
980.6738	3432
983.0338	3382
985.3912	3374
987.7461	3372
990.1022	3430
992.4578	3361
994.8127	3350
997.1689	3406
999.5207	3429
1001.874	3358
1004.226	3390
1006.576	3312
1008.929	3392
1011.28	3380
1013.628	3362
1015.977	3412
1018.324	3353
1020.674	3328
1023.019	3372
1025.366	3400
1027.713	3482
1030.056	3495
1032.399	3411
1034.746	3451
1037.087	3487
1039.431	3429
1041.771	3471
1044.113	3429
1046.454	3498
1048.793	3508
1051.133	3469
1053.471	3427
1055.807	3523
1058.146	3525
1060.483	3506
1062.818	3503
1065.153	3560
1067.489	3546
1069.822	3551
1072.156	3580
1074.488	3463
1076.82	3503
1079.15	3500
1081.48	3516
1083.814	3530
1086.143	3503
1088.471	3424
1090.799	3451
1093.126	3547
1095.452	3578
1097.78	3461
1100.105	3471
1102.43	3465
1104.754	3443
1107.077	3436
1109.4	3517
1111.722	3517
1114.044	3545
1116.365	3467
1118.685	3480
1121.005	3407
1123.324	3512
1125.643	3528
1127.961	3494
1130.278	3545
1132.595	3461
1134.911	3463
1137.226	3477
1139.541	3471
1141.854	3474
1144.167	3491
1146.482	3441
1148.793	3422
1151.105	3488
1153.414	3503
1155.725	3531
1158.033	3510
1160.344	3564
1162.651	3579
1164.959	3470
1167.265	3547
1169.572	3480
1171.878	3558
1174.184	3525
1176.488	3493
1178.79	3539
1181.094	3516
1183.396	3530
1185.699	3488
1188.001	3496
1190.301	3572
1192.6	3583
1194.9	3590
1197.2	3622
1199.497	3566
1201.794	3539
1204.09	3502
1206.387	3534
1208.684	3561
1210.978	3540
1213.272	3624
1215.565	3546
1217.858	3580
1220.15	3618
1222.443	3589
1224.734	3592
1227.024	3588
1229.313	3687
1231.602	3703
1233.892	3613
1236.18	3675
1238.467	3775
1240.754	3690
1243.04	3757
1245.325	3723
1247.612	3813
1249.896	3695
1252.178	3784
1254.461	3818
1256.743	3895
1259.027	3698
1261.308	3738
1263.587	3854
1265.867	3739
1268.146	3752
1270.425	3814
1272.703	3814
1274.981	3849
1277.256	3779
1279.532	3687
1281.808	3785
1284.083	3789
1286.358	3765
1288.63	3687
1290.904	3682
1293.175	3672
1295.449	3712
1297.719	3767
1299.99	3834
1302.259	3760
1304.529	3703
1306.798	3755
1309.065	3679
1311.333	3677
1313.599	3692
1315.866	3737
1318.131	3663
1320.396	3733
1322.66	3755
1324.925	3805
1327.187	3660
1329.448	3826
1331.711	3764
1333.974	3724
1336.234	3695
1338.493	3734
1340.752	3849
1343.01	3710
1345.269	3823
1347.526	3779
1349.784	3749
1352.04	3711
1354.295	3767
1356.552	3759
1358.806	3707
1361.059	3755
1363.312	3685
1365.564	3713
1367.818	3741
1370.069	3767
1372.318	3704
1374.568	3805
1376.817	3769
1379.066	3816
1381.316	3756
1383.564	3827
1385.809	3866
1388.056	3828
1390.301	3872
1392.549	3909
1394.793	3930
1397.036	3916
1399.279	3944
1401.522	3862
1403.763	3950
1406.007	3955
1408.248	3917
1410.487	3883
1412.727	3832
1414.965	3862
1417.205	3827
1419.442	3882
1421.68	3956
1423.915	3948
1426.152	3912
1428.388	3881
1430.623	3955
1432.857	3895
1435.091	3861
1437.323	4014
1439.556	4010
1441.789	4003
1444.019	3992
1446.25	4009
1448.48	3981
1450.708	4015
1452.938	4006
1455.167	4051
1457.394	4048
1459.62	4038
1461.846	4018
1464.073	4017
1466.299	3964
1468.523	3944
1470.746	3990
1472.969	4033
1475.191	3941
1477.415	4048
1479.636	3982
1481.858	3845
1484.078	3901
1486.298	4000
1488.518	3830
1490.736	3817
1492.954	3765
1495.169	3808
1497.386	3790
1499.602	3803
1501.819	3861
1504.034	3740
1506.248	3865
1508.462	3828
1510.675	3804
1512.888	3859
1515.1	3767
1517.311	3755
1519.522	3805
1521.732	3747
1523.942	3820
1526.151	3782
1528.36	3792
1530.566	3786
1532.773	3854
1534.98	3882
1537.187	3854
1539.392	3810
1541.596	3801
1543.801	3769
1546.005	3850
1548.208	3811
1550.411	3880
1552.612	3794
1554.814	3830
1557.013	3831
1559.212	3881
1561.414	3825
1563.612	3861
1565.811	3876
1568.007	3975
1570.203	3835
1572.403	3889
1574.598	3947
1576.792	3939
1578.988	3860
1581.181	3901
1583.376	3909
1585.568	3867
1587.761	3926
1589.952	3919
1592.143	3937
1594.333	3852
1596.524	3919
1598.715	3943
1600.903	3906
1603.091	3940
1605.278	3911
1607.466	3970
1609.652	3996
1611.838	3924
1614.023	3978
1616.207	3948
1618.391	4018
1620.576	4056
1622.759	3962
1624.941	3982
1627.123	3910
1629.304	3973
1631.484	4038
1633.664	4030
1635.844	3992
1638.022	4009
1640.201	4014
1642.38	4032
1644.556	4081
1646.732	4058
1648.908	3967
1651.084	3998
1653.257	4079
1655.433	4081
1657.607	4047
1659.779	4111
1661.951	4062
1664.122	4042
1666.295	4086
1668.467	4051
1670.635	4020
1672.805	4046
1674.973	4080
1677.142	4068
1679.31	4030
1681.478	4059
1683.644	4024
1685.81	4111
1687.975	3925
1690.142	4079
1692.305	3938
1694.468	4009
1696.632	4024
1698.794	4048
1700.957	3931
1703.119	3975
1705.279	3964
1707.439	3929
1709.598	3916
1711.758	3928
1713.917	3977
1716.075	3888
1718.231	4012
1720.388	3858
1722.543	3895
1724.702	3880
1726.856	3888
1729.01	3821
1731.164	3882
1733.317	3860
1735.471	3967
1737.623	3905
1739.774	3923
1741.925	3947
1744.075	3909
1746.225	3949
1748.376	3890
1750.524	3886
1752.672	3894
1754.82	3894
1756.965	3982
1759.113	3909
1761.259	3926
1763.405	3890
1765.549	4074
1767.694	3856
1769.836	3906
1771.981	3913
1774.123	3893
1776.264	3949
1778.405	3974
1780.546	3912
1782.687	3900
1784.827	3920
1786.966	3938
1789.103	3962
1791.242	3965
1793.381	3923
1795.517	3984
1797.653	3906
1799.788	3921
1801.923	3991
1804.057	3859
1806.193	4015
1808.326	3965
1810.457	3898
1812.59	3973
1814.721	3980
1816.855	3857
1818.984	3977
1821.113	3939
1823.244	3902
1825.372	4015
1827.499	3983
1829.63	3920
1831.756	3919
1833.882	3895
1836.007	4001
1838.132	3884
1840.26	3962
1842.384	3809
1844.507	3895
1846.63	3925
1848.752	3923
1850.875	3904
1852.996	4011
1855.118	3923
1857.238	3965
1859.358	3918
1861.477	3861
1863.597	3949
1865.715	3865
1867.832	3965
1869.948	3952
1872.064	3936
1874.181	3954
1876.297	3954
1878.411	3940
1880.526	3934
1882.639	3939
1884.752	3864
1886.865	3992
1888.977	3901
1891.089	3905
1893.2	4012
1895.308	3958
1897.42	3908
1899.53	3987
1901.639	4057
1903.745	3969
1905.853	3985
1907.962	3980
1910.067	4014
1912.174	3988
1914.278	4010
1916.383	3960
1918.486	4021
1920.592	3936
1922.694	4008
1924.797	4023
1926.898	4064
1929	3881
1931.102	3933
1933.203	3993
1935.301	4085
1937.401	4032
1939.499	4087
1941.598	4069
1943.697	4026
1945.793	3956
1947.888	3933
1949.985	4028
1952.08	4060
1954.176	3971
1956.269	3963
1958.364	3922
1960.457	3996
1962.549	4062
1964.642	3954
1966.733	4071
1968.823	3953
1970.913	4028
1973.005	4030
1975.093	4011
1977.184	4022
1979.271	4032
1981.359	4033
1983.446	4044
1985.532	3952
1987.619	4063
1989.705	3919
1991.789	4079
1993.874	4032
1995.956	3949
1998.041	4012
2000.123	3935
2002.206	4016
2004.287	3989
2006.368	3998
2008.449	3977
2010.529	3924
2012.609	4002
2014.688	4018
2016.766	3976
2018.843	3979
2020.922	3945
2022.999	3939
2025.074	3881
2027.15	3976
2029.225	3871
2031.299	4004
2033.375	3986
2035.447	3941
2037.52	4051
2039.592	4016
2041.664	3923
2043.736	3995
2045.807	4007
2047.876	4051
2049.947	3928
2052.015	4048
2054.086	3993
2056.153	4027
2058.221	3957
2060.288	3987
2062.353	4049
2064.42	3988
2066.486	3957
2068.55	3964
2070.614	3959
2072.678	4106
2074.741	4028
2076.805	3977
2078.866	3953
2080.929	3908
2082.99	4061
2085.049	4008
2087.109	3969
2089.17	3950
2091.228	3998
2093.286	3949
2095.344	4097
2097.4	4012
2099.46	3939
2101.516	4015
2103.572	4113
2105.626	4009
2107.679	4013
2109.735	3952
2111.788	4055
2113.841	4090
2115.894	3989
2117.945	4089
2119.997	4087
2122.049	3893
2124.1	4076
2126.148	3996
2128.197	3970
2130.246	4066
2132.296	3949
2134.342	4007
2136.39	4064
2138.437	4012
2140.483	4003
2142.527	3926
2144.574	4027
2146.619	3978
2148.661	3968
2150.705	3923
2152.747	4057
2154.792	4015
2156.832	4031
2158.874	4007
2160.915	3992
2162.954	4079
2164.995	3977
2167.034	3984
2169.072	4061
2171.111	3994
2173.148	4015
2175.186	3979
2177.223	4003
2179.258	3916
2181.294	3958
2183.328	4022
2185.362	3985
2187.398	3921
2189.431	4008
2191.463	3895
2193.495	3944
2195.528	3971
2197.56	3985
2199.59	3951
2201.62	3926
2203.649	3921
2205.678	3938
2207.708	3907
2209.737	4060
2211.764	3900
2213.791	3994
2215.817	3962
2217.843	3960
2219.87	3889
2221.895	3977
2223.919	3988
2225.942	3887
2227.966	3944
2229.988	3872
2232.012	3929
2234.032	3902
2236.054	3959
2238.074	3904
2240.095	3937
2242.116	3956
2244.135	3978
2246.153	3919
2248.171	3882
2250.188	3964
2252.208	3876
2254.223	4048
2256.239	3941
2258.255	3886
2260.269	3936
2262.283	3950
2264.3	3871
2266.312	3942
2268.325	3964
2270.336	3989
2272.349	3948
2274.362	3958
2276.372	3975
2278.383	3907
2280.392	3938
2282.402	3923
2284.409	3911
2286.418	3933
2288.427	3936
2290.433	4007
2292.441	3870
2294.446	3934
2296.453	3977
2298.459	3956
2300.463	3933
2302.466	3886
2304.471	3883
2306.475	3949
2308.477	3973
2310.478	3935
2312.481	4007
2314.481	3879
2316.481	4021
2318.482	3955
2320.482	3975
2322.48	3838
2324.48	3932
2326.478	4023
2328.476	3975
2330.473	3945
2332.469	3887
2334.465	3861
2336.46	3880
2338.454	3827
2340.45	3899
2342.444	3898
2344.437	3917
2346.43	3949
2348.421	3922
2350.414	3954
2352.405	3890
2354.396	3970
2356.386	3908
2358.376	3915
2360.366	3888
2362.355	3911
2364.343	3830
2366.331	3896
2368.317	3864
2370.304	3847
2372.292	3930
2374.278	3885
2376.262	3859
2378.247	3980
2380.23	3829
2382.216	3937
2384.199	3922
2386.181	3867
2388.163	3777
2390.144	3861
2392.127	3845
2394.107	3840
2396.087	3863
2398.066	3743
2400.046	3806
2402.023	3912
2404.004	3841
2405.981	3861
2407.957	3838
2409.934	3805
2411.91	3771
2413.886	3878
2415.862	3776
2417.836	3829
2419.809	3857
2421.784	3890
2423.756	3782
2425.73	3879
2427.701	3804
2429.672	3855
2431.644	3845
2433.615	3860
2435.586	3881
2437.555	3873
2439.523	3962
2441.491	3880
2443.459	3898
2445.428	3840
2447.395	3868
2449.361	3888
2451.327	3891
2453.292	3864
2455.257	3879
2457.223	3907
2459.187	3875
2461.15	3874
2463.113	3887
2465.076	3909
2467.039	3843
2468.999	3877
2470.96	3803
2472.921	3832
2474.881	3889
2476.841	3808
2478.8	3845
2480.759	3870
2482.717	3790
2484.675	3802
2486.63	3909
2488.589	3829
2490.545	3851
2492.5	3792
2494.455	3858
2496.408	3848
2498.364	3728
2500.318	3890
2502.27	3811
2504.223	3845
2506.174	3847
2508.126	3847
2510.078	3789
2512.03	3794
2513.979	3807
2515.927	3856
2517.877	3742
2519.826	3750
2521.775	3919
2523.722	3822
2525.668	3824
2527.616	3846
2529.561	3861
2531.508	3802
2533.452	3833
2535.398	3816
2537.342	3848
2539.284	3737
2541.229	3886
2543.173	3741
2545.114	3790
2547.055	3743
2548.996	3760
2550.938	3916
2552.878	3834
2554.817	3901
2556.756	3852
2558.695	3801
2560.633	3833
2562.572	3766
2564.509	3863
2566.445	3876
2568.382	3928
2570.317	3861
2572.254	3768
2574.189	3885
2576.123	3818
2578.057	3860
2579.99	3809
2581.923	3842
2583.855	3812
2585.788	3844
2587.719	3790
2589.65	3947
2591.579	3887
2593.511	3930
2595.44	3881
2597.37	3828
2599.297	3934
2601.225	3875
2603.153	3796
2605.08	3829
2607.007	3901
2608.932	3886
2610.858	3862
2612.782	3865
2614.709	3894
2616.632	3837
2618.556	3847
2620.478	3952
2622.401	3853
2624.324	3804
2626.247	3905
2628.167	3853
2630.088	3892
2632.008	3952
2633.928	3903
2635.848	3904
2637.766	3854
2639.684	3926
2641.603	3928
2643.519	3832
2645.437	3858
2647.353	3849
2649.27	3927
2651.184	3914
2653.099	3938
2655.014	3838
2656.928	3966
2658.842	3932
2660.755	3833
2662.667	3885
2664.579	3836
2666.491	3854
2668.402	3992
2670.312	3858
2672.222	3778
2674.132	3929
2676.042	3829
2677.951	3925
2679.859	3896
2681.766	3873
2683.674	3823
2685.582	3787
2687.488	3810
2689.392	3892
2691.298	3784
2693.202	3759
2695.107	3854
2697.012	3838
2698.914	3920
2700.817	3835
2702.72	3868
2704.622	3945
2706.524	3890
2708.425	3850
2710.326	3823
2712.225	3883
2714.125	3781
2716.024	3951
2717.923	3908
2719.822	3860
2721.719	3853
2723.616	3907
2725.512	3953
2727.41	3877
2729.305	3864
2731.201	3951
2733.095	3867
2734.99	3950
2736.884	3804
2738.778	3912
2740.67	3785
2742.562	3895
2744.455	3930
2746.346	3886
2748.238	3897
2750.129	3882
2752.018	3842
2753.907	3823
2755.797	3821
2757.687	3776
2759.575	3898
2761.462	3893
2763.349	3898
2765.237	3809
2767.124	3801
2769.009	3890
2770.894	3901
2772.779	3814
2774.663	3811
2776.547	3885
2778.431	3852
2780.314	3895
2782.197	3895
2784.078	3860
2785.96	3832
2787.842	3917
2789.723	3887
2791.603	3864
2793.483	3884
2795.362	3814
2797.241	3788
2799.121	3860
2800.997	3842
2802.874	3841
2804.751	3859
2806.628	3856
2808.506	3834
2810.38	3732
2812.255	3787
2814.13	3807
2816.003	3827
2817.878	3825
2819.752	3890
2821.623	3865
2823.496	3881
2825.368	3860
2827.238	3803
2829.111	3840
2830.98	3793
2832.851	3915
2834.719	3886
2836.589	3857
2838.458	3845
2840.327	3824
2842.193	3844
2844.061	3901
2845.927	3859
2847.794	3861
2849.66	3945
2851.525	3885
2853.39	4028
2855.254	3978
2857.117	3949
2858.983	3951
2860.845	4037
2862.707	3962
2864.569	4120
2866.431	4078
2868.293	4040
2870.154	4076
2872.013	4092
2873.873	4168
2875.733	4225
2877.592	4141
2879.451	4210
2881.309	4328
2883.166	4315
2885.022	4356
2886.879	4395
2888.736	4364
2890.591	4379
2892.446	4335
2894.301	4407
2896.155	4430
2898.009	4483
2899.863	4381
2901.716	4366
2903.568	4339
2905.419	4376
2907.27	4333
2909.123	4378
2910.973	4365
2912.824	4486
2914.673	4519
2916.521	4475
2918.372	4559
2920.22	4477
2922.067	4540
2923.914	4536
2925.761	4733
2927.607	4702
2929.455	4692
2931.301	4714
2933.144	4836
2934.99	4797
2936.833	4880
2938.678	4832
2940.522	4916
2942.364	4995
2944.207	5002
2946.048	5071
2947.891	5057
2949.731	5123
2951.571	5074
2953.412	5047
2955.25	5054
2957.09	4961
2958.93	4897
2960.767	4992
2962.606	4866
2964.443	4765
2966.279	4798
2968.116	4635
2969.953	4700
2971.788	4712
2973.623	4620
2975.457	4575
2977.292	4490
2979.127	4540
2980.959	4535
2982.792	4510
2984.624	4509
2986.455	4425
2988.288	4412
2990.119	4374
2991.949	4411
2993.779	4345
2995.608	4375
2997.439	4281
2999.268	4200
3001.096	4207
3002.923	4163
3004.751	4045
3006.578	4105
3008.406	4088
3010.232	4032
3012.057	4038
3013.883	3915
3015.706	3986
3017.532	3959
3019.356	3952
3021.179	3910
3023.002	3863
3024.823	3941
3026.646	3833
3028.469	3865
3030.289	3772
3032.11	3747
3033.93	3806
3035.749	3791
3037.57	3803
3039.39	3805
3041.207	3858
3043.026	3669
3044.842	3781
3046.661	3785
3048.477	3799
3050.294	3874
3052.109	3855
3053.925	3739
3055.739	3702
3057.555	3894
3059.368	3795
3061.181	3743
3062.995	3762
3064.807	3807
3066.62	3772
3068.433	3824
3070.243	3838
3072.054	3702
3073.865	3765
3075.675	3837
3077.485	3772
3079.293	3825
3081.102	3678
3082.911	3674
3084.719	3717
3086.527	3681
3088.333	3679
3090.139	3735
3091.945	3595
3093.75	3717
3095.557	3670
3097.361	3693
3099.165	3731
3100.969	3650
3102.772	3575
3104.575	3653
3106.379	3691
3108.181	3701
3109.982	3628
3111.783	3667
3113.584	3690
3115.386	3620
3117.186	3656
3118.985	3644
3120.783	3625
3122.582	3599
3124.381	3582
3126.179	3603
3127.975	3674
3129.772	3686
3131.569	3599
3133.365	3516
3135.161	3621
3136.956	3590
3138.751	3594
3140.544	3566
3142.338	3586
3144.132	3583
3145.925	3608
3147.717	3635
3149.509	3569
3151.301	3649
3153.091	3589
3154.884	3533
3156.673	3506
3158.462	3607
3160.252	3603
3162.041	3571
3163.831	3603
3165.618	3555
3167.405	3607
3169.193	3554
3170.979	3580
3172.767	3515
3174.553	3564
3176.338	3532
3178.123	3603
3179.907	3606
3181.692	3609
3183.477	3474
3185.259	3591
3187.042	3583
3188.824	3615
3190.607	3586
3192.389	3553
3194.17	3535
3195.951	3656
3197.73	3515
3199.51	3550
3201.289	3611
3203.07	3531
3204.848	3597
3206.626	3583
3208.403	3570
3210.18	3597
3211.959	3624
3213.735	3657
3215.511	3518
3217.285	3572
3219.06	3524
3220.836	3534
3222.611	3603
3224.384	3549
3226.158	3650
3227.929	3558
3229.702	3594
3231.476	3567
3233.248	3599
3235.018	3648
3236.789	3640
3238.56	3582
3240.33	3524
3242.1	3554
3243.869	3479
3245.637	3581
3247.405	3524
3249.172	3687
3250.941	3561
3252.707	3636
3254.474	3596
3256.24	3609
3258.006	3528
3259.772	3590
3261.537	3599
3263.301	3594
3265.065	3537
3266.828	3545
3268.592	3480
3270.355	3617
3272.117	3564
3273.878	3565
3275.64	3495
3277.401	3598
3279.162	3699
3280.922	3566
3282.682	3527
3284.441	3602
3286.199	3655
3287.959	3651
3289.716	3496
3291.475	3565
3293.232	3568
3294.988	3694
3296.744	3578
3298.501	3551
3300.256	3600
3302.011	3603
3303.766	3593
3305.52	3640
3307.275	3616
3309.028	3618
3310.781	3592
3312.533	3631
3314.285	3601
3316.038	3586
3317.789	3642
3319.54	3580
3321.289	3566
3323.039	3634
3324.789	3615
3326.539	3597
3328.288	3587
3330.035	3650
3331.783	3529
3333.531	3588
3335.28	3533
3337.025	3566
3338.771	3573
3340.518	3679
3342.262	3551
3344.009	3600
3345.753	3602
3347.497	3587
3349.24	3574
3350.983	3492
3352.726	3622
3354.469	3583
3356.212	3533
3357.952	3541
3359.694	3616
3361.434	3527
3363.176	3465
3364.916	3527
3366.654	3474
3368.394	3498
3370.132	3523
3371.871	3563
3373.61	3547
3375.346	3436
3377.083	3624
3378.82	3536
3380.556	3417
3382.292	3495
3384.027	3498
3385.763	3508
3387.497	3518
3389.231	3501
3390.965	3546
3392.698	3569
3394.431	3503
3396.164	3442
3397.896	3484
3399.627	3490
3401.36	3487
3403.09	3403
3404.82	3457
3406.55	3428
3408.279	3468
3410.01	3446
3411.738	3489
3413.467	3431
3415.194	3481
3416.92	3421
3418.647	3502
3420.375	3431
3422.102	3515
3423.827	3482
3425.553	3453
3427.277	3367
3429.003	3438
3430.727	3363
3432.451	3402
3434.173	3389
3435.896	3376
3437.62	3396
3439.343	3440
3441.063	3406
3442.785	3404
3444.505	3332
3446.226	3353
3447.948	3389
3449.666	3317
3451.386	3417
3453.104	3459
3454.823	3348
3456.541	3375
3458.259	3400
3459.976	3323
3461.693	3415
3463.408	3352
3465.125	3358
3466.841	3313
3468.556	3369
3470.271	3349
3471.985	3384
3473.698	3340
3475.414	3280
3477.126	3336
3478.838	3278
3480.55	3312
3482.263	3280
3483.975	3270
3485.686	3350
3487.396	3318
3489.106	3266
3490.817	3257
3492.526	3381
3494.236	3345
3495.944	3284
3497.652	3276
3499.359	3304
3501.066	3221
3502.775	3308
3504.481	3252
3506.187	3306
3507.893	3259
3509.598	3240
3511.304	3231
3513.009	3209
3514.713	3214
3516.417	3266
3518.12	3308
3519.821	3266
3521.525	3189
3523.228	3256
3524.929	3188
3526.631	3179
3528.33	3255
3530.032	3227
3531.733	3245
3533.433	3300
3535.131	3172
3536.83	3133
3538.529	3141
3540.227	3160
3541.925	3197
3543.623	3197
3545.319	3233
3547.016	3193
3548.712	3225
3550.408	3178
3552.103	3164
3553.798	3237
3555.491	3142
3557.188	3116
3558.88	3270
3560.574	3139
3562.266	3174
3563.959	3155
3565.651	3158
3567.343	3125
3569.035	3188
3570.725	3092
3572.415	3139
3574.106	3173
3575.797	3158
3577.485	3153
3579.174	3149
3580.863	3096
3582.551	3160
3584.238	3124
3585.926	3157
3587.613	3179
3589.3	3146
3590.986	3112
3592.671	3157
3594.357	3155
3596.042	3048
3597.726	3104
3599.41	3096
3601.094	3051
3602.778	3096
3604.461	3012
3606.143	3071
3607.825	3108
3609.507	3018
3611.188	2967
3612.87	3043
3614.551	3091
3616.229	3097
3617.909	2978
3619.589	3022
3621.269	3011
3622.948	2966
3624.625	2969
3626.302	3040
3627.98	2965
3629.657	3104
3631.334	3094
3633.01	2942
3634.686	3009
3636.361	2961
3638.036	3013
3639.712	3028
3641.385	2998
3643.06	2917
3644.732	2981
3646.405	3031
3648.08	2969
3649.751	2992
3651.424	3013
3653.094	2950
3654.766	2991
3656.436	2932
3658.106	2945
3659.777	2929
3661.446	2962
3663.115	3031
3664.783	2964
3666.452	2943
3668.121	2963
3669.788	2938
3671.454	3021
3673.121	2924
3674.789	2928
3676.455	2999
3678.12	2875
3679.784	2981
3681.45	2929
3683.114	2973
3684.779	2889
3686.442	2967
3688.105	2886
3689.768	2962
3691.43	2943
3693.093	2915
3694.754	2919
3696.415	2907
3698.076	2926
3699.736	2971
3701.396	2936
3703.057	2948
3704.716	2926
3706.375	2951
3708.034	2937
3709.692	2892
3711.351	2890
3713.008	2922
3714.665	2953
3716.321	2903
3717.977	2906
3719.634	2951
3721.29	2865
3722.945	2909
3724.598	2865
3726.253	2941
3727.907	2854
3729.561	2953
3731.214	2917
3732.867	2938
3734.518	2892
3736.171	2934
3737.824	2876
3739.474	2881
3741.125	2886
3742.775	2772
3744.425	2841
3746.074	2855
3747.725	2811
3749.373	2841
3751.022	2968
3752.669	2865
3754.318	2877
3755.966	2817
3757.612	2889
3759.259	2871
3760.905	2822
3762.55	2870
3764.197	2894
3765.842	2848
3767.486	2904
3769.131	2834
3770.774	2820
3772.417	2851
3774.061	2784
3775.705	2805
3777.347	2853
3778.988	2865
3780.629	2920
3782.271	2784
3783.912	2793
3785.552	2857
3787.192	2902
3788.831	2851
3790.472	2753
3792.112	2828
3793.75	2861
3795.388	2763
3797.024	2858
3798.661	2816
3800.3	2822
3801.936	2768
3803.572	2846
3805.208	2785
3806.844	2772
3808.48	2817
3810.115	2707
3811.748	2833
3813.382	2813
3815.016	2736
3816.649	2760
3818.283	2790
3819.914	2785
3821.547	2739
3823.178	2748
3824.809	2770
3826.441	2798
3828.072	2689
3829.701	2830
3831.331	2762
3832.96	2812
3834.591	2713
3836.219	2733
3837.847	2711
3839.475	2771
3841.102	2815
3842.729	2757
3844.357	2712
3845.984	2718
3847.609	2739
3849.234	2717
3850.86	2740
3852.485	2757
3854.11	2702
3855.734	2699
3857.357	2732
3858.981	2817
3860.603	2757
3862.227	2744
3863.848	2715
3865.471	2675
3867.092	2787
3868.713	2752
3870.334	2682
3871.954	2789
3873.575	2650
3875.194	2762
3876.813	2773
3878.433	2694
3880.051	2771
3881.669	2810
3883.286	2784
3884.904	2757
3886.52	2661
3888.138	2669
3889.754	2745
3891.37	2727
3892.985	2695
3894.6	2735
3896.216	2718
3897.831	2737
3899.444	2727
3901.058	2703
3902.67	2726
3904.283	2693
3905.897	2652
3907.509	2750
3909.121	2712
3910.731	2719
3912.342	2694
3913.954	2703
3915.563	2673
3917.174	2719
3918.783	2673
3920.391	2723
3922.002	2617
3923.611	2711
3925.218	2625
3926.826	2736
3928.432	2642
3930.039	2717
3931.647	2701
3933.253	2723
3934.859	2718
3936.464	2728
3938.068	2691
3939.675	2673
3941.278	2662
3942.883	2721
3944.486	2671
3946.089	2605
3947.692	2633
3949.295	2664
3950.898	2700
3952.499	2646
3954.1	2711
3955.7	2671
3957.303	2659
3958.903	2659
3960.502	2731
3962.101	2678
3963.7	2629
3965.301	2659
3966.899	2693
3968.497	2534
3970.094	2664
3971.691	2649
3973.288	2616
3974.885	2640
3976.481	2623
3978.077	2622
3979.672	2672
3981.267	2667
3982.863	2555
3984.457	2673
3986.051	2531
3987.645	2578
3989.238	2672
3990.831	2574
3992.425	2644
3994.017	2566
3995.607	2593
3997.199	2559
3998.79	2604
4000.382	2620
4001.973	2705
4003.561	2624
4005.151	2638
4006.741	2574
4008.331	2544
4009.918	2561
4011.507	2507
4013.095	2645
4014.681	2553
4016.269	2639
4017.856	2592
4019.443	2570
4021.028	2591
4022.614	2511
4024.199	2562
4025.785	2555
4027.37	2587
4028.953	2567
4030.536	2497
4032.12	2579
4033.704	2574
4035.287	2542
4036.869	2534
4038.45	2530
4040.032	2533
4041.613	2507
4043.195	2548
4044.776	2547
4046.356	2641
4047.935	2556
4049.515	2531
4051.095	2505
4052.674	2487
4054.251	2575
4055.829	2480
4057.406	2509
4058.985	2567
4060.562	2533
4062.139	2514
4063.715	2506
4065.29	2468
4066.865	2488
4068.442	2535
4070.016	2538
4071.59	2590
4073.164	2470
4074.738	2502
4076.312	2469
4077.885	2511
4079.458	2561
4081.03	2448
4082.602	2521
4084.173	2480
4085.745	2468
4087.315	2478
4088.886	2451
4090.456	2433
4092.026	2494
4093.596	2395
4095.165	2489
4096.734	2476
4098.301	2488
4099.869	2453
4101.437	2520
4103.006	2454
4104.572	2499
4106.139	2438
4107.704	2501
4109.27	2457
4110.837	2533
4112.401	2476
4113.966	2431
4115.53	2462
4117.094	2520
4118.659	2531
4120.223	2457
4121.785	2375
4123.347	2472
4124.909	2422
4126.471	2490
4128.034	2440
4129.595	2472
4131.155	2452
4132.716	2459
4134.275	2380
4135.836	2434
4137.395	2428
4138.955	2430
4140.513	2447
4142.071	2428
4143.628	2413
4145.188	2402
4146.745	2449
4148.302	2433
4149.858	2397
4151.414	2456
4152.971	2444
4154.526	2400
4156.081	2411
4157.635	2342
4159.189	2371
4160.745	2401
4162.298	2400
4163.852	2362
4165.405	2377
4166.957	2363
4168.51	2336
4170.063	2390
4171.614	2371
4173.166	2368
4174.717	2364
4176.267	2403
4177.817	2395
4179.368	2412
4180.917	2332
4182.466	2400
4184.016	2367
4185.564	2342
4187.112	2386
4188.66	2372
4190.207	2387
4191.754	2347
4193.301	2381
4194.848	2368
4196.394	2393
4197.94	2384
4199.484	2330
4201.03	2369
4202.575	2366
4204.12	2336
4205.663	2336
4207.207	2329
4208.75	2340
4210.292	2384
4211.836	2391
4213.378	2309
4214.92	2384
4216.46	2367
4218.002	2309
4219.544	2291
4221.083	2352
4222.625	2363
4224.164	2344
4225.703	2280
4227.244	2372
4228.782	2301
4230.32	2376
4231.857	2327
4233.395	2310
4234.933	2330
4236.471	2329
4238.007	2377
4239.542	2344
4241.078	2397
4242.614	2338
4244.15	2351
4245.685	2354
4247.219	2325
4248.753	2300
4250.287	2367
4251.82	2334
4253.354	2364
4254.887	2261
4256.419	2318
4257.951	2345
4259.483	2286
4261.016	2253
4262.547	2325
4264.078	2310
4265.608	2295
4267.137	2296
4268.668	2270
4270.197	2273
4271.727	2304
4273.254	2315
4274.783	2320
4276.311	2290
4277.84	2299
4279.366	2284
4280.894	2253
4282.42	2330
4283.946	2270
4285.473	2275
4286.998	2285
4288.523	2266
4290.047	2236
4291.572	2265
4293.096	2282
4294.622	2308
4296.144	2213
4297.668	2269
4299.19	2289
4300.713	2297
4302.236	2195
4303.758	2250
4305.279	2201
4306.799	2234
4308.321	2230
4309.842	2176
4311.361	2211
4312.882	2266
4314.401	2258
