400.0961	4362
402.6185	4261
405.1424	4341
407.6635	4372
410.1838	4345
412.7035	4351
415.2225	4406
417.7388	4415
420.2585	4500
422.7754	4516
425.2917	4454
427.8072	4718
430.3221	4659
432.8363	4678
435.3498	4651
437.8626	4662
440.3727	4660
442.8841	4782
445.3969	4630
447.907	4671
450.4142	4673
452.9229	4641
455.4289	4668
457.9362	4568
460.4449	4740
462.9488	4656
465.454	4655
467.9566	4545
470.4604	4564
472.9637	4584
475.4662	4547
477.966	4609
480.4671	4603
482.9656	4683
485.4633	4707
487.9645	4589
490.4608	4620
492.9566	4651
495.4536	4652
497.948	4723
500.4437	4690
502.9387	4714
505.431	4576
507.9226	4632
510.4136	4690
512.9079	4695
515.3975	4677
517.8864	4716
520.3746	4661
522.8622	4763
525.3491	4657
527.8394	4796
530.3249	4690
532.8098	4759
535.2939	4838
537.7774	4720
540.2623	4825
542.7444	4782
545.2259	4671
547.7067	4704
550.1868	4748
552.6683	4840
555.147	4809
557.6231	4789
560.1005	4860
562.5773	4780
565.0534	4760
567.5308	4865
570.0056	5027
572.4776	4908
574.951	4818
577.4237	4999
579.8978	4908
582.3671	4988
584.8378	5049
587.3079	4962
589.7773	4988
592.244	5000
594.714	4992
597.1793	5072
599.6461	4947
602.1121	4963
604.5754	4944
607.0421	5032
609.5042	4922
611.9675	4894
614.4282	4951
616.8902	4932
619.3515	5067
621.8122	4844
624.2702	4905
626.7296	4921
629.1863	4887
631.6423	4835
634.1017	4844
636.5563	4944
639.0104	4895
641.4658	4935
643.9185	4900
646.3725	4942
648.8239	4959
651.2766	4942
653.7266	4961
656.176	4958
658.6247	4974
661.0748	5055
663.5242	4868
665.9709	4944
668.417	4979
670.8624	5038
673.3092	4814
675.7533	5050
678.1968	4967
680.6395	5106
683.0817	5054
685.5251	5071
687.9659	5024
690.4061	4985
692.8456	5083
695.2844	5100
697.7226	5112
700.1621	5025
702.599	5062
705.0332	5102
707.4688	5035
709.9036	5153
712.3399	5193
714.7735	5125
717.2044	5113
719.6367	5261
722.0683	5174
724.4993	5167
726.9296	5268
729.3593	5193
731.7883	5289
734.2147	5186
736.6423	5252
739.0714	5375
741.4958	5282
743.9216	5197
746.3447	5323
748.7691	5305
751.1929	5438
753.616	5398
756.0366	5318
758.4584	5353
760.8776	5512
763.2982	5419
765.718	5377
768.1373	5506
770.5539	5412
772.9698	5417
775.3871	5364
777.8038	5422
780.2178	5451
782.6332	5453
785.0459	5414
787.458	5480
789.8714	5391
792.2842	5460
794.6943	5406
797.1038	5507
799.5127	5485
801.9209	5382
804.3324	5505
806.7393	5457
809.1456	5434
811.5513	5510
813.9562	5555
816.3625	5546
818.7663	5488
821.1693	5529
823.5718	5467
825.9735	5581
828.3746	5499
830.7771	5586
833.177	5423
835.5762	5585
837.9747	5526
840.3727	5574
842.772	5500
845.1666	5644
847.5626	5595
849.958	5679
852.3527	5528
854.7488	5749
857.1403	5672
859.5331	5742
861.9253	5668
864.3168	5659
866.7057	5682
869.098	5713
871.4876	5640
873.8746	5709
876.263	5681
878.6487	5564
881.0378	5694
883.4243	5586
885.8081	5708
888.1933	5649
890.5759	5607
892.9598	5577
895.343	5483
897.7256	5682
900.1057	5621
902.4871	5648
904.8659	5770
907.246	5703
909.6254	5647
912.0023	5857
914.3786	5813
916.7562	5880
919.1331	5832
921.5074	5925
923.8831	5948
926.2562	5994
928.6287	6050
931.0005	5936
933.3757	5964
935.7462	6045
938.1162	6074
940.4855	6089
942.8542	6293
945.2242	6244
947.5916	6464
949.9584	6700
952.3266	6901
954.6921	7144
957.0571	7377
959.4233	7707
961.787	7833
964.15	7837
966.5125	7452
968.8742	7162
971.2354	6748
973.5959	6473
975.9559	6330
978.3151	6034
980.6738	5838
983.0338	5872
985.3912	5905
987.7461	5878
990.1022	5840
992.4578	5845
994.8127	5811
997.1689	5925
999.5207	5912
1001.874	5984
1004.226	5882
1006.576	5978
1008.929	6079
1011.28	6001
1013.628	5928
1015.977	5968
1018.324	5874
1020.674	5986
1023.019	5946
1025.366	5986
1027.713	5984
1030.056	5969
1032.399	6037
1034.746	6024
1037.087	6055
1039.431	6027
1041.771	6101
1044.113	5991
1046.454	5923
1048.793	6058
1051.133	5987
1053.471	6011
1055.807	6047
1058.146	6149
1060.483	6046
1062.818	6066
1065.153	6092
1067.489	6112
1069.822	6203
1072.156	6218
1074.488	6317
1076.82	6174
1079.15	6182
1081.48	6020
1083.814	6174
1086.143	6073
1088.471	6037
1090.799	6051
1093.126	6047
1095.452	6078
1097.78	6055
1100.105	6101
1102.43	5972
1104.754	6005
1107.077	6002
1109.4	6019
1111.722	6074
1114.044	5936
1116.365	6026
1118.685	5929
1121.005	6007
1123.324	6017
1125.643	5970
1127.961	6056
1130.278	6000
1132.595	5984
1134.911	6023
1137.226	5979
1139.541	5914
1141.854	5982
1144.167	5942
1146.482	5975
1148.793	5989
1151.105	5943
1153.414	5938
1155.725	5956
1158.033	6037
1160.344	6024
1162.651	6039
1164.959	5926
1167.265	6068
1169.572	6043
1171.878	6052
1174.184	6028
1176.488	5975
1178.79	6074
1181.094	6008
1183.396	5968
1185.699	6029
1188.001	5985
1190.301	6067
1192.6	6048
1194.9	5970
1197.2	6063
1199.497	6012
1201.794	5943
1204.09	5996
1206.387	5983
1208.684	6028
1210.978	5998
1213.272	5942
1215.565	6076
1217.858	6070
1220.15	6205
1222.443	6198
1224.734	6136
1227.024	6069
1229.313	6184
1231.602	6257
1233.892	6155
1236.18	6292
1238.467	6310
1240.754	6248
1243.04	6382
1245.325	6207
1247.612	6195
1249.896	6390
1252.178	6304
1254.461	6259
1256.743	6308
1259.027	6360
1261.308	6353
1263.587	6291
1265.867	6423
1268.146	6393
1270.425	6360
1272.703	6294
1274.981	6384
1277.256	6467
1279.532	6302
1281.808	6300
1284.083	6480
1286.358	6316
1288.63	6282
1290.904	6212
1293.175	6284
1295.449	6291
1297.719	6259
1299.99	6071
1302.259	6168
1304.529	6189
1306.798	6222
1309.065	6267
1311.333	6275
1313.599	6214
1315.866	6266
1318.131	6227
1320.396	6187
1322.66	6210
1324.925	6075
1327.187	6201
1329.448	6280
1331.711	6170
1333.974	6237
1336.234	6275
1338.493	6220
1340.752	6227
1343.01	6337
1345.269	6242
1347.526	6211
1349.784	6129
1352.04	6182
1354.295	6165
1356.552	6214
1358.806	6229
1361.059	6178
1363.312	6178
1365.564	6192
1367.818	6221
1370.069	6363
1372.318	6284
1374.568	6311
1376.817	6268
1379.066	6151
1381.316	6332
1383.564	6314
1385.809	6305
1388.056	6386
1390.301	6381
1392.549	6252
1394.793	6325
1397.036	6484
1399.279	6444
1401.522	6483
1403.763	6336
1406.007	6411
1408.248	6503
1410.487	6501
1412.727	6360
1414.965	6311
1417.205	6409
1419.442	6465
1421.68	6492
1423.915	6472
1426.152	6459
1428.388	6476
1430.623	6370
1432.857	6426
1435.091	6445
1437.323	6528
1439.556	6440
1441.789	6659
1444.019	6535
1446.25	6561
1448.48	6573
1450.708	6537
1452.938	6640
1455.167	6688
1457.394	6699
1459.62	6557
1461.846	6623
1464.073	6591
1466.299	6601
1468.523	6603
1470.746	6484
1472.969	6457
1475.191	6407
1477.415	6460
1479.636	6431
1481.858	6314
1484.078	6331
1486.298	6238
1488.518	6287
1490.736	6215
1492.954	6179
1495.169	6252
1497.386	6133
1499.602	6184
1501.819	6278
1504.034	6170
1506.248	6150
1508.462	6130
1510.675	6219
1512.888	6179
1515.1	6209
1517.311	6298
1519.522	6241
1521.732	6137
1523.942	6166
1526.151	6229
1528.36	6258
1530.566	6204
1532.773	6321
1534.98	6183
1537.187	6154
1539.392	6332
1541.596	6274
1543.801	6171
1546.005	6376
1548.208	6278
1550.411	6363
1552.612	6288
1554.814	6239
1557.013	6290
1559.212	6362
1561.414	6409
1563.612	6332
1565.811	6265
1568.007	6408
1570.203	6472
1572.403	6447
1574.598	6360
1576.792	6347
1578.988	6450
1581.181	6336
1583.376	6398
1585.568	6344
1587.761	6430
1589.952	6384
1592.143	6479
1594.333	6452
1596.524	6371
1598.715	6361
1600.903	6527
1603.091	6341
1605.278	6541
1607.466	6524
1609.652	6459
1611.838	6521
1614.023	6450
1616.207	6406
1618.391	6527
1620.576	6458
1622.759	6526
1624.941	6434
1627.123	6446
1629.304	6426
1631.484	6573
1633.664	6560
1635.844	6652
1638.022	6520
1640.201	6652
1642.38	6602
1644.556	6566
1646.732	6674
1648.908	6451
1651.084	6615
1653.257	6560
1655.433	6548
1657.607	6534
1659.779	6708
1661.951	6559
1664.122	6713
1666.295	6634
1668.467	6679
1670.635	6663
1672.805	6701
1674.973	6609
1677.142	6568
1679.31	6672
1681.478	6679
1683.644	6623
1685.81	6508
1687.975	6549
1690.142	6636
1692.305	6585
1694.468	6581
1696.632	6521
1698.794	6504
1700.957	6510
1703.119	6411
1705.279	6378
1707.439	6430
1709.598	6520
1711.758	6429
1713.917	6462
1716.075	6317
1718.231	6497
1720.388	6372
1722.543	6444
1724.702	6385
1726.856	6407
1729.01	6434
1731.164	6421
1733.317	6480
1735.471	6382
1737.623	6255
1739.774	6458
1741.925	6284
1744.075	6402
1746.225	6412
1748.376	6455
1750.524	6325
1752.672	6489
1754.82	6405
1756.965	6330
1759.113	6368
1761.259	6397
1763.405	6483
1765.549	6435
1767.694	6407
1769.836	6556
1771.981	6466
1774.123	6509
1776.264	6541
1778.405	6395
1780.546	6445
1782.687	6531
1784.827	6411
1786.966	6481
1789.103	6438
1791.242	6533
1793.381	6519
1795.517	6565
1797.653	6489
1799.788	6443
1801.923	6427
1804.057	6445
1806.193	6575
1808.326	6445
1810.457	6433
1812.59	6491
1814.721	6458
1816.855	6353
1818.984	6546
1821.113	6467
1823.244	6405
1825.372	6488
1827.499	6452
1829.63	6477
1831.756	6435
1833.882	6537
1836.007	6450
1838.132	6340
1840.26	6418
1842.384	6472
1844.507	6388
1846.63	6440
1848.752	6408
1850.875	6493
1852.996	6445
1855.118	6373
1857.238	6479
1859.358	6378
1861.477	6396
1863.597	6390
1865.715	6443
1867.832	6418
1869.948	6424
1872.064	6393
1874.181	6450
1876.297	6415
1878.411	6325
1880.526	6431
1882.639	6513
1884.752	6444
1886.865	6411
1888.977	6493
1891.089	6521
1893.2	6422
1895.308	6419
1897.42	6550
1899.53	6524
1901.639	6460
1903.745	6445
1905.853	6501
1907.962	6569
1910.067	6481
1912.174	6455
1914.278	6485
1916.383	6391
1918.486	6496
1920.592	6548
1922.694	6485
1924.797	6477
1926.898	6517
1929	6716
1931.102	6518
1933.203	6533
1935.301	6574
1937.401	6536
1939.499	6570
1941.598	6491
1943.697	6479
1945.793	6607
1947.888	6531
1949.985	6609
1952.08	6590
1954.176	6504
1956.269	6583
1958.364	6511
1960.457	6601
1962.549	6422
1964.642	6484
1966.733	6557
1968.823	6597
1970.913	6501
1973.005	6457
1975.093	6526
1977.184	6448
1979.271	6585
1981.359	6441
1983.446	6424
1985.532	6364
1987.619	6518
1989.705	6451
1991.789	6509
1993.874	6537
1995.956	6515
1998.041	6486
2000.123	6331
2002.206	6363
2004.287	6541
2006.368	6496
2008.449	6452
2010.529	6458
2012.609	6509
2014.688	6458
2016.766	6428
2018.843	6418
2020.922	6399
2022.999	6387
2025.074	6467
2027.15	6468
2029.225	6431
2031.299	6496
2033.375	6391
2035.447	6455
2037.52	6529
2039.592	6456
2041.664	6345
2043.736	6373
2045.807	6418
2047.876	6485
2049.947	6452
2052.015	6481
2054.086	6390
2056.153	6341
2058.221	6423
2060.288	6444
2062.353	6441
2064.42	6421
2066.486	6335
2068.55	6461
2070.614	6515
2072.678	6480
2074.741	6512
2076.805	6377
2078.866	6471
2080.929	6437
2082.99	6588
2085.049	6412
2087.109	6538
2089.17	6397
2091.228	6467
2093.286	6434
2095.344	6473
2097.4	6407
2099.46	6295
2101.516	6389
2103.572	6272
2105.626	6346
2107.679	6475
2109.735	6484
2111.788	6424
2113.841	6433
2115.894	6434
2117.945	6457
2119.997	6419
2122.049	6394
2124.1	6481
2126.148	6492
2128.197	6439
2130.246	6372
2132.296	6513
2134.342	6545
2136.39	6524
2138.437	6354
2140.483	6482
2142.527	6424
2144.574	6357
2146.619	6482
2148.661	6463
2150.705	6396
2152.747	6412
2154.792	6347
2156.832	6324
2158.874	6481
2160.915	6340
2162.954	6300
2164.995	6387
2167.034	6352
2169.072	6255
2171.111	6374
2173.148	6348
2175.186	6344
2177.223	6434
2179.258	6304
2181.294	6412
2183.328	6360
2185.362	6303
2187.398	6228
2189.431	6298
2191.463	6281
2193.495	6303
2195.528	6404
2197.56	6235
2199.59	6369
2201.62	6286
2203.649	6338
2205.678	6266
2207.708	6397
2209.737	6324
2211.764	6304
2213.791	6222
2215.817	6259
2217.843	6346
2219.87	6353
2221.895	6331
2223.919	6293
2225.942	6231
2227.966	6197
2229.988	6181
2232.012	6208
2234.032	6226
2236.054	6188
2238.074	6225
2240.095	6215
2242.116	6350
2244.135	6269
2246.153	6217
2248.171	6391
2250.188	6293
2252.208	6281
2254.223	6189
2256.239	6199
2258.255	6268
2260.269	6284
2262.283	6280
2264.3	6326
2266.312	6285
2268.325	6280
2270.336	6279
2272.349	6314
2274.362	6367
2276.372	6281
2278.383	6283
2280.392	6266
2282.402	6288
2284.409	6326
2286.418	6192
2288.427	6258
2290.433	6229
2292.441	6251
2294.446	6167
2296.453	6237
2298.459	6330
2300.463	6319
2302.466	6205
2304.471	6218
2306.475	6206
2308.477	6256
2310.478	6157
2312.481	6237
2314.481	6272
2316.481	6227
2318.482	6250
2320.482	6169
2322.48	6229
2324.48	6336
2326.478	6205
2328.476	6242
2330.473	6201
2332.469	6161
2334.465	6226
2336.46	6150
2338.454	6196
2340.45	6139
2342.444	6227
2344.437	6105
2346.43	6128
2348.421	6057
2350.414	6171
2352.405	6071
2354.396	6016
2356.386	6172
2358.376	6071
2360.366	6185
2362.355	6236
2364.343	6101
2366.331	6114
2368.317	6114
2370.304	6308
2372.292	6169
2374.278	6181
2376.262	6061
2378.247	6130
2380.23	6167
2382.216	6070
2384.199	6030
2386.181	6160
2388.163	5974
2390.144	6008
2392.127	6030
2394.107	6076
2396.087	6089
2398.066	5940
2400.046	6107
2402.023	6113
2404.004	6005
2405.981	6012
2407.957	5974
2409.934	5902
2411.91	6041
2413.886	6007
2415.862	5995
2417.836	6016
2419.809	6073
2421.784	6056
2423.756	5960
2425.73	5990
2427.701	6011
2429.672	6117
2431.644	6062
2433.615	5873
2435.586	6001
2437.555	5982
2439.523	6011
2441.491	6043
2443.459	6086
2445.428	5944
2447.395	6043
2449.361	6031
2451.327	6019
2453.292	6005
2455.257	5967
2457.223	6005
2459.187	5965
2461.15	6060
2463.113	5862
2465.076	6117
2467.039	5886
2468.999	5970
2470.96	5945
2472.921	6010
2474.881	5990
2476.841	5862
2478.8	5879
2480.759	6028
2482.717	5944
2484.675	5905
2486.63	5943
2488.589	5974
2490.545	6044
2492.5	5878
2494.455	5967
2496.408	5971
2498.364	5914
2500.318	5947
2502.27	5941
2504.223	5884
2506.174	5941
2508.126	5830
2510.078	5825
2512.03	5997
2513.979	5920
2515.927	5851
2517.877	5850
2519.826	5913
2521.775	5894
2523.722	5859
2525.668	5906
2527.616	6000
2529.561	5899
2531.508	5869
2533.452	5947
2535.398	5869
2537.342	5883
2539.284	5942
2541.229	5960
2543.173	5868
2545.114	5932
2547.055	5999
2548.996	5858
2550.938	5825
2552.878	5822
2554.817	5856
2556.756	5924
2558.695	5931
2560.633	5917
2562.572	5872
2564.509	5987
2566.445	5850
2568.382	5905
2570.317	6017
2572.254	5829
2574.189	5888
2576.123	5883
2578.057	5923
2579.99	5840
2581.923	5849
2583.855	5882
2585.788	5882
2587.719	5853
2589.65	5929
2591.579	5904
2593.511	5877
2595.44	5849
2597.37	5867
2599.297	5966
2601.225	5916
2603.153	5899
2605.08	5876
2607.007	5925
2608.932	5784
2610.858	5898
2612.782	5948
2614.709	5933
2616.632	5950
2618.556	5873
2620.478	5925
2622.401	5906
2624.324	5829
2626.247	5936
2628.167	5898
2630.088	5941
2632.008	5822
2633.928	5939
2635.848	5892
2637.766	5886
2639.684	5944
2641.603	5915
2643.519	5885
2645.437	5949
2647.353	5809
2649.27	5934
2651.184	5925
2653.099	5904
2655.014	5816
2656.928	5996
2658.842	5904
2660.755	5838
2662.667	5823
2664.579	5788
2666.491	5882
2668.402	5920
2670.312	5886
2672.222	5952
2674.132	5767
2676.042	5825
2677.951	5892
2679.859	5921
2681.766	5843
2683.674	5870
2685.582	5801
2687.488	5831
2689.392	5835
2691.298	5832
2693.202	5732
2695.107	5760
2697.012	5897
2698.914	5690
2700.817	5778
2702.72	5838
2704.622	5773
2706.524	5837
2708.425	5804
2710.326	5743
2712.225	5748
2714.125	5817
2716.024	5716
2717.923	5773
2719.822	5709
2721.719	5821
2723.616	5733
2725.512	5805
2727.41	5736
2729.305	5670
2731.201	5765
2733.095	5717
2734.99	5709
2736.884	5722
2738.778	5704
2740.67	5778
2742.562	5828
2744.455	5736
2746.346	5686
2748.238	5741
2750.129	5783
2752.018	5785
2753.907	5741
2755.797	5787
2757.687	5785
2759.575	5714
2761.462	5723
2763.349	5793
2765.237	5818
2767.124	5748
2769.009	5690
2770.894	5681
2772.779	5756
2774.663	5728
2776.547	5806
2778.431	5769
2780.314	5687
2782.197	5748
2784.078	5771
2785.96	5766
2787.842	5806
2789.723	5657
2791.603	5672
2793.483	5719
2795.362	5693
2797.241	5703
2799.121	5659
2800.997	5594
2802.874	5764
2804.751	5662
2806.628	5665
2808.506	5688
2810.38	5702
2812.255	5738
2814.13	5544
2816.003	5669
2817.878	5741
2819.752	5615
2821.623	5763
2823.496	5580
2825.368	5609
2827.238	5661
2829.111	5720
2830.98	5684
2832.851	5716
2834.719	5740
2836.589	5609
2838.458	5610
2840.327	5735
2842.193	5713
2844.061	5639
2845.927	5741
2847.794	5784
2849.66	5690
2851.525	5808
2853.39	5816
2855.254	5758
2857.117	5798
2858.983	5801
2860.845	5781
2862.707	5899
2864.569	5924
2866.431	5939
2868.293	5923
2870.154	5975
2872.013	6026
2873.873	5978
2875.733	6025
2877.592	5988
2879.451	6218
2881.309	6238
2883.166	6244
2885.022	6355
2886.879	6403
2888.736	6277
2890.591	6454
2892.446	6435
2894.301	6385
2896.155	6265
2898.009	6330
2899.863	6413
2901.716	6328
2903.568	6332
2905.419	6234
2907.27	6358
2909.123	6315
2910.973	6312
2912.824	6335
2914.673	6494
2916.521	6448
2918.372	6615
2920.22	6605
2922.067	6717
2923.914	6723
2925.761	6754
2927.607	6918
2929.455	6861
2931.301	6848
2933.144	7052
2934.99	7044
2936.833	7083
2938.678	7284
2940.522	7240
2942.364	7222
2944.207	7444
2946.048	7340
2947.891	7377
2949.731	7490
2951.571	7373
2953.412	7189
2955.25	7298
2957.09	7090
2958.93	7106
2960.767	7045
2962.606	6989
2964.443	6969
2966.279	7026
2968.116	6826
2969.953	6695
2971.788	6692
2973.623	6611
2975.457	6628
2977.292	6575
2979.127	6486
2980.959	6511
2982.792	6488
2984.624	6265
2986.455	6454
2988.288	6327
2990.119	6335
2991.949	6342
2993.779	6176
2995.608	6176
2997.439	6081
2999.268	6137
3001.096	6029
3002.923	6008
3004.751	6036
3006.578	5927
3008.406	5882
3010.232	5856
3012.057	5814
3013.883	5804
3015.706	5697
3017.532	5700
3019.356	5588
3021.179	5559
3023.002	5462
3024.823	5546
3026.646	5576
3028.469	5531
3030.289	5450
3032.11	5456
3033.93	5498
3035.749	5499
3037.57	5398
3039.39	5444
3041.207	5426
3043.026	5410
3044.842	5441
3046.661	5422
3048.477	5488
3050.294	5449
3052.109	5406
3053.925	5310
3055.739	5414
3057.555	5442
3059.368	5411
3061.181	5314
3062.995	5415
3064.807	5370
3066.62	5362
3068.433	5428
3070.243	5298
3072.054	5397
3073.865	5392
3075.675	5396
3077.485	5296
3079.293	5299
3081.102	5312
3082.911	5282
3084.719	5303
3086.527	5199
3088.333	5274
3090.139	5313
3091.945	5341
3093.75	5267
3095.557	5247
3097.361	5260
3099.165	5264
3100.969	5218
3102.772	5242
3104.575	5212
3106.379	5278
3108.181	5091
3109.982	5249
3111.783	5180
3113.584	5243
3115.386	5115
3117.186	5170
3118.985	5260
3120.783	5099
3122.582	5129
3124.381	5131
3126.179	5114
3127.975	5059
3129.772	5118
3131.569	5149
3133.365	5148
3135.161	5111
3136.956	5220
3138.751	5098
3140.544	5124
3142.338	5155
3144.132	5090
3145.925	5100
3147.717	5078
3149.509	5120
3151.301	5123
3153.091	5114
3154.884	5099
3156.673	5096
3158.462	5096
3160.252	5085
3162.041	5199
3163.831	5074
3165.618	5133
3167.405	5081
3169.193	5183
3170.979	5005
3172.767	5061
3174.553	5001
3176.338	5037
3178.123	5103
3179.907	5088
3181.692	5019
3183.477	4977
3185.259	5031
3187.042	5020
3188.824	5141
3190.607	5217
3192.389	4962
3194.17	5026
3195.951	5046
3197.73	5083
3199.51	5024
3201.289	5055
3203.07	5087
3204.848	5060
3206.626	4964
3208.403	5007
3210.18	5013
3211.959	4947
3213.735	5126
3215.511	5117
3217.285	5016
3219.06	4984
3220.836	5059
3222.611	4922
3224.384	5090
3226.158	5038
3227.929	4969
3229.702	4924
3231.476	5031
3233.248	4998
3235.018	5051
3236.789	5103
3238.56	5035
3240.33	5060
3242.1	5003
3243.869	4977
3245.637	4972
3247.405	4924
3249.172	5015
3250.941	5013
3252.707	4996
3254.474	5054
3256.24	4977
3258.006	5013
3259.772	5040
3261.537	4973
3263.301	5073
3265.065	4982
3266.828	4998
3268.592	4995
3270.355	5092
3272.117	5049
3273.878	5021
3275.64	5113
3277.401	4971
3279.162	4956
3280.922	5019
3282.682	5016
3284.441	5115
3286.199	5088
3287.959	5084
3289.716	4982
3291.475	5034
3293.232	4985
3294.988	5039
3296.744	5113
3298.501	5043
3300.256	5087
3302.011	5109
3303.766	5013
3305.52	5007
3307.275	5010
3309.028	4991
3310.781	5029
3312.533	5027
3314.285	5066
3316.038	5004
3317.789	5036
3319.54	4992
3321.289	4990
3323.039	5065
3324.789	4941
3326.539	4961
3328.288	4962
3330.035	5059
3331.783	5070
3333.531	5005
3335.28	4954
3337.025	4966
3338.771	4995
3340.518	5083
3342.262	5018
3344.009	5037
3345.753	4979
3347.497	4948
3349.24	4923
3350.983	4911
3352.726	5066
3354.469	4896
3356.212	5007
3357.952	5014
3359.694	4943
3361.434	4934
3363.176	4975
3364.916	4846
3366.654	4831
3368.394	4927
3370.132	4934
3371.871	4787
3373.61	4985
3375.346	4867
3377.083	4934
3378.82	4774
3380.556	4895
3382.292	4952
3384.027	4985
3385.763	4841
3387.497	4706
3389.231	4757
3390.965	4789
3392.698	4830
3394.431	4770
3396.164	4847
3397.896	4816
3399.627	4751
3401.36	4830
3403.09	4850
3404.82	4751
3406.55	4785
3408.279	4802
3410.01	4824
3411.738	4800
3413.467	4712
3415.194	4746
3416.92	4736
3418.647	4710
3420.375	4811
3422.102	4716
3423.827	4648
3425.553	4668
3427.277	4709
3429.003	4767
3430.727	4714
3432.451	4738
3434.173	4664
3435.896	4751
3437.62	4692
3439.343	4752
3441.063	4664
3442.785	4663
3444.505	4717
3446.226	4584
3447.948	4675
3449.666	4644
3451.386	4586
3453.104	4733
3454.823	4733
3456.541	4566
3458.259	4593
3459.976	4641
3461.693	4610
3463.408	4634
3465.125	4659
3466.841	4616
3468.556	4502
3470.271	4622
3471.985	4607
3473.698	4608
3475.414	4496
3477.126	4535
3478.838	4509
3480.55	4428
3482.263	4511
3483.975	4563
3485.686	4571
3487.396	4564
3489.106	4579
3490.817	4522
3492.526	4549
3494.236	4525
3495.944	4401
3497.652	4470
3499.359	4487
3501.066	4446
3502.775	4462
3504.481	4392
3506.187	4477
3507.893	4538
3509.598	4326
3511.304	4368
3513.009	4404
3514.713	4447
3516.417	4395
3518.12	4408
3519.821	4410
3521.525	4305
3523.228	4422
3524.929	4431
3526.631	4303
3528.33	4376
3530.032	4291
3531.733	4412
3533.433	4339
3535.131	4291
3536.83	4276
3538.529	4398
3540.227	4263
3541.925	4391
3543.623	4354
3545.319	4296
3547.016	4236
3548.712	4309
3550.408	4300
3552.103	4293
3553.798	4219
3555.491	4277
3557.188	4273
3558.88	4285
3560.574	4272
3562.266	4286
3563.959	4211
3565.651	4209
3567.343	4233
3569.035	4248
3570.725	4187
3572.415	4163
3574.106	4282
3575.797	4161
3577.485	4220
3579.174	4258
3580.863	4183
3582.551	4165
3584.238	4222
3585.926	4183
3587.613	4128
3589.3	4237
3590.986	4133
3592.671	4144
3594.357	4156
3596.042	4126
3597.726	4125
3599.41	4047
3601.094	4113
3602.778	4118
3604.461	4065
3606.143	4109
3607.825	4049
3609.507	4065
3611.188	4098
3612.87	4039
3614.551	4020
3616.229	4130
3617.909	4072
3619.589	4074
3621.269	4080
3622.948	4026
3624.625	4075
3626.302	3997
3627.98	3948
3629.657	3982
3631.334	3996
3633.01	3911
3634.686	3997
3636.361	3995
3638.036	4008
3639.712	3979
3641.385	3974
3643.06	3953
3644.732	3984
3646.405	3996
3648.08	3950
3649.751	3868
3651.424	3947
3653.094	3934
3654.766	3964
3656.436	3945
3658.106	3933
3659.777	3889
3661.446	3918
3663.115	3919
3664.783	3869
3666.452	3983
3668.121	3845
3669.788	3832
3671.454	3894
3673.121	3870
3674.789	3894
3676.455	3821
3678.12	3865
3679.784	3841
3681.45	3852
3683.114	3788
3684.779	3798
3686.442	3835
3688.105	3888
3689.768	3898
3691.43	3823
3693.093	3853
3694.754	3919
3696.415	3834
3698.076	3809
3699.736	3780
3701.396	3889
3703.057	3834
3704.716	3803
3706.375	3805
3708.034	3791
3709.692	3742
3711.351	3893
3713.008	3811
3714.665	3831
3716.321	3808
3717.977	3762
3719.634	3755
3721.29	3763
3722.945	3727
3724.598	3684
3726.253	3712
3727.907	3687
3729.561	3886
3731.214	3689
3732.867	3754
3734.518	3738
3736.171	3718
3737.824	3728
3739.474	3730
3741.125	3685
3742.775	3745
3744.425	3717
3746.074	3729
3747.725	3741
3749.373	3659
3751.022	3728
3752.669	3720
3754.318	3751
3755.966	3645
3757.612	3678
3759.259	3684
3760.905	3656
3762.55	3738
3764.197	3671
3765.842	3607
3767.486	3730
3769.131	3753
3770.774	3707
3772.417	3702
3774.061	3638
3775.705	3643
3777.347	3646
3778.988	3719
3780.629	3647
3782.271	3681
3783.912	3607
3785.552	3574
3787.192	3540
3788.831	3628
3790.472	3615
3792.112	3668
3793.75	3619
3795.388	3583
3797.024	3603
3798.661	3672
3800.3	3569
3801.936	3638
3803.572	3609
3805.208	3579
3806.844	3651
3808.48	3530
3810.115	3540
3811.748	3657
3813.382	3560
3815.016	3531
3816.649	3552
3818.283	3478
3819.914	3568
3821.547	3590
3823.178	3560
3824.809	3585
3826.441	3493
3828.072	3516
3829.701	3461
3831.331	3600
3832.96	3560
3834.591	3506
3836.219	3455
3837.847	3532
3839.475	3482
3841.102	3548
3842.729	3475
3844.357	3523
3845.984	3546
3847.609	3553
3849.234	3457
3850.86	3483
3852.485	3445
3854.11	3455
3855.734	3486
3857.357	3488
3858.981	3456
3860.603	3477
3862.227	3503
3863.848	3452
3865.471	3436
3867.092	3451
3868.713	3415
3870.334	3425
3871.954	3390
3873.575	3442
3875.194	3380
3876.813	3499
3878.433	3366
3880.051	3365
3881.669	3399
3883.286	3481
3884.904	3408
3886.52	3457
3888.138	3514
3889.754	3355
3891.37	3376
3892.985	3347
3894.6	3412
3896.216	3359
3897.831	3395
3899.444	3338
3901.058	3362
3902.67	3406
3904.283	3304
3905.897	3410
3907.509	3383
3909.121	3338
3910.731	3414
3912.342	3298
3913.954	3412
3915.563	3424
3917.174	3410
3918.783	3409
3920.391	3399
3922.002	3368
3923.611	3419
3925.218	3349
3926.826	3296
3928.432	3358
3930.039	3327
3931.647	3327
3933.253	3353
3934.859	3351
3936.464	3322
3938.068	3328
3939.675	3356
3941.278	3385
3942.883	3392
3944.486	3356
3946.089	3374
3947.692	3352
3949.295	3295
3950.898	3304
3952.499	3317
3954.1	3291
3955.7	3384
3957.303	3282
3958.903	3373
3960.502	3311
3962.101	3292
3963.7	3264
3965.301	3319
3966.899	3287
3968.497	3286
3970.094	3297
3971.691	3356
3973.288	3336
3974.885	3304
3976.481	3271
3978.077	3299
3979.672	3212
3981.267	3257
3982.863	3252
3984.457	3301
3986.051	3317
3987.645	3226
3989.238	3180
3990.831	3197
3992.425	3197
3994.017	3230
3995.607	3263
3997.199	3357
3998.79	3302
4000.382	3215
4001.973	3167
4003.561	3175
4005.151	3189
4006.741	3248
4008.331	3211
4009.918	3180
4011.507	3159
4013.095	3164
4014.681	3142
4016.269	3213
4017.856	3135
4019.443	3115
4021.028	3090
4022.614	3161
4024.199	3092
4025.785	3149
4027.37	3112
4028.953	3078
4030.536	3097
4032.12	3105
4033.704	3071
4035.287	3115
4036.869	3109
4038.45	3104
4040.032	3120
4041.613	3049
4043.195	3070
4044.776	3159
4046.356	3086
4047.935	3125
4049.515	3066
4051.095	3045
4052.674	3082
4054.251	3093
4055.829	3040
4057.406	3181
4058.985	2999
4060.562	3045
4062.139	3085
4063.715	3054
4065.29	3155
4066.865	3077
4068.442	3045
4070.016	3017
4071.59	3086
4073.164	3042
4074.738	3021
4076.312	3012
4077.885	3043
4079.458	3078
4081.03	3034
4082.602	3009
4084.173	3013
4085.745	3011
4087.315	2960
4088.886	3025
4090.456	3012
4092.026	3030
4093.596	3003
4095.165	2970
4096.734	3048
4098.301	3028
4099.869	3011
4101.437	2994
4103.006	2964
4104.572	3025
4106.139	3039
4107.704	2955
4109.27	2983
4110.837	3013
4112.401	2946
4113.966	2952
4115.53	2929
4117.094	2992
4118.659	3016
4120.223	2963
4121.785	2920
4123.347	3028
4124.909	2988
4126.471	2923
4128.034	2925
4129.595	2884
4131.155	2956
4132.716	2876
4134.275	2948
4135.836	2936
4137.395	2914
4138.955	2872
4140.513	2864
4142.071	2917
4143.628	2941
4145.188	2916
4146.745	2917
4148.302	2898
4149.858	2918
4151.414	2936
4152.971	2798
4154.526	2823
4156.081	2879
4157.635	2903
4159.189	2848
4160.745	2881
4162.298	2867
4163.852	2837
4165.405	2856
4166.957	2876
4168.51	2850
4170.063	2851
4171.614	2838
4173.166	2838
4174.717	2823
4176.267	2825
4177.817	2921
4179.368	2823
4180.917	2822
4182.466	2767
4184.016	2841
4185.564	2780
4187.112	2734
4188.66	2817
4190.207	2814
4191.754	2762
4193.301	2780
4194.848	2816
4196.394	2799
4197.94	2790
4199.484	2761
4201.03	2762
4202.575	2778
4204.12	2804
4205.663	2727
4207.207	2787
4208.75	2778
4210.292	2693
4211.836	2706
4213.378	2787
4214.92	2769
4216.46	2764
4218.002	2771
4219.544	2705
4221.083	2715
4222.625	2776
4224.164	2767
4225.703	2786
4227.244	2732
4228.782	2795
4230.32	2730
4231.857	2733
4233.395	2701
4234.933	2742
4236.471	2690
4238.007	2607
4239.542	2738
4241.078	2719
4242.614	2807
4244.15	2684
4245.685	2685
4247.219	2753
4248.753	2732
4250.287	2729
4251.82	2695
4253.354	2664
4254.887	2733
4256.419	2692
4257.951	2713
4259.483	2702
4261.016	2731
4262.547	2634
4264.078	2733
4265.608	2742
4267.137	2665
4268.668	2657
4270.197	2628
4271.727	2608
4273.254	2712
4274.783	2658
4276.311	2701
4277.84	2629
4279.366	2626
4280.894	2683
4282.42	2598
4283.946	2615
4285.473	2726
4286.998	2648
4288.523	2575
4290.047	2675
4291.572	2609
4293.096	2701
4294.622	2546
4296.144	2562
4297.668	2684
4299.19	2621
4300.713	2658
4302.236	2621
4303.758	2581
4305.279	2609
4306.799	2649
4308.321	2620
4309.842	2600
4311.361	2620
4312.882	2593
4314.401	2571
