400.0961	5691
402.6185	5757
405.1424	5770
407.6635	5812
410.1838	5698
412.7035	5713
415.2225	5846
417.7388	5880
420.2585	5941
422.7754	5946
425.2917	5913
427.8072	5984
430.3221	5967
432.8363	6062
435.3498	6063
437.8626	6052
440.3727	6120
442.8841	6018
445.3969	5996
447.907	6150
450.4142	6133
452.9229	6022
455.4289	5983
457.9362	6055
460.4449	5962
462.9488	6001
465.454	6044
467.9566	6045
470.4604	6139
472.9637	6083
475.4662	6164
477.966	6177
480.4671	6121
482.9656	6222
485.4633	6195
487.9645	6238
490.4608	6141
492.9566	6322
495.4536	6215
497.948	6383
500.4437	6293
502.9387	6327
505.431	6279
507.9226	6427
510.4136	6401
512.9079	6483
515.3975	6415
517.8864	6387
520.3746	6342
522.8622	6400
525.3491	6308
527.8394	6526
530.3249	6436
532.8098	6508
535.2939	6450
537.7774	6419
540.2623	6472
542.7444	6447
545.2259	6355
547.7067	6463
550.1868	6376
552.6683	6466
555.147	6506
557.6231	6401
560.1005	6450
562.5773	6513
565.0534	6320
567.5308	6530
570.0056	6584
572.4776	6526
574.951	6495
577.4237	6468
579.8978	6559
582.3671	6593
584.8378	6586
587.3079	6581
589.7773	6681
592.244	6673
594.714	6613
597.1793	6643
599.6461	6611
602.1121	6605
604.5754	6631
607.0421	6497
609.5042	6694
611.9675	6575
614.4282	6628
616.8902	6702
619.3515	6575
621.8122	6622
624.2702	6617
626.7296	6741
629.1863	6638
631.6423	6644
634.1017	6647
636.5563	6571
639.0104	6724
641.4658	6675
643.9185	6643
646.3725	6596
648.8239	6693
651.2766	6743
653.7266	6654
656.176	6790
658.6247	6768
661.0748	6725
663.5242	6808
665.9709	6770
668.417	6711
670.8624	6802
673.3092	6878
675.7533	6846
678.1968	6857
680.6395	6731
683.0817	6867
685.5251	6841
687.9659	6852
690.4061	6980
692.8456	6910
695.2844	6927
697.7226	7108
700.1621	7074
702.599	6947
705.0332	6992
707.4688	7006
709.9036	6951
712.3399	7062
714.7735	7056
717.2044	7000
719.6367	7089
722.0683	7044
724.4993	7107
726.9296	6986
729.3593	7021
731.7883	7097
734.2147	7158
736.6423	6969
739.0714	7197
741.4958	7314
743.9216	7185
746.3447	7060
748.7691	7294
751.1929	7174
753.616	7404
756.0366	7356
758.4584	7362
760.8776	7265
763.2982	7267
765.718	7414
768.1373	7400
770.5539	7366
772.9698	7310
775.3871	7430
777.8038	7410
780.2178	7324
782.6332	7330
785.0459	7329
787.458	7410
789.8714	7392
792.2842	7317
794.6943	7393
797.1038	7482
799.5127	7311
801.9209	7511
804.3324	7425
806.7393	7485
809.1456	7373
811.5513	7539
813.9562	7393
816.3625	7536
818.7663	7285
821.1693	7305
823.5718	7421
825.9735	7357
828.3746	7503
830.7771	7495
833.177	7534
835.5762	7529
837.9747	7465
840.3727	7555
842.772	7445
845.1666	7545
847.5626	7558
849.958	7538
852.3527	7636
854.7488	7580
857.1403	7555
859.5331	7526
861.9253	7562
864.3168	7625
866.7057	7600
869.098	7585
871.4876	7584
873.8746	7491
876.263	7615
878.6487	7561
881.0378	7621
883.4243	7658
885.8081	7524
888.1933	7583
890.5759	7613
892.9598	7621
895.343	7586
897.7256	7550
900.1057	7484
902.4871	7669
904.8659	7609
907.246	7656
909.6254	7563
912.0023	7677
914.3786	7820
916.7562	7731
919.1331	7846
921.5074	7873
923.8831	7910
926.2562	7809
928.6287	7925
931.0005	7811
933.3757	7996
935.7462	8001
938.1162	7815
940.4855	8082
942.8542	7936
945.2242	7972
947.5916	8035
949.9584	8154
952.3266	8133
954.6921	8352
957.0571	8509
959.4233	8667
961.787	8633
964.15	8745
966.5125	8660
968.8742	8320
971.2354	8169
973.5959	8153
975.9559	8085
978.3151	8001
980.6738	7912
983.0338	7994
985.3912	7831
987.7461	7913
990.1022	7841
992.4578	7951
994.8127	7862
997.1689	7721
999.5207	7849
1001.874	7914
1004.226	7879
1006.576	7847
1008.929	7866
1011.28	7864
1013.628	7881
1015.977	7885
1018.324	7857
1020.674	7895
1023.019	7908
1025.366	7911
1027.713	7954
1030.056	7881
1032.399	7957
1034.746	7941
1037.087	7998
1039.431	7974
1041.771	7997
1044.113	8007
1046.454	7970
1048.793	7993
1051.133	7971
1053.471	7989
1055.807	7960
1058.146	8010
1060.483	7939
1062.818	7969
1065.153	7962
1067.489	8079
1069.822	8201
1072.156	8072
1074.488	8090
1076.82	8109
1079.15	8118
1081.48	8075
1083.814	8125
1086.143	7993
1088.471	8129
1090.799	8161
1093.126	8111
1095.452	8108
1097.78	8124
1100.105	8027
1102.43	7949
1104.754	8117
1107.077	8043
1109.4	8099
1111.722	7964
1114.044	8153
1116.365	8096
1118.685	8033
1121.005	8176
1123.324	8206
1125.643	8209
1127.961	8193
1130.278	8191
1132.595	8173
1134.911	8220
1137.226	8070
1139.541	8075
1141.854	8193
1144.167	8177
1146.482	8118
1148.793	8076
1151.105	8177
1153.414	8334
1155.725	8207
1158.033	8246
1160.344	8153
1162.651	8156
1164.959	8139
1167.265	8193
1169.572	8164
1171.878	8201
1174.184	8070
1176.488	8184
1178.79	8202
1181.094	8182
1183.396	8160
1185.699	7975
1188.001	8182
1190.301	8239
1192.6	8174
1194.9	8213
1197.2	8172
1199.497	8172
1201.794	8143
1204.09	8104
1206.387	8148
1208.684	8148
1210.978	8304
1213.272	8181
1215.565	8298
1217.858	8194
1220.15	8315
1222.443	8229
1224.734	8258
1227.024	8290
1229.313	8314
1231.602	8362
1233.892	8444
1236.18	8352
1238.467	8341
1240.754	8391
1243.04	8481
1245.325	8345
1247.612	8459
1249.896	8502
1252.178	8506
1254.461	8489
1256.743	8501
1259.027	8561
1261.308	8422
1263.587	8458
1265.867	8460
1268.146	8519
1270.425	8550
1272.703	8479
1274.981	8441
1277.256	8466
1279.532	8537
1281.808	8486
1284.083	8433
1286.358	8478
1288.63	8461
1290.904	8349
1293.175	8328
1295.449	8243
1297.719	8388
1299.99	8357
1302.259	8316
1304.529	8377
1306.798	8481
1309.065	8494
1311.333	8374
1313.599	8473
1315.866	8434
1318.131	8337
1320.396	8325
1322.66	8330
1324.925	8427
1327.187	8414
1329.448	8406
1331.711	8513
1333.974	8478
1336.234	8397
1338.493	8438
1340.752	8439
1343.01	8236
1345.269	8507
1347.526	8364
1349.784	8293
1352.04	8453
1354.295	8475
1356.552	8467
1358.806	8494
1361.059	8476
1363.312	8492
1365.564	8396
1367.818	8459
1370.069	8566
1372.318	8444
1374.568	8449
1376.817	8417
1379.066	8468
1381.316	8501
1383.564	8458
1385.809	8522
1388.056	8592
1390.301	8451
1392.549	8570
1394.793	8704
1397.036	8741
1399.279	8678
1401.522	8686
1403.763	8723
1406.007	8584
1408.248	8652
1410.487	8604
1412.727	8602
1414.965	8546
1417.205	8666
1419.442	8594
1421.68	8753
1423.915	8796
1426.152	8739
1428.388	8686
1430.623	8585
1432.857	8542
1435.091	8672
1437.323	8833
1439.556	8867
1441.789	8862
1444.019	8744
1446.25	8839
1448.48	8863
1450.708	8769
1452.938	8824
1455.167	8804
1457.394	8858
1459.62	8822
1461.846	8717
1464.073	8871
1466.299	8746
1468.523	8741
1470.746	8738
1472.969	8664
1475.191	8668
1477.415	8634
1479.636	8711
1481.858	8637
1484.078	8504
1486.298	8533
1488.518	8480
1490.736	8646
1492.954	8509
1495.169	8397
1497.386	8398
1499.602	8581
1501.819	8537
1504.034	8451
1506.248	8611
1508.462	8434
1510.675	8507
1512.888	8512
1515.1	8486
1517.311	8525
1519.522	8447
1521.732	8437
1523.942	8516
1526.151	8406
1528.36	8495
1530.566	8493
1532.773	8382
1534.98	8498
1537.187	8379
1539.392	8529
1541.596	8616
1543.801	8601
1546.005	8474
1548.208	8538
1550.411	8666
1552.612	8544
1554.814	8623
1557.013	8615
1559.212	8547
1561.414	8731
1563.612	8622
1565.811	8670
1568.007	8555
1570.203	8736
1572.403	8764
1574.598	8686
1576.792	8668
1578.988	8742
1581.181	8682
1583.376	8725
1585.568	8792
1587.761	8764
1589.952	8691
1592.143	8699
1594.333	8759
1596.524	8766
1598.715	8791
1600.903	8806
1603.091	8794
1605.278	8739
1607.466	8600
1609.652	8721
1611.838	8943
1614.023	8843
1616.207	8719
1618.391	8810
1620.576	8739
1622.759	8771
1624.941	8733
1627.123	8799
1629.304	8892
1631.484	8811
1633.664	8792
1635.844	8839
1638.022	8808
1640.201	8796
1642.38	8885
1644.556	8900
1646.732	8829
1648.908	8887
1651.084	8902
1653.257	8751
1655.433	8970
1657.607	8772
1659.779	8961
1661.951	8817
1664.122	8861
1666.295	8888
1668.467	8778
1670.635	9063
1672.805	8839
1674.973	8947
1677.142	8963
1679.31	8746
1681.478	8868
1683.644	8907
1685.81	8707
1687.975	8891
1690.142	8814
1692.305	8801
1694.468	8888
1696.632	8769
1698.794	8981
1700.957	8659
1703.119	8747
1705.279	8568
1707.439	8746
1709.598	8731
1711.758	8750
1713.917	8766
1716.075	8718
1718.231	8863
1720.388	8771
1722.543	8670
1724.702	8707
1726.856	8696
1729.01	8809
1731.164	8845
1733.317	8724
1735.471	8789
1737.623	8726
1739.774	8772
1741.925	8829
1744.075	8802
1746.225	8635
1748.376	8675
1750.524	8808
1752.672	8775
1754.82	8707
1756.965	8790
1759.113	8752
1761.259	8806
1763.405	8669
1765.549	8762
1767.694	8756
1769.836	8836
1771.981	8776
1774.123	8786
1776.264	8861
1778.405	8871
1780.546	8957
1782.687	8788
1784.827	8864
1786.966	8715
1789.103	8876
1791.242	8813
1793.381	8779
1795.517	8866
1797.653	8879
1799.788	8816
1801.923	8858
1804.057	8911
1806.193	8807
1808.326	8862
1810.457	8756
1812.59	8753
1814.721	8802
1816.855	8831
1818.984	8900
1821.113	8752
1823.244	8731
1825.372	8865
1827.499	8749
1829.63	8870
1831.756	8827
1833.882	8762
1836.007	8764
1838.132	8842
1840.26	8716
1842.384	8753
1844.507	8684
1846.63	8865
1848.752	8709
1850.875	8725
1852.996	8744
1855.118	8702
1857.238	8763
1859.358	8730
1861.477	8721
1863.597	8653
1865.715	8639
1867.832	8789
1869.948	8758
1872.064	8654
1874.181	8673
1876.297	8714
1878.411	8768
1880.526	8681
1882.639	8798
1884.752	8798
1886.865	8653
1888.977	8728
1891.089	8830
1893.2	8929
1895.308	8802
1897.42	8803
1899.53	8670
1901.639	8833
1903.745	8652
1905.853	8912
1907.962	8828
1910.067	8833
1912.174	8854
1914.278	8819
1916.383	8874
1918.486	8846
1920.592	9006
1922.694	8823
1924.797	8873
1926.898	8950
1929	8892
1931.102	8753
1933.203	8982
1935.301	8780
1937.401	8930
1939.499	8814
1941.598	8857
1943.697	8818
1945.793	8858
1947.888	8786
1949.985	8997
1952.08	8872
1954.176	8865
1956.269	8894
1958.364	8990
1960.457	8900
1962.549	8971
1964.642	8736
1966.733	8860
1968.823	8858
1970.913	8815
1973.005	8742
1975.093	8722
1977.184	8744
1979.271	8829
1981.359	9000
1983.446	8592
1985.532	8770
1987.619	8851
1989.705	8823
1991.789	8813
1993.874	8724
1995.956	8797
1998.041	8763
2000.123	8734
2002.206	8634
2004.287	8690
2006.368	8693
2008.449	8812
2010.529	8721
2012.609	8873
2014.688	8877
2016.766	8746
2018.843	8754
2020.922	8725
2022.999	8703
2025.074	8780
2027.15	8815
2029.225	8779
2031.299	8761
2033.375	8669
2035.447	8677
2037.52	8793
2039.592	8725
2041.664	8696
2043.736	8712
2045.807	8823
2047.876	8699
2049.947	8735
2052.015	8701
2054.086	8724
2056.153	8695
2058.221	8658
2060.288	8712
2062.353	8693
2064.42	8731
2066.486	8783
2068.55	8776
2070.614	8691
2072.678	8747
2074.741	8814
2076.805	8758
2078.866	8811
2080.929	8668
2082.99	8708
2085.049	8759
2087.109	8898
2089.17	8846
2091.228	8768
2093.286	8820
2095.344	8748
2097.4	8707
2099.46	8724
2101.516	8732
2103.572	8666
2105.626	8780
2107.679	8846
2109.735	8691
2111.788	8693
2113.841	8703
2115.894	8749
2117.945	8745
2119.997	8705
2122.049	8807
2124.1	8784
2126.148	8827
2128.197	8696
2130.246	8668
2132.296	8722
2134.342	8786
2136.39	8689
2138.437	8754
2140.483	8621
2142.527	8841
2144.574	8638
2146.619	8607
2148.661	8794
2150.705	8807
2152.747	8647
2154.792	8837
2156.832	8670
2158.874	8643
2160.915	8635
2162.954	8521
2164.995	8524
2167.034	8616
2169.072	8676
2171.111	8563
2173.148	8494
2175.186	8776
2177.223	8562
2179.258	8462
2181.294	8642
2183.328	8570
2185.362	8519
2187.398	8590
2189.431	8553
2191.463	8467
2193.495	8570
2195.528	8497
2197.56	8465
2199.59	8506
2201.62	8552
2203.649	8526
2205.678	8477
2207.708	8414
2209.737	8659
2211.764	8481
2213.791	8406
2215.817	8479
2217.843	8530
2219.87	8447
2221.895	8521
2223.919	8344
2225.942	8424
2227.966	8433
2229.988	8489
2232.012	8362
2234.032	8359
2236.054	8383
2238.074	8435
2240.095	8424
2242.116	8400
2244.135	8420
2246.153	8479
2248.171	8345
2250.188	8511
2252.208	8421
2254.223	8382
2256.239	8532
2258.255	8439
2260.269	8435
2262.283	8473
2264.3	8421
2266.312	8546
2268.325	8344
2270.336	8486
2272.349	8474
2274.362	8399
2276.372	8515
2278.383	8353
2280.392	8421
2282.402	8541
2284.409	8528
2286.418	8416
2288.427	8453
2290.433	8407
2292.441	8424
2294.446	8468
2296.453	8481
2298.459	8430
2300.463	8329
2302.466	8411
2304.471	8470
2306.475	8410
2308.477	8311
2310.478	8423
2312.481	8525
2314.481	8338
2316.481	8350
2318.482	8149
2320.482	8349
2322.48	8369
2324.48	8285
2326.478	8207
2328.476	8303
2330.473	8276
2332.469	8278
2334.465	8308
2336.46	8344
2338.454	8308
2340.45	8251
2342.444	8272
2344.437	8151
2346.43	8210
2348.421	8124
2350.414	8200
2352.405	8306
2354.396	8276
2356.386	8149
2358.376	8190
2360.366	8208
2362.355	8108
2364.343	8120
2366.331	8151
2368.317	8120
2370.304	8088
2372.292	8212
2374.278	8106
2376.262	8129
2378.247	8082
2380.23	8195
2382.216	8240
2384.199	8154
2386.181	8089
2388.163	8153
2390.144	8149
2392.127	8209
2394.107	8062
2396.087	7963
2398.066	8007
2400.046	8233
2402.023	8043
2404.004	8203
2405.981	8090
2407.957	8019
2409.934	7845
2411.91	8061
2413.886	8160
2415.862	8147
2417.836	8059
2419.809	8073
2421.784	7956
2423.756	7951
2425.73	8077
2427.701	8030
2429.672	8034
2431.644	8072
2433.615	8138
2435.586	8021
2437.555	7980
2439.523	7911
2441.491	8010
2443.459	8038
2445.428	8017
2447.395	7977
2449.361	8011
2451.327	8030
2453.292	8079
2455.257	7992
2457.223	8057
2459.187	7986
2461.15	8072
2463.113	8036
2465.076	8046
2467.039	7949
2468.999	7972
2470.96	7933
2472.921	7929
2474.881	8034
2476.841	7988
2478.8	8041
2480.759	7933
2482.717	7974
2484.675	8030
2486.63	7761
2488.589	8057
2490.545	7888
2492.5	7962
2494.455	7882
2496.408	7847
2498.364	7835
2500.318	7948
2502.27	7881
2504.223	7916
2506.174	7945
2508.126	7887
2510.078	7941
2512.03	7812
2513.979	7828
2515.927	7852
2517.877	7956
2519.826	7832
2521.775	7901
2523.722	7843
2525.668	7927
2527.616	7894
2529.561	7822
2531.508	7833
2533.452	8038
2535.398	7816
2537.342	7916
2539.284	7824
2541.229	7876
2543.173	7762
2545.114	7775
2547.055	7853
2548.996	7814
2550.938	7886
2552.878	7816
2554.817	7733
2556.756	7891
2558.695	7848
2560.633	7974
2562.572	7910
2564.509	7867
2566.445	7781
2568.382	7874
2570.317	7734
2572.254	7870
2574.189	7817
2576.123	7883
2578.057	7831
2579.99	7914
2581.923	7717
2583.855	7838
2585.788	7916
2587.719	7817
2589.65	7893
2591.579	7743
2593.511	7773
2595.44	7873
2597.37	7817
2599.297	7824
2601.225	7888
2603.153	7847
2605.08	7885
2607.007	7964
2608.932	7739
2610.858	7875
2612.782	7832
2614.709	7810
2616.632	7814
2618.556	7924
2620.478	7880
2622.401	7727
2624.324	7838
2626.247	7736
2628.167	7783
2630.088	7898
2632.008	7847
2633.928	7766
2635.848	7870
2637.766	7809
2639.684	7792
2641.603	7810
2643.519	7853
2645.437	7969
2647.353	7803
2649.27	7811
2651.184	7897
2653.099	7733
2655.014	7823
2656.928	7783
2658.842	7939
2660.755	7810
2662.667	7893
2664.579	7793
2666.491	7831
2668.402	7792
2670.312	7831
2672.222	7812
2674.132	7736
2676.042	7708
2677.951	7814
2679.859	7712
2681.766	7608
2683.674	7681
2685.582	7743
2687.488	7771
2689.392	7737
2691.298	7656
2693.202	7683
2695.107	7696
2697.012	7669
2698.914	7710
2700.817	7639
2702.72	7775
2704.622	7636
2706.524	7681
2708.425	7669
2710.326	7800
2712.225	7733
2714.125	7562
2716.024	7625
2717.923	7671
2719.822	7665
2721.719	7622
2723.616	7641
2725.512	7683
2727.41	7674
2729.305	7612
2731.201	7523
2733.095	7616
2734.99	7697
2736.884	7619
2738.778	7649
2740.67	7796
2742.562	7605
2744.455	7638
2746.346	7575
2748.238	7620
2750.129	7592
2752.018	7694
2753.907	7463
2755.797	7582
2757.687	7738
2759.575	7619
2761.462	7695
2763.349	7496
2765.237	7469
2767.124	7579
2769.009	7620
2770.894	7651
2772.779	7513
2774.663	7551
2776.547	7530
2778.431	7514
2780.314	7609
2782.197	7469
2784.078	7534
2785.96	7391
2787.842	7633
2789.723	7546
2791.603	7432
2793.483	7375
2795.362	7590
2797.241	7581
2799.121	7561
2800.997	7494
2802.874	7607
2804.751	7430
2806.628	7608
2808.506	7531
2810.38	7437
2812.255	7482
2814.13	7419
2816.003	7547
2817.878	7547
2819.752	7463
2821.623	7563
2823.496	7360
2825.368	7510
2827.238	7415
2829.111	7509
2830.98	7455
2832.851	7494
2834.719	7511
2836.589	7384
2838.458	7427
2840.327	7424
2842.193	7304
2844.061	7391
2845.927	7548
2847.794	7401
2849.66	7561
2851.525	7463
2853.39	7454
2855.254	7636
2857.117	7513
2858.983	7504
2860.845	7523
2862.707	7559
2864.569	7512
2866.431	7544
2868.293	7634
2870.154	7635
2872.013	7614
2873.873	7635
2875.733	7794
2877.592	7802
2879.451	7747
2881.309	7796
2883.166	7814
2885.022	8040
2886.879	7901
2888.736	7913
2890.591	7955
2892.446	7993
2894.301	7853
2896.155	7847
2898.009	7896
2899.863	7992
2901.716	7899
2903.568	7916
2905.419	7952
2907.27	7725
2909.123	7934
2910.973	7877
2912.824	7969
2914.673	7878
2916.521	7960
2918.372	8106
2920.22	7991
2922.067	7906
2923.914	8126
2925.761	8073
2927.607	8103
2929.455	8118
2931.301	8212
2933.144	8147
2934.99	8267
2936.833	8214
2938.678	8303
2940.522	8276
2942.364	8339
2944.207	8406
2946.048	8352
2947.891	8454
2949.731	8540
2951.571	8533
2953.412	8497
2955.25	8447
2957.09	8367
2958.93	8234
2960.767	8355
2962.606	8328
2964.443	8402
2966.279	8193
2968.116	8171
2969.953	8073
2971.788	7985
2973.623	7985
2975.457	7798
2977.292	7898
2979.127	7875
2980.959	7880
2982.792	7750
2984.624	7769
2986.455	7679
2988.288	7680
2990.119	7627
2991.949	7654
2993.779	7761
2995.608	7539
2997.439	7485
2999.268	7521
3001.096	7458
3002.923	7412
3004.751	7385
3006.578	7322
3008.406	7444
3010.232	7296
3012.057	7296
3013.883	7262
3015.706	7287
3017.532	7201
3019.356	7132
3021.179	7144
3023.002	7200
3024.823	7101
3026.646	7047
3028.469	7102
3030.289	7067
3032.11	7040
3033.93	7059
3035.749	7108
3037.57	7104
3039.39	7023
3041.207	7151
3043.026	7013
3044.842	7064
3046.661	6993
3048.477	7079
3050.294	6964
3052.109	7024
3053.925	7084
3055.739	6844
3057.555	7001
3059.368	6956
3061.181	6939
3062.995	6925
3064.807	6819
3066.62	6732
3068.433	6827
3070.243	6913
3072.054	6907
3073.865	6891
3075.675	6845
3077.485	6930
3079.293	6855
3081.102	6924
3082.911	6891
3084.719	6737
3086.527	6892
3088.333	6953
3090.139	6842
3091.945	6743
3093.75	6838
3095.557	6711
3097.361	6697
3099.165	6792
3100.969	6669
3102.772	6772
3104.575	6802
3106.379	6672
3108.181	6660
3109.982	6675
3111.783	6688
3113.584	6750
3115.386	6674
3117.186	6714
3118.985	6623
3120.783	6602
3122.582	6599
3124.381	6514
3126.179	6606
3127.975	6598
3129.772	6571
3131.569	6664
3133.365	6553
3135.161	6640
3136.956	6621
3138.751	6572
3140.544	6589
3142.338	6547
3144.132	6494
3145.925	6552
3147.717	6520
3149.509	6609
3151.301	6611
3153.091	6500
3154.884	6576
3156.673	6497
3158.462	6438
3160.252	6463
3162.041	6384
3163.831	6500
3165.618	6571
3167.405	6583
3169.193	6473
3170.979	6412
3172.767	6588
3174.553	6503
3176.338	6477
3178.123	6449
3179.907	6481
3181.692	6508
3183.477	6469
3185.259	6422
3187.042	6369
3188.824	6434
3190.607	6338
3192.389	6479
3194.17	6461
3195.951	6375
3197.73	6358
3199.51	6355
3201.289	6417
3203.07	6475
3204.848	6360
3206.626	6304
3208.403	6402
3210.18	6408
3211.959	6395
3213.735	6429
3215.511	6435
3217.285	6373
3219.06	6349
3220.836	6259
3222.611	6323
3224.384	6311
3226.158	6220
3227.929	6387
3229.702	6243
3231.476	6349
3233.248	6426
3235.018	6299
3236.789	6391
3238.56	6371
3240.33	6265
3242.1	6241
3243.869	6269
3245.637	6339
3247.405	6208
3249.172	6182
3250.941	6326
3252.707	6340
3254.474	6250
3256.24	6368
3258.006	6407
3259.772	6303
3261.537	6363
3263.301	6341
3265.065	6317
3266.828	6314
3268.592	6315
3270.355	6383
3272.117	6169
3273.878	6398
3275.64	6217
3277.401	6386
3279.162	6190
3280.922	6322
3282.682	6334
3284.441	6265
3286.199	6384
3287.959	6293
3289.716	6256
3291.475	6349
3293.232	6293
3294.988	6273
3296.744	6279
3298.501	6286
3300.256	6251
3302.011	6191
3303.766	6264
3305.52	6302
3307.275	6225
3309.028	6202
3310.781	6237
3312.533	6325
3314.285	6265
3316.038	6257
3317.789	6350
3319.54	6286
3321.289	6189
3323.039	6265
3324.789	6155
3326.539	6178
3328.288	6176
3330.035	6235
3331.783	6216
3333.531	6225
3335.28	6218
3337.025	6123
3338.771	6233
3340.518	6098
3342.262	6153
3344.009	6141
3345.753	6240
3347.497	6123
3349.24	6131
3350.983	6086
3352.726	6070
3354.469	6086
3356.212	6126
3357.952	6083
3359.694	6041
3361.434	6040
3363.176	5972
3364.916	6172
3366.654	6078
3368.394	6128
3370.132	6044
3371.871	5978
3373.61	6023
3375.346	5989
3377.083	6110
3378.82	6091
3380.556	5962
3382.292	6006
3384.027	5974
3385.763	6003
3387.497	5949
3389.231	6008
3390.965	5917
3392.698	5984
3394.431	6004
3396.164	5998
3397.896	6014
3399.627	6003
3401.36	5960
3403.09	5918
3404.82	5971
3406.55	5925
3408.279	5877
3410.01	5880
3411.738	5954
3413.467	5964
3415.194	5957
3416.92	5955
3418.647	5861
3420.375	5888
3422.102	5983
3423.827	5869
3425.553	5781
3427.277	5950
3429.003	5883
3430.727	5828
3432.451	5882
3434.173	5805
3435.896	5786
3437.62	5868
3439.343	5969
3441.063	5835
3442.785	5713
3444.505	5775
3446.226	5766
3447.948	5797
3449.666	5779
3451.386	5908
3453.104	5833
3454.823	5787
3456.541	5726
3458.259	5714
3459.976	5770
3461.693	5841
3463.408	5680
3465.125	5749
3466.841	5669
3468.556	5665
3470.271	5740
3471.985	5768
3473.698	5693
3475.414	5678
3477.126	5598
3478.838	5687
3480.55	5640
3482.263	5664
3483.975	5677
3485.686	5607
3487.396	5559
3489.106	5723
3490.817	5514
3492.526	5669
3494.236	5560
3495.944	5596
3497.652	5610
3499.359	5593
3501.066	5440
3502.775	5584
3504.481	5592
3506.187	5547
3507.893	5591
3509.598	5502
3511.304	5525
3513.009	5512
3514.713	5514
3516.417	5460
3518.12	5482
3519.821	5489
3521.525	5496
3523.228	5554
3524.929	5505
3526.631	5486
3528.33	5491
3530.032	5526
3531.733	5450
3533.433	5465
3535.131	5318
3536.83	5426
3538.529	5441
3540.227	5411
3541.925	5423
3543.623	5308
3545.319	5331
3547.016	5439
3548.712	5430
3550.408	5509
3552.103	5370
3553.798	5359
3555.491	5384
3557.188	5481
3558.88	5444
3560.574	5377
3562.266	5370
3563.959	5490
3565.651	5324
3567.343	5341
3569.035	5385
3570.725	5270
3572.415	5262
3574.106	5314
3575.797	5374
3577.485	5363
3579.174	5155
3580.863	5375
3582.551	5290
3584.238	5346
3585.926	5262
3587.613	5277
3589.3	5272
3590.986	5211
3592.671	5286
3594.357	5330
3596.042	5363
3597.726	5254
3599.41	5242
3601.094	5198
3602.778	5207
3604.461	5248
3606.143	5148
3607.825	5217
3609.507	5179
3611.188	5214
3612.87	5081
3614.551	5136
3616.229	5233
3617.909	5087
3619.589	5226
3621.269	5229
3622.948	5102
3624.625	5113
3626.302	5113
3627.98	5088
3629.657	5079
3631.334	5145
3633.01	5013
3634.686	5147
3636.361	5073
3638.036	5101
3639.712	5091
3641.385	4987
3643.06	5012
3644.732	5050
3646.405	5061
3648.08	4998
3649.751	5009
3651.424	4993
3653.094	4952
3654.766	4983
3656.436	5010
3658.106	5062
3659.777	4908
3661.446	4993
3663.115	4940
3664.783	4972
3666.452	4994
3668.121	4902
3669.788	4970
3671.454	4971
3673.121	4899
3674.789	4974
3676.455	4958
3678.12	4991
3679.784	5002
3681.45	4925
3683.114	4918
3684.779	4994
3686.442	4960
3688.105	4780
3689.768	4890
3691.43	4907
3693.093	4820
3694.754	4868
3696.415	4885
3698.076	4870
3699.736	4916
3701.396	4911
3703.057	4870
3704.716	4830
3706.375	4790
3708.034	4917
3709.692	4883
3711.351	4863
3713.008	4844
3714.665	4985
3716.321	4783
3717.977	4916
3719.634	4747
3721.29	4827
3722.945	4737
3724.598	4847
3726.253	4943
3727.907	4841
3729.561	4817
3731.214	4861
3732.867	4785
3734.518	4798
3736.171	4731
3737.824	4816
3739.474	4737
3741.125	4755
3742.775	4784
3744.425	4801
3746.074	4741
3747.725	4754
3749.373	4772
3751.022	4732
3752.669	4778
3754.318	4802
3755.966	4688
3757.612	4773
3759.259	4646
3760.905	4753
3762.55	4672
3764.197	4717
3765.842	4689
3767.486	4702
3769.131	4643
3770.774	4723
3772.417	4682
3774.061	4670
3775.705	4676
3777.347	4744
3778.988	4720
3780.629	4707
3782.271	4719
3783.912	4637
3785.552	4664
3787.192	4580
3788.831	4693
3790.472	4629
3792.112	4621
3793.75	4615
3795.388	4577
3797.024	4614
3798.661	4584
3800.3	4595
3801.936	4607
3803.572	4606
3805.208	4509
3806.844	4546
3808.48	4620
3810.115	4616
3811.748	4616
3813.382	4544
3815.016	4499
3816.649	4516
3818.283	4547
3819.914	4534
3821.547	4521
3823.178	4605
3824.809	4464
3826.441	4578
3828.072	4496
3829.701	4556
3831.331	4468
3832.96	4499
3834.591	4511
3836.219	4460
3837.847	4398
3839.475	4473
3841.102	4376
3842.729	4396
3844.357	4522
3845.984	4462
3847.609	4532
3849.234	4547
3850.86	4403
3852.485	4372
3854.11	4432
3855.734	4415
3857.357	4381
3858.981	4504
3860.603	4362
3862.227	4458
3863.848	4446
3865.471	4372
3867.092	4389
3868.713	4409
3870.334	4332
3871.954	4439
3873.575	4318
3875.194	4426
3876.813	4391
3878.433	4345
3880.051	4349
3881.669	4347
3883.286	4417
3884.904	4449
3886.52	4354
3888.138	4395
3889.754	4383
3891.37	4470
3892.985	4426
3894.6	4490
3896.216	4386
3897.831	4284
3899.444	4354
3901.058	4334
3902.67	4280
3904.283	4400
3905.897	4349
3907.509	4268
3909.121	4316
3910.731	4261
3912.342	4346
3913.954	4229
3915.563	4374
3917.174	4301
3918.783	4324
3920.391	4276
3922.002	4260
3923.611	4273
3925.218	4266
3926.826	4349
3928.432	4237
3930.039	4304
3931.647	4239
3933.253	4231
3934.859	4271
3936.464	4203
3938.068	4271
3939.675	4261
3941.278	4200
3942.883	4258
3944.486	4220
3946.089	4204
3947.692	4196
3949.295	4275
3950.898	4245
3952.499	4189
3954.1	4264
3955.7	4231
3957.303	4127
3958.903	4187
3960.502	4211
3962.101	4227
3963.7	4135
3965.301	4205
3966.899	4175
3968.497	4157
3970.094	4212
3971.691	4185
3973.288	4105
3974.885	4151
3976.481	4127
3978.077	4186
3979.672	4148
3981.267	4100
3982.863	4079
3984.457	4139
3986.051	4065
3987.645	4135
3989.238	4140
3990.831	4132
3992.425	4118
3994.017	4128
3995.607	4143
3997.199	4105
3998.79	4049
4000.382	4123
4001.973	4066
4003.561	4142
4005.151	3997
4006.741	4009
4008.331	4017
4009.918	4069
4011.507	4037
4013.095	4042
4014.681	4035
4016.269	4056
4017.856	4076
4019.443	3996
4021.028	4002
4022.614	3964
4024.199	4016
4025.785	3983
4027.37	3961
4028.953	3993
4030.536	4073
4032.12	3960
4033.704	3943
4035.287	3947
4036.869	3914
4038.45	3969
4040.032	4007
4041.613	4011
4043.195	3966
4044.776	3937
4046.356	3867
4047.935	3926
4049.515	3897
4051.095	3879
4052.674	3893
4054.251	3906
4055.829	3924
4057.406	3868
4058.985	3837
4060.562	3826
4062.139	3945
4063.715	3902
4065.29	3931
4066.865	3864
4068.442	3864
4070.016	3812
4071.59	3848
4073.164	3851
4074.738	3913
4076.312	3786
4077.885	3864
4079.458	3909
4081.03	3822
4082.602	3803
4084.173	3819
4085.745	3828
4087.315	3857
4088.886	3896
4090.456	3899
4092.026	3794
4093.596	3742
4095.165	3857
4096.734	3733
4098.301	3787
4099.869	3768
4101.437	3824
4103.006	3733
4104.572	3812
4106.139	3847
4107.704	3880
4109.27	3840
4110.837	3746
4112.401	3696
4113.966	3829
4115.53	3764
4117.094	3788
4118.659	3762
4120.223	3796
4121.785	3709
4123.347	3732
4124.909	3783
4126.471	3782
4128.034	3636
4129.595	3770
4131.155	3744
4132.716	3716
4134.275	3656
4135.836	3701
4137.395	3706
4138.955	3584
4140.513	3712
4142.071	3708
4143.628	3675
4145.188	3610
4146.745	3658
4148.302	3660
4149.858	3560
4151.414	3655
4152.971	3596
4154.526	3599
4156.081	3673
4157.635	3597
4159.189	3612
4160.745	3592
4162.298	3658
4163.852	3554
4165.405	3596
4166.957	3505
4168.51	3542
4170.063	3559
4171.614	3557
4173.166	3597
4174.717	3622
4176.267	3543
4177.817	3601
4179.368	3594
4180.917	3577
4182.466	3551
4184.016	3495
4185.564	3526
4187.112	3527
4188.66	3560
4190.207	3563
4191.754	3465
4193.301	3495
4194.848	3490
4196.394	3599
4197.94	3498
4199.484	3455
4201.03	3425
4202.575	3566
4204.12	3494
4205.663	3485
4207.207	3471
4208.75	3503
4210.292	3488
4211.836	3415
4213.378	3393
4214.92	3503
4216.46	3431
4218.002	3493
4219.544	3476
4221.083	3450
4222.625	3462
4224.164	3401
4225.703	3358
4227.244	3490
4228.782	3465
4230.32	3506
4231.857	3398
4233.395	3387
4234.933	3404
4236.471	3419
4238.007	3464
4239.542	3375
4241.078	3371
4242.614	3377
4244.15	3416
4245.685	3467
4247.219	3440
4248.753	3474
4250.287	3331
4251.82	3336
4253.354	3389
4254.887	3393
4256.419	3387
4257.951	3374
4259.483	3378
4261.016	3418
4262.547	3438
4264.078	3349
4265.608	3394
4267.137	3379
4268.668	3354
4270.197	3347
4271.727	3289
4273.254	3330
4274.783	3261
4276.311	3282
4277.84	3326
4279.366	3394
4280.894	3343
4282.42	3317
4283.946	3215
4285.473	3249
4286.998	3268
4288.523	3328
4290.047	3305
4291.572	3306
4293.096	3232
4294.622	3316
4296.144	3228
4297.668	3206
4299.19	3359
4300.713	3342
4302.236	3371
4303.758	3228
4305.279	3285
4306.799	3339
4308.321	3257
4309.842	3264
4311.361	3279
4312.882	3217
4314.401	3246
