400.0961	3048
402.6185	3016
405.1424	3070
407.6635	3046
410.1838	2983
412.7035	3131
415.2225	3059
417.7388	3084
420.2585	3241
422.7754	3140
425.2917	3298
427.8072	3274
430.3221	3304
432.8363	3443
435.3498	3270
437.8626	3257
440.3727	3272
442.8841	3215
445.3969	3228
447.907	3215
450.4142	3220
452.9229	3315
455.4289	3252
457.9362	3152
460.4449	3213
462.9488	3156
465.454	3208
467.9566	3195
470.4604	3253
472.9637	3193
475.4662	3258
477.966	3212
480.4671	3215
482.9656	3223
485.4633	3231
487.9645	3260
490.4608	3205
492.9566	3209
495.4536	3230
497.948	3243
500.4437	3231
502.9387	3229
505.431	3175
507.9226	3256
510.4136	3298
512.9079	3322
515.3975	3292
517.8864	3249
520.3746	3227
522.8622	3386
525.3491	3335
527.8394	3292
530.3249	3311
532.8098	3230
535.2939	3312
537.7774	3249
540.2623	3329
542.7444	3296
545.2259	3303
547.7067	3314
550.1868	3428
552.6683	3358
555.147	3347
557.6231	3392
560.1005	3390
562.5773	3289
565.0534	3393
567.5308	3386
570.0056	3372
572.4776	3424
574.951	3418
577.4237	3375
579.8978	3504
582.3671	3397
584.8378	3500
587.3079	3536
589.7773	3527
592.244	3598
594.714	3530
597.1793	3462
599.6461	3535
602.1121	3397
604.5754	3432
607.0421	3411
609.5042	3465
611.9675	3431
614.4282	3430
616.8902	3496
619.3515	3430
621.8122	3463
624.2702	3430
626.7296	3390
629.1863	3303
631.6423	3341
634.1017	3368
636.5563	3353
639.0104	3357
641.4658	3331
643.9185	3422
646.3725	3404
648.8239	3394
651.2766	3451
653.7266	3393
656.176	3414
658.6247	3366
661.0748	3425
663.5242	3484
665.9709	3398
668.417	3442
670.8624	3462
673.3092	3445
675.7533	3404
678.1968	3509
680.6395	3429
683.0817	3490
685.5251	3544
687.9659	3504
690.4061	3516
692.8456	3543
695.2844	3535
697.7226	3495
700.1621	3536
702.599	3536
705.0332	3500
707.4688	3509
709.9036	3522
712.3399	3537
714.7735	3589
717.2044	3576
719.6367	3540
722.0683	3564
724.4993	3640
726.9296	3660
729.3593	3527
731.7883	3611
734.2147	3690
736.6423	3604
739.0714	3635
741.4958	3678
743.9216	3678
746.3447	3644
748.7691	3688
751.1929	3743
753.616	3735
756.0366	3714
758.4584	3744
760.8776	3691
763.2982	3809
765.718	3695
768.1373	3741
770.5539	3742
772.9698	3860
775.3871	3644
777.8038	3754
780.2178	3707
782.6332	3753
785.0459	3745
787.458	3752
789.8714	3735
792.2842	3714
794.6943	3738
797.1038	3724
799.5127	3797
801.9209	3793
804.3324	3770
806.7393	3809
809.1456	3846
811.5513	3873
813.9562	3768
816.3625	3858
818.7663	3720
821.1693	3800
823.5718	3858
825.9735	3787
828.3746	3807
830.7771	3837
833.177	3764
835.5762	3801
837.9747	3860
840.3727	3839
842.772	3878
845.1666	3879
847.5626	3920
849.958	3856
852.3527	3945
854.7488	3989
857.1403	3958
859.5331	4016
861.9253	3970
864.3168	3882
866.7057	3860
869.098	3919
871.4876	3940
873.8746	3959
876.263	3994
878.6487	3915
881.0378	3966
883.4243	3905
885.8081	3943
888.1933	3802
890.5759	3887
892.9598	3887
895.343	3952
897.7256	3973
900.1057	3852
902.4871	3936
904.8659	3909
907.246	3877
909.6254	3958
912.0023	3991
914.3786	4056
916.7562	4050
919.1331	4045
921.5074	4189
923.8831	4183
926.2562	4265
928.6287	4197
931.0005	4211
933.3757	4195
935.7462	4157
938.1162	4164
940.4855	4269
942.8542	4282
945.2242	4355
947.5916	4506
949.9584	4600
952.3266	4783
954.6921	5072
957.0571	5169
959.4233	5485
961.787	5591
964.15	5491
966.5125	5313
968.8742	4910
971.2354	4787
973.5959	4542
975.9559	4474
978.3151	4292
980.6738	4124
983.0338	4145
985.3912	4057
987.7461	4163
990.1022	4043
992.4578	4042
994.8127	3995
997.1689	4076
999.5207	4118
1001.874	4206
1004.226	4100
1006.576	4095
1008.929	4099
1011.28	4069
1013.628	4065
1015.977	4049
1018.324	4065
1020.674	4092
1023.019	4118
1025.366	4121
1027.713	4120
1030.056	4106
1032.399	4084
1034.746	4143
1037.087	4139
1039.431	4133
1041.771	4122
1044.113	4169
1046.454	4206
1048.793	4191
1051.133	4128
1053.471	4164
1055.807	4198
1058.146	4098
1060.483	4159
1062.818	4187
1065.153	4226
1067.489	4269
1069.822	4340
1072.156	4366
1074.488	4403
1076.82	4263
1079.15	4306
1081.48	4279
1083.814	4192
1086.143	4275
1088.471	4198
1090.799	4229
1093.126	4157
1095.452	4205
1097.78	4119
1100.105	4120
1102.43	4089
1104.754	4101
1107.077	4203
1109.4	4109
1111.722	4188
1114.044	4206
1116.365	4091
1118.685	4127
1121.005	4114
1123.324	4205
1125.643	4130
1127.961	4182
1130.278	4188
1132.595	4105
1134.911	4176
1137.226	4145
1139.541	4147
1141.854	4150
1144.167	4097
1146.482	4117
1148.793	4171
1151.105	4126
1153.414	4163
1155.725	4125
1158.033	4137
1160.344	4227
1162.651	4155
1164.959	4164
1167.265	4118
1169.572	4099
1171.878	4131
1174.184	4142
1176.488	4098
1178.79	4153
1181.094	4187
1183.396	4183
1185.699	4234
1188.001	4056
1190.301	4125
1192.6	4134
1194.9	4183
1197.2	4150
1199.497	4219
1201.794	4228
1204.09	4150
1206.387	4208
1208.684	4169
1210.978	4082
1213.272	4259
1215.565	4238
1217.858	4218
1220.15	4101
1222.443	4129
1224.734	4198
1227.024	4250
1229.313	4220
1231.602	4330
1233.892	4192
1236.18	4334
1238.467	4271
1240.754	4354
1243.04	4353
1245.325	4422
1247.612	4452
1249.896	4335
1252.178	4339
1254.461	4484
1256.743	4531
1259.027	4445
1261.308	4418
1263.587	4323
1265.867	4441
1268.146	4402
1270.425	4438
1272.703	4408
1274.981	4362
1277.256	4338
1279.532	4275
1281.808	4362
1284.083	4350
1286.358	4395
1288.63	4299
1290.904	4333
1293.175	4377
1295.449	4265
1297.719	4281
1299.99	4263
1302.259	4267
1304.529	4282
1306.798	4392
1309.065	4292
1311.333	4248
1313.599	4366
1315.866	4287
1318.131	4344
1320.396	4223
1322.66	4304
1324.925	4295
1327.187	4375
1329.448	4309
1331.711	4371
1333.974	4289
1336.234	4327
1338.493	4322
1340.752	4278
1343.01	4321
1345.269	4340
1347.526	4243
1349.784	4347
1352.04	4230
1354.295	4308
1356.552	4357
1358.806	4268
1361.059	4236
1363.312	4176
1365.564	4311
1367.818	4317
1370.069	4348
1372.318	4331
1374.568	4359
1376.817	4380
1379.066	4265
1381.316	4316
1383.564	4340
1385.809	4376
1388.056	4421
1390.301	4310
1392.549	4406
1394.793	4494
1397.036	4609
1399.279	4514
1401.522	4522
1403.763	4504
1406.007	4448
1408.248	4407
1410.487	4456
1412.727	4438
1414.965	4469
1417.205	4548
1419.442	4475
1421.68	4449
1423.915	4492
1426.152	4460
1428.388	4457
1430.623	4487
1432.857	4506
1435.091	4494
1437.323	4538
1439.556	4570
1441.789	4485
1444.019	4583
1446.25	4582
1448.48	4560
1450.708	4525
1452.938	4640
1455.167	4732
1457.394	4572
1459.62	4663
1461.846	4606
1464.073	4610
1466.299	4543
1468.523	4636
1470.746	4500
1472.969	4496
1475.191	4485
1477.415	4428
1479.636	4442
1481.858	4440
1484.078	4364
1486.298	4352
1488.518	4273
1490.736	4329
1492.954	4234
1495.169	4294
1497.386	4300
1499.602	4302
1501.819	4354
1504.034	4278
1506.248	4313
1508.462	4211
1510.675	4257
1512.888	4235
1515.1	4292
1517.311	4339
1519.522	4264
1521.732	4300
1523.942	4296
1526.151	4283
1528.36	4289
1530.566	4266
1532.773	4222
1534.98	4319
1537.187	4296
1539.392	4204
1541.596	4341
1543.801	4214
1546.005	4262
1548.208	4321
1550.411	4407
1552.612	4319
1554.814	4401
1557.013	4336
1559.212	4251
1561.414	4354
1563.612	4365
1565.811	4412
1568.007	4374
1570.203	4336
1572.403	4319
1574.598	4429
1576.792	4382
1578.988	4339
1581.181	4389
1583.376	4479
1585.568	4310
1587.761	4457
1589.952	4408
1592.143	4427
1594.333	4406
1596.524	4422
1598.715	4418
1600.903	4421
1603.091	4373
1605.278	4440
1607.466	4400
1609.652	4386
1611.838	4456
1614.023	4470
1616.207	4448
1618.391	4487
1620.576	4361
1622.759	4529
1624.941	4527
1627.123	4495
1629.304	4503
1631.484	4512
1633.664	4535
1635.844	4560
1638.022	4626
1640.201	4575
1642.38	4559
1644.556	4542
1646.732	4566
1648.908	4549
1651.084	4600
1653.257	4606
1655.433	4509
1657.607	4472
1659.779	4598
1661.951	4682
1664.122	4656
1666.295	4648
1668.467	4653
1670.635	4624
1672.805	4642
1674.973	4629
1677.142	4621
1679.31	4599
1681.478	4663
1683.644	4540
1685.81	4647
1687.975	4555
1690.142	4511
1692.305	4487
1694.468	4499
1696.632	4562
1698.794	4446
1700.957	4514
1703.119	4568
1705.279	4458
1707.439	4512
1709.598	4483
1711.758	4520
1713.917	4488
1716.075	4387
1718.231	4463
1720.388	4443
1722.543	4372
1724.702	4362
1726.856	4385
1729.01	4440
1731.164	4418
1733.317	4347
1735.471	4410
1737.623	4401
1739.774	4425
1741.925	4434
1744.075	4367
1746.225	4448
1748.376	4464
1750.524	4522
1752.672	4405
1754.82	4456
1756.965	4464
1759.113	4454
1761.259	4391
1763.405	4451
1765.549	4358
1767.694	4455
1769.836	4423
1771.981	4432
1774.123	4364
1776.264	4434
1778.405	4398
1780.546	4457
1782.687	4401
1784.827	4467
1786.966	4539
1789.103	4399
1791.242	4468
1793.381	4338
1795.517	4492
1797.653	4447
1799.788	4566
1801.923	4461
1804.057	4552
1806.193	4474
1808.326	4347
1810.457	4381
1812.59	4582
1814.721	4522
1816.855	4487
1818.984	4429
1821.113	4343
1823.244	4410
1825.372	4445
1827.499	4455
1829.63	4368
1831.756	4352
1833.882	4527
1836.007	4458
1838.132	4428
1840.26	4372
1842.384	4437
1844.507	4366
1846.63	4376
1848.752	4437
1850.875	4359
1852.996	4424
1855.118	4405
1857.238	4387
1859.358	4405
1861.477	4402
1863.597	4469
1865.715	4400
1867.832	4414
1869.948	4364
1872.064	4415
1874.181	4423
1876.297	4389
1878.411	4352
1880.526	4430
1882.639	4535
1884.752	4418
1886.865	4438
1888.977	4387
1891.089	4427
1893.2	4513
1895.308	4409
1897.42	4490
1899.53	4400
1901.639	4474
1903.745	4420
1905.853	4415
1907.962	4414
1910.067	4388
1912.174	4500
1914.278	4507
1916.383	4479
1918.486	4334
1920.592	4444
1922.694	4425
1924.797	4468
1926.898	4501
1929	4491
1931.102	4495
1933.203	4500
1935.301	4403
1937.401	4399
1939.499	4411
1941.598	4519
1943.697	4590
1945.793	4488
1947.888	4498
1949.985	4514
1952.08	4522
1954.176	4529
1956.269	4476
1958.364	4561
1960.457	4502
1962.549	4481
1964.642	4479
1966.733	4587
1968.823	4467
1970.913	4493
1973.005	4437
1975.093	4495
1977.184	4542
1979.271	4530
1981.359	4485
1983.446	4437
1985.532	4525
1987.619	4550
1989.705	4492
1991.789	4481
1993.874	4394
1995.956	4493
1998.041	4487
2000.123	4443
2002.206	4445
2004.287	4419
2006.368	4437
2008.449	4499
2010.529	4382
2012.609	4553
2014.688	4329
2016.766	4421
2018.843	4482
2020.922	4413
2022.999	4460
2025.074	4374
2027.15	4360
2029.225	4485
2031.299	4492
2033.375	4439
2035.447	4467
2037.52	4412
2039.592	4456
2041.664	4444
2043.736	4416
2045.807	4453
2047.876	4407
2049.947	4538
2052.015	4425
2054.086	4466
2056.153	4454
2058.221	4432
2060.288	4371
2062.353	4542
2064.42	4354
2066.486	4487
2068.55	4370
2070.614	4417
2072.678	4479
2074.741	4445
2076.805	4497
2078.866	4451
2080.929	4454
2082.99	4405
2085.049	4528
2087.109	4431
2089.17	4434
2091.228	4461
2093.286	4493
2095.344	4473
2097.4	4491
2099.46	4526
2101.516	4388
2103.572	4506
2105.626	4478
2107.679	4470
2109.735	4374
2111.788	4465
2113.841	4445
2115.894	4460
2117.945	4398
2119.997	4443
2122.049	4519
2124.1	4393
2126.148	4445
2128.197	4484
2130.246	4439
2132.296	4407
2134.342	4555
2136.39	4552
2138.437	4454
2140.483	4388
2142.527	4430
2144.574	4387
2146.619	4381
2148.661	4420
2150.705	4378
2152.747	4464
2154.792	4509
2156.832	4417
2158.874	4508
2160.915	4368
2162.954	4372
2164.995	4415
2167.034	4425
2169.072	4436
2171.111	4356
2173.148	4425
2175.186	4470
2177.223	4469
2179.258	4401
2181.294	4483
2183.328	4425
2185.362	4375
2187.398	4361
2189.431	4333
2191.463	4391
2193.495	4333
2195.528	4331
2197.56	4447
2199.59	4331
2201.62	4406
2203.649	4315
2205.678	4398
2207.708	4346
2209.737	4291
2211.764	4401
2213.791	4358
2215.817	4287
2217.843	4331
2219.87	4305
2221.895	4388
2223.919	4320
2225.942	4293
2227.966	4359
2229.988	4315
2232.012	4302
2234.032	4334
2236.054	4351
2238.074	4260
2240.095	4231
2242.116	4393
2244.135	4360
2246.153	4372
2248.171	4393
2250.188	4360
2252.208	4431
2254.223	4309
2256.239	4398
2258.255	4362
2260.269	4311
2262.283	4340
2264.3	4368
2266.312	4391
2268.325	4332
2270.336	4376
2272.349	4402
2274.362	4424
2276.372	4373
2278.383	4337
2280.392	4282
2282.402	4349
2284.409	4433
2286.418	4394
2288.427	4328
2290.433	4374
2292.441	4349
2294.446	4392
2296.453	4282
2298.459	4426
2300.463	4288
2302.466	4399
2304.471	4328
2306.475	4377
2308.477	4356
2310.478	4281
2312.481	4376
2314.481	4429
2316.481	4281
2318.482	4225
2320.482	4318
2322.48	4357
2324.48	4313
2326.478	4272
2328.476	4344
2330.473	4319
2332.469	4361
2334.465	4304
2336.46	4289
2338.454	4257
2340.45	4351
2342.444	4208
2344.437	4301
2346.43	4394
2348.421	4298
2350.414	4290
2352.405	4278
2354.396	4271
2356.386	4262
2358.376	4371
2360.366	4329
2362.355	4294
2364.343	4290
2366.331	4272
2368.317	4215
2370.304	4210
2372.292	4188
2374.278	4244
2376.262	4280
2378.247	4252
2380.23	4272
2382.216	4263
2384.199	4230
2386.181	4250
2388.163	4216
2390.144	4209
2392.127	4343
2394.107	4269
2396.087	4219
2398.066	4175
2400.046	4276
2402.023	4257
2404.004	4196
2405.981	4218
2407.957	4266
2409.934	4245
2411.91	4246
2413.886	4186
2415.862	4178
2417.836	4246
2419.809	4173
2421.784	4241
2423.756	4208
2425.73	4235
2427.701	4265
2429.672	4265
2431.644	4208
2433.615	4212
2435.586	4184
2437.555	4144
2439.523	4197
2441.491	4262
2443.459	4208
2445.428	4174
2447.395	4200
2449.361	4204
2451.327	4142
2453.292	4255
2455.257	4235
2457.223	4255
2459.187	4214
2461.15	4247
2463.113	4298
2465.076	4153
2467.039	4140
2468.999	4310
2470.96	4087
2472.921	4168
2474.881	4067
2476.841	4211
2478.8	4187
2480.759	4219
2482.717	4132
2484.675	4127
2486.63	4180
2488.589	4216
2490.545	4112
2492.5	4052
2494.455	4171
2496.408	4225
2498.364	4095
2500.318	4218
2502.27	4186
2504.223	4122
2506.174	4139
2508.126	4107
2510.078	4069
2512.03	4119
2513.979	4130
2515.927	4121
2517.877	4165
2519.826	4176
2521.775	4085
2523.722	4171
2525.668	4184
2527.616	4171
2529.561	4151
2531.508	4126
2533.452	4146
2535.398	4171
2537.342	4064
2539.284	4191
2541.229	4097
2543.173	4133
2545.114	4176
2547.055	4114
2548.996	4156
2550.938	4075
2552.878	4054
2554.817	4168
2556.756	4077
2558.695	4142
2560.633	4109
2562.572	4154
2564.509	4102
2566.445	4070
2568.382	4133
2570.317	4034
2572.254	4163
2574.189	4196
2576.123	4074
2578.057	4145
2579.99	4080
2581.923	4175
2583.855	4145
2585.788	4036
2587.719	4164
2589.65	4145
2591.579	4129
2593.511	4136
2595.44	4216
2597.37	4134
2599.297	4116
2601.225	4179
2603.153	4116
2605.08	4021
2607.007	4190
2608.932	4121
2610.858	4064
2612.782	4034
2614.709	4199
2616.632	4139
2618.556	4128
2620.478	4182
2622.401	4122
2624.324	4179
2626.247	4084
2628.167	4084
2630.088	4100
2632.008	4175
2633.928	4202
2635.848	4100
2637.766	4125
2639.684	4033
2641.603	4175
2643.519	4146
2645.437	4201
2647.353	4197
2649.27	4031
2651.184	4163
2653.099	4101
2655.014	4220
2656.928	4047
2658.842	4168
2660.755	4112
2662.667	4167
2664.579	4167
2666.491	4176
2668.402	4137
2670.312	4105
2672.222	4078
2674.132	4120
2676.042	4100
2677.951	4173
2679.859	4140
2681.766	4010
2683.674	4052
2685.582	4075
2687.488	4052
2689.392	4019
2691.298	4133
2693.202	4117
2695.107	4082
2697.012	4051
2698.914	4084
2700.817	4099
2702.72	4038
2704.622	4051
2706.524	4064
2708.425	4086
2710.326	4006
2712.225	4063
2714.125	4152
2716.024	4074
2717.923	4062
2719.822	4034
2721.719	4045
2723.616	4030
2725.512	4149
2727.41	4057
2729.305	4077
2731.201	4106
2733.095	4064
2734.99	4088
2736.884	4136
2738.778	4085
2740.67	4017
2742.562	4042
2744.455	4134
2746.346	4104
2748.238	4102
2750.129	4089
2752.018	4072
2753.907	4032
2755.797	4083
2757.687	4046
2759.575	4071
2761.462	4030
2763.349	4006
2765.237	4064
2767.124	4017
2769.009	4050
2770.894	4102
2772.779	3999
2774.663	4093
2776.547	4063
2778.431	4070
2780.314	4081
2782.197	4106
2784.078	4054
2785.96	4027
2787.842	4072
2789.723	4083
2791.603	4105
2793.483	3978
2795.362	3995
2797.241	4067
2799.121	4015
2800.997	4079
2802.874	4052
2804.751	3999
2806.628	3944
2808.506	3964
2810.38	4022
2812.255	4072
2814.13	3950
2816.003	4045
2817.878	4031
2819.752	3959
2821.623	4066
2823.496	4025
2825.368	4069
2827.238	4037
2829.111	4029
2830.98	4046
2832.851	4019
2834.719	4069
2836.589	4097
2838.458	4073
2840.327	4001
2842.193	4051
2844.061	4058
2845.927	4091
2847.794	4088
2849.66	4111
2851.525	4238
2853.39	4071
2855.254	4040
2857.117	4249
2858.983	4126
2860.845	4140
2862.707	4199
2864.569	4178
2866.431	4245
2868.293	4253
2870.154	4292
2872.013	4364
2873.873	4426
2875.733	4503
2877.592	4423
2879.451	4528
2881.309	4586
2883.166	4582
2885.022	4584
2886.879	4608
2888.736	4700
2890.591	4644
2892.446	4717
2894.301	4693
2896.155	4634
2898.009	4636
2899.863	4668
2901.716	4705
2903.568	4686
2905.419	4595
2907.27	4623
2909.123	4618
2910.973	4646
2912.824	4792
2914.673	4756
2916.521	4789
2918.372	4813
2920.22	4775
2922.067	4901
2923.914	5019
2925.761	5037
2927.607	5117
2929.455	5064
2931.301	5117
2933.144	5240
2934.99	5257
2936.833	5242
2938.678	5367
2940.522	5419
2942.364	5534
2944.207	5613
2946.048	5487
2947.891	5580
2949.731	5514
2951.571	5561
2953.412	5511
2955.25	5416
2957.09	5415
2958.93	5268
2960.767	5326
2962.606	5212
2964.443	5226
2966.279	5190
2968.116	5132
2969.953	5066
2971.788	4920
2973.623	4848
2975.457	4856
2977.292	4783
2979.127	4824
2980.959	4765
2982.792	4717
2984.624	4751
2986.455	4769
2988.288	4598
2990.119	4660
2991.949	4621
2993.779	4515
2995.608	4545
2997.439	4489
2999.268	4467
3001.096	4529
3002.923	4358
3004.751	4342
3006.578	4229
3008.406	4257
3010.232	4187
3012.057	4136
3013.883	4205
3015.706	4134
3017.532	4067
3019.356	4068
3021.179	4068
3023.002	4086
3024.823	3961
3026.646	4029
3028.469	3910
3030.289	3958
3032.11	3922
3033.93	3957
3035.749	3942
3037.57	3903
3039.39	3956
3041.207	3858
3043.026	3905
3044.842	3946
3046.661	3797
3048.477	3983
3050.294	3885
3052.109	3830
3053.925	3885
3055.739	3869
3057.555	3898
3059.368	3858
3061.181	3856
3062.995	3899
3064.807	3836
3066.62	3827
3068.433	4010
3070.243	3834
3072.054	3892
3073.865	3878
3075.675	3756
3077.485	3863
3079.293	3756
3081.102	3771
3082.911	3833
3084.719	3771
3086.527	3849
3088.333	3786
3090.139	3780
3091.945	3811
3093.75	3716
3095.557	3856
3097.361	3784
3099.165	3777
3100.969	3823
3102.772	3728
3104.575	3844
3106.379	3782
3108.181	3823
3109.982	3701
3111.783	3733
3113.584	3686
3115.386	3709
3117.186	3675
3118.985	3739
3120.783	3683
3122.582	3754
3124.381	3626
3126.179	3627
3127.975	3693
3129.772	3691
3131.569	3676
3133.365	3690
3135.161	3746
3136.956	3723
3138.751	3731
3140.544	3696
3142.338	3681
3144.132	3693
3145.925	3740
3147.717	3668
3149.509	3659
3151.301	3725
3153.091	3693
3154.884	3733
3156.673	3648
3158.462	3691
3160.252	3711
3162.041	3670
3163.831	3681
3165.618	3691
3167.405	3651
3169.193	3684
3170.979	3636
3172.767	3575
3174.553	3700
3176.338	3614
3178.123	3638
3179.907	3565
3181.692	3676
3183.477	3658
3185.259	3645
3187.042	3564
3188.824	3754
3190.607	3695
3192.389	3661
3194.17	3589
3195.951	3621
3197.73	3647
3199.51	3656
3201.289	3624
3203.07	3762
3204.848	3744
3206.626	3656
3208.403	3623
3210.18	3570
3211.959	3627
3213.735	3682
3215.511	3677
3217.285	3583
3219.06	3635
3220.836	3638
3222.611	3678
3224.384	3640
3226.158	3637
3227.929	3561
3229.702	3608
3231.476	3630
3233.248	3547
3235.018	3635
3236.789	3662
3238.56	3591
3240.33	3693
3242.1	3656
3243.869	3611
3245.637	3646
3247.405	3603
3249.172	3692
3250.941	3623
3252.707	3644
3254.474	3638
3256.24	3627
3258.006	3649
3259.772	3593
3261.537	3589
3263.301	3568
3265.065	3628
3266.828	3701
3268.592	3665
3270.355	3673
3272.117	3629
3273.878	3682
3275.64	3608
3277.401	3616
3279.162	3637
3280.922	3697
3282.682	3610
3284.441	3670
3286.199	3669
3287.959	3580
3289.716	3615
3291.475	3667
3293.232	3683
3294.988	3676
3296.744	3645
3298.501	3688
3300.256	3644
3302.011	3683
3303.766	3607
3305.52	3735
3307.275	3619
3309.028	3668
3310.781	3656
3312.533	3701
3314.285	3694
3316.038	3713
3317.789	3672
3319.54	3673
3321.289	3695
3323.039	3738
3324.789	3619
3326.539	3638
3328.288	3658
3330.035	3712
3331.783	3625
3333.531	3663
3335.28	3644
3337.025	3625
3338.771	3639
3340.518	3634
3342.262	3637
3344.009	3586
3345.753	3665
3347.497	3684
3349.24	3704
3350.983	3589
3352.726	3549
3354.469	3601
3356.212	3586
3357.952	3582
3359.694	3660
3361.434	3586
3363.176	3561
3364.916	3626
3366.654	3573
3368.394	3583
3370.132	3549
3371.871	3565
3373.61	3565
3375.346	3525
3377.083	3546
3378.82	3519
3380.556	3493
3382.292	3514
3384.027	3471
3385.763	3537
3387.497	3595
3389.231	3506
3390.965	3591
3392.698	3600
3394.431	3534
3396.164	3500
3397.896	3551
3399.627	3573
3401.36	3491
3403.09	3516
3404.82	3526
3406.55	3509
3408.279	3474
3410.01	3475
3411.738	3524
3413.467	3496
3415.194	3474
3416.92	3516
3418.647	3506
3420.375	3512
3422.102	3372
3423.827	3429
3425.553	3463
3427.277	3545
3429.003	3436
3430.727	3456
3432.451	3464
3434.173	3420
3435.896	3439
3437.62	3510
3439.343	3386
3441.063	3530
3442.785	3385
3444.505	3370
3446.226	3385
3447.948	3364
3449.666	3450
3451.386	3415
3453.104	3386
3454.823	3467
3456.541	3401
3458.259	3316
3459.976	3310
3461.693	3374
3463.408	3345
3465.125	3357
3466.841	3345
3468.556	3342
3470.271	3303
3471.985	3444
3473.698	3380
3475.414	3306
3477.126	3324
3478.838	3323
3480.55	3366
3482.263	3260
3483.975	3332
3485.686	3392
3487.396	3271
3489.106	3289
3490.817	3258
3492.526	3300
3494.236	3268
3495.944	3281
3497.652	3298
3499.359	3260
3501.066	3269
3502.775	3234
3504.481	3217
3506.187	3230
3507.893	3197
3509.598	3229
3511.304	3234
3513.009	3225
3514.713	3177
3516.417	3163
3518.12	3215
3519.821	3131
3521.525	3140
3523.228	3211
3524.929	3219
3526.631	3151
3528.33	3165
3530.032	3208
3531.733	3187
3533.433	3167
3535.131	3202
3536.83	3100
3538.529	3161
3540.227	3158
3541.925	3147
3543.623	3120
3545.319	3157
3547.016	3169
3548.712	3196
3550.408	3127
3552.103	3100
3553.798	3087
3555.491	3162
3557.188	3104
3558.88	3086
3560.574	3087
3562.266	3118
3563.959	3114
3565.651	3091
3567.343	3058
3569.035	3102
3570.725	3111
3572.415	3084
3574.106	3096
3575.797	3057
3577.485	3021
3579.174	2960
3580.863	3018
3582.551	3086
3584.238	3033
3585.926	2995
3587.613	3098
3589.3	2974
3590.986	3046
3592.671	2999
3594.357	2991
3596.042	2952
3597.726	2991
3599.41	3082
3601.094	2973
3602.778	3017
3604.461	2927
3606.143	3005
3607.825	2943
3609.507	2990
3611.188	2947
3612.87	3004
3614.551	2972
3616.229	2915
3617.909	2929
3619.589	2909
3621.269	2918
3622.948	2984
3624.625	2915
3626.302	2812
3627.98	2858
3629.657	2904
3631.334	2907
3633.01	2871
3634.686	2844
3636.361	2938
3638.036	2905
3639.712	2908
3641.385	2849
3643.06	2852
3644.732	2862
3646.405	2877
3648.08	2869
3649.751	2853
3651.424	2868
3653.094	2871
3654.766	2817
3656.436	2875
3658.106	2843
3659.777	2741
3661.446	2862
3663.115	2788
3664.783	2790
3666.452	2820
3668.121	2871
3669.788	2896
3671.454	2846
3673.121	2750
3674.789	2824
3676.455	2747
3678.12	2785
3679.784	2787
3681.45	2859
3683.114	2757
3684.779	2789
3686.442	2782
3688.105	2803
3689.768	2762
3691.43	2772
3693.093	2740
3694.754	2744
3696.415	2763
3698.076	2790
3699.736	2745
3701.396	2746
3703.057	2789
3704.716	2730
3706.375	2713
3708.034	2756
3709.692	2760
3711.351	2727
3713.008	2751
3714.665	2822
3716.321	2695
3717.977	2740
3719.634	2773
3721.29	2721
3722.945	2714
3724.598	2748
3726.253	2788
3727.907	2737
3729.561	2676
3731.214	2695
3732.867	2681
3734.518	2787
3736.171	2668
3737.824	2743
3739.474	2749
3741.125	2763
3742.775	2703
3744.425	2722
3746.074	2723
3747.725	2700
3749.373	2652
3751.022	2714
3752.669	2657
3754.318	2590
3755.966	2697
3757.612	2689
3759.259	2703
3760.905	2699
3762.55	2631
3764.197	2691
3765.842	2672
3767.486	2659
3769.131	2705
3770.774	2655
3772.417	2706
3774.061	2658
3775.705	2660
3777.347	2638
3778.988	2617
3780.629	2703
3782.271	2620
3783.912	2667
3785.552	2573
3787.192	2668
3788.831	2705
3790.472	2564
3792.112	2629
3793.75	2606
3795.388	2586
3797.024	2537
3798.661	2632
3800.3	2604
3801.936	2612
3803.572	2688
3805.208	2554
3806.844	2614
3808.48	2563
3810.115	2607
3811.748	2567
3813.382	2591
3815.016	2620
3816.649	2610
3818.283	2631
3819.914	2550
3821.547	2587
3823.178	2598
3824.809	2519
3826.441	2553
3828.072	2584
3829.701	2625
3831.331	2589
3832.96	2572
3834.591	2602
3836.219	2658
3837.847	2606
3839.475	2587
3841.102	2435
3842.729	2588
3844.357	2599
3845.984	2509
3847.609	2544
3849.234	2546
3850.86	2536
3852.485	2522
3854.11	2502
3855.734	2533
3857.357	2492
3858.981	2546
3860.603	2543
3862.227	2555
3863.848	2517
3865.471	2542
3867.092	2464
3868.713	2470
3870.334	2490
3871.954	2499
3873.575	2510
3875.194	2459
3876.813	2456
3878.433	2525
3880.051	2527
3881.669	2472
3883.286	2520
3884.904	2515
3886.52	2490
3888.138	2494
3889.754	2522
3891.37	2432
3892.985	2495
3894.6	2519
3896.216	2521
3897.831	2475
3899.444	2488
3901.058	2549
3902.67	2426
3904.283	2475
3905.897	2509
3907.509	2513
3909.121	2519
3910.731	2443
3912.342	2463
3913.954	2426
3915.563	2433
3917.174	2518
3918.783	2461
3920.391	2493
3922.002	2436
3923.611	2459
3925.218	2441
3926.826	2495
3928.432	2388
3930.039	2450
3931.647	2458
3933.253	2453
3934.859	2424
3936.464	2462
3938.068	2470
3939.675	2404
3941.278	2436
3942.883	2441
3944.486	2461
3946.089	2444
3947.692	2442
3949.295	2447
3950.898	2369
3952.499	2417
3954.1	2446
3955.7	2495
3957.303	2389
3958.903	2482
3960.502	2448
3962.101	2422
3963.7	2408
3965.301	2480
3966.899	2451
3968.497	2407
3970.094	2435
3971.691	2404
3973.288	2386
3974.885	2383
3976.481	2438
3978.077	2371
3979.672	2361
3981.267	2393
3982.863	2374
3984.457	2375
3986.051	2318
3987.645	2369
3989.238	2370
3990.831	2410
3992.425	2299
3994.017	2389
3995.607	2304
3997.199	2352
3998.79	2314
4000.382	2320
4001.973	2318
4003.561	2280
4005.151	2301
4006.741	2358
4008.331	2308
4009.918	2346
4011.507	2362
4013.095	2333
4014.681	2264
4016.269	2364
4017.856	2348
4019.443	2245
4021.028	2334
4022.614	2322
4024.199	2274
4025.785	2322
4027.37	2346
4028.953	2337
4030.536	2313
4032.12	2308
4033.704	2276
4035.287	2279
4036.869	2243
4038.45	2292
4040.032	2238
4041.613	2254
4043.195	2318
4044.776	2287
4046.356	2325
4047.935	2343
4049.515	2281
4051.095	2260
4052.674	2253
4054.251	2244
4055.829	2277
4057.406	2258
4058.985	2242
4060.562	2249
4062.139	2263
4063.715	2311
4065.29	2209
4066.865	2293
4068.442	2290
4070.016	2230
4071.59	2240
4073.164	2273
4074.738	2215
4076.312	2264
4077.885	2248
4079.458	2231
4081.03	2256
4082.602	2280
4084.173	2187
4085.745	2195
4087.315	2137
4088.886	2242
4090.456	2244
4092.026	2175
4093.596	2240
4095.165	2229
4096.734	2152
4098.301	2195
4099.869	2219
4101.437	2204
4103.006	2239
4104.572	2211
4106.139	2214
4107.704	2224
4109.27	2210
4110.837	2217
4112.401	2188
4113.966	2188
4115.53	2182
4117.094	2213
4118.659	2160
4120.223	2210
4121.785	2143
4123.347	2156
4124.909	2113
4126.471	2197
4128.034	2157
4129.595	2211
4131.155	2130
4132.716	2143
4134.275	2178
4135.836	2113
4137.395	2121
4138.955	2046
4140.513	2186
4142.071	2141
4143.628	2152
4145.188	2097
4146.745	2083
4148.302	2157
4149.858	2129
4151.414	2163
4152.971	2138
4154.526	2146
4156.081	2062
4157.635	2118
4159.189	2091
4160.745	2103
4162.298	2084
4163.852	2092
4165.405	2106
4166.957	2115
4168.51	2162
4170.063	2070
4171.614	2080
4173.166	2122
4174.717	2070
4176.267	2126
4177.817	2102
4179.368	2108
4180.917	2090
4182.466	2076
4184.016	2058
4185.564	2078
4187.112	2060
4188.66	2059
4190.207	2050
4191.754	2081
4193.301	2044
4194.848	2072
4196.394	2033
4197.94	2046
4199.484	2109
4201.03	2112
4202.575	2064
4204.12	2069
4205.663	2043
4207.207	2015
4208.75	2063
4210.292	2038
4211.836	2072
4213.378	2068
4214.92	2065
4216.46	2046
4218.002	2023
4219.544	2054
4221.083	2042
4222.625	2050
4224.164	2050
4225.703	1998
4227.244	2015
4228.782	2063
4230.32	2021
4231.857	1996
4233.395	2020
4234.933	2095
4236.471	2014
4238.007	2036
4239.542	2057
4241.078	1996
4242.614	2023
4244.15	2009
4245.685	2052
4247.219	2020
4248.753	2007
4250.287	1940
4251.82	2022
4253.354	2001
4254.887	2056
4256.419	1993
4257.951	1972
4259.483	2023
4261.016	2058
4262.547	1981
4264.078	1970
4265.608	1988
4267.137	1990
4268.668	1995
4270.197	1971
4271.727	2017
4273.254	2024
4274.783	1989
4276.311	1972
4277.84	1986
4279.366	2004
4280.894	1964
4282.42	1967
4283.946	1971
4285.473	1982
4286.998	1974
4288.523	1925
4290.047	1956
4291.572	1946
4293.096	1957
4294.622	1947
4296.144	2022
4297.668	1959
4299.19	1917
4300.713	1922
4302.236	1954
4303.758	1926
4305.279	1954
4306.799	1926
4308.321	1913
4309.842	1943
4311.361	1961
4312.882	1948
4314.401	1982
