400.0961	4381
402.6185	4362
405.1424	4356
407.6635	4273
410.1838	4333
412.7035	4332
415.2225	4449
417.7388	4451
420.2585	4513
422.7754	4547
425.2917	4550
427.8072	4646
430.3221	4751
432.8363	4630
435.3498	4691
437.8626	4630
440.3727	4658
442.8841	4682
445.3969	4690
447.907	4614
450.4142	4585
452.9229	4652
455.4289	4593
457.9362	4529
460.4449	4565
462.9488	4672
465.454	4584
467.9566	4604
470.4604	4567
472.9637	4601
475.4662	4608
477.966	4652
480.4671	4648
482.9656	4715
485.4633	4576
487.9645	4652
490.4608	4652
492.9566	4708
495.4536	4709
497.948	4709
500.4437	4759
502.9387	4761
505.431	4730
507.9226	4701
510.4136	4692
512.9079	4761
515.3975	4786
517.8864	4799
520.3746	4787
522.8622	4824
525.3491	4798
527.8394	4781
530.3249	4811
532.8098	4812
535.2939	4789
537.7774	4824
540.2623	4830
542.7444	4764
545.2259	4740
547.7067	4860
550.1868	4778
552.6683	4727
555.147	4751
557.6231	4877
560.1005	4879
562.5773	4879
565.0534	4857
567.5308	4947
570.0056	4892
572.4776	4941
574.951	4928
577.4237	5025
579.8978	5041
582.3671	4897
584.8378	4945
587.3079	5064
589.7773	5032
592.244	5020
594.714	5008
597.1793	4947
599.6461	5028
602.1121	4973
604.5754	4981
607.0421	4897
609.5042	4988
611.9675	4991
614.4282	5025
616.8902	4869
619.3515	4941
621.8122	4966
624.2702	4950
626.7296	4983
629.1863	5041
631.6423	4934
634.1017	4940
636.5563	4915
639.0104	4907
641.4658	4930
643.9185	5051
646.3725	4916
648.8239	4948
651.2766	4914
653.7266	4952
656.176	4936
658.6247	4986
661.0748	4935
663.5242	5046
665.9709	5106
668.417	4978
670.8624	5085
673.3092	4962
675.7533	5082
678.1968	5052
680.6395	5025
683.0817	5071
685.5251	5081
687.9659	5166
690.4061	5092
692.8456	5124
695.2844	5145
697.7226	5058
700.1621	5117
702.599	5116
705.0332	5195
707.4688	5229
709.9036	5190
712.3399	5206
714.7735	5132
717.2044	5159
719.6367	5198
722.0683	5113
724.4993	5276
726.9296	5194
729.3593	5192
731.7883	5291
734.2147	5356
736.6423	5279
739.0714	5394
741.4958	5427
743.9216	5309
746.3447	5327
748.7691	5361
751.1929	5386
753.616	5461
756.0366	5384
758.4584	5422
760.8776	5441
763.2982	5423
765.718	5377
768.1373	5452
770.5539	5490
772.9698	5426
775.3871	5432
777.8038	5470
780.2178	5404
782.6332	5392
785.0459	5389
787.458	5434
789.8714	5517
792.2842	5468
794.6943	5342
797.1038	5558
799.5127	5388
801.9209	5356
804.3324	5428
806.7393	5497
809.1456	5403
811.5513	5387
813.9562	5616
816.3625	5480
818.7663	5520
821.1693	5521
823.5718	5655
825.9735	5484
828.3746	5498
830.7771	5662
833.177	5578
835.5762	5553
837.9747	5582
840.3727	5603
842.772	5501
845.1666	5617
847.5626	5575
849.958	5643
852.3527	5758
854.7488	5731
857.1403	5602
859.5331	5597
861.9253	5767
864.3168	5700
866.7057	5689
869.098	5559
871.4876	5702
873.8746	5812
876.263	5605
878.6487	5684
881.0378	5524
883.4243	5702
885.8081	5700
888.1933	5657
890.5759	5579
892.9598	5662
895.343	5592
897.7256	5674
900.1057	5652
902.4871	5744
904.8659	5660
907.246	5688
909.6254	5703
912.0023	5811
914.3786	5812
916.7562	5877
919.1331	5833
921.5074	5877
923.8831	5858
926.2562	6077
928.6287	5979
931.0005	5987
933.3757	6010
935.7462	6135
938.1162	5920
940.4855	6251
942.8542	6065
945.2242	6181
947.5916	6362
949.9584	6459
952.3266	6626
954.6921	7015
957.0571	7276
959.4233	7569
961.787	7481
964.15	7568
966.5125	7222
968.8742	7064
971.2354	6698
973.5959	6438
975.9559	6206
978.3151	6022
980.6738	6040
983.0338	5981
985.3912	5993
987.7461	5894
990.1022	5813
992.4578	5730
994.8127	6002
997.1689	5893
999.5207	5926
1001.874	5959
1004.226	5882
1006.576	5945
1008.929	5937
1011.28	5971
1013.628	5852
1015.977	5949
1018.324	5887
1020.674	5971
1023.019	5918
1025.366	6037
1027.713	6088
1030.056	6023
1032.399	6061
1034.746	6006
1037.087	5936
1039.431	5954
1041.771	5967
1044.113	6053
1046.454	6045
1048.793	6019
1051.133	5919
1053.471	6022
1055.807	5995
1058.146	6010
1060.483	5982
1062.818	6066
1065.153	6150
1067.489	6218
1069.822	6263
1072.156	6234
1074.488	6117
1076.82	6189
1079.15	6163
1081.48	6098
1083.814	6028
1086.143	6153
1088.471	6100
1090.799	6037
1093.126	5956
1095.452	6124
1097.78	6016
1100.105	6016
1102.43	6061
1104.754	5878
1107.077	6031
1109.4	5989
1111.722	6024
1114.044	6055
1116.365	6077
1118.685	6009
1121.005	5960
1123.324	5979
1125.643	6059
1127.961	6113
1130.278	6075
1132.595	6093
1134.911	5956
1137.226	6040
1139.541	6030
1141.854	6106
1144.167	5948
1146.482	5995
1148.793	6110
1151.105	5995
1153.414	6009
1155.725	6045
1158.033	6093
1160.344	6087
1162.651	6094
1164.959	6060
1167.265	6039
1169.572	5987
1171.878	6015
1174.184	6003
1176.488	5878
1178.79	6093
1181.094	6114
1183.396	6028
1185.699	6054
1188.001	6007
1190.301	5970
1192.6	6043
1194.9	6150
1197.2	6022
1199.497	6025
1201.794	6116
1204.09	6067
1206.387	6078
1208.684	6037
1210.978	6075
1213.272	6046
1215.565	6112
1217.858	6108
1220.15	6092
1222.443	6147
1224.734	6167
1227.024	6127
1229.313	6177
1231.602	6083
1233.892	6279
1236.18	6270
1238.467	6179
1240.754	6318
1243.04	6353
1245.325	6290
1247.612	6327
1249.896	6343
1252.178	6395
1254.461	6295
1256.743	6366
1259.027	6300
1261.308	6350
1263.587	6344
1265.867	6313
1268.146	6468
1270.425	6425
1272.703	6298
1274.981	6361
1277.256	6429
1279.532	6295
1281.808	6299
1284.083	6406
1286.358	6309
1288.63	6273
1290.904	6170
1293.175	6291
1295.449	6136
1297.719	6305
1299.99	6165
1302.259	6213
1304.529	6175
1306.798	6205
1309.065	6260
1311.333	6207
1313.599	6255
1315.866	6312
1318.131	6245
1320.396	6263
1322.66	6245
1324.925	6246
1327.187	6286
1329.448	6309
1331.711	6322
1333.974	6258
1336.234	6178
1338.493	6217
1340.752	6308
1343.01	6269
1345.269	6239
1347.526	6217
1349.784	6139
1352.04	6226
1354.295	6141
1356.552	6318
1358.806	6297
1361.059	6227
1363.312	6245
1365.564	6175
1367.818	6345
1370.069	6245
1372.318	6174
1374.568	6167
1376.817	6325
1379.066	6344
1381.316	6364
1383.564	6270
1385.809	6377
1388.056	6366
1390.301	6488
1392.549	6400
1394.793	6432
1397.036	6470
1399.279	6449
1401.522	6496
1403.763	6558
1406.007	6453
1408.248	6365
1410.487	6313
1412.727	6409
1414.965	6406
1417.205	6458
1419.442	6454
1421.68	6474
1423.915	6544
1426.152	6482
1428.388	6464
1430.623	6478
1432.857	6556
1435.091	6481
1437.323	6557
1439.556	6634
1441.789	6613
1444.019	6599
1446.25	6547
1448.48	6701
1450.708	6639
1452.938	6660
1455.167	6663
1457.394	6757
1459.62	6666
1461.846	6585
1464.073	6592
1466.299	6564
1468.523	6602
1470.746	6481
1472.969	6559
1475.191	6367
1477.415	6446
1479.636	6450
1481.858	6448
1484.078	6364
1486.298	6375
1488.518	6233
1490.736	6329
1492.954	6363
1495.169	6332
1497.386	6198
1499.602	6331
1501.819	6174
1504.034	6195
1506.248	6381
1508.462	6235
1510.675	6202
1512.888	6171
1515.1	6252
1517.311	6223
1519.522	6324
1521.732	6202
1523.942	6253
1526.151	6323
1528.36	6298
1530.566	6142
1532.773	6302
1534.98	6159
1537.187	6166
1539.392	6233
1541.596	6329
1543.801	6288
1546.005	6278
1548.208	6314
1550.411	6237
1552.612	6303
1554.814	6316
1557.013	6373
1559.212	6319
1561.414	6519
1563.612	6379
1565.811	6422
1568.007	6337
1570.203	6453
1572.403	6390
1574.598	6459
1576.792	6541
1578.988	6449
1581.181	6339
1583.376	6335
1585.568	6452
1587.761	6420
1589.952	6395
1592.143	6398
1594.333	6520
1596.524	6385
1598.715	6433
1600.903	6425
1603.091	6469
1605.278	6571
1607.466	6571
1609.652	6533
1611.838	6475
1614.023	6507
1616.207	6508
1618.391	6503
1620.576	6465
1622.759	6525
1624.941	6461
1627.123	6566
1629.304	6574
1631.484	6656
1633.664	6573
1635.844	6586
1638.022	6608
1640.201	6634
1642.38	6670
1644.556	6621
1646.732	6649
1648.908	6561
1651.084	6762
1653.257	6713
1655.433	6683
1657.607	6675
1659.779	6688
1661.951	6678
1664.122	6710
1666.295	6734
1668.467	6739
1670.635	6812
1672.805	6789
1674.973	6683
1677.142	6710
1679.31	6760
1681.478	6589
1683.644	6592
1685.81	6591
1687.975	6528
1690.142	6591
1692.305	6627
1694.468	6646
1696.632	6639
1698.794	6569
1700.957	6568
1703.119	6567
1705.279	6533
1707.439	6429
1709.598	6485
1711.758	6424
1713.917	6392
1716.075	6559
1718.231	6364
1720.388	6315
1722.543	6405
1724.702	6360
1726.856	6412
1729.01	6327
1731.164	6514
1733.317	6527
1735.471	6503
1737.623	6424
1739.774	6449
1741.925	6425
1744.075	6358
1746.225	6494
1748.376	6428
1750.524	6411
1752.672	6495
1754.82	6384
1756.965	6446
1759.113	6491
1761.259	6459
1763.405	6449
1765.549	6574
1767.694	6476
1769.836	6479
1771.981	6473
1774.123	6486
1776.264	6501
1778.405	6527
1780.546	6568
1782.687	6538
1784.827	6477
1786.966	6563
1789.103	6491
1791.242	6494
1793.381	6479
1795.517	6406
1797.653	6566
1799.788	6657
1801.923	6494
1804.057	6504
1806.193	6483
1808.326	6548
1810.457	6502
1812.59	6404
1814.721	6563
1816.855	6437
1818.984	6583
1821.113	6419
1823.244	6477
1825.372	6476
1827.499	6555
1829.63	6474
1831.756	6456
1833.882	6411
1836.007	6524
1838.132	6507
1840.26	6453
1842.384	6498
1844.507	6527
1846.63	6457
1848.752	6463
1850.875	6450
1852.996	6572
1855.118	6465
1857.238	6411
1859.358	6415
1861.477	6459
1863.597	6307
1865.715	6488
1867.832	6423
1869.948	6466
1872.064	6329
1874.181	6606
1876.297	6399
1878.411	6463
1880.526	6527
1882.639	6410
1884.752	6494
1886.865	6465
1888.977	6449
1891.089	6482
1893.2	6507
1895.308	6425
1897.42	6549
1899.53	6458
1901.639	6504
1903.745	6520
1905.853	6555
1907.962	6596
1910.067	6468
1912.174	6526
1914.278	6511
1916.383	6536
1918.486	6551
1920.592	6516
1922.694	6434
1924.797	6475
1926.898	6528
1929	6620
1931.102	6539
1933.203	6498
1935.301	6559
1937.401	6554
1939.499	6526
1941.598	6653
1943.697	6616
1945.793	6556
1947.888	6505
1949.985	6622
1952.08	6427
1954.176	6564
1956.269	6602
1958.364	6623
1960.457	6607
1962.549	6581
1964.642	6642
1966.733	6629
1968.823	6522
1970.913	6453
1973.005	6623
1975.093	6540
1977.184	6541
1979.271	6462
1981.359	6537
1983.446	6382
1985.532	6441
1987.619	6469
1989.705	6451
1991.789	6481
1993.874	6563
1995.956	6478
1998.041	6453
2000.123	6427
2002.206	6484
2004.287	6402
2006.368	6467
2008.449	6489
2010.529	6447
2012.609	6505
2014.688	6463
2016.766	6491
2018.843	6528
2020.922	6370
2022.999	6417
2025.074	6441
2027.15	6469
2029.225	6408
2031.299	6483
2033.375	6337
2035.447	6487
2037.52	6390
2039.592	6546
2041.664	6503
2043.736	6446
2045.807	6400
2047.876	6523
2049.947	6483
2052.015	6544
2054.086	6443
2056.153	6546
2058.221	6463
2060.288	6581
2062.353	6496
2064.42	6426
2066.486	6424
2068.55	6511
2070.614	6396
2072.678	6516
2074.741	6472
2076.805	6561
2078.866	6480
2080.929	6509
2082.99	6382
2085.049	6579
2087.109	6490
2089.17	6502
2091.228	6440
2093.286	6469
2095.344	6530
2097.4	6523
2099.46	6490
2101.516	6486
2103.572	6556
2105.626	6419
2107.679	6481
2109.735	6532
2111.788	6500
2113.841	6606
2115.894	6452
2117.945	6527
2119.997	6474
2122.049	6434
2124.1	6519
2126.148	6402
2128.197	6508
2130.246	6452
2132.296	6436
2134.342	6459
2136.39	6389
2138.437	6451
2140.483	6421
2142.527	6413
2144.574	6431
2146.619	6486
2148.661	6494
2150.705	6401
2152.747	6479
2154.792	6470
2156.832	6386
2158.874	6465
2160.915	6412
2162.954	6348
2164.995	6417
2167.034	6351
2169.072	6446
2171.111	6429
2173.148	6406
2175.186	6425
2177.223	6319
2179.258	6368
2181.294	6462
2183.328	6357
2185.362	6305
2187.398	6355
2189.431	6420
2191.463	6328
2193.495	6384
2195.528	6302
2197.56	6399
2199.59	6335
2201.62	6370
2203.649	6396
2205.678	6282
2207.708	6211
2209.737	6371
2211.764	6307
2213.791	6215
2215.817	6413
2217.843	6342
2219.87	6282
2221.895	6249
2223.919	6264
2225.942	6315
2227.966	6290
2229.988	6213
2232.012	6310
2234.032	6250
2236.054	6170
2238.074	6254
2240.095	6308
2242.116	6254
2244.135	6305
2246.153	6321
2248.171	6341
2250.188	6197
2252.208	6313
2254.223	6228
2256.239	6412
2258.255	6139
2260.269	6259
2262.283	6274
2264.3	6300
2266.312	6284
2268.325	6281
2270.336	6255
2272.349	6356
2274.362	6227
2276.372	6283
2278.383	6256
2280.392	6167
2282.402	6297
2284.409	6313
2286.418	6285
2288.427	6351
2290.433	6233
2292.441	6263
2294.446	6216
2296.453	6210
2298.459	6354
2300.463	6192
2302.466	6280
2304.471	6287
2306.475	6299
2308.477	6279
2310.478	6226
2312.481	6285
2314.481	6292
2316.481	6212
2318.482	6206
2320.482	6222
2322.48	6241
2324.48	6210
2326.478	6177
2328.476	6207
2330.473	6197
2332.469	6233
2334.465	6256
2336.46	6232
2338.454	6221
2340.45	6223
2342.444	6190
2344.437	6180
2346.43	6153
2348.421	6151
2350.414	6195
2352.405	6183
2354.396	6184
2356.386	6107
2358.376	6158
2360.366	6193
2362.355	6077
2364.343	6185
2366.331	6128
2368.317	6158
2370.304	6085
2372.292	6128
2374.278	6039
2376.262	6173
2378.247	6121
2380.23	6243
2382.216	6164
2384.199	6119
2386.181	6232
2388.163	6117
2390.144	6026
2392.127	6139
2394.107	6049
2396.087	6045
2398.066	6034
2400.046	6146
2402.023	5987
2404.004	6109
2405.981	6035
2407.957	6225
2409.934	6139
2411.91	6096
2413.886	6021
2415.862	6061
2417.836	6110
2419.809	5946
2421.784	5974
2423.756	6048
2425.73	6110
2427.701	6005
2429.672	6078
2431.644	5999
2433.615	6104
2435.586	6026
2437.555	6081
2439.523	5993
2441.491	6008
2443.459	6006
2445.428	6082
2447.395	6046
2449.361	6091
2451.327	5999
2453.292	6079
2455.257	6061
2457.223	6113
2459.187	5967
2461.15	5995
2463.113	6038
2465.076	6097
2467.039	6074
2468.999	6091
2470.96	5943
2472.921	5985
2474.881	6021
2476.841	6001
2478.8	6021
2480.759	6044
2482.717	5998
2484.675	5918
2486.63	6018
2488.589	6087
2490.545	6007
2492.5	6033
2494.455	5981
2496.408	5931
2498.364	5926
2500.318	6040
2502.27	5943
2504.223	5942
2506.174	5907
2508.126	5877
2510.078	5886
2512.03	5897
2513.979	5856
2515.927	5970
2517.877	6065
2519.826	6002
2521.775	5944
2523.722	5905
2525.668	5906
2527.616	5965
2529.561	5951
2531.508	5925
2533.452	5909
2535.398	6017
2537.342	5904
2539.284	5818
2541.229	5977
2543.173	6001
2545.114	5848
2547.055	6040
2548.996	5841
2550.938	5920
2552.878	5937
2554.817	5963
2556.756	6022
2558.695	5917
2560.633	5907
2562.572	5975
2564.509	5929
2566.445	5986
2568.382	5872
2570.317	5907
2572.254	5971
2574.189	5914
2576.123	5787
2578.057	5836
2579.99	5930
2581.923	5842
2583.855	5920
2585.788	5947
2587.719	5848
2589.65	5915
2591.579	5877
2593.511	5934
2595.44	5955
2597.37	5856
2599.297	5843
2601.225	5906
2603.153	5909
2605.08	5869
2607.007	5932
2608.932	5914
2610.858	5902
2612.782	5932
2614.709	5950
2616.632	6011
2618.556	5851
2620.478	5874
2622.401	5878
2624.324	5969
2626.247	6014
2628.167	5903
2630.088	5917
2632.008	5935
2633.928	5933
2635.848	5976
2637.766	5928
2639.684	5856
2641.603	5968
2643.519	5909
2645.437	5996
2647.353	5945
2649.27	5879
2651.184	5998
2653.099	5878
2655.014	5854
2656.928	5927
2658.842	5844
2660.755	5946
2662.667	6001
2664.579	5859
2666.491	5973
2668.402	5984
2670.312	5877
2672.222	5882
2674.132	5854
2676.042	5974
2677.951	5954
2679.859	5965
2681.766	5989
2683.674	5764
2685.582	5849
2687.488	5896
2689.392	5952
2691.298	5834
2693.202	5826
2695.107	5806
2697.012	5939
2698.914	5846
2700.817	5830
2702.72	5860
2704.622	5824
2706.524	5902
2708.425	5811
2710.326	5809
2712.225	5773
2714.125	5877
2716.024	5806
2717.923	5759
2719.822	5754
2721.719	5789
2723.616	5760
2725.512	5745
2727.41	5933
2729.305	5796
2731.201	5697
2733.095	5787
2734.99	5841
2736.884	5848
2738.778	5788
2740.67	5732
2742.562	5766
2744.455	5754
2746.346	5728
2748.238	5768
2750.129	5770
2752.018	5759
2753.907	5765
2755.797	5784
2757.687	5732
2759.575	5790
2761.462	5802
2763.349	5788
2765.237	5661
2767.124	5695
2769.009	5824
2770.894	5623
2772.779	5744
2774.663	5759
2776.547	5831
2778.431	5744
2780.314	5688
2782.197	5783
2784.078	5768
2785.96	5723
2787.842	5665
2789.723	5736
2791.603	5708
2793.483	5622
2795.362	5703
2797.241	5719
2799.121	5684
2800.997	5621
2802.874	5765
2804.751	5645
2806.628	5646
2808.506	5701
2810.38	5723
2812.255	5795
2814.13	5676
2816.003	5704
2817.878	5697
2819.752	5695
2821.623	5779
2823.496	5656
2825.368	5603
2827.238	5713
2829.111	5675
2830.98	5770
2832.851	5594
2834.719	5719
2836.589	5657
2838.458	5708
2840.327	5597
2842.193	5709
2844.061	5715
2845.927	5695
2847.794	5720
2849.66	5842
2851.525	5752
2853.39	5651
2855.254	5779
2857.117	5900
2858.983	5940
2860.845	5863
2862.707	6032
2864.569	5932
2866.431	5777
2868.293	5850
2870.154	5969
2872.013	6082
2873.873	6099
2875.733	6106
2877.592	6141
2879.451	6104
2881.309	6324
2883.166	6311
2885.022	6357
2886.879	6341
2888.736	6422
2890.591	6335
2892.446	6380
2894.301	6422
2896.155	6552
2898.009	6476
2899.863	6347
2901.716	6310
2903.568	6313
2905.419	6318
2907.27	6274
2909.123	6283
2910.973	6294
2912.824	6320
2914.673	6458
2916.521	6369
2918.372	6560
2920.22	6667
2922.067	6622
2923.914	6630
2925.761	6733
2927.607	6734
2929.455	6949
2931.301	6881
2933.144	6840
2934.99	6899
2936.833	6929
2938.678	6972
2940.522	7028
2942.364	7088
2944.207	7198
2946.048	7229
2947.891	7454
2949.731	7243
2951.571	7230
2953.412	7423
2955.25	7146
2957.09	7076
2958.93	7110
2960.767	7160
2962.606	7125
2964.443	7040
2966.279	6903
2968.116	6778
2969.953	6772
2971.788	6735
2973.623	6661
2975.457	6470
2977.292	6552
2979.127	6525
2980.959	6483
2982.792	6418
2984.624	6317
2986.455	6300
2988.288	6344
2990.119	6280
2991.949	6283
2993.779	6225
2995.608	6166
2997.439	6168
2999.268	6133
3001.096	6090
3002.923	5982
3004.751	5842
3006.578	5880
3008.406	5826
3010.232	5877
3012.057	5770
3013.883	5762
3015.706	5643
3017.532	5585
3019.356	5769
3021.179	5721
3023.002	5493
3024.823	5546
3026.646	5566
3028.469	5626
3030.289	5484
3032.11	5484
3033.93	5631
3035.749	5520
3037.57	5429
3039.39	5502
3041.207	5494
3043.026	5461
3044.842	5455
3046.661	5383
3048.477	5448
3050.294	5448
3052.109	5430
3053.925	5447
3055.739	5366
3057.555	5420
3059.368	5423
3061.181	5408
3062.995	5451
3064.807	5441
3066.62	5384
3068.433	5401
3070.243	5405
3072.054	5439
3073.865	5303
3075.675	5394
3077.485	5353
3079.293	5354
3081.102	5357
3082.911	5279
3084.719	5384
3086.527	5259
3088.333	5394
3090.139	5413
3091.945	5207
3093.75	5366
3095.557	5288
3097.361	5318
3099.165	5285
3100.969	5253
3102.772	5270
3104.575	5258
3106.379	5251
3108.181	5181
3109.982	5173
3111.783	5245
3113.584	5178
3115.386	5230
3117.186	5188
3118.985	5189
3120.783	5233
3122.582	5157
3124.381	5162
3126.179	5173
3127.975	5154
3129.772	5158
3131.569	5149
3133.365	5105
3135.161	5087
3136.956	5187
3138.751	5098
3140.544	5092
3142.338	5172
3144.132	5141
3145.925	5140
3147.717	5104
3149.509	5033
3151.301	5156
3153.091	5080
3154.884	5152
3156.673	5066
3158.462	5057
3160.252	5117
3162.041	5080
3163.831	4999
3165.618	5106
3167.405	5072
3169.193	5037
3170.979	5042
3172.767	5075
3174.553	5016
3176.338	5096
3178.123	5015
3179.907	5005
3181.692	4980
3183.477	5113
3185.259	4952
3187.042	5165
3188.824	5167
3190.607	4983
3192.389	5089
3194.17	4994
3195.951	5086
3197.73	5030
3199.51	4984
3201.289	4983
3203.07	5016
3204.848	5018
3206.626	4934
3208.403	5059
3210.18	5004
3211.959	5000
3213.735	5033
3215.511	5006
3217.285	5014
3219.06	5079
3220.836	4926
3222.611	5064
3224.384	4968
3226.158	5059
3227.929	5019
3229.702	5049
3231.476	5052
3233.248	5035
3235.018	5042
3236.789	5005
3238.56	5031
3240.33	5014
3242.1	5009
3243.869	4988
3245.637	5054
3247.405	4939
3249.172	5017
3250.941	4945
3252.707	4940
3254.474	5008
3256.24	4976
3258.006	4997
3259.772	5024
3261.537	5088
3263.301	5070
3265.065	5035
3266.828	4970
3268.592	5018
3270.355	5043
3272.117	4938
3273.878	4964
3275.64	4977
3277.401	5036
3279.162	5092
3280.922	4973
3282.682	4974
3284.441	5092
3286.199	5014
3287.959	5006
3289.716	4932
3291.475	4976
3293.232	4987
3294.988	5050
3296.744	5032
3298.501	4989
3300.256	5046
3302.011	5050
3303.766	5026
3305.52	5121
3307.275	4968
3309.028	5006
3310.781	5023
3312.533	4956
3314.285	5100
3316.038	4997
3317.789	4952
3319.54	4998
3321.289	4945
3323.039	5060
3324.789	5097
3326.539	5017
3328.288	5085
3330.035	5038
3331.783	5003
3333.531	4968
3335.28	4964
3337.025	5055
3338.771	4957
3340.518	4951
3342.262	4924
3344.009	4932
3345.753	5040
3347.497	4932
3349.24	4905
3350.983	4905
3352.726	4925
3354.469	4939
3356.212	4898
3357.952	4992
3359.694	4832
3361.434	4970
3363.176	4809
3364.916	4851
3366.654	4856
3368.394	4880
3370.132	4930
3371.871	4835
3373.61	5009
3375.346	4827
3377.083	4814
3378.82	4911
3380.556	4766
3382.292	4864
3384.027	4806
3385.763	4838
3387.497	4772
3389.231	4783
3390.965	4752
3392.698	4743
3394.431	4867
3396.164	4851
3397.896	4824
3399.627	4790
3401.36	4729
3403.09	4688
3404.82	4673
3406.55	4780
3408.279	4782
3410.01	4784
3411.738	4790
3413.467	4713
3415.194	4792
3416.92	4790
3418.647	4715
3420.375	4672
3422.102	4765
3423.827	4743
3425.553	4714
3427.277	4710
3429.003	4690
3430.727	4689
3432.451	4714
3434.173	4669
3435.896	4687
3437.62	4732
3439.343	4665
3441.063	4691
3442.785	4692
3444.505	4724
3446.226	4694
3447.948	4637
3449.666	4655
3451.386	4633
3453.104	4594
3454.823	4666
3456.541	4592
3458.259	4602
3459.976	4480
3461.693	4593
3463.408	4535
3465.125	4489
3466.841	4560
3468.556	4529
3470.271	4487
3471.985	4606
3473.698	4528
3475.414	4514
3477.126	4450
3478.838	4562
3480.55	4556
3482.263	4461
3483.975	4482
3485.686	4558
3487.396	4501
3489.106	4421
3490.817	4461
3492.526	4413
3494.236	4526
3495.944	4524
3497.652	4434
3499.359	4365
3501.066	4482
3502.775	4467
3504.481	4456
3506.187	4381
3507.893	4374
3509.598	4469
3511.304	4393
3513.009	4479
3514.713	4389
3516.417	4437
3518.12	4482
3519.821	4412
3521.525	4316
3523.228	4382
3524.929	4333
3526.631	4303
3528.33	4449
3530.032	4342
3531.733	4288
3533.433	4358
3535.131	4331
3536.83	4374
3538.529	4333
3540.227	4340
3541.925	4338
3543.623	4383
3545.319	4365
3547.016	4269
3548.712	4260
3550.408	4254
3552.103	4283
3553.798	4227
3555.491	4305
3557.188	4194
3558.88	4241
3560.574	4270
3562.266	4265
3563.959	4317
3565.651	4247
3567.343	4225
3569.035	4277
3570.725	4313
3572.415	4266
3574.106	4137
3575.797	4225
3577.485	4261
3579.174	4242
3580.863	4170
3582.551	4287
3584.238	4232
3585.926	4175
3587.613	4184
3589.3	4205
3590.986	4135
3592.671	4148
3594.357	4161
3596.042	4180
3597.726	4147
3599.41	4174
3601.094	4111
3602.778	4047
3604.461	4099
3606.143	4028
3607.825	4205
3609.507	4070
3611.188	4047
3612.87	4057
3614.551	4056
3616.229	3999
3617.909	4034
3619.589	4044
3621.269	3985
3622.948	4061
3624.625	3954
3626.302	4026
3627.98	4043
3629.657	4057
3631.334	4081
3633.01	3918
3634.686	4014
3636.361	3985
3638.036	3986
3639.712	3939
3641.385	4006
3643.06	3920
3644.732	3920
3646.405	3914
3648.08	3913
3649.751	4003
3651.424	3870
3653.094	3949
3654.766	3839
3656.436	4005
3658.106	3872
3659.777	3931
3661.446	3982
3663.115	3930
3664.783	3824
3666.452	3916
3668.121	3886
3669.788	3898
3671.454	3920
3673.121	3885
3674.789	3903
3676.455	3929
3678.12	3896
3679.784	3857
3681.45	3899
3683.114	3894
3684.779	3878
3686.442	3841
3688.105	3883
3689.768	3847
3691.43	3845
3693.093	3885
3694.754	3793
3696.415	3821
3698.076	3820
3699.736	3920
3701.396	3874
3703.057	3788
3704.716	3784
3706.375	3803
3708.034	3848
3709.692	3809
3711.351	3846
3713.008	3756
3714.665	3870
3716.321	3730
3717.977	3806
3719.634	3789
3721.29	3819
3722.945	3822
3724.598	3796
3726.253	3837
3727.907	3789
3729.561	3760
3731.214	3766
3732.867	3738
3734.518	3721
3736.171	3778
3737.824	3764
3739.474	3694
3741.125	3764
3742.775	3739
3744.425	3724
3746.074	3752
3747.725	3763
3749.373	3718
3751.022	3667
3752.669	3708
3754.318	3691
3755.966	3727
3757.612	3721
3759.259	3612
3760.905	3811
3762.55	3724
3764.197	3700
3765.842	3703
3767.486	3622
3769.131	3670
3770.774	3648
3772.417	3668
3774.061	3681
3775.705	3731
3777.347	3687
3778.988	3687
3780.629	3633
3782.271	3707
3783.912	3699
3785.552	3669
3787.192	3606
3788.831	3724
3790.472	3666
3792.112	3602
3793.75	3574
3795.388	3617
3797.024	3665
3798.661	3624
3800.3	3667
3801.936	3617
3803.572	3618
3805.208	3544
3806.844	3631
3808.48	3634
3810.115	3522
3811.748	3589
3813.382	3612
3815.016	3670
3816.649	3601
3818.283	3554
3819.914	3547
3821.547	3586
3823.178	3545
3824.809	3573
3826.441	3557
3828.072	3581
3829.701	3484
3831.331	3609
3832.96	3538
3834.591	3544
3836.219	3570
3837.847	3548
3839.475	3506
3841.102	3511
3842.729	3579
3844.357	3488
3845.984	3633
3847.609	3500
3849.234	3540
3850.86	3507
3852.485	3563
3854.11	3424
3855.734	3556
3857.357	3549
3858.981	3466
3860.603	3483
3862.227	3517
3863.848	3525
3865.471	3478
3867.092	3472
3868.713	3472
3870.334	3410
3871.954	3435
3873.575	3519
3875.194	3446
3876.813	3432
3878.433	3406
3880.051	3431
3881.669	3457
3883.286	3414
3884.904	3416
3886.52	3453
3888.138	3466
3889.754	3422
3891.37	3454
3892.985	3376
3894.6	3378
3896.216	3495
3897.831	3445
3899.444	3460
3901.058	3375
3902.67	3491
3904.283	3413
3905.897	3479
3907.509	3475
3909.121	3459
3910.731	3351
3912.342	3351
3913.954	3425
3915.563	3426
3917.174	3319
3918.783	3364
3920.391	3352
3922.002	3371
3923.611	3422
3925.218	3366
3926.826	3318
3928.432	3365
3930.039	3369
3931.647	3351
3933.253	3427
3934.859	3349
3936.464	3447
3938.068	3295
3939.675	3394
3941.278	3305
3942.883	3402
3944.486	3331
3946.089	3341
3947.692	3326
3949.295	3354
3950.898	3369
3952.499	3403
3954.1	3317
3955.7	3281
3957.303	3341
3958.903	3374
3960.502	3357
3962.101	3259
3963.7	3326
3965.301	3320
3966.899	3257
3968.497	3314
3970.094	3298
3971.691	3225
3973.288	3312
3974.885	3183
3976.481	3291
3978.077	3369
3979.672	3204
3981.267	3269
3982.863	3276
3984.457	3206
3986.051	3259
3987.645	3219
3989.238	3239
3990.831	3239
3992.425	3171
3994.017	3230
3995.607	3223
3997.199	3205
3998.79	3271
4000.382	3191
4001.973	3235
4003.561	3180
4005.151	3256
4006.741	3123
4008.331	3204
4009.918	3193
4011.507	3118
4013.095	3171
4014.681	3182
4016.269	3247
4017.856	3141
4019.443	3162
4021.028	3097
4022.614	3162
4024.199	3170
4025.785	3161
4027.37	3139
4028.953	3160
4030.536	3180
4032.12	3108
4033.704	3145
4035.287	3081
4036.869	3152
4038.45	3138
4040.032	3097
4041.613	3216
4043.195	3155
4044.776	3112
4046.356	3104
4047.935	3134
4049.515	3068
4051.095	3092
4052.674	3112
4054.251	3034
4055.829	3016
4057.406	3069
4058.985	3082
4060.562	3040
4062.139	3088
4063.715	3031
4065.29	2995
4066.865	3038
4068.442	3126
4070.016	3070
4071.59	3031
4073.164	3067
4074.738	3024
4076.312	3039
4077.885	3015
4079.458	3017
4081.03	3072
4082.602	3097
4084.173	3062
4085.745	3006
4087.315	3078
4088.886	2970
4090.456	3090
4092.026	3061
4093.596	3034
4095.165	3037
4096.734	2934
4098.301	3031
4099.869	2991
4101.437	3027
4103.006	3020
4104.572	2926
4106.139	3002
4107.704	2946
4109.27	2971
4110.837	3017
4112.401	2985
4113.966	3000
4115.53	3024
4117.094	2943
4118.659	2998
4120.223	2971
4121.785	2945
4123.347	3007
4124.909	2983
4126.471	2982
4128.034	2977
4129.595	2971
4131.155	2921
4132.716	2989
4134.275	2906
4135.836	2895
4137.395	2953
4138.955	2950
4140.513	2894
4142.071	2947
4143.628	2867
4145.188	2855
4146.745	2933
4148.302	2913
4149.858	2934
4151.414	2837
4152.971	2925
4154.526	2872
4156.081	2907
4157.635	2886
4159.189	2874
4160.745	2939
4162.298	2865
4163.852	2833
4165.405	2914
4166.957	2890
4168.51	2809
4170.063	2803
4171.614	2852
4173.166	2903
4174.717	2892
4176.267	2849
4177.817	2853
4179.368	2865
4180.917	2853
4182.466	2834
4184.016	2890
4185.564	2801
4187.112	2796
4188.66	2768
4190.207	2788
4191.754	2798
4193.301	2909
4194.848	2810
4196.394	2824
4197.94	2802
4199.484	2794
4201.03	2823
4202.575	2730
4204.12	2802
4205.663	2777
4207.207	2776
4208.75	2769
4210.292	2754
4211.836	2766
4213.378	2761
4214.92	2777
4216.46	2756
4218.002	2760
4219.544	2771
4221.083	2739
4222.625	2784
4224.164	2729
4225.703	2686
4227.244	2742
4228.782	2786
4230.32	2712
4231.857	2709
4233.395	2826
4234.933	2722
4236.471	2713
4238.007	2681
4239.542	2730
4241.078	2739
4242.614	2666
4244.15	2753
4245.685	2668
4247.219	2680
4248.753	2740
4250.287	2674
4251.82	2763
4253.354	2697
4254.887	2671
4256.419	2665
4257.951	2749
4259.483	2677
4261.016	2708
4262.547	2705
4264.078	2678
4265.608	2677
4267.137	2695
4268.668	2662
4270.197	2636
4271.727	2653
4273.254	2683
4274.783	2679
4276.311	2711
4277.84	2657
4279.366	2703
4280.894	2704
4282.42	2592
4283.946	2645
4285.473	2682
4286.998	2679
4288.523	2684
4290.047	2624
4291.572	2637
4293.096	2647
4294.622	2585
4296.144	2624
4297.668	2630
4299.19	2647
4300.713	2568
4302.236	2648
4303.758	2651
4305.279	2641
4306.799	2540
4308.321	2597
4309.842	2617
4311.361	2579
4312.882	2639
4314.401	2577
