400.0961	3920
402.6185	3877
405.1424	3833
407.6635	3930
410.1838	3951
412.7035	3934
415.2225	3928
417.7388	4052
420.2585	4016
422.7754	4018
425.2917	3977
427.8072	4161
430.3221	4235
432.8363	4177
435.3498	4189
437.8626	4140
440.3727	4195
442.8841	4097
445.3969	4233
447.907	4149
450.4142	4158
452.9229	4091
455.4289	4201
457.9362	4107
460.4449	4130
462.9488	4181
465.454	4151
467.9566	4083
470.4604	4163
472.9637	4065
475.4662	4197
477.966	4064
480.4671	4176
482.9656	4154
485.4633	4245
487.9645	4102
490.4608	4142
492.9566	4167
495.4536	4254
497.948	4253
500.4437	4272
502.9387	4272
505.431	4263
507.9226	4200
510.4136	4178
512.9079	4307
515.3975	4291
517.8864	4282
520.3746	4277
522.8622	4281
525.3491	4288
527.8394	4193
530.3249	4251
532.8098	4296
535.2939	4324
537.7774	4335
540.2623	4302
542.7444	4311
545.2259	4296
547.7067	4332
550.1868	4244
552.6683	4269
555.147	4334
557.6231	4301
560.1005	4341
562.5773	4319
565.0534	4402
567.5308	4346
570.0056	4400
572.4776	4342
574.951	4465
577.4237	4471
579.8978	4487
582.3671	4498
584.8378	4486
587.3079	4438
589.7773	4519
592.244	4514
594.714	4522
597.1793	4520
599.6461	4476
602.1121	4480
604.5754	4509
607.0421	4446
609.5042	4471
611.9675	4450
614.4282	4487
616.8902	4526
619.3515	4284
621.8122	4474
624.2702	4482
626.7296	4382
629.1863	4460
631.6423	4384
634.1017	4510
636.5563	4398
639.0104	4446
641.4658	4430
643.9185	4406
646.3725	4383
648.8239	4396
651.2766	4539
653.7266	4505
656.176	4493
658.6247	4474
661.0748	4431
663.5242	4454
665.9709	4512
668.417	4578
670.8624	4577
673.3092	4486
675.7533	4501
678.1968	4544
680.6395	4578
683.0817	4695
685.5251	4545
687.9659	4576
690.4061	4676
692.8456	4550
695.2844	4570
697.7226	4569
700.1621	4602
702.599	4756
705.0332	4671
707.4688	4625
709.9036	4698
712.3399	4676
714.7735	4665
717.2044	4767
719.6367	4741
722.0683	4635
724.4993	4698
726.9296	4733
729.3593	4675
731.7883	4695
734.2147	4721
736.6423	4774
739.0714	4745
741.4958	4817
743.9216	4817
746.3447	4778
748.7691	4759
751.1929	4875
753.616	4766
756.0366	4834
758.4584	4852
760.8776	4836
763.2982	4861
765.718	4855
768.1373	4959
770.5539	4940
772.9698	4889
775.3871	4850
777.8038	4984
780.2178	4927
782.6332	4872
785.0459	4872
787.458	4940
789.8714	4869
792.2842	4888
794.6943	4930
797.1038	4913
799.5127	4966
801.9209	4917
804.3324	4875
806.7393	4937
809.1456	4883
811.5513	4944
813.9562	4913
816.3625	4909
818.7663	4955
821.1693	5028
823.5718	5034
825.9735	4940
828.3746	4941
830.7771	4938
833.177	4967
835.5762	5026
837.9747	5038
840.3727	4953
842.772	5042
845.1666	5038
847.5626	5014
849.958	4969
852.3527	5075
854.7488	5057
857.1403	5047
859.5331	5078
861.9253	5030
864.3168	5039
866.7057	5055
869.098	5148
871.4876	5044
873.8746	5000
876.263	5043
878.6487	5044
881.0378	4932
883.4243	5082
885.8081	5040
888.1933	5037
890.5759	5063
892.9598	5109
895.343	5111
897.7256	5064
900.1057	5033
902.4871	5199
904.8659	5162
907.246	5129
909.6254	5155
912.0023	5117
914.3786	5228
916.7562	5329
919.1331	5239
921.5074	5426
923.8831	5490
926.2562	5383
928.6287	5388
931.0005	5329
933.3757	5325
935.7462	5383
938.1162	5411
940.4855	5349
942.8542	5480
945.2242	5496
947.5916	5643
949.9584	5726
952.3266	5848
954.6921	6042
957.0571	6285
959.4233	6457
961.787	6593
964.15	6571
966.5125	6416
968.8742	6172
971.2354	5899
973.5959	5736
975.9559	5558
978.3151	5481
980.6738	5345
983.0338	5339
985.3912	5324
987.7461	5172
990.1022	5218
992.4578	5191
994.8127	5235
997.1689	5295
999.5207	5310
1001.874	5317
1004.226	5309
1006.576	5272
1008.929	5246
1011.28	5350
1013.628	5344
1015.977	5326
1018.324	5321
1020.674	5293
1023.019	5327
1025.366	5350
1027.713	5346
1030.056	5336
1032.399	5352
1034.746	5257
1037.087	5333
1039.431	5279
1041.771	5335
1044.113	5444
1046.454	5379
1048.793	5422
1051.133	5507
1053.471	5223
1055.807	5453
1058.146	5363
1060.483	5406
1062.818	5370
1065.153	5416
1067.489	5536
1069.822	5438
1072.156	5380
1074.488	5544
1076.82	5558
1079.15	5529
1081.48	5439
1083.814	5458
1086.143	5469
1088.471	5443
1090.799	5334
1093.126	5326
1095.452	5314
1097.78	5328
1100.105	5437
1102.43	5480
1104.754	5336
1107.077	5431
1109.4	5388
1111.722	5381
1114.044	5378
1116.365	5384
1118.685	5418
1121.005	5412
1123.324	5352
1125.643	5442
1127.961	5438
1130.278	5400
1132.595	5422
1134.911	5380
1137.226	5335
1139.541	5438
1141.854	5408
1144.167	5395
1146.482	5453
1148.793	5360
1151.105	5411
1153.414	5443
1155.725	5457
1158.033	5408
1160.344	5449
1162.651	5349
1164.959	5401
1167.265	5307
1169.572	5421
1171.878	5445
1174.184	5355
1176.488	5421
1178.79	5527
1181.094	5494
1183.396	5430
1185.699	5485
1188.001	5472
1190.301	5446
1192.6	5502
1194.9	5483
1197.2	5397
1199.497	5465
1201.794	5467
1204.09	5349
1206.387	5427
1208.684	5507
1210.978	5469
1213.272	5471
1215.565	5367
1217.858	5472
1220.15	5563
1222.443	5566
1224.734	5532
1227.024	5558
1229.313	5407
1231.602	5596
1233.892	5549
1236.18	5501
1238.467	5641
1240.754	5668
1243.04	5569
1245.325	5607
1247.612	5621
1249.896	5699
1252.178	5667
1254.461	5724
1256.743	5635
1259.027	5727
1261.308	5689
1263.587	5649
1265.867	5672
1268.146	5694
1270.425	5746
1272.703	5773
1274.981	5838
1277.256	5727
1279.532	5636
1281.808	5654
1284.083	5576
1286.358	5478
1288.63	5569
1290.904	5479
1293.175	5651
1295.449	5621
1297.719	5663
1299.99	5532
1302.259	5587
1304.529	5651
1306.798	5654
1309.065	5582
1311.333	5583
1313.599	5630
1315.866	5641
1318.131	5565
1320.396	5689
1322.66	5536
1324.925	5637
1327.187	5594
1329.448	5672
1331.711	5617
1333.974	5596
1336.234	5603
1338.493	5713
1340.752	5645
1343.01	5586
1345.269	5627
1347.526	5540
1349.784	5631
1352.04	5624
1354.295	5564
1356.552	5611
1358.806	5597
1361.059	5603
1363.312	5539
1365.564	5532
1367.818	5552
1370.069	5674
1372.318	5696
1374.568	5558
1376.817	5696
1379.066	5660
1381.316	5719
1383.564	5713
1385.809	5762
1388.056	5717
1390.301	5720
1392.549	5817
1394.793	5838
1397.036	5853
1399.279	5859
1401.522	5857
1403.763	5826
1406.007	5860
1408.248	5865
1410.487	5907
1412.727	5830
1414.965	5906
1417.205	5828
1419.442	5709
1421.68	5677
1423.915	5877
1426.152	5909
1428.388	5826
1430.623	5775
1432.857	5894
1435.091	5832
1437.323	5878
1439.556	5902
1441.789	5916
1444.019	5907
1446.25	5982
1448.48	5915
1450.708	6042
1452.938	5874
1455.167	5946
1457.394	6007
1459.62	6062
1461.846	6027
1464.073	5891
1466.299	5803
1468.523	5779
1470.746	5892
1472.969	5836
1475.191	5685
1477.415	5884
1479.636	5696
1481.858	5744
1484.078	5755
1486.298	5695
1488.518	5640
1490.736	5604
1492.954	5707
1495.169	5693
1497.386	5663
1499.602	5716
1501.819	5587
1504.034	5760
1506.248	5660
1508.462	5671
1510.675	5531
1512.888	5663
1515.1	5629
1517.311	5624
1519.522	5743
1521.732	5579
1523.942	5635
1526.151	5630
1528.36	5667
1530.566	5621
1532.773	5683
1534.98	5614
1537.187	5648
1539.392	5593
1541.596	5728
1543.801	5813
1546.005	5656
1548.208	5700
1550.411	5645
1552.612	5634
1554.814	5704
1557.013	5760
1559.212	5785
1561.414	5696
1563.612	5740
1565.811	5818
1568.007	5850
1570.203	5808
1572.403	5881
1574.598	5796
1576.792	5777
1578.988	5816
1581.181	5822
1583.376	5856
1585.568	5640
1587.761	5788
1589.952	5943
1592.143	5775
1594.333	5845
1596.524	5898
1598.715	5860
1600.903	5858
1603.091	5764
1605.278	5822
1607.466	5831
1609.652	5853
1611.838	5935
1614.023	5767
1616.207	5899
1618.391	5937
1620.576	5858
1622.759	5897
1624.941	5773
1627.123	5942
1629.304	5913
1631.484	5984
1633.664	5874
1635.844	5926
1638.022	5988
1640.201	5914
1642.38	5969
1644.556	5967
1646.732	5873
1648.908	5950
1651.084	5949
1653.257	5958
1655.433	5886
1657.607	5935
1659.779	5875
1661.951	5984
1664.122	5870
1666.295	6062
1668.467	5877
1670.635	5907
1672.805	5868
1674.973	5837
1677.142	6015
1679.31	6011
1681.478	5996
1683.644	5974
1685.81	5972
1687.975	6004
1690.142	6009
1692.305	5920
1694.468	5979
1696.632	5996
1698.794	5982
1700.957	5878
1703.119	5873
1705.279	5885
1707.439	5768
1709.598	5914
1711.758	5891
1713.917	5855
1716.075	5838
1718.231	5903
1720.388	5794
1722.543	5777
1724.702	5846
1726.856	5894
1729.01	5880
1731.164	5844
1733.317	5805
1735.471	5856
1737.623	5907
1739.774	5820
1741.925	5904
1744.075	5893
1746.225	5838
1748.376	5894
1750.524	5966
1752.672	5806
1754.82	5904
1756.965	5867
1759.113	5885
1761.259	5887
1763.405	5900
1765.549	5839
1767.694	5810
1769.836	5880
1771.981	5903
1774.123	5840
1776.264	5921
1778.405	5878
1780.546	5936
1782.687	5945
1784.827	5926
1786.966	6032
1789.103	5976
1791.242	5903
1793.381	5941
1795.517	5977
1797.653	6012
1799.788	5897
1801.923	5979
1804.057	5837
1806.193	5988
1808.326	5987
1810.457	5958
1812.59	5879
1814.721	5913
1816.855	5862
1818.984	5973
1821.113	5943
1823.244	5976
1825.372	5953
1827.499	5957
1829.63	5933
1831.756	5810
1833.882	5840
1836.007	5882
1838.132	5829
1840.26	5860
1842.384	5886
1844.507	5859
1846.63	5820
1848.752	5879
1850.875	5873
1852.996	5945
1855.118	5803
1857.238	5848
1859.358	5863
1861.477	5814
1863.597	5870
1865.715	5869
1867.832	5927
1869.948	5786
1872.064	5780
1874.181	5955
1876.297	5857
1878.411	5918
1880.526	5877
1882.639	5865
1884.752	5896
1886.865	5758
1888.977	5790
1891.089	6016
1893.2	5916
1895.308	5912
1897.42	5949
1899.53	5982
1901.639	5944
1903.745	5913
1905.853	5935
1907.962	5889
1910.067	5904
1912.174	5995
1914.278	5953
1916.383	5956
1918.486	6053
1920.592	5961
1922.694	5836
1924.797	5920
1926.898	5995
1929	5980
1931.102	5963
1933.203	5935
1935.301	5899
1937.401	5985
1939.499	6099
1941.598	5967
1943.697	5918
1945.793	5862
1947.888	5849
1949.985	5954
1952.08	5938
1954.176	5999
1956.269	5915
1958.364	5873
1960.457	5908
1962.549	6021
1964.642	5894
1966.733	6089
1968.823	5893
1970.913	5954
1973.005	5966
1975.093	5898
1977.184	5939
1979.271	5931
1981.359	5997
1983.446	5953
1985.532	5872
1987.619	5998
1989.705	5945
1991.789	5901
1993.874	5850
1995.956	5938
1998.041	5964
2000.123	5916
2002.206	5950
2004.287	5883
2006.368	5885
2008.449	5866
2010.529	5805
2012.609	5920
2014.688	5838
2016.766	5858
2018.843	5881
2020.922	5941
2022.999	5907
2025.074	5845
2027.15	5879
2029.225	5862
2031.299	5959
2033.375	5799
2035.447	5951
2037.52	5775
2039.592	6029
2041.664	5836
2043.736	5941
2045.807	5955
2047.876	5874
2049.947	5927
2052.015	5738
2054.086	5899
2056.153	5917
2058.221	5890
2060.288	5990
2062.353	5786
2064.42	5911
2066.486	5865
2068.55	5871
2070.614	5813
2072.678	5971
2074.741	5998
2076.805	5925
2078.866	5926
2080.929	5961
2082.99	5844
2085.049	5897
2087.109	5947
2089.17	5858
2091.228	5843
2093.286	5929
2095.344	5996
2097.4	6084
2099.46	5885
2101.516	5840
2103.572	5961
2105.626	5895
2107.679	5829
2109.735	5971
2111.788	5899
2113.841	5891
2115.894	5947
2117.945	5899
2119.997	5860
2122.049	5861
2124.1	5925
2126.148	5934
2128.197	5892
2130.246	5910
2132.296	5823
2134.342	5914
2136.39	5912
2138.437	5927
2140.483	5892
2142.527	5895
2144.574	5871
2146.619	5873
2148.661	5941
2150.705	5910
2152.747	5874
2154.792	5809
2156.832	5786
2158.874	5767
2160.915	5826
2162.954	5848
2164.995	5774
2167.034	5820
2169.072	5822
2171.111	5897
2173.148	5882
2175.186	5799
2177.223	5868
2179.258	5836
2181.294	5812
2183.328	5826
2185.362	5898
2187.398	5788
2189.431	5803
2191.463	5716
2193.495	5887
2195.528	5858
2197.56	5744
2199.59	5848
2201.62	5712
2203.649	5760
2205.678	5733
2207.708	5940
2209.737	5880
2211.764	5824
2213.791	5776
2215.817	5677
2217.843	5764
2219.87	5779
2221.895	5678
2223.919	5756
2225.942	5859
2227.966	5797
2229.988	5683
2232.012	5624
2234.032	5796
2236.054	5668
2238.074	5607
2240.095	5822
2242.116	5716
2244.135	5815
2246.153	5754
2248.171	5764
2250.188	5834
2252.208	5702
2254.223	5698
2256.239	5800
2258.255	5755
2260.269	5737
2262.283	5718
2264.3	5770
2266.312	5769
2268.325	5782
2270.336	5816
2272.349	5771
2274.362	5825
2276.372	5858
2278.383	5628
2280.392	5733
2282.402	5790
2284.409	5869
2286.418	5762
2288.427	5715
2290.433	5690
2292.441	5775
2294.446	5680
2296.453	5789
2298.459	5750
2300.463	5822
2302.466	5710
2304.471	5786
2306.475	5701
2308.477	5727
2310.478	5678
2312.481	5697
2314.481	5645
2316.481	5716
2318.482	5712
2320.482	5620
2322.48	5748
2324.48	5636
2326.478	5686
2328.476	5772
2330.473	5695
2332.469	5690
2334.465	5655
2336.46	5614
2338.454	5679
2340.45	5592
2342.444	5605
2344.437	5716
2346.43	5624
2348.421	5596
2350.414	5736
2352.405	5695
2354.396	5565
2356.386	5695
2358.376	5655
2360.366	5693
2362.355	5567
2364.343	5616
2366.331	5544
2368.317	5637
2370.304	5746
2372.292	5642
2374.278	5524
2376.262	5530
2378.247	5611
2380.23	5588
2382.216	5553
2384.199	5543
2386.181	5587
2388.163	5599
2390.144	5486
2392.127	5609
2394.107	5602
2396.087	5507
2398.066	5528
2400.046	5581
2402.023	5520
2404.004	5573
2405.981	5622
2407.957	5675
2409.934	5560
2411.91	5588
2413.886	5510
2415.862	5568
2417.836	5593
2419.809	5535
2421.784	5476
2423.756	5506
2425.73	5535
2427.701	5498
2429.672	5549
2431.644	5517
2433.615	5591
2435.586	5512
2437.555	5497
2439.523	5407
2441.491	5494
2443.459	5586
2445.428	5640
2447.395	5553
2449.361	5564
2451.327	5490
2453.292	5557
2455.257	5491
2457.223	5488
2459.187	5493
2461.15	5500
2463.113	5369
2465.076	5643
2467.039	5611
2468.999	5562
2470.96	5493
2472.921	5558
2474.881	5483
2476.841	5395
2478.8	5452
2480.759	5453
2482.717	5462
2484.675	5474
2486.63	5627
2488.589	5424
2490.545	5536
2492.5	5342
2494.455	5448
2496.408	5441
2498.364	5516
2500.318	5506
2502.27	5462
2504.223	5511
2506.174	5528
2508.126	5444
2510.078	5458
2512.03	5479
2513.979	5437
2515.927	5409
2517.877	5465
2519.826	5399
2521.775	5561
2523.722	5435
2525.668	5348
2527.616	5461
2529.561	5399
2531.508	5396
2533.452	5557
2535.398	5445
2537.342	5411
2539.284	5336
2541.229	5449
2543.173	5312
2545.114	5415
2547.055	5418
2548.996	5462
2550.938	5444
2552.878	5374
2554.817	5431
2556.756	5432
2558.695	5457
2560.633	5324
2562.572	5402
2564.509	5397
2566.445	5469
2568.382	5433
2570.317	5376
2572.254	5415
2574.189	5427
2576.123	5407
2578.057	5492
2579.99	5425
2581.923	5420
2583.855	5324
2585.788	5388
2587.719	5376
2589.65	5418
2591.579	5362
2593.511	5494
2595.44	5419
2597.37	5356
2599.297	5488
2601.225	5399
2603.153	5477
2605.08	5487
2607.007	5377
2608.932	5471
2610.858	5460
2612.782	5472
2614.709	5494
2616.632	5379
2618.556	5459
2620.478	5405
2622.401	5361
2624.324	5521
2626.247	5464
2628.167	5475
2630.088	5549
2632.008	5426
2633.928	5477
2635.848	5497
2637.766	5472
2639.684	5463
2641.603	5504
2643.519	5485
2645.437	5346
2647.353	5366
2649.27	5566
2651.184	5473
2653.099	5421
2655.014	5375
2656.928	5435
2658.842	5454
2660.755	5488
2662.667	5435
2664.579	5365
2666.491	5503
2668.402	5429
2670.312	5336
2672.222	5340
2674.132	5549
2676.042	5433
2677.951	5401
2679.859	5424
2681.766	5351
2683.674	5464
2685.582	5369
2687.488	5320
2689.392	5364
2691.298	5339
2693.202	5401
2695.107	5434
2697.012	5323
2698.914	5364
2700.817	5296
2702.72	5315
2704.622	5336
2706.524	5421
2708.425	5265
2710.326	5342
2712.225	5337
2714.125	5387
2716.024	5366
2717.923	5349
2719.822	5306
2721.719	5391
2723.616	5336
2725.512	5374
2727.41	5396
2729.305	5348
2731.201	5277
2733.095	5330
2734.99	5315
2736.884	5365
2738.778	5321
2740.67	5415
2742.562	5350
2744.455	5352
2746.346	5413
2748.238	5336
2750.129	5281
2752.018	5307
2753.907	5357
2755.797	5303
2757.687	5315
2759.575	5304
2761.462	5283
2763.349	5322
2765.237	5436
2767.124	5263
2769.009	5330
2770.894	5349
2772.779	5283
2774.663	5274
2776.547	5306
2778.431	5375
2780.314	5175
2782.197	5217
2784.078	5248
2785.96	5148
2787.842	5219
2789.723	5401
2791.603	5336
2793.483	5303
2795.362	5294
2797.241	5422
2799.121	5288
2800.997	5333
2802.874	5345
2804.751	5190
2806.628	5204
2808.506	5289
2810.38	5250
2812.255	5255
2814.13	5231
2816.003	5232
2817.878	5268
2819.752	5313
2821.623	5268
2823.496	5124
2825.368	5246
2827.238	5293
2829.111	5181
2830.98	5310
2832.851	5176
2834.719	5308
2836.589	5177
2838.458	5209
2840.327	5294
2842.193	5220
2844.061	5385
2845.927	5244
2847.794	5238
2849.66	5362
2851.525	5432
2853.39	5309
2855.254	5348
2857.117	5295
2858.983	5255
2860.845	5467
2862.707	5396
2864.569	5481
2866.431	5357
2868.293	5396
2870.154	5419
2872.013	5621
2873.873	5446
2875.733	5594
2877.592	5616
2879.451	5657
2881.309	5620
2883.166	5573
2885.022	5845
2886.879	5721
2888.736	5752
2890.591	5863
2892.446	5909
2894.301	5933
2896.155	5821
2898.009	5908
2899.863	5857
2901.716	5685
2903.568	5832
2905.419	5714
2907.27	5745
2909.123	5734
2910.973	5930
2912.824	5922
2914.673	5813
2916.521	5832
2918.372	5898
2920.22	5905
2922.067	5945
2923.914	5880
2925.761	6033
2927.607	6061
2929.455	5998
2931.301	6027
2933.144	6001
2934.99	6102
2936.833	6148
2938.678	6101
2940.522	6221
2942.364	6328
2944.207	6369
2946.048	6416
2947.891	6515
2949.731	6548
2951.571	6574
2953.412	6547
2955.25	6312
2957.09	6362
2958.93	6197
2960.767	6282
2962.606	6350
2964.443	6188
2966.279	6098
2968.116	6204
2969.953	6061
2971.788	6021
2973.623	5835
2975.457	5875
2977.292	5721
2979.127	5699
2980.959	5690
2982.792	5647
2984.624	5670
2986.455	5582
2988.288	5691
2990.119	5675
2991.949	5508
2993.779	5552
2995.608	5471
2997.439	5506
2999.268	5492
3001.096	5279
3002.923	5336
3004.751	5395
3006.578	5366
3008.406	5212
3010.232	5344
3012.057	5250
3013.883	5181
3015.706	5268
3017.532	5097
3019.356	5235
3021.179	5210
3023.002	5165
3024.823	5078
3026.646	5166
3028.469	5126
3030.289	5077
3032.11	5021
3033.93	5063
3035.749	5015
3037.57	5000
3039.39	5058
3041.207	5085
3043.026	5032
3044.842	5130
3046.661	5034
3048.477	4956
3050.294	4972
3052.109	4952
3053.925	5045
3055.739	4867
3057.555	5027
3059.368	4909
3061.181	5067
3062.995	4925
3064.807	5004
3066.62	5000
3068.433	5018
3070.243	4988
3072.054	4935
3073.865	5004
3075.675	4888
3077.485	4963
3079.293	4963
3081.102	4867
3082.911	4912
3084.719	4909
3086.527	4943
3088.333	4868
3090.139	4917
3091.945	4847
3093.75	4830
3095.557	4866
3097.361	4994
3099.165	4950
3100.969	4902
3102.772	4769
3104.575	4836
3106.379	4806
3108.181	4873
3109.982	4788
3111.783	4880
3113.584	4787
3115.386	4763
3117.186	4845
3118.985	4810
3120.783	4773
3122.582	4787
3124.381	4807
3126.179	4736
3127.975	4857
3129.772	4786
3131.569	4893
3133.365	4739
3135.161	4766
3136.956	4854
3138.751	4747
3140.544	4790
3142.338	4875
3144.132	4756
3145.925	4771
3147.717	4667
3149.509	4837
3151.301	4661
3153.091	4715
3154.884	4698
3156.673	4776
3158.462	4763
3160.252	4797
3162.041	4775
3163.831	4653
3165.618	4645
3167.405	4673
3169.193	4674
3170.979	4641
3172.767	4686
3174.553	4758
3176.338	4717
3178.123	4764
3179.907	4776
3181.692	4782
3183.477	4757
3185.259	4715
3187.042	4703
3188.824	4736
3190.607	4618
3192.389	4617
3194.17	4673
3195.951	4613
3197.73	4619
3199.51	4634
3201.289	4730
3203.07	4707
3204.848	4702
3206.626	4687
3208.403	4633
3210.18	4662
3211.959	4523
3213.735	4629
3215.511	4580
3217.285	4682
3219.06	4754
3220.836	4598
3222.611	4705
3224.384	4615
3226.158	4681
3227.929	4603
3229.702	4555
3231.476	4712
3233.248	4650
3235.018	4637
3236.789	4712
3238.56	4664
3240.33	4582
3242.1	4676
3243.869	4592
3245.637	4644
3247.405	4629
3249.172	4625
3250.941	4643
3252.707	4669
3254.474	4594
3256.24	4614
3258.006	4602
3259.772	4653
3261.537	4697
3263.301	4665
3265.065	4625
3266.828	4587
3268.592	4670
3270.355	4524
3272.117	4622
3273.878	4644
3275.64	4683
3277.401	4639
3279.162	4678
3280.922	4602
3282.682	4628
3284.441	4676
3286.199	4732
3287.959	4652
3289.716	4643
3291.475	4643
3293.232	4571
3294.988	4648
3296.744	4661
3298.501	4597
3300.256	4637
3302.011	4510
3303.766	4617
3305.52	4552
3307.275	4572
3309.028	4542
3310.781	4657
3312.533	4659
3314.285	4605
3316.038	4495
3317.789	4590
3319.54	4547
3321.289	4572
3323.039	4502
3324.789	4576
3326.539	4615
3328.288	4557
3330.035	4602
3331.783	4553
3333.531	4562
3335.28	4520
3337.025	4475
3338.771	4592
3340.518	4659
3342.262	4477
3344.009	4594
3345.753	4586
3347.497	4522
3349.24	4492
3350.983	4572
3352.726	4531
3354.469	4472
3356.212	4467
3357.952	4547
3359.694	4499
3361.434	4453
3363.176	4468
3364.916	4523
3366.654	4540
3368.394	4429
3370.132	4479
3371.871	4422
3373.61	4477
3375.346	4365
3377.083	4452
3378.82	4450
3380.556	4445
3382.292	4460
3384.027	4490
3385.763	4390
3387.497	4469
3389.231	4411
3390.965	4495
3392.698	4458
3394.431	4407
3396.164	4464
3397.896	4357
3399.627	4392
3401.36	4360
3403.09	4396
3404.82	4444
3406.55	4368
3408.279	4393
3410.01	4493
3411.738	4325
3413.467	4450
3415.194	4348
3416.92	4333
3418.647	4441
3420.375	4368
3422.102	4402
3423.827	4508
3425.553	4388
3427.277	4272
3429.003	4371
3430.727	4327
3432.451	4297
3434.173	4269
3435.896	4264
3437.62	4415
3439.343	4206
3441.063	4287
3442.785	4335
3444.505	4224
3446.226	4284
3447.948	4305
3449.666	4235
3451.386	4333
3453.104	4318
3454.823	4189
3456.541	4321
3458.259	4230
3459.976	4245
3461.693	4235
3463.408	4174
3465.125	4240
3466.841	4175
3468.556	4268
3470.271	4222
3471.985	4188
3473.698	4189
3475.414	4165
3477.126	4160
3478.838	4162
3480.55	4212
3482.263	4163
3483.975	4180
3485.686	4168
3487.396	4099
3489.106	4147
3490.817	4094
3492.526	4260
3494.236	4094
3495.944	4071
3497.652	4126
3499.359	4141
3501.066	4086
3502.775	4136
3504.481	4066
3506.187	4108
3507.893	4046
3509.598	4138
3511.304	3957
3513.009	3990
3514.713	4126
3516.417	4001
3518.12	4097
3519.821	4056
3521.525	4090
3523.228	4047
3524.929	4015
3526.631	3991
3528.33	4059
3530.032	3989
3531.733	4066
3533.433	4034
3535.131	4006
3536.83	4013
3538.529	4090
3540.227	4032
3541.925	4002
3543.623	4102
3545.319	3984
3547.016	4030
3548.712	4011
3550.408	4028
3552.103	4035
3553.798	3918
3555.491	3991
3557.188	3905
3558.88	3993
3560.574	3939
3562.266	3904
3563.959	3930
3565.651	3939
3567.343	3889
3569.035	3936
3570.725	3900
3572.415	3940
3574.106	3921
3575.797	3939
3577.485	3877
3579.174	3925
3580.863	3897
3582.551	3919
3584.238	3899
3585.926	3915
3587.613	3907
3589.3	3888
3590.986	3857
3592.671	3908
3594.357	3895
3596.042	3796
3597.726	3869
3599.41	3863
3601.094	3821
3602.778	3854
3604.461	3790
3606.143	3839
3607.825	3785
3609.507	3829
3611.188	3754
3612.87	3768
3614.551	3788
3616.229	3752
3617.909	3666
3619.589	3753
3621.269	3847
3622.948	3786
3624.625	3794
3626.302	3723
3627.98	3773
3629.657	3762
3631.334	3752
3633.01	3705
3634.686	3756
3636.361	3743
3638.036	3753
3639.712	3740
3641.385	3706
3643.06	3697
3644.732	3738
3646.405	3707
3648.08	3683
3649.751	3650
3651.424	3712
3653.094	3718
3654.766	3694
3656.436	3634
3658.106	3605
3659.777	3648
3661.446	3691
3663.115	3715
3664.783	3634
3666.452	3637
3668.121	3726
3669.788	3635
3671.454	3605
3673.121	3621
3674.789	3593
3676.455	3595
3678.12	3613
3679.784	3710
3681.45	3606
3683.114	3644
3684.779	3652
3686.442	3585
3688.105	3535
3689.768	3564
3691.43	3675
3693.093	3621
3694.754	3548
3696.415	3526
3698.076	3583
3699.736	3589
3701.396	3597
3703.057	3629
3704.716	3571
3706.375	3605
3708.034	3628
3709.692	3606
3711.351	3553
3713.008	3621
3714.665	3574
3716.321	3603
3717.977	3545
3719.634	3571
3721.29	3507
3722.945	3555
3724.598	3471
3726.253	3578
3727.907	3445
3729.561	3597
3731.214	3521
3732.867	3542
3734.518	3478
3736.171	3564
3737.824	3530
3739.474	3481
3741.125	3479
3742.775	3494
3744.425	3488
3746.074	3639
3747.725	3520
3749.373	3544
3751.022	3541
3752.669	3451
3754.318	3504
3755.966	3530
3757.612	3466
3759.259	3468
3760.905	3537
3762.55	3478
3764.197	3419
3765.842	3459
3767.486	3478
3769.131	3472
3770.774	3434
3772.417	3408
3774.061	3451
3775.705	3450
3777.347	3457
3778.988	3404
3780.629	3533
3782.271	3411
3783.912	3493
3785.552	3478
3787.192	3443
3788.831	3391
3790.472	3410
3792.112	3440
3793.75	3323
3795.388	3376
3797.024	3343
3798.661	3451
3800.3	3402
3801.936	3350
3803.572	3403
3805.208	3309
3806.844	3416
3808.48	3375
3810.115	3383
3811.748	3370
3813.382	3426
3815.016	3412
3816.649	3390
3818.283	3312
3819.914	3297
3821.547	3424
3823.178	3314
3824.809	3426
3826.441	3358
3828.072	3383
3829.701	3341
3831.331	3314
3832.96	3272
3834.591	3315
3836.219	3288
3837.847	3257
3839.475	3344
3841.102	3385
3842.729	3310
3844.357	3303
3845.984	3317
3847.609	3241
3849.234	3327
3850.86	3329
3852.485	3349
3854.11	3286
3855.734	3321
3857.357	3208
3858.981	3371
3860.603	3346
3862.227	3302
3863.848	3281
3865.471	3323
3867.092	3315
3868.713	3251
3870.334	3311
3871.954	3301
3873.575	3227
3875.194	3208
3876.813	3221
3878.433	3278
3880.051	3290
3881.669	3179
3883.286	3205
3884.904	3326
3886.52	3193
3888.138	3256
3889.754	3219
3891.37	3206
3892.985	3249
3894.6	3243
3896.216	3220
3897.831	3225
3899.444	3146
3901.058	3215
3902.67	3177
3904.283	3215
3905.897	3219
3907.509	3181
3909.121	3239
3910.731	3235
3912.342	3203
3913.954	3148
3915.563	3233
3917.174	3212
3918.783	3220
3920.391	3193
3922.002	3208
3923.611	3219
3925.218	3245
3926.826	3205
3928.432	3211
3930.039	3174
3931.647	3125
3933.253	3168
3934.859	3192
3936.464	3208
3938.068	3094
3939.675	3229
3941.278	3212
3942.883	3178
3944.486	3167
3946.089	3190
3947.692	3174
3949.295	3135
3950.898	3104
3952.499	3139
3954.1	3238
3955.7	3068
3957.303	3172
3958.903	3161
3960.502	3290
3962.101	3123
3963.7	3119
3965.301	3072
3966.899	3133
3968.497	3174
3970.094	3044
3971.691	3080
3973.288	3111
3974.885	3113
3976.481	3098
3978.077	3123
3979.672	3080
3981.267	3156
3982.863	3036
3984.457	3115
3986.051	3067
3987.645	3084
3989.238	3105
3990.831	3039
3992.425	3059
3994.017	3022
3995.607	3042
3997.199	3038
3998.79	3037
4000.382	3048
4001.973	3024
4003.561	2964
4005.151	3034
4006.741	3029
4008.331	3076
4009.918	3000
4011.507	2940
4013.095	3005
4014.681	3005
4016.269	2939
4017.856	3005
4019.443	3008
4021.028	2954
4022.614	2927
4024.199	3008
4025.785	2927
4027.37	2960
4028.953	2972
4030.536	2975
4032.12	2962
4033.704	2955
4035.287	2927
4036.869	2949
4038.45	2956
4040.032	2860
4041.613	2933
4043.195	2966
4044.776	3009
4046.356	2893
4047.935	2959
4049.515	2944
4051.095	3002
4052.674	2959
4054.251	2910
4055.829	2892
4057.406	2852
4058.985	2935
4060.562	3003
4062.139	2915
4063.715	2944
4065.29	2927
4066.865	2891
4068.442	2888
4070.016	2888
4071.59	2914
4073.164	2836
4074.738	2896
4076.312	2958
4077.885	2904
4079.458	2877
4081.03	2880
4082.602	2891
4084.173	2877
4085.745	2920
4087.315	2861
4088.886	2947
4090.456	2876
4092.026	2818
4093.596	2891
4095.165	2869
4096.734	2877
4098.301	2825
4099.869	2850
4101.437	2892
4103.006	2811
4104.572	2854
4106.139	2806
4107.704	2791
4109.27	2788
4110.837	2792
4112.401	2784
4113.966	2894
4115.53	2764
4117.094	2824
4118.659	2865
4120.223	2811
4121.785	2745
4123.347	2852
4124.909	2889
4126.471	2715
4128.034	2824
4129.595	2735
4131.155	2775
4132.716	2778
4134.275	2746
4135.836	2872
4137.395	2788
4138.955	2767
4140.513	2783
4142.071	2703
4143.628	2786
4145.188	2777
4146.745	2744
4148.302	2780
4149.858	2703
4151.414	2724
4152.971	2786
4154.526	2721
4156.081	2766
4157.635	2732
4159.189	2773
4160.745	2714
4162.298	2748
4163.852	2672
4165.405	2718
4166.957	2744
4168.51	2685
4170.063	2759
4171.614	2682
4173.166	2760
4174.717	2677
4176.267	2640
4177.817	2716
4179.368	2753
4180.917	2677
4182.466	2675
4184.016	2684
4185.564	2639
4187.112	2678
4188.66	2694
4190.207	2694
4191.754	2639
4193.301	2649
4194.848	2713
4196.394	2671
4197.94	2671
4199.484	2658
4201.03	2606
4202.575	2632
4204.12	2641
4205.663	2684
4207.207	2740
4208.75	2628
4210.292	2583
4211.836	2631
4213.378	2688
4214.92	2614
4216.46	2565
4218.002	2647
4219.544	2574
4221.083	2659
4222.625	2656
4224.164	2607
4225.703	2658
4227.244	2586
4228.782	2571
4230.32	2609
4231.857	2581
4233.395	2581
4234.933	2608
4236.471	2638
4238.007	2582
4239.542	2671
4241.078	2632
4242.614	2581
4244.15	2599
4245.685	2597
4247.219	2614
4248.753	2540
4250.287	2532
4251.82	2577
4253.354	2532
4254.887	2537
4256.419	2528
4257.951	2557
4259.483	2515
4261.016	2614
4262.547	2558
4264.078	2542
4265.608	2556
4267.137	2557
4268.668	2555
4270.197	2553
4271.727	2523
4273.254	2531
4274.783	2554
4276.311	2632
4277.84	2469
4279.366	2514
4280.894	2531
4282.42	2496
4283.946	2524
4285.473	2579
4286.998	2532
4288.523	2527
4290.047	2542
4291.572	2536
4293.096	2566
4294.622	2590
4296.144	2507
4297.668	2427
4299.19	2459
4300.713	2505
4302.236	2460
4303.758	2547
4305.279	2432
4306.799	2506
4308.321	2477
4309.842	2494
4311.361	2517
4312.882	2491
4314.401	2464
