400.0961	2993
402.6185	3079
405.1424	3019
407.6635	3054
410.1838	3030
412.7035	3062
415.2225	3060
417.7388	3054
420.2585	3038
422.7754	3121
425.2917	3175
427.8072	3152
430.3221	3343
432.8363	3274
435.3498	3253
437.8626	3249
440.3727	3315
442.8841	3225
445.3969	3218
447.907	3223
450.4142	3255
452.9229	3292
455.4289	3171
457.9362	3238
460.4449	3182
462.9488	3141
465.454	3210
467.9566	3202
470.4604	3147
472.9637	3129
475.4662	3194
477.966	3138
480.4671	3163
482.9656	3173
485.4633	3163
487.9645	3194
490.4608	3199
492.9566	3210
495.4536	3265
497.948	3244
500.4437	3226
502.9387	3290
505.431	3305
507.9226	3172
510.4136	3259
512.9079	3205
515.3975	3190
517.8864	3257
520.3746	3221
522.8622	3309
525.3491	3242
527.8394	3265
530.3249	3277
532.8098	3271
535.2939	3283
537.7774	3242
540.2623	3256
542.7444	3268
545.2259	3369
547.7067	3338
550.1868	3280
552.6683	3279
555.147	3291
557.6231	3260
560.1005	3348
562.5773	3307
565.0534	3340
567.5308	3268
570.0056	3372
572.4776	3376
574.951	3426
577.4237	3445
579.8978	3486
582.3671	3430
584.8378	3472
587.3079	3410
589.7773	3497
592.244	3490
594.714	3462
597.1793	3443
599.6461	3463
602.1121	3343
604.5754	3418
607.0421	3373
609.5042	3334
611.9675	3479
614.4282	3345
616.8902	3393
619.3515	3378
621.8122	3331
624.2702	3360
626.7296	3390
629.1863	3317
631.6423	3395
634.1017	3352
636.5563	3338
639.0104	3395
641.4658	3375
643.9185	3333
646.3725	3328
648.8239	3351
651.2766	3405
653.7266	3403
656.176	3377
658.6247	3401
661.0748	3419
663.5242	3349
665.9709	3416
668.417	3426
670.8624	3481
673.3092	3495
675.7533	3429
678.1968	3351
680.6395	3441
683.0817	3431
685.5251	3479
687.9659	3457
690.4061	3393
692.8456	3382
695.2844	3401
697.7226	3404
700.1621	3501
702.599	3443
705.0332	3455
707.4688	3403
709.9036	3531
712.3399	3512
714.7735	3496
717.2044	3492
719.6367	3544
722.0683	3520
724.4993	3535
726.9296	3580
729.3593	3525
731.7883	3596
734.2147	3577
736.6423	3535
739.0714	3574
741.4958	3644
743.9216	3649
746.3447	3602
748.7691	3582
751.1929	3664
753.616	3660
756.0366	3697
758.4584	3678
760.8776	3710
763.2982	3751
765.718	3619
768.1373	3729
770.5539	3685
772.9698	3716
775.3871	3709
777.8038	3692
780.2178	3732
782.6332	3723
785.0459	3764
787.458	3671
789.8714	3687
792.2842	3643
794.6943	3656
797.1038	3737
799.5127	3654
801.9209	3641
804.3324	3742
806.7393	3697
809.1456	3685
811.5513	3740
813.9562	3772
816.3625	3816
818.7663	3774
821.1693	3807
823.5718	3768
825.9735	3745
828.3746	3709
830.7771	3780
833.177	3698
835.5762	3784
837.9747	3825
840.3727	3815
842.772	3721
845.1666	3819
847.5626	3841
849.958	3949
852.3527	3981
854.7488	3899
857.1403	3975
859.5331	3850
861.9253	3880
864.3168	3858
866.7057	3834
869.098	3888
871.4876	3933
873.8746	3801
876.263	3855
878.6487	3882
881.0378	3874
883.4243	3916
885.8081	3895
888.1933	3875
890.5759	3880
892.9598	3829
895.343	3834
897.7256	3889
900.1057	3836
902.4871	3844
904.8659	3902
907.246	3992
909.6254	3955
912.0023	3930
914.3786	4047
916.7562	4006
919.1331	4095
921.5074	4100
923.8831	4123
926.2562	4115
928.6287	4088
931.0005	4117
933.3757	4162
935.7462	4238
938.1162	4155
940.4855	4233
942.8542	4379
945.2242	4378
947.5916	4541
949.9584	4573
952.3266	4795
954.6921	5157
957.0571	5434
959.4233	5681
961.787	5761
964.15	5643
966.5125	5504
968.8742	5173
971.2354	4834
973.5959	4593
975.9559	4398
978.3151	4169
980.6738	4098
983.0338	4171
985.3912	4050
987.7461	4024
990.1022	4024
992.4578	3985
994.8127	4062
997.1689	4024
999.5207	4036
1001.874	4096
1004.226	4062
1006.576	4038
1008.929	4004
1011.28	4024
1013.628	3981
1015.977	3990
1018.324	4072
1020.674	4060
1023.019	4106
1025.366	4067
1027.713	4174
1030.056	4079
1032.399	4107
1034.746	4100
1037.087	4132
1039.431	4208
1041.771	4087
1044.113	4145
1046.454	4161
1048.793	4162
1051.133	4193
1053.471	4067
1055.807	4152
1058.146	4203
1060.483	4216
1062.818	4182
1065.153	4248
1067.489	4197
1069.822	4300
1072.156	4405
1074.488	4375
1076.82	4300
1079.15	4293
1081.48	4283
1083.814	4171
1086.143	4216
1088.471	4107
1090.799	4214
1093.126	4114
1095.452	4187
1097.78	4058
1100.105	4093
1102.43	4078
1104.754	4041
1107.077	4184
1109.4	4145
1111.722	4080
1114.044	4120
1116.365	4044
1118.685	4153
1121.005	4125
1123.324	4140
1125.643	4119
1127.961	4124
1130.278	4054
1132.595	4128
1134.911	4157
1137.226	4025
1139.541	4184
1141.854	4118
1144.167	3994
1146.482	4187
1148.793	4047
1151.105	4124
1153.414	4109
1155.725	4140
1158.033	4050
1160.344	4052
1162.651	4078
1164.959	4080
1167.265	4100
1169.572	4166
1171.878	4139
1174.184	4159
1176.488	4092
1178.79	4092
1181.094	4137
1183.396	4026
1185.699	4008
1188.001	4116
1190.301	4189
1192.6	4162
1194.9	4088
1197.2	4070
1199.497	4159
1201.794	4055
1204.09	4193
1206.387	4096
1208.684	4140
1210.978	4124
1213.272	4032
1215.565	4220
1217.858	4090
1220.15	4155
1222.443	4125
1224.734	4155
1227.024	4229
1229.313	4170
1231.602	4117
1233.892	4284
1236.18	4353
1238.467	4230
1240.754	4275
1243.04	4257
1245.325	4395
1247.612	4374
1249.896	4473
1252.178	4332
1254.461	4333
1256.743	4297
1259.027	4303
1261.308	4425
1263.587	4402
1265.867	4304
1268.146	4324
1270.425	4385
1272.703	4312
1274.981	4350
1277.256	4389
1279.532	4298
1281.808	4381
1284.083	4246
1286.358	4309
1288.63	4282
1290.904	4294
1293.175	4167
1295.449	4264
1297.719	4248
1299.99	4163
1302.259	4185
1304.529	4238
1306.798	4307
1309.065	4275
1311.333	4196
1313.599	4295
1315.866	4334
1318.131	4238
1320.396	4280
1322.66	4201
1324.925	4215
1327.187	4179
1329.448	4205
1331.711	4251
1333.974	4165
1336.234	4222
1338.493	4195
1340.752	4268
1343.01	4199
1345.269	4208
1347.526	4233
1349.784	4272
1352.04	4147
1354.295	4246
1356.552	4351
1358.806	4191
1361.059	4228
1363.312	4257
1365.564	4292
1367.818	4195
1370.069	4194
1372.318	4277
1374.568	4183
1376.817	4333
1379.066	4208
1381.316	4298
1383.564	4256
1385.809	4254
1388.056	4279
1390.301	4320
1392.549	4302
1394.793	4321
1397.036	4404
1399.279	4340
1401.522	4427
1403.763	4438
1406.007	4488
1408.248	4314
1410.487	4380
1412.727	4349
1414.965	4472
1417.205	4438
1419.442	4344
1421.68	4470
1423.915	4410
1426.152	4377
1428.388	4483
1430.623	4454
1432.857	4462
1435.091	4484
1437.323	4383
1439.556	4455
1441.789	4491
1444.019	4485
1446.25	4555
1448.48	4527
1450.708	4533
1452.938	4492
1455.167	4590
1457.394	4569
1459.62	4558
1461.846	4564
1464.073	4541
1466.299	4554
1468.523	4485
1470.746	4489
1472.969	4461
1475.191	4433
1477.415	4422
1479.636	4366
1481.858	4319
1484.078	4321
1486.298	4282
1488.518	4357
1490.736	4233
1492.954	4146
1495.169	4311
1497.386	4213
1499.602	4287
1501.819	4304
1504.034	4251
1506.248	4242
1508.462	4268
1510.675	4226
1512.888	4168
1515.1	4289
1517.311	4279
1519.522	4186
1521.732	4331
1523.942	4228
1526.151	4242
1528.36	4241
1530.566	4270
1532.773	4225
1534.98	4299
1537.187	4255
1539.392	4223
1541.596	4239
1543.801	4307
1546.005	4298
1548.208	4268
1550.411	4383
1552.612	4335
1554.814	4302
1557.013	4238
1559.212	4341
1561.414	4220
1563.612	4339
1565.811	4322
1568.007	4328
1570.203	4347
1572.403	4336
1574.598	4359
1576.792	4459
1578.988	4421
1581.181	4396
1583.376	4499
1585.568	4357
1587.761	4501
1589.952	4315
1592.143	4407
1594.333	4422
1596.524	4466
1598.715	4370
1600.903	4460
1603.091	4344
1605.278	4509
1607.466	4484
1609.652	4452
1611.838	4507
1614.023	4482
1616.207	4322
1618.391	4512
1620.576	4412
1622.759	4417
1624.941	4386
1627.123	4382
1629.304	4490
1631.484	4501
1633.664	4507
1635.844	4503
1638.022	4579
1640.201	4476
1642.38	4605
1644.556	4580
1646.732	4506
1648.908	4523
1651.084	4498
1653.257	4509
1655.433	4551
1657.607	4550
1659.779	4600
1661.951	4540
1664.122	4554
1666.295	4572
1668.467	4619
1670.635	4637
1672.805	4728
1674.973	4686
1677.142	4588
1679.31	4618
1681.478	4571
1683.644	4617
1685.81	4596
1687.975	4543
1690.142	4604
1692.305	4518
1694.468	4577
1696.632	4483
1698.794	4520
1700.957	4482
1703.119	4470
1705.279	4391
1707.439	4410
1709.598	4373
1711.758	4427
1713.917	4488
1716.075	4404
1718.231	4496
1720.388	4400
1722.543	4449
1724.702	4406
1726.856	4407
1729.01	4387
1731.164	4454
1733.317	4366
1735.471	4395
1737.623	4423
1739.774	4424
1741.925	4393
1744.075	4419
1746.225	4409
1748.376	4353
1750.524	4428
1752.672	4492
1754.82	4396
1756.965	4356
1759.113	4326
1761.259	4360
1763.405	4378
1765.549	4474
1767.694	4489
1769.836	4513
1771.981	4498
1774.123	4343
1776.264	4441
1778.405	4534
1780.546	4432
1782.687	4419
1784.827	4388
1786.966	4542
1789.103	4446
1791.242	4495
1793.381	4484
1795.517	4312
1797.653	4436
1799.788	4451
1801.923	4446
1804.057	4425
1806.193	4442
1808.326	4511
1810.457	4515
1812.59	4416
1814.721	4491
1816.855	4425
1818.984	4378
1821.113	4517
1823.244	4402
1825.372	4516
1827.499	4499
1829.63	4495
1831.756	4339
1833.882	4477
1836.007	4455
1838.132	4464
1840.26	4389
1842.384	4402
1844.507	4373
1846.63	4460
1848.752	4420
1850.875	4360
1852.996	4371
1855.118	4485
1857.238	4338
1859.358	4412
1861.477	4421
1863.597	4394
1865.715	4399
1867.832	4512
1869.948	4440
1872.064	4406
1874.181	4400
1876.297	4465
1878.411	4473
1880.526	4496
1882.639	4431
1884.752	4391
1886.865	4435
1888.977	4489
1891.089	4433
1893.2	4415
1895.308	4437
1897.42	4438
1899.53	4424
1901.639	4423
1903.745	4395
1905.853	4443
1907.962	4487
1910.067	4455
1912.174	4347
1914.278	4475
1916.383	4556
1918.486	4450
1920.592	4526
1922.694	4463
1924.797	4483
1926.898	4467
1929	4529
1931.102	4491
1933.203	4484
1935.301	4430
1937.401	4578
1939.499	4480
1941.598	4524
1943.697	4541
1945.793	4462
1947.888	4566
1949.985	4507
1952.08	4454
1954.176	4496
1956.269	4506
1958.364	4363
1960.457	4438
1962.549	4491
1964.642	4555
1966.733	4525
1968.823	4527
1970.913	4471
1973.005	4475
1975.093	4523
1977.184	4447
1979.271	4452
1981.359	4466
1983.446	4495
1985.532	4440
1987.619	4380
1989.705	4413
1991.789	4494
1993.874	4441
1995.956	4505
1998.041	4492
2000.123	4428
2002.206	4504
2004.287	4402
2006.368	4373
2008.449	4488
2010.529	4398
2012.609	4455
2014.688	4391
2016.766	4480
2018.843	4467
2020.922	4357
2022.999	4485
2025.074	4425
2027.15	4448
2029.225	4441
2031.299	4455
2033.375	4438
2035.447	4347
2037.52	4471
2039.592	4320
2041.664	4422
2043.736	4466
2045.807	4374
2047.876	4419
2049.947	4414
2052.015	4404
2054.086	4554
2056.153	4430
2058.221	4448
2060.288	4534
2062.353	4502
2064.42	4420
2066.486	4465
2068.55	4448
2070.614	4500
2072.678	4447
2074.741	4575
2076.805	4395
2078.866	4517
2080.929	4575
2082.99	4404
2085.049	4532
2087.109	4466
2089.17	4421
2091.228	4466
2093.286	4482
2095.344	4565
2097.4	4487
2099.46	4474
2101.516	4480
2103.572	4419
2105.626	4496
2107.679	4405
2109.735	4490
2111.788	4469
2113.841	4553
2115.894	4398
2117.945	4500
2119.997	4368
2122.049	4402
2124.1	4421
2126.148	4471
2128.197	4497
2130.246	4506
2132.296	4511
2134.342	4436
2136.39	4453
2138.437	4458
2140.483	4457
2142.527	4478
2144.574	4438
2146.619	4426
2148.661	4510
2150.705	4463
2152.747	4424
2154.792	4430
2156.832	4423
2158.874	4404
2160.915	4464
2162.954	4361
2164.995	4463
2167.034	4425
2169.072	4370
2171.111	4435
2173.148	4338
2175.186	4518
2177.223	4301
2179.258	4474
2181.294	4453
2183.328	4420
2185.362	4467
2187.398	4439
2189.431	4303
2191.463	4387
2193.495	4392
2195.528	4419
2197.56	4380
2199.59	4392
2201.62	4477
2203.649	4465
2205.678	4386
2207.708	4432
2209.737	4420
2211.764	4392
2213.791	4295
2215.817	4377
2217.843	4435
2219.87	4349
2221.895	4406
2223.919	4469
2225.942	4340
2227.966	4307
2229.988	4406
2232.012	4357
2234.032	4318
2236.054	4340
2238.074	4400
2240.095	4414
2242.116	4448
2244.135	4333
2246.153	4340
2248.171	4399
2250.188	4317
2252.208	4332
2254.223	4300
2256.239	4382
2258.255	4423
2260.269	4339
2262.283	4341
2264.3	4351
2266.312	4335
2268.325	4421
2270.336	4275
2272.349	4385
2274.362	4380
2276.372	4333
2278.383	4357
2280.392	4383
2282.402	4320
2284.409	4346
2286.418	4381
2288.427	4401
2290.433	4379
2292.441	4401
2294.446	4335
2296.453	4351
2298.459	4445
2300.463	4354
2302.466	4420
2304.471	4397
2306.475	4424
2308.477	4317
2310.478	4349
2312.481	4416
2314.481	4358
2316.481	4246
2318.482	4365
2320.482	4355
2322.48	4419
2324.48	4342
2326.478	4327
2328.476	4265
2330.473	4352
2332.469	4342
2334.465	4266
2336.46	4259
2338.454	4343
2340.45	4341
2342.444	4349
2344.437	4327
2346.43	4226
2348.421	4181
2350.414	4235
2352.405	4382
2354.396	4282
2356.386	4346
2358.376	4245
2360.366	4234
2362.355	4289
2364.343	4362
2366.331	4267
2368.317	4269
2370.304	4275
2372.292	4306
2374.278	4245
2376.262	4176
2378.247	4328
2380.23	4234
2382.216	4317
2384.199	4236
2386.181	4289
2388.163	4279
2390.144	4280
2392.127	4308
2394.107	4201
2396.087	4148
2398.066	4281
2400.046	4258
2402.023	4210
2404.004	4146
2405.981	4225
2407.957	4221
2409.934	4260
2411.91	4186
2413.886	4231
2415.862	4206
2417.836	4154
2419.809	4303
2421.784	4186
2423.756	4199
2425.73	4270
2427.701	4311
2429.672	4262
2431.644	4222
2433.615	4192
2435.586	4284
2437.555	4210
2439.523	4293
2441.491	4201
2443.459	4278
2445.428	4211
2447.395	4201
2449.361	4228
2451.327	4219
2453.292	4282
2455.257	4360
2457.223	4198
2459.187	4239
2461.15	4311
2463.113	4156
2465.076	4212
2467.039	4255
2468.999	4238
2470.96	4208
2472.921	4151
2474.881	4199
2476.841	4257
2478.8	4170
2480.759	4163
2482.717	4170
2484.675	4219
2486.63	4155
2488.589	4217
2490.545	4119
2492.5	4171
2494.455	4161
2496.408	4200
2498.364	4198
2500.318	4200
2502.27	4234
2504.223	4152
2506.174	4228
2508.126	4198
2510.078	4209
2512.03	4078
2513.979	4176
2515.927	4174
2517.877	4210
2519.826	4167
2521.775	4184
2523.722	4130
2525.668	4154
2527.616	4188
2529.561	4219
2531.508	4261
2533.452	4197
2535.398	4170
2537.342	4198
2539.284	4180
2541.229	4153
2543.173	4104
2545.114	4144
2547.055	4150
2548.996	4175
2550.938	4123
2552.878	4151
2554.817	4160
2556.756	4160
2558.695	4198
2560.633	4175
2562.572	4188
2564.509	4165
2566.445	4143
2568.382	4140
2570.317	4170
2572.254	4209
2574.189	4125
2576.123	4148
2578.057	4163
2579.99	4137
2581.923	4188
2583.855	4151
2585.788	4228
2587.719	4141
2589.65	4114
2591.579	4122
2593.511	4144
2595.44	4162
2597.37	4112
2599.297	4136
2601.225	4188
2603.153	4153
2605.08	4138
2607.007	4180
2608.932	4205
2610.858	4215
2612.782	4151
2614.709	4167
2616.632	4229
2618.556	4117
2620.478	4175
2622.401	4131
2624.324	4154
2626.247	4199
2628.167	4188
2630.088	4153
2632.008	4238
2633.928	4201
2635.848	4129
2637.766	4155
2639.684	4232
2641.603	4119
2643.519	4211
2645.437	4195
2647.353	4093
2649.27	4198
2651.184	4200
2653.099	4215
2655.014	4171
2656.928	4179
2658.842	4174
2660.755	4077
2662.667	4253
2664.579	4146
2666.491	4182
2668.402	4219
2670.312	4171
2672.222	4319
2674.132	4143
2676.042	4101
2677.951	4154
2679.859	4188
2681.766	4125
2683.674	4105
2685.582	4118
2687.488	4107
2689.392	4180
2691.298	4098
2693.202	4032
2695.107	4192
2697.012	4198
2698.914	4172
2700.817	4096
2702.72	4158
2704.622	4068
2706.524	4173
2708.425	4009
2710.326	4145
2712.225	4130
2714.125	4026
2716.024	4118
2717.923	4078
2719.822	4044
2721.719	4143
2723.616	4139
2725.512	4088
2727.41	4099
2729.305	4051
2731.201	4152
2733.095	4111
2734.99	4110
2736.884	4065
2738.778	4070
2740.67	4184
2742.562	4092
2744.455	4179
2746.346	4115
2748.238	4132
2750.129	4066
2752.018	4087
2753.907	4071
2755.797	4090
2757.687	4094
2759.575	4144
2761.462	4095
2763.349	4143
2765.237	4066
2767.124	4080
2769.009	4092
2770.894	4009
2772.779	4136
2774.663	4088
2776.547	4104
2778.431	4028
2780.314	4032
2782.197	4049
2784.078	4086
2785.96	4092
2787.842	4087
2789.723	4104
2791.603	4100
2793.483	4064
2795.362	4124
2797.241	4118
2799.121	4087
2800.997	4027
2802.874	4069
2804.751	4073
2806.628	4036
2808.506	4030
2810.38	4063
2812.255	4045
2814.13	4085
2816.003	4092
2817.878	4079
2819.752	4036
2821.623	4072
2823.496	4027
2825.368	4046
2827.238	4026
2829.111	4059
2830.98	4080
2832.851	4059
2834.719	4006
2836.589	4084
2838.458	4091
2840.327	4082
2842.193	4195
2844.061	4114
2845.927	4055
2847.794	4068
2849.66	4122
2851.525	4137
2853.39	4168
2855.254	4096
2857.117	4168
2858.983	4054
2860.845	4185
2862.707	4242
2864.569	4205
2866.431	4240
2868.293	4301
2870.154	4250
2872.013	4359
2873.873	4368
2875.733	4518
2877.592	4443
2879.451	4502
2881.309	4592
2883.166	4601
2885.022	4600
2886.879	4627
2888.736	4635
2890.591	4711
2892.446	4744
2894.301	4662
2896.155	4701
2898.009	4666
2899.863	4652
2901.716	4656
2903.568	4680
2905.419	4655
2907.27	4581
2909.123	4573
2910.973	4651
2912.824	4726
2914.673	4661
2916.521	4774
2918.372	4823
2920.22	4843
2922.067	4915
2923.914	5028
2925.761	5019
2927.607	4975
2929.455	5098
2931.301	5163
2933.144	5178
2934.99	5283
2936.833	5255
2938.678	5386
2940.522	5376
2942.364	5535
2944.207	5423
2946.048	5526
2947.891	5626
2949.731	5617
2951.571	5594
2953.412	5475
2955.25	5456
2957.09	5404
2958.93	5242
2960.767	5329
2962.606	5181
2964.443	5262
2966.279	5057
2968.116	5060
2969.953	5002
2971.788	4882
2973.623	4925
2975.457	4859
2977.292	4806
2979.127	4970
2980.959	4823
2982.792	4797
2984.624	4687
2986.455	4715
2988.288	4652
2990.119	4617
2991.949	4680
2993.779	4607
2995.608	4542
2997.439	4494
2999.268	4546
3001.096	4514
3002.923	4366
3004.751	4389
3006.578	4259
3008.406	4403
3010.232	4227
3012.057	4217
3013.883	4206
3015.706	4164
3017.532	4078
3019.356	4167
3021.179	4117
3023.002	4069
3024.823	4029
3026.646	4013
3028.469	4018
3030.289	3981
3032.11	4075
3033.93	3981
3035.749	3883
3037.57	3916
3039.39	3956
3041.207	3929
3043.026	3985
3044.842	3990
3046.661	3919
3048.477	3856
3050.294	3896
3052.109	3981
3053.925	3931
3055.739	3951
3057.555	3981
3059.368	3868
3061.181	3947
3062.995	3913
3064.807	3920
3066.62	3914
3068.433	3961
3070.243	3930
3072.054	3930
3073.865	3886
3075.675	3853
3077.485	3919
3079.293	3903
3081.102	3876
3082.911	3808
3084.719	3872
3086.527	3915
3088.333	3898
3090.139	3938
3091.945	3800
3093.75	3920
3095.557	3768
3097.361	3859
3099.165	3851
3100.969	3781
3102.772	3783
3104.575	3813
3106.379	3789
3108.181	3728
3109.982	3808
3111.783	3746
3113.584	3827
3115.386	3687
3117.186	3828
3118.985	3795
3120.783	3826
3122.582	3749
3124.381	3799
3126.179	3752
3127.975	3790
3129.772	3756
3131.569	3814
3133.365	3801
3135.161	3796
3136.956	3667
3138.751	3682
3140.544	3713
3142.338	3740
3144.132	3740
3145.925	3710
3147.717	3648
3149.509	3753
3151.301	3794
3153.091	3689
3154.884	3635
3156.673	3674
3158.462	3686
3160.252	3696
3162.041	3721
3163.831	3712
3165.618	3671
3167.405	3707
3169.193	3696
3170.979	3709
3172.767	3752
3174.553	3770
3176.338	3702
3178.123	3691
3179.907	3633
3181.692	3757
3183.477	3658
3185.259	3711
3187.042	3755
3188.824	3730
3190.607	3596
3192.389	3682
3194.17	3711
3195.951	3686
3197.73	3654
3199.51	3672
3201.289	3646
3203.07	3648
3204.848	3683
3206.626	3685
3208.403	3686
3210.18	3745
3211.959	3735
3213.735	3691
3215.511	3761
3217.285	3689
3219.06	3791
3220.836	3722
3222.611	3692
3224.384	3773
3226.158	3724
3227.929	3799
3229.702	3699
3231.476	3697
3233.248	3641
3235.018	3666
3236.789	3696
3238.56	3718
3240.33	3720
3242.1	3744
3243.869	3685
3245.637	3711
3247.405	3759
3249.172	3736
3250.941	3769
3252.707	3752
3254.474	3711
3256.24	3702
3258.006	3779
3259.772	3704
3261.537	3677
3263.301	3727
3265.065	3705
3266.828	3718
3268.592	3801
3270.355	3699
3272.117	3639
3273.878	3630
3275.64	3665
3277.401	3703
3279.162	3727
3280.922	3701
3282.682	3787
3284.441	3762
3286.199	3761
3287.959	3676
3289.716	3755
3291.475	3747
3293.232	3845
3294.988	3781
3296.744	3737
3298.501	3778
3300.256	3686
3302.011	3752
3303.766	3709
3305.52	3769
3307.275	3761
3309.028	3762
3310.781	3710
3312.533	3720
3314.285	3731
3316.038	3654
3317.789	3779
3319.54	3643
3321.289	3754
3323.039	3729
3324.789	3741
3326.539	3737
3328.288	3729
3330.035	3781
3331.783	3727
3333.531	3698
3335.28	3791
3337.025	3727
3338.771	3749
3340.518	3729
3342.262	3710
3344.009	3703
3345.753	3701
3347.497	3662
3349.24	3679
3350.983	3721
3352.726	3629
3354.469	3709
3356.212	3645
3357.952	3742
3359.694	3634
3361.434	3665
3363.176	3697
3364.916	3725
3366.654	3684
3368.394	3614
3370.132	3708
3371.871	3596
3373.61	3654
3375.346	3612
3377.083	3663
3378.82	3666
3380.556	3595
3382.292	3700
3384.027	3566
3385.763	3553
3387.497	3543
3389.231	3618
3390.965	3610
3392.698	3587
3394.431	3572
3396.164	3636
3397.896	3588
3399.627	3580
3401.36	3663
3403.09	3589
3404.82	3610
3406.55	3546
3408.279	3530
3410.01	3570
3411.738	3666
3413.467	3568
3415.194	3616
3416.92	3559
3418.647	3591
3420.375	3512
3422.102	3501
3423.827	3621
3425.553	3524
3427.277	3589
3429.003	3583
3430.727	3531
3432.451	3571
3434.173	3547
3435.896	3579
3437.62	3505
3439.343	3587
3441.063	3534
3442.785	3505
3444.505	3529
3446.226	3462
3447.948	3548
3449.666	3483
3451.386	3517
3453.104	3495
3454.823	3499
3456.541	3542
3458.259	3349
3459.976	3488
3461.693	3414
3463.408	3410
3465.125	3427
3466.841	3493
3468.556	3476
3470.271	3458
3471.985	3453
3473.698	3429
3475.414	3371
3477.126	3376
3478.838	3430
3480.55	3406
3482.263	3422
3483.975	3397
3485.686	3365
3487.396	3366
3489.106	3358
3490.817	3351
3492.526	3376
3494.236	3305
3495.944	3373
3497.652	3317
3499.359	3347
3501.066	3324
3502.775	3321
3504.481	3259
3506.187	3304
3507.893	3360
3509.598	3291
3511.304	3279
3513.009	3304
3514.713	3296
3516.417	3248
3518.12	3224
3519.821	3321
3521.525	3282
3523.228	3302
3524.929	3276
3526.631	3173
3528.33	3255
3530.032	3242
3531.733	3273
3533.433	3277
3535.131	3270
3536.83	3268
3538.529	3240
3540.227	3227
3541.925	3256
3543.623	3209
3545.319	3293
3547.016	3187
3548.712	3208
3550.408	3186
3552.103	3263
3553.798	3187
3555.491	3232
3557.188	3197
3558.88	3142
3560.574	3202
3562.266	3164
3563.959	3204
3565.651	3157
3567.343	3228
3569.035	3150
3570.725	3231
3572.415	3144
3574.106	3216
3575.797	3182
3577.485	3187
3579.174	3148
3580.863	3149
3582.551	3169
3584.238	3152
3585.926	3137
3587.613	3159
3589.3	3181
3590.986	3112
3592.671	3095
3594.357	3121
3596.042	3096
3597.726	3076
3599.41	3158
3601.094	3012
3602.778	3088
3604.461	3037
3606.143	3089
3607.825	3099
3609.507	3086
3611.188	3057
3612.87	2964
3614.551	3027
3616.229	3053
3617.909	3036
3619.589	3038
3621.269	3025
3622.948	3036
3624.625	2997
3626.302	3043
3627.98	3006
3629.657	3004
3631.334	3040
3633.01	2956
3634.686	2946
3636.361	3004
3638.036	2965
3639.712	2959
3641.385	2985
3643.06	2989
3644.732	2960
3646.405	3011
3648.08	2939
3649.751	2941
3651.424	2948
3653.094	2949
3654.766	3028
3656.436	2947
3658.106	2893
3659.777	2918
3661.446	2975
3663.115	2912
3664.783	2873
3666.452	2919
3668.121	2934
3669.788	2874
3671.454	2963
3673.121	2857
3674.789	2877
3676.455	2833
3678.12	2898
3679.784	2949
3681.45	2961
3683.114	2855
3684.779	2881
3686.442	2836
3688.105	2809
3689.768	2816
3691.43	2885
3693.093	2884
3694.754	2930
3696.415	2860
3698.076	2814
3699.736	2807
3701.396	2894
3703.057	2819
3704.716	2833
3706.375	2848
3708.034	2792
3709.692	2889
3711.351	2828
3713.008	2793
3714.665	2822
3716.321	2815
3717.977	2803
3719.634	2844
3721.29	2863
3722.945	2758
3724.598	2824
3726.253	2794
3727.907	2788
3729.561	2813
3731.214	2855
3732.867	2825
3734.518	2784
3736.171	2791
3737.824	2855
3739.474	2780
3741.125	2852
3742.775	2755
3744.425	2799
3746.074	2748
3747.725	2790
3749.373	2773
3751.022	2819
3752.669	2775
3754.318	2774
3755.966	2707
3757.612	2721
3759.259	2717
3760.905	2761
3762.55	2751
3764.197	2819
3765.842	2786
3767.486	2736
3769.131	2751
3770.774	2775
3772.417	2715
3774.061	2800
3775.705	2694
3777.347	2770
3778.988	2734
3780.629	2799
3782.271	2733
3783.912	2596
3785.552	2674
3787.192	2697
3788.831	2749
3790.472	2722
3792.112	2720
3793.75	2614
3795.388	2747
3797.024	2721
3798.661	2682
3800.3	2696
3801.936	2719
3803.572	2738
3805.208	2683
3806.844	2615
3808.48	2688
3810.115	2648
3811.748	2703
3813.382	2661
3815.016	2624
3816.649	2636
3818.283	2688
3819.914	2664
3821.547	2649
3823.178	2603
3824.809	2617
3826.441	2624
3828.072	2673
3829.701	2638
3831.331	2661
3832.96	2636
3834.591	2696
3836.219	2626
3837.847	2642
3839.475	2681
3841.102	2632
3842.729	2511
3844.357	2624
3845.984	2641
3847.609	2661
3849.234	2656
3850.86	2628
3852.485	2577
3854.11	2647
3855.734	2614
3857.357	2585
3858.981	2613
3860.603	2644
3862.227	2598
3863.848	2479
3865.471	2590
3867.092	2594
3868.713	2620
3870.334	2591
3871.954	2600
3873.575	2557
3875.194	2586
3876.813	2583
3878.433	2615
3880.051	2588
3881.669	2540
3883.286	2549
3884.904	2568
3886.52	2573
3888.138	2558
3889.754	2581
3891.37	2554
3892.985	2511
3894.6	2579
3896.216	2632
3897.831	2606
3899.444	2568
3901.058	2564
3902.67	2541
3904.283	2559
3905.897	2514
3907.509	2591
3909.121	2562
3910.731	2595
3912.342	2571
3913.954	2490
3915.563	2568
3917.174	2558
3918.783	2497
3920.391	2540
3922.002	2578
3923.611	2550
3925.218	2553
3926.826	2505
3928.432	2564
3930.039	2527
3931.647	2507
3933.253	2565
3934.859	2554
3936.464	2551
3938.068	2560
3939.675	2556
3941.278	2565
3942.883	2523
3944.486	2518
3946.089	2512
3947.692	2495
3949.295	2487
3950.898	2472
3952.499	2514
3954.1	2504
3955.7	2485
3957.303	2428
3958.903	2520
3960.502	2531
3962.101	2498
3963.7	2480
3965.301	2526
3966.899	2540
3968.497	2571
3970.094	2432
3971.691	2509
3973.288	2531
3974.885	2500
3976.481	2473
3978.077	2436
3979.672	2439
3981.267	2464
3982.863	2421
3984.457	2463
3986.051	2465
3987.645	2487
3989.238	2446
3990.831	2444
3992.425	2386
3994.017	2482
3995.607	2447
3997.199	2456
3998.79	2443
4000.382	2443
4001.973	2437
4003.561	2446
4005.151	2393
4006.741	2442
4008.331	2391
4009.918	2414
4011.507	2396
4013.095	2385
4014.681	2345
4016.269	2351
4017.856	2384
4019.443	2380
4021.028	2332
4022.614	2384
4024.199	2374
4025.785	2418
4027.37	2390
4028.953	2357
4030.536	2444
4032.12	2398
4033.704	2376
4035.287	2335
4036.869	2367
4038.45	2374
4040.032	2380
4041.613	2353
4043.195	2312
4044.776	2420
4046.356	2330
4047.935	2365
4049.515	2369
4051.095	2378
4052.674	2316
4054.251	2290
4055.829	2341
4057.406	2358
4058.985	2365
4060.562	2349
4062.139	2344
4063.715	2324
4065.29	2294
4066.865	2343
4068.442	2364
4070.016	2342
4071.59	2323
4073.164	2326
4074.738	2334
4076.312	2329
4077.885	2274
4079.458	2322
4081.03	2281
4082.602	2289
4084.173	2307
4085.745	2322
4087.315	2215
4088.886	2342
4090.456	2311
4092.026	2332
4093.596	2304
4095.165	2341
4096.734	2265
4098.301	2260
4099.869	2282
4101.437	2322
4103.006	2256
4104.572	2280
4106.139	2297
4107.704	2270
4109.27	2268
4110.837	2274
4112.401	2333
4113.966	2288
4115.53	2283
4117.094	2269
4118.659	2283
4120.223	2310
4121.785	2236
4123.347	2236
4124.909	2288
4126.471	2239
4128.034	2273
4129.595	2304
4131.155	2236
4132.716	2252
4134.275	2229
4135.836	2211
4137.395	2251
4138.955	2178
4140.513	2237
4142.071	2260
4143.628	2168
4145.188	2207
4146.745	2223
4148.302	2207
4149.858	2233
4151.414	2261
4152.971	2244
4154.526	2175
4156.081	2280
4157.635	2258
4159.189	2171
4160.745	2236
4162.298	2174
4163.852	2226
4165.405	2180
4166.957	2224
4168.51	2155
4170.063	2260
4171.614	2147
4173.166	2143
4174.717	2117
4176.267	2160
4177.817	2170
4179.368	2165
4180.917	2163
4182.466	2155
4184.016	2228
4185.564	2139
4187.112	2177
4188.66	2128
4190.207	2216
4191.754	2119
4193.301	2174
4194.848	2203
4196.394	2163
4197.94	2145
4199.484	2178
4201.03	2179
4202.575	2109
4204.12	2135
4205.663	2140
4207.207	2129
4208.75	2126
4210.292	2090
4211.836	2116
4213.378	2168
4214.92	2123
4216.46	2121
4218.002	2085
4219.544	2123
4221.083	2151
4222.625	2100
4224.164	2118
4225.703	2142
4227.244	2115
4228.782	2120
4230.32	2149
4231.857	2113
4233.395	2089
4234.933	2119
4236.471	2122
4238.007	2065
4239.542	2111
4241.078	2049
4242.614	2102
4244.15	2140
4245.685	2154
4247.219	2077
4248.753	2080
4250.287	2092
4251.82	2135
4253.354	2088
4254.887	2134
4256.419	2083
4257.951	2104
4259.483	2125
4261.016	2027
4262.547	2141
4264.078	2026
4265.608	2035
4267.137	2067
4268.668	2074
4270.197	2044
4271.727	2089
4273.254	2027
4274.783	2056
4276.311	2020
4277.84	2067
4279.366	2039
4280.894	2048
4282.42	2052
4283.946	2103
4285.473	2044
4286.998	2062
4288.523	2078
4290.047	2021
4291.572	2003
4293.096	2068
4294.622	2071
4296.144	2084
4297.668	2046
4299.19	2006
4300.713	2078
4302.236	2011
4303.758	2080
4305.279	2019
4306.799	2006
4308.321	2016
4309.842	2014
4311.361	2013
4312.882	1970
4314.401	2055
