400.0961	2743
402.6185	2785
405.1424	2656
407.6635	2700
410.1838	2756
412.7035	2792
415.2225	2806
417.7388	2810
420.2585	2877
422.7754	2840
425.2917	2843
427.8072	2914
430.3221	2954
432.8363	2996
435.3498	2986
437.8626	2978
440.3727	2938
442.8841	2976
445.3969	2994
447.907	3035
450.4142	2960
452.9229	2952
455.4289	2960
457.9362	2813
460.4449	2905
462.9488	2912
465.454	2868
467.9566	2866
470.4604	2879
472.9637	2794
475.4662	2893
477.966	2879
480.4671	2845
482.9656	2846
485.4633	2913
487.9645	2873
490.4608	2825
492.9566	2885
495.4536	2907
497.948	2848
500.4437	2917
502.9387	2923
505.431	2839
507.9226	2934
510.4136	2918
512.9079	2870
515.3975	2991
517.8864	2867
520.3746	3017
522.8622	2948
525.3491	2945
527.8394	2961
530.3249	2886
532.8098	2973
535.2939	2948
537.7774	2976
540.2623	2944
542.7444	3004
545.2259	2932
547.7067	2913
550.1868	2981
552.6683	2925
555.147	3027
557.6231	3011
560.1005	2985
562.5773	3047
565.0534	2982
567.5308	3031
570.0056	3024
572.4776	3034
574.951	3092
577.4237	3129
579.8978	2996
582.3671	3097
584.8378	3166
587.3079	3187
589.7773	3193
592.244	3175
594.714	3219
597.1793	3161
599.6461	3105
602.1121	3107
604.5754	2983
607.0421	3052
609.5042	3061
611.9675	3058
614.4282	3088
616.8902	3076
619.3515	3140
621.8122	3018
624.2702	3059
626.7296	3053
629.1863	3023
631.6423	2985
634.1017	3043
636.5563	2964
639.0104	2979
641.4658	3094
643.9185	3035
646.3725	2948
648.8239	3034
651.2766	3008
653.7266	3036
656.176	3008
658.6247	3032
661.0748	3028
663.5242	3087
665.9709	3007
668.417	3079
670.8624	3065
673.3092	3069
675.7533	3089
678.1968	3048
680.6395	3086
683.0817	2987
685.5251	3019
687.9659	3134
690.4061	3165
692.8456	3114
695.2844	3089
697.7226	3109
700.1621	3114
702.599	3075
705.0332	3067
707.4688	3201
709.9036	3125
712.3399	3164
714.7735	3198
717.2044	3196
719.6367	3183
722.0683	3180
724.4993	3156
726.9296	3178
729.3593	3256
731.7883	3228
734.2147	3150
736.6423	3244
739.0714	3249
741.4958	3210
743.9216	3212
746.3447	3333
748.7691	3273
751.1929	3269
753.616	3213
756.0366	3235
758.4584	3312
760.8776	3287
763.2982	3249
765.718	3340
768.1373	3274
770.5539	3303
772.9698	3355
775.3871	3265
777.8038	3298
780.2178	3351
782.6332	3323
785.0459	3317
787.458	3319
789.8714	3304
792.2842	3319
794.6943	3321
797.1038	3317
799.5127	3295
801.9209	3313
804.3324	3298
806.7393	3324
809.1456	3269
811.5513	3413
813.9562	3362
816.3625	3406
818.7663	3354
821.1693	3342
823.5718	3377
825.9735	3324
828.3746	3350
830.7771	3355
833.177	3293
835.5762	3389
837.9747	3323
840.3727	3463
842.772	3478
845.1666	3341
847.5626	3454
849.958	3491
852.3527	3454
854.7488	3526
857.1403	3537
859.5331	3502
861.9253	3547
864.3168	3474
866.7057	3374
869.098	3483
871.4876	3450
873.8746	3434
876.263	3476
878.6487	3448
881.0378	3470
883.4243	3552
885.8081	3527
888.1933	3446
890.5759	3512
892.9598	3506
895.343	3413
897.7256	3416
900.1057	3439
902.4871	3383
904.8659	3462
907.246	3430
909.6254	3536
912.0023	3550
914.3786	3594
916.7562	3657
919.1331	3732
921.5074	3709
923.8831	3744
926.2562	3816
928.6287	3701
931.0005	3734
933.3757	3777
935.7462	3673
938.1162	3777
940.4855	3804
942.8542	3886
945.2242	3919
947.5916	4040
949.9584	4140
952.3266	4363
954.6921	4559
957.0571	4954
959.4233	5063
961.787	5232
964.15	5046
966.5125	4918
968.8742	4598
971.2354	4374
973.5959	4059
975.9559	3888
978.3151	3890
980.6738	3736
983.0338	3726
985.3912	3636
987.7461	3669
990.1022	3706
992.4578	3608
994.8127	3600
997.1689	3593
999.5207	3537
1001.874	3570
1004.226	3652
1006.576	3692
1008.929	3655
1011.28	3676
1013.628	3673
1015.977	3531
1018.324	3743
1020.674	3621
1023.019	3703
1025.366	3696
1027.713	3681
1030.056	3740
1032.399	3720
1034.746	3689
1037.087	3698
1039.431	3802
1041.771	3708
1044.113	3648
1046.454	3708
1048.793	3740
1051.133	3627
1053.471	3713
1055.807	3731
1058.146	3804
1060.483	3781
1062.818	3792
1065.153	3866
1067.489	3828
1069.822	3857
1072.156	3869
1074.488	3821
1076.82	3841
1079.15	3818
1081.48	3772
1083.814	3673
1086.143	3749
1088.471	3680
1090.799	3761
1093.126	3709
1095.452	3698
1097.78	3732
1100.105	3588
1102.43	3810
1104.754	3730
1107.077	3728
1109.4	3732
1111.722	3595
1114.044	3656
1116.365	3619
1118.685	3664
1121.005	3709
1123.324	3598
1125.643	3709
1127.961	3734
1130.278	3739
1132.595	3713
1134.911	3648
1137.226	3657
1139.541	3651
1141.854	3649
1144.167	3747
1146.482	3648
1148.793	3584
1151.105	3647
1153.414	3663
1155.725	3628
1158.033	3606
1160.344	3685
1162.651	3618
1164.959	3649
1167.265	3727
1169.572	3654
1171.878	3636
1174.184	3759
1176.488	3734
1178.79	3677
1181.094	3719
1183.396	3744
1185.699	3714
1188.001	3721
1190.301	3672
1192.6	3717
1194.9	3746
1197.2	3805
1199.497	3647
1201.794	3752
1204.09	3676
1206.387	3723
1208.684	3718
1210.978	3726
1213.272	3729
1215.565	3735
1217.858	3792
1220.15	3752
1222.443	3678
1224.734	3645
1227.024	3834
1229.313	3827
1231.602	3821
1233.892	3829
1236.18	3799
1238.467	3817
1240.754	3801
1243.04	3881
1245.325	3861
1247.612	3908
1249.896	3915
1252.178	3898
1254.461	3948
1256.743	3843
1259.027	3908
1261.308	3993
1263.587	3922
1265.867	3902
1268.146	3890
1270.425	3874
1272.703	4002
1274.981	3916
1277.256	3971
1279.532	3840
1281.808	3835
1284.083	3969
1286.358	3896
1288.63	3874
1290.904	3800
1293.175	3771
1295.449	3833
1297.719	3886
1299.99	3716
1302.259	3773
1304.529	3852
1306.798	3779
1309.065	3822
1311.333	3777
1313.599	3906
1315.866	3861
1318.131	3777
1320.396	3823
1322.66	3814
1324.925	3792
1327.187	3849
1329.448	3888
1331.711	3817
1333.974	3920
1336.234	3876
1338.493	3773
1340.752	3809
1343.01	3751
1345.269	3873
1347.526	3834
1349.784	3855
1352.04	3877
1354.295	3760
1356.552	3775
1358.806	3789
1361.059	3816
1363.312	3872
1365.564	3827
1367.818	3789
1370.069	3874
1372.318	3922
1374.568	3888
1376.817	3934
1379.066	3877
1381.316	3904
1383.564	3982
1385.809	3820
1388.056	3900
1390.301	3876
1392.549	3980
1394.793	4026
1397.036	4065
1399.279	4018
1401.522	4133
1403.763	3951
1406.007	4045
1408.248	4086
1410.487	4054
1412.727	4123
1414.965	4041
1417.205	3917
1419.442	4039
1421.68	3960
1423.915	4125
1426.152	3967
1428.388	3971
1430.623	4079
1432.857	4014
1435.091	3967
1437.323	4052
1439.556	4049
1441.789	4073
1444.019	4177
1446.25	4013
1448.48	4132
1450.708	4151
1452.938	4187
1455.167	4098
1457.394	4153
1459.62	4188
1461.846	4123
1464.073	4145
1466.299	4001
1468.523	4151
1470.746	4083
1472.969	4008
1475.191	3987
1477.415	3939
1479.636	3948
1481.858	3874
1484.078	3870
1486.298	3835
1488.518	3877
1490.736	3802
1492.954	3867
1495.169	3839
1497.386	3706
1499.602	3782
1501.819	3776
1504.034	3833
1506.248	3763
1508.462	3706
1510.675	3788
1512.888	3762
1515.1	3819
1517.311	3844
1519.522	3791
1521.732	3799
1523.942	3812
1526.151	3793
1528.36	3818
1530.566	3890
1532.773	3797
1534.98	3839
1537.187	3821
1539.392	3850
1541.596	3821
1543.801	3804
1546.005	3869
1548.208	3800
1550.411	3887
1552.612	3908
1554.814	3841
1557.013	3841
1559.212	3885
1561.414	3942
1563.612	3867
1565.811	3927
1568.007	3912
1570.203	4058
1572.403	3919
1574.598	3941
1576.792	3896
1578.988	3983
1581.181	3898
1583.376	3894
1585.568	3889
1587.761	3851
1589.952	3898
1592.143	3963
1594.333	3955
1596.524	3943
1598.715	3923
1600.903	3951
1603.091	3970
1605.278	3859
1607.466	3937
1609.652	3992
1611.838	3985
1614.023	3985
1616.207	4013
1618.391	3976
1620.576	3994
1622.759	4004
1624.941	4012
1627.123	4006
1629.304	4012
1631.484	4092
1633.664	4000
1635.844	3950
1638.022	4071
1640.201	4084
1642.38	4076
1644.556	4047
1646.732	4084
1648.908	4110
1651.084	3962
1653.257	4093
1655.433	4146
1657.607	4044
1659.779	4098
1661.951	4035
1664.122	4131
1666.295	4093
1668.467	4049
1670.635	4050
1672.805	4126
1674.973	4123
1677.142	4193
1679.31	4044
1681.478	4060
1683.644	4101
1685.81	4042
1687.975	3979
1690.142	4096
1692.305	3983
1694.468	4074
1696.632	4019
1698.794	3991
1700.957	4015
1703.119	4019
1705.279	3997
1707.439	3946
1709.598	3983
1711.758	3996
1713.917	3930
1716.075	3897
1718.231	3951
1720.388	3924
1722.543	3870
1724.702	3887
1726.856	3898
1729.01	3911
1731.164	3984
1733.317	3844
1735.471	3904
1737.623	3899
1739.774	3912
1741.925	3847
1744.075	3914
1746.225	3962
1748.376	3894
1750.524	3920
1752.672	3966
1754.82	3886
1756.965	3922
1759.113	3987
1761.259	3941
1763.405	3887
1765.549	3957
1767.694	3914
1769.836	3946
1771.981	3986
1774.123	3987
1776.264	3967
1778.405	3949
1780.546	3943
1782.687	3894
1784.827	3921
1786.966	3954
1789.103	3947
1791.242	3944
1793.381	3881
1795.517	3970
1797.653	3942
1799.788	3905
1801.923	3924
1804.057	3970
1806.193	4002
1808.326	3972
1810.457	4060
1812.59	3900
1814.721	3903
1816.855	3862
1818.984	3899
1821.113	3896
1823.244	3897
1825.372	3915
1827.499	3895
1829.63	3957
1831.756	3979
1833.882	3965
1836.007	3900
1838.132	3938
1840.26	3888
1842.384	3942
1844.507	3895
1846.63	3968
1848.752	3911
1850.875	3919
1852.996	3973
1855.118	3820
1857.238	3888
1859.358	3931
1861.477	3917
1863.597	3988
1865.715	3890
1867.832	3956
1869.948	3919
1872.064	3910
1874.181	3965
1876.297	3885
1878.411	3948
1880.526	3920
1882.639	3914
1884.752	3779
1886.865	3905
1888.977	3958
1891.089	3885
1893.2	3902
1895.308	3878
1897.42	3960
1899.53	3966
1901.639	3893
1903.745	3994
1905.853	3967
1907.962	3960
1910.067	3978
1912.174	3946
1914.278	3951
1916.383	4000
1918.486	3939
1920.592	4032
1922.694	3999
1924.797	4011
1926.898	3961
1929	4003
1931.102	3932
1933.203	3914
1935.301	4008
1937.401	3960
1939.499	3956
1941.598	3968
1943.697	3921
1945.793	3909
1947.888	4046
1949.985	3990
1952.08	4084
1954.176	3995
1956.269	3914
1958.364	3964
1960.457	4032
1962.549	3996
1964.642	3979
1966.733	3954
1968.823	3959
1970.913	3864
1973.005	3983
1975.093	3976
1977.184	3962
1979.271	3929
1981.359	3983
1983.446	4003
1985.532	3990
1987.619	4031
1989.705	3990
1991.789	3918
1993.874	3945
1995.956	3925
1998.041	3959
2000.123	3891
2002.206	3976
2004.287	3949
2006.368	3917
2008.449	3901
2010.529	3979
2012.609	3948
2014.688	3946
2016.766	3925
2018.843	3932
2020.922	3944
2022.999	3961
2025.074	4005
2027.15	3992
2029.225	3862
2031.299	3920
2033.375	3940
2035.447	3926
2037.52	3998
2039.592	4011
2041.664	3941
2043.736	3985
2045.807	3860
2047.876	3932
2049.947	3962
2052.015	3949
2054.086	4019
2056.153	3985
2058.221	3946
2060.288	3925
2062.353	4001
2064.42	3897
2066.486	4017
2068.55	4058
2070.614	4006
2072.678	4011
2074.741	3999
2076.805	3959
2078.866	3947
2080.929	4037
2082.99	3946
2085.049	3986
2087.109	3921
2089.17	3997
2091.228	4020
2093.286	3930
2095.344	4013
2097.4	3999
2099.46	3991
2101.516	3943
2103.572	3951
2105.626	3954
2107.679	4081
2109.735	3972
2111.788	3964
2113.841	3956
2115.894	3990
2117.945	3953
2119.997	3997
2122.049	3920
2124.1	4007
2126.148	3943
2128.197	3937
2130.246	3982
2132.296	3973
2134.342	4028
2136.39	3922
2138.437	3943
2140.483	3905
2142.527	3928
2144.574	3996
2146.619	3926
2148.661	4019
2150.705	3966
2152.747	3974
2154.792	3895
2156.832	3947
2158.874	3978
2160.915	3935
2162.954	3945
2164.995	4019
2167.034	3954
2169.072	3996
2171.111	3945
2173.148	3898
2175.186	3925
2177.223	3922
2179.258	3905
2181.294	3963
2183.328	3935
2185.362	3882
2187.398	3892
2189.431	3770
2191.463	3827
2193.495	3948
2195.528	3814
2197.56	3882
2199.59	3941
2201.62	3891
2203.649	3886
2205.678	3786
2207.708	3900
2209.737	3861
2211.764	3920
2213.791	3924
2215.817	3862
2217.843	3873
2219.87	3938
2221.895	3789
2223.919	3949
2225.942	3790
2227.966	3891
2229.988	3869
2232.012	3876
2234.032	3944
2236.054	3864
2238.074	3887
2240.095	3851
2242.116	4055
2244.135	3875
2246.153	3838
2248.171	3838
2250.188	3911
2252.208	3895
2254.223	3854
2256.239	3849
2258.255	3881
2260.269	3862
2262.283	3938
2264.3	3883
2266.312	3857
2268.325	3903
2270.336	3837
2272.349	3884
2274.362	3878
2276.372	3926
2278.383	3859
2280.392	3807
2282.402	3960
2284.409	3859
2286.418	3921
2288.427	3908
2290.433	3931
2292.441	3828
2294.446	3857
2296.453	3917
2298.459	3832
2300.463	3933
2302.466	3827
2304.471	3884
2306.475	3811
2308.477	3851
2310.478	3890
2312.481	3834
2314.481	3892
2316.481	3910
2318.482	3850
2320.482	3871
2322.48	3959
2324.48	3881
2326.478	3844
2328.476	3901
2330.473	3938
2332.469	3825
2334.465	3824
2336.46	3807
2338.454	3816
2340.45	3874
2342.444	3822
2344.437	3872
2346.43	3861
2348.421	3827
2350.414	3835
2352.405	3781
2354.396	3922
2356.386	3816
2358.376	3837
2360.366	3789
2362.355	3859
2364.343	3721
2366.331	3780
2368.317	3837
2370.304	3790
2372.292	3877
2374.278	3773
2376.262	3844
2378.247	3743
2380.23	3803
2382.216	3856
2384.199	3821
2386.181	3799
2388.163	3769
2390.144	3835
2392.127	3799
2394.107	3716
2396.087	3762
2398.066	3791
2400.046	3800
2402.023	3822
2404.004	3829
2405.981	3786
2407.957	3737
2409.934	3770
2411.91	3782
2413.886	3771
2415.862	3677
2417.836	3825
2419.809	3756
2421.784	3787
2423.756	3795
2425.73	3701
2427.701	3681
2429.672	3815
2431.644	3839
2433.615	3775
2435.586	3724
2437.555	3847
2439.523	3734
2441.491	3691
2443.459	3876
2445.428	3821
2447.395	3749
2449.361	3751
2451.327	3769
2453.292	3735
2455.257	3672
2457.223	3796
2459.187	3703
2461.15	3786
2463.113	3705
2465.076	3765
2467.039	3725
2468.999	3798
2470.96	3717
2472.921	3766
2474.881	3739
2476.841	3706
2478.8	3793
2480.759	3736
2482.717	3718
2484.675	3800
2486.63	3711
2488.589	3688
2490.545	3713
2492.5	3649
2494.455	3714
2496.408	3729
2498.364	3712
2500.318	3753
2502.27	3758
2504.223	3703
2506.174	3706
2508.126	3648
2510.078	3661
2512.03	3733
2513.979	3655
2515.927	3768
2517.877	3685
2519.826	3765
2521.775	3716
2523.722	3694
2525.668	3712
2527.616	3732
2529.561	3769
2531.508	3771
2533.452	3664
2535.398	3691
2537.342	3716
2539.284	3667
2541.229	3723
2543.173	3706
2545.114	3743
2547.055	3748
2548.996	3717
2550.938	3791
2552.878	3662
2554.817	3682
2556.756	3660
2558.695	3728
2560.633	3638
2562.572	3718
2564.509	3760
2566.445	3738
2568.382	3713
2570.317	3706
2572.254	3638
2574.189	3685
2576.123	3749
2578.057	3698
2579.99	3688
2581.923	3723
2583.855	3668
2585.788	3740
2587.719	3733
2589.65	3766
2591.579	3640
2593.511	3751
2595.44	3735
2597.37	3661
2599.297	3692
2601.225	3690
2603.153	3717
2605.08	3743
2607.007	3766
2608.932	3710
2610.858	3686
2612.782	3729
2614.709	3708
2616.632	3807
2618.556	3684
2620.478	3827
2622.401	3717
2624.324	3693
2626.247	3767
2628.167	3724
2630.088	3804
2632.008	3688
2633.928	3800
2635.848	3682
2637.766	3653
2639.684	3736
2641.603	3765
2643.519	3689
2645.437	3720
2647.353	3755
2649.27	3697
2651.184	3773
2653.099	3751
2655.014	3648
2656.928	3722
2658.842	3756
2660.755	3712
2662.667	3702
2664.579	3723
2666.491	3744
2668.402	3637
2670.312	3765
2672.222	3748
2674.132	3742
2676.042	3664
2677.951	3701
2679.859	3754
2681.766	3692
2683.674	3700
2685.582	3785
2687.488	3714
2689.392	3690
2691.298	3665
2693.202	3667
2695.107	3705
2697.012	3685
2698.914	3697
2700.817	3749
2702.72	3704
2704.622	3757
2706.524	3744
2708.425	3672
2710.326	3668
2712.225	3726
2714.125	3713
2716.024	3761
2717.923	3686
2719.822	3730
2721.719	3662
2723.616	3653
2725.512	3689
2727.41	3629
2729.305	3835
2731.201	3674
2733.095	3807
2734.99	3659
2736.884	3701
2738.778	3725
2740.67	3667
2742.562	3658
2744.455	3603
2746.346	3712
2748.238	3710
2750.129	3731
2752.018	3648
2753.907	3610
2755.797	3753
2757.687	3703
2759.575	3727
2761.462	3578
2763.349	3767
2765.237	3700
2767.124	3668
2769.009	3721
2770.894	3623
2772.779	3654
2774.663	3723
2776.547	3643
2778.431	3677
2780.314	3605
2782.197	3681
2784.078	3639
2785.96	3595
2787.842	3665
2789.723	3657
2791.603	3666
2793.483	3696
2795.362	3662
2797.241	3652
2799.121	3645
2800.997	3689
2802.874	3692
2804.751	3711
2806.628	3606
2808.506	3701
2810.38	3674
2812.255	3667
2814.13	3674
2816.003	3609
2817.878	3634
2819.752	3693
2821.623	3697
2823.496	3578
2825.368	3690
2827.238	3610
2829.111	3668
2830.98	3634
2832.851	3696
2834.719	3588
2836.589	3716
2838.458	3697
2840.327	3675
2842.193	3697
2844.061	3665
2845.927	3776
2847.794	3727
2849.66	3776
2851.525	3766
2853.39	3827
2855.254	3626
2857.117	3759
2858.983	3761
2860.845	3893
2862.707	3808
2864.569	3930
2866.431	3921
2868.293	3947
2870.154	3932
2872.013	3993
2873.873	3944
2875.733	4107
2877.592	4138
2879.451	4088
2881.309	4262
2883.166	4307
2885.022	4315
2886.879	4271
2888.736	4241
2890.591	4303
2892.446	4317
2894.301	4413
2896.155	4267
2898.009	4347
2899.863	4174
2901.716	4286
2903.568	4215
2905.419	4279
2907.27	4329
2909.123	4306
2910.973	4320
2912.824	4484
2914.673	4307
2916.521	4393
2918.372	4528
2920.22	4594
2922.067	4513
2923.914	4619
2925.761	4733
2927.607	4720
2929.455	4756
2931.301	4865
2933.144	4902
2934.99	4945
2936.833	4971
2938.678	5062
2940.522	5045
2942.364	5177
2944.207	5163
2946.048	5200
2947.891	5328
2949.731	5309
2951.571	5204
2953.412	5241
2955.25	5123
2957.09	5092
2958.93	4936
2960.767	4994
2962.606	4807
2964.443	4994
2966.279	4829
2968.116	4649
2969.953	4741
2971.788	4601
2973.623	4581
2975.457	4535
2977.292	4497
2979.127	4451
2980.959	4467
2982.792	4411
2984.624	4355
2986.455	4411
2988.288	4279
2990.119	4338
2991.949	4312
2993.779	4313
2995.608	4164
2997.439	4159
2999.268	4171
3001.096	4115
3002.923	4087
3004.751	3966
3006.578	4010
3008.406	3896
3010.232	3918
3012.057	3854
3013.883	3920
3015.706	3880
3017.532	3766
3019.356	3787
3021.179	3760
3023.002	3688
3024.823	3680
3026.646	3675
3028.469	3633
3030.289	3652
3032.11	3621
3033.93	3643
3035.749	3606
3037.57	3663
3039.39	3501
3041.207	3641
3043.026	3580
3044.842	3619
3046.661	3545
3048.477	3650
3050.294	3539
3052.109	3624
3053.925	3675
3055.739	3499
3057.555	3529
3059.368	3583
3061.181	3603
3062.995	3566
3064.807	3549
3066.62	3558
3068.433	3471
3070.243	3512
3072.054	3568
3073.865	3570
3075.675	3534
3077.485	3554
3079.293	3573
3081.102	3550
3082.911	3490
3084.719	3488
3086.527	3498
3088.333	3492
3090.139	3468
3091.945	3495
3093.75	3424
3095.557	3446
3097.361	3514
3099.165	3441
3100.969	3454
3102.772	3477
3104.575	3378
3106.379	3480
3108.181	3458
3109.982	3470
3111.783	3485
3113.584	3466
3115.386	3414
3117.186	3404
3118.985	3503
3120.783	3438
3122.582	3458
3124.381	3416
3126.179	3397
3127.975	3421
3129.772	3445
3131.569	3384
3133.365	3337
3135.161	3383
3136.956	3311
3138.751	3423
3140.544	3381
3142.338	3354
3144.132	3379
3145.925	3471
3147.717	3377
3149.509	3288
3151.301	3372
3153.091	3413
3154.884	3325
3156.673	3420
3158.462	3363
3160.252	3376
3162.041	3336
3163.831	3347
3165.618	3385
3167.405	3276
3169.193	3343
3170.979	3327
3172.767	3398
3174.553	3293
3176.338	3357
3178.123	3350
3179.907	3304
3181.692	3458
3183.477	3335
3185.259	3317
3187.042	3349
3188.824	3300
3190.607	3396
3192.389	3433
3194.17	3373
3195.951	3432
3197.73	3389
3199.51	3342
3201.289	3377
3203.07	3366
3204.848	3370
3206.626	3397
3208.403	3347
3210.18	3376
3211.959	3383
3213.735	3330
3215.511	3345
3217.285	3334
3219.06	3340
3220.836	3412
3222.611	3290
3224.384	3378
3226.158	3414
3227.929	3327
3229.702	3378
3231.476	3375
3233.248	3326
3235.018	3347
3236.789	3421
3238.56	3335
3240.33	3327
3242.1	3400
3243.869	3305
3245.637	3364
3247.405	3429
3249.172	3443
3250.941	3364
3252.707	3462
3254.474	3385
3256.24	3415
3258.006	3377
3259.772	3452
3261.537	3395
3263.301	3452
3265.065	3416
3266.828	3383
3268.592	3432
3270.355	3369
3272.117	3375
3273.878	3350
3275.64	3407
3277.401	3451
3279.162	3402
3280.922	3407
3282.682	3347
3284.441	3472
3286.199	3365
3287.959	3287
3289.716	3443
3291.475	3392
3293.232	3369
3294.988	3427
3296.744	3336
3298.501	3407
3300.256	3462
3302.011	3389
3303.766	3466
3305.52	3423
3307.275	3403
3309.028	3411
3310.781	3431
3312.533	3445
3314.285	3476
3316.038	3408
3317.789	3405
3319.54	3400
3321.289	3411
3323.039	3403
3324.789	3402
3326.539	3450
3328.288	3357
3330.035	3399
3331.783	3414
3333.531	3357
3335.28	3424
3337.025	3336
3338.771	3310
3340.518	3346
3342.262	3378
3344.009	3368
3345.753	3399
3347.497	3342
3349.24	3423
3350.983	3333
3352.726	3333
3354.469	3463
3356.212	3358
3357.952	3493
3359.694	3340
3361.434	3367
3363.176	3319
3364.916	3351
3366.654	3360
3368.394	3283
3370.132	3321
3371.871	3283
3373.61	3364
3375.346	3361
3377.083	3291
3378.82	3250
3380.556	3321
3382.292	3301
3384.027	3301
3385.763	3337
3387.497	3303
3389.231	3245
3390.965	3319
3392.698	3292
3394.431	3213
3396.164	3249
3397.896	3231
3399.627	3285
3401.36	3220
3403.09	3264
3404.82	3313
3406.55	3303
3408.279	3238
3410.01	3260
3411.738	3266
3413.467	3222
3415.194	3182
3416.92	3249
3418.647	3247
3420.375	3222
3422.102	3185
3423.827	3215
3425.553	3231
3427.277	3265
3429.003	3250
3430.727	3206
3432.451	3198
3434.173	3198
3435.896	3278
3437.62	3127
3439.343	3145
3441.063	3205
3442.785	3153
3444.505	3167
3446.226	3232
3447.948	3207
3449.666	3098
3451.386	3227
3453.104	3242
3454.823	3125
3456.541	3188
3458.259	3093
3459.976	3203
3461.693	3142
3463.408	3112
3465.125	3180
3466.841	3116
3468.556	3115
3470.271	3078
3471.985	3057
3473.698	3088
3475.414	3125
3477.126	3068
3478.838	3097
3480.55	3138
3482.263	3065
3483.975	3083
3485.686	3069
3487.396	3063
3489.106	3120
3490.817	3066
3492.526	3022
3494.236	3111
3495.944	3030
3497.652	3099
3499.359	3083
3501.066	2977
3502.775	3062
3504.481	2997
3506.187	2993
3507.893	3049
3509.598	2943
3511.304	2990
3513.009	3075
3514.713	2991
3516.417	3003
3518.12	2949
3519.821	3039
3521.525	2932
3523.228	2970
3524.929	2983
3526.631	2970
3528.33	2934
3530.032	2911
3531.733	2975
3533.433	2943
3535.131	2874
3536.83	2941
3538.529	2985
3540.227	3002
3541.925	2951
3543.623	2977
3545.319	2951
3547.016	2954
3548.712	2951
3550.408	2938
3552.103	2952
3553.798	2896
3555.491	2956
3557.188	2882
3558.88	2984
3560.574	2947
3562.266	2890
3563.959	2955
3565.651	2863
3567.343	2804
3569.035	2893
3570.725	2822
3572.415	2858
3574.106	2849
3575.797	2832
3577.485	2833
3579.174	2883
3580.863	2834
3582.551	2841
3584.238	2971
3585.926	2859
3587.613	2876
3589.3	2775
3590.986	2826
3592.671	2773
3594.357	2837
3596.042	2799
3597.726	2715
3599.41	2808
3601.094	2788
3602.778	2729
3604.461	2839
3606.143	2802
3607.825	2701
3609.507	2686
3611.188	2763
3612.87	2706
3614.551	2771
3616.229	2745
3617.909	2734
3619.589	2698
3621.269	2849
3622.948	2696
3624.625	2718
3626.302	2715
3627.98	2740
3629.657	2671
3631.334	2659
3633.01	2642
3634.686	2669
3636.361	2700
3638.036	2665
3639.712	2678
3641.385	2724
3643.06	2724
3644.732	2726
3646.405	2692
3648.08	2671
3649.751	2650
3651.424	2678
3653.094	2602
3654.766	2696
3656.436	2646
3658.106	2676
3659.777	2603
3661.446	2666
3663.115	2638
3664.783	2649
3666.452	2587
3668.121	2685
3669.788	2583
3671.454	2666
3673.121	2640
3674.789	2686
3676.455	2591
3678.12	2609
3679.784	2643
3681.45	2601
3683.114	2618
3684.779	2567
3686.442	2558
3688.105	2569
3689.768	2595
3691.43	2658
3693.093	2545
3694.754	2557
3696.415	2577
3698.076	2629
3699.736	2566
3701.396	2621
3703.057	2584
3704.716	2589
3706.375	2573
3708.034	2509
3709.692	2475
3711.351	2625
3713.008	2538
3714.665	2490
3716.321	2534
3717.977	2533
3719.634	2548
3721.29	2474
3722.945	2570
3724.598	2536
3726.253	2566
3727.907	2566
3729.561	2492
3731.214	2582
3732.867	2570
3734.518	2531
3736.171	2576
3737.824	2476
3739.474	2516
3741.125	2565
3742.775	2549
3744.425	2569
3746.074	2557
3747.725	2503
3749.373	2498
3751.022	2527
3752.669	2535
3754.318	2524
3755.966	2493
3757.612	2508
3759.259	2527
3760.905	2475
3762.55	2481
3764.197	2495
3765.842	2527
3767.486	2536
3769.131	2455
3770.774	2501
3772.417	2473
3774.061	2502
3775.705	2481
3777.347	2495
3778.988	2480
3780.629	2439
3782.271	2514
3783.912	2472
3785.552	2465
3787.192	2481
3788.831	2467
3790.472	2422
3792.112	2461
3793.75	2419
3795.388	2451
3797.024	2460
3798.661	2459
3800.3	2470
3801.936	2461
3803.572	2422
3805.208	2451
3806.844	2449
3808.48	2429
3810.115	2410
3811.748	2450
3813.382	2399
3815.016	2429
3816.649	2329
3818.283	2474
3819.914	2445
3821.547	2388
3823.178	2422
3824.809	2471
3826.441	2437
3828.072	2460
3829.701	2399
3831.331	2425
3832.96	2496
3834.591	2391
3836.219	2367
3837.847	2414
3839.475	2355
3841.102	2387
3842.729	2415
3844.357	2424
3845.984	2344
3847.609	2376
3849.234	2397
3850.86	2372
3852.485	2310
3854.11	2435
3855.734	2404
3857.357	2414
3858.981	2467
3860.603	2404
3862.227	2367
3863.848	2371
3865.471	2356
3867.092	2312
3868.713	2415
3870.334	2352
3871.954	2346
3873.575	2392
3875.194	2408
3876.813	2391
3878.433	2349
3880.051	2316
3881.669	2394
3883.286	2389
3884.904	2304
3886.52	2356
3888.138	2320
3889.754	2368
3891.37	2409
3892.985	2383
3894.6	2359
3896.216	2379
3897.831	2328
3899.444	2295
3901.058	2370
3902.67	2385
3904.283	2370
3905.897	2278
3907.509	2413
3909.121	2309
3910.731	2373
3912.342	2314
3913.954	2334
3915.563	2289
3917.174	2333
3918.783	2309
3920.391	2328
3922.002	2331
3923.611	2393
3925.218	2304
3926.826	2318
3928.432	2317
3930.039	2319
3931.647	2334
3933.253	2375
3934.859	2262
3936.464	2322
3938.068	2313
3939.675	2364
3941.278	2298
3942.883	2360
3944.486	2353
3946.089	2338
3947.692	2304
3949.295	2303
3950.898	2321
3952.499	2329
3954.1	2284
3955.7	2316
3957.303	2274
3958.903	2287
3960.502	2273
3962.101	2251
3963.7	2321
3965.301	2279
3966.899	2264
3968.497	2313
3970.094	2311
3971.691	2240
3973.288	2264
3974.885	2248
3976.481	2188
3978.077	2298
3979.672	2206
3981.267	2237
3982.863	2273
3984.457	2227
3986.051	2200
3987.645	2227
3989.238	2291
3990.831	2250
3992.425	2202
3994.017	2255
3995.607	2302
3997.199	2224
3998.79	2184
4000.382	2208
4001.973	2259
4003.561	2190
4005.151	2203
4006.741	2160
4008.331	2217
4009.918	2258
4011.507	2214
4013.095	2288
4014.681	2229
4016.269	2203
4017.856	2195
4019.443	2203
4021.028	2207
4022.614	2228
4024.199	2182
4025.785	2165
4027.37	2128
4028.953	2202
4030.536	2159
4032.12	2137
4033.704	2118
4035.287	2153
4036.869	2200
4038.45	2166
4040.032	2172
4041.613	2216
4043.195	2140
4044.776	2144
4046.356	2128
4047.935	2163
4049.515	2095
4051.095	2104
4052.674	2186
4054.251	2114
4055.829	2144
4057.406	2170
4058.985	2217
4060.562	2155
4062.139	2162
4063.715	2150
4065.29	2143
4066.865	2141
4068.442	2168
4070.016	2180
4071.59	2165
4073.164	2085
4074.738	2125
4076.312	2177
4077.885	2074
4079.458	2188
4081.03	2130
4082.602	2097
4084.173	2152
4085.745	2117
4087.315	2100
4088.886	2091
4090.456	2095
4092.026	2114
4093.596	2096
4095.165	2131
4096.734	2168
4098.301	2122
4099.869	2069
4101.437	2132
4103.006	2117
4104.572	2068
4106.139	2071
4107.704	2072
4109.27	2151
4110.837	2094
4112.401	2109
4113.966	2124
4115.53	2099
4117.094	2082
4118.659	2141
4120.223	2077
4121.785	2055
4123.347	2083
4124.909	2058
4126.471	2012
4128.034	2077
4129.595	2054
4131.155	2040
4132.716	2048
4134.275	2102
4135.836	2105
4137.395	2086
4138.955	2013
4140.513	2020
4142.071	2043
4143.628	2064
4145.188	2074
4146.745	2034
4148.302	2020
4149.858	2069
4151.414	2020
4152.971	2033
4154.526	2046
4156.081	2012
4157.635	2023
4159.189	1987
4160.745	2022
4162.298	2005
4163.852	2048
4165.405	2065
4166.957	1984
4168.51	1984
4170.063	2020
4171.614	2010
4173.166	1994
4174.717	2025
4176.267	2000
4177.817	2011
4179.368	1963
4180.917	2017
4182.466	1964
4184.016	2011
4185.564	2037
4187.112	1955
4188.66	1916
4190.207	2015
4191.754	1955
4193.301	1986
4194.848	1952
4196.394	1982
4197.94	1994
4199.484	1975
4201.03	1958
4202.575	1943
4204.12	1960
4205.663	1960
4207.207	1915
4208.75	1931
4210.292	1944
4211.836	1887
4213.378	1936
4214.92	1938
4216.46	1904
4218.002	1973
4219.544	1952
4221.083	1938
4222.625	1950
4224.164	1956
4225.703	1898
4227.244	1923
4228.782	1903
4230.32	1928
4231.857	2008
4233.395	1937
4234.933	1909
4236.471	1942
4238.007	1891
4239.542	1955
4241.078	1951
4242.614	1892
4244.15	1976
4245.685	1931
4247.219	1938
4248.753	1875
4250.287	1929
4251.82	1940
4253.354	1925
4254.887	1920
4256.419	1861
4257.951	1915
4259.483	1912
4261.016	1917
4262.547	1907
4264.078	1902
4265.608	1872
4267.137	1931
4268.668	1901
4270.197	1930
4271.727	1952
4273.254	1921
4274.783	1939
4276.311	1911
4277.84	1891
4279.366	1862
4280.894	1922
4282.42	1856
4283.946	1852
4285.473	1912
4286.998	1877
4288.523	1875
4290.047	1879
4291.572	1835
4293.096	1861
4294.622	1872
4296.144	1834
4297.668	1893
4299.19	1867
4300.713	1885
4302.236	1885
4303.758	1874
4305.279	1870
4306.799	1844
4308.321	1839
4309.842	1905
4311.361	1860
4312.882	1831
4314.401	1817
