400.0961	4244
402.6185	4145
405.1424	4227
407.6635	4184
410.1838	4275
412.7035	4284
415.2225	4374
417.7388	4377
420.2585	4361
422.7754	4420
425.2917	4463
427.8072	4438
430.3221	4492
432.8363	4491
435.3498	4508
437.8626	4523
440.3727	4554
442.8841	4563
445.3969	4487
447.907	4614
450.4142	4460
452.9229	4577
455.4289	4525
457.9362	4592
460.4449	4610
462.9488	4407
465.454	4549
467.9566	4538
470.4604	4565
472.9637	4552
475.4662	4568
477.966	4566
480.4671	4549
482.9656	4652
485.4633	4639
487.9645	4561
490.4608	4598
492.9566	4593
495.4536	4560
497.948	4631
500.4437	4648
502.9387	4604
505.431	4682
507.9226	4679
510.4136	4603
512.9079	4727
515.3975	4644
517.8864	4798
520.3746	4772
522.8622	4700
525.3491	4700
527.8394	4739
530.3249	4677
532.8098	4727
535.2939	4750
537.7774	4747
540.2623	4758
542.7444	4716
545.2259	4671
547.7067	4704
550.1868	4696
552.6683	4695
555.147	4689
557.6231	4735
560.1005	4774
562.5773	4796
565.0534	4750
567.5308	4822
570.0056	4879
572.4776	4793
574.951	4894
577.4237	4787
579.8978	4891
582.3671	4923
584.8378	4886
587.3079	4904
589.7773	4976
592.244	4900
594.714	4965
597.1793	4842
599.6461	4985
602.1121	4931
604.5754	4853
607.0421	4916
609.5042	4927
611.9675	4925
614.4282	4979
616.8902	4905
619.3515	4914
621.8122	4898
624.2702	4870
626.7296	4949
629.1863	4841
631.6423	4949
634.1017	4945
636.5563	4863
639.0104	4915
641.4658	4965
643.9185	4772
646.3725	4977
648.8239	4927
651.2766	4929
653.7266	4871
656.176	4981
658.6247	5076
661.0748	4936
663.5242	4986
665.9709	5057
668.417	4964
670.8624	4965
673.3092	5017
675.7533	5036
678.1968	5015
680.6395	5082
683.0817	5071
685.5251	5061
687.9659	5029
690.4061	5143
692.8456	5053
695.2844	5050
697.7226	5052
700.1621	5166
702.599	5135
705.0332	5097
707.4688	5178
709.9036	5058
712.3399	5120
714.7735	5060
717.2044	5150
719.6367	5140
722.0683	5249
724.4993	5292
726.9296	5183
729.3593	5261
731.7883	5260
734.2147	5272
736.6423	5422
739.0714	5269
741.4958	5306
743.9216	5310
746.3447	5366
748.7691	5319
751.1929	5387
753.616	5260
756.0366	5370
758.4584	5389
760.8776	5394
763.2982	5361
765.718	5457
768.1373	5455
770.5539	5406
772.9698	5449
775.3871	5419
777.8038	5552
780.2178	5368
782.6332	5432
785.0459	5464
787.458	5419
789.8714	5450
792.2842	5488
794.6943	5431
797.1038	5392
799.5127	5497
801.9209	5460
804.3324	5451
806.7393	5493
809.1456	5413
811.5513	5514
813.9562	5437
816.3625	5496
818.7663	5438
821.1693	5557
823.5718	5454
825.9735	5482
828.3746	5457
830.7771	5521
833.177	5524
835.5762	5518
837.9747	5501
840.3727	5497
842.772	5536
845.1666	5591
847.5626	5591
849.958	5575
852.3527	5713
854.7488	5581
857.1403	5595
859.5331	5616
861.9253	5507
864.3168	5617
866.7057	5587
869.098	5566
871.4876	5416
873.8746	5551
876.263	5434
878.6487	5630
881.0378	5661
883.4243	5581
885.8081	5467
888.1933	5606
890.5759	5552
892.9598	5667
895.343	5556
897.7256	5515
900.1057	5508
902.4871	5589
904.8659	5611
907.246	5641
909.6254	5675
912.0023	5528
914.3786	5776
916.7562	5742
919.1331	5713
921.5074	5786
923.8831	5863
926.2562	5773
928.6287	5826
931.0005	5862
933.3757	5924
935.7462	5901
938.1162	5849
940.4855	5907
942.8542	5889
945.2242	6089
947.5916	6066
949.9584	6142
952.3266	6212
954.6921	6424
957.0571	6397
959.4233	6556
961.787	6682
964.15	6622
966.5125	6542
968.8742	6227
971.2354	6239
973.5959	6183
975.9559	5934
978.3151	5910
980.6738	5911
983.0338	5897
985.3912	5830
987.7461	5758
990.1022	5639
992.4578	5868
994.8127	5789
997.1689	5816
999.5207	5883
1001.874	5800
1004.226	5770
1006.576	5800
1008.929	5832
1011.28	5837
1013.628	5830
1015.977	5827
1018.324	5807
1020.674	5803
1023.019	5735
1025.366	5933
1027.713	5837
1030.056	5872
1032.399	5843
1034.746	5865
1037.087	5861
1039.431	5898
1041.771	5882
1044.113	5935
1046.454	5946
1048.793	5943
1051.133	5918
1053.471	5896
1055.807	5837
1058.146	5854
1060.483	5935
1062.818	5925
1065.153	5945
1067.489	5975
1069.822	5943
1072.156	5873
1074.488	6014
1076.82	6024
1079.15	6005
1081.48	5924
1083.814	6026
1086.143	5998
1088.471	5919
1090.799	5857
1093.126	5789
1095.452	5894
1097.78	5848
1100.105	5894
1102.43	5912
1104.754	5951
1107.077	5954
1109.4	5911
1111.722	5921
1114.044	5936
1116.365	6022
1118.685	5962
1121.005	6008
1123.324	5981
1125.643	5999
1127.961	5958
1130.278	6043
1132.595	5975
1134.911	5968
1137.226	6079
1139.541	6003
1141.854	6018
1144.167	5996
1146.482	5993
1148.793	6045
1151.105	5984
1153.414	6010
1155.725	5974
1158.033	5979
1160.344	5958
1162.651	6062
1164.959	5961
1167.265	5943
1169.572	6051
1171.878	5966
1174.184	6042
1176.488	5987
1178.79	5980
1181.094	5994
1183.396	6032
1185.699	5852
1188.001	5980
1190.301	5951
1192.6	5930
1194.9	5950
1197.2	6023
1199.497	6006
1201.794	6106
1204.09	5998
1206.387	6052
1208.684	6013
1210.978	5856
1213.272	6094
1215.565	6141
1217.858	5934
1220.15	5984
1222.443	6099
1224.734	6006
1227.024	6207
1229.313	6056
1231.602	6047
1233.892	6174
1236.18	6262
1238.467	6141
1240.754	6148
1243.04	6216
1245.325	6235
1247.612	6265
1249.896	6204
1252.178	6345
1254.461	6265
1256.743	6268
1259.027	6271
1261.308	6378
1263.587	6249
1265.867	6167
1268.146	6234
1270.425	6210
1272.703	6197
1274.981	6351
1277.256	6173
1279.532	6213
1281.808	6139
1284.083	6154
1286.358	6235
1288.63	6354
1290.904	6169
1293.175	6191
1295.449	6108
1297.719	6173
1299.99	6153
1302.259	6040
1304.529	6166
1306.798	6218
1309.065	6165
1311.333	6053
1313.599	6260
1315.866	6184
1318.131	6106
1320.396	6115
1322.66	6180
1324.925	6238
1327.187	6164
1329.448	6219
1331.711	6164
1333.974	6246
1336.234	6197
1338.493	6215
1340.752	6192
1343.01	6202
1345.269	6145
1347.526	6160
1349.784	6182
1352.04	6192
1354.295	6197
1356.552	6286
1358.806	6305
1361.059	6234
1363.312	6230
1365.564	6272
1367.818	6178
1370.069	6123
1372.318	6240
1374.568	6185
1376.817	6187
1379.066	6190
1381.316	6185
1383.564	6189
1385.809	6240
1388.056	6249
1390.301	6282
1392.549	6372
1394.793	6287
1397.036	6395
1399.279	6404
1401.522	6374
1403.763	6462
1406.007	6329
1408.248	6398
1410.487	6474
1412.727	6398
1414.965	6372
1417.205	6406
1419.442	6494
1421.68	6296
1423.915	6372
1426.152	6265
1428.388	6381
1430.623	6282
1432.857	6480
1435.091	6498
1437.323	6506
1439.556	6406
1441.789	6424
1444.019	6510
1446.25	6595
1448.48	6526
1450.708	6505
1452.938	6450
1455.167	6565
1457.394	6468
1459.62	6508
1461.846	6647
1464.073	6468
1466.299	6413
1468.523	6416
1470.746	6367
1472.969	6331
1475.191	6412
1477.415	6346
1479.636	6262
1481.858	6376
1484.078	6293
1486.298	6257
1488.518	6253
1490.736	6322
1492.954	6270
1495.169	6256
1497.386	6244
1499.602	6228
1501.819	6272
1504.034	6263
1506.248	6301
1508.462	6132
1510.675	6363
1512.888	6136
1515.1	6171
1517.311	6227
1519.522	6254
1521.732	6208
1523.942	6172
1526.151	6125
1528.36	6186
1530.566	6266
1532.773	6219
1534.98	6272
1537.187	6271
1539.392	6182
1541.596	6275
1543.801	6305
1546.005	6305
1548.208	6259
1550.411	6346
1552.612	6356
1554.814	6227
1557.013	6227
1559.212	6383
1561.414	6304
1563.612	6165
1565.811	6378
1568.007	6495
1570.203	6400
1572.403	6358
1574.598	6352
1576.792	6296
1578.988	6300
1581.181	6374
1583.376	6361
1585.568	6352
1587.761	6450
1589.952	6353
1592.143	6401
1594.333	6414
1596.524	6339
1598.715	6536
1600.903	6345
1603.091	6558
1605.278	6535
1607.466	6438
1609.652	6401
1611.838	6445
1614.023	6551
1616.207	6441
1618.391	6494
1620.576	6394
1622.759	6465
1624.941	6415
1627.123	6436
1629.304	6473
1631.484	6502
1633.664	6429
1635.844	6491
1638.022	6500
1640.201	6499
1642.38	6510
1644.556	6566
1646.732	6467
1648.908	6499
1651.084	6577
1653.257	6427
1655.433	6548
1657.607	6470
1659.779	6537
1661.951	6538
1664.122	6505
1666.295	6476
1668.467	6561
1670.635	6581
1672.805	6520
1674.973	6450
1677.142	6635
1679.31	6510
1681.478	6566
1683.644	6670
1685.81	6469
1687.975	6531
1690.142	6513
1692.305	6523
1694.468	6497
1696.632	6508
1698.794	6521
1700.957	6372
1703.119	6466
1705.279	6481
1707.439	6475
1709.598	6456
1711.758	6418
1713.917	6405
1716.075	6423
1718.231	6406
1720.388	6523
1722.543	6480
1724.702	6484
1726.856	6508
1729.01	6488
1731.164	6427
1733.317	6471
1735.471	6500
1737.623	6406
1739.774	6505
1741.925	6455
1744.075	6424
1746.225	6451
1748.376	6505
1750.524	6444
1752.672	6336
1754.82	6422
1756.965	6533
1759.113	6438
1761.259	6560
1763.405	6523
1765.549	6358
1767.694	6393
1769.836	6514
1771.981	6383
1774.123	6445
1776.264	6421
1778.405	6455
1780.546	6434
1782.687	6519
1784.827	6535
1786.966	6471
1789.103	6405
1791.242	6471
1793.381	6456
1795.517	6581
1797.653	6537
1799.788	6510
1801.923	6582
1804.057	6460
1806.193	6490
1808.326	6586
1810.457	6434
1812.59	6534
1814.721	6629
1816.855	6425
1818.984	6414
1821.113	6377
1823.244	6441
1825.372	6595
1827.499	6462
1829.63	6454
1831.756	6522
1833.882	6525
1836.007	6509
1838.132	6513
1840.26	6406
1842.384	6461
1844.507	6532
1846.63	6558
1848.752	6394
1850.875	6376
1852.996	6482
1855.118	6358
1857.238	6439
1859.358	6448
1861.477	6350
1863.597	6377
1865.715	6440
1867.832	6449
1869.948	6394
1872.064	6344
1874.181	6509
1876.297	6347
1878.411	6323
1880.526	6426
1882.639	6379
1884.752	6525
1886.865	6381
1888.977	6494
1891.089	6449
1893.2	6487
1895.308	6440
1897.42	6461
1899.53	6396
1901.639	6537
1903.745	6440
1905.853	6435
1907.962	6452
1910.067	6411
1912.174	6503
1914.278	6528
1916.383	6453
1918.486	6581
1920.592	6470
1922.694	6456
1924.797	6566
1926.898	6442
1929	6467
1931.102	6532
1933.203	6564
1935.301	6516
1937.401	6583
1939.499	6605
1941.598	6468
1943.697	6569
1945.793	6506
1947.888	6486
1949.985	6471
1952.08	6410
1954.176	6497
1956.269	6579
1958.364	6373
1960.457	6628
1962.549	6422
1964.642	6543
1966.733	6617
1968.823	6456
1970.913	6442
1973.005	6464
1975.093	6444
1977.184	6491
1979.271	6632
1981.359	6569
1983.446	6442
1985.532	6353
1987.619	6420
1989.705	6448
1991.789	6405
1993.874	6604
1995.956	6416
1998.041	6533
2000.123	6412
2002.206	6507
2004.287	6416
2006.368	6362
2008.449	6550
2010.529	6419
2012.609	6509
2014.688	6454
2016.766	6484
2018.843	6491
2020.922	6435
2022.999	6417
2025.074	6461
2027.15	6379
2029.225	6538
2031.299	6449
2033.375	6449
2035.447	6393
2037.52	6468
2039.592	6473
2041.664	6348
2043.736	6393
2045.807	6448
2047.876	6419
2049.947	6485
2052.015	6427
2054.086	6476
2056.153	6407
2058.221	6561
2060.288	6554
2062.353	6598
2064.42	6481
2066.486	6357
2068.55	6444
2070.614	6530
2072.678	6474
2074.741	6491
2076.805	6398
2078.866	6410
2080.929	6421
2082.99	6464
2085.049	6527
2087.109	6448
2089.17	6445
2091.228	6544
2093.286	6349
2095.344	6533
2097.4	6365
2099.46	6503
2101.516	6543
2103.572	6509
2105.626	6497
2107.679	6459
2109.735	6564
2111.788	6485
2113.841	6439
2115.894	6327
2117.945	6617
2119.997	6383
2122.049	6456
2124.1	6394
2126.148	6459
2128.197	6408
2130.246	6415
2132.296	6414
2134.342	6396
2136.39	6448
2138.437	6537
2140.483	6413
2142.527	6384
2144.574	6363
2146.619	6405
2148.661	6359
2150.705	6266
2152.747	6396
2154.792	6382
2156.832	6480
2158.874	6375
2160.915	6529
2162.954	6387
2164.995	6289
2167.034	6405
2169.072	6367
2171.111	6377
2173.148	6368
2175.186	6462
2177.223	6290
2179.258	6367
2181.294	6385
2183.328	6407
2185.362	6391
2187.398	6205
2189.431	6315
2191.463	6247
2193.495	6318
2195.528	6455
2197.56	6337
2199.59	6346
2201.62	6300
2203.649	6254
2205.678	6401
2207.708	6314
2209.737	6263
2211.764	6308
2213.791	6367
2215.817	6175
2217.843	6264
2219.87	6250
2221.895	6314
2223.919	6336
2225.942	6273
2227.966	6281
2229.988	6278
2232.012	6273
2234.032	6230
2236.054	6327
2238.074	6265
2240.095	6249
2242.116	6161
2244.135	6318
2246.153	6274
2248.171	6195
2250.188	6335
2252.208	6205
2254.223	6354
2256.239	6261
2258.255	6322
2260.269	6338
2262.283	6341
2264.3	6251
2266.312	6278
2268.325	6237
2270.336	6167
2272.349	6193
2274.362	6357
2276.372	6236
2278.383	6241
2280.392	6124
2282.402	6400
2284.409	6236
2286.418	6342
2288.427	6267
2290.433	6305
2292.441	6243
2294.446	6222
2296.453	6208
2298.459	6212
2300.463	6149
2302.466	6256
2304.471	6237
2306.475	6250
2308.477	6247
2310.478	6204
2312.481	6239
2314.481	6187
2316.481	6112
2318.482	6147
2320.482	6137
2322.48	6218
2324.48	6290
2326.478	6264
2328.476	6185
2330.473	6202
2332.469	6214
2334.465	6309
2336.46	6139
2338.454	6163
2340.45	6184
2342.444	6152
2344.437	5999
2346.43	6284
2348.421	6140
2350.414	6103
2352.405	6197
2354.396	6116
2356.386	6075
2358.376	6189
2360.366	6160
2362.355	6128
2364.343	6178
2366.331	5996
2368.317	6192
2370.304	6063
2372.292	6140
2374.278	5926
2376.262	6120
2378.247	6035
2380.23	6109
2382.216	6181
2384.199	6023
2386.181	6065
2388.163	6082
2390.144	6035
2392.127	6125
2394.107	6102
2396.087	6068
2398.066	5983
2400.046	5969
2402.023	5995
2404.004	6080
2405.981	5998
2407.957	6052
2409.934	6041
2411.91	6067
2413.886	5943
2415.862	6044
2417.836	5969
2419.809	6025
2421.784	6011
2423.756	5974
2425.73	6101
2427.701	6049
2429.672	5923
2431.644	6022
2433.615	6001
2435.586	5945
2437.555	6085
2439.523	6118
2441.491	5965
2443.459	6049
2445.428	5979
2447.395	6043
2449.361	6083
2451.327	6033
2453.292	6027
2455.257	5990
2457.223	5993
2459.187	5950
2461.15	5895
2463.113	5902
2465.076	5914
2467.039	6000
2468.999	6000
2470.96	5842
2472.921	5876
2474.881	5915
2476.841	5981
2478.8	5995
2480.759	5931
2482.717	5927
2484.675	5948
2486.63	5929
2488.589	5841
2490.545	5946
2492.5	5933
2494.455	5826
2496.408	5961
2498.364	5906
2500.318	5919
2502.27	5808
2504.223	5804
2506.174	5917
2508.126	5763
2510.078	5903
2512.03	5836
2513.979	5971
2515.927	5860
2517.877	5916
2519.826	5936
2521.775	5909
2523.722	5791
2525.668	5898
2527.616	5911
2529.561	5885
2531.508	5910
2533.452	5824
2535.398	5780
2537.342	5805
2539.284	5849
2541.229	5869
2543.173	5783
2545.114	5782
2547.055	5853
2548.996	5723
2550.938	5876
2552.878	5789
2554.817	5874
2556.756	5830
2558.695	5939
2560.633	5820
2562.572	5827
2564.509	5948
2566.445	5831
2568.382	5788
2570.317	5887
2572.254	5855
2574.189	5790
2576.123	5788
2578.057	5893
2579.99	5882
2581.923	5954
2583.855	5841
2585.788	5890
2587.719	5843
2589.65	5844
2591.579	5793
2593.511	5923
2595.44	5929
2597.37	5798
2599.297	5881
2601.225	5843
2603.153	5891
2605.08	5849
2607.007	5800
2608.932	5865
2610.858	5823
2612.782	5870
2614.709	5816
2616.632	5881
2618.556	5936
2620.478	5852
2622.401	5867
2624.324	5901
2626.247	5833
2628.167	5817
2630.088	5780
2632.008	5775
2633.928	5871
2635.848	5940
2637.766	5927
2639.684	5839
2641.603	5820
2643.519	5843
2645.437	6031
2647.353	5901
2649.27	5809
2651.184	5939
2653.099	5875
2655.014	5831
2656.928	5962
2658.842	5830
2660.755	5742
2662.667	5845
2664.579	5858
2666.491	5887
2668.402	5849
2670.312	5791
2672.222	5672
2674.132	5794
2676.042	5779
2677.951	5840
2679.859	5873
2681.766	5691
2683.674	5759
2685.582	5754
2687.488	5767
2689.392	5813
2691.298	5711
2693.202	5822
2695.107	5830
2697.012	5768
2698.914	5825
2700.817	5733
2702.72	5773
2704.622	5729
2706.524	5709
2708.425	5670
2710.326	5790
2712.225	5811
2714.125	5704
2716.024	5634
2717.923	5635
2719.822	5732
2721.719	5773
2723.616	5820
2725.512	5783
2727.41	5841
2729.305	5777
2731.201	5741
2733.095	5777
2734.99	5738
2736.884	5719
2738.778	5651
2740.67	5803
2742.562	5610
2744.455	5777
2746.346	5606
2748.238	5663
2750.129	5651
2752.018	5679
2753.907	5714
2755.797	5688
2757.687	5670
2759.575	5711
2761.462	5669
2763.349	5666
2765.237	5722
2767.124	5627
2769.009	5626
2770.894	5660
2772.779	5782
2774.663	5620
2776.547	5722
2778.431	5658
2780.314	5706
2782.197	5661
2784.078	5661
2785.96	5673
2787.842	5665
2789.723	5589
2791.603	5706
2793.483	5687
2795.362	5650
2797.241	5624
2799.121	5621
2800.997	5621
2802.874	5571
2804.751	5693
2806.628	5529
2808.506	5570
2810.38	5627
2812.255	5625
2814.13	5527
2816.003	5633
2817.878	5662
2819.752	5636
2821.623	5631
2823.496	5539
2825.368	5657
2827.238	5695
2829.111	5626
2830.98	5503
2832.851	5581
2834.719	5558
2836.589	5543
2838.458	5616
2840.327	5587
2842.193	5547
2844.061	5522
2845.927	5647
2847.794	5619
2849.66	5628
2851.525	5629
2853.39	5681
2855.254	5610
2857.117	5688
2858.983	5717
2860.845	5705
2862.707	5645
2864.569	5766
2866.431	5686
2868.293	5688
2870.154	5682
2872.013	5833
2873.873	5828
2875.733	5785
2877.592	5786
2879.451	5913
2881.309	5928
2883.166	5923
2885.022	6005
2886.879	6050
2888.736	5917
2890.591	5957
2892.446	5973
2894.301	6072
2896.155	5976
2898.009	6100
2899.863	6022
2901.716	6043
2903.568	5911
2905.419	5973
2907.27	5999
2909.123	6002
2910.973	6000
2912.824	6004
2914.673	5975
2916.521	5990
2918.372	6118
2920.22	6125
2922.067	6057
2923.914	6167
2925.761	6150
2927.607	6148
2929.455	6151
2931.301	6161
2933.144	6130
2934.99	6296
2936.833	6337
2938.678	6278
2940.522	6346
2942.364	6464
2944.207	6407
2946.048	6377
2947.891	6541
2949.731	6541
2951.571	6509
2953.412	6510
2955.25	6473
2957.09	6432
2958.93	6346
2960.767	6422
2962.606	6388
2964.443	6291
2966.279	6216
2968.116	6241
2969.953	6134
2971.788	6117
2973.623	6094
2975.457	6062
2977.292	6133
2979.127	6105
2980.959	6021
2982.792	5941
2984.624	5939
2986.455	5902
2988.288	5856
2990.119	5873
2991.949	5827
2993.779	5765
2995.608	5725
2997.439	5693
2999.268	5652
3001.096	5711
3002.923	5626
3004.751	5554
3006.578	5612
3008.406	5521
3010.232	5559
3012.057	5526
3013.883	5545
3015.706	5642
3017.532	5463
3019.356	5296
3021.179	5525
3023.002	5234
3024.823	5507
3026.646	5401
3028.469	5337
3030.289	5385
3032.11	5322
3033.93	5407
3035.749	5324
3037.57	5302
3039.39	5234
3041.207	5233
3043.026	5289
3044.842	5259
3046.661	5279
3048.477	5245
3050.294	5274
3052.109	5251
3053.925	5265
3055.739	5270
3057.555	5240
3059.368	5266
3061.181	5288
3062.995	5210
3064.807	5189
3066.62	5227
3068.433	5267
3070.243	5238
3072.054	5275
3073.865	5167
3075.675	5180
3077.485	5269
3079.293	5195
3081.102	5169
3082.911	5099
3084.719	5058
3086.527	5179
3088.333	5154
3090.139	5179
3091.945	4999
3093.75	5181
3095.557	5129
3097.361	5115
3099.165	5184
3100.969	5091
3102.772	5113
3104.575	5105
3106.379	5110
3108.181	5065
3109.982	5147
3111.783	5044
3113.584	5110
3115.386	4936
3117.186	5097
3118.985	5036
3120.783	5020
3122.582	5110
3124.381	5045
3126.179	5030
3127.975	5080
3129.772	5107
3131.569	5021
3133.365	4894
3135.161	4950
3136.956	5026
3138.751	5052
3140.544	4955
3142.338	5057
3144.132	4923
3145.925	5055
3147.717	4964
3149.509	4983
3151.301	4868
3153.091	4951
3154.884	4985
3156.673	4892
3158.462	4959
3160.252	4966
3162.041	4923
3163.831	4889
3165.618	4884
3167.405	4906
3169.193	4911
3170.979	4914
3172.767	4968
3174.553	4882
3176.338	4861
3178.123	4903
3179.907	4892
3181.692	4882
3183.477	4895
3185.259	4886
3187.042	4916
3188.824	4863
3190.607	4862
3192.389	4891
3194.17	4984
3195.951	4881
3197.73	4885
3199.51	4937
3201.289	4811
3203.07	4968
3204.848	4830
3206.626	4893
3208.403	4982
3210.18	4865
3211.959	4751
3213.735	4803
3215.511	4933
3217.285	4817
3219.06	4883
3220.836	4860
3222.611	4721
3224.384	4724
3226.158	4784
3227.929	4820
3229.702	4847
3231.476	4730
3233.248	4879
3235.018	4805
3236.789	4755
3238.56	4808
3240.33	4847
3242.1	4871
3243.869	4746
3245.637	4800
3247.405	4762
3249.172	4857
3250.941	4770
3252.707	4781
3254.474	4777
3256.24	4874
3258.006	4726
3259.772	4853
3261.537	4795
3263.301	4767
3265.065	4779
3266.828	4841
3268.592	4802
3270.355	4786
3272.117	4738
3273.878	4769
3275.64	4749
3277.401	4765
3279.162	4787
3280.922	4753
3282.682	4682
3284.441	4785
3286.199	4794
3287.959	4715
3289.716	4790
3291.475	4831
3293.232	4826
3294.988	4814
3296.744	4754
3298.501	4829
3300.256	4760
3302.011	4770
3303.766	4705
3305.52	4804
3307.275	4829
3309.028	4739
3310.781	4768
3312.533	4748
3314.285	4689
3316.038	4842
3317.789	4794
3319.54	4769
3321.289	4765
3323.039	4699
3324.789	4729
3326.539	4732
3328.288	4758
3330.035	4717
3331.783	4691
3333.531	4723
3335.28	4688
3337.025	4671
3338.771	4676
3340.518	4721
3342.262	4745
3344.009	4659
3345.753	4682
3347.497	4613
3349.24	4710
3350.983	4719
3352.726	4764
3354.469	4731
3356.212	4640
3357.952	4699
3359.694	4742
3361.434	4595
3363.176	4590
3364.916	4674
3366.654	4594
3368.394	4626
3370.132	4733
3371.871	4555
3373.61	4581
3375.346	4554
3377.083	4595
3378.82	4580
3380.556	4704
3382.292	4510
3384.027	4661
3385.763	4501
3387.497	4641
3389.231	4653
3390.965	4528
3392.698	4550
3394.431	4599
3396.164	4597
3397.896	4585
3399.627	4547
3401.36	4548
3403.09	4625
3404.82	4512
3406.55	4567
3408.279	4552
3410.01	4565
3411.738	4620
3413.467	4516
3415.194	4524
3416.92	4499
3418.647	4422
3420.375	4503
3422.102	4437
3423.827	4599
3425.553	4467
3427.277	4542
3429.003	4525
3430.727	4518
3432.451	4495
3434.173	4553
3435.896	4476
3437.62	4469
3439.343	4494
3441.063	4502
3442.785	4405
3444.505	4396
3446.226	4415
3447.948	4490
3449.666	4442
3451.386	4476
3453.104	4360
3454.823	4428
3456.541	4396
3458.259	4484
3459.976	4435
3461.693	4380
3463.408	4427
3465.125	4294
3466.841	4396
3468.556	4365
3470.271	4360
3471.985	4387
3473.698	4362
3475.414	4366
3477.126	4310
3478.838	4400
3480.55	4341
3482.263	4344
3483.975	4269
3485.686	4269
3487.396	4359
3489.106	4329
3490.817	4279
3492.526	4359
3494.236	4346
3495.944	4210
3497.652	4271
3499.359	4253
3501.066	4265
3502.775	4315
3504.481	4211
3506.187	4326
3507.893	4188
3509.598	4294
3511.304	4197
3513.009	4214
3514.713	4320
3516.417	4190
3518.12	4244
3519.821	4190
3521.525	4264
3523.228	4237
3524.929	4210
3526.631	4154
3528.33	4175
3530.032	4113
3531.733	4241
3533.433	4155
3535.131	4125
3536.83	4136
3538.529	4135
3540.227	4147
3541.925	4167
3543.623	4184
3545.319	4204
3547.016	4117
3548.712	4122
3550.408	4146
3552.103	4152
3553.798	4065
3555.491	4148
3557.188	4183
3558.88	4104
3560.574	4033
3562.266	4185
3563.959	4073
3565.651	4092
3567.343	4091
3569.035	4115
3570.725	4150
3572.415	4063
3574.106	4032
3575.797	4146
3577.485	4105
3579.174	4060
3580.863	4086
3582.551	4063
3584.238	4052
3585.926	4101
3587.613	4042
3589.3	4065
3590.986	4012
3592.671	4044
3594.357	4055
3596.042	4038
3597.726	3921
3599.41	3981
3601.094	4003
3602.778	3988
3604.461	4007
3606.143	3968
3607.825	3971
3609.507	4003
3611.188	4042
3612.87	4001
3614.551	4037
3616.229	3987
3617.909	3978
3619.589	3991
3621.269	4019
3622.948	3859
3624.625	3973
3626.302	3917
3627.98	3991
3629.657	3882
3631.334	3975
3633.01	3884
3634.686	3862
3636.361	3885
3638.036	3809
3639.712	3861
3641.385	3846
3643.06	3871
3644.732	3815
3646.405	3820
3648.08	3839
3649.751	3862
3651.424	3877
3653.094	3879
3654.766	3922
3656.436	3800
3658.106	3850
3659.777	3848
3661.446	3843
3663.115	3784
3664.783	3796
3666.452	3931
3668.121	3849
3669.788	3816
3671.454	3787
3673.121	3813
3674.789	3780
3676.455	3699
3678.12	3827
3679.784	3813
3681.45	3837
3683.114	3773
3684.779	3741
3686.442	3810
3688.105	3712
3689.768	3823
3691.43	3810
3693.093	3749
3694.754	3752
3696.415	3727
3698.076	3743
3699.736	3772
3701.396	3710
3703.057	3675
3704.716	3739
3706.375	3806
3708.034	3721
3709.692	3688
3711.351	3719
3713.008	3738
3714.665	3681
3716.321	3685
3717.977	3632
3719.634	3774
3721.29	3788
3722.945	3719
3724.598	3637
3726.253	3681
3727.907	3706
3729.561	3663
3731.214	3656
3732.867	3720
3734.518	3667
3736.171	3693
3737.824	3755
3739.474	3671
3741.125	3772
3742.775	3641
3744.425	3600
3746.074	3689
3747.725	3678
3749.373	3633
3751.022	3684
3752.669	3562
3754.318	3715
3755.966	3644
3757.612	3638
3759.259	3555
3760.905	3608
3762.55	3604
3764.197	3524
3765.842	3608
3767.486	3588
3769.131	3642
3770.774	3640
3772.417	3546
3774.061	3717
3775.705	3550
3777.347	3643
3778.988	3579
3780.629	3543
3782.271	3560
3783.912	3639
3785.552	3532
3787.192	3523
3788.831	3612
3790.472	3488
3792.112	3507
3793.75	3521
3795.388	3550
3797.024	3553
3798.661	3540
3800.3	3500
3801.936	3521
3803.572	3481
3805.208	3542
3806.844	3577
3808.48	3525
3810.115	3453
3811.748	3502
3813.382	3543
3815.016	3511
3816.649	3494
3818.283	3498
3819.914	3466
3821.547	3483
3823.178	3478
3824.809	3415
3826.441	3483
3828.072	3538
3829.701	3505
3831.331	3444
3832.96	3501
3834.591	3392
3836.219	3453
3837.847	3494
3839.475	3446
3841.102	3486
3842.729	3442
3844.357	3467
3845.984	3427
3847.609	3433
3849.234	3422
3850.86	3465
3852.485	3414
3854.11	3410
3855.734	3414
3857.357	3428
3858.981	3489
3860.603	3409
3862.227	3454
3863.848	3369
3865.471	3381
3867.092	3374
3868.713	3346
3870.334	3400
3871.954	3349
3873.575	3397
3875.194	3367
3876.813	3388
3878.433	3408
3880.051	3335
3881.669	3363
3883.286	3330
3884.904	3319
3886.52	3343
3888.138	3371
3889.754	3362
3891.37	3367
3892.985	3342
3894.6	3395
3896.216	3305
3897.831	3325
3899.444	3373
3901.058	3286
3902.67	3364
3904.283	3337
3905.897	3338
3907.509	3353
3909.121	3334
3910.731	3279
3912.342	3316
3913.954	3376
3915.563	3320
3917.174	3282
3918.783	3309
3920.391	3356
3922.002	3281
3923.611	3300
3925.218	3309
3926.826	3332
3928.432	3341
3930.039	3374
3931.647	3342
3933.253	3329
3934.859	3250
3936.464	3266
3938.068	3259
3939.675	3193
3941.278	3247
3942.883	3252
3944.486	3267
3946.089	3321
3947.692	3235
3949.295	3225
3950.898	3311
3952.499	3291
3954.1	3275
3955.7	3159
3957.303	3234
3958.903	3245
3960.502	3248
3962.101	3206
3963.7	3258
3965.301	3321
3966.899	3206
3968.497	3259
3970.094	3175
3971.691	3225
3973.288	3185
3974.885	3201
3976.481	3242
3978.077	3181
3979.672	3192
3981.267	3183
3982.863	3205
3984.457	3241
3986.051	3271
3987.645	3190
3989.238	3179
3990.831	3182
3992.425	3126
3994.017	3156
3995.607	3252
3997.199	3191
3998.79	3118
4000.382	3201
4001.973	3171
4003.561	3144
4005.151	3241
4006.741	3065
4008.331	3133
4009.918	3104
4011.507	3105
4013.095	3143
4014.681	3112
4016.269	3083
4017.856	3039
4019.443	3101
4021.028	3094
4022.614	3062
4024.199	3031
4025.785	3066
4027.37	3097
4028.953	3049
4030.536	3063
4032.12	3056
4033.704	3095
4035.287	3030
4036.869	3074
4038.45	3076
4040.032	3071
4041.613	3041
4043.195	3017
4044.776	3033
4046.356	3094
4047.935	3091
4049.515	3022
4051.095	3098
4052.674	3028
4054.251	3042
4055.829	3030
4057.406	3071
4058.985	2956
4060.562	3026
4062.139	2990
4063.715	2987
4065.29	2977
4066.865	3015
4068.442	2987
4070.016	3067
4071.59	2997
4073.164	2932
4074.738	2999
4076.312	3052
4077.885	2968
4079.458	3048
4081.03	2979
4082.602	3016
4084.173	2955
4085.745	3034
4087.315	2954
4088.886	3062
4090.456	2931
4092.026	2964
4093.596	2862
4095.165	2927
4096.734	2980
4098.301	2983
4099.869	2906
4101.437	2927
4103.006	2993
4104.572	2950
4106.139	2899
4107.704	2904
4109.27	2931
4110.837	3002
4112.401	2914
4113.966	2897
4115.53	2869
4117.094	2877
4118.659	2848
4120.223	2865
4121.785	2865
4123.347	2898
4124.909	2890
4126.471	2938
4128.034	2918
4129.595	2879
4131.155	2871
4132.716	2909
4134.275	2880
4135.836	2886
4137.395	2863
4138.955	2871
4140.513	2865
4142.071	2818
4143.628	2844
4145.188	2779
4146.745	2871
4148.302	2897
4149.858	2788
4151.414	2847
4152.971	2855
4154.526	2796
4156.081	2775
4157.635	2704
4159.189	2779
4160.745	2821
4162.298	2846
4163.852	2816
4165.405	2790
4166.957	2773
4168.51	2818
4170.063	2886
4171.614	2757
4173.166	2759
4174.717	2778
4176.267	2821
4177.817	2774
4179.368	2796
4180.917	2834
4182.466	2733
4184.016	2703
4185.564	2727
4187.112	2701
4188.66	2711
4190.207	2770
4191.754	2711
4193.301	2776
4194.848	2825
4196.394	2769
4197.94	2696
4199.484	2708
4201.03	2698
4202.575	2759
4204.12	2701
4205.663	2711
4207.207	2738
4208.75	2719
4210.292	2686
4211.836	2701
4213.378	2710
4214.92	2771
4216.46	2732
4218.002	2757
4219.544	2721
4221.083	2718
4222.625	2622
4224.164	2711
4225.703	2696
4227.244	2714
4228.782	2720
4230.32	2639
4231.857	2617
4233.395	2674
4234.933	2613
4236.471	2639
4238.007	2606
4239.542	2621
4241.078	2686
4242.614	2665
4244.15	2681
4245.685	2607
4247.219	2623
4248.753	2638
4250.287	2678
4251.82	2647
4253.354	2649
4254.887	2662
4256.419	2626
4257.951	2642
4259.483	2656
4261.016	2612
4262.547	2596
4264.078	2650
4265.608	2640
4267.137	2667
4268.668	2620
4270.197	2577
4271.727	2626
4273.254	2626
4274.783	2600
4276.311	2631
4277.84	2645
4279.366	2617
4280.894	2523
4282.42	2570
4283.946	2611
4285.473	2606
4286.998	2549
4288.523	2618
4290.047	2620
4291.572	2598
4293.096	2576
4294.622	2605
4296.144	2539
4297.668	2546
4299.19	2557
4300.713	2604
4302.236	2565
4303.758	2582
4305.279	2592
4306.799	2547
4308.321	2500
4309.842	2550
4311.361	2563
4312.882	2545
4314.401	2526
