400.0961	6706
402.6185	6730
405.1424	6632
407.6635	6676
410.1838	6700
412.7035	6789
415.2225	6731
417.7388	6998
420.2585	6874
422.7754	6968
425.2917	7097
427.8072	6995
430.3221	7116
432.8363	7107
435.3498	7199
437.8626	7094
440.3727	7193
442.8841	7276
445.3969	7123
447.907	7166
450.4142	7061
452.9229	7286
455.4289	7149
457.9362	7086
460.4449	7110
462.9488	7172
465.454	7212
467.9566	7147
470.4604	7223
472.9637	7249
475.4662	7102
477.966	7293
480.4671	7145
482.9656	7271
485.4633	7345
487.9645	7261
490.4608	7281
492.9566	7301
495.4536	7388
497.948	7453
500.4437	7427
502.9387	7471
505.431	7300
507.9226	7454
510.4136	7541
512.9079	7408
515.3975	7440
517.8864	7471
520.3746	7393
522.8622	7501
525.3491	7450
527.8394	7440
530.3249	7546
532.8098	7409
535.2939	7551
537.7774	7561
540.2623	7608
542.7444	7391
545.2259	7503
547.7067	7581
550.1868	7624
552.6683	7450
555.147	7649
557.6231	7437
560.1005	7643
562.5773	7604
565.0534	7711
567.5308	7592
570.0056	7762
572.4776	7607
574.951	7683
577.4237	7779
579.8978	7734
582.3671	7760
584.8378	7848
587.3079	7907
589.7773	7809
592.244	7899
594.714	7848
597.1793	7872
599.6461	7742
602.1121	7684
604.5754	7817
607.0421	7854
609.5042	7874
611.9675	7783
614.4282	7820
616.8902	7903
619.3515	7756
621.8122	7905
624.2702	7712
626.7296	7782
629.1863	7806
631.6423	7768
634.1017	7819
636.5563	7713
639.0104	7827
641.4658	7823
643.9185	7764
646.3725	7838
648.8239	7873
651.2766	7895
653.7266	7730
656.176	7896
658.6247	8005
661.0748	7871
663.5242	7896
665.9709	7918
668.417	8004
670.8624	7969
673.3092	8115
675.7533	8012
678.1968	7980
680.6395	8039
683.0817	8054
685.5251	8027
687.9659	7998
690.4061	8160
692.8456	7949
695.2844	7975
697.7226	8234
700.1621	8163
702.599	8175
705.0332	8182
707.4688	8041
709.9036	8221
712.3399	8200
714.7735	8197
717.2044	8210
719.6367	8165
722.0683	8254
724.4993	8290
726.9296	8320
729.3593	8219
731.7883	8250
734.2147	8336
736.6423	8299
739.0714	8414
741.4958	8395
743.9216	8450
746.3447	8423
748.7691	8417
751.1929	8495
753.616	8323
756.0366	8469
758.4584	8643
760.8776	8580
763.2982	8574
765.718	8593
768.1373	8510
770.5539	8732
772.9698	8548
775.3871	8649
777.8038	8562
780.2178	8611
782.6332	8747
785.0459	8650
787.458	8673
789.8714	8629
792.2842	8783
794.6943	8686
797.1038	8626
799.5127	8746
801.9209	8722
804.3324	8727
806.7393	8636
809.1456	8695
811.5513	8770
813.9562	8741
816.3625	8751
818.7663	8680
821.1693	8858
823.5718	8825
825.9735	8790
828.3746	8774
830.7771	8662
833.177	8956
835.5762	8817
837.9747	8805
840.3727	8925
842.772	8825
845.1666	8761
847.5626	8959
849.958	8851
852.3527	8933
854.7488	9032
857.1403	8719
859.5331	9006
861.9253	8968
864.3168	8904
866.7057	8903
869.098	8880
871.4876	8856
873.8746	9005
876.263	8921
878.6487	8959
881.0378	8948
883.4243	8828
885.8081	9040
888.1933	9089
890.5759	8915
892.9598	8867
895.343	8904
897.7256	8982
900.1057	8880
902.4871	8940
904.8659	8913
907.246	9136
909.6254	8983
912.0023	9003
914.3786	9169
916.7562	9140
919.1331	9232
921.5074	9106
923.8831	9282
926.2562	9310
928.6287	9364
931.0005	9300
933.3757	9345
935.7462	9278
938.1162	9387
940.4855	9549
942.8542	9363
945.2242	9446
947.5916	9803
949.9584	9664
952.3266	9904
954.6921	10369
957.0571	10681
959.4233	10937
961.787	10981
964.15	10860
966.5125	10767
968.8742	10313
971.2354	10101
973.5959	9600
975.9559	9562
978.3151	9306
980.6738	9353
983.0338	9203
985.3912	9209
987.7461	9293
990.1022	9223
992.4578	9140
994.8127	9117
997.1689	9241
999.5207	9328
1001.874	9386
1004.226	9283
1006.576	9254
1008.929	9367
1011.28	9278
1013.628	9332
1015.977	9307
1018.324	9109
1020.674	9297
1023.019	9365
1025.366	9430
1027.713	9373
1030.056	9247
1032.399	9444
1034.746	9407
1037.087	9410
1039.431	9407
1041.771	9349
1044.113	9327
1046.454	9486
1048.793	9337
1051.133	9278
1053.471	9425
1055.807	9443
1058.146	9487
1060.483	9411
1062.818	9491
1065.153	9606
1067.489	9656
1069.822	9715
1072.156	9557
1074.488	9716
1076.82	9512
1079.15	9493
1081.48	9670
1083.814	9548
1086.143	9415
1088.471	9522
1090.799	9497
1093.126	9483
1095.452	9563
1097.78	9502
1100.105	9397
1102.43	9484
1104.754	9461
1107.077	9481
1109.4	9440
1111.722	9474
1114.044	9486
1116.365	9611
1118.685	9606
1121.005	9535
1123.324	9585
1125.643	9488
1127.961	9800
1130.278	9603
1132.595	9458
1134.911	9652
1137.226	9504
1139.541	9395
1141.854	9563
1144.167	9583
1146.482	9520
1148.793	9525
1151.105	9581
1153.414	9435
1155.725	9483
1158.033	9539
1160.344	9542
1162.651	9472
1164.959	9502
1167.265	9667
1169.572	9438
1171.878	9598
1174.184	9605
1176.488	9538
1178.79	9588
1181.094	9673
1183.396	9399
1185.699	9592
1188.001	9376
1190.301	9530
1192.6	9707
1194.9	9469
1197.2	9493
1199.497	9601
1201.794	9544
1204.09	9531
1206.387	9698
1208.684	9682
1210.978	9714
1213.272	9514
1215.565	9626
1217.858	9534
1220.15	9565
1222.443	9607
1224.734	9608
1227.024	9678
1229.313	9805
1231.602	9672
1233.892	9725
1236.18	9916
1238.467	9925
1240.754	9846
1243.04	9869
1245.325	9916
1247.612	9969
1249.896	10000
1252.178	10020
1254.461	9855
1256.743	9905
1259.027	9905
1261.308	9832
1263.587	9891
1265.867	9895
1268.146	9919
1270.425	9916
1272.703	9969
1274.981	9822
1277.256	10020
1279.532	9929
1281.808	9785
1284.083	9837
1286.358	9778
1288.63	9841
1290.904	9836
1293.175	9836
1295.449	9967
1297.719	9867
1299.99	9813
1302.259	9770
1304.529	9908
1306.798	9925
1309.065	9632
1311.333	9978
1313.599	9792
1315.866	9914
1318.131	9840
1320.396	9819
1322.66	9851
1324.925	10006
1327.187	9784
1329.448	9768
1331.711	9710
1333.974	9790
1336.234	9737
1338.493	9881
1340.752	9743
1343.01	9832
1345.269	9745
1347.526	9717
1349.784	9895
1352.04	9815
1354.295	9786
1356.552	9810
1358.806	9644
1361.059	10036
1363.312	9771
1365.564	9884
1367.818	9711
1370.069	9768
1372.318	9822
1374.568	9711
1376.817	9911
1379.066	9734
1381.316	9903
1383.564	9843
1385.809	9986
1388.056	9949
1390.301	9818
1392.549	9888
1394.793	9973
1397.036	9877
1399.279	10054
1401.522	9924
1403.763	10033
1406.007	9998
1408.248	9905
1410.487	10035
1412.727	10153
1414.965	10032
1417.205	10089
1419.442	10160
1421.68	10000
1423.915	10189
1426.152	10112
1428.388	10178
1430.623	10034
1432.857	10055
1435.091	10141
1437.323	10229
1439.556	10091
1441.789	10091
1444.019	10023
1446.25	10275
1448.48	10347
1450.708	10077
1452.938	10497
1455.167	10190
1457.394	10202
1459.62	10215
1461.846	10294
1464.073	10228
1466.299	10185
1468.523	10267
1470.746	10129
1472.969	10283
1475.191	10012
1477.415	10073
1479.636	10036
1481.858	10001
1484.078	10004
1486.298	10081
1488.518	9990
1490.736	9954
1492.954	9954
1495.169	9762
1497.386	9965
1499.602	9891
1501.819	9803
1504.034	9881
1506.248	9860
1508.462	9850
1510.675	9799
1512.888	9873
1515.1	9862
1517.311	9782
1519.522	9821
1521.732	9792
1523.942	9897
1526.151	9889
1528.36	9815
1530.566	9855
1532.773	9818
1534.98	10033
1537.187	9951
1539.392	9873
1541.596	9961
1543.801	10024
1546.005	9875
1548.208	9905
1550.411	9957
1552.612	9962
1554.814	9932
1557.013	9935
1559.212	9959
1561.414	9936
1563.612	10093
1565.811	9989
1568.007	10091
1570.203	9902
1572.403	10219
1574.598	10263
1576.792	10118
1578.988	9961
1581.181	10284
1583.376	10108
1585.568	10137
1587.761	10030
1589.952	10102
1592.143	10237
1594.333	10286
1596.524	10221
1598.715	10286
1600.903	10239
1603.091	10203
1605.278	10098
1607.466	10160
1609.652	10191
1611.838	10239
1614.023	10060
1616.207	10265
1618.391	10147
1620.576	10121
1622.759	10212
1624.941	10175
1627.123	10248
1629.304	10382
1631.484	10269
1633.664	10283
1635.844	10294
1638.022	10401
1640.201	10251
1642.38	10313
1644.556	10321
1646.732	10324
1648.908	10159
1651.084	10261
1653.257	10361
1655.433	10257
1657.607	10374
1659.779	10427
1661.951	10365
1664.122	10530
1666.295	10394
1668.467	10434
1670.635	10361
1672.805	10339
1674.973	10410
1677.142	10360
1679.31	10333
1681.478	10363
1683.644	10366
1685.81	10276
1687.975	10302
1690.142	10252
1692.305	10338
1694.468	10316
1696.632	10393
1698.794	10248
1700.957	10227
1703.119	10220
1705.279	10057
1707.439	10341
1709.598	10265
1711.758	10153
1713.917	10300
1716.075	10135
1718.231	10094
1720.388	10285
1722.543	10206
1724.702	10242
1726.856	10208
1729.01	10174
1731.164	10176
1733.317	10142
1735.471	10195
1737.623	10158
1739.774	10217
1741.925	10123
1744.075	10227
1746.225	10210
1748.376	10098
1750.524	10162
1752.672	10217
1754.82	10199
1756.965	10341
1759.113	10053
1761.259	10048
1763.405	10227
1765.549	10237
1767.694	10218
1769.836	10303
1771.981	10234
1774.123	10176
1776.264	10113
1778.405	10249
1780.546	10179
1782.687	10111
1784.827	10236
1786.966	10242
1789.103	10173
1791.242	10290
1793.381	10373
1795.517	10274
1797.653	10288
1799.788	10395
1801.923	10341
1804.057	10091
1806.193	10168
1808.326	10350
1810.457	10258
1812.59	10125
1814.721	10343
1816.855	10322
1818.984	10329
1821.113	10350
1823.244	10284
1825.372	10205
1827.499	10162
1829.63	10140
1831.756	10168
1833.882	10192
1836.007	10245
1838.132	10148
1840.26	10227
1842.384	10214
1844.507	10058
1846.63	10179
1848.752	10039
1850.875	10139
1852.996	10296
1855.118	10153
1857.238	10139
1859.358	9977
1861.477	9990
1863.597	10142
1865.715	10199
1867.832	10099
1869.948	10242
1872.064	10163
1874.181	10161
1876.297	10075
1878.411	10088
1880.526	10324
1882.639	10166
1884.752	10079
1886.865	10134
1888.977	10096
1891.089	10266
1893.2	10048
1895.308	10094
1897.42	10271
1899.53	10208
1901.639	10216
1903.745	10130
1905.853	10264
1907.962	10109
1910.067	10290
1912.174	10162
1914.278	10176
1916.383	10051
1918.486	10209
1920.592	10178
1922.694	10196
1924.797	10203
1926.898	10335
1929	10256
1931.102	10343
1933.203	10298
1935.301	10262
1937.401	10253
1939.499	10224
1941.598	10199
1943.697	10252
1945.793	10218
1947.888	10347
1949.985	10328
1952.08	10112
1954.176	10361
1956.269	10174
1958.364	10222
1960.457	10218
1962.549	10235
1964.642	10162
1966.733	10286
1968.823	10145
1970.913	10198
1973.005	10226
1975.093	10193
1977.184	10251
1979.271	10109
1981.359	10203
1983.446	10097
1985.532	10143
1987.619	10276
1989.705	10127
1991.789	10102
1993.874	10145
1995.956	10113
1998.041	10169
2000.123	10007
2002.206	10231
2004.287	10118
2006.368	10091
2008.449	10137
2010.529	10120
2012.609	9995
2014.688	10099
2016.766	10047
2018.843	10039
2020.922	10021
2022.999	10060
2025.074	10072
2027.15	10064
2029.225	10007
2031.299	10122
2033.375	10015
2035.447	9955
2037.52	10119
2039.592	10153
2041.664	10270
2043.736	9927
2045.807	10094
2047.876	10040
2049.947	10028
2052.015	10140
2054.086	10117
2056.153	10062
2058.221	10019
2060.288	10139
2062.353	10009
2064.42	10171
2066.486	10060
2068.55	10041
2070.614	10282
2072.678	10196
2074.741	10059
2076.805	10073
2078.866	10107
2080.929	10049
2082.99	10080
2085.049	10145
2087.109	10228
2089.17	10157
2091.228	10192
2093.286	10003
2095.344	10147
2097.4	10154
2099.46	9923
2101.516	10051
2103.572	10156
2105.626	10086
2107.679	10184
2109.735	10076
2111.788	10157
2113.841	9996
2115.894	9906
2117.945	10077
2119.997	10123
2122.049	9946
2124.1	10107
2126.148	10058
2128.197	9876
2130.246	9965
2132.296	9940
2134.342	10186
2136.39	10064
2138.437	10018
2140.483	10086
2142.527	10178
2144.574	10029
2146.619	10010
2148.661	10010
2150.705	9964
2152.747	9959
2154.792	9871
2156.832	9989
2158.874	9810
2160.915	9974
2162.954	10002
2164.995	10076
2167.034	9884
2169.072	9917
2171.111	9851
2173.148	9761
2175.186	9985
2177.223	9805
2179.258	9823
2181.294	9825
2183.328	9876
2185.362	9971
2187.398	9812
2189.431	9760
2191.463	9731
2193.495	9802
2195.528	9969
2197.56	9938
2199.59	9740
2201.62	9771
2203.649	9927
2205.678	9749
2207.708	9862
2209.737	9811
2211.764	9697
2213.791	9729
2215.817	9704
2217.843	9845
2219.87	9801
2221.895	9684
2223.919	9666
2225.942	9641
2227.966	9640
2229.988	9721
2232.012	9773
2234.032	9736
2236.054	9681
2238.074	9720
2240.095	9679
2242.116	9785
2244.135	9653
2246.153	9695
2248.171	9621
2250.188	9732
2252.208	9691
2254.223	9784
2256.239	9693
2258.255	9785
2260.269	9730
2262.283	9646
2264.3	9726
2266.312	9684
2268.325	9868
2270.336	9799
2272.349	9756
2274.362	9801
2276.372	9842
2278.383	9686
2280.392	9797
2282.402	9809
2284.409	9757
2286.418	9584
2288.427	9592
2290.433	9863
2292.441	9661
2294.446	9616
2296.453	9583
2298.459	9714
2300.463	9799
2302.466	9692
2304.471	9646
2306.475	9646
2308.477	9598
2310.478	9619
2312.481	9667
2314.481	9651
2316.481	9427
2318.482	9626
2320.482	9611
2322.48	9636
2324.48	9579
2326.478	9627
2328.476	9558
2330.473	9666
2332.469	9635
2334.465	9526
2336.46	9657
2338.454	9591
2340.45	9508
2342.444	9574
2344.437	9477
2346.43	9499
2348.421	9366
2350.414	9432
2352.405	9485
2354.396	9561
2356.386	9412
2358.376	9431
2360.366	9432
2362.355	9364
2364.343	9458
2366.331	9409
2368.317	9353
2370.304	9366
2372.292	9391
2374.278	9403
2376.262	9395
2378.247	9308
2380.23	9372
2382.216	9288
2384.199	9420
2386.181	9414
2388.163	9433
2390.144	9369
2392.127	9353
2394.107	9221
2396.087	9432
2398.066	9262
2400.046	9283
2402.023	9271
2404.004	9388
2405.981	9201
2407.957	9440
2409.934	9335
2411.91	9332
2413.886	9272
2415.862	9287
2417.836	9218
2419.809	9301
2421.784	9107
2423.756	9232
2425.73	9173
2427.701	9267
2429.672	9307
2431.644	9239
2433.615	9158
2435.586	9195
2437.555	9235
2439.523	9283
2441.491	9272
2443.459	9304
2445.428	9268
2447.395	9216
2449.361	9312
2451.327	9306
2453.292	9172
2455.257	9234
2457.223	9146
2459.187	9049
2461.15	9284
2463.113	9153
2465.076	9217
2467.039	9182
2468.999	9259
2470.96	9053
2472.921	9109
2474.881	9200
2476.841	9227
2478.8	9190
2480.759	9056
2482.717	8979
2484.675	9129
2486.63	9141
2488.589	9158
2490.545	9192
2492.5	8992
2494.455	9162
2496.408	9016
2498.364	9201
2500.318	8973
2502.27	9145
2504.223	9047
2506.174	8995
2508.126	9143
2510.078	9054
2512.03	9036
2513.979	9125
2515.927	8869
2517.877	9026
2519.826	8985
2521.775	8842
2523.722	8934
2525.668	9017
2527.616	9200
2529.561	9113
2531.508	8989
2533.452	9034
2535.398	8935
2537.342	9016
2539.284	9042
2541.229	8979
2543.173	8891
2545.114	8987
2547.055	8862
2548.996	9121
2550.938	9018
2552.878	8949
2554.817	8934
2556.756	8960
2558.695	8927
2560.633	8870
2562.572	8943
2564.509	8831
2566.445	8920
2568.382	8879
2570.317	8983
2572.254	8978
2574.189	8966
2576.123	9111
2578.057	9014
2579.99	8853
2581.923	8976
2583.855	8923
2585.788	8884
2587.719	9013
2589.65	8992
2591.579	8938
2593.511	8873
2595.44	9012
2597.37	8895
2599.297	8875
2601.225	8745
2603.153	8874
2605.08	8963
2607.007	8956
2608.932	8977
2610.858	9059
2612.782	8908
2614.709	9050
2616.632	9099
2618.556	8957
2620.478	9039
2622.401	8946
2624.324	8987
2626.247	8910
2628.167	8926
2630.088	8902
2632.008	8902
2633.928	8945
2635.848	8821
2637.766	8913
2639.684	8826
2641.603	8984
2643.519	9064
2645.437	8935
2647.353	8846
2649.27	8923
2651.184	8922
2653.099	8991
2655.014	8957
2656.928	8947
2658.842	8910
2660.755	8864
2662.667	8831
2664.579	8775
2666.491	8922
2668.402	8750
2670.312	8903
2672.222	9023
2674.132	9019
2676.042	8895
2677.951	8794
2679.859	8810
2681.766	8935
2683.674	8947
2685.582	8754
2687.488	8863
2689.392	8850
2691.298	8871
2693.202	8878
2695.107	8750
2697.012	8856
2698.914	8697
2700.817	8717
2702.72	8828
2704.622	8801
2706.524	8836
2708.425	8729
2710.326	8676
2712.225	8721
2714.125	8627
2716.024	8772
2717.923	8796
2719.822	8711
2721.719	8666
2723.616	8636
2725.512	8804
2727.41	8819
2729.305	8664
2731.201	8616
2733.095	8778
2734.99	8641
2736.884	8778
2738.778	8805
2740.67	8719
2742.562	8501
2744.455	8712
2746.346	8630
2748.238	8605
2750.129	8733
2752.018	8621
2753.907	8540
2755.797	8630
2757.687	8591
2759.575	8673
2761.462	8622
2763.349	8696
2765.237	8653
2767.124	8689
2769.009	8555
2770.894	8575
2772.779	8554
2774.663	8579
2776.547	8677
2778.431	8605
2780.314	8498
2782.197	8576
2784.078	8549
2785.96	8468
2787.842	8526
2789.723	8581
2791.603	8519
2793.483	8459
2795.362	8513
2797.241	8699
2799.121	8706
2800.997	8434
2802.874	8471
2804.751	8556
2806.628	8500
2808.506	8502
2810.38	8519
2812.255	8512
2814.13	8374
2816.003	8624
2817.878	8322
2819.752	8512
2821.623	8469
2823.496	8319
2825.368	8531
2827.238	8385
2829.111	8520
2830.98	8493
2832.851	8440
2834.719	8482
2836.589	8382
2838.458	8553
2840.327	8381
2842.193	8432
2844.061	8489
2845.927	8446
2847.794	8449
2849.66	8404
2851.525	8558
2853.39	8577
2855.254	8585
2857.117	8489
2858.983	8639
2860.845	8544
2862.707	8667
2864.569	8612
2866.431	8586
2868.293	8599
2870.154	8638
2872.013	8652
2873.873	8684
2875.733	8801
2877.592	8792
2879.451	8940
2881.309	8972
2883.166	8786
2885.022	8907
2886.879	9098
2888.736	8995
2890.591	9011
2892.446	8920
2894.301	8970
2896.155	8983
2898.009	8838
2899.863	8907
2901.716	8772
2903.568	8877
2905.419	8774
2907.27	8847
2909.123	8990
2910.973	8928
2912.824	9005
2914.673	8955
2916.521	8945
2918.372	9071
2920.22	9069
2922.067	9116
2923.914	9096
2925.761	9276
2927.607	9215
2929.455	9268
2931.301	9207
2933.144	9341
2934.99	9412
2936.833	9424
2938.678	9550
2940.522	9637
2942.364	9686
2944.207	9651
2946.048	9773
2947.891	9790
2949.731	9674
2951.571	9539
2953.412	9683
2955.25	9485
2957.09	9487
2958.93	9483
2960.767	9490
2962.606	9359
2964.443	9157
2966.279	9320
2968.116	9241
2969.953	9005
2971.788	9016
2973.623	9132
2975.457	8950
2977.292	9063
2979.127	8916
2980.959	9024
2982.792	8891
2984.624	8876
2986.455	8805
2988.288	8761
2990.119	8859
2991.949	8834
2993.779	8751
2995.608	8687
2997.439	8598
2999.268	8625
3001.096	8469
3002.923	8542
3004.751	8441
3006.578	8236
3008.406	8406
3010.232	8271
3012.057	8242
3013.883	8089
3015.706	8243
3017.532	8105
3019.356	8151
3021.179	8039
3023.002	8251
3024.823	8086
3026.646	8067
3028.469	8086
3030.289	7915
3032.11	7950
3033.93	7852
3035.749	7948
3037.57	8057
3039.39	7885
3041.207	7729
3043.026	7904
3044.842	7919
3046.661	8026
3048.477	7847
3050.294	7857
3052.109	7771
3053.925	7933
3055.739	7859
3057.555	7938
3059.368	7787
3061.181	7828
3062.995	7907
3064.807	7914
3066.62	7875
3068.433	7878
3070.243	7931
3072.054	7895
3073.865	7925
3075.675	7742
3077.485	7650
3079.293	7756
3081.102	7731
3082.911	7774
3084.719	7607
3086.527	7733
3088.333	7635
3090.139	7671
3091.945	7536
3093.75	7729
3095.557	7650
3097.361	7688
3099.165	7691
3100.969	7602
3102.772	7578
3104.575	7596
3106.379	7586
3108.181	7504
3109.982	7598
3111.783	7449
3113.584	7700
3115.386	7404
3117.186	7606
3118.985	7535
3120.783	7592
3122.582	7616
3124.381	7475
3126.179	7545
3127.975	7384
3129.772	7557
3131.569	7447
3133.365	7575
3135.161	7524
3136.956	7533
3138.751	7483
3140.544	7393
3142.338	7520
3144.132	7489
3145.925	7387
3147.717	7356
3149.509	7389
3151.301	7415
3153.091	7395
3154.884	7446
3156.673	7379
3158.462	7389
3160.252	7300
3162.041	7333
3163.831	7418
3165.618	7298
3167.405	7276
3169.193	7295
3170.979	7283
3172.767	7239
3174.553	7363
3176.338	7286
3178.123	7382
3179.907	7234
3181.692	7232
3183.477	7235
3185.259	7278
3187.042	7105
3188.824	7325
3190.607	7239
3192.389	7252
3194.17	7402
3195.951	7248
3197.73	7191
3199.51	7273
3201.289	7207
3203.07	7204
3204.848	7294
3206.626	7120
3208.403	7182
3210.18	7104
3211.959	7216
3213.735	7212
3215.511	7193
3217.285	7291
3219.06	7287
3220.836	7218
3222.611	7180
3224.384	7312
3226.158	7212
3227.929	7329
3229.702	7190
3231.476	7209
3233.248	7096
3235.018	7151
3236.789	7090
3238.56	7196
3240.33	7092
3242.1	7276
3243.869	7162
3245.637	7174
3247.405	7127
3249.172	7261
3250.941	7178
3252.707	7085
3254.474	7051
3256.24	7079
3258.006	7240
3259.772	7149
3261.537	7103
3263.301	7215
3265.065	7259
3266.828	7130
3268.592	7128
3270.355	7081
3272.117	7019
3273.878	7031
3275.64	7112
3277.401	7123
3279.162	7103
3280.922	7115
3282.682	7062
3284.441	7185
3286.199	7158
3287.959	7112
3289.716	7044
3291.475	7173
3293.232	6997
3294.988	7150
3296.744	7127
3298.501	7076
3300.256	7142
3302.011	7090
3303.766	7182
3305.52	7201
3307.275	6950
3309.028	7029
3310.781	7168
3312.533	7129
3314.285	7072
3316.038	7072
3317.789	7107
3319.54	6987
3321.289	7157
3323.039	7035
3324.789	7088
3326.539	7139
3328.288	7131
3330.035	7058
3331.783	7063
3333.531	7056
3335.28	6929
3337.025	7051
3338.771	6929
3340.518	6983
3342.262	6928
3344.009	7028
3345.753	6998
3347.497	6806
3349.24	6966
3350.983	6933
3352.726	6869
3354.469	6999
3356.212	7023
3357.952	6820
3359.694	7033
3361.434	6945
3363.176	6828
3364.916	6784
3366.654	6876
3368.394	6937
3370.132	6781
3371.871	6836
3373.61	6779
3375.346	6846
3377.083	6872
3378.82	6817
3380.556	6859
3382.292	6684
3384.027	6765
3385.763	6795
3387.497	6738
3389.231	6787
3390.965	6767
3392.698	6814
3394.431	6701
3396.164	6743
3397.896	6640
3399.627	6780
3401.36	6758
3403.09	6829
3404.82	6698
3406.55	6843
3408.279	6600
3410.01	6748
3411.738	6704
3413.467	6656
3415.194	6641
3416.92	6699
3418.647	6718
3420.375	6627
3422.102	6678
3423.827	6637
3425.553	6717
3427.277	6701
3429.003	6655
3430.727	6617
3432.451	6668
3434.173	6558
3435.896	6604
3437.62	6561
3439.343	6720
3441.063	6600
3442.785	6554
3444.505	6574
3446.226	6619
3447.948	6556
3449.666	6603
3451.386	6598
3453.104	6524
3454.823	6582
3456.541	6638
3458.259	6529
3459.976	6416
3461.693	6499
3463.408	6476
3465.125	6549
3466.841	6392
3468.556	6453
3470.271	6438
3471.985	6390
3473.698	6328
3475.414	6466
3477.126	6305
3478.838	6292
3480.55	6358
3482.263	6324
3483.975	6325
3485.686	6407
3487.396	6360
3489.106	6377
3490.817	6395
3492.526	6351
3494.236	6292
3495.944	6174
3497.652	6346
3499.359	6226
3501.066	6294
3502.775	6362
3504.481	6367
3506.187	6339
3507.893	6242
3509.598	6136
3511.304	6238
3513.009	6246
3514.713	6286
3516.417	6231
3518.12	6138
3519.821	6221
3521.525	6152
3523.228	6181
3524.929	6226
3526.631	6160
3528.33	6227
3530.032	6217
3531.733	6162
3533.433	6109
3535.131	6183
3536.83	6159
3538.529	6090
3540.227	6090
3541.925	6008
3543.623	6060
3545.319	6227
3547.016	6119
3548.712	6111
3550.408	6087
3552.103	6115
3553.798	6013
3555.491	5979
3557.188	5940
3558.88	6086
3560.574	6049
3562.266	6013
3563.959	5924
3565.651	5979
3567.343	5990
3569.035	5985
3570.725	6050
3572.415	5908
3574.106	6040
3575.797	6056
3577.485	6044
3579.174	5849
3580.863	5921
3582.551	5942
3584.238	5964
3585.926	5908
3587.613	5930
3589.3	5937
3590.986	5842
3592.671	5916
3594.357	5931
3596.042	5847
3597.726	5775
3599.41	5869
3601.094	5845
3602.778	5942
3604.461	5754
3606.143	5807
3607.825	5834
3609.507	5796
3611.188	5676
3612.87	5774
3614.551	5789
3616.229	5754
3617.909	5789
3619.589	5748
3621.269	5693
3622.948	5711
3624.625	5718
3626.302	5699
3627.98	5727
3629.657	5779
3631.334	5711
3633.01	5780
3634.686	5631
3636.361	5637
3638.036	5597
3639.712	5779
3641.385	5712
3643.06	5583
3644.732	5664
3646.405	5587
3648.08	5575
3649.751	5694
3651.424	5625
3653.094	5568
3654.766	5624
3656.436	5510
3658.106	5685
3659.777	5524
3661.446	5660
3663.115	5552
3664.783	5545
3666.452	5521
3668.121	5451
3669.788	5499
3671.454	5622
3673.121	5505
3674.789	5364
3676.455	5447
3678.12	5498
3679.784	5549
3681.45	5512
3683.114	5558
3684.779	5480
3686.442	5486
3688.105	5424
3689.768	5407
3691.43	5568
3693.093	5431
3694.754	5455
3696.415	5335
3698.076	5418
3699.736	5409
3701.396	5394
3703.057	5458
3704.716	5445
3706.375	5388
3708.034	5410
3709.692	5364
3711.351	5392
3713.008	5403
3714.665	5468
3716.321	5370
3717.977	5353
3719.634	5477
3721.29	5336
3722.945	5372
3724.598	5324
3726.253	5409
3727.907	5332
3729.561	5316
3731.214	5298
3732.867	5255
3734.518	5434
3736.171	5251
3737.824	5308
3739.474	5349
3741.125	5451
3742.775	5329
3744.425	5246
3746.074	5288
3747.725	5252
3749.373	5191
3751.022	5327
3752.669	5320
3754.318	5270
3755.966	5309
3757.612	5273
3759.259	5192
3760.905	5196
3762.55	5223
3764.197	5297
3765.842	5174
3767.486	5308
3769.131	5218
3770.774	5223
3772.417	5191
3774.061	5173
3775.705	5141
3777.347	5160
3778.988	5214
3780.629	5171
3782.271	5125
3783.912	5135
3785.552	5129
3787.192	5182
3788.831	5114
3790.472	5218
3792.112	5068
3793.75	5118
3795.388	5106
3797.024	5151
3798.661	5091
3800.3	5127
3801.936	5127
3803.572	5080
3805.208	5080
3806.844	5087
3808.48	5098
3810.115	5047
3811.748	5094
3813.382	5102
3815.016	5110
3816.649	4932
3818.283	5114
3819.914	5087
3821.547	4995
3823.178	5040
3824.809	4915
3826.441	5033
3828.072	5029
3829.701	5091
3831.331	5004
3832.96	4998
3834.591	5011
3836.219	5010
3837.847	4954
3839.475	4990
3841.102	5050
3842.729	5027
3844.357	5007
3845.984	4972
3847.609	4890
3849.234	4944
3850.86	4935
3852.485	4954
3854.11	4954
3855.734	4880
3857.357	4964
3858.981	4918
3860.603	4915
3862.227	4857
3863.848	4888
3865.471	4907
3867.092	4832
3868.713	4927
3870.334	4878
3871.954	4877
3873.575	4825
3875.194	4857
3876.813	4819
3878.433	4830
3880.051	4776
3881.669	4721
3883.286	4841
3884.904	4870
3886.52	4782
3888.138	4870
3889.754	4806
3891.37	4923
3892.985	4803
3894.6	4801
3896.216	4806
3897.831	4728
3899.444	4827
3901.058	4791
3902.67	4778
3904.283	4825
3905.897	4814
3907.509	4825
3909.121	4687
3910.731	4748
3912.342	4854
3913.954	4709
3915.563	4831
3917.174	4797
3918.783	4784
3920.391	4779
3922.002	4711
3923.611	4889
3925.218	4710
3926.826	4800
3928.432	4618
3930.039	4720
3931.647	4738
3933.253	4744
3934.859	4704
3936.464	4723
3938.068	4711
3939.675	4716
3941.278	4697
3942.883	4729
3944.486	4649
3946.089	4666
3947.692	4544
3949.295	4653
3950.898	4643
3952.499	4681
3954.1	4680
3955.7	4661
3957.303	4590
3958.903	4656
3960.502	4654
3962.101	4712
3963.7	4605
3965.301	4655
3966.899	4614
3968.497	4484
3970.094	4628
3971.691	4560
3973.288	4518
3974.885	4514
3976.481	4576
3978.077	4642
3979.672	4542
3981.267	4518
3982.863	4531
3984.457	4515
3986.051	4577
3987.645	4578
3989.238	4588
3990.831	4573
3992.425	4533
3994.017	4519
3995.607	4551
3997.199	4438
3998.79	4505
4000.382	4436
4001.973	4575
4003.561	4419
4005.151	4468
4006.741	4429
4008.331	4380
4009.918	4424
4011.507	4453
4013.095	4397
4014.681	4438
4016.269	4416
4017.856	4428
4019.443	4424
4021.028	4353
4022.614	4370
4024.199	4385
4025.785	4352
4027.37	4386
4028.953	4374
4030.536	4320
4032.12	4398
4033.704	4306
4035.287	4285
4036.869	4387
4038.45	4343
4040.032	4348
4041.613	4273
4043.195	4318
4044.776	4303
4046.356	4256
4047.935	4275
4049.515	4305
4051.095	4250
4052.674	4287
4054.251	4340
4055.829	4300
4057.406	4316
4058.985	4256
4060.562	4297
4062.139	4229
4063.715	4270
4065.29	4281
4066.865	4166
4068.442	4203
4070.016	4249
4071.59	4254
4073.164	4161
4074.738	4239
4076.312	4223
4077.885	4175
4079.458	4204
4081.03	4209
4082.602	4250
4084.173	4212
4085.745	4291
4087.315	4149
4088.886	4147
4090.456	4188
4092.026	4189
4093.596	4215
4095.165	4154
4096.734	4267
4098.301	4216
4099.869	4194
4101.437	4259
4103.006	4125
4104.572	4102
4106.139	4249
4107.704	4182
4109.27	4122
4110.837	4126
4112.401	4139
4113.966	4074
4115.53	4186
4117.094	4124
4118.659	4065
4120.223	4145
4121.785	4141
4123.347	4091
4124.909	4012
4126.471	4059
4128.034	4005
4129.595	4103
4131.155	4011
4132.716	4028
4134.275	4026
4135.836	4051
4137.395	4020
4138.955	4034
4140.513	3930
4142.071	4000
4143.628	4021
4145.188	4034
4146.745	3978
4148.302	4020
4149.858	3969
4151.414	4008
4152.971	3992
4154.526	3945
4156.081	4044
4157.635	3993
4159.189	3918
4160.745	3917
4162.298	3959
4163.852	3991
4165.405	3964
4166.957	3918
4168.51	3981
4170.063	4010
4171.614	3852
4173.166	3946
4174.717	3893
4176.267	3947
4177.817	3947
4179.368	3927
4180.917	3925
4182.466	3923
4184.016	3891
4185.564	3880
4187.112	3950
4188.66	3854
4190.207	3840
4191.754	3839
4193.301	3874
4194.848	3839
4196.394	3897
4197.94	3777
4199.484	3859
4201.03	3732
4202.575	3891
4204.12	3902
4205.663	3808
4207.207	3773
4208.75	3826
4210.292	3828
4211.836	3882
4213.378	3785
4214.92	3738
4216.46	3806
4218.002	3796
4219.544	3789
4221.083	3761
4222.625	3743
4224.164	3773
4225.703	3829
4227.244	3805
4228.782	3780
4230.32	3794
4231.857	3779
4233.395	3785
4234.933	3738
4236.471	3732
4238.007	3764
4239.542	3718
4241.078	3684
4242.614	3820
4244.15	3706
4245.685	3720
4247.219	3666
4248.753	3779
4250.287	3722
4251.82	3702
4253.354	3775
4254.887	3668
4256.419	3662
4257.951	3636
4259.483	3681
4261.016	3756
4262.547	3664
4264.078	3717
4265.608	3624
4267.137	3726
4268.668	3649
4270.197	3695
4271.727	3652
4273.254	3715
4274.783	3730
4276.311	3604
4277.84	3657
4279.366	3659
4280.894	3598
4282.42	3656
4283.946	3659
4285.473	3608
4286.998	3705
4288.523	3632
4290.047	3647
4291.572	3562
4293.096	3604
4294.622	3676
4296.144	3624
4297.668	3528
4299.19	3684
4300.713	3580
4302.236	3508
4303.758	3643
4305.279	3493
4306.799	3534
4308.321	3621
4309.842	3569
4311.361	3582
4312.882	3533
4314.401	3489
