400.0961	3472
402.6185	3485
405.1424	3482
407.6635	3514
410.1838	3491
412.7035	3401
415.2225	3536
417.7388	3606
420.2585	3690
422.7754	3647
425.2917	3759
427.8072	3664
430.3221	3800
432.8363	3788
435.3498	3730
437.8626	3772
440.3727	3829
442.8841	3735
445.3969	3749
447.907	3682
450.4142	3735
452.9229	3778
455.4289	3725
457.9362	3689
460.4449	3735
462.9488	3763
465.454	3689
467.9566	3631
470.4604	3678
472.9637	3687
475.4662	3719
477.966	3686
480.4671	3597
482.9656	3719
485.4633	3680
487.9645	3725
490.4608	3723
492.9566	3720
495.4536	3702
497.948	3733
500.4437	3714
502.9387	3715
505.431	3798
507.9226	3743
510.4136	3767
512.9079	3750
515.3975	3849
517.8864	3843
520.3746	3759
522.8622	3714
525.3491	3830
527.8394	3854
530.3249	3745
532.8098	3763
535.2939	3855
537.7774	3951
540.2623	3847
542.7444	3859
545.2259	3823
547.7067	3837
550.1868	3823
552.6683	3890
555.147	3789
557.6231	3867
560.1005	3807
562.5773	3902
565.0534	3855
567.5308	3893
570.0056	3905
572.4776	3928
574.951	3919
577.4237	3896
579.8978	4081
582.3671	3931
584.8378	3955
587.3079	4018
589.7773	3987
592.244	4014
594.714	4084
597.1793	4043
599.6461	3965
602.1121	3941
604.5754	3970
607.0421	3938
609.5042	3904
611.9675	3911
614.4282	3934
616.8902	3944
619.3515	3820
621.8122	3950
624.2702	3894
626.7296	3907
629.1863	3842
631.6423	3830
634.1017	3943
636.5563	3985
639.0104	3895
641.4658	3927
643.9185	3957
646.3725	3915
648.8239	3856
651.2766	3915
653.7266	3923
656.176	3942
658.6247	3908
661.0748	3902
663.5242	3977
665.9709	4039
668.417	3963
670.8624	3945
673.3092	4017
675.7533	4042
678.1968	4004
680.6395	4040
683.0817	3996
685.5251	4051
687.9659	4028
690.4061	4068
692.8456	4055
695.2844	4054
697.7226	4013
700.1621	4062
702.599	4046
705.0332	4108
707.4688	4115
709.9036	4057
712.3399	4051
714.7735	4064
717.2044	4118
719.6367	4150
722.0683	4121
724.4993	4104
726.9296	4088
729.3593	4148
731.7883	4118
734.2147	4162
736.6423	4206
739.0714	4260
741.4958	4226
743.9216	4295
746.3447	4225
748.7691	4229
751.1929	4183
753.616	4188
756.0366	4355
758.4584	4235
760.8776	4315
763.2982	4355
765.718	4299
768.1373	4247
770.5539	4282
772.9698	4360
775.3871	4293
777.8038	4379
780.2178	4391
782.6332	4390
785.0459	4388
787.458	4285
789.8714	4236
792.2842	4306
794.6943	4233
797.1038	4332
799.5127	4177
801.9209	4342
804.3324	4340
806.7393	4416
809.1456	4365
811.5513	4321
813.9562	4395
816.3625	4399
818.7663	4411
821.1693	4372
823.5718	4422
825.9735	4351
828.3746	4404
830.7771	4335
833.177	4370
835.5762	4431
837.9747	4357
840.3727	4361
842.772	4456
845.1666	4517
847.5626	4487
849.958	4431
852.3527	4602
854.7488	4534
857.1403	4523
859.5331	4571
861.9253	4484
864.3168	4544
866.7057	4517
869.098	4541
871.4876	4493
873.8746	4536
876.263	4520
878.6487	4530
881.0378	4436
883.4243	4424
885.8081	4524
888.1933	4537
890.5759	4502
892.9598	4422
895.343	4389
897.7256	4554
900.1057	4440
902.4871	4565
904.8659	4622
907.246	4579
909.6254	4503
912.0023	4606
914.3786	4551
916.7562	4766
919.1331	4708
921.5074	4813
923.8831	4789
926.2562	4783
928.6287	4799
931.0005	4799
933.3757	4759
935.7462	4852
938.1162	4780
940.4855	4880
942.8542	4918
945.2242	4901
947.5916	5019
949.9584	5172
952.3266	5433
954.6921	5583
957.0571	5822
959.4233	6113
961.787	6168
964.15	6021
966.5125	5806
968.8742	5587
971.2354	5237
973.5959	5090
975.9559	4946
978.3151	4763
980.6738	4758
983.0338	4773
985.3912	4725
987.7461	4766
990.1022	4620
992.4578	4698
994.8127	4584
997.1689	4687
999.5207	4671
1001.874	4742
1004.226	4751
1006.576	4680
1008.929	4579
1011.28	4672
1013.628	4692
1015.977	4714
1018.324	4679
1020.674	4722
1023.019	4769
1025.366	4799
1027.713	4754
1030.056	4746
1032.399	4755
1034.746	4808
1037.087	4789
1039.431	4870
1041.771	4711
1044.113	4883
1046.454	4804
1048.793	4778
1051.133	4840
1053.471	4759
1055.807	4700
1058.146	4840
1060.483	4777
1062.818	4821
1065.153	4805
1067.489	4869
1069.822	4784
1072.156	4972
1074.488	4862
1076.82	4897
1079.15	4968
1081.48	4903
1083.814	4923
1086.143	4839
1088.471	4797
1090.799	4727
1093.126	4728
1095.452	4729
1097.78	4803
1100.105	4778
1102.43	4757
1104.754	4760
1107.077	4754
1109.4	4713
1111.722	4745
1114.044	4769
1116.365	4865
1118.685	4738
1121.005	4706
1123.324	4801
1125.643	4804
1127.961	4775
1130.278	4795
1132.595	4715
1134.911	4723
1137.226	4702
1139.541	4699
1141.854	4721
1144.167	4736
1146.482	4811
1148.793	4855
1151.105	4705
1153.414	4715
1155.725	4751
1158.033	4704
1160.344	4787
1162.651	4828
1164.959	4734
1167.265	4808
1169.572	4743
1171.878	4738
1174.184	4807
1176.488	4796
1178.79	4692
1181.094	4788
1183.396	4821
1185.699	4741
1188.001	4678
1190.301	4735
1192.6	4812
1194.9	4786
1197.2	4717
1199.497	4752
1201.794	4819
1204.09	4796
1206.387	4761
1208.684	4783
1210.978	4804
1213.272	4864
1215.565	4750
1217.858	4870
1220.15	4869
1222.443	4795
1224.734	4917
1227.024	4908
1229.313	4898
1231.602	4983
1233.892	4907
1236.18	4954
1238.467	4915
1240.754	4983
1243.04	4968
1245.325	5035
1247.612	5057
1249.896	5087
1252.178	5114
1254.461	5032
1256.743	5064
1259.027	5024
1261.308	5017
1263.587	5022
1265.867	5098
1268.146	5132
1270.425	5010
1272.703	5115
1274.981	5102
1277.256	4973
1279.532	5072
1281.808	5038
1284.083	4929
1286.358	4964
1288.63	5010
1290.904	4958
1293.175	4954
1295.449	4997
1297.719	4900
1299.99	4894
1302.259	5005
1304.529	4944
1306.798	4948
1309.065	4932
1311.333	4981
1313.599	4916
1315.866	4952
1318.131	4967
1320.396	4948
1322.66	4867
1324.925	4893
1327.187	4984
1329.448	5052
1331.711	4947
1333.974	5031
1336.234	4894
1338.493	4943
1340.752	4883
1343.01	4978
1345.269	5000
1347.526	4924
1349.784	4898
1352.04	4908
1354.295	4968
1356.552	4970
1358.806	4956
1361.059	4931
1363.312	4906
1365.564	4964
1367.818	4908
1370.069	4922
1372.318	4973
1374.568	4935
1376.817	5006
1379.066	5005
1381.316	5052
1383.564	4873
1385.809	4962
1388.056	5073
1390.301	5111
1392.549	5029
1394.793	5101
1397.036	5184
1399.279	5204
1401.522	5232
1403.763	5174
1406.007	5085
1408.248	5195
1410.487	5165
1412.727	5121
1414.965	5104
1417.205	5110
1419.442	5079
1421.68	5270
1423.915	5189
1426.152	5156
1428.388	5193
1430.623	5141
1432.857	5142
1435.091	5210
1437.323	5245
1439.556	5167
1441.789	5241
1444.019	5354
1446.25	5370
1448.48	5207
1450.708	5234
1452.938	5310
1455.167	5284
1457.394	5287
1459.62	5422
1461.846	5256
1464.073	5236
1466.299	5246
1468.523	5200
1470.746	5156
1472.969	5187
1475.191	5009
1477.415	5016
1479.636	4974
1481.858	4956
1484.078	5045
1486.298	4971
1488.518	5033
1490.736	4976
1492.954	4925
1495.169	5003
1497.386	4932
1499.602	4963
1501.819	4922
1504.034	4931
1506.248	4985
1508.462	4950
1510.675	4921
1512.888	4838
1515.1	4892
1517.311	4836
1519.522	4983
1521.732	4896
1523.942	4969
1526.151	4917
1528.36	4938
1530.566	4981
1532.773	4961
1534.98	4932
1537.187	4908
1539.392	4929
1541.596	4951
1543.801	4841
1546.005	4980
1548.208	4907
1550.411	5052
1552.612	4953
1554.814	5012
1557.013	5019
1559.212	5081
1561.414	5017
1563.612	4984
1565.811	5071
1568.007	4965
1570.203	5089
1572.403	5029
1574.598	5089
1576.792	5044
1578.988	5043
1581.181	4967
1583.376	5117
1585.568	5095
1587.761	5007
1589.952	5095
1592.143	5070
1594.333	5138
1596.524	5102
1598.715	5185
1600.903	5033
1603.091	5130
1605.278	5195
1607.466	5060
1609.652	5130
1611.838	5136
1614.023	5056
1616.207	5036
1618.391	5120
1620.576	5085
1622.759	5222
1624.941	5072
1627.123	5188
1629.304	5185
1631.484	5187
1633.664	5198
1635.844	5321
1638.022	5193
1640.201	5271
1642.38	5185
1644.556	5264
1646.732	5215
1648.908	5095
1651.084	5276
1653.257	5254
1655.433	5215
1657.607	5310
1659.779	5353
1661.951	5316
1664.122	5231
1666.295	5368
1668.467	5335
1670.635	5364
1672.805	5362
1674.973	5372
1677.142	5303
1679.31	5309
1681.478	5258
1683.644	5265
1685.81	5350
1687.975	5269
1690.142	5351
1692.305	5211
1694.468	5123
1696.632	5175
1698.794	5206
1700.957	5171
1703.119	5204
1705.279	5133
1707.439	5177
1709.598	5087
1711.758	5034
1713.917	5155
1716.075	5157
1718.231	5024
1720.388	5105
1722.543	4988
1724.702	5078
1726.856	5062
1729.01	5102
1731.164	5044
1733.317	5086
1735.471	5072
1737.623	5065
1739.774	5099
1741.925	5087
1744.075	5049
1746.225	5057
1748.376	5125
1750.524	5099
1752.672	5124
1754.82	5103
1756.965	5111
1759.113	5121
1761.259	5113
1763.405	5154
1765.549	5090
1767.694	5139
1769.836	5083
1771.981	5093
1774.123	5160
1776.264	5021
1778.405	5122
1780.546	5192
1782.687	5105
1784.827	5117
1786.966	5132
1789.103	5138
1791.242	5186
1793.381	5156
1795.517	5167
1797.653	5098
1799.788	5169
1801.923	5249
1804.057	5145
1806.193	5015
1808.326	5235
1810.457	5099
1812.59	5096
1814.721	5056
1816.855	5132
1818.984	5100
1821.113	5113
1823.244	5164
1825.372	5087
1827.499	5227
1829.63	5178
1831.756	5125
1833.882	5064
1836.007	5047
1838.132	5137
1840.26	5127
1842.384	5188
1844.507	5043
1846.63	5156
1848.752	5124
1850.875	5132
1852.996	5065
1855.118	5087
1857.238	5106
1859.358	5077
1861.477	5019
1863.597	5063
1865.715	5022
1867.832	5062
1869.948	5001
1872.064	5072
1874.181	5088
1876.297	5095
1878.411	5180
1880.526	5115
1882.639	5104
1884.752	5139
1886.865	5118
1888.977	5097
1891.089	5161
1893.2	5010
1895.308	5161
1897.42	5111
1899.53	4999
1901.639	5189
1903.745	5069
1905.853	5183
1907.962	5118
1910.067	5119
1912.174	5123
1914.278	5201
1916.383	5097
1918.486	5200
1920.592	5154
1922.694	5223
1924.797	5158
1926.898	5186
1929	5264
1931.102	5142
1933.203	5170
1935.301	5159
1937.401	5250
1939.499	5092
1941.598	5138
1943.697	5143
1945.793	5155
1947.888	5131
1949.985	5190
1952.08	5128
1954.176	5142
1956.269	5230
1958.364	5226
1960.457	5212
1962.549	5161
1964.642	5112
1966.733	5268
1968.823	5190
1970.913	5213
1973.005	5177
1975.093	5181
1977.184	5231
1979.271	5165
1981.359	5249
1983.446	5104
1985.532	5081
1987.619	5189
1989.705	5103
1991.789	5093
1993.874	5068
1995.956	5095
1998.041	5149
2000.123	5034
2002.206	5176
2004.287	5205
2006.368	5095
2008.449	5027
2010.529	5069
2012.609	5080
2014.688	5111
2016.766	5068
2018.843	5051
2020.922	5077
2022.999	5014
2025.074	5165
2027.15	5130
2029.225	5118
2031.299	5234
2033.375	5128
2035.447	5226
2037.52	5049
2039.592	5113
2041.664	5111
2043.736	5056
2045.807	5045
2047.876	5121
2049.947	5145
2052.015	5182
2054.086	5091
2056.153	5114
2058.221	5148
2060.288	5097
2062.353	5068
2064.42	5148
2066.486	5115
2068.55	5140
2070.614	5058
2072.678	5155
2074.741	5086
2076.805	5207
2078.866	5200
2080.929	5130
2082.99	5139
2085.049	5139
2087.109	5194
2089.17	5091
2091.228	5141
2093.286	5163
2095.344	5137
2097.4	5070
2099.46	5145
2101.516	5065
2103.572	5143
2105.626	5258
2107.679	5150
2109.735	5217
2111.788	5144
2113.841	5161
2115.894	5139
2117.945	5148
2119.997	5158
2122.049	5070
2124.1	5131
2126.148	5114
2128.197	5148
2130.246	5050
2132.296	5190
2134.342	5057
2136.39	5124
2138.437	5061
2140.483	5127
2142.527	5047
2144.574	5103
2146.619	5103
2148.661	5136
2150.705	5114
2152.747	5192
2154.792	5089
2156.832	5115
2158.874	5153
2160.915	5180
2162.954	5108
2164.995	5142
2167.034	5083
2169.072	5118
2171.111	5031
2173.148	4996
2175.186	5043
2177.223	4992
2179.258	5041
2181.294	5028
2183.328	5030
2185.362	5068
2187.398	5090
2189.431	5041
2191.463	5055
2193.495	5052
2195.528	5132
2197.56	5081
2199.59	4996
2201.62	5077
2203.649	5034
2205.678	5067
2207.708	4965
2209.737	5000
2211.764	4972
2213.791	5018
2215.817	5100
2217.843	5083
2219.87	4862
2221.895	4875
2223.919	4963
2225.942	5074
2227.966	5009
2229.988	5031
2232.012	4950
2234.032	5051
2236.054	5029
2238.074	4898
2240.095	4983
2242.116	4978
2244.135	4993
2246.153	4959
2248.171	5009
2250.188	5023
2252.208	4957
2254.223	5029
2256.239	5119
2258.255	5013
2260.269	5054
2262.283	5161
2264.3	4999
2266.312	5054
2268.325	5015
2270.336	4994
2272.349	5020
2274.362	5043
2276.372	4873
2278.383	4943
2280.392	5064
2282.402	5004
2284.409	4975
2286.418	4932
2288.427	5123
2290.433	4903
2292.441	5096
2294.446	4992
2296.453	5028
2298.459	4930
2300.463	4990
2302.466	4977
2304.471	4973
2306.475	5025
2308.477	5045
2310.478	4933
2312.481	4965
2314.481	4997
2316.481	4921
2318.482	4950
2320.482	4905
2322.48	4941
2324.48	4960
2326.478	4819
2328.476	4827
2330.473	4976
2332.469	4906
2334.465	5028
2336.46	4946
2338.454	4841
2340.45	4978
2342.444	4846
2344.437	4959
2346.43	4820
2348.421	4890
2350.414	4835
2352.405	4952
2354.396	4929
2356.386	4848
2358.376	4834
2360.366	4908
2362.355	4911
2364.343	4881
2366.331	4903
2368.317	4931
2370.304	4951
2372.292	4843
2374.278	4834
2376.262	4914
2378.247	4840
2380.23	4816
2382.216	4871
2384.199	4892
2386.181	4938
2388.163	4891
2390.144	4796
2392.127	4760
2394.107	4889
2396.087	4799
2398.066	4873
2400.046	4839
2402.023	4923
2404.004	4837
2405.981	4875
2407.957	4906
2409.934	4810
2411.91	4785
2413.886	4800
2415.862	4920
2417.836	4785
2419.809	4774
2421.784	4819
2423.756	4768
2425.73	4856
2427.701	4855
2429.672	4723
2431.644	4795
2433.615	4849
2435.586	4800
2437.555	4871
2439.523	4827
2441.491	4753
2443.459	4855
2445.428	4854
2447.395	4830
2449.361	4854
2451.327	4837
2453.292	4751
2455.257	4906
2457.223	4705
2459.187	4811
2461.15	4829
2463.113	4814
2465.076	4816
2467.039	4841
2468.999	4726
2470.96	4819
2472.921	4737
2474.881	4804
2476.841	4820
2478.8	4840
2480.759	4727
2482.717	4789
2484.675	4784
2486.63	4756
2488.589	4736
2490.545	4859
2492.5	4765
2494.455	4862
2496.408	4713
2498.364	4830
2500.318	4712
2502.27	4738
2504.223	4763
2506.174	4756
2508.126	4699
2510.078	4661
2512.03	4617
2513.979	4753
2515.927	4718
2517.877	4716
2519.826	4737
2521.775	4672
2523.722	4720
2525.668	4770
2527.616	4666
2529.561	4658
2531.508	4812
2533.452	4768
2535.398	4709
2537.342	4723
2539.284	4686
2541.229	4663
2543.173	4709
2545.114	4637
2547.055	4773
2548.996	4630
2550.938	4746
2552.878	4691
2554.817	4670
2556.756	4760
2558.695	4731
2560.633	4652
2562.572	4674
2564.509	4748
2566.445	4675
2568.382	4693
2570.317	4792
2572.254	4750
2574.189	4620
2576.123	4638
2578.057	4689
2579.99	4755
2581.923	4768
2583.855	4672
2585.788	4695
2587.719	4717
2589.65	4830
2591.579	4656
2593.511	4798
2595.44	4754
2597.37	4640
2599.297	4678
2601.225	4666
2603.153	4646
2605.08	4702
2607.007	4693
2608.932	4624
2610.858	4671
2612.782	4766
2614.709	4707
2616.632	4769
2618.556	4704
2620.478	4628
2622.401	4727
2624.324	4706
2626.247	4730
2628.167	4700
2630.088	4690
2632.008	4675
2633.928	4690
2635.848	4765
2637.766	4718
2639.684	4666
2641.603	4720
2643.519	4740
2645.437	4765
2647.353	4701
2649.27	4711
2651.184	4790
2653.099	4719
2655.014	4670
2656.928	4694
2658.842	4853
2660.755	4776
2662.667	4685
2664.579	4740
2666.491	4695
2668.402	4700
2670.312	4787
2672.222	4665
2674.132	4726
2676.042	4686
2677.951	4708
2679.859	4665
2681.766	4683
2683.674	4681
2685.582	4647
2687.488	4640
2689.392	4586
2691.298	4610
2693.202	4676
2695.107	4675
2697.012	4614
2698.914	4627
2700.817	4684
2702.72	4645
2704.622	4672
2706.524	4732
2708.425	4631
2710.326	4576
2712.225	4578
2714.125	4533
2716.024	4647
2717.923	4616
2719.822	4691
2721.719	4630
2723.616	4660
2725.512	4659
2727.41	4752
2729.305	4645
2731.201	4648
2733.095	4695
2734.99	4725
2736.884	4646
2738.778	4540
2740.67	4671
2742.562	4623
2744.455	4611
2746.346	4684
2748.238	4637
2750.129	4588
2752.018	4660
2753.907	4653
2755.797	4607
2757.687	4661
2759.575	4651
2761.462	4584
2763.349	4539
2765.237	4567
2767.124	4598
2769.009	4565
2770.894	4655
2772.779	4605
2774.663	4608
2776.547	4658
2778.431	4664
2780.314	4628
2782.197	4696
2784.078	4664
2785.96	4542
2787.842	4621
2789.723	4581
2791.603	4617
2793.483	4515
2795.362	4559
2797.241	4567
2799.121	4643
2800.997	4532
2802.874	4589
2804.751	4547
2806.628	4611
2808.506	4581
2810.38	4613
2812.255	4553
2814.13	4467
2816.003	4566
2817.878	4621
2819.752	4571
2821.623	4591
2823.496	4565
2825.368	4600
2827.238	4603
2829.111	4484
2830.98	4543
2832.851	4551
2834.719	4575
2836.589	4609
2838.458	4638
2840.327	4653
2842.193	4628
2844.061	4686
2845.927	4643
2847.794	4636
2849.66	4625
2851.525	4633
2853.39	4669
2855.254	4714
2857.117	4623
2858.983	4720
2860.845	4834
2862.707	4813
2864.569	4890
2866.431	4755
2868.293	4773
2870.154	4851
2872.013	4945
2873.873	4915
2875.733	4959
2877.592	5056
2879.451	5061
2881.309	5175
2883.166	5189
2885.022	5264
2886.879	5226
2888.736	5186
2890.591	5215
2892.446	5271
2894.301	5246
2896.155	5225
2898.009	5191
2899.863	5074
2901.716	4996
2903.568	5141
2905.419	5165
2907.27	5072
2909.123	5138
2910.973	5190
2912.824	5275
2914.673	5303
2916.521	5355
2918.372	5350
2920.22	5466
2922.067	5427
2923.914	5458
2925.761	5506
2927.607	5538
2929.455	5615
2931.301	5670
2933.144	5647
2934.99	5765
2936.833	5840
2938.678	5843
2940.522	5883
2942.364	5948
2944.207	6116
2946.048	6122
2947.891	6092
2949.731	6211
2951.571	6085
2953.412	6151
2955.25	5976
2957.09	5926
2958.93	5936
2960.767	5905
2962.606	5744
2964.443	5783
2966.279	5727
2968.116	5627
2969.953	5500
2971.788	5472
2973.623	5466
2975.457	5281
2977.292	5385
2979.127	5391
2980.959	5202
2982.792	5166
2984.624	5259
2986.455	5176
2988.288	5123
2990.119	5128
2991.949	5093
2993.779	5071
2995.608	5052
2997.439	5105
2999.268	4968
3001.096	4869
3002.923	4826
3004.751	4814
3006.578	4826
3008.406	4832
3010.232	4740
3012.057	4637
3013.883	4622
3015.706	4604
3017.532	4554
3019.356	4527
3021.179	4543
3023.002	4628
3024.823	4508
3026.646	4377
3028.469	4421
3030.289	4488
3032.11	4459
3033.93	4554
3035.749	4462
3037.57	4428
3039.39	4399
3041.207	4463
3043.026	4392
3044.842	4383
3046.661	4397
3048.477	4355
3050.294	4328
3052.109	4422
3053.925	4370
3055.739	4292
3057.555	4398
3059.368	4412
3061.181	4290
3062.995	4393
3064.807	4398
3066.62	4330
3068.433	4389
3070.243	4384
3072.054	4353
3073.865	4343
3075.675	4346
3077.485	4279
3079.293	4331
3081.102	4271
3082.911	4305
3084.719	4296
3086.527	4366
3088.333	4181
3090.139	4337
3091.945	4269
3093.75	4296
3095.557	4195
3097.361	4229
3099.165	4234
3100.969	4233
3102.772	4225
3104.575	4299
3106.379	4193
3108.181	4187
3109.982	4241
3111.783	4041
3113.584	4186
3115.386	4227
3117.186	4162
3118.985	4219
3120.783	4189
3122.582	4078
3124.381	4190
3126.179	4128
3127.975	4153
3129.772	4197
3131.569	4251
3133.365	4125
3135.161	4156
3136.956	4105
3138.751	4079
3140.544	4135
3142.338	4104
3144.132	4122
3145.925	4218
3147.717	4168
3149.509	4219
3151.301	4173
3153.091	4188
3154.884	4129
3156.673	4021
3158.462	4120
3160.252	4164
3162.041	4130
3163.831	4151
3165.618	4155
3167.405	4149
3169.193	4189
3170.979	4038
3172.767	4178
3174.553	4166
3176.338	4178
3178.123	4151
3179.907	4181
3181.692	4094
3183.477	4095
3185.259	4079
3187.042	4067
3188.824	4108
3190.607	4072
3192.389	4024
3194.17	4107
3195.951	4123
3197.73	4131
3199.51	4107
3201.289	4145
3203.07	4050
3204.848	4070
3206.626	4073
3208.403	4051
3210.18	4140
3211.959	4118
3213.735	4141
3215.511	3995
3217.285	4105
3219.06	4100
3220.836	4121
3222.611	4098
3224.384	4089
3226.158	4040
3227.929	3991
3229.702	4096
3231.476	4017
3233.248	4037
3235.018	4074
3236.789	4186
3238.56	4123
3240.33	4142
3242.1	4138
3243.869	4162
3245.637	4024
3247.405	4095
3249.172	4098
3250.941	4043
3252.707	4110
3254.474	4027
3256.24	4080
3258.006	4151
3259.772	4036
3261.537	4130
3263.301	4145
3265.065	4107
3266.828	4095
3268.592	4080
3270.355	4048
3272.117	4026
3273.878	4090
3275.64	4015
3277.401	4159
3279.162	4114
3280.922	4107
3282.682	4110
3284.441	4132
3286.199	4164
3287.959	4086
3289.716	4040
3291.475	4051
3293.232	4057
3294.988	4033
3296.744	4109
3298.501	4103
3300.256	4099
3302.011	4092
3303.766	4103
3305.52	4131
3307.275	4132
3309.028	4166
3310.781	4062
3312.533	4094
3314.285	4100
3316.038	4065
3317.789	4109
3319.54	4157
3321.289	4060
3323.039	4056
3324.789	4069
3326.539	4013
3328.288	4061
3330.035	4106
3331.783	4119
3333.531	4093
3335.28	4160
3337.025	4046
3338.771	4111
3340.518	4098
3342.262	4040
3344.009	4059
3345.753	4036
3347.497	3977
3349.24	4019
3350.983	4019
3352.726	4139
3354.469	4002
3356.212	4030
3357.952	3956
3359.694	3977
3361.434	3953
3363.176	3902
3364.916	3998
3366.654	3988
3368.394	4016
3370.132	3982
3371.871	4022
3373.61	3971
3375.346	4063
3377.083	3927
3378.82	4026
3380.556	3892
3382.292	3984
3384.027	4009
3385.763	4006
3387.497	3915
3389.231	3935
3390.965	3850
3392.698	3945
3394.431	3866
3396.164	3867
3397.896	3942
3399.627	3944
3401.36	3948
3403.09	4002
3404.82	3882
3406.55	3875
3408.279	3904
3410.01	3902
3411.738	3811
3413.467	3872
3415.194	3866
3416.92	3924
3418.647	3826
3420.375	3921
3422.102	3768
3423.827	3863
3425.553	3829
3427.277	3846
3429.003	3885
3430.727	3864
3432.451	3882
3434.173	3849
3435.896	3874
3437.62	3831
3439.343	3865
3441.063	3798
3442.785	3859
3444.505	3804
3446.226	3772
3447.948	3813
3449.666	3810
3451.386	3711
3453.104	3758
3454.823	3756
3456.541	3751
3458.259	3702
3459.976	3812
3461.693	3769
3463.408	3736
3465.125	3808
3466.841	3721
3468.556	3800
3470.271	3747
3471.985	3653
3473.698	3684
3475.414	3699
3477.126	3677
3478.838	3605
3480.55	3742
3482.263	3657
3483.975	3711
3485.686	3637
3487.396	3738
3489.106	3617
3490.817	3612
3492.526	3650
3494.236	3608
3495.944	3673
3497.652	3635
3499.359	3641
3501.066	3661
3502.775	3683
3504.481	3582
3506.187	3612
3507.893	3636
3509.598	3664
3511.304	3600
3513.009	3578
3514.713	3632
3516.417	3568
3518.12	3601
3519.821	3598
3521.525	3582
3523.228	3639
3524.929	3568
3526.631	3522
3528.33	3468
3530.032	3500
3531.733	3599
3533.433	3546
3535.131	3479
3536.83	3539
3538.529	3524
3540.227	3499
3541.925	3501
3543.623	3546
3545.319	3541
3547.016	3474
3548.712	3512
3550.408	3471
3552.103	3484
3553.798	3598
3555.491	3444
3557.188	3441
3558.88	3457
3560.574	3529
3562.266	3488
3563.959	3490
3565.651	3546
3567.343	3425
3569.035	3432
3570.725	3486
3572.415	3429
3574.106	3401
3575.797	3493
3577.485	3417
3579.174	3450
3580.863	3396
3582.551	3366
3584.238	3419
3585.926	3397
3587.613	3450
3589.3	3354
3590.986	3308
3592.671	3353
3594.357	3419
3596.042	3244
3597.726	3383
3599.41	3364
3601.094	3291
3602.778	3355
3604.461	3384
3606.143	3319
3607.825	3321
3609.507	3309
3611.188	3301
3612.87	3325
3614.551	3366
3616.229	3305
3617.909	3253
3619.589	3265
3621.269	3265
3622.948	3390
3624.625	3322
3626.302	3186
3627.98	3276
3629.657	3305
3631.334	3266
3633.01	3253
3634.686	3267
3636.361	3185
3638.036	3213
3639.712	3247
3641.385	3195
3643.06	3273
3644.732	3052
3646.405	3282
3648.08	3237
3649.751	3301
3651.424	3160
3653.094	3146
3654.766	3198
3656.436	3246
3658.106	3189
3659.777	3208
3661.446	3218
3663.115	3131
3664.783	3137
3666.452	3111
3668.121	3198
3669.788	3168
3671.454	3229
3673.121	3124
3674.789	3171
3676.455	3192
3678.12	3154
3679.784	3137
3681.45	3186
3683.114	3143
3684.779	3134
3686.442	3149
3688.105	3193
3689.768	3172
3691.43	3155
3693.093	3093
3694.754	3055
3696.415	3105
3698.076	3088
3699.736	3142
3701.396	3114
3703.057	3068
3704.716	3137
3706.375	3129
3708.034	3027
3709.692	3070
3711.351	3081
3713.008	3103
3714.665	3076
3716.321	3031
3717.977	3017
3719.634	3138
3721.29	3072
3722.945	3021
3724.598	3127
3726.253	3121
3727.907	3065
3729.561	3115
3731.214	3003
3732.867	3036
3734.518	3085
3736.171	2964
3737.824	3052
3739.474	3126
3741.125	3062
3742.775	3041
3744.425	3021
3746.074	3016
3747.725	3099
3749.373	3053
3751.022	3066
3752.669	3048
3754.318	3070
3755.966	3052
3757.612	3043
3759.259	3038
3760.905	3024
3762.55	3013
3764.197	2996
3765.842	3065
3767.486	3058
3769.131	3002
3770.774	3043
3772.417	2980
3774.061	2992
3775.705	2915
3777.347	2960
3778.988	2963
3780.629	2949
3782.271	3010
3783.912	2953
3785.552	2979
3787.192	2987
3788.831	2944
3790.472	2937
3792.112	2983
3793.75	2972
3795.388	2945
3797.024	2920
3798.661	2928
3800.3	2923
3801.936	2963
3803.572	2915
3805.208	2944
3806.844	2960
3808.48	2924
3810.115	2871
3811.748	2949
3813.382	2907
3815.016	2954
3816.649	2911
3818.283	2901
3819.914	2915
3821.547	2899
3823.178	2950
3824.809	2942
3826.441	2826
3828.072	2881
3829.701	2932
3831.331	2860
3832.96	2927
3834.591	2868
3836.219	2884
3837.847	2884
3839.475	2907
3841.102	2856
3842.729	2797
3844.357	2847
3845.984	2846
3847.609	2837
3849.234	2949
3850.86	2886
3852.485	2836
3854.11	2888
3855.734	2869
3857.357	2811
3858.981	2853
3860.603	2826
3862.227	2856
3863.848	2851
3865.471	2824
3867.092	2768
3868.713	2823
3870.334	2836
3871.954	2792
3873.575	2761
3875.194	2763
3876.813	2837
3878.433	2774
3880.051	2866
3881.669	2794
3883.286	2832
3884.904	2760
3886.52	2825
3888.138	2881
3889.754	2736
3891.37	2788
3892.985	2824
3894.6	2837
3896.216	2832
3897.831	2724
3899.444	2755
3901.058	2738
3902.67	2791
3904.283	2715
3905.897	2830
3907.509	2830
3909.121	2735
3910.731	2735
3912.342	2766
3913.954	2730
3915.563	2762
3917.174	2812
3918.783	2784
3920.391	2793
3922.002	2750
3923.611	2811
3925.218	2761
3926.826	2847
3928.432	2723
3930.039	2751
3931.647	2705
3933.253	2812
3934.859	2789
3936.464	2702
3938.068	2783
3939.675	2752
3941.278	2800
3942.883	2733
3944.486	2719
3946.089	2708
3947.692	2701
3949.295	2718
3950.898	2729
3952.499	2686
3954.1	2717
3955.7	2736
3957.303	2744
3958.903	2750
3960.502	2662
3962.101	2729
3963.7	2727
3965.301	2774
3966.899	2721
3968.497	2676
3970.094	2729
3971.691	2663
3973.288	2725
3974.885	2704
3976.481	2645
3978.077	2674
3979.672	2711
3981.267	2667
3982.863	2679
3984.457	2680
3986.051	2649
3987.645	2665
3989.238	2677
3990.831	2662
3992.425	2666
3994.017	2655
3995.607	2670
3997.199	2590
3998.79	2576
4000.382	2603
4001.973	2569
4003.561	2626
4005.151	2661
4006.741	2618
4008.331	2586
4009.918	2607
4011.507	2608
4013.095	2546
4014.681	2662
4016.269	2583
4017.856	2549
4019.443	2638
4021.028	2564
4022.614	2617
4024.199	2634
4025.785	2575
4027.37	2597
4028.953	2563
4030.536	2622
4032.12	2612
4033.704	2612
4035.287	2574
4036.869	2602
4038.45	2581
4040.032	2538
4041.613	2490
4043.195	2521
4044.776	2515
4046.356	2568
4047.935	2542
4049.515	2539
4051.095	2473
4052.674	2532
4054.251	2574
4055.829	2575
4057.406	2551
4058.985	2529
4060.562	2494
4062.139	2482
4063.715	2504
4065.29	2520
4066.865	2523
4068.442	2491
4070.016	2519
4071.59	2469
4073.164	2507
4074.738	2498
4076.312	2509
4077.885	2493
4079.458	2491
4081.03	2490
4082.602	2559
4084.173	2493
4085.745	2437
4087.315	2436
4088.886	2470
4090.456	2439
4092.026	2516
4093.596	2535
4095.165	2509
4096.734	2450
4098.301	2503
4099.869	2487
4101.437	2424
4103.006	2463
4104.572	2500
4106.139	2420
4107.704	2469
4109.27	2503
4110.837	2477
4112.401	2501
4113.966	2458
4115.53	2450
4117.094	2437
4118.659	2451
4120.223	2402
4121.785	2403
4123.347	2440
4124.909	2419
4126.471	2402
4128.034	2377
4129.595	2412
4131.155	2425
4132.716	2388
4134.275	2401
4135.836	2437
4137.395	2346
4138.955	2400
4140.513	2397
4142.071	2426
4143.628	2413
4145.188	2425
4146.745	2399
4148.302	2394
4149.858	2347
4151.414	2332
4152.971	2437
4154.526	2384
4156.081	2346
4157.635	2375
4159.189	2369
4160.745	2305
4162.298	2366
4163.852	2325
4165.405	2326
4166.957	2366
4168.51	2331
4170.063	2211
4171.614	2372
4173.166	2346
4174.717	2329
4176.267	2298
4177.817	2352
4179.368	2338
4180.917	2289
4182.466	2344
4184.016	2382
4185.564	2381
4187.112	2232
4188.66	2326
4190.207	2267
4191.754	2305
4193.301	2354
4194.848	2324
4196.394	2310
4197.94	2300
4199.484	2296
4201.03	2297
4202.575	2303
4204.12	2276
4205.663	2300
4207.207	2356
4208.75	2286
4210.292	2301
4211.836	2322
4213.378	2337
4214.92	2256
4216.46	2278
4218.002	2325
4219.544	2304
4221.083	2204
4222.625	2249
4224.164	2273
4225.703	2249
4227.244	2244
4228.782	2269
4230.32	2277
4231.857	2266
4233.395	2238
4234.933	2242
4236.471	2320
4238.007	2285
4239.542	2323
4241.078	2241
4242.614	2217
4244.15	2236
4245.685	2224
4247.219	2187
4248.753	2219
4250.287	2284
4251.82	2259
4253.354	2315
4254.887	2204
4256.419	2216
4257.951	2219
4259.483	2303
4261.016	2241
4262.547	2219
4264.078	2240
4265.608	2283
4267.137	2244
4268.668	2301
4270.197	2236
4271.727	2178
4273.254	2227
4274.783	2204
4276.311	2229
4277.84	2233
4279.366	2173
4280.894	2195
4282.42	2230
4283.946	2215
4285.473	2217
4286.998	2223
4288.523	2174
4290.047	2206
4291.572	2181
4293.096	2169
4294.622	2163
4296.144	2185
4297.668	2108
4299.19	2210
4300.713	2141
4302.236	2127
4303.758	2175
4305.279	2119
4306.799	2149
4308.321	2202
4309.842	2115
4311.361	2170
4312.882	2203
4314.401	2139
