400.0961	2644
402.6185	2615
405.1424	2559
407.6635	2606
410.1838	2639
412.7035	2612
415.2225	2603
417.7388	2618
420.2585	2695
422.7754	2765
425.2917	2727
427.8072	2761
430.3221	2776
432.8363	2793
435.3498	2771
437.8626	2737
440.3727	2770
442.8841	2789
445.3969	2805
447.907	2742
450.4142	2757
452.9229	2737
455.4289	2836
457.9362	2780
460.4449	2719
462.9488	2699
465.454	2733
467.9566	2789
470.4604	2741
472.9637	2814
475.4662	2787
477.966	2824
480.4671	2802
482.9656	2780
485.4633	2766
487.9645	2802
490.4608	2811
492.9566	2766
495.4536	2844
497.948	2828
500.4437	2812
502.9387	2763
505.431	2832
507.9226	2817
510.4136	2876
512.9079	2819
515.3975	2810
517.8864	2881
520.3746	2804
522.8622	2869
525.3491	2866
527.8394	2886
530.3249	2900
532.8098	2886
535.2939	2833
537.7774	2832
540.2623	2854
542.7444	2863
545.2259	2847
547.7067	2828
550.1868	2980
552.6683	2931
555.147	2801
557.6231	2910
560.1005	2895
562.5773	2899
565.0534	2891
567.5308	2934
570.0056	2918
572.4776	2895
574.951	2883
577.4237	2931
579.8978	2943
582.3671	2993
584.8378	2960
587.3079	2967
589.7773	2982
592.244	2955
594.714	2993
597.1793	2981
599.6461	2905
602.1121	3014
604.5754	3005
607.0421	2957
609.5042	2973
611.9675	2984
614.4282	2979
616.8902	2927
619.3515	2992
621.8122	2977
624.2702	2996
626.7296	2951
629.1863	2961
631.6423	2903
634.1017	2936
636.5563	2902
639.0104	2928
641.4658	2947
643.9185	3019
646.3725	3030
648.8239	2966
651.2766	3084
653.7266	2988
656.176	2994
658.6247	3005
661.0748	3004
663.5242	3039
665.9709	3014
668.417	2975
670.8624	2997
673.3092	3058
675.7533	3012
678.1968	3071
680.6395	2981
683.0817	3095
685.5251	3061
687.9659	3085
690.4061	3051
692.8456	3071
695.2844	2993
697.7226	3095
700.1621	3023
702.599	3123
705.0332	3040
707.4688	3046
709.9036	3022
712.3399	3073
714.7735	3163
717.2044	3034
719.6367	3075
722.0683	3113
724.4993	3135
726.9296	3170
729.3593	3148
731.7883	3131
734.2147	3221
736.6423	3191
739.0714	3170
741.4958	3207
743.9216	3173
746.3447	3241
748.7691	3138
751.1929	3181
753.616	3239
756.0366	3241
758.4584	3336
760.8776	3167
763.2982	3229
765.718	3307
768.1373	3139
770.5539	3229
772.9698	3257
775.3871	3254
777.8038	3218
780.2178	3218
782.6332	3278
785.0459	3224
787.458	3327
789.8714	3247
792.2842	3219
794.6943	3345
797.1038	3259
799.5127	3218
801.9209	3285
804.3324	3308
806.7393	3297
809.1456	3353
811.5513	3251
813.9562	3297
816.3625	3242
818.7663	3276
821.1693	3381
823.5718	3287
825.9735	3315
828.3746	3229
830.7771	3282
833.177	3366
835.5762	3270
837.9747	3258
840.3727	3347
842.772	3371
845.1666	3305
847.5626	3370
849.958	3411
852.3527	3342
854.7488	3414
857.1403	3390
859.5331	3353
861.9253	3324
864.3168	3307
866.7057	3320
869.098	3282
871.4876	3415
873.8746	3306
876.263	3369
878.6487	3398
881.0378	3349
883.4243	3352
885.8081	3376
888.1933	3350
890.5759	3384
892.9598	3352
895.343	3388
897.7256	3350
900.1057	3362
902.4871	3351
904.8659	3344
907.246	3382
909.6254	3406
912.0023	3454
914.3786	3350
916.7562	3445
919.1331	3506
921.5074	3409
923.8831	3485
926.2562	3491
928.6287	3451
931.0005	3439
933.3757	3534
935.7462	3515
938.1162	3552
940.4855	3529
942.8542	3575
945.2242	3605
947.5916	3745
949.9584	3725
952.3266	3904
954.6921	3981
957.0571	4109
959.4233	4256
961.787	4213
964.15	4205
966.5125	4129
968.8742	3915
971.2354	3866
973.5959	3683
975.9559	3687
978.3151	3547
980.6738	3613
983.0338	3501
985.3912	3482
987.7461	3462
990.1022	3504
992.4578	3419
994.8127	3504
997.1689	3500
999.5207	3487
1001.874	3482
1004.226	3574
1006.576	3435
1008.929	3501
1011.28	3465
1013.628	3510
1015.977	3577
1018.324	3471
1020.674	3463
1023.019	3569
1025.366	3556
1027.713	3479
1030.056	3561
1032.399	3545
1034.746	3582
1037.087	3574
1039.431	3518
1041.771	3527
1044.113	3508
1046.454	3552
1048.793	3568
1051.133	3540
1053.471	3531
1055.807	3604
1058.146	3626
1060.483	3582
1062.818	3571
1065.153	3574
1067.489	3650
1069.822	3616
1072.156	3639
1074.488	3610
1076.82	3671
1079.15	3620
1081.48	3664
1083.814	3642
1086.143	3658
1088.471	3526
1090.799	3685
1093.126	3563
1095.452	3582
1097.78	3630
1100.105	3531
1102.43	3624
1104.754	3572
1107.077	3568
1109.4	3585
1111.722	3590
1114.044	3599
1116.365	3667
1118.685	3603
1121.005	3586
1123.324	3664
1125.643	3579
1127.961	3636
1130.278	3578
1132.595	3508
1134.911	3631
1137.226	3632
1139.541	3576
1141.854	3595
1144.167	3691
1146.482	3658
1148.793	3545
1151.105	3608
1153.414	3562
1155.725	3552
1158.033	3579
1160.344	3629
1162.651	3619
1164.959	3646
1167.265	3584
1169.572	3614
1171.878	3573
1174.184	3601
1176.488	3588
1178.79	3641
1181.094	3617
1183.396	3580
1185.699	3642
1188.001	3585
1190.301	3595
1192.6	3596
1194.9	3672
1197.2	3580
1199.497	3678
1201.794	3550
1204.09	3646
1206.387	3735
1208.684	3571
1210.978	3610
1213.272	3689
1215.565	3678
1217.858	3710
1220.15	3647
1222.443	3666
1224.734	3583
1227.024	3692
1229.313	3701
1231.602	3697
1233.892	3648
1236.18	3740
1238.467	3660
1240.754	3728
1243.04	3770
1245.325	3708
1247.612	3732
1249.896	3757
1252.178	3760
1254.461	3693
1256.743	3686
1259.027	3753
1261.308	3773
1263.587	3822
1265.867	3735
1268.146	3738
1270.425	3798
1272.703	3731
1274.981	3679
1277.256	3763
1279.532	3710
1281.808	3740
1284.083	3694
1286.358	3784
1288.63	3839
1290.904	3735
1293.175	3663
1295.449	3666
1297.719	3666
1299.99	3749
1302.259	3772
1304.529	3697
1306.798	3743
1309.065	3687
1311.333	3685
1313.599	3714
1315.866	3751
1318.131	3705
1320.396	3706
1322.66	3826
1324.925	3726
1327.187	3669
1329.448	3739
1331.711	3728
1333.974	3704
1336.234	3770
1338.493	3709
1340.752	3716
1343.01	3668
1345.269	3705
1347.526	3716
1349.784	3783
1352.04	3676
1354.295	3684
1356.552	3766
1358.806	3681
1361.059	3821
1363.312	3681
1365.564	3706
1367.818	3704
1370.069	3737
1372.318	3746
1374.568	3836
1376.817	3767
1379.066	3784
1381.316	3738
1383.564	3775
1385.809	3762
1388.056	3803
1390.301	3819
1392.549	3806
1394.793	3880
1397.036	3762
1399.279	3815
1401.522	3802
1403.763	3754
1406.007	3784
1408.248	3844
1410.487	3768
1412.727	3846
1414.965	3810
1417.205	3870
1419.442	3780
1421.68	3736
1423.915	3782
1426.152	3780
1428.388	3876
1430.623	3844
1432.857	3833
1435.091	3862
1437.323	3885
1439.556	3828
1441.789	3943
1444.019	3842
1446.25	3922
1448.48	3854
1450.708	3911
1452.938	3928
1455.167	3909
1457.394	3948
1459.62	3925
1461.846	3860
1464.073	3927
1466.299	3881
1468.523	3848
1470.746	3893
1472.969	3857
1475.191	3922
1477.415	3862
1479.636	3746
1481.858	3850
1484.078	3765
1486.298	3755
1488.518	3774
1490.736	3836
1492.954	3771
1495.169	3766
1497.386	3754
1499.602	3826
1501.819	3744
1504.034	3735
1506.248	3726
1508.462	3697
1510.675	3673
1512.888	3784
1515.1	3798
1517.311	3690
1519.522	3782
1521.732	3769
1523.942	3806
1526.151	3804
1528.36	3736
1530.566	3749
1532.773	3840
1534.98	3708
1537.187	3803
1539.392	3865
1541.596	3723
1543.801	3805
1546.005	3786
1548.208	3799
1550.411	3862
1552.612	3815
1554.814	3858
1557.013	3846
1559.212	3805
1561.414	3845
1563.612	3941
1565.811	3828
1568.007	3816
1570.203	3915
1572.403	3863
1574.598	3910
1576.792	3898
1578.988	3847
1581.181	3884
1583.376	3866
1585.568	3836
1587.761	3914
1589.952	3922
1592.143	3919
1594.333	3919
1596.524	3939
1598.715	3843
1600.903	3865
1603.091	3864
1605.278	3845
1607.466	3871
1609.652	3899
1611.838	3829
1614.023	3895
1616.207	3902
1618.391	3879
1620.576	3909
1622.759	3817
1624.941	3919
1627.123	3992
1629.304	3889
1631.484	3944
1633.664	3935
1635.844	3882
1638.022	3962
1640.201	3903
1642.38	3844
1644.556	4001
1646.732	4032
1648.908	3932
1651.084	3947
1653.257	4001
1655.433	4016
1657.607	3918
1659.779	3964
1661.951	3912
1664.122	3908
1666.295	3884
1668.467	4017
1670.635	3974
1672.805	4034
1674.973	4046
1677.142	4014
1679.31	3917
1681.478	4017
1683.644	3963
1685.81	4070
1687.975	3971
1690.142	4004
1692.305	3861
1694.468	3966
1696.632	3936
1698.794	3974
1700.957	3851
1703.119	3880
1705.279	3978
1707.439	3908
1709.598	3887
1711.758	3927
1713.917	3895
1716.075	3871
1718.231	3846
1720.388	3911
1722.543	3931
1724.702	3839
1726.856	3896
1729.01	3861
1731.164	3963
1733.317	3839
1735.471	3945
1737.623	3866
1739.774	3941
1741.925	3866
1744.075	3884
1746.225	3943
1748.376	3903
1750.524	3936
1752.672	3869
1754.82	3986
1756.965	3960
1759.113	3969
1761.259	3957
1763.405	3980
1765.549	3989
1767.694	3845
1769.836	3928
1771.981	3977
1774.123	3958
1776.264	3955
1778.405	3977
1780.546	4007
1782.687	3950
1784.827	3914
1786.966	3834
1789.103	4038
1791.242	3970
1793.381	4002
1795.517	4036
1797.653	3979
1799.788	4004
1801.923	3937
1804.057	3926
1806.193	3959
1808.326	4024
1810.457	3975
1812.59	3929
1814.721	3899
1816.855	3898
1818.984	3941
1821.113	3910
1823.244	3926
1825.372	3910
1827.499	3901
1829.63	3864
1831.756	3918
1833.882	3956
1836.007	3957
1838.132	3901
1840.26	3967
1842.384	3968
1844.507	3902
1846.63	3932
1848.752	3888
1850.875	3988
1852.996	3975
1855.118	3844
1857.238	3890
1859.358	3956
1861.477	3887
1863.597	3939
1865.715	3902
1867.832	3873
1869.948	3963
1872.064	3913
1874.181	3846
1876.297	3934
1878.411	4014
1880.526	3863
1882.639	3919
1884.752	3972
1886.865	3864
1888.977	3868
1891.089	3928
1893.2	3948
1895.308	3904
1897.42	3930
1899.53	3982
1901.639	3930
1903.745	4036
1905.853	3941
1907.962	3912
1910.067	3999
1912.174	3965
1914.278	3979
1916.383	3978
1918.486	3983
1920.592	3964
1922.694	4031
1924.797	3999
1926.898	4009
1929	3875
1931.102	3960
1933.203	3972
1935.301	3977
1937.401	4034
1939.499	3982
1941.598	3920
1943.697	4069
1945.793	3987
1947.888	3967
1949.985	3982
1952.08	4020
1954.176	4001
1956.269	3988
1958.364	3967
1960.457	3984
1962.549	3942
1964.642	3966
1966.733	3961
1968.823	3931
1970.913	3959
1973.005	3928
1975.093	4026
1977.184	4039
1979.271	3903
1981.359	4030
1983.446	3918
1985.532	3908
1987.619	3986
1989.705	3899
1991.789	3921
1993.874	3903
1995.956	4026
1998.041	4006
2000.123	3958
2002.206	4024
2004.287	3921
2006.368	3948
2008.449	3966
2010.529	3897
2012.609	4020
2014.688	3916
2016.766	3890
2018.843	3956
2020.922	4015
2022.999	3892
2025.074	4028
2027.15	4047
2029.225	3904
2031.299	3979
2033.375	3981
2035.447	3996
2037.52	3935
2039.592	3975
2041.664	3963
2043.736	3919
2045.807	3880
2047.876	3954
2049.947	4008
2052.015	3957
2054.086	3970
2056.153	3963
2058.221	3960
2060.288	3917
2062.353	4023
2064.42	3878
2066.486	3989
2068.55	3953
2070.614	3920
2072.678	3952
2074.741	3967
2076.805	3957
2078.866	3988
2080.929	3867
2082.99	3952
2085.049	3944
2087.109	3883
2089.17	3981
2091.228	3937
2093.286	3932
2095.344	3923
2097.4	3986
2099.46	3817
2101.516	4014
2103.572	4008
2105.626	3991
2107.679	3962
2109.735	3982
2111.788	3933
2113.841	3963
2115.894	3986
2117.945	3981
2119.997	3982
2122.049	3955
2124.1	3926
2126.148	3961
2128.197	3992
2130.246	3926
2132.296	3916
2134.342	3996
2136.39	3905
2138.437	3918
2140.483	3914
2142.527	3969
2144.574	3970
2146.619	3972
2148.661	3964
2150.705	3920
2152.747	3941
2154.792	3892
2156.832	4003
2158.874	3944
2160.915	3989
2162.954	3955
2164.995	3943
2167.034	3910
2169.072	3974
2171.111	3931
2173.148	3923
2175.186	3936
2177.223	3828
2179.258	3937
2181.294	3930
2183.328	3930
2185.362	3934
2187.398	3782
2189.431	3853
2191.463	3944
2193.495	3899
2195.528	3938
2197.56	3906
2199.59	3871
2201.62	3808
2203.649	3904
2205.678	3876
2207.708	3934
2209.737	3908
2211.764	3953
2213.791	3828
2215.817	3914
2217.843	3823
2219.87	3844
2221.895	3888
2223.919	3844
2225.942	3835
2227.966	3822
2229.988	3840
2232.012	3851
2234.032	3880
2236.054	3848
2238.074	3826
2240.095	3898
2242.116	3896
2244.135	3850
2246.153	3891
2248.171	3856
2250.188	3932
2252.208	3814
2254.223	3848
2256.239	3991
2258.255	3806
2260.269	3797
2262.283	3772
2264.3	3803
2266.312	3843
2268.325	3894
2270.336	3958
2272.349	3799
2274.362	3829
2276.372	3868
2278.383	3812
2280.392	3800
2282.402	3893
2284.409	3864
2286.418	3895
2288.427	3898
2290.433	3843
2292.441	3842
2294.446	3828
2296.453	3900
2298.459	3894
2300.463	3812
2302.466	3877
2304.471	3797
2306.475	3885
2308.477	3837
2310.478	3831
2312.481	3904
2314.481	3856
2316.481	3966
2318.482	3802
2320.482	3870
2322.48	3884
2324.48	3801
2326.478	3823
2328.476	3865
2330.473	3829
2332.469	3752
2334.465	3810
2336.46	3813
2338.454	3823
2340.45	3793
2342.444	3847
2344.437	3810
2346.43	3861
2348.421	3811
2350.414	3783
2352.405	3860
2354.396	3828
2356.386	3737
2358.376	3859
2360.366	3746
2362.355	3773
2364.343	3819
2366.331	3830
2368.317	3809
2370.304	3770
2372.292	3792
2374.278	3745
2376.262	3851
2378.247	3705
2380.23	3818
2382.216	3796
2384.199	3768
2386.181	3736
2388.163	3835
2390.144	3762
2392.127	3776
2394.107	3744
2396.087	3799
2398.066	3792
2400.046	3725
2402.023	3737
2404.004	3749
2405.981	3691
2407.957	3618
2409.934	3764
2411.91	3758
2413.886	3775
2415.862	3709
2417.836	3792
2419.809	3744
2421.784	3656
2423.756	3750
2425.73	3820
2427.701	3686
2429.672	3740
2431.644	3714
2433.615	3722
2435.586	3800
2437.555	3702
2439.523	3711
2441.491	3710
2443.459	3763
2445.428	3744
2447.395	3698
2449.361	3664
2451.327	3737
2453.292	3624
2455.257	3716
2457.223	3741
2459.187	3686
2461.15	3758
2463.113	3663
2465.076	3728
2467.039	3646
2468.999	3773
2470.96	3705
2472.921	3701
2474.881	3751
2476.841	3680
2478.8	3778
2480.759	3723
2482.717	3656
2484.675	3718
2486.63	3705
2488.589	3670
2490.545	3708
2492.5	3721
2494.455	3739
2496.408	3662
2498.364	3722
2500.318	3733
2502.27	3682
2504.223	3603
2506.174	3693
2508.126	3748
2510.078	3647
2512.03	3678
2513.979	3631
2515.927	3752
2517.877	3801
2519.826	3636
2521.775	3677
2523.722	3700
2525.668	3691
2527.616	3741
2529.561	3669
2531.508	3700
2533.452	3757
2535.398	3765
2537.342	3625
2539.284	3715
2541.229	3679
2543.173	3632
2545.114	3661
2547.055	3650
2548.996	3626
2550.938	3593
2552.878	3652
2554.817	3649
2556.756	3677
2558.695	3713
2560.633	3671
2562.572	3574
2564.509	3774
2566.445	3662
2568.382	3735
2570.317	3717
2572.254	3713
2574.189	3629
2576.123	3606
2578.057	3640
2579.99	3632
2581.923	3666
2583.855	3656
2585.788	3630
2587.719	3599
2589.65	3621
2591.579	3664
2593.511	3627
2595.44	3746
2597.37	3632
2599.297	3627
2601.225	3664
2603.153	3667
2605.08	3734
2607.007	3669
2608.932	3702
2610.858	3692
2612.782	3717
2614.709	3681
2616.632	3681
2618.556	3675
2620.478	3652
2622.401	3721
2624.324	3603
2626.247	3664
2628.167	3721
2630.088	3617
2632.008	3702
2633.928	3612
2635.848	3682
2637.766	3640
2639.684	3694
2641.603	3667
2643.519	3719
2645.437	3754
2647.353	3698
2649.27	3641
2651.184	3656
2653.099	3651
2655.014	3613
2656.928	3641
2658.842	3746
2660.755	3690
2662.667	3685
2664.579	3719
2666.491	3669
2668.402	3732
2670.312	3719
2672.222	3638
2674.132	3730
2676.042	3665
2677.951	3595
2679.859	3619
2681.766	3652
2683.674	3682
2685.582	3659
2687.488	3665
2689.392	3649
2691.298	3613
2693.202	3564
2695.107	3610
2697.012	3626
2698.914	3754
2700.817	3734
2702.72	3594
2704.622	3611
2706.524	3619
2708.425	3543
2710.326	3651
2712.225	3607
2714.125	3610
2716.024	3605
2717.923	3523
2719.822	3584
2721.719	3570
2723.616	3533
2725.512	3613
2727.41	3586
2729.305	3555
2731.201	3579
2733.095	3591
2734.99	3623
2736.884	3526
2738.778	3661
2740.67	3572
2742.562	3570
2744.455	3547
2746.346	3626
2748.238	3613
2750.129	3450
2752.018	3619
2753.907	3617
2755.797	3537
2757.687	3565
2759.575	3651
2761.462	3583
2763.349	3575
2765.237	3535
2767.124	3556
2769.009	3575
2770.894	3583
2772.779	3555
2774.663	3638
2776.547	3675
2778.431	3552
2780.314	3528
2782.197	3577
2784.078	3591
2785.96	3452
2787.842	3498
2789.723	3645
2791.603	3547
2793.483	3519
2795.362	3566
2797.241	3583
2799.121	3615
2800.997	3556
2802.874	3572
2804.751	3563
2806.628	3484
2808.506	3562
2810.38	3536
2812.255	3569
2814.13	3613
2816.003	3510
2817.878	3459
2819.752	3519
2821.623	3558
2823.496	3559
2825.368	3536
2827.238	3562
2829.111	3586
2830.98	3536
2832.851	3534
2834.719	3525
2836.589	3487
2838.458	3527
2840.327	3565
2842.193	3574
2844.061	3543
2845.927	3579
2847.794	3540
2849.66	3568
2851.525	3486
2853.39	3602
2855.254	3603
2857.117	3634
2858.983	3525
2860.845	3627
2862.707	3480
2864.569	3551
2866.431	3657
2868.293	3594
2870.154	3523
2872.013	3557
2873.873	3656
2875.733	3641
2877.592	3743
2879.451	3674
2881.309	3627
2883.166	3719
2885.022	3740
2886.879	3777
2888.736	3728
2890.591	3712
2892.446	3784
2894.301	3705
2896.155	3705
2898.009	3740
2899.863	3786
2901.716	3650
2903.568	3740
2905.419	3727
2907.27	3660
2909.123	3684
2910.973	3680
2912.824	3662
2914.673	3762
2916.521	3733
2918.372	3716
2920.22	3755
2922.067	3728
2923.914	3739
2925.761	3839
2927.607	3835
2929.455	3828
2931.301	3923
2933.144	3852
2934.99	3860
2936.833	3966
2938.678	3932
2940.522	3884
2942.364	3957
2944.207	3992
2946.048	4004
2947.891	3924
2949.731	3968
2951.571	3943
2953.412	3951
2955.25	3897
2957.09	3973
2958.93	3839
2960.767	3864
2962.606	3828
2964.443	3837
2966.279	3849
2968.116	3744
2969.953	3810
2971.788	3719
2973.623	3816
2975.457	3679
2977.292	3770
2979.127	3740
2980.959	3704
2982.792	3710
2984.624	3666
2986.455	3689
2988.288	3660
2990.119	3647
2991.949	3632
2993.779	3622
2995.608	3605
2997.439	3593
2999.268	3631
3001.096	3578
3002.923	3554
3004.751	3601
3006.578	3555
3008.406	3529
3010.232	3458
3012.057	3461
3013.883	3462
3015.706	3479
3017.532	3481
3019.356	3465
3021.179	3475
3023.002	3452
3024.823	3386
3026.646	3438
3028.469	3410
3030.289	3415
3032.11	3357
3033.93	3365
3035.749	3345
3037.57	3351
3039.39	3413
3041.207	3448
3043.026	3319
3044.842	3243
3046.661	3425
3048.477	3345
3050.294	3352
3052.109	3331
3053.925	3363
3055.739	3280
3057.555	3371
3059.368	3301
3061.181	3259
3062.995	3302
3064.807	3325
3066.62	3283
3068.433	3385
3070.243	3320
3072.054	3283
3073.865	3333
3075.675	3304
3077.485	3380
3079.293	3312
3081.102	3261
3082.911	3284
3084.719	3275
3086.527	3342
3088.333	3293
3090.139	3345
3091.945	3212
3093.75	3300
3095.557	3312
3097.361	3214
3099.165	3253
3100.969	3255
3102.772	3234
3104.575	3269
3106.379	3275
3108.181	3255
3109.982	3220
3111.783	3148
3113.584	3198
3115.386	3245
3117.186	3226
3118.985	3304
3120.783	3171
3122.582	3200
3124.381	3169
3126.179	3234
3127.975	3240
3129.772	3208
3131.569	3190
3133.365	3194
3135.161	3162
3136.956	3186
3138.751	3214
3140.544	3119
3142.338	3168
3144.132	3155
3145.925	3211
3147.717	3139
3149.509	3173
3151.301	3202
3153.091	3190
3154.884	3171
3156.673	3102
3158.462	3160
3160.252	3208
3162.041	3094
3163.831	3200
3165.618	3186
3167.405	3149
3169.193	3145
3170.979	3133
3172.767	3139
3174.553	3158
3176.338	3164
3178.123	3135
3179.907	3158
3181.692	3178
3183.477	3092
3185.259	3170
3187.042	3153
3188.824	3124
3190.607	3130
3192.389	3149
3194.17	3082
3195.951	3179
3197.73	3130
3199.51	3113
3201.289	3103
3203.07	3157
3204.848	3228
3206.626	3105
3208.403	3097
3210.18	3143
3211.959	3172
3213.735	3083
3215.511	3092
3217.285	3111
3219.06	3180
3220.836	3074
3222.611	3069
3224.384	3198
3226.158	3117
3227.929	3118
3229.702	3127
3231.476	3185
3233.248	3150
3235.018	3170
3236.789	3086
3238.56	3088
3240.33	3100
3242.1	3067
3243.869	3044
3245.637	3044
3247.405	3100
3249.172	3102
3250.941	3022
3252.707	3065
3254.474	3040
3256.24	3096
3258.006	3100
3259.772	3173
3261.537	3052
3263.301	3151
3265.065	3058
3266.828	3056
3268.592	3097
3270.355	3091
3272.117	3067
3273.878	3150
3275.64	3120
3277.401	3122
3279.162	3119
3280.922	3137
3282.682	3096
3284.441	3142
3286.199	3155
3287.959	3034
3289.716	3073
3291.475	3079
3293.232	3078
3294.988	3056
3296.744	3052
3298.501	3083
3300.256	3105
3302.011	3084
3303.766	3088
3305.52	3073
3307.275	3057
3309.028	3109
3310.781	3121
3312.533	3069
3314.285	3171
3316.038	3076
3317.789	3058
3319.54	3022
3321.289	3104
3323.039	3114
3324.789	3053
3326.539	3081
3328.288	3095
3330.035	3124
3331.783	3013
3333.531	2987
3335.28	3026
3337.025	3062
3338.771	3061
3340.518	3068
3342.262	3079
3344.009	2955
3345.753	3096
3347.497	3043
3349.24	3059
3350.983	3088
3352.726	3058
3354.469	2980
3356.212	3059
3357.952	3008
3359.694	2979
3361.434	3003
3363.176	3015
3364.916	3005
3366.654	2937
3368.394	3009
3370.132	3039
3371.871	2966
3373.61	2987
3375.346	2894
3377.083	3055
3378.82	2950
3380.556	2947
3382.292	2991
3384.027	2989
3385.763	2943
3387.497	2972
3389.231	2965
3390.965	3012
3392.698	3010
3394.431	2960
3396.164	2998
3397.896	2959
3399.627	3060
3401.36	2974
3403.09	2987
3404.82	2944
3406.55	3012
3408.279	2955
3410.01	2969
3411.738	2957
3413.467	2888
3415.194	2977
3416.92	2910
3418.647	2926
3420.375	2918
3422.102	2901
3423.827	3005
3425.553	2967
3427.277	2905
3429.003	2967
3430.727	3004
3432.451	2908
3434.173	2825
3435.896	2915
3437.62	2950
3439.343	2972
3441.063	2905
3442.785	2913
3444.505	2912
3446.226	2963
3447.948	2872
3449.666	2959
3451.386	2896
3453.104	2996
3454.823	2918
3456.541	2852
3458.259	2860
3459.976	2893
3461.693	2922
3463.408	2881
3465.125	2844
3466.841	2831
3468.556	2890
3470.271	2858
3471.985	2909
3473.698	2777
3475.414	2841
3477.126	2819
3478.838	2831
3480.55	2821
3482.263	2830
3483.975	2839
3485.686	2891
3487.396	2818
3489.106	2767
3490.817	2836
3492.526	2835
3494.236	2872
3495.944	2783
3497.652	2825
3499.359	2768
3501.066	2737
3502.775	2847
3504.481	2831
3506.187	2850
3507.893	2773
3509.598	2834
3511.304	2828
3513.009	2788
3514.713	2759
3516.417	2855
3518.12	2644
3519.821	2844
3521.525	2781
3523.228	2785
3524.929	2805
3526.631	2727
3528.33	2761
3530.032	2755
3531.733	2733
3533.433	2805
3535.131	2736
3536.83	2820
3538.529	2750
3540.227	2697
3541.925	2759
3543.623	2742
3545.319	2765
3547.016	2701
3548.712	2769
3550.408	2671
3552.103	2674
3553.798	2780
3555.491	2680
3557.188	2745
3558.88	2776
3560.574	2717
3562.266	2675
3563.959	2669
3565.651	2748
3567.343	2703
3569.035	2665
3570.725	2714
3572.415	2721
3574.106	2626
3575.797	2695
3577.485	2770
3579.174	2695
3580.863	2657
3582.551	2668
3584.238	2721
3585.926	2679
3587.613	2611
3589.3	2631
3590.986	2656
3592.671	2637
3594.357	2701
3596.042	2638
3597.726	2663
3599.41	2726
3601.094	2628
3602.778	2622
3604.461	2658
3606.143	2658
3607.825	2632
3609.507	2564
3611.188	2616
3612.87	2660
3614.551	2644
3616.229	2593
3617.909	2621
3619.589	2555
3621.269	2606
3622.948	2587
3624.625	2636
3626.302	2581
3627.98	2493
3629.657	2617
3631.334	2584
3633.01	2663
3634.686	2558
3636.361	2588
3638.036	2594
3639.712	2623
3641.385	2550
3643.06	2562
3644.732	2530
3646.405	2567
3648.08	2549
3649.751	2554
3651.424	2500
3653.094	2606
3654.766	2569
3656.436	2507
3658.106	2561
3659.777	2512
3661.446	2525
3663.115	2510
3664.783	2516
3666.452	2507
3668.121	2514
3669.788	2511
3671.454	2537
3673.121	2495
3674.789	2536
3676.455	2526
3678.12	2471
3679.784	2495
3681.45	2553
3683.114	2507
3684.779	2488
3686.442	2506
3688.105	2540
3689.768	2506
3691.43	2472
3693.093	2488
3694.754	2459
3696.415	2529
3698.076	2540
3699.736	2479
3701.396	2440
3703.057	2523
3704.716	2459
3706.375	2488
3708.034	2523
3709.692	2491
3711.351	2483
3713.008	2531
3714.665	2549
3716.321	2504
3717.977	2461
3719.634	2457
3721.29	2516
3722.945	2460
3724.598	2434
3726.253	2533
3727.907	2485
3729.561	2518
3731.214	2557
3732.867	2456
3734.518	2474
3736.171	2507
3737.824	2413
3739.474	2480
3741.125	2479
3742.775	2482
3744.425	2385
3746.074	2386
3747.725	2387
3749.373	2433
3751.022	2467
3752.669	2411
3754.318	2392
3755.966	2516
3757.612	2464
3759.259	2485
3760.905	2454
3762.55	2400
3764.197	2456
3765.842	2438
3767.486	2416
3769.131	2432
3770.774	2455
3772.417	2356
3774.061	2373
3775.705	2370
3777.347	2385
3778.988	2340
3780.629	2367
3782.271	2373
3783.912	2399
3785.552	2395
3787.192	2400
3788.831	2330
3790.472	2383
3792.112	2383
3793.75	2416
3795.388	2382
3797.024	2345
3798.661	2311
3800.3	2383
3801.936	2305
3803.572	2395
3805.208	2384
3806.844	2364
3808.48	2337
3810.115	2322
3811.748	2371
3813.382	2352
3815.016	2390
3816.649	2349
3818.283	2291
3819.914	2381
3821.547	2255
3823.178	2389
3824.809	2308
3826.441	2401
3828.072	2346
3829.701	2339
3831.331	2338
3832.96	2263
3834.591	2366
3836.219	2325
3837.847	2334
3839.475	2318
3841.102	2365
3842.729	2291
3844.357	2376
3845.984	2303
3847.609	2331
3849.234	2292
3850.86	2309
3852.485	2335
3854.11	2279
3855.734	2319
3857.357	2338
3858.981	2315
3860.603	2252
3862.227	2320
3863.848	2294
3865.471	2272
3867.092	2273
3868.713	2283
3870.334	2288
3871.954	2291
3873.575	2278
3875.194	2211
3876.813	2308
3878.433	2274
3880.051	2206
3881.669	2274
3883.286	2257
3884.904	2263
3886.52	2290
3888.138	2303
3889.754	2283
3891.37	2305
3892.985	2231
3894.6	2287
3896.216	2242
3897.831	2292
3899.444	2325
3901.058	2241
3902.67	2250
3904.283	2233
3905.897	2265
3907.509	2231
3909.121	2262
3910.731	2162
3912.342	2193
3913.954	2217
3915.563	2248
3917.174	2234
3918.783	2231
3920.391	2204
3922.002	2264
3923.611	2259
3925.218	2270
3926.826	2253
3928.432	2265
3930.039	2234
3931.647	2179
3933.253	2204
3934.859	2180
3936.464	2190
3938.068	2185
3939.675	2297
3941.278	2246
3942.883	2199
3944.486	2197
3946.089	2227
3947.692	2195
3949.295	2189
3950.898	2165
3952.499	2211
3954.1	2221
3955.7	2160
3957.303	2248
3958.903	2205
3960.502	2212
3962.101	2181
3963.7	2203
3965.301	2139
3966.899	2232
3968.497	2177
3970.094	2207
3971.691	2218
3973.288	2196
3974.885	2212
3976.481	2136
3978.077	2204
3979.672	2154
3981.267	2221
3982.863	2138
3984.457	2189
3986.051	2186
3987.645	2158
3989.238	2178
3990.831	2203
3992.425	2170
3994.017	2195
3995.607	2142
3997.199	2098
3998.79	2187
4000.382	2155
4001.973	2178
4003.561	2161
4005.151	2087
4006.741	2127
4008.331	2118
4009.918	2151
4011.507	2137
4013.095	2169
4014.681	2177
4016.269	2063
4017.856	2111
4019.443	2144
4021.028	2156
4022.614	2160
4024.199	2143
4025.785	2083
4027.37	2080
4028.953	2148
4030.536	2066
4032.12	2104
4033.704	2084
4035.287	2123
4036.869	2082
4038.45	2076
4040.032	2072
4041.613	2040
4043.195	2062
4044.776	2120
4046.356	2062
4047.935	2060
4049.515	2022
4051.095	2096
4052.674	2027
4054.251	2060
4055.829	2011
4057.406	2039
4058.985	2008
4060.562	2089
4062.139	2102
4063.715	2127
4065.29	2037
4066.865	2080
4068.442	2007
4070.016	2066
4071.59	2046
4073.164	2023
4074.738	2064
4076.312	1988
4077.885	2028
4079.458	2057
4081.03	2024
4082.602	2090
4084.173	2017
4085.745	1999
4087.315	2013
4088.886	1994
4090.456	2074
4092.026	2035
4093.596	2069
4095.165	2068
4096.734	2065
4098.301	2027
4099.869	2018
4101.437	1939
4103.006	2005
4104.572	1971
4106.139	2007
4107.704	2011
4109.27	2030
4110.837	1968
4112.401	1984
4113.966	1976
4115.53	1962
4117.094	1997
4118.659	1991
4120.223	2008
4121.785	1979
4123.347	1912
4124.909	1990
4126.471	1950
4128.034	2051
4129.595	1982
4131.155	1991
4132.716	1985
4134.275	2023
4135.836	1940
4137.395	2007
4138.955	1908
4140.513	1940
4142.071	1974
4143.628	1994
4145.188	1983
4146.745	2012
4148.302	1999
4149.858	1970
4151.414	1910
4152.971	1952
4154.526	1928
4156.081	1917
4157.635	1979
4159.189	1945
4160.745	1910
4162.298	1900
4163.852	1944
4165.405	1971
4166.957	1926
4168.51	1907
4170.063	1890
4171.614	1949
4173.166	1930
4174.717	1902
4176.267	1896
4177.817	1913
4179.368	1915
4180.917	1940
4182.466	1950
4184.016	1972
4185.564	1892
4187.112	1933
4188.66	1888
4190.207	1897
4191.754	1864
4193.301	1926
4194.848	1899
4196.394	1835
4197.94	1892
4199.484	1936
4201.03	1853
4202.575	1909
4204.12	1865
4205.663	1875
4207.207	1912
4208.75	1822
4210.292	1876
4211.836	1912
4213.378	1876
4214.92	1886
4216.46	1924
4218.002	1818
4219.544	1877
4221.083	1862
4222.625	1857
4224.164	1862
4225.703	1879
4227.244	1872
4228.782	1831
4230.32	1901
4231.857	1840
4233.395	1893
4234.933	1852
4236.471	1871
4238.007	1798
4239.542	1879
4241.078	1829
4242.614	1847
4244.15	1881
4245.685	1826
4247.219	1841
4248.753	1847
4250.287	1850
4251.82	1823
4253.354	1837
4254.887	1861
4256.419	1831
4257.951	1849
4259.483	1819
4261.016	1833
4262.547	1853
4264.078	1818
4265.608	1810
4267.137	1870
4268.668	1811
4270.197	1810
4271.727	1848
4273.254	1852
4274.783	1808
4276.311	1817
4277.84	1847
4279.366	1832
4280.894	1780
4282.42	1816
4283.946	1811
4285.473	1787
4286.998	1735
4288.523	1820
4290.047	1828
4291.572	1788
4293.096	1825
4294.622	1812
4296.144	1788
4297.668	1790
4299.19	1791
4300.713	1780
4302.236	1820
4303.758	1785
4305.279	1779
4306.799	1836
4308.321	1802
4309.842	1775
4311.361	1792
4312.882	1802
4314.401	1778
