400.0961	2364
402.6185	2393
405.1424	2391
407.6635	2440
410.1838	2343
412.7035	2423
415.2225	2478
417.7388	2502
420.2585	2506
422.7754	2534
425.2917	2570
427.8072	2592
430.3221	2630
432.8363	2573
435.3498	2599
437.8626	2523
440.3727	2641
442.8841	2550
445.3969	2570
447.907	2569
450.4142	2535
452.9229	2596
455.4289	2595
457.9362	2601
460.4449	2492
462.9488	2514
465.454	2529
467.9566	2536
470.4604	2434
472.9637	2541
475.4662	2500
477.966	2512
480.4671	2472
482.9656	2589
485.4633	2442
487.9645	2581
490.4608	2560
492.9566	2611
495.4536	2543
497.948	2540
500.4437	2553
502.9387	2500
505.431	2588
507.9226	2507
510.4136	2518
512.9079	2550
515.3975	2571
517.8864	2602
520.3746	2594
522.8622	2588
525.3491	2594
527.8394	2636
530.3249	2573
532.8098	2544
535.2939	2628
537.7774	2710
540.2623	2615
542.7444	2648
545.2259	2611
547.7067	2570
550.1868	2654
552.6683	2540
555.147	2592
557.6231	2611
560.1005	2587
562.5773	2638
565.0534	2565
567.5308	2689
570.0056	2675
572.4776	2663
574.951	2728
577.4237	2715
579.8978	2795
582.3671	2658
584.8378	2744
587.3079	2773
589.7773	2731
592.244	2742
594.714	2720
597.1793	2688
599.6461	2682
602.1121	2693
604.5754	2728
607.0421	2699
609.5042	2701
611.9675	2696
614.4282	2660
616.8902	2695
619.3515	2691
621.8122	2728
624.2702	2682
626.7296	2706
629.1863	2620
631.6423	2610
634.1017	2577
636.5563	2621
639.0104	2693
641.4658	2636
643.9185	2635
646.3725	2617
648.8239	2645
651.2766	2713
653.7266	2659
656.176	2684
658.6247	2673
661.0748	2636
663.5242	2721
665.9709	2640
668.417	2743
670.8624	2746
673.3092	2746
675.7533	2737
678.1968	2728
680.6395	2728
683.0817	2734
685.5251	2710
687.9659	2742
690.4061	2764
692.8456	2754
695.2844	2811
697.7226	2790
700.1621	2724
702.599	2724
705.0332	2777
707.4688	2774
709.9036	2794
712.3399	2760
714.7735	2713
717.2044	2760
719.6367	2822
722.0683	2732
724.4993	2815
726.9296	2788
729.3593	2772
731.7883	2786
734.2147	2840
736.6423	2893
739.0714	2854
741.4958	2782
743.9216	2865
746.3447	2846
748.7691	2890
751.1929	2868
753.616	2873
756.0366	2906
758.4584	2874
760.8776	2980
763.2982	2920
765.718	2876
768.1373	2922
770.5539	2910
772.9698	2836
775.3871	2894
777.8038	2953
780.2178	2966
782.6332	2997
785.0459	2822
787.458	2951
789.8714	2960
792.2842	2904
794.6943	2920
797.1038	2922
799.5127	2919
801.9209	2884
804.3324	2874
806.7393	2952
809.1456	2951
811.5513	2924
813.9562	3030
816.3625	2897
818.7663	2978
821.1693	2929
823.5718	2990
825.9735	3037
828.3746	2879
830.7771	2910
833.177	2954
835.5762	2993
837.9747	2960
840.3727	2972
842.772	3009
845.1666	3065
847.5626	3034
849.958	3043
852.3527	3031
854.7488	3111
857.1403	3142
859.5331	3111
861.9253	2990
864.3168	3064
866.7057	3008
869.098	3068
871.4876	3003
873.8746	3046
876.263	3010
878.6487	3056
881.0378	3040
883.4243	2992
885.8081	2938
888.1933	3049
890.5759	3023
892.9598	3039
895.343	2990
897.7256	3108
900.1057	3075
902.4871	3082
904.8659	3110
907.246	3124
909.6254	3055
912.0023	3161
914.3786	3177
916.7562	3171
919.1331	3156
921.5074	3200
923.8831	3227
926.2562	3275
928.6287	3263
931.0005	3209
933.3757	3235
935.7462	3240
938.1162	3184
940.4855	3348
942.8542	3324
945.2242	3390
947.5916	3486
949.9584	3601
952.3266	3737
954.6921	3937
957.0571	4201
959.4233	4335
961.787	4309
964.15	4260
966.5125	4086
968.8742	3998
971.2354	3793
973.5959	3504
975.9559	3432
978.3151	3303
980.6738	3289
983.0338	3195
985.3912	3243
987.7461	3167
990.1022	3196
992.4578	3182
994.8127	3109
997.1689	3163
999.5207	3153
1001.874	3158
1004.226	3168
1006.576	3219
1008.929	3168
1011.28	3286
1013.628	3152
1015.977	3219
1018.324	3209
1020.674	3171
1023.019	3199
1025.366	3246
1027.713	3296
1030.056	3263
1032.399	3231
1034.746	3185
1037.087	3207
1039.431	3278
1041.771	3251
1044.113	3267
1046.454	3247
1048.793	3260
1051.133	3311
1053.471	3257
1055.807	3277
1058.146	3320
1060.483	3337
1062.818	3345
1065.153	3356
1067.489	3318
1069.822	3372
1072.156	3334
1074.488	3330
1076.82	3363
1079.15	3346
1081.48	3321
1083.814	3321
1086.143	3339
1088.471	3264
1090.799	3175
1093.126	3264
1095.452	3265
1097.78	3239
1100.105	3295
1102.43	3237
1104.754	3225
1107.077	3202
1109.4	3302
1111.722	3197
1114.044	3214
1116.365	3234
1118.685	3179
1121.005	3216
1123.324	3247
1125.643	3225
1127.961	3255
1130.278	3236
1132.595	3247
1134.911	3212
1137.226	3236
1139.541	3205
1141.854	3156
1144.167	3190
1146.482	3203
1148.793	3238
1151.105	3303
1153.414	3224
1155.725	3230
1158.033	3148
1160.344	3304
1162.651	3176
1164.959	3250
1167.265	3270
1169.572	3252
1171.878	3175
1174.184	3199
1176.488	3287
1178.79	3325
1181.094	3220
1183.396	3321
1185.699	3328
1188.001	3296
1190.301	3263
1192.6	3282
1194.9	3206
1197.2	3311
1199.497	3250
1201.794	3178
1204.09	3352
1206.387	3305
1208.684	3274
1210.978	3280
1213.272	3266
1215.565	3233
1217.858	3271
1220.15	3212
1222.443	3283
1224.734	3289
1227.024	3361
1229.313	3289
1231.602	3305
1233.892	3385
1236.18	3319
1238.467	3398
1240.754	3431
1243.04	3373
1245.325	3413
1247.612	3437
1249.896	3428
1252.178	3389
1254.461	3474
1256.743	3402
1259.027	3414
1261.308	3432
1263.587	3372
1265.867	3389
1268.146	3450
1270.425	3387
1272.703	3425
1274.981	3372
1277.256	3459
1279.532	3467
1281.808	3428
1284.083	3357
1286.358	3401
1288.63	3388
1290.904	3350
1293.175	3381
1295.449	3334
1297.719	3384
1299.99	3361
1302.259	3305
1304.529	3340
1306.798	3341
1309.065	3302
1311.333	3342
1313.599	3330
1315.866	3389
1318.131	3339
1320.396	3312
1322.66	3322
1324.925	3367
1327.187	3430
1329.448	3352
1331.711	3332
1333.974	3369
1336.234	3415
1338.493	3372
1340.752	3337
1343.01	3303
1345.269	3396
1347.526	3362
1349.784	3332
1352.04	3393
1354.295	3264
1356.552	3379
1358.806	3371
1361.059	3293
1363.312	3364
1365.564	3336
1367.818	3417
1370.069	3258
1372.318	3409
1374.568	3377
1376.817	3387
1379.066	3326
1381.316	3377
1383.564	3298
1385.809	3472
1388.056	3353
1390.301	3457
1392.549	3425
1394.793	3427
1397.036	3474
1399.279	3505
1401.522	3448
1403.763	3480
1406.007	3418
1408.248	3502
1410.487	3527
1412.727	3541
1414.965	3434
1417.205	3527
1419.442	3441
1421.68	3566
1423.915	3487
1426.152	3444
1428.388	3488
1430.623	3552
1432.857	3552
1435.091	3455
1437.323	3498
1439.556	3565
1441.789	3517
1444.019	3573
1446.25	3572
1448.48	3507
1450.708	3519
1452.938	3587
1455.167	3619
1457.394	3573
1459.62	3536
1461.846	3573
1464.073	3549
1466.299	3524
1468.523	3561
1470.746	3523
1472.969	3439
1475.191	3527
1477.415	3417
1479.636	3497
1481.858	3485
1484.078	3449
1486.298	3509
1488.518	3425
1490.736	3387
1492.954	3346
1495.169	3340
1497.386	3413
1499.602	3416
1501.819	3371
1504.034	3445
1506.248	3386
1508.462	3338
1510.675	3364
1512.888	3374
1515.1	3314
1517.311	3311
1519.522	3318
1521.732	3347
1523.942	3414
1526.151	3364
1528.36	3329
1530.566	3320
1532.773	3392
1534.98	3457
1537.187	3251
1539.392	3409
1541.596	3365
1543.801	3346
1546.005	3443
1548.208	3407
1550.411	3367
1552.612	3402
1554.814	3394
1557.013	3426
1559.212	3445
1561.414	3431
1563.612	3426
1565.811	3464
1568.007	3505
1570.203	3446
1572.403	3363
1574.598	3496
1576.792	3528
1578.988	3413
1581.181	3512
1583.376	3519
1585.568	3490
1587.761	3525
1589.952	3454
1592.143	3474
1594.333	3508
1596.524	3461
1598.715	3458
1600.903	3556
1603.091	3528
1605.278	3481
1607.466	3479
1609.652	3458
1611.838	3586
1614.023	3474
1616.207	3464
1618.391	3449
1620.576	3545
1622.759	3536
1624.941	3526
1627.123	3606
1629.304	3522
1631.484	3533
1633.664	3538
1635.844	3535
1638.022	3602
1640.201	3553
1642.38	3593
1644.556	3576
1646.732	3609
1648.908	3554
1651.084	3513
1653.257	3581
1655.433	3622
1657.607	3511
1659.779	3627
1661.951	3590
1664.122	3606
1666.295	3603
1668.467	3630
1670.635	3666
1672.805	3674
1674.973	3644
1677.142	3595
1679.31	3667
1681.478	3560
1683.644	3625
1685.81	3656
1687.975	3658
1690.142	3593
1692.305	3583
1694.468	3502
1696.632	3539
1698.794	3634
1700.957	3466
1703.119	3593
1705.279	3423
1707.439	3479
1709.598	3550
1711.758	3479
1713.917	3426
1716.075	3547
1718.231	3523
1720.388	3508
1722.543	3483
1724.702	3479
1726.856	3470
1729.01	3472
1731.164	3454
1733.317	3508
1735.471	3459
1737.623	3436
1739.774	3459
1741.925	3523
1744.075	3464
1746.225	3555
1748.376	3489
1750.524	3541
1752.672	3530
1754.82	3543
1756.965	3546
1759.113	3514
1761.259	3485
1763.405	3446
1765.549	3459
1767.694	3447
1769.836	3356
1771.981	3456
1774.123	3530
1776.264	3545
1778.405	3511
1780.546	3599
1782.687	3527
1784.827	3498
1786.966	3518
1789.103	3491
1791.242	3516
1793.381	3419
1795.517	3548
1797.653	3520
1799.788	3547
1801.923	3533
1804.057	3539
1806.193	3522
1808.326	3557
1810.457	3523
1812.59	3423
1814.721	3488
1816.855	3610
1818.984	3501
1821.113	3577
1823.244	3510
1825.372	3551
1827.499	3530
1829.63	3435
1831.756	3475
1833.882	3563
1836.007	3474
1838.132	3511
1840.26	3498
1842.384	3449
1844.507	3472
1846.63	3502
1848.752	3522
1850.875	3463
1852.996	3495
1855.118	3468
1857.238	3435
1859.358	3456
1861.477	3500
1863.597	3483
1865.715	3434
1867.832	3510
1869.948	3477
1872.064	3450
1874.181	3507
1876.297	3439
1878.411	3467
1880.526	3502
1882.639	3607
1884.752	3533
1886.865	3511
1888.977	3502
1891.089	3528
1893.2	3545
1895.308	3485
1897.42	3614
1899.53	3512
1901.639	3547
1903.745	3540
1905.853	3599
1907.962	3566
1910.067	3555
1912.174	3475
1914.278	3554
1916.383	3478
1918.486	3602
1920.592	3541
1922.694	3557
1924.797	3509
1926.898	3521
1929	3553
1931.102	3514
1933.203	3615
1935.301	3526
1937.401	3583
1939.499	3523
1941.598	3528
1943.697	3477
1945.793	3658
1947.888	3573
1949.985	3635
1952.08	3615
1954.176	3538
1956.269	3524
1958.364	3477
1960.457	3605
1962.549	3606
1964.642	3566
1966.733	3554
1968.823	3574
1970.913	3543
1973.005	3499
1975.093	3535
1977.184	3506
1979.271	3565
1981.359	3490
1983.446	3582
1985.532	3597
1987.619	3507
1989.705	3503
1991.789	3411
1993.874	3535
1995.956	3490
1998.041	3522
2000.123	3503
2002.206	3580
2004.287	3543
2006.368	3493
2008.449	3520
2010.529	3568
2012.609	3573
2014.688	3558
2016.766	3556
2018.843	3570
2020.922	3448
2022.999	3525
2025.074	3590
2027.15	3626
2029.225	3539
2031.299	3597
2033.375	3588
2035.447	3546
2037.52	3543
2039.592	3518
2041.664	3514
2043.736	3475
2045.807	3492
2047.876	3540
2049.947	3539
2052.015	3573
2054.086	3554
2056.153	3631
2058.221	3523
2060.288	3532
2062.353	3575
2064.42	3484
2066.486	3499
2068.55	3574
2070.614	3528
2072.678	3589
2074.741	3568
2076.805	3529
2078.866	3616
2080.929	3596
2082.99	3554
2085.049	3506
2087.109	3556
2089.17	3626
2091.228	3493
2093.286	3571
2095.344	3578
2097.4	3542
2099.46	3516
2101.516	3519
2103.572	3516
2105.626	3582
2107.679	3576
2109.735	3559
2111.788	3542
2113.841	3511
2115.894	3561
2117.945	3572
2119.997	3502
2122.049	3570
2124.1	3520
2126.148	3533
2128.197	3539
2130.246	3540
2132.296	3535
2134.342	3596
2136.39	3530
2138.437	3497
2140.483	3557
2142.527	3537
2144.574	3521
2146.619	3530
2148.661	3610
2150.705	3544
2152.747	3542
2154.792	3527
2156.832	3489
2158.874	3570
2160.915	3492
2162.954	3547
2164.995	3542
2167.034	3551
2169.072	3506
2171.111	3537
2173.148	3467
2175.186	3488
2177.223	3467
2179.258	3470
2181.294	3557
2183.328	3469
2185.362	3487
2187.398	3557
2189.431	3540
2191.463	3528
2193.495	3495
2195.528	3517
2197.56	3508
2199.59	3474
2201.62	3461
2203.649	3486
2205.678	3534
2207.708	3457
2209.737	3479
2211.764	3507
2213.791	3491
2215.817	3460
2217.843	3489
2219.87	3424
2221.895	3483
2223.919	3456
2225.942	3480
2227.966	3518
2229.988	3444
2232.012	3456
2234.032	3428
2236.054	3556
2238.074	3466
2240.095	3518
2242.116	3465
2244.135	3541
2246.153	3542
2248.171	3420
2250.188	3431
2252.208	3411
2254.223	3443
2256.239	3471
2258.255	3474
2260.269	3467
2262.283	3555
2264.3	3501
2266.312	3479
2268.325	3515
2270.336	3482
2272.349	3503
2274.362	3558
2276.372	3449
2278.383	3469
2280.392	3489
2282.402	3484
2284.409	3475
2286.418	3481
2288.427	3513
2290.433	3452
2292.441	3481
2294.446	3422
2296.453	3493
2298.459	3406
2300.463	3469
2302.466	3455
2304.471	3439
2306.475	3487
2308.477	3424
2310.478	3382
2312.481	3517
2314.481	3500
2316.481	3578
2318.482	3407
2320.482	3456
2322.48	3532
2324.48	3485
2326.478	3459
2328.476	3573
2330.473	3437
2332.469	3517
2334.465	3525
2336.46	3460
2338.454	3323
2340.45	3548
2342.444	3475
2344.437	3431
2346.43	3473
2348.421	3392
2350.414	3450
2352.405	3460
2354.396	3426
2356.386	3377
2358.376	3358
2360.366	3519
2362.355	3455
2364.343	3414
2366.331	3369
2368.317	3489
2370.304	3457
2372.292	3461
2374.278	3382
2376.262	3393
2378.247	3420
2380.23	3417
2382.216	3433
2384.199	3467
2386.181	3377
2388.163	3419
2390.144	3453
2392.127	3371
2394.107	3453
2396.087	3442
2398.066	3341
2400.046	3381
2402.023	3424
2404.004	3371
2405.981	3362
2407.957	3482
2409.934	3331
2411.91	3358
2413.886	3407
2415.862	3308
2417.836	3378
2419.809	3385
2421.784	3384
2423.756	3418
2425.73	3414
2427.701	3465
2429.672	3394
2431.644	3402
2433.615	3409
2435.586	3344
2437.555	3444
2439.523	3324
2441.491	3389
2443.459	3562
2445.428	3420
2447.395	3414
2449.361	3406
2451.327	3424
2453.292	3308
2455.257	3306
2457.223	3412
2459.187	3351
2461.15	3366
2463.113	3329
2465.076	3394
2467.039	3316
2468.999	3431
2470.96	3357
2472.921	3306
2474.881	3467
2476.841	3335
2478.8	3396
2480.759	3295
2482.717	3333
2484.675	3325
2486.63	3289
2488.589	3329
2490.545	3370
2492.5	3341
2494.455	3413
2496.408	3371
2498.364	3390
2500.318	3366
2502.27	3302
2504.223	3338
2506.174	3347
2508.126	3274
2510.078	3314
2512.03	3349
2513.979	3401
2515.927	3328
2517.877	3273
2519.826	3280
2521.775	3349
2523.722	3304
2525.668	3244
2527.616	3263
2529.561	3304
2531.508	3301
2533.452	3311
2535.398	3393
2537.342	3348
2539.284	3329
2541.229	3422
2543.173	3288
2545.114	3298
2547.055	3379
2548.996	3255
2550.938	3282
2552.878	3252
2554.817	3382
2556.756	3379
2558.695	3325
2560.633	3279
2562.572	3285
2564.509	3377
2566.445	3253
2568.382	3379
2570.317	3329
2572.254	3297
2574.189	3394
2576.123	3287
2578.057	3338
2579.99	3326
2581.923	3337
2583.855	3294
2585.788	3297
2587.719	3317
2589.65	3363
2591.579	3265
2593.511	3316
2595.44	3311
2597.37	3310
2599.297	3318
2601.225	3380
2603.153	3291
2605.08	3296
2607.007	3292
2608.932	3349
2610.858	3348
2612.782	3294
2614.709	3355
2616.632	3401
2618.556	3304
2620.478	3476
2622.401	3296
2624.324	3377
2626.247	3284
2628.167	3320
2630.088	3300
2632.008	3378
2633.928	3357
2635.848	3373
2637.766	3327
2639.684	3355
2641.603	3296
2643.519	3373
2645.437	3299
2647.353	3304
2649.27	3334
2651.184	3402
2653.099	3398
2655.014	3298
2656.928	3334
2658.842	3385
2660.755	3367
2662.667	3308
2664.579	3324
2666.491	3411
2668.402	3358
2670.312	3297
2672.222	3353
2674.132	3282
2676.042	3368
2677.951	3342
2679.859	3390
2681.766	3415
2683.674	3226
2685.582	3317
2687.488	3312
2689.392	3305
2691.298	3277
2693.202	3270
2695.107	3356
2697.012	3358
2698.914	3300
2700.817	3268
2702.72	3304
2704.622	3292
2706.524	3351
2708.425	3251
2710.326	3294
2712.225	3303
2714.125	3325
2716.024	3379
2717.923	3347
2719.822	3258
2721.719	3235
2723.616	3308
2725.512	3381
2727.41	3248
2729.305	3280
2731.201	3325
2733.095	3341
2734.99	3339
2736.884	3319
2738.778	3339
2740.67	3321
2742.562	3320
2744.455	3285
2746.346	3296
2748.238	3305
2750.129	3287
2752.018	3252
2753.907	3253
2755.797	3289
2757.687	3318
2759.575	3225
2761.462	3261
2763.349	3262
2765.237	3313
2767.124	3296
2769.009	3294
2770.894	3199
2772.779	3374
2774.663	3295
2776.547	3293
2778.431	3311
2780.314	3301
2782.197	3373
2784.078	3217
2785.96	3266
2787.842	3291
2789.723	3337
2791.603	3261
2793.483	3216
2795.362	3275
2797.241	3241
2799.121	3247
2800.997	3260
2802.874	3326
2804.751	3234
2806.628	3233
2808.506	3269
2810.38	3281
2812.255	3297
2814.13	3206
2816.003	3264
2817.878	3261
2819.752	3323
2821.623	3223
2823.496	3260
2825.368	3310
2827.238	3276
2829.111	3287
2830.98	3259
2832.851	3296
2834.719	3299
2836.589	3256
2838.458	3263
2840.327	3292
2842.193	3308
2844.061	3345
2845.927	3331
2847.794	3308
2849.66	3330
2851.525	3261
2853.39	3344
2855.254	3299
2857.117	3385
2858.983	3283
2860.845	3383
2862.707	3386
2864.569	3429
2866.431	3396
2868.293	3478
2870.154	3535
2872.013	3497
2873.873	3487
2875.733	3511
2877.592	3589
2879.451	3579
2881.309	3662
2883.166	3663
2885.022	3677
2886.879	3671
2888.736	3653
2890.591	3721
2892.446	3724
2894.301	3698
2896.155	3642
2898.009	3699
2899.863	3725
2901.716	3690
2903.568	3700
2905.419	3609
2907.27	3734
2909.123	3654
2910.973	3717
2912.824	3716
2914.673	3785
2916.521	3798
2918.372	3849
2920.22	3894
2922.067	3896
2923.914	3941
2925.761	4004
2927.607	3997
2929.455	4051
2931.301	4074
2933.144	4123
2934.99	4101
2936.833	4118
2938.678	4251
2940.522	4179
2942.364	4319
2944.207	4191
2946.048	4294
2947.891	4359
2949.731	4348
2951.571	4308
2953.412	4321
2955.25	4243
2957.09	4202
2958.93	4250
2960.767	4095
2962.606	4039
2964.443	4102
2966.279	4085
2968.116	4085
2969.953	3919
2971.788	3964
2973.623	3966
2975.457	3818
2977.292	3873
2979.127	3844
2980.959	3892
2982.792	3770
2984.624	3751
2986.455	3792
2988.288	3715
2990.119	3760
2991.949	3670
2993.779	3655
2995.608	3659
2997.439	3635
2999.268	3603
3001.096	3540
3002.923	3542
3004.751	3439
3006.578	3504
3008.406	3436
3010.232	3441
3012.057	3340
3013.883	3394
3015.706	3347
3017.532	3320
3019.356	3258
3021.179	3296
3023.002	3301
3024.823	3320
3026.646	3347
3028.469	3233
3030.289	3225
3032.11	3253
3033.93	3267
3035.749	3176
3037.57	3162
3039.39	3157
3041.207	3205
3043.026	3235
3044.842	3156
3046.661	3143
3048.477	3226
3050.294	3182
3052.109	3148
3053.925	3153
3055.739	3121
3057.555	3161
3059.368	3206
3061.181	3173
3062.995	3181
3064.807	3207
3066.62	3168
3068.433	3217
3070.243	3181
3072.054	3177
3073.865	3122
3075.675	3253
3077.485	3179
3079.293	3138
3081.102	3143
3082.911	3195
3084.719	3115
3086.527	3100
3088.333	3109
3090.139	3094
3091.945	3109
3093.75	3086
3095.557	2953
3097.361	3094
3099.165	3060
3100.969	3118
3102.772	3049
3104.575	2993
3106.379	3051
3108.181	3055
3109.982	3137
3111.783	3025
3113.584	3076
3115.386	3114
3117.186	3039
3118.985	3049
3120.783	3105
3122.582	2989
3124.381	3014
3126.179	3056
3127.975	3085
3129.772	3050
3131.569	2990
3133.365	2983
3135.161	3085
3136.956	3040
3138.751	3062
3140.544	3014
3142.338	3000
3144.132	3040
3145.925	2973
3147.717	3081
3149.509	2976
3151.301	3029
3153.091	3014
3154.884	3073
3156.673	3060
3158.462	3008
3160.252	3016
3162.041	2949
3163.831	3035
3165.618	3053
3167.405	3056
3169.193	3079
3170.979	3016
3172.767	3077
3174.553	3010
3176.338	3061
3178.123	3010
3179.907	2949
3181.692	2965
3183.477	3018
3185.259	3014
3187.042	2979
3188.824	3047
3190.607	2971
3192.389	2990
3194.17	2985
3195.951	2940
3197.73	3018
3199.51	3028
3201.289	2975
3203.07	3075
3204.848	2969
3206.626	2998
3208.403	2973
3210.18	3009
3211.959	2977
3213.735	2943
3215.511	3031
3217.285	3020
3219.06	3006
3220.836	3055
3222.611	2959
3224.384	3026
3226.158	2993
3227.929	3038
3229.702	2979
3231.476	3048
3233.248	3032
3235.018	2981
3236.789	2932
3238.56	2971
3240.33	2991
3242.1	2993
3243.869	2982
3245.637	3033
3247.405	2977
3249.172	3001
3250.941	2973
3252.707	2997
3254.474	3016
3256.24	3034
3258.006	3036
3259.772	3045
3261.537	2900
3263.301	2981
3265.065	3027
3266.828	2999
3268.592	3022
3270.355	3100
3272.117	3109
3273.878	2938
3275.64	2992
3277.401	2996
3279.162	3055
3280.922	2959
3282.682	2964
3284.441	2995
3286.199	3001
3287.959	3034
3289.716	2965
3291.475	3002
3293.232	3087
3294.988	2978
3296.744	2964
3298.501	3054
3300.256	2991
3302.011	3015
3303.766	3051
3305.52	3057
3307.275	3062
3309.028	3012
3310.781	2986
3312.533	2975
3314.285	3092
3316.038	3010
3317.789	3009
3319.54	3009
3321.289	3018
3323.039	3015
3324.789	3102
3326.539	3029
3328.288	3094
3330.035	3008
3331.783	2930
3333.531	3038
3335.28	3040
3337.025	2968
3338.771	2992
3340.518	2945
3342.262	2947
3344.009	2987
3345.753	3008
3347.497	3030
3349.24	2966
3350.983	2973
3352.726	2931
3354.469	2983
3356.212	2977
3357.952	2942
3359.694	2948
3361.434	2960
3363.176	2948
3364.916	2946
3366.654	3002
3368.394	2943
3370.132	2964
3371.871	2915
3373.61	2919
3375.346	2922
3377.083	2969
3378.82	2921
3380.556	2963
3382.292	2973
3384.027	2957
3385.763	2987
3387.497	2863
3389.231	2906
3390.965	2923
3392.698	2909
3394.431	2886
3396.164	2905
3397.896	2922
3399.627	2884
3401.36	2891
3403.09	2857
3404.82	2968
3406.55	2883
3408.279	2878
3410.01	3004
3411.738	2905
3413.467	2870
3415.194	2904
3416.92	2943
3418.647	2872
3420.375	2871
3422.102	2884
3423.827	2858
3425.553	2913
3427.277	2855
3429.003	2864
3430.727	2860
3432.451	2847
3434.173	2837
3435.896	2868
3437.62	2845
3439.343	2884
3441.063	2862
3442.785	2839
3444.505	2832
3446.226	2914
3447.948	2844
3449.666	2887
3451.386	2864
3453.104	2872
3454.823	2910
3456.541	2757
3458.259	2852
3459.976	2797
3461.693	2779
3463.408	2789
3465.125	2751
3466.841	2808
3468.556	2787
3470.271	2773
3471.985	2786
3473.698	2775
3475.414	2781
3477.126	2777
3478.838	2814
3480.55	2797
3482.263	2779
3483.975	2750
3485.686	2762
3487.396	2776
3489.106	2755
3490.817	2728
3492.526	2749
3494.236	2665
3495.944	2717
3497.652	2742
3499.359	2680
3501.066	2768
3502.775	2731
3504.481	2715
3506.187	2722
3507.893	2679
3509.598	2682
3511.304	2697
3513.009	2698
3514.713	2648
3516.417	2681
3518.12	2673
3519.821	2681
3521.525	2665
3523.228	2711
3524.929	2658
3526.631	2661
3528.33	2652
3530.032	2673
3531.733	2663
3533.433	2683
3535.131	2626
3536.83	2633
3538.529	2686
3540.227	2621
3541.925	2661
3543.623	2698
3545.319	2627
3547.016	2617
3548.712	2633
3550.408	2613
3552.103	2683
3553.798	2600
3555.491	2624
3557.188	2585
3558.88	2639
3560.574	2584
3562.266	2663
3563.959	2591
3565.651	2616
3567.343	2627
3569.035	2604
3570.725	2644
3572.415	2559
3574.106	2610
3575.797	2559
3577.485	2644
3579.174	2558
3580.863	2602
3582.551	2638
3584.238	2539
3585.926	2556
3587.613	2555
3589.3	2524
3590.986	2565
3592.671	2503
3594.357	2520
3596.042	2513
3597.726	2578
3599.41	2551
3601.094	2523
3602.778	2535
3604.461	2566
3606.143	2474
3607.825	2544
3609.507	2464
3611.188	2558
3612.87	2510
3614.551	2427
3616.229	2500
3617.909	2498
3619.589	2473
3621.269	2408
3622.948	2493
3624.625	2456
3626.302	2515
3627.98	2473
3629.657	2515
3631.334	2507
3633.01	2484
3634.686	2496
3636.361	2396
3638.036	2473
3639.712	2402
3641.385	2446
3643.06	2393
3644.732	2449
3646.405	2423
3648.08	2419
3649.751	2448
3651.424	2353
3653.094	2439
3654.766	2366
3656.436	2431
3658.106	2407
3659.777	2426
3661.446	2378
3663.115	2320
3664.783	2458
3666.452	2421
3668.121	2334
3669.788	2441
3671.454	2418
3673.121	2391
3674.789	2377
3676.455	2390
3678.12	2369
3679.784	2400
3681.45	2352
3683.114	2403
3684.779	2364
3686.442	2359
3688.105	2336
3689.768	2361
3691.43	2327
3693.093	2371
3694.754	2395
3696.415	2391
3698.076	2392
3699.736	2372
3701.396	2336
3703.057	2347
3704.716	2359
3706.375	2460
3708.034	2328
3709.692	2368
3711.351	2315
3713.008	2340
3714.665	2364
3716.321	2367
3717.977	2350
3719.634	2401
3721.29	2417
3722.945	2371
3724.598	2319
3726.253	2394
3727.907	2279
3729.561	2352
3731.214	2343
3732.867	2236
3734.518	2329
3736.171	2260
3737.824	2323
3739.474	2308
3741.125	2336
3742.775	2284
3744.425	2312
3746.074	2309
3747.725	2283
3749.373	2328
3751.022	2300
3752.669	2238
3754.318	2308
3755.966	2305
3757.612	2289
3759.259	2327
3760.905	2345
3762.55	2248
3764.197	2272
3765.842	2301
3767.486	2249
3769.131	2264
3770.774	2320
3772.417	2238
3774.061	2296
3775.705	2316
3777.347	2217
3778.988	2253
3780.629	2226
3782.271	2261
3783.912	2215
3785.552	2219
3787.192	2274
3788.831	2343
3790.472	2285
3792.112	2248
3793.75	2280
3795.388	2204
3797.024	2278
3798.661	2207
3800.3	2266
3801.936	2205
3803.572	2265
3805.208	2265
3806.844	2214
3808.48	2235
3810.115	2210
3811.748	2274
3813.382	2204
3815.016	2267
3816.649	2207
3818.283	2335
3819.914	2234
3821.547	2240
3823.178	2219
3824.809	2225
3826.441	2240
3828.072	2218
3829.701	2227
3831.331	2207
3832.96	2202
3834.591	2208
3836.219	2238
3837.847	2197
3839.475	2188
3841.102	2188
3842.729	2221
3844.357	2277
3845.984	2200
3847.609	2192
3849.234	2195
3850.86	2246
3852.485	2184
3854.11	2199
3855.734	2147
3857.357	2159
3858.981	2175
3860.603	2190
3862.227	2227
3863.848	2224
3865.471	2123
3867.092	2190
3868.713	2185
3870.334	2211
3871.954	2172
3873.575	2150
3875.194	2155
3876.813	2216
3878.433	2198
3880.051	2221
3881.669	2129
3883.286	2174
3884.904	2139
3886.52	2173
3888.138	2174
3889.754	2176
3891.37	2180
3892.985	2086
3894.6	2118
3896.216	2115
3897.831	2174
3899.444	2147
3901.058	2137
3902.67	2122
3904.283	2133
3905.897	2107
3907.509	2207
3909.121	2139
3910.731	2133
3912.342	2166
3913.954	2146
3915.563	2098
3917.174	2100
3918.783	2102
3920.391	2186
3922.002	2124
3923.611	2183
3925.218	2113
3926.826	2148
3928.432	2170
3930.039	2187
3931.647	2145
3933.253	2094
3934.859	2146
3936.464	2155
3938.068	2139
3939.675	2165
3941.278	2099
3942.883	2099
3944.486	2161
3946.089	2139
3947.692	2164
3949.295	2105
3950.898	2093
3952.499	2067
3954.1	2146
3955.7	2084
3957.303	2112
3958.903	2144
3960.502	2066
3962.101	2086
3963.7	2113
3965.301	2063
3966.899	2015
3968.497	2106
3970.094	2089
3971.691	2066
3973.288	2030
3974.885	2117
3976.481	2044
3978.077	2059
3979.672	2074
3981.267	2075
3982.863	2073
3984.457	2068
3986.051	2029
3987.645	2088
3989.238	2054
3990.831	1991
3992.425	2076
3994.017	2099
3995.607	2077
3997.199	2051
3998.79	2060
4000.382	2016
4001.973	2086
4003.561	2074
4005.151	2028
4006.741	2080
4008.331	2059
4009.918	2069
4011.507	2048
4013.095	1975
4014.681	2052
4016.269	1994
4017.856	2015
4019.443	2024
4021.028	1986
4022.614	2061
4024.199	1978
4025.785	1967
4027.37	2009
4028.953	2026
4030.536	2022
4032.12	2011
4033.704	2044
4035.287	2030
4036.869	1977
4038.45	2030
4040.032	1985
4041.613	1960
4043.195	1963
4044.776	1968
4046.356	1973
4047.935	1990
4049.515	2013
4051.095	1991
4052.674	1906
4054.251	1999
4055.829	2009
4057.406	1926
4058.985	1977
4060.562	1975
4062.139	1947
4063.715	1954
4065.29	1948
4066.865	2011
4068.442	1985
4070.016	2004
4071.59	1990
4073.164	1975
4074.738	1951
4076.312	1913
4077.885	1898
4079.458	1949
4081.03	2001
4082.602	1917
4084.173	1968
4085.745	1941
4087.315	1931
4088.886	1910
4090.456	1915
4092.026	1988
4093.596	1929
4095.165	1923
4096.734	1957
4098.301	1918
4099.869	1955
4101.437	1950
4103.006	1927
4104.572	1910
4106.139	1918
4107.704	1935
4109.27	1931
4110.837	1941
4112.401	1923
4113.966	1924
4115.53	1889
4117.094	1887
4118.659	1914
4120.223	1933
4121.785	1912
4123.347	1866
4124.909	1942
4126.471	1882
4128.034	1938
4129.595	1865
4131.155	1962
4132.716	1901
4134.275	1865
4135.836	1885
4137.395	1881
4138.955	1894
4140.513	1904
4142.071	1875
4143.628	1943
4145.188	1905
4146.745	1907
4148.302	1906
4149.858	1881
4151.414	1886
4152.971	1888
4154.526	1870
4156.081	1835
4157.635	1867
4159.189	1869
4160.745	1842
4162.298	1881
4163.852	1857
4165.405	1850
4166.957	1888
4168.51	1900
4170.063	1834
4171.614	1895
4173.166	1912
4174.717	1876
4176.267	1823
4177.817	1804
4179.368	1832
4180.917	1864
4182.466	1822
4184.016	1808
4185.564	1771
4187.112	1865
4188.66	1846
4190.207	1823
4191.754	1798
4193.301	1800
4194.848	1834
4196.394	1817
4197.94	1805
4199.484	1827
4201.03	1836
4202.575	1848
4204.12	1790
4205.663	1846
4207.207	1850
4208.75	1800
4210.292	1809
4211.836	1828
4213.378	1826
4214.92	1784
4216.46	1825
4218.002	1790
4219.544	1831
4221.083	1781
4222.625	1801
4224.164	1780
4225.703	1784
4227.244	1808
4228.782	1859
4230.32	1877
4231.857	1745
4233.395	1819
4234.933	1809
4236.471	1765
4238.007	1808
4239.542	1822
4241.078	1755
4242.614	1775
4244.15	1786
4245.685	1761
4247.219	1779
4248.753	1806
4250.287	1810
4251.82	1780
4253.354	1791
4254.887	1802
4256.419	1772
4257.951	1778
4259.483	1769
4261.016	1806
4262.547	1748
4264.078	1800
4265.608	1792
4267.137	1811
4268.668	1744
4270.197	1796
4271.727	1780
4273.254	1762
4274.783	1780
4276.311	1762
4277.84	1783
4279.366	1760
4280.894	1756
4282.42	1765
4283.946	1754
4285.473	1762
4286.998	1747
4288.523	1742
4290.047	1786
4291.572	1755
4293.096	1742
4294.622	1721
4296.144	1683
4297.668	1713
4299.19	1735
4300.713	1742
4302.236	1758
4303.758	1760
4305.279	1713
4306.799	1681
4308.321	1729
4309.842	1699
4311.361	1696
4312.882	1791
4314.401	1635
