400.0961	2452
402.6185	2418
405.1424	2490
407.6635	2539
410.1838	2502
412.7035	2532
415.2225	2483
417.7388	2562
420.2585	2584
422.7754	2610
425.2917	2569
427.8072	2593
430.3221	2604
432.8363	2626
435.3498	2662
437.8626	2629
440.3727	2620
442.8841	2620
445.3969	2704
447.907	2634
450.4142	2590
452.9229	2698
455.4289	2625
457.9362	2635
460.4449	2667
462.9488	2662
465.454	2683
467.9566	2634
470.4604	2576
472.9637	2570
475.4662	2616
477.966	2580
480.4671	2568
482.9656	2544
485.4633	2623
487.9645	2667
490.4608	2635
492.9566	2690
495.4536	2680
497.948	2681
500.4437	2626
502.9387	2637
505.431	2718
507.9226	2676
510.4136	2730
512.9079	2670
515.3975	2723
517.8864	2751
520.3746	2737
522.8622	2698
525.3491	2694
527.8394	2681
530.3249	2772
532.8098	2677
535.2939	2764
537.7774	2716
540.2623	2723
542.7444	2715
545.2259	2615
547.7067	2812
550.1868	2696
552.6683	2785
555.147	2734
557.6231	2812
560.1005	2750
562.5773	2748
565.0534	2715
567.5308	2715
570.0056	2819
572.4776	2800
574.951	2823
577.4237	2865
579.8978	2853
582.3671	2815
584.8378	2864
587.3079	2855
589.7773	2857
592.244	2891
594.714	2851
597.1793	2812
599.6461	2816
602.1121	2807
604.5754	2750
607.0421	2771
609.5042	2810
611.9675	2763
614.4282	2768
616.8902	2842
619.3515	2709
621.8122	2802
624.2702	2741
626.7296	2749
629.1863	2765
631.6423	2806
634.1017	2732
636.5563	2717
639.0104	2802
641.4658	2806
643.9185	2813
646.3725	2848
648.8239	2780
651.2766	2854
653.7266	2793
656.176	2843
658.6247	2789
661.0748	2747
663.5242	2822
665.9709	2802
668.417	2794
670.8624	2821
673.3092	2901
675.7533	2873
678.1968	2911
680.6395	2862
683.0817	2841
685.5251	2868
687.9659	2851
690.4061	2904
692.8456	2836
695.2844	2862
697.7226	2861
700.1621	2893
702.599	2929
705.0332	2910
707.4688	2920
709.9036	2878
712.3399	2975
714.7735	2956
717.2044	2940
719.6367	2907
722.0683	2923
724.4993	2877
726.9296	2994
729.3593	3008
731.7883	2865
734.2147	3044
736.6423	3041
739.0714	3057
741.4958	2987
743.9216	3048
746.3447	3051
748.7691	2971
751.1929	3059
753.616	3027
756.0366	3066
758.4584	3024
760.8776	3039
763.2982	3031
765.718	3064
768.1373	3059
770.5539	2981
772.9698	3081
775.3871	3053
777.8038	3047
780.2178	3032
782.6332	3046
785.0459	3099
787.458	3061
789.8714	3068
792.2842	3084
794.6943	2971
797.1038	3076
799.5127	3162
801.9209	3031
804.3324	3009
806.7393	3073
809.1456	3106
811.5513	3190
813.9562	3081
816.3625	3096
818.7663	3114
821.1693	3181
823.5718	3079
825.9735	3204
828.3746	3055
830.7771	3057
833.177	3141
835.5762	3163
837.9747	3054
840.3727	3208
842.772	3114
845.1666	3170
847.5626	3197
849.958	3172
852.3527	3228
854.7488	3185
857.1403	3139
859.5331	3168
861.9253	3179
864.3168	3153
866.7057	3121
869.098	3178
871.4876	3171
873.8746	3196
876.263	3164
878.6487	3142
881.0378	3232
883.4243	3143
885.8081	3205
888.1933	3173
890.5759	3219
892.9598	3172
895.343	3121
897.7256	3215
900.1057	3190
902.4871	3161
904.8659	3220
907.246	3184
909.6254	3217
912.0023	3235
914.3786	3276
916.7562	3286
919.1331	3326
921.5074	3292
923.8831	3305
926.2562	3381
928.6287	3388
931.0005	3320
933.3757	3371
935.7462	3338
938.1162	3397
940.4855	3450
942.8542	3445
945.2242	3469
947.5916	3521
949.9584	3597
952.3266	3757
954.6921	3838
957.0571	3961
959.4233	4196
961.787	4196
964.15	4156
966.5125	4109
968.8742	3866
971.2354	3715
973.5959	3618
975.9559	3497
978.3151	3476
980.6738	3346
983.0338	3292
985.3912	3346
987.7461	3390
990.1022	3220
992.4578	3355
994.8127	3286
997.1689	3322
999.5207	3338
1001.874	3266
1004.226	3259
1006.576	3342
1008.929	3327
1011.28	3342
1013.628	3322
1015.977	3286
1018.324	3276
1020.674	3351
1023.019	3340
1025.366	3318
1027.713	3344
1030.056	3350
1032.399	3410
1034.746	3356
1037.087	3352
1039.431	3328
1041.771	3339
1044.113	3331
1046.454	3327
1048.793	3352
1051.133	3399
1053.471	3247
1055.807	3390
1058.146	3412
1060.483	3411
1062.818	3400
1065.153	3428
1067.489	3479
1069.822	3443
1072.156	3429
1074.488	3464
1076.82	3421
1079.15	3489
1081.48	3403
1083.814	3498
1086.143	3434
1088.471	3399
1090.799	3441
1093.126	3355
1095.452	3404
1097.78	3400
1100.105	3401
1102.43	3401
1104.754	3419
1107.077	3349
1109.4	3434
1111.722	3394
1114.044	3450
1116.365	3342
1118.685	3338
1121.005	3340
1123.324	3398
1125.643	3420
1127.961	3416
1130.278	3436
1132.595	3382
1134.911	3446
1137.226	3365
1139.541	3354
1141.854	3375
1144.167	3364
1146.482	3410
1148.793	3368
1151.105	3470
1153.414	3391
1155.725	3476
1158.033	3438
1160.344	3357
1162.651	3269
1164.959	3340
1167.265	3429
1169.572	3399
1171.878	3389
1174.184	3362
1176.488	3429
1178.79	3387
1181.094	3441
1183.396	3385
1185.699	3347
1188.001	3385
1190.301	3398
1192.6	3430
1194.9	3463
1197.2	3409
1199.497	3465
1201.794	3381
1204.09	3422
1206.387	3458
1208.684	3422
1210.978	3460
1213.272	3364
1215.565	3394
1217.858	3422
1220.15	3396
1222.443	3387
1224.734	3415
1227.024	3411
1229.313	3523
1231.602	3490
1233.892	3568
1236.18	3547
1238.467	3532
1240.754	3509
1243.04	3585
1245.325	3606
1247.612	3506
1249.896	3612
1252.178	3602
1254.461	3559
1256.743	3546
1259.027	3646
1261.308	3550
1263.587	3643
1265.867	3488
1268.146	3619
1270.425	3628
1272.703	3561
1274.981	3584
1277.256	3540
1279.532	3631
1281.808	3594
1284.083	3588
1286.358	3510
1288.63	3565
1290.904	3480
1293.175	3522
1295.449	3559
1297.719	3539
1299.99	3506
1302.259	3457
1304.529	3496
1306.798	3439
1309.065	3486
1311.333	3507
1313.599	3618
1315.866	3532
1318.131	3531
1320.396	3562
1322.66	3487
1324.925	3472
1327.187	3537
1329.448	3568
1331.711	3491
1333.974	3449
1336.234	3561
1338.493	3596
1340.752	3652
1343.01	3612
1345.269	3545
1347.526	3549
1349.784	3543
1352.04	3455
1354.295	3479
1356.552	3530
1358.806	3507
1361.059	3434
1363.312	3564
1365.564	3511
1367.818	3570
1370.069	3557
1372.318	3541
1374.568	3501
1376.817	3520
1379.066	3545
1381.316	3541
1383.564	3551
1385.809	3526
1388.056	3529
1390.301	3579
1392.549	3642
1394.793	3627
1397.036	3677
1399.279	3679
1401.522	3632
1403.763	3625
1406.007	3620
1408.248	3592
1410.487	3637
1412.727	3620
1414.965	3560
1417.205	3586
1419.442	3648
1421.68	3688
1423.915	3651
1426.152	3629
1428.388	3670
1430.623	3696
1432.857	3644
1435.091	3692
1437.323	3612
1439.556	3736
1441.789	3655
1444.019	3669
1446.25	3712
1448.48	3696
1450.708	3784
1452.938	3704
1455.167	3770
1457.394	3764
1459.62	3775
1461.846	3738
1464.073	3719
1466.299	3658
1468.523	3700
1470.746	3740
1472.969	3663
1475.191	3681
1477.415	3657
1479.636	3654
1481.858	3560
1484.078	3601
1486.298	3592
1488.518	3610
1490.736	3533
1492.954	3545
1495.169	3522
1497.386	3579
1499.602	3548
1501.819	3489
1504.034	3520
1506.248	3566
1508.462	3553
1510.675	3519
1512.888	3469
1515.1	3527
1517.311	3505
1519.522	3500
1521.732	3561
1523.942	3540
1526.151	3558
1528.36	3516
1530.566	3526
1532.773	3530
1534.98	3572
1537.187	3490
1539.392	3592
1541.596	3551
1543.801	3570
1546.005	3576
1548.208	3582
1550.411	3572
1552.612	3562
1554.814	3563
1557.013	3498
1559.212	3626
1561.414	3598
1563.612	3562
1565.811	3608
1568.007	3557
1570.203	3646
1572.403	3716
1574.598	3636
1576.792	3689
1578.988	3657
1581.181	3589
1583.376	3684
1585.568	3664
1587.761	3696
1589.952	3617
1592.143	3709
1594.333	3626
1596.524	3669
1598.715	3605
1600.903	3659
1603.091	3693
1605.278	3738
1607.466	3609
1609.652	3644
1611.838	3608
1614.023	3690
1616.207	3696
1618.391	3687
1620.576	3692
1622.759	3745
1624.941	3721
1627.123	3680
1629.304	3706
1631.484	3748
1633.664	3772
1635.844	3711
1638.022	3736
1640.201	3696
1642.38	3780
1644.556	3681
1646.732	3726
1648.908	3659
1651.084	3766
1653.257	3787
1655.433	3671
1657.607	3801
1659.779	3820
1661.951	3746
1664.122	3802
1666.295	3774
1668.467	3819
1670.635	3820
1672.805	3820
1674.973	3803
1677.142	3787
1679.31	3808
1681.478	3835
1683.644	3773
1685.81	3785
1687.975	3721
1690.142	3708
1692.305	3730
1694.468	3795
1696.632	3725
1698.794	3788
1700.957	3673
1703.119	3652
1705.279	3692
1707.439	3687
1709.598	3680
1711.758	3673
1713.917	3644
1716.075	3703
1718.231	3565
1720.388	3660
1722.543	3712
1724.702	3664
1726.856	3727
1729.01	3651
1731.164	3767
1733.317	3656
1735.471	3649
1737.623	3635
1739.774	3659
1741.925	3711
1744.075	3658
1746.225	3663
1748.376	3670
1750.524	3621
1752.672	3638
1754.82	3731
1756.965	3685
1759.113	3633
1761.259	3690
1763.405	3634
1765.549	3687
1767.694	3731
1769.836	3727
1771.981	3684
1774.123	3684
1776.264	3778
1778.405	3739
1780.546	3691
1782.687	3648
1784.827	3718
1786.966	3688
1789.103	3709
1791.242	3670
1793.381	3804
1795.517	3796
1797.653	3711
1799.788	3766
1801.923	3728
1804.057	3760
1806.193	3661
1808.326	3687
1810.457	3742
1812.59	3727
1814.721	3816
1816.855	3710
1818.984	3781
1821.113	3666
1823.244	3688
1825.372	3750
1827.499	3792
1829.63	3766
1831.756	3722
1833.882	3746
1836.007	3717
1838.132	3674
1840.26	3697
1842.384	3680
1844.507	3645
1846.63	3789
1848.752	3695
1850.875	3759
1852.996	3685
1855.118	3746
1857.238	3609
1859.358	3625
1861.477	3694
1863.597	3617
1865.715	3695
1867.832	3696
1869.948	3684
1872.064	3721
1874.181	3698
1876.297	3634
1878.411	3645
1880.526	3767
1882.639	3782
1884.752	3681
1886.865	3648
1888.977	3716
1891.089	3723
1893.2	3669
1895.308	3733
1897.42	3719
1899.53	3770
1901.639	3686
1903.745	3719
1905.853	3643
1907.962	3656
1910.067	3746
1912.174	3717
1914.278	3854
1916.383	3753
1918.486	3778
1920.592	3614
1922.694	3783
1924.797	3862
1926.898	3757
1929	3764
1931.102	3777
1933.203	3676
1935.301	3774
1937.401	3800
1939.499	3767
1941.598	3787
1943.697	3754
1945.793	3805
1947.888	3751
1949.985	3673
1952.08	3781
1954.176	3795
1956.269	3764
1958.364	3832
1960.457	3773
1962.549	3770
1964.642	3686
1966.733	3780
1968.823	3739
1970.913	3765
1973.005	3771
1975.093	3769
1977.184	3730
1979.271	3713
1981.359	3764
1983.446	3766
1985.532	3699
1987.619	3700
1989.705	3736
1991.789	3779
1993.874	3706
1995.956	3669
1998.041	3774
2000.123	3741
2002.206	3726
2004.287	3661
2006.368	3664
2008.449	3790
2010.529	3758
2012.609	3807
2014.688	3769
2016.766	3779
2018.843	3788
2020.922	3750
2022.999	3716
2025.074	3734
2027.15	3712
2029.225	3763
2031.299	3731
2033.375	3717
2035.447	3737
2037.52	3688
2039.592	3700
2041.664	3799
2043.736	3802
2045.807	3776
2047.876	3768
2049.947	3715
2052.015	3702
2054.086	3701
2056.153	3719
2058.221	3784
2060.288	3618
2062.353	3767
2064.42	3659
2066.486	3761
2068.55	3736
2070.614	3771
2072.678	3794
2074.741	3703
2076.805	3854
2078.866	3752
2080.929	3692
2082.99	3662
2085.049	3659
2087.109	3763
2089.17	3675
2091.228	3749
2093.286	3655
2095.344	3803
2097.4	3649
2099.46	3729
2101.516	3754
2103.572	3777
2105.626	3759
2107.679	3733
2109.735	3755
2111.788	3738
2113.841	3711
2115.894	3726
2117.945	3750
2119.997	3727
2122.049	3682
2124.1	3737
2126.148	3763
2128.197	3760
2130.246	3777
2132.296	3745
2134.342	3743
2136.39	3756
2138.437	3721
2140.483	3793
2142.527	3735
2144.574	3676
2146.619	3717
2148.661	3700
2150.705	3689
2152.747	3723
2154.792	3715
2156.832	3767
2158.874	3746
2160.915	3737
2162.954	3657
2164.995	3707
2167.034	3728
2169.072	3698
2171.111	3573
2173.148	3718
2175.186	3691
2177.223	3631
2179.258	3639
2181.294	3774
2183.328	3652
2185.362	3690
2187.398	3616
2189.431	3593
2191.463	3694
2193.495	3743
2195.528	3718
2197.56	3692
2199.59	3704
2201.62	3644
2203.649	3651
2205.678	3654
2207.708	3642
2209.737	3743
2211.764	3695
2213.791	3690
2215.817	3663
2217.843	3643
2219.87	3725
2221.895	3643
2223.919	3677
2225.942	3621
2227.966	3593
2229.988	3620
2232.012	3737
2234.032	3763
2236.054	3602
2238.074	3691
2240.095	3707
2242.116	3622
2244.135	3684
2246.153	3652
2248.171	3676
2250.188	3642
2252.208	3629
2254.223	3648
2256.239	3686
2258.255	3599
2260.269	3617
2262.283	3714
2264.3	3570
2266.312	3675
2268.325	3701
2270.336	3613
2272.349	3727
2274.362	3688
2276.372	3664
2278.383	3641
2280.392	3691
2282.402	3755
2284.409	3656
2286.418	3632
2288.427	3692
2290.433	3658
2292.441	3652
2294.446	3636
2296.453	3675
2298.459	3693
2300.463	3656
2302.466	3587
2304.471	3639
2306.475	3621
2308.477	3683
2310.478	3657
2312.481	3683
2314.481	3694
2316.481	3710
2318.482	3586
2320.482	3642
2322.48	3637
2324.48	3662
2326.478	3615
2328.476	3645
2330.473	3604
2332.469	3605
2334.465	3641
2336.46	3644
2338.454	3611
2340.45	3668
2342.444	3681
2344.437	3675
2346.43	3599
2348.421	3733
2350.414	3647
2352.405	3622
2354.396	3636
2356.386	3616
2358.376	3583
2360.366	3640
2362.355	3670
2364.343	3591
2366.331	3626
2368.317	3628
2370.304	3632
2372.292	3665
2374.278	3568
2376.262	3621
2378.247	3582
2380.23	3577
2382.216	3598
2384.199	3540
2386.181	3564
2388.163	3578
2390.144	3532
2392.127	3560
2394.107	3542
2396.087	3567
2398.066	3582
2400.046	3601
2402.023	3533
2404.004	3554
2405.981	3565
2407.957	3505
2409.934	3554
2411.91	3584
2413.886	3600
2415.862	3602
2417.836	3603
2419.809	3679
2421.784	3538
2423.756	3565
2425.73	3575
2427.701	3507
2429.672	3665
2431.644	3584
2433.615	3587
2435.586	3596
2437.555	3566
2439.523	3559
2441.491	3582
2443.459	3573
2445.428	3568
2447.395	3544
2449.361	3566
2451.327	3616
2453.292	3542
2455.257	3549
2457.223	3510
2459.187	3582
2461.15	3532
2463.113	3564
2465.076	3515
2467.039	3511
2468.999	3550
2470.96	3559
2472.921	3505
2474.881	3575
2476.841	3458
2478.8	3545
2480.759	3496
2482.717	3502
2484.675	3447
2486.63	3526
2488.589	3546
2490.545	3595
2492.5	3496
2494.455	3524
2496.408	3527
2498.364	3618
2500.318	3377
2502.27	3499
2504.223	3522
2506.174	3551
2508.126	3445
2510.078	3561
2512.03	3518
2513.979	3479
2515.927	3462
2517.877	3483
2519.826	3494
2521.775	3583
2523.722	3474
2525.668	3619
2527.616	3560
2529.561	3523
2531.508	3420
2533.452	3459
2535.398	3507
2537.342	3505
2539.284	3553
2541.229	3562
2543.173	3522
2545.114	3510
2547.055	3489
2548.996	3514
2550.938	3482
2552.878	3552
2554.817	3437
2556.756	3580
2558.695	3545
2560.633	3518
2562.572	3417
2564.509	3519
2566.445	3484
2568.382	3550
2570.317	3532
2572.254	3462
2574.189	3518
2576.123	3530
2578.057	3507
2579.99	3459
2581.923	3496
2583.855	3531
2585.788	3533
2587.719	3542
2589.65	3513
2591.579	3525
2593.511	3534
2595.44	3452
2597.37	3516
2599.297	3457
2601.225	3600
2603.153	3483
2605.08	3543
2607.007	3521
2608.932	3469
2610.858	3471
2612.782	3449
2614.709	3539
2616.632	3441
2618.556	3543
2620.478	3586
2622.401	3501
2624.324	3509
2626.247	3525
2628.167	3541
2630.088	3467
2632.008	3622
2633.928	3568
2635.848	3567
2637.766	3526
2639.684	3509
2641.603	3525
2643.519	3519
2645.437	3615
2647.353	3571
2649.27	3445
2651.184	3543
2653.099	3522
2655.014	3435
2656.928	3581
2658.842	3555
2660.755	3554
2662.667	3444
2664.579	3476
2666.491	3492
2668.402	3438
2670.312	3458
2672.222	3569
2674.132	3558
2676.042	3555
2677.951	3467
2679.859	3509
2681.766	3548
2683.674	3536
2685.582	3548
2687.488	3501
2689.392	3598
2691.298	3435
2693.202	3523
2695.107	3530
2697.012	3568
2698.914	3516
2700.817	3383
2702.72	3503
2704.622	3516
2706.524	3470
2708.425	3483
2710.326	3504
2712.225	3409
2714.125	3534
2716.024	3513
2717.923	3463
2719.822	3387
2721.719	3457
2723.616	3436
2725.512	3461
2727.41	3450
2729.305	3414
2731.201	3442
2733.095	3456
2734.99	3503
2736.884	3443
2738.778	3427
2740.67	3529
2742.562	3465
2744.455	3463
2746.346	3430
2748.238	3390
2750.129	3419
2752.018	3474
2753.907	3498
2755.797	3486
2757.687	3489
2759.575	3445
2761.462	3379
2763.349	3371
2765.237	3455
2767.124	3404
2769.009	3495
2770.894	3450
2772.779	3424
2774.663	3454
2776.547	3439
2778.431	3382
2780.314	3457
2782.197	3401
2784.078	3398
2785.96	3429
2787.842	3442
2789.723	3383
2791.603	3449
2793.483	3541
2795.362	3388
2797.241	3493
2799.121	3384
2800.997	3471
2802.874	3438
2804.751	3487
2806.628	3336
2808.506	3344
2810.38	3470
2812.255	3434
2814.13	3436
2816.003	3461
2817.878	3423
2819.752	3375
2821.623	3471
2823.496	3492
2825.368	3407
2827.238	3414
2829.111	3426
2830.98	3441
2832.851	3440
2834.719	3378
2836.589	3363
2838.458	3526
2840.327	3424
2842.193	3433
2844.061	3501
2845.927	3502
2847.794	3375
2849.66	3461
2851.525	3484
2853.39	3450
2855.254	3510
2857.117	3499
2858.983	3445
2860.845	3503
2862.707	3486
2864.569	3407
2866.431	3517
2868.293	3540
2870.154	3568
2872.013	3597
2873.873	3617
2875.733	3729
2877.592	3660
2879.451	3730
2881.309	3765
2883.166	3761
2885.022	3849
2886.879	3813
2888.736	3776
2890.591	3787
2892.446	3805
2894.301	3787
2896.155	3843
2898.009	3890
2899.863	3857
2901.716	3767
2903.568	3755
2905.419	3780
2907.27	3773
2909.123	3839
2910.973	3785
2912.824	3772
2914.673	3807
2916.521	3869
2918.372	3843
2920.22	3998
2922.067	4032
2923.914	3985
2925.761	4001
2927.607	4076
2929.455	4045
2931.301	4033
2933.144	4103
2934.99	4149
2936.833	4126
2938.678	4166
2940.522	4288
2942.364	4344
2944.207	4324
2946.048	4357
2947.891	4367
2949.731	4350
2951.571	4311
2953.412	4289
2955.25	4348
2957.09	4234
2958.93	4236
2960.767	4186
2962.606	4125
2964.443	4157
2966.279	4138
2968.116	4016
2969.953	4056
2971.788	4034
2973.623	3955
2975.457	3926
2977.292	3940
2979.127	3905
2980.959	3937
2982.792	3819
2984.624	3852
2986.455	3770
2988.288	3859
2990.119	3817
2991.949	3825
2993.779	3755
2995.608	3646
2997.439	3670
2999.268	3723
3001.096	3630
3002.923	3618
3004.751	3603
3006.578	3628
3008.406	3594
3010.232	3496
3012.057	3510
3013.883	3418
3015.706	3463
3017.532	3428
3019.356	3377
3021.179	3309
3023.002	3382
3024.823	3424
3026.646	3337
3028.469	3370
3030.289	3333
3032.11	3357
3033.93	3404
3035.749	3324
3037.57	3350
3039.39	3332
3041.207	3325
3043.026	3347
3044.842	3328
3046.661	3308
3048.477	3302
3050.294	3260
3052.109	3308
3053.925	3252
3055.739	3301
3057.555	3296
3059.368	3192
3061.181	3310
3062.995	3285
3064.807	3208
3066.62	3294
3068.433	3270
3070.243	3374
3072.054	3227
3073.865	3302
3075.675	3298
3077.485	3287
3079.293	3282
3081.102	3230
3082.911	3279
3084.719	3255
3086.527	3255
3088.333	3203
3090.139	3257
3091.945	3236
3093.75	3255
3095.557	3277
3097.361	3275
3099.165	3200
3100.969	3230
3102.772	3213
3104.575	3265
3106.379	3188
3108.181	3229
3109.982	3230
3111.783	3174
3113.584	3243
3115.386	3214
3117.186	3166
3118.985	3099
3120.783	3132
3122.582	3119
3124.381	3178
3126.179	3114
3127.975	3207
3129.772	3190
3131.569	3197
3133.365	3135
3135.161	3106
3136.956	3161
3138.751	3165
3140.544	3148
3142.338	3108
3144.132	3139
3145.925	3140
3147.717	3158
3149.509	3160
3151.301	3198
3153.091	3113
3154.884	3118
3156.673	3122
3158.462	3131
3160.252	3182
3162.041	3099
3163.831	3145
3165.618	3044
3167.405	3149
3169.193	3126
3170.979	3135
3172.767	3102
3174.553	3152
3176.338	3175
3178.123	3153
3179.907	3124
3181.692	3130
3183.477	3159
3185.259	3087
3187.042	3141
3188.824	3108
3190.607	3139
3192.389	3146
3194.17	3076
3195.951	3071
3197.73	3115
3199.51	3102
3201.289	3162
3203.07	3125
3204.848	3157
3206.626	3123
3208.403	3072
3210.18	3107
3211.959	3104
3213.735	3174
3215.511	3109
3217.285	3178
3219.06	3162
3220.836	3104
3222.611	3155
3224.384	3098
3226.158	3041
3227.929	3122
3229.702	3064
3231.476	3076
3233.248	3119
3235.018	3064
3236.789	3084
3238.56	3086
3240.33	3072
3242.1	3097
3243.869	3102
3245.637	3166
3247.405	3123
3249.172	3108
3250.941	3123
3252.707	3086
3254.474	3155
3256.24	3072
3258.006	3063
3259.772	3125
3261.537	3072
3263.301	3175
3265.065	3081
3266.828	3064
3268.592	3184
3270.355	3090
3272.117	3091
3273.878	3111
3275.64	3114
3277.401	3170
3279.162	3098
3280.922	3141
3282.682	3127
3284.441	3142
3286.199	3015
3287.959	3033
3289.716	3092
3291.475	3111
3293.232	3066
3294.988	3098
3296.744	3129
3298.501	3086
3300.256	3084
3302.011	3182
3303.766	3103
3305.52	3176
3307.275	3100
3309.028	3108
3310.781	3149
3312.533	3087
3314.285	3149
3316.038	3103
3317.789	3025
3319.54	3140
3321.289	3150
3323.039	3074
3324.789	3149
3326.539	3039
3328.288	3095
3330.035	3050
3331.783	3051
3333.531	3106
3335.28	3072
3337.025	3054
3338.771	3088
3340.518	3072
3342.262	3053
3344.009	3107
3345.753	3031
3347.497	3042
3349.24	3084
3350.983	3047
3352.726	3115
3354.469	3079
3356.212	3005
3357.952	3129
3359.694	3050
3361.434	2996
3363.176	3029
3364.916	3080
3366.654	3109
3368.394	2990
3370.132	3057
3371.871	3037
3373.61	2993
3375.346	3046
3377.083	3075
3378.82	2999
3380.556	2974
3382.292	3041
3384.027	3020
3385.763	3043
3387.497	3060
3389.231	3048
3390.965	2984
3392.698	2988
3394.431	2972
3396.164	3024
3397.896	2953
3399.627	3009
3401.36	2926
3403.09	2928
3404.82	2991
3406.55	3043
3408.279	2948
3410.01	2953
3411.738	2907
3413.467	2932
3415.194	2991
3416.92	2982
3418.647	3014
3420.375	2978
3422.102	3027
3423.827	2868
3425.553	2977
3427.277	2999
3429.003	2919
3430.727	2989
3432.451	2932
3434.173	2864
3435.896	2959
3437.62	2909
3439.343	2952
3441.063	2884
3442.785	2910
3444.505	2920
3446.226	2866
3447.948	2947
3449.666	2914
3451.386	2977
3453.104	2904
3454.823	2894
3456.541	2862
3458.259	2904
3459.976	2905
3461.693	2850
3463.408	2870
3465.125	2867
3466.841	2836
3468.556	2819
3470.271	2843
3471.985	2844
3473.698	2824
3475.414	2901
3477.126	2831
3478.838	2843
3480.55	2772
3482.263	2838
3483.975	2862
3485.686	2852
3487.396	2853
3489.106	2867
3490.817	2808
3492.526	2856
3494.236	2829
3495.944	2828
3497.652	2854
3499.359	2762
3501.066	2806
3502.775	2745
3504.481	2718
3506.187	2816
3507.893	2826
3509.598	2774
3511.304	2689
3513.009	2736
3514.713	2767
3516.417	2769
3518.12	2744
3519.821	2836
3521.525	2811
3523.228	2790
3524.929	2773
3526.631	2728
3528.33	2751
3530.032	2712
3531.733	2727
3533.433	2734
3535.131	2728
3536.83	2677
3538.529	2718
3540.227	2770
3541.925	2674
3543.623	2742
3545.319	2660
3547.016	2752
3548.712	2683
3550.408	2766
3552.103	2750
3553.798	2747
3555.491	2723
3557.188	2701
3558.88	2663
3560.574	2709
3562.266	2723
3563.959	2680
3565.651	2743
3567.343	2644
3569.035	2686
3570.725	2680
3572.415	2725
3574.106	2669
3575.797	2716
3577.485	2690
3579.174	2646
3580.863	2715
3582.551	2726
3584.238	2665
3585.926	2615
3587.613	2708
3589.3	2632
3590.986	2684
3592.671	2615
3594.357	2683
3596.042	2628
3597.726	2608
3599.41	2703
3601.094	2611
3602.778	2576
3604.461	2645
3606.143	2602
3607.825	2685
3609.507	2655
3611.188	2617
3612.87	2578
3614.551	2554
3616.229	2619
3617.909	2563
3619.589	2589
3621.269	2573
3622.948	2592
3624.625	2597
3626.302	2576
3627.98	2611
3629.657	2588
3631.334	2570
3633.01	2525
3634.686	2541
3636.361	2514
3638.036	2490
3639.712	2518
3641.385	2544
3643.06	2542
3644.732	2486
3646.405	2555
3648.08	2451
3649.751	2512
3651.424	2521
3653.094	2461
3654.766	2489
3656.436	2591
3658.106	2477
3659.777	2523
3661.446	2465
3663.115	2547
3664.783	2514
3666.452	2534
3668.121	2429
3669.788	2540
3671.454	2514
3673.121	2430
3674.789	2491
3676.455	2472
3678.12	2494
3679.784	2464
3681.45	2446
3683.114	2468
3684.779	2479
3686.442	2498
3688.105	2465
3689.768	2418
3691.43	2444
3693.093	2447
3694.754	2537
3696.415	2460
3698.076	2445
3699.736	2476
3701.396	2414
3703.057	2463
3704.716	2466
3706.375	2409
3708.034	2501
3709.692	2442
3711.351	2407
3713.008	2426
3714.665	2488
3716.321	2467
3717.977	2466
3719.634	2428
3721.29	2415
3722.945	2394
3724.598	2459
3726.253	2482
3727.907	2472
3729.561	2478
3731.214	2419
3732.867	2449
3734.518	2360
3736.171	2374
3737.824	2389
3739.474	2434
3741.125	2399
3742.775	2439
3744.425	2365
3746.074	2439
3747.725	2382
3749.373	2404
3751.022	2349
3752.669	2410
3754.318	2406
3755.966	2442
3757.612	2417
3759.259	2359
3760.905	2428
3762.55	2344
3764.197	2398
3765.842	2350
3767.486	2398
3769.131	2408
3770.774	2384
3772.417	2327
3774.061	2395
3775.705	2411
3777.347	2379
3778.988	2363
3780.629	2357
3782.271	2386
3783.912	2391
3785.552	2367
3787.192	2334
3788.831	2431
3790.472	2299
3792.112	2306
3793.75	2329
3795.388	2315
3797.024	2372
3798.661	2311
3800.3	2343
3801.936	2341
3803.572	2325
3805.208	2389
3806.844	2318
3808.48	2331
3810.115	2343
3811.748	2347
3813.382	2299
3815.016	2345
3816.649	2343
3818.283	2297
3819.914	2351
3821.547	2214
3823.178	2283
3824.809	2321
3826.441	2301
3828.072	2329
3829.701	2223
3831.331	2265
3832.96	2246
3834.591	2209
3836.219	2322
3837.847	2251
3839.475	2313
3841.102	2270
3842.729	2234
3844.357	2268
3845.984	2302
3847.609	2362
3849.234	2271
3850.86	2309
3852.485	2237
3854.11	2246
3855.734	2294
3857.357	2263
3858.981	2309
3860.603	2298
3862.227	2305
3863.848	2233
3865.471	2270
3867.092	2233
3868.713	2261
3870.334	2229
3871.954	2241
3873.575	2266
3875.194	2256
3876.813	2228
3878.433	2259
3880.051	2267
3881.669	2237
3883.286	2196
3884.904	2190
3886.52	2233
3888.138	2260
3889.754	2230
3891.37	2261
3892.985	2155
3894.6	2243
3896.216	2281
3897.831	2222
3899.444	2308
3901.058	2272
3902.67	2230
3904.283	2224
3905.897	2212
3907.509	2269
3909.121	2248
3910.731	2197
3912.342	2324
3913.954	2224
3915.563	2211
3917.174	2223
3918.783	2211
3920.391	2209
3922.002	2200
3923.611	2221
3925.218	2177
3926.826	2255
3928.432	2195
3930.039	2227
3931.647	2192
3933.253	2138
3934.859	2179
3936.464	2240
3938.068	2241
3939.675	2149
3941.278	2143
3942.883	2226
3944.486	2203
3946.089	2227
3947.692	2242
3949.295	2227
3950.898	2223
3952.499	2209
3954.1	2234
3955.7	2184
3957.303	2221
3958.903	2160
3960.502	2229
3962.101	2195
3963.7	2177
3965.301	2138
3966.899	2128
3968.497	2186
3970.094	2184
3971.691	2205
3973.288	2102
3974.885	2175
3976.481	2180
3978.077	2203
3979.672	2144
3981.267	2102
3982.863	2100
3984.457	2147
3986.051	2179
3987.645	2178
3989.238	2101
3990.831	2178
3992.425	2152
3994.017	2113
3995.607	2157
3997.199	2096
3998.79	2081
4000.382	2100
4001.973	2086
4003.561	2079
4005.151	2128
4006.741	2097
4008.331	2106
4009.918	2101
4011.507	2148
4013.095	2032
4014.681	2088
4016.269	2101
4017.856	2091
4019.443	2083
4021.028	2077
4022.614	2052
4024.199	2096
4025.785	2062
4027.37	2081
4028.953	2067
4030.536	2068
4032.12	2074
4033.704	2068
4035.287	2045
4036.869	2079
4038.45	2040
4040.032	2110
4041.613	2070
4043.195	2062
4044.776	2075
4046.356	2083
4047.935	2067
4049.515	2053
4051.095	2047
4052.674	2014
4054.251	2076
4055.829	2055
4057.406	2063
4058.985	2096
4060.562	2026
4062.139	2082
4063.715	1982
4065.29	2091
4066.865	2081
4068.442	2059
4070.016	2046
4071.59	2104
4073.164	2005
4074.738	2082
4076.312	2003
4077.885	2037
4079.458	2025
4081.03	2072
4082.602	1969
4084.173	2046
4085.745	2038
4087.315	2086
4088.886	2038
4090.456	1992
4092.026	2014
4093.596	2016
4095.165	2007
4096.734	2011
4098.301	2001
4099.869	2027
4101.437	2022
4103.006	2019
4104.572	1986
4106.139	1986
4107.704	1994
4109.27	2037
4110.837	2034
4112.401	1967
4113.966	1964
4115.53	1947
4117.094	1985
4118.659	1966
4120.223	1996
4121.785	1987
4123.347	1972
4124.909	1966
4126.471	1923
4128.034	1980
4129.595	1959
4131.155	1930
4132.716	1986
4134.275	1991
4135.836	2009
4137.395	1949
4138.955	1856
4140.513	1945
4142.071	1908
4143.628	1969
4145.188	1984
4146.745	1913
4148.302	1953
4149.858	1911
4151.414	1958
4152.971	1960
4154.526	1916
4156.081	1877
4157.635	1947
4159.189	1921
4160.745	1931
4162.298	1900
4163.852	1868
4165.405	1945
4166.957	1880
4168.51	1933
4170.063	1951
4171.614	1898
4173.166	1885
4174.717	1876
4176.267	1883
4177.817	1912
4179.368	1915
4180.917	1901
4182.466	1876
4184.016	1888
4185.564	1931
4187.112	1857
4188.66	1912
4190.207	1850
4191.754	1889
4193.301	1858
4194.848	1844
4196.394	1866
4197.94	1888
4199.484	1924
4201.03	1939
4202.575	1828
4204.12	1886
4205.663	1905
4207.207	1896
4208.75	1888
4210.292	1869
4211.836	1878
4213.378	1873
4214.92	1857
4216.46	1914
4218.002	1890
4219.544	1852
4221.083	1876
4222.625	1843
4224.164	1862
4225.703	1853
4227.244	1832
4228.782	1875
4230.32	1829
4231.857	1823
4233.395	1854
4234.933	1829
4236.471	1845
4238.007	1817
4239.542	1839
4241.078	1827
4242.614	1793
4244.15	1838
4245.685	1880
4247.219	1827
4248.753	1814
4250.287	1801
4251.82	1811
4253.354	1851
4254.887	1827
4256.419	1801
4257.951	1813
4259.483	1875
4261.016	1801
4262.547	1846
4264.078	1871
4265.608	1870
4267.137	1886
4268.668	1807
4270.197	1827
4271.727	1780
4273.254	1860
4274.783	1829
4276.311	1784
4277.84	1864
4279.366	1818
4280.894	1804
4282.42	1818
4283.946	1830
4285.473	1866
4286.998	1769
4288.523	1831
4290.047	1849
4291.572	1822
4293.096	1790
4294.622	1761
4296.144	1846
4297.668	1777
4299.19	1800
4300.713	1801
4302.236	1757
4303.758	1785
4305.279	1797
4306.799	1795
4308.321	1755
4309.842	1795
4311.361	1786
4312.882	1852
4314.401	1779
