400.0961	3125
402.6185	3188
405.1424	3090
407.6635	3197
410.1838	3213
412.7035	3112
415.2225	3157
417.7388	3156
420.2585	3297
422.7754	3302
425.2917	3251
427.8072	3336
430.3221	3323
432.8363	3290
435.3498	3241
437.8626	3368
440.3727	3338
442.8841	3367
445.3969	3336
447.907	3344
450.4142	3393
452.9229	3333
455.4289	3331
457.9362	3274
460.4449	3304
462.9488	3370
465.454	3321
467.9566	3225
470.4604	3346
472.9637	3327
475.4662	3336
477.966	3430
480.4671	3410
482.9656	3359
485.4633	3377
487.9645	3378
490.4608	3346
492.9566	3336
495.4536	3305
497.948	3400
500.4437	3374
502.9387	3454
505.431	3423
507.9226	3405
510.4136	3492
512.9079	3432
515.3975	3343
517.8864	3459
520.3746	3452
522.8622	3385
525.3491	3468
527.8394	3437
530.3249	3475
532.8098	3416
535.2939	3484
537.7774	3437
540.2623	3425
542.7444	3512
545.2259	3377
547.7067	3387
550.1868	3480
552.6683	3441
555.147	3495
557.6231	3406
560.1005	3463
562.5773	3540
565.0534	3461
567.5308	3465
570.0056	3478
572.4776	3537
574.951	3527
577.4237	3477
579.8978	3638
582.3671	3574
584.8378	3571
587.3079	3547
589.7773	3567
592.244	3605
594.714	3538
597.1793	3562
599.6461	3565
602.1121	3593
604.5754	3504
607.0421	3545
609.5042	3565
611.9675	3529
614.4282	3474
616.8902	3597
619.3515	3585
621.8122	3574
624.2702	3580
626.7296	3568
629.1863	3534
631.6423	3516
634.1017	3506
636.5563	3563
639.0104	3578
641.4658	3528
643.9185	3548
646.3725	3550
648.8239	3503
651.2766	3650
653.7266	3583
656.176	3555
658.6247	3596
661.0748	3621
663.5242	3585
665.9709	3670
668.417	3698
670.8624	3603
673.3092	3600
675.7533	3724
678.1968	3552
680.6395	3655
683.0817	3649
685.5251	3657
687.9659	3635
690.4061	3742
692.8456	3689
695.2844	3756
697.7226	3704
700.1621	3582
702.599	3698
705.0332	3671
707.4688	3754
709.9036	3670
712.3399	3776
714.7735	3777
717.2044	3687
719.6367	3798
722.0683	3767
724.4993	3769
726.9296	3796
729.3593	3810
731.7883	3859
734.2147	3817
736.6423	3753
739.0714	3797
741.4958	3802
743.9216	3869
746.3447	3796
748.7691	3856
751.1929	3817
753.616	3862
756.0366	3799
758.4584	3929
760.8776	3874
763.2982	3851
765.718	3898
768.1373	3852
770.5539	3863
772.9698	3941
775.3871	3864
777.8038	3842
780.2178	3887
782.6332	3914
785.0459	3897
787.458	3951
789.8714	3906
792.2842	3851
794.6943	3920
797.1038	3946
799.5127	3868
801.9209	4009
804.3324	3886
806.7393	3864
809.1456	3971
811.5513	3909
813.9562	4082
816.3625	3991
818.7663	3971
821.1693	3959
823.5718	3920
825.9735	3917
828.3746	3993
830.7771	4036
833.177	4013
835.5762	3967
837.9747	4037
840.3727	3971
842.772	3997
845.1666	3943
847.5626	4048
849.958	4026
852.3527	4080
854.7488	4141
857.1403	4087
859.5331	4090
861.9253	3993
864.3168	4008
866.7057	4078
869.098	4118
871.4876	4050
873.8746	4099
876.263	4090
878.6487	4019
881.0378	4023
883.4243	4058
885.8081	3993
888.1933	4015
890.5759	4022
892.9598	4038
895.343	4015
897.7256	4092
900.1057	3970
902.4871	4007
904.8659	4088
907.246	4082
909.6254	4105
912.0023	4120
914.3786	4155
916.7562	4175
919.1331	4329
921.5074	4352
923.8831	4323
926.2562	4259
928.6287	4345
931.0005	4137
933.3757	4264
935.7462	4254
938.1162	4197
940.4855	4244
942.8542	4303
945.2242	4261
947.5916	4336
949.9584	4458
952.3266	4460
954.6921	4466
957.0571	4614
959.4233	4697
961.787	4757
964.15	4750
966.5125	4637
968.8742	4468
971.2354	4451
973.5959	4398
975.9559	4361
978.3151	4332
980.6738	4223
983.0338	4165
985.3912	4222
987.7461	4217
990.1022	4166
992.4578	4159
994.8127	4144
997.1689	4231
999.5207	4167
1001.874	4191
1004.226	4178
1006.576	4094
1008.929	4191
1011.28	4177
1013.628	4178
1015.977	4104
1018.324	4231
1020.674	4268
1023.019	4233
1025.366	4267
1027.713	4166
1030.056	4206
1032.399	4266
1034.746	4273
1037.087	4173
1039.431	4366
1041.771	4286
1044.113	4329
1046.454	4238
1048.793	4288
1051.133	4155
1053.471	4250
1055.807	4272
1058.146	4205
1060.483	4219
1062.818	4222
1065.153	4352
1067.489	4279
1069.822	4300
1072.156	4382
1074.488	4317
1076.82	4287
1079.15	4262
1081.48	4279
1083.814	4285
1086.143	4435
1088.471	4309
1090.799	4310
1093.126	4310
1095.452	4228
1097.78	4315
1100.105	4289
1102.43	4378
1104.754	4367
1107.077	4245
1109.4	4324
1111.722	4312
1114.044	4288
1116.365	4304
1118.685	4284
1121.005	4322
1123.324	4458
1125.643	4354
1127.961	4401
1130.278	4392
1132.595	4299
1134.911	4348
1137.226	4347
1139.541	4345
1141.854	4393
1144.167	4360
1146.482	4322
1148.793	4261
1151.105	4384
1153.414	4400
1155.725	4284
1158.033	4271
1160.344	4344
1162.651	4313
1164.959	4363
1167.265	4255
1169.572	4302
1171.878	4281
1174.184	4286
1176.488	4403
1178.79	4398
1181.094	4401
1183.396	4449
1185.699	4401
1188.001	4385
1190.301	4268
1192.6	4312
1194.9	4392
1197.2	4416
1199.497	4357
1201.794	4301
1204.09	4321
1206.387	4325
1208.684	4430
1210.978	4366
1213.272	4381
1215.565	4274
1217.858	4426
1220.15	4433
1222.443	4371
1224.734	4459
1227.024	4436
1229.313	4406
1231.602	4554
1233.892	4460
1236.18	4475
1238.467	4438
1240.754	4542
1243.04	4587
1245.325	4640
1247.612	4554
1249.896	4625
1252.178	4522
1254.461	4576
1256.743	4564
1259.027	4508
1261.308	4591
1263.587	4557
1265.867	4597
1268.146	4605
1270.425	4609
1272.703	4483
1274.981	4608
1277.256	4478
1279.532	4513
1281.808	4408
1284.083	4630
1286.358	4544
1288.63	4535
1290.904	4484
1293.175	4475
1295.449	4541
1297.719	4576
1299.99	4466
1302.259	4532
1304.529	4533
1306.798	4488
1309.065	4527
1311.333	4510
1313.599	4473
1315.866	4489
1318.131	4506
1320.396	4536
1322.66	4525
1324.925	4530
1327.187	4527
1329.448	4590
1331.711	4519
1333.974	4622
1336.234	4427
1338.493	4488
1340.752	4543
1343.01	4545
1345.269	4464
1347.526	4502
1349.784	4510
1352.04	4488
1354.295	4421
1356.552	4390
1358.806	4426
1361.059	4546
1363.312	4414
1365.564	4506
1367.818	4526
1370.069	4584
1372.318	4586
1374.568	4498
1376.817	4549
1379.066	4524
1381.316	4617
1383.564	4527
1385.809	4536
1388.056	4624
1390.301	4634
1392.549	4622
1394.793	4705
1397.036	4654
1399.279	4805
1401.522	4755
1403.763	4736
1406.007	4699
1408.248	4737
1410.487	4652
1412.727	4628
1414.965	4706
1417.205	4688
1419.442	4674
1421.68	4726
1423.915	4638
1426.152	4695
1428.388	4851
1430.623	4691
1432.857	4842
1435.091	4692
1437.323	4820
1439.556	4743
1441.789	4714
1444.019	4773
1446.25	4688
1448.48	4797
1450.708	4790
1452.938	4878
1455.167	4906
1457.394	4823
1459.62	4916
1461.846	4887
1464.073	4796
1466.299	4772
1468.523	4764
1470.746	4787
1472.969	4636
1475.191	4591
1477.415	4773
1479.636	4626
1481.858	4534
1484.078	4613
1486.298	4565
1488.518	4607
1490.736	4542
1492.954	4461
1495.169	4449
1497.386	4498
1499.602	4483
1501.819	4509
1504.034	4474
1506.248	4529
1508.462	4538
1510.675	4441
1512.888	4492
1515.1	4550
1517.311	4571
1519.522	4479
1521.732	4548
1523.942	4484
1526.151	4446
1528.36	4604
1530.566	4537
1532.773	4461
1534.98	4503
1537.187	4508
1539.392	4545
1541.596	4555
1543.801	4448
1546.005	4561
1548.208	4554
1550.411	4549
1552.612	4592
1554.814	4569
1557.013	4654
1559.212	4573
1561.414	4565
1563.612	4601
1565.811	4564
1568.007	4663
1570.203	4579
1572.403	4595
1574.598	4629
1576.792	4550
1578.988	4589
1581.181	4568
1583.376	4630
1585.568	4563
1587.761	4580
1589.952	4621
1592.143	4636
1594.333	4628
1596.524	4654
1598.715	4642
1600.903	4609
1603.091	4619
1605.278	4737
1607.466	4608
1609.652	4663
1611.838	4719
1614.023	4663
1616.207	4657
1618.391	4634
1620.576	4645
1622.759	4779
1624.941	4737
1627.123	4711
1629.304	4796
1631.484	4761
1633.664	4728
1635.844	4680
1638.022	4725
1640.201	4690
1642.38	4722
1644.556	4913
1646.732	4756
1648.908	4742
1651.084	4716
1653.257	4663
1655.433	4874
1657.607	4793
1659.779	4914
1661.951	4804
1664.122	4832
1666.295	4780
1668.467	4809
1670.635	4851
1672.805	4744
1674.973	4813
1677.142	4826
1679.31	4824
1681.478	4750
1683.644	4797
1685.81	4691
1687.975	4720
1690.142	4778
1692.305	4692
1694.468	4727
1696.632	4684
1698.794	4627
1700.957	4606
1703.119	4760
1705.279	4699
1707.439	4644
1709.598	4679
1711.758	4744
1713.917	4637
1716.075	4640
1718.231	4615
1720.388	4691
1722.543	4634
1724.702	4673
1726.856	4613
1729.01	4634
1731.164	4569
1733.317	4630
1735.471	4606
1737.623	4640
1739.774	4680
1741.925	4669
1744.075	4766
1746.225	4648
1748.376	4629
1750.524	4663
1752.672	4643
1754.82	4661
1756.965	4671
1759.113	4687
1761.259	4636
1763.405	4677
1765.549	4589
1767.694	4674
1769.836	4623
1771.981	4792
1774.123	4658
1776.264	4619
1778.405	4605
1780.546	4679
1782.687	4718
1784.827	4735
1786.966	4647
1789.103	4707
1791.242	4643
1793.381	4731
1795.517	4723
1797.653	4756
1799.788	4706
1801.923	4657
1804.057	4659
1806.193	4640
1808.326	4762
1810.457	4615
1812.59	4657
1814.721	4661
1816.855	4653
1818.984	4617
1821.113	4572
1823.244	4766
1825.372	4570
1827.499	4656
1829.63	4585
1831.756	4612
1833.882	4681
1836.007	4693
1838.132	4704
1840.26	4739
1842.384	4698
1844.507	4746
1846.63	4711
1848.752	4666
1850.875	4680
1852.996	4740
1855.118	4588
1857.238	4689
1859.358	4665
1861.477	4643
1863.597	4657
1865.715	4550
1867.832	4716
1869.948	4627
1872.064	4645
1874.181	4680
1876.297	4701
1878.411	4638
1880.526	4715
1882.639	4636
1884.752	4673
1886.865	4579
1888.977	4600
1891.089	4838
1893.2	4631
1895.308	4603
1897.42	4722
1899.53	4660
1901.639	4695
1903.745	4690
1905.853	4648
1907.962	4725
1910.067	4683
1912.174	4720
1914.278	4717
1916.383	4681
1918.486	4736
1920.592	4702
1922.694	4767
1924.797	4751
1926.898	4832
1929	4714
1931.102	4717
1933.203	4703
1935.301	4765
1937.401	4658
1939.499	4737
1941.598	4712
1943.697	4765
1945.793	4782
1947.888	4669
1949.985	4744
1952.08	4744
1954.176	4720
1956.269	4738
1958.364	4798
1960.457	4758
1962.549	4697
1964.642	4714
1966.733	4649
1968.823	4728
1970.913	4697
1973.005	4722
1975.093	4761
1977.184	4654
1979.271	4733
1981.359	4723
1983.446	4680
1985.532	4676
1987.619	4738
1989.705	4680
1991.789	4628
1993.874	4715
1995.956	4712
1998.041	4672
2000.123	4672
2002.206	4626
2004.287	4727
2006.368	4708
2008.449	4671
2010.529	4750
2012.609	4746
2014.688	4593
2016.766	4634
2018.843	4594
2020.922	4669
2022.999	4710
2025.074	4623
2027.15	4669
2029.225	4792
2031.299	4727
2033.375	4710
2035.447	4698
2037.52	4697
2039.592	4833
2041.664	4666
2043.736	4697
2045.807	4649
2047.876	4698
2049.947	4736
2052.015	4670
2054.086	4673
2056.153	4652
2058.221	4652
2060.288	4764
2062.353	4777
2064.42	4664
2066.486	4605
2068.55	4760
2070.614	4654
2072.678	4666
2074.741	4690
2076.805	4738
2078.866	4722
2080.929	4621
2082.99	4734
2085.049	4700
2087.109	4710
2089.17	4690
2091.228	4751
2093.286	4615
2095.344	4619
2097.4	4716
2099.46	4660
2101.516	4684
2103.572	4738
2105.626	4654
2107.679	4727
2109.735	4680
2111.788	4639
2113.841	4724
2115.894	4693
2117.945	4642
2119.997	4698
2122.049	4619
2124.1	4683
2126.148	4702
2128.197	4733
2130.246	4723
2132.296	4643
2134.342	4670
2136.39	4735
2138.437	4625
2140.483	4638
2142.527	4695
2144.574	4690
2146.619	4643
2148.661	4680
2150.705	4627
2152.747	4603
2154.792	4657
2156.832	4650
2158.874	4699
2160.915	4608
2162.954	4618
2164.995	4705
2167.034	4662
2169.072	4548
2171.111	4580
2173.148	4610
2175.186	4640
2177.223	4690
2179.258	4630
2181.294	4619
2183.328	4636
2185.362	4634
2187.398	4697
2189.431	4672
2191.463	4631
2193.495	4644
2195.528	4550
2197.56	4672
2199.59	4597
2201.62	4656
2203.649	4521
2205.678	4572
2207.708	4585
2209.737	4598
2211.764	4581
2213.791	4537
2215.817	4571
2217.843	4591
2219.87	4540
2221.895	4613
2223.919	4532
2225.942	4589
2227.966	4444
2229.988	4560
2232.012	4468
2234.032	4591
2236.054	4470
2238.074	4625
2240.095	4476
2242.116	4626
2244.135	4563
2246.153	4583
2248.171	4576
2250.188	4444
2252.208	4624
2254.223	4594
2256.239	4620
2258.255	4555
2260.269	4709
2262.283	4591
2264.3	4644
2266.312	4581
2268.325	4552
2270.336	4546
2272.349	4645
2274.362	4587
2276.372	4610
2278.383	4556
2280.392	4502
2282.402	4524
2284.409	4539
2286.418	4632
2288.427	4556
2290.433	4514
2292.441	4549
2294.446	4482
2296.453	4603
2298.459	4556
2300.463	4593
2302.466	4615
2304.471	4507
2306.475	4569
2308.477	4572
2310.478	4486
2312.481	4498
2314.481	4562
2316.481	4587
2318.482	4585
2320.482	4587
2322.48	4560
2324.48	4514
2326.478	4499
2328.476	4509
2330.473	4537
2332.469	4551
2334.465	4497
2336.46	4503
2338.454	4430
2340.45	4546
2342.444	4524
2344.437	4479
2346.43	4535
2348.421	4500
2350.414	4533
2352.405	4539
2354.396	4515
2356.386	4425
2358.376	4413
2360.366	4560
2362.355	4434
2364.343	4538
2366.331	4326
2368.317	4329
2370.304	4462
2372.292	4439
2374.278	4469
2376.262	4368
2378.247	4432
2380.23	4433
2382.216	4482
2384.199	4430
2386.181	4507
2388.163	4422
2390.144	4520
2392.127	4451
2394.107	4472
2396.087	4479
2398.066	4434
2400.046	4424
2402.023	4455
2404.004	4470
2405.981	4426
2407.957	4520
2409.934	4436
2411.91	4409
2413.886	4473
2415.862	4468
2417.836	4414
2419.809	4428
2421.784	4435
2423.756	4410
2425.73	4489
2427.701	4398
2429.672	4592
2431.644	4444
2433.615	4407
2435.586	4446
2437.555	4370
2439.523	4426
2441.491	4388
2443.459	4370
2445.428	4432
2447.395	4434
2449.361	4454
2451.327	4418
2453.292	4469
2455.257	4403
2457.223	4439
2459.187	4357
2461.15	4386
2463.113	4381
2465.076	4401
2467.039	4391
2468.999	4394
2470.96	4339
2472.921	4351
2474.881	4405
2476.841	4327
2478.8	4280
2480.759	4367
2482.717	4316
2484.675	4336
2486.63	4331
2488.589	4389
2490.545	4310
2492.5	4373
2494.455	4405
2496.408	4396
2498.364	4380
2500.318	4332
2502.27	4364
2504.223	4371
2506.174	4288
2508.126	4394
2510.078	4321
2512.03	4208
2513.979	4318
2515.927	4229
2517.877	4356
2519.826	4360
2521.775	4291
2523.722	4288
2525.668	4339
2527.616	4271
2529.561	4359
2531.508	4350
2533.452	4316
2535.398	4361
2537.342	4351
2539.284	4296
2541.229	4329
2543.173	4293
2545.114	4328
2547.055	4377
2548.996	4343
2550.938	4347
2552.878	4365
2554.817	4346
2556.756	4374
2558.695	4347
2560.633	4236
2562.572	4271
2564.509	4200
2566.445	4223
2568.382	4362
2570.317	4332
2572.254	4353
2574.189	4407
2576.123	4275
2578.057	4272
2579.99	4226
2581.923	4389
2583.855	4281
2585.788	4405
2587.719	4370
2589.65	4436
2591.579	4340
2593.511	4292
2595.44	4382
2597.37	4233
2599.297	4411
2601.225	4311
2603.153	4351
2605.08	4352
2607.007	4283
2608.932	4368
2610.858	4273
2612.782	4303
2614.709	4240
2616.632	4297
2618.556	4310
2620.478	4374
2622.401	4369
2624.324	4353
2626.247	4307
2628.167	4361
2630.088	4430
2632.008	4411
2633.928	4342
2635.848	4379
2637.766	4309
2639.684	4501
2641.603	4353
2643.519	4337
2645.437	4327
2647.353	4348
2649.27	4342
2651.184	4374
2653.099	4302
2655.014	4377
2656.928	4254
2658.842	4417
2660.755	4204
2662.667	4354
2664.579	4328
2666.491	4279
2668.402	4373
2670.312	4347
2672.222	4306
2674.132	4378
2676.042	4274
2677.951	4320
2679.859	4367
2681.766	4292
2683.674	4381
2685.582	4379
2687.488	4269
2689.392	4257
2691.298	4332
2693.202	4329
2695.107	4270
2697.012	4203
2698.914	4292
2700.817	4187
2702.72	4217
2704.622	4238
2706.524	4252
2708.425	4291
2710.326	4349
2712.225	4303
2714.125	4258
2716.024	4321
2717.923	4231
2719.822	4330
2721.719	4252
2723.616	4299
2725.512	4269
2727.41	4249
2729.305	4249
2731.201	4322
2733.095	4247
2734.99	4224
2736.884	4247
2738.778	4274
2740.67	4247
2742.562	4228
2744.455	4222
2746.346	4280
2748.238	4250
2750.129	4280
2752.018	4296
2753.907	4139
2755.797	4283
2757.687	4241
2759.575	4229
2761.462	4371
2763.349	4094
2765.237	4248
2767.124	4275
2769.009	4181
2770.894	4236
2772.779	4292
2774.663	4235
2776.547	4241
2778.431	4267
2780.314	4263
2782.197	4174
2784.078	4202
2785.96	4163
2787.842	4222
2789.723	4186
2791.603	4167
2793.483	4210
2795.362	4160
2797.241	4189
2799.121	4291
2800.997	4208
2802.874	4230
2804.751	4200
2806.628	4260
2808.506	4184
2810.38	4149
2812.255	4255
2814.13	4167
2816.003	4222
2817.878	4228
2819.752	4270
2821.623	4180
2823.496	4296
2825.368	4183
2827.238	4191
2829.111	4185
2830.98	4194
2832.851	4190
2834.719	4200
2836.589	4207
2838.458	4219
2840.327	4238
2842.193	4332
2844.061	4248
2845.927	4263
2847.794	4350
2849.66	4326
2851.525	4321
2853.39	4265
2855.254	4278
2857.117	4296
2858.983	4303
2860.845	4435
2862.707	4424
2864.569	4515
2866.431	4444
2868.293	4424
2870.154	4448
2872.013	4528
2873.873	4497
2875.733	4519
2877.592	4506
2879.451	4509
2881.309	4670
2883.166	4647
2885.022	4747
2886.879	4738
2888.736	4732
2890.591	4749
2892.446	4801
2894.301	4803
2896.155	4774
2898.009	4762
2899.863	4811
2901.716	4771
2903.568	4774
2905.419	4643
2907.27	4694
2909.123	4767
2910.973	4729
2912.824	4724
2914.673	4784
2916.521	4912
2918.372	4850
2920.22	4906
2922.067	4974
2923.914	4931
2925.761	4933
2927.607	4997
2929.455	5099
2931.301	5170
2933.144	4971
2934.99	5109
2936.833	5133
2938.678	5140
2940.522	5185
2942.364	5325
2944.207	5327
2946.048	5369
2947.891	5489
2949.731	5509
2951.571	5645
2953.412	5566
2955.25	5426
2957.09	5444
2958.93	5449
2960.767	5285
2962.606	5214
2964.443	5207
2966.279	5250
2968.116	5240
2969.953	5005
2971.788	4998
2973.623	5032
2975.457	4910
2977.292	4773
2979.127	4767
2980.959	4871
2982.792	4735
2984.624	4690
2986.455	4641
2988.288	4628
2990.119	4584
2991.949	4645
2993.779	4644
2995.608	4563
2997.439	4524
2999.268	4499
3001.096	4420
3002.923	4411
3004.751	4360
3006.578	4426
3008.406	4309
3010.232	4207
3012.057	4232
3013.883	4227
3015.706	4235
3017.532	4202
3019.356	4117
3021.179	4162
3023.002	4135
3024.823	4078
3026.646	4031
3028.469	4070
3030.289	4133
3032.11	4032
3033.93	4105
3035.749	4046
3037.57	4100
3039.39	4016
3041.207	4063
3043.026	4044
3044.842	4046
3046.661	4083
3048.477	3967
3050.294	3996
3052.109	4021
3053.925	3923
3055.739	4020
3057.555	3952
3059.368	4078
3061.181	4025
3062.995	4057
3064.807	4014
3066.62	3968
3068.433	4057
3070.243	3932
3072.054	4011
3073.865	3945
3075.675	4010
3077.485	3876
3079.293	3978
3081.102	3986
3082.911	3926
3084.719	3946
3086.527	3951
3088.333	3999
3090.139	3998
3091.945	3882
3093.75	3992
3095.557	3838
3097.361	3914
3099.165	3918
3100.969	3908
3102.772	3919
3104.575	3922
3106.379	3909
3108.181	3875
3109.982	3969
3111.783	4017
3113.584	3856
3115.386	3901
3117.186	3950
3118.985	3920
3120.783	3892
3122.582	3944
3124.381	3890
3126.179	3825
3127.975	3786
3129.772	3900
3131.569	3805
3133.365	3881
3135.161	3848
3136.956	3803
3138.751	3748
3140.544	3745
3142.338	3828
3144.132	3811
3145.925	3864
3147.717	3815
3149.509	3781
3151.301	3833
3153.091	3796
3154.884	3731
3156.673	3760
3158.462	3797
3160.252	3846
3162.041	3782
3163.831	3769
3165.618	3742
3167.405	3761
3169.193	3743
3170.979	3817
3172.767	3785
3174.553	3751
3176.338	3731
3178.123	3689
3179.907	3804
3181.692	3786
3183.477	3757
3185.259	3783
3187.042	3767
3188.824	3808
3190.607	3772
3192.389	3769
3194.17	3833
3195.951	3711
3197.73	3728
3199.51	3788
3201.289	3718
3203.07	3710
3204.848	3692
3206.626	3787
3208.403	3774
3210.18	3751
3211.959	3731
3213.735	3691
3215.511	3726
3217.285	3735
3219.06	3766
3220.836	3661
3222.611	3796
3224.384	3715
3226.158	3729
3227.929	3674
3229.702	3829
3231.476	3713
3233.248	3719
3235.018	3743
3236.789	3802
3238.56	3692
3240.33	3723
3242.1	3650
3243.869	3738
3245.637	3662
3247.405	3650
3249.172	3677
3250.941	3740
3252.707	3732
3254.474	3747
3256.24	3760
3258.006	3653
3259.772	3697
3261.537	3751
3263.301	3682
3265.065	3794
3266.828	3728
3268.592	3715
3270.355	3747
3272.117	3714
3273.878	3680
3275.64	3719
3277.401	3705
3279.162	3721
3280.922	3689
3282.682	3754
3284.441	3776
3286.199	3733
3287.959	3749
3289.716	3699
3291.475	3767
3293.232	3737
3294.988	3716
3296.744	3693
3298.501	3697
3300.256	3646
3302.011	3691
3303.766	3714
3305.52	3713
3307.275	3673
3309.028	3810
3310.781	3794
3312.533	3790
3314.285	3697
3316.038	3697
3317.789	3663
3319.54	3618
3321.289	3661
3323.039	3645
3324.789	3647
3326.539	3754
3328.288	3676
3330.035	3742
3331.783	3698
3333.531	3634
3335.28	3670
3337.025	3706
3338.771	3680
3340.518	3726
3342.262	3732
3344.009	3653
3345.753	3635
3347.497	3569
3349.24	3634
3350.983	3583
3352.726	3705
3354.469	3607
3356.212	3628
3357.952	3692
3359.694	3642
3361.434	3642
3363.176	3644
3364.916	3714
3366.654	3623
3368.394	3649
3370.132	3607
3371.871	3605
3373.61	3648
3375.346	3592
3377.083	3607
3378.82	3647
3380.556	3619
3382.292	3600
3384.027	3647
3385.763	3616
3387.497	3594
3389.231	3564
3390.965	3587
3392.698	3545
3394.431	3554
3396.164	3547
3397.896	3703
3399.627	3525
3401.36	3557
3403.09	3522
3404.82	3434
3406.55	3529
3408.279	3533
3410.01	3544
3411.738	3521
3413.467	3595
3415.194	3564
3416.92	3539
3418.647	3570
3420.375	3493
3422.102	3514
3423.827	3496
3425.553	3464
3427.277	3466
3429.003	3513
3430.727	3572
3432.451	3429
3434.173	3542
3435.896	3458
3437.62	3476
3439.343	3463
3441.063	3468
3442.785	3479
3444.505	3394
3446.226	3402
3447.948	3529
3449.666	3429
3451.386	3460
3453.104	3502
3454.823	3464
3456.541	3458
3458.259	3455
3459.976	3356
3461.693	3391
3463.408	3372
3465.125	3390
3466.841	3425
3468.556	3445
3470.271	3429
3471.985	3430
3473.698	3429
3475.414	3402
3477.126	3389
3478.838	3371
3480.55	3316
3482.263	3414
3483.975	3362
3485.686	3357
3487.396	3403
3489.106	3372
3490.817	3362
3492.526	3376
3494.236	3310
3495.944	3406
3497.652	3405
3499.359	3315
3501.066	3297
3502.775	3279
3504.481	3344
3506.187	3272
3507.893	3232
3509.598	3256
3511.304	3378
3513.009	3182
3514.713	3252
3516.417	3282
3518.12	3248
3519.821	3297
3521.525	3279
3523.228	3269
3524.929	3274
3526.631	3264
3528.33	3205
3530.032	3254
3531.733	3219
3533.433	3292
3535.131	3223
3536.83	3247
3538.529	3185
3540.227	3262
3541.925	3236
3543.623	3246
3545.319	3241
3547.016	3201
3548.712	3168
3550.408	3164
3552.103	3164
3553.798	3215
3555.491	3195
3557.188	3136
3558.88	3194
3560.574	3171
3562.266	3108
3563.959	3198
3565.651	3208
3567.343	3199
3569.035	3140
3570.725	3177
3572.415	3177
3574.106	3208
3575.797	3099
3577.485	3182
3579.174	3151
3580.863	3199
3582.551	3145
3584.238	3217
3585.926	3096
3587.613	3193
3589.3	3114
3590.986	3103
3592.671	3136
3594.357	3155
3596.042	3069
3597.726	3079
3599.41	3076
3601.094	3076
3602.778	3060
3604.461	3117
3606.143	3059
3607.825	3075
3609.507	3054
3611.188	3078
3612.87	3052
3614.551	3088
3616.229	3032
3617.909	3061
3619.589	3048
3621.269	3003
3622.948	3082
3624.625	3044
3626.302	3028
3627.98	3030
3629.657	3061
3631.334	3060
3633.01	2994
3634.686	3001
3636.361	3010
3638.036	2948
3639.712	2941
3641.385	2952
3643.06	2986
3644.732	2977
3646.405	2933
3648.08	2978
3649.751	2996
3651.424	2946
3653.094	2991
3654.766	3049
3656.436	2959
3658.106	2952
3659.777	2982
3661.446	2933
3663.115	2992
3664.783	2927
3666.452	3003
3668.121	2958
3669.788	2973
3671.454	2924
3673.121	2937
3674.789	2887
3676.455	2878
3678.12	2920
3679.784	2930
3681.45	2952
3683.114	2957
3684.779	2944
3686.442	2952
3688.105	2915
3689.768	2879
3691.43	2957
3693.093	2930
3694.754	2844
3696.415	2910
3698.076	2980
3699.736	2978
3701.396	2868
3703.057	2919
3704.716	2884
3706.375	2938
3708.034	2923
3709.692	2900
3711.351	2839
3713.008	2900
3714.665	2893
3716.321	2878
3717.977	2914
3719.634	2900
3721.29	2858
3722.945	2925
3724.598	2819
3726.253	2852
3727.907	2871
3729.561	2880
3731.214	2859
3732.867	2885
3734.518	2909
3736.171	2811
3737.824	2819
3739.474	2866
3741.125	2876
3742.775	2929
3744.425	2867
3746.074	2790
3747.725	2847
3749.373	2802
3751.022	2869
3752.669	2825
3754.318	2860
3755.966	2807
3757.612	2836
3759.259	2792
3760.905	2807
3762.55	2837
3764.197	2789
3765.842	2816
3767.486	2741
3769.131	2786
3770.774	2832
3772.417	2736
3774.061	2777
3775.705	2832
3777.347	2779
3778.988	2727
3780.629	2768
3782.271	2774
3783.912	2793
3785.552	2785
3787.192	2752
3788.831	2749
3790.472	2819
3792.112	2794
3793.75	2679
3795.388	2734
3797.024	2779
3798.661	2725
3800.3	2751
3801.936	2735
3803.572	2764
3805.208	2727
3806.844	2742
3808.48	2753
3810.115	2730
3811.748	2684
3813.382	2759
3815.016	2713
3816.649	2780
3818.283	2699
3819.914	2736
3821.547	2727
3823.178	2706
3824.809	2723
3826.441	2657
3828.072	2737
3829.701	2693
3831.331	2709
3832.96	2762
3834.591	2646
3836.219	2674
3837.847	2656
3839.475	2665
3841.102	2700
3842.729	2741
3844.357	2746
3845.984	2654
3847.609	2618
3849.234	2672
3850.86	2617
3852.485	2655
3854.11	2688
3855.734	2680
3857.357	2674
3858.981	2664
3860.603	2650
3862.227	2665
3863.848	2612
3865.471	2636
3867.092	2640
3868.713	2680
3870.334	2632
3871.954	2611
3873.575	2576
3875.194	2639
3876.813	2635
3878.433	2527
3880.051	2671
3881.669	2598
3883.286	2664
3884.904	2594
3886.52	2575
3888.138	2599
3889.754	2638
3891.37	2686
3892.985	2624
3894.6	2622
3896.216	2675
3897.831	2510
3899.444	2613
3901.058	2594
3902.67	2636
3904.283	2601
3905.897	2588
3907.509	2620
3909.121	2599
3910.731	2609
3912.342	2562
3913.954	2545
3915.563	2623
3917.174	2544
3918.783	2577
3920.391	2595
3922.002	2656
3923.611	2641
3925.218	2634
3926.826	2611
3928.432	2564
3930.039	2528
3931.647	2554
3933.253	2537
3934.859	2547
3936.464	2622
3938.068	2629
3939.675	2605
3941.278	2560
3942.883	2638
3944.486	2575
3946.089	2668
3947.692	2555
3949.295	2572
3950.898	2588
3952.499	2594
3954.1	2541
3955.7	2470
3957.303	2599
3958.903	2560
3960.502	2552
3962.101	2604
3963.7	2509
3965.301	2497
3966.899	2492
3968.497	2545
3970.094	2534
3971.691	2483
3973.288	2558
3974.885	2483
3976.481	2516
3978.077	2567
3979.672	2498
3981.267	2495
3982.863	2507
3984.457	2447
3986.051	2505
3987.645	2478
3989.238	2519
3990.831	2500
3992.425	2431
3994.017	2511
3995.607	2530
3997.199	2464
3998.79	2405
4000.382	2505
4001.973	2457
4003.561	2456
4005.151	2492
4006.741	2361
4008.331	2452
4009.918	2492
4011.507	2471
4013.095	2417
4014.681	2452
4016.269	2460
4017.856	2442
4019.443	2376
4021.028	2419
4022.614	2374
4024.199	2498
4025.785	2454
4027.37	2452
4028.953	2392
4030.536	2393
4032.12	2445
4033.704	2440
4035.287	2364
4036.869	2433
4038.45	2381
4040.032	2391
4041.613	2340
4043.195	2467
4044.776	2361
4046.356	2426
4047.935	2344
4049.515	2395
4051.095	2388
4052.674	2382
4054.251	2380
4055.829	2389
4057.406	2305
4058.985	2416
4060.562	2421
4062.139	2243
4063.715	2377
4065.29	2329
4066.865	2386
4068.442	2342
4070.016	2365
4071.59	2375
4073.164	2370
4074.738	2364
4076.312	2400
4077.885	2272
4079.458	2321
4081.03	2360
4082.602	2337
4084.173	2329
4085.745	2335
4087.315	2365
4088.886	2327
4090.456	2382
4092.026	2299
4093.596	2301
4095.165	2386
4096.734	2399
4098.301	2351
4099.869	2334
4101.437	2324
4103.006	2285
4104.572	2361
4106.139	2337
4107.704	2307
4109.27	2264
4110.837	2262
4112.401	2274
4113.966	2282
4115.53	2304
4117.094	2277
4118.659	2287
4120.223	2348
4121.785	2286
4123.347	2315
4124.909	2309
4126.471	2229
4128.034	2327
4129.595	2238
4131.155	2289
4132.716	2261
4134.275	2241
4135.836	2272
4137.395	2289
4138.955	2268
4140.513	2226
4142.071	2213
4143.628	2240
4145.188	2266
4146.745	2310
4148.302	2208
4149.858	2247
4151.414	2188
4152.971	2228
4154.526	2308
4156.081	2266
4157.635	2274
4159.189	2197
4160.745	2230
4162.298	2195
4163.852	2186
4165.405	2220
4166.957	2166
4168.51	2171
4170.063	2200
4171.614	2197
4173.166	2305
4174.717	2190
4176.267	2167
4177.817	2248
4179.368	2191
4180.917	2216
4182.466	2124
4184.016	2131
4185.564	2167
4187.112	2223
4188.66	2187
4190.207	2212
4191.754	2160
4193.301	2178
4194.848	2184
4196.394	2132
4197.94	2179
4199.484	2155
4201.03	2159
4202.575	2169
4204.12	2137
4205.663	2205
4207.207	2219
4208.75	2213
4210.292	2162
4211.836	2111
4213.378	2130
4214.92	2154
4216.46	2111
4218.002	2164
4219.544	2154
4221.083	2244
4222.625	2184
4224.164	2200
4225.703	2117
4227.244	2150
4228.782	2182
4230.32	2109
4231.857	2176
4233.395	2154
4234.933	2160
4236.471	2099
4238.007	2162
4239.542	2112
4241.078	2126
4242.614	2112
4244.15	2155
4245.685	2126
4247.219	2144
4248.753	2155
4250.287	2155
4251.82	2127
4253.354	2145
4254.887	2132
4256.419	2077
4257.951	2091
4259.483	2158
4261.016	2100
4262.547	2093
4264.078	2062
4265.608	2080
4267.137	2032
4268.668	2073
4270.197	2109
4271.727	2113
4273.254	2070
4274.783	2082
4276.311	2131
4277.84	2104
4279.366	2116
4280.894	2110
4282.42	2118
4283.946	2045
4285.473	2053
4286.998	2035
4288.523	2075
4290.047	2058
4291.572	1991
4293.096	2072
4294.622	2062
4296.144	2007
4297.668	2019
4299.19	2029
4300.713	2067
4302.236	2052
4303.758	2039
4305.279	2045
4306.799	2085
4308.321	2026
4309.842	2066
4311.361	2089
4312.882	2045
4314.401	2005
