400.0961	2422
402.6185	2362
405.1424	2418
407.6635	2436
410.1838	2416
412.7035	2451
415.2225	2476
417.7388	2443
420.2585	2455
422.7754	2483
425.2917	2621
427.8072	2549
430.3221	2597
432.8363	2586
435.3498	2580
437.8626	2587
440.3727	2649
442.8841	2582
445.3969	2622
447.907	2600
450.4142	2646
452.9229	2565
455.4289	2606
457.9362	2595
460.4449	2584
462.9488	2506
465.454	2590
467.9566	2527
470.4604	2622
472.9637	2613
475.4662	2565
477.966	2575
480.4671	2564
482.9656	2555
485.4633	2629
487.9645	2623
490.4608	2533
492.9566	2567
495.4536	2616
497.948	2667
500.4437	2590
502.9387	2574
505.431	2660
507.9226	2626
510.4136	2683
512.9079	2633
515.3975	2582
517.8864	2646
520.3746	2636
522.8622	2615
525.3491	2689
527.8394	2635
530.3249	2674
532.8098	2655
535.2939	2654
537.7774	2672
540.2623	2683
542.7444	2713
545.2259	2687
547.7067	2669
550.1868	2657
552.6683	2659
555.147	2680
557.6231	2625
560.1005	2724
562.5773	2669
565.0534	2672
567.5308	2743
570.0056	2720
572.4776	2680
574.951	2731
577.4237	2743
579.8978	2759
582.3671	2759
584.8378	2786
587.3079	2796
589.7773	2747
592.244	2783
594.714	2804
597.1793	2791
599.6461	2734
602.1121	2757
604.5754	2769
607.0421	2752
609.5042	2669
611.9675	2733
614.4282	2682
616.8902	2771
619.3515	2756
621.8122	2765
624.2702	2805
626.7296	2748
629.1863	2689
631.6423	2720
634.1017	2725
636.5563	2766
639.0104	2690
641.4658	2715
643.9185	2670
646.3725	2637
648.8239	2756
651.2766	2742
653.7266	2682
656.176	2761
658.6247	2668
661.0748	2735
663.5242	2791
665.9709	2771
668.417	2822
670.8624	2787
673.3092	2728
675.7533	2845
678.1968	2752
680.6395	2798
683.0817	2774
685.5251	2779
687.9659	2767
690.4061	2796
692.8456	2835
695.2844	2712
697.7226	2843
700.1621	2816
702.599	2767
705.0332	2817
707.4688	2830
709.9036	2772
712.3399	2805
714.7735	2736
717.2044	2823
719.6367	2886
722.0683	2878
724.4993	2895
726.9296	2846
729.3593	2878
731.7883	2981
734.2147	2903
736.6423	2969
739.0714	2882
741.4958	2850
743.9216	2896
746.3447	2924
748.7691	2944
751.1929	2975
753.616	2979
756.0366	2922
758.4584	3020
760.8776	3007
763.2982	2979
765.718	2876
768.1373	2952
770.5539	3048
772.9698	3015
775.3871	2914
777.8038	2963
780.2178	2960
782.6332	3012
785.0459	3045
787.458	2995
789.8714	2952
792.2842	3000
794.6943	2936
797.1038	2983
799.5127	3052
801.9209	3032
804.3324	2956
806.7393	2994
809.1456	3033
811.5513	3032
813.9562	3043
816.3625	3090
818.7663	3046
821.1693	3035
823.5718	3008
825.9735	3049
828.3746	3014
830.7771	3083
833.177	3099
835.5762	3017
837.9747	3104
840.3727	3044
842.772	3056
845.1666	3102
847.5626	3073
849.958	3090
852.3527	3121
854.7488	3193
857.1403	3108
859.5331	3136
861.9253	3042
864.3168	3119
866.7057	3074
869.098	3041
871.4876	3078
873.8746	3038
876.263	3105
878.6487	3078
881.0378	3040
883.4243	3130
885.8081	3082
888.1933	3072
890.5759	3096
892.9598	3044
895.343	3101
897.7256	3145
900.1057	3092
902.4871	3067
904.8659	3120
907.246	3250
909.6254	3100
912.0023	3189
914.3786	3169
916.7562	3226
919.1331	3280
921.5074	3267
923.8831	3296
926.2562	3253
928.6287	3360
931.0005	3317
933.3757	3273
935.7462	3279
938.1162	3291
940.4855	3373
942.8542	3379
945.2242	3402
947.5916	3490
949.9584	3545
952.3266	3684
954.6921	3822
957.0571	3972
959.4233	4120
961.787	4282
964.15	4106
966.5125	3996
968.8742	3894
971.2354	3699
973.5959	3653
975.9559	3536
978.3151	3402
980.6738	3311
983.0338	3228
985.3912	3251
987.7461	3253
990.1022	3222
992.4578	3194
994.8127	3183
997.1689	3287
999.5207	3182
1001.874	3234
1004.226	3287
1006.576	3264
1008.929	3287
1011.28	3215
1013.628	3192
1015.977	3294
1018.324	3235
1020.674	3240
1023.019	3259
1025.366	3278
1027.713	3191
1030.056	3274
1032.399	3303
1034.746	3355
1037.087	3282
1039.431	3297
1041.771	3307
1044.113	3260
1046.454	3252
1048.793	3328
1051.133	3347
1053.471	3337
1055.807	3344
1058.146	3287
1060.483	3205
1062.818	3390
1065.153	3389
1067.489	3417
1069.822	3412
1072.156	3485
1074.488	3397
1076.82	3428
1079.15	3334
1081.48	3296
1083.814	3374
1086.143	3362
1088.471	3373
1090.799	3338
1093.126	3312
1095.452	3331
1097.78	3286
1100.105	3313
1102.43	3281
1104.754	3298
1107.077	3256
1109.4	3323
1111.722	3293
1114.044	3291
1116.365	3281
1118.685	3283
1121.005	3325
1123.324	3326
1125.643	3316
1127.961	3321
1130.278	3258
1132.595	3325
1134.911	3291
1137.226	3340
1139.541	3305
1141.854	3438
1144.167	3321
1146.482	3258
1148.793	3334
1151.105	3278
1153.414	3255
1155.725	3276
1158.033	3328
1160.344	3307
1162.651	3362
1164.959	3281
1167.265	3330
1169.572	3320
1171.878	3349
1174.184	3307
1176.488	3310
1178.79	3378
1181.094	3381
1183.396	3374
1185.699	3306
1188.001	3294
1190.301	3396
1192.6	3344
1194.9	3345
1197.2	3349
1199.497	3347
1201.794	3309
1204.09	3301
1206.387	3354
1208.684	3340
1210.978	3400
1213.272	3296
1215.565	3310
1217.858	3352
1220.15	3314
1222.443	3290
1224.734	3429
1227.024	3386
1229.313	3394
1231.602	3391
1233.892	3432
1236.18	3411
1238.467	3479
1240.754	3473
1243.04	3509
1245.325	3418
1247.612	3524
1249.896	3537
1252.178	3486
1254.461	3486
1256.743	3468
1259.027	3527
1261.308	3432
1263.587	3411
1265.867	3486
1268.146	3478
1270.425	3413
1272.703	3471
1274.981	3485
1277.256	3500
1279.532	3551
1281.808	3423
1284.083	3379
1286.358	3445
1288.63	3459
1290.904	3474
1293.175	3444
1295.449	3396
1297.719	3446
1299.99	3456
1302.259	3500
1304.529	3414
1306.798	3409
1309.065	3475
1311.333	3404
1313.599	3433
1315.866	3354
1318.131	3449
1320.396	3411
1322.66	3360
1324.925	3580
1327.187	3406
1329.448	3492
1331.711	3413
1333.974	3496
1336.234	3431
1338.493	3436
1340.752	3414
1343.01	3526
1345.269	3452
1347.526	3407
1349.784	3406
1352.04	3403
1354.295	3466
1356.552	3441
1358.806	3354
1361.059	3433
1363.312	3413
1365.564	3412
1367.818	3376
1370.069	3478
1372.318	3499
1374.568	3394
1376.817	3523
1379.066	3424
1381.316	3414
1383.564	3467
1385.809	3476
1388.056	3485
1390.301	3508
1392.549	3439
1394.793	3499
1397.036	3559
1399.279	3629
1401.522	3588
1403.763	3543
1406.007	3568
1408.248	3628
1410.487	3653
1412.727	3632
1414.965	3602
1417.205	3544
1419.442	3713
1421.68	3596
1423.915	3526
1426.152	3592
1428.388	3514
1430.623	3587
1432.857	3591
1435.091	3547
1437.323	3617
1439.556	3629
1441.789	3632
1444.019	3725
1446.25	3668
1448.48	3700
1450.708	3650
1452.938	3611
1455.167	3644
1457.394	3646
1459.62	3680
1461.846	3606
1464.073	3651
1466.299	3573
1468.523	3561
1470.746	3650
1472.969	3545
1475.191	3510
1477.415	3622
1479.636	3504
1481.858	3564
1484.078	3511
1486.298	3521
1488.518	3463
1490.736	3456
1492.954	3517
1495.169	3470
1497.386	3580
1499.602	3454
1501.819	3483
1504.034	3454
1506.248	3401
1508.462	3439
1510.675	3430
1512.888	3422
1515.1	3408
1517.311	3461
1519.522	3436
1521.732	3504
1523.942	3437
1526.151	3480
1528.36	3541
1530.566	3523
1532.773	3470
1534.98	3444
1537.187	3480
1539.392	3502
1541.596	3447
1543.801	3483
1546.005	3463
1548.208	3474
1550.411	3465
1552.612	3565
1554.814	3539
1557.013	3516
1559.212	3540
1561.414	3533
1563.612	3497
1565.811	3524
1568.007	3551
1570.203	3483
1572.403	3592
1574.598	3554
1576.792	3562
1578.988	3506
1581.181	3534
1583.376	3623
1585.568	3554
1587.761	3681
1589.952	3603
1592.143	3603
1594.333	3668
1596.524	3606
1598.715	3550
1600.903	3584
1603.091	3590
1605.278	3630
1607.466	3603
1609.652	3570
1611.838	3652
1614.023	3596
1616.207	3604
1618.391	3588
1620.576	3588
1622.759	3685
1624.941	3543
1627.123	3577
1629.304	3664
1631.484	3624
1633.664	3614
1635.844	3673
1638.022	3696
1640.201	3656
1642.38	3670
1644.556	3715
1646.732	3638
1648.908	3584
1651.084	3643
1653.257	3560
1655.433	3716
1657.607	3616
1659.779	3730
1661.951	3620
1664.122	3741
1666.295	3646
1668.467	3740
1670.635	3687
1672.805	3745
1674.973	3649
1677.142	3714
1679.31	3703
1681.478	3702
1683.644	3689
1685.81	3680
1687.975	3745
1690.142	3712
1692.305	3682
1694.468	3683
1696.632	3637
1698.794	3704
1700.957	3645
1703.119	3635
1705.279	3620
1707.439	3638
1709.598	3606
1711.758	3573
1713.917	3549
1716.075	3608
1718.231	3527
1720.388	3635
1722.543	3574
1724.702	3637
1726.856	3619
1729.01	3612
1731.164	3598
1733.317	3571
1735.471	3608
1737.623	3548
1739.774	3664
1741.925	3596
1744.075	3596
1746.225	3556
1748.376	3644
1750.524	3633
1752.672	3687
1754.82	3576
1756.965	3604
1759.113	3515
1761.259	3589
1763.405	3676
1765.549	3642
1767.694	3582
1769.836	3623
1771.981	3639
1774.123	3589
1776.264	3672
1778.405	3672
1780.546	3699
1782.687	3591
1784.827	3591
1786.966	3607
1789.103	3706
1791.242	3649
1793.381	3625
1795.517	3697
1797.653	3646
1799.788	3681
1801.923	3623
1804.057	3615
1806.193	3643
1808.326	3614
1810.457	3585
1812.59	3622
1814.721	3698
1816.855	3691
1818.984	3596
1821.113	3696
1823.244	3669
1825.372	3674
1827.499	3635
1829.63	3628
1831.756	3608
1833.882	3664
1836.007	3635
1838.132	3605
1840.26	3618
1842.384	3641
1844.507	3695
1846.63	3596
1848.752	3667
1850.875	3573
1852.996	3606
1855.118	3626
1857.238	3558
1859.358	3634
1861.477	3563
1863.597	3634
1865.715	3578
1867.832	3637
1869.948	3568
1872.064	3693
1874.181	3618
1876.297	3523
1878.411	3613
1880.526	3598
1882.639	3577
1884.752	3618
1886.865	3684
1888.977	3596
1891.089	3646
1893.2	3660
1895.308	3600
1897.42	3615
1899.53	3611
1901.639	3581
1903.745	3659
1905.853	3749
1907.962	3689
1910.067	3800
1912.174	3658
1914.278	3700
1916.383	3736
1918.486	3605
1920.592	3691
1922.694	3608
1924.797	3642
1926.898	3713
1929	3614
1931.102	3763
1933.203	3647
1935.301	3750
1937.401	3686
1939.499	3653
1941.598	3710
1943.697	3720
1945.793	3673
1947.888	3739
1949.985	3621
1952.08	3671
1954.176	3684
1956.269	3645
1958.364	3627
1960.457	3713
1962.549	3667
1964.642	3684
1966.733	3709
1968.823	3648
1970.913	3677
1973.005	3678
1975.093	3726
1977.184	3731
1979.271	3675
1981.359	3682
1983.446	3579
1985.532	3735
1987.619	3643
1989.705	3642
1991.789	3641
1993.874	3683
1995.956	3682
1998.041	3662
2000.123	3665
2002.206	3674
2004.287	3609
2006.368	3594
2008.449	3657
2010.529	3682
2012.609	3673
2014.688	3639
2016.766	3696
2018.843	3602
2020.922	3643
2022.999	3654
2025.074	3578
2027.15	3704
2029.225	3610
2031.299	3678
2033.375	3622
2035.447	3646
2037.52	3698
2039.592	3723
2041.664	3719
2043.736	3611
2045.807	3636
2047.876	3728
2049.947	3712
2052.015	3641
2054.086	3675
2056.153	3716
2058.221	3641
2060.288	3677
2062.353	3702
2064.42	3667
2066.486	3713
2068.55	3623
2070.614	3630
2072.678	3689
2074.741	3617
2076.805	3657
2078.866	3656
2080.929	3659
2082.99	3712
2085.049	3665
2087.109	3737
2089.17	3784
2091.228	3658
2093.286	3713
2095.344	3716
2097.4	3636
2099.46	3722
2101.516	3701
2103.572	3679
2105.626	3621
2107.679	3763
2109.735	3741
2111.788	3710
2113.841	3728
2115.894	3683
2117.945	3769
2119.997	3676
2122.049	3718
2124.1	3651
2126.148	3729
2128.197	3614
2130.246	3604
2132.296	3680
2134.342	3698
2136.39	3752
2138.437	3718
2140.483	3703
2142.527	3714
2144.574	3682
2146.619	3708
2148.661	3724
2150.705	3646
2152.747	3778
2154.792	3695
2156.832	3685
2158.874	3651
2160.915	3709
2162.954	3609
2164.995	3681
2167.034	3674
2169.072	3672
2171.111	3629
2173.148	3655
2175.186	3612
2177.223	3645
2179.258	3669
2181.294	3632
2183.328	3639
2185.362	3699
2187.398	3620
2189.431	3657
2191.463	3689
2193.495	3626
2195.528	3646
2197.56	3585
2199.59	3614
2201.62	3659
2203.649	3656
2205.678	3594
2207.708	3629
2209.737	3591
2211.764	3668
2213.791	3611
2215.817	3608
2217.843	3564
2219.87	3579
2221.895	3745
2223.919	3651
2225.942	3716
2227.966	3576
2229.988	3625
2232.012	3552
2234.032	3641
2236.054	3641
2238.074	3640
2240.095	3592
2242.116	3568
2244.135	3644
2246.153	3640
2248.171	3613
2250.188	3675
2252.208	3621
2254.223	3659
2256.239	3649
2258.255	3641
2260.269	3586
2262.283	3646
2264.3	3595
2266.312	3563
2268.325	3661
2270.336	3648
2272.349	3686
2274.362	3612
2276.372	3658
2278.383	3690
2280.392	3549
2282.402	3588
2284.409	3622
2286.418	3623
2288.427	3592
2290.433	3641
2292.441	3651
2294.446	3609
2296.453	3676
2298.459	3694
2300.463	3690
2302.466	3578
2304.471	3599
2306.475	3655
2308.477	3632
2310.478	3635
2312.481	3670
2314.481	3602
2316.481	3568
2318.482	3652
2320.482	3650
2322.48	3621
2324.48	3598
2326.478	3657
2328.476	3533
2330.473	3581
2332.469	3595
2334.465	3617
2336.46	3622
2338.454	3609
2340.45	3605
2342.444	3494
2344.437	3623
2346.43	3652
2348.421	3648
2350.414	3513
2352.405	3610
2354.396	3574
2356.386	3617
2358.376	3569
2360.366	3545
2362.355	3537
2364.343	3657
2366.331	3549
2368.317	3592
2370.304	3480
2372.292	3558
2374.278	3527
2376.262	3561
2378.247	3573
2380.23	3549
2382.216	3541
2384.199	3574
2386.181	3496
2388.163	3571
2390.144	3688
2392.127	3519
2394.107	3479
2396.087	3581
2398.066	3527
2400.046	3529
2402.023	3453
2404.004	3496
2405.981	3611
2407.957	3549
2409.934	3573
2411.91	3544
2413.886	3555
2415.862	3562
2417.836	3479
2419.809	3476
2421.784	3570
2423.756	3617
2425.73	3503
2427.701	3464
2429.672	3613
2431.644	3532
2433.615	3548
2435.586	3548
2437.555	3563
2439.523	3481
2441.491	3601
2443.459	3499
2445.428	3547
2447.395	3561
2449.361	3523
2451.327	3505
2453.292	3593
2455.257	3510
2457.223	3518
2459.187	3434
2461.15	3590
2463.113	3598
2465.076	3455
2467.039	3452
2468.999	3551
2470.96	3450
2472.921	3520
2474.881	3590
2476.841	3531
2478.8	3518
2480.759	3484
2482.717	3465
2484.675	3467
2486.63	3501
2488.589	3557
2490.545	3497
2492.5	3434
2494.455	3545
2496.408	3543
2498.364	3540
2500.318	3458
2502.27	3509
2504.223	3484
2506.174	3455
2508.126	3535
2510.078	3433
2512.03	3511
2513.979	3532
2515.927	3523
2517.877	3484
2519.826	3474
2521.775	3475
2523.722	3469
2525.668	3415
2527.616	3515
2529.561	3496
2531.508	3448
2533.452	3462
2535.398	3424
2537.342	3531
2539.284	3441
2541.229	3437
2543.173	3512
2545.114	3425
2547.055	3514
2548.996	3511
2550.938	3400
2552.878	3509
2554.817	3497
2556.756	3522
2558.695	3461
2560.633	3479
2562.572	3448
2564.509	3481
2566.445	3443
2568.382	3551
2570.317	3445
2572.254	3435
2574.189	3439
2576.123	3477
2578.057	3373
2579.99	3495
2581.923	3467
2583.855	3505
2585.788	3469
2587.719	3491
2589.65	3512
2591.579	3528
2593.511	3471
2595.44	3548
2597.37	3508
2599.297	3501
2601.225	3497
2603.153	3500
2605.08	3432
2607.007	3564
2608.932	3406
2610.858	3459
2612.782	3480
2614.709	3505
2616.632	3557
2618.556	3488
2620.478	3527
2622.401	3504
2624.324	3461
2626.247	3497
2628.167	3502
2630.088	3440
2632.008	3512
2633.928	3476
2635.848	3584
2637.766	3477
2639.684	3499
2641.603	3511
2643.519	3418
2645.437	3437
2647.353	3445
2649.27	3557
2651.184	3489
2653.099	3561
2655.014	3548
2656.928	3542
2658.842	3568
2660.755	3425
2662.667	3523
2664.579	3487
2666.491	3550
2668.402	3594
2670.312	3532
2672.222	3483
2674.132	3449
2676.042	3437
2677.951	3391
2679.859	3544
2681.766	3545
2683.674	3481
2685.582	3430
2687.488	3460
2689.392	3429
2691.298	3477
2693.202	3513
2695.107	3420
2697.012	3429
2698.914	3421
2700.817	3414
2702.72	3451
2704.622	3450
2706.524	3440
2708.425	3453
2710.326	3399
2712.225	3487
2714.125	3405
2716.024	3441
2717.923	3384
2719.822	3425
2721.719	3363
2723.616	3434
2725.512	3422
2727.41	3552
2729.305	3358
2731.201	3421
2733.095	3450
2734.99	3436
2736.884	3382
2738.778	3529
2740.67	3418
2742.562	3414
2744.455	3457
2746.346	3372
2748.238	3492
2750.129	3375
2752.018	3397
2753.907	3379
2755.797	3433
2757.687	3411
2759.575	3409
2761.462	3459
2763.349	3358
2765.237	3426
2767.124	3339
2769.009	3435
2770.894	3436
2772.779	3408
2774.663	3425
2776.547	3388
2778.431	3485
2780.314	3476
2782.197	3464
2784.078	3462
2785.96	3399
2787.842	3403
2789.723	3435
2791.603	3374
2793.483	3433
2795.362	3386
2797.241	3392
2799.121	3490
2800.997	3416
2802.874	3414
2804.751	3365
2806.628	3409
2808.506	3428
2810.38	3358
2812.255	3440
2814.13	3411
2816.003	3395
2817.878	3401
2819.752	3335
2821.623	3394
2823.496	3406
2825.368	3487
2827.238	3387
2829.111	3469
2830.98	3365
2832.851	3372
2834.719	3371
2836.589	3448
2838.458	3430
2840.327	3378
2842.193	3429
2844.061	3470
2845.927	3364
2847.794	3511
2849.66	3464
2851.525	3452
2853.39	3443
2855.254	3488
2857.117	3531
2858.983	3415
2860.845	3497
2862.707	3392
2864.569	3534
2866.431	3554
2868.293	3528
2870.154	3534
2872.013	3515
2873.873	3599
2875.733	3531
2877.592	3622
2879.451	3637
2881.309	3645
2883.166	3730
2885.022	3743
2886.879	3776
2888.736	3710
2890.591	3756
2892.446	3810
2894.301	3771
2896.155	3778
2898.009	3732
2899.863	3739
2901.716	3825
2903.568	3832
2905.419	3697
2907.27	3699
2909.123	3778
2910.973	3723
2912.824	3744
2914.673	3829
2916.521	3733
2918.372	3913
2920.22	3892
2922.067	3827
2923.914	3955
2925.761	3913
2927.607	4034
2929.455	3893
2931.301	3973
2933.144	4067
2934.99	4002
2936.833	4091
2938.678	4051
2940.522	4076
2942.364	4230
2944.207	4192
2946.048	4242
2947.891	4309
2949.731	4341
2951.571	4243
2953.412	4252
2955.25	4169
2957.09	4228
2958.93	4121
2960.767	4103
2962.606	4082
2964.443	4054
2966.279	4013
2968.116	3923
2969.953	3957
2971.788	3899
2973.623	3875
2975.457	3838
2977.292	3834
2979.127	3735
2980.959	3866
2982.792	3727
2984.624	3692
2986.455	3759
2988.288	3740
2990.119	3783
2991.949	3769
2993.779	3628
2995.608	3538
2997.439	3663
2999.268	3582
3001.096	3578
3002.923	3595
3004.751	3620
3006.578	3485
3008.406	3463
3010.232	3484
3012.057	3423
3013.883	3393
3015.706	3396
3017.532	3303
3019.356	3370
3021.179	3342
3023.002	3361
3024.823	3359
3026.646	3352
3028.469	3278
3030.289	3276
3032.11	3303
3033.93	3281
3035.749	3312
3037.57	3324
3039.39	3230
3041.207	3250
3043.026	3285
3044.842	3307
3046.661	3295
3048.477	3264
3050.294	3259
3052.109	3288
3053.925	3290
3055.739	3243
3057.555	3303
3059.368	3389
3061.181	3280
3062.995	3304
3064.807	3318
3066.62	3245
3068.433	3259
3070.243	3268
3072.054	3259
3073.865	3260
3075.675	3303
3077.485	3243
3079.293	3260
3081.102	3214
3082.911	3215
3084.719	3274
3086.527	3224
3088.333	3194
3090.139	3128
3091.945	3221
3093.75	3206
3095.557	3165
3097.361	3195
3099.165	3173
3100.969	3173
3102.772	3202
3104.575	3148
3106.379	3120
3108.181	3219
3109.982	3196
3111.783	3154
3113.584	3200
3115.386	3116
3117.186	3105
3118.985	3194
3120.783	3147
3122.582	3131
3124.381	3163
3126.179	3134
3127.975	3076
3129.772	3084
3131.569	3190
3133.365	3058
3135.161	3183
3136.956	3154
3138.751	3126
3140.544	3143
3142.338	3069
3144.132	3181
3145.925	3139
3147.717	3045
3149.509	3105
3151.301	3146
3153.091	3174
3154.884	3117
3156.673	3121
3158.462	3106
3160.252	3095
3162.041	3043
3163.831	3063
3165.618	3085
3167.405	3163
3169.193	3160
3170.979	3077
3172.767	3143
3174.553	3091
3176.338	3044
3178.123	3028
3179.907	3094
3181.692	3026
3183.477	3077
3185.259	3132
3187.042	3136
3188.824	3083
3190.607	3105
3192.389	3065
3194.17	3146
3195.951	3043
3197.73	2979
3199.51	3122
3201.289	3051
3203.07	3083
3204.848	3078
3206.626	3057
3208.403	3098
3210.18	3122
3211.959	3089
3213.735	2994
3215.511	3055
3217.285	3058
3219.06	3063
3220.836	3095
3222.611	3031
3224.384	3145
3226.158	3024
3227.929	3036
3229.702	3157
3231.476	3031
3233.248	3099
3235.018	3093
3236.789	3097
3238.56	3175
3240.33	3140
3242.1	3085
3243.869	3030
3245.637	3035
3247.405	3076
3249.172	3074
3250.941	3083
3252.707	3064
3254.474	3079
3256.24	3044
3258.006	2991
3259.772	3050
3261.537	3100
3263.301	3154
3265.065	3126
3266.828	3115
3268.592	3072
3270.355	3069
3272.117	3076
3273.878	3080
3275.64	3102
3277.401	3120
3279.162	3055
3280.922	3062
3282.682	3081
3284.441	3071
3286.199	3138
3287.959	3096
3289.716	3073
3291.475	3059
3293.232	3122
3294.988	3134
3296.744	3060
3298.501	3063
3300.256	3077
3302.011	2996
3303.766	3043
3305.52	3121
3307.275	3057
3309.028	3104
3310.781	3070
3312.533	3015
3314.285	3082
3316.038	3069
3317.789	3069
3319.54	3061
3321.289	3019
3323.039	3104
3324.789	2979
3326.539	3102
3328.288	3041
3330.035	3082
3331.783	3106
3333.531	3065
3335.28	3051
3337.025	3008
3338.771	2995
3340.518	3069
3342.262	2995
3344.009	3056
3345.753	3121
3347.497	2991
3349.24	3039
3350.983	3087
3352.726	3000
3354.469	2906
3356.212	3024
3357.952	2986
3359.694	3045
3361.434	3033
3363.176	2927
3364.916	3055
3366.654	2954
3368.394	3054
3370.132	3037
3371.871	2974
3373.61	2999
3375.346	2931
3377.083	3027
3378.82	3037
3380.556	2987
3382.292	2967
3384.027	3032
3385.763	3028
3387.497	3030
3389.231	2960
3390.965	3001
3392.698	2984
3394.431	2971
3396.164	2978
3397.896	2972
3399.627	2872
3401.36	2986
3403.09	3038
3404.82	2979
3406.55	2990
3408.279	2973
3410.01	2966
3411.738	2916
3413.467	2965
3415.194	3024
3416.92	2930
3418.647	2936
3420.375	2998
3422.102	2950
3423.827	2867
3425.553	2905
3427.277	2912
3429.003	2950
3430.727	2948
3432.451	2881
3434.173	2904
3435.896	2917
3437.62	2938
3439.343	2905
3441.063	2874
3442.785	2921
3444.505	2886
3446.226	2935
3447.948	2891
3449.666	2929
3451.386	2896
3453.104	2848
3454.823	2881
3456.541	2881
3458.259	2890
3459.976	2878
3461.693	2817
3463.408	2824
3465.125	2787
3466.841	2885
3468.556	2874
3470.271	2824
3471.985	2799
3473.698	2822
3475.414	2932
3477.126	2827
3478.838	2893
3480.55	2798
3482.263	2845
3483.975	2791
3485.686	2857
3487.396	2801
3489.106	2848
3490.817	2764
3492.526	2826
3494.236	2723
3495.944	2832
3497.652	2843
3499.359	2811
3501.066	2827
3502.775	2823
3504.481	2736
3506.187	2761
3507.893	2805
3509.598	2755
3511.304	2728
3513.009	2757
3514.713	2774
3516.417	2774
3518.12	2754
3519.821	2702
3521.525	2817
3523.228	2798
3524.929	2724
3526.631	2783
3528.33	2731
3530.032	2731
3531.733	2725
3533.433	2757
3535.131	2780
3536.83	2729
3538.529	2821
3540.227	2695
3541.925	2768
3543.623	2667
3545.319	2748
3547.016	2674
3548.712	2723
3550.408	2675
3552.103	2709
3553.798	2713
3555.491	2735
3557.188	2662
3558.88	2678
3560.574	2709
3562.266	2657
3563.959	2717
3565.651	2698
3567.343	2708
3569.035	2713
3570.725	2595
3572.415	2713
3574.106	2640
3575.797	2697
3577.485	2641
3579.174	2675
3580.863	2667
3582.551	2680
3584.238	2668
3585.926	2610
3587.613	2727
3589.3	2619
3590.986	2669
3592.671	2650
3594.357	2629
3596.042	2586
3597.726	2604
3599.41	2616
3601.094	2646
3602.778	2601
3604.461	2614
3606.143	2584
3607.825	2707
3609.507	2621
3611.188	2664
3612.87	2576
3614.551	2609
3616.229	2537
3617.909	2541
3619.589	2579
3621.269	2555
3622.948	2572
3624.625	2606
3626.302	2556
3627.98	2492
3629.657	2554
3631.334	2557
3633.01	2589
3634.686	2590
3636.361	2535
3638.036	2512
3639.712	2533
3641.385	2576
3643.06	2545
3644.732	2491
3646.405	2507
3648.08	2532
3649.751	2568
3651.424	2543
3653.094	2504
3654.766	2533
3656.436	2501
3658.106	2541
3659.777	2488
3661.446	2553
3663.115	2470
3664.783	2510
3666.452	2493
3668.121	2462
3669.788	2463
3671.454	2399
3673.121	2526
3674.789	2474
3676.455	2541
3678.12	2481
3679.784	2526
3681.45	2489
3683.114	2523
3684.779	2414
3686.442	2556
3688.105	2513
3689.768	2462
3691.43	2536
3693.093	2481
3694.754	2440
3696.415	2431
3698.076	2474
3699.736	2467
3701.396	2493
3703.057	2449
3704.716	2467
3706.375	2467
3708.034	2469
3709.692	2462
3711.351	2428
3713.008	2446
3714.665	2467
3716.321	2390
3717.977	2404
3719.634	2434
3721.29	2421
3722.945	2433
3724.598	2430
3726.253	2475
3727.907	2404
3729.561	2363
3731.214	2434
3732.867	2424
3734.518	2399
3736.171	2426
3737.824	2352
3739.474	2390
3741.125	2460
3742.775	2408
3744.425	2404
3746.074	2454
3747.725	2406
3749.373	2443
3751.022	2400
3752.669	2402
3754.318	2420
3755.966	2347
3757.612	2382
3759.259	2401
3760.905	2393
3762.55	2326
3764.197	2435
3765.842	2319
3767.486	2371
3769.131	2403
3770.774	2368
3772.417	2304
3774.061	2395
3775.705	2311
3777.347	2374
3778.988	2356
3780.629	2330
3782.271	2305
3783.912	2379
3785.552	2354
3787.192	2355
3788.831	2279
3790.472	2322
3792.112	2335
3793.75	2332
3795.388	2353
3797.024	2331
3798.661	2305
3800.3	2318
3801.936	2301
3803.572	2295
3805.208	2316
3806.844	2291
3808.48	2371
3810.115	2334
3811.748	2293
3813.382	2354
3815.016	2275
3816.649	2328
3818.283	2287
3819.914	2283
3821.547	2308
3823.178	2297
3824.809	2284
3826.441	2321
3828.072	2322
3829.701	2306
3831.331	2305
3832.96	2275
3834.591	2296
3836.219	2318
3837.847	2263
3839.475	2230
3841.102	2279
3842.729	2334
3844.357	2311
3845.984	2306
3847.609	2277
3849.234	2266
3850.86	2246
3852.485	2280
3854.11	2283
3855.734	2255
3857.357	2294
3858.981	2197
3860.603	2286
3862.227	2311
3863.848	2220
3865.471	2268
3867.092	2316
3868.713	2180
3870.334	2199
3871.954	2261
3873.575	2273
3875.194	2307
3876.813	2273
3878.433	2216
3880.051	2331
3881.669	2277
3883.286	2197
3884.904	2271
3886.52	2262
3888.138	2284
3889.754	2241
3891.37	2225
3892.985	2189
3894.6	2272
3896.216	2199
3897.831	2248
3899.444	2210
3901.058	2262
3902.67	2251
3904.283	2218
3905.897	2249
3907.509	2209
3909.121	2211
3910.731	2195
3912.342	2166
3913.954	2231
3915.563	2244
3917.174	2158
3918.783	2286
3920.391	2198
3922.002	2175
3923.611	2202
3925.218	2219
3926.826	2246
3928.432	2232
3930.039	2232
3931.647	2171
3933.253	2172
3934.859	2246
3936.464	2235
3938.068	2198
3939.675	2162
3941.278	2214
3942.883	2196
3944.486	2166
3946.089	2166
3947.692	2150
3949.295	2223
3950.898	2170
3952.499	2204
3954.1	2178
3955.7	2173
3957.303	2181
3958.903	2097
3960.502	2172
3962.101	2145
3963.7	2218
3965.301	2149
3966.899	2173
3968.497	2126
3970.094	2154
3971.691	2132
3973.288	2151
3974.885	2140
3976.481	2131
3978.077	2192
3979.672	2121
3981.267	2102
3982.863	2069
3984.457	2143
3986.051	2106
3987.645	2131
3989.238	2177
3990.831	2131
3992.425	2140
3994.017	2133
3995.607	2130
3997.199	2011
3998.79	2151
4000.382	2126
4001.973	2120
4003.561	2092
4005.151	2128
4006.741	2089
4008.331	2078
4009.918	2090
4011.507	2121
4013.095	2082
4014.681	2113
4016.269	2109
4017.856	2069
4019.443	2138
4021.028	2060
4022.614	2049
4024.199	2088
4025.785	2063
4027.37	2057
4028.953	2127
4030.536	2054
4032.12	2070
4033.704	2103
4035.287	2068
4036.869	2050
4038.45	2069
4040.032	2093
4041.613	2063
4043.195	2057
4044.776	2004
4046.356	2068
4047.935	2077
4049.515	2102
4051.095	2051
4052.674	2012
4054.251	2061
4055.829	2047
4057.406	2027
4058.985	2025
4060.562	2041
4062.139	2067
4063.715	2049
4065.29	2058
4066.865	2084
4068.442	2037
4070.016	2053
4071.59	1983
4073.164	1965
4074.738	2028
4076.312	2007
4077.885	2042
4079.458	1968
4081.03	1954
4082.602	2003
4084.173	2027
4085.745	2034
4087.315	2022
4088.886	2031
4090.456	2040
4092.026	1972
4093.596	2031
4095.165	1957
4096.734	1993
4098.301	2012
4099.869	1986
4101.437	2014
4103.006	1960
4104.572	1981
4106.139	1984
4107.704	1976
4109.27	1944
4110.837	1947
4112.401	1944
4113.966	1958
4115.53	1979
4117.094	1947
4118.659	1963
4120.223	1949
4121.785	1948
4123.347	1980
4124.909	1942
4126.471	1990
4128.034	1919
4129.595	1964
4131.155	2007
4132.716	1967
4134.275	1932
4135.836	1904
4137.395	1939
4138.955	1949
4140.513	2018
4142.071	1921
4143.628	1948
4145.188	1950
4146.745	1931
4148.302	1956
4149.858	1942
4151.414	1962
4152.971	1979
4154.526	1957
4156.081	1913
4157.635	1925
4159.189	1967
4160.745	1891
4162.298	1953
4163.852	1899
4165.405	1902
4166.957	1866
4168.51	1910
4170.063	1877
4171.614	1921
4173.166	1968
4174.717	1926
4176.267	1902
4177.817	1902
4179.368	1868
4180.917	1900
4182.466	1939
4184.016	1896
4185.564	1960
4187.112	1912
4188.66	1848
4190.207	1923
4191.754	1874
4193.301	1827
4194.848	1905
4196.394	1884
4197.94	1864
4199.484	1896
4201.03	1867
4202.575	1894
4204.12	1832
4205.663	1891
4207.207	1845
4208.75	1868
4210.292	1837
4211.836	1903
4213.378	1818
4214.92	1814
4216.46	1858
4218.002	1881
4219.544	1860
4221.083	1847
4222.625	1871
4224.164	1894
4225.703	1844
4227.244	1896
4228.782	1874
4230.32	1870
4231.857	1851
4233.395	1843
4234.933	1873
4236.471	1810
4238.007	1857
4239.542	1890
4241.078	1840
4242.614	1783
4244.15	1827
4245.685	1835
4247.219	1818
4248.753	1783
4250.287	1864
4251.82	1769
4253.354	1834
4254.887	1866
4256.419	1836
4257.951	1825
4259.483	1841
4261.016	1826
4262.547	1808
4264.078	1784
4265.608	1850
4267.137	1864
4268.668	1829
4270.197	1784
4271.727	1753
4273.254	1778
4274.783	1777
4276.311	1847
4277.84	1795
4279.366	1818
4280.894	1815
4282.42	1799
4283.946	1792
4285.473	1774
4286.998	1779
4288.523	1776
4290.047	1810
4291.572	1805
4293.096	1808
4294.622	1839
4296.144	1754
4297.668	1737
4299.19	1773
4300.713	1806
4302.236	1718
4303.758	1782
4305.279	1796
4306.799	1770
4308.321	1756
4309.842	1768
4311.361	1777
4312.882	1710
4314.401	1786
