400.0961	2279
402.6185	2252
405.1424	2275
407.6635	2311
410.1838	2311
412.7035	2322
415.2225	2338
417.7388	2295
420.2585	2325
422.7754	2394
425.2917	2424
427.8072	2488
430.3221	2478
432.8363	2452
435.3498	2462
437.8626	2513
440.3727	2494
442.8841	2537
445.3969	2466
447.907	2471
450.4142	2450
452.9229	2500
455.4289	2435
457.9362	2440
460.4449	2482
462.9488	2434
465.454	2416
467.9566	2498
470.4604	2453
472.9637	2479
475.4662	2459
477.966	2413
480.4671	2459
482.9656	2445
485.4633	2455
487.9645	2404
490.4608	2486
492.9566	2483
495.4536	2451
497.948	2491
500.4437	2439
502.9387	2491
505.431	2512
507.9226	2560
510.4136	2514
512.9079	2506
515.3975	2502
517.8864	2587
520.3746	2503
522.8622	2542
525.3491	2489
527.8394	2520
530.3249	2520
532.8098	2561
535.2939	2524
537.7774	2547
540.2623	2543
542.7444	2554
545.2259	2512
547.7067	2564
550.1868	2540
552.6683	2540
555.147	2518
557.6231	2563
560.1005	2543
562.5773	2618
565.0534	2508
567.5308	2560
570.0056	2540
572.4776	2627
574.951	2633
577.4237	2658
579.8978	2689
582.3671	2673
584.8378	2628
587.3079	2614
589.7773	2660
592.244	2667
594.714	2649
597.1793	2688
599.6461	2579
602.1121	2615
604.5754	2581
607.0421	2640
609.5042	2685
611.9675	2615
614.4282	2619
616.8902	2586
619.3515	2598
621.8122	2615
624.2702	2593
626.7296	2597
629.1863	2612
631.6423	2609
634.1017	2649
636.5563	2623
639.0104	2581
641.4658	2628
643.9185	2609
646.3725	2668
648.8239	2680
651.2766	2609
653.7266	2598
656.176	2629
658.6247	2663
661.0748	2664
663.5242	2644
665.9709	2626
668.417	2617
670.8624	2710
673.3092	2677
675.7533	2637
678.1968	2650
680.6395	2741
683.0817	2675
685.5251	2706
687.9659	2697
690.4061	2740
692.8456	2693
695.2844	2708
697.7226	2665
700.1621	2704
702.599	2702
705.0332	2711
707.4688	2666
709.9036	2729
712.3399	2676
714.7735	2711
717.2044	2696
719.6367	2660
722.0683	2626
724.4993	2660
726.9296	2700
729.3593	2793
731.7883	2724
734.2147	2786
736.6423	2819
739.0714	2795
741.4958	2715
743.9216	2800
746.3447	2750
748.7691	2757
751.1929	2824
753.616	2824
756.0366	2794
758.4584	2828
760.8776	2836
763.2982	2849
765.718	2849
768.1373	2862
770.5539	2945
772.9698	2863
775.3871	2787
777.8038	2826
780.2178	2873
782.6332	2861
785.0459	2880
787.458	2892
789.8714	2824
792.2842	2905
794.6943	2901
797.1038	2813
799.5127	2901
801.9209	2925
804.3324	2897
806.7393	2953
809.1456	2897
811.5513	2855
813.9562	2906
816.3625	2867
818.7663	2885
821.1693	2912
823.5718	2926
825.9735	2871
828.3746	2905
830.7771	2875
833.177	2880
835.5762	2902
837.9747	2904
840.3727	2908
842.772	2938
845.1666	3011
847.5626	2946
849.958	2909
852.3527	2921
854.7488	2904
857.1403	2938
859.5331	2951
861.9253	2971
864.3168	2920
866.7057	2949
869.098	2932
871.4876	3052
873.8746	2921
876.263	2920
878.6487	2940
881.0378	2967
883.4243	2935
885.8081	2951
888.1933	2938
890.5759	2921
892.9598	2902
895.343	2995
897.7256	2928
900.1057	2908
902.4871	2940
904.8659	2901
907.246	2971
909.6254	3054
912.0023	3012
914.3786	2993
916.7562	3034
919.1331	3070
921.5074	3039
923.8831	3153
926.2562	3115
928.6287	3122
931.0005	3173
933.3757	3088
935.7462	3105
938.1162	3175
940.4855	3225
942.8542	3145
945.2242	3171
947.5916	3384
949.9584	3372
952.3266	3386
954.6921	3662
957.0571	3663
959.4233	3841
961.787	3904
964.15	3825
966.5125	3735
968.8742	3611
971.2354	3412
973.5959	3415
975.9559	3260
978.3151	3193
980.6738	3093
983.0338	3133
985.3912	3039
987.7461	3081
990.1022	3036
992.4578	3101
994.8127	3100
997.1689	3019
999.5207	3128
1001.874	3099
1004.226	3107
1006.576	3105
1008.929	3054
1011.28	3061
1013.628	3063
1015.977	3053
1018.324	3034
1020.674	3087
1023.019	3104
1025.366	3095
1027.713	3148
1030.056	3115
1032.399	3121
1034.746	3136
1037.087	3169
1039.431	3100
1041.771	3179
1044.113	3075
1046.454	3176
1048.793	3122
1051.133	3242
1053.471	3186
1055.807	3147
1058.146	3119
1060.483	3189
1062.818	3176
1065.153	3270
1067.489	3233
1069.822	3215
1072.156	3259
1074.488	3276
1076.82	3251
1079.15	3185
1081.48	3153
1083.814	3155
1086.143	3114
1088.471	3185
1090.799	3125
1093.126	3159
1095.452	3141
1097.78	3183
1100.105	3106
1102.43	3159
1104.754	3136
1107.077	3167
1109.4	3178
1111.722	3152
1114.044	3144
1116.365	3131
1118.685	3232
1121.005	3197
1123.324	3160
1125.643	3136
1127.961	3202
1130.278	3185
1132.595	3264
1134.911	3211
1137.226	3169
1139.541	3133
1141.854	3138
1144.167	3072
1146.482	3172
1148.793	3198
1151.105	3167
1153.414	3141
1155.725	3139
1158.033	3123
1160.344	3157
1162.651	3119
1164.959	3118
1167.265	3194
1169.572	3191
1171.878	3147
1174.184	3090
1176.488	3182
1178.79	3101
1181.094	3187
1183.396	3234
1185.699	3188
1188.001	3200
1190.301	3102
1192.6	3173
1194.9	3224
1197.2	3203
1199.497	3209
1201.794	3189
1204.09	3206
1206.387	3249
1208.684	3179
1210.978	3204
1213.272	3183
1215.565	3138
1217.858	3204
1220.15	3248
1222.443	3279
1224.734	3217
1227.024	3211
1229.313	3248
1231.602	3193
1233.892	3237
1236.18	3198
1238.467	3228
1240.754	3223
1243.04	3292
1245.325	3352
1247.612	3294
1249.896	3260
1252.178	3376
1254.461	3220
1256.743	3189
1259.027	3355
1261.308	3230
1263.587	3287
1265.867	3283
1268.146	3341
1270.425	3330
1272.703	3321
1274.981	3366
1277.256	3291
1279.532	3300
1281.808	3355
1284.083	3253
1286.358	3229
1288.63	3292
1290.904	3292
1293.175	3265
1295.449	3284
1297.719	3257
1299.99	3211
1302.259	3257
1304.529	3324
1306.798	3280
1309.065	3279
1311.333	3314
1313.599	3278
1315.866	3309
1318.131	3240
1320.396	3345
1322.66	3272
1324.925	3301
1327.187	3320
1329.448	3256
1331.711	3281
1333.974	3230
1336.234	3235
1338.493	3283
1340.752	3309
1343.01	3280
1345.269	3247
1347.526	3248
1349.784	3383
1352.04	3220
1354.295	3301
1356.552	3265
1358.806	3280
1361.059	3301
1363.312	3272
1365.564	3189
1367.818	3355
1370.069	3311
1372.318	3251
1374.568	3239
1376.817	3290
1379.066	3308
1381.316	3313
1383.564	3287
1385.809	3284
1388.056	3268
1390.301	3359
1392.549	3313
1394.793	3273
1397.036	3366
1399.279	3336
1401.522	3391
1403.763	3272
1406.007	3411
1408.248	3376
1410.487	3324
1412.727	3368
1414.965	3423
1417.205	3326
1419.442	3356
1421.68	3317
1423.915	3342
1426.152	3398
1428.388	3438
1430.623	3436
1432.857	3410
1435.091	3392
1437.323	3486
1439.556	3342
1441.789	3449
1444.019	3452
1446.25	3459
1448.48	3473
1450.708	3419
1452.938	3493
1455.167	3411
1457.394	3428
1459.62	3426
1461.846	3471
1464.073	3442
1466.299	3477
1468.523	3375
1470.746	3353
1472.969	3367
1475.191	3345
1477.415	3350
1479.636	3394
1481.858	3301
1484.078	3415
1486.298	3365
1488.518	3338
1490.736	3361
1492.954	3250
1495.169	3296
1497.386	3344
1499.602	3308
1501.819	3269
1504.034	3349
1506.248	3199
1508.462	3239
1510.675	3336
1512.888	3282
1515.1	3259
1517.311	3277
1519.522	3261
1521.732	3298
1523.942	3301
1526.151	3288
1528.36	3301
1530.566	3273
1532.773	3312
1534.98	3332
1537.187	3304
1539.392	3302
1541.596	3325
1543.801	3219
1546.005	3311
1548.208	3292
1550.411	3301
1552.612	3318
1554.814	3347
1557.013	3340
1559.212	3324
1561.414	3317
1563.612	3407
1565.811	3271
1568.007	3338
1570.203	3369
1572.403	3367
1574.598	3447
1576.792	3420
1578.988	3399
1581.181	3392
1583.376	3412
1585.568	3411
1587.761	3431
1589.952	3390
1592.143	3372
1594.333	3362
1596.524	3436
1598.715	3431
1600.903	3430
1603.091	3404
1605.278	3367
1607.466	3462
1609.652	3476
1611.838	3456
1614.023	3400
1616.207	3414
1618.391	3412
1620.576	3355
1622.759	3340
1624.941	3452
1627.123	3441
1629.304	3404
1631.484	3456
1633.664	3399
1635.844	3443
1638.022	3472
1640.201	3441
1642.38	3494
1644.556	3463
1646.732	3596
1648.908	3464
1651.084	3474
1653.257	3462
1655.433	3523
1657.607	3448
1659.779	3525
1661.951	3466
1664.122	3535
1666.295	3525
1668.467	3528
1670.635	3460
1672.805	3479
1674.973	3460
1677.142	3545
1679.31	3522
1681.478	3500
1683.644	3564
1685.81	3567
1687.975	3450
1690.142	3519
1692.305	3537
1694.468	3507
1696.632	3371
1698.794	3490
1700.957	3444
1703.119	3479
1705.279	3385
1707.439	3433
1709.598	3507
1711.758	3465
1713.917	3485
1716.075	3455
1718.231	3485
1720.388	3418
1722.543	3420
1724.702	3413
1726.856	3345
1729.01	3388
1731.164	3396
1733.317	3432
1735.471	3473
1737.623	3416
1739.774	3361
1741.925	3384
1744.075	3408
1746.225	3431
1748.376	3435
1750.524	3419
1752.672	3390
1754.82	3461
1756.965	3476
1759.113	3411
1761.259	3452
1763.405	3439
1765.549	3394
1767.694	3476
1769.836	3396
1771.981	3452
1774.123	3542
1776.264	3466
1778.405	3403
1780.546	3472
1782.687	3484
1784.827	3449
1786.966	3423
1789.103	3516
1791.242	3430
1793.381	3415
1795.517	3517
1797.653	3427
1799.788	3403
1801.923	3561
1804.057	3442
1806.193	3444
1808.326	3492
1810.457	3414
1812.59	3427
1814.721	3444
1816.855	3502
1818.984	3489
1821.113	3483
1823.244	3480
1825.372	3477
1827.499	3484
1829.63	3463
1831.756	3525
1833.882	3463
1836.007	3442
1838.132	3396
1840.26	3549
1842.384	3437
1844.507	3426
1846.63	3490
1848.752	3404
1850.875	3355
1852.996	3442
1855.118	3393
1857.238	3454
1859.358	3412
1861.477	3481
1863.597	3403
1865.715	3464
1867.832	3494
1869.948	3448
1872.064	3449
1874.181	3487
1876.297	3377
1878.411	3439
1880.526	3409
1882.639	3429
1884.752	3420
1886.865	3440
1888.977	3485
1891.089	3409
1893.2	3485
1895.308	3456
1897.42	3519
1899.53	3445
1901.639	3446
1903.745	3538
1905.853	3511
1907.962	3457
1910.067	3455
1912.174	3525
1914.278	3532
1916.383	3460
1918.486	3481
1920.592	3537
1922.694	3554
1924.797	3437
1926.898	3448
1929	3520
1931.102	3488
1933.203	3515
1935.301	3502
1937.401	3545
1939.499	3554
1941.598	3526
1943.697	3483
1945.793	3519
1947.888	3520
1949.985	3496
1952.08	3494
1954.176	3514
1956.269	3491
1958.364	3554
1960.457	3490
1962.549	3571
1964.642	3528
1966.733	3530
1968.823	3512
1970.913	3677
1973.005	3503
1975.093	3501
1977.184	3537
1979.271	3536
1981.359	3476
1983.446	3497
1985.532	3503
1987.619	3504
1989.705	3543
1991.789	3486
1993.874	3508
1995.956	3454
1998.041	3505
2000.123	3499
2002.206	3483
2004.287	3583
2006.368	3474
2008.449	3459
2010.529	3574
2012.609	3556
2014.688	3511
2016.766	3489
2018.843	3506
2020.922	3445
2022.999	3428
2025.074	3489
2027.15	3556
2029.225	3398
2031.299	3481
2033.375	3537
2035.447	3485
2037.52	3575
2039.592	3448
2041.664	3516
2043.736	3524
2045.807	3505
2047.876	3506
2049.947	3478
2052.015	3491
2054.086	3493
2056.153	3530
2058.221	3432
2060.288	3489
2062.353	3543
2064.42	3463
2066.486	3458
2068.55	3510
2070.614	3482
2072.678	3486
2074.741	3473
2076.805	3454
2078.866	3553
2080.929	3491
2082.99	3478
2085.049	3527
2087.109	3481
2089.17	3587
2091.228	3569
2093.286	3432
2095.344	3487
2097.4	3579
2099.46	3513
2101.516	3556
2103.572	3543
2105.626	3462
2107.679	3510
2109.735	3423
2111.788	3467
2113.841	3471
2115.894	3500
2117.945	3478
2119.997	3500
2122.049	3437
2124.1	3520
2126.148	3514
2128.197	3506
2130.246	3550
2132.296	3487
2134.342	3483
2136.39	3482
2138.437	3547
2140.483	3462
2142.527	3509
2144.574	3431
2146.619	3484
2148.661	3426
2150.705	3431
2152.747	3471
2154.792	3416
2156.832	3472
2158.874	3465
2160.915	3492
2162.954	3484
2164.995	3460
2167.034	3498
2169.072	3514
2171.111	3422
2173.148	3382
2175.186	3460
2177.223	3473
2179.258	3405
2181.294	3422
2183.328	3510
2185.362	3507
2187.398	3395
2189.431	3447
2191.463	3445
2193.495	3483
2195.528	3376
2197.56	3493
2199.59	3547
2201.62	3493
2203.649	3466
2205.678	3424
2207.708	3471
2209.737	3454
2211.764	3399
2213.791	3378
2215.817	3402
2217.843	3377
2219.87	3470
2221.895	3432
2223.919	3493
2225.942	3466
2227.966	3431
2229.988	3442
2232.012	3455
2234.032	3414
2236.054	3419
2238.074	3539
2240.095	3435
2242.116	3343
2244.135	3444
2246.153	3321
2248.171	3460
2250.188	3389
2252.208	3398
2254.223	3397
2256.239	3525
2258.255	3439
2260.269	3407
2262.283	3445
2264.3	3406
2266.312	3391
2268.325	3400
2270.336	3435
2272.349	3384
2274.362	3377
2276.372	3429
2278.383	3401
2280.392	3402
2282.402	3381
2284.409	3406
2286.418	3496
2288.427	3493
2290.433	3461
2292.441	3451
2294.446	3394
2296.453	3435
2298.459	3439
2300.463	3446
2302.466	3440
2304.471	3448
2306.475	3406
2308.477	3427
2310.478	3347
2312.481	3416
2314.481	3467
2316.481	3349
2318.482	3410
2320.482	3403
2322.48	3384
2324.48	3403
2326.478	3392
2328.476	3512
2330.473	3425
2332.469	3396
2334.465	3478
2336.46	3364
2338.454	3424
2340.45	3366
2342.444	3390
2344.437	3400
2346.43	3348
2348.421	3393
2350.414	3476
2352.405	3435
2354.396	3432
2356.386	3374
2358.376	3376
2360.366	3337
2362.355	3392
2364.343	3399
2366.331	3386
2368.317	3296
2370.304	3346
2372.292	3338
2374.278	3363
2376.262	3331
2378.247	3322
2380.23	3375
2382.216	3394
2384.199	3251
2386.181	3391
2388.163	3322
2390.144	3383
2392.127	3405
2394.107	3294
2396.087	3414
2398.066	3305
2400.046	3326
2402.023	3339
2404.004	3412
2405.981	3301
2407.957	3387
2409.934	3396
2411.91	3370
2413.886	3320
2415.862	3316
2417.836	3326
2419.809	3358
2421.784	3370
2423.756	3261
2425.73	3292
2427.701	3342
2429.672	3369
2431.644	3322
2433.615	3366
2435.586	3386
2437.555	3308
2439.523	3349
2441.491	3287
2443.459	3378
2445.428	3300
2447.395	3362
2449.361	3352
2451.327	3330
2453.292	3313
2455.257	3338
2457.223	3383
2459.187	3323
2461.15	3329
2463.113	3348
2465.076	3331
2467.039	3347
2468.999	3396
2470.96	3354
2472.921	3357
2474.881	3338
2476.841	3324
2478.8	3328
2480.759	3306
2482.717	3286
2484.675	3294
2486.63	3309
2488.589	3345
2490.545	3239
2492.5	3304
2494.455	3370
2496.408	3312
2498.364	3326
2500.318	3251
2502.27	3219
2504.223	3320
2506.174	3269
2508.126	3318
2510.078	3289
2512.03	3320
2513.979	3319
2515.927	3207
2517.877	3246
2519.826	3252
2521.775	3261
2523.722	3327
2525.668	3329
2527.616	3363
2529.561	3231
2531.508	3254
2533.452	3168
2535.398	3345
2537.342	3282
2539.284	3303
2541.229	3346
2543.173	3276
2545.114	3244
2547.055	3353
2548.996	3249
2550.938	3319
2552.878	3274
2554.817	3277
2556.756	3249
2558.695	3239
2560.633	3329
2562.572	3290
2564.509	3237
2566.445	3350
2568.382	3261
2570.317	3271
2572.254	3295
2574.189	3266
2576.123	3311
2578.057	3285
2579.99	3252
2581.923	3262
2583.855	3247
2585.788	3392
2587.719	3261
2589.65	3294
2591.579	3313
2593.511	3284
2595.44	3298
2597.37	3310
2599.297	3306
2601.225	3291
2603.153	3272
2605.08	3293
2607.007	3263
2608.932	3286
2610.858	3243
2612.782	3306
2614.709	3393
2616.632	3215
2618.556	3279
2620.478	3284
2622.401	3285
2624.324	3266
2626.247	3306
2628.167	3244
2630.088	3325
2632.008	3381
2633.928	3311
2635.848	3388
2637.766	3345
2639.684	3326
2641.603	3245
2643.519	3254
2645.437	3235
2647.353	3283
2649.27	3302
2651.184	3371
2653.099	3299
2655.014	3282
2656.928	3255
2658.842	3342
2660.755	3261
2662.667	3263
2664.579	3291
2666.491	3293
2668.402	3224
2670.312	3245
2672.222	3311
2674.132	3262
2676.042	3324
2677.951	3361
2679.859	3257
2681.766	3270
2683.674	3252
2685.582	3199
2687.488	3263
2689.392	3164
2691.298	3327
2693.202	3242
2695.107	3298
2697.012	3202
2698.914	3252
2700.817	3235
2702.72	3309
2704.622	3241
2706.524	3336
2708.425	3296
2710.326	3238
2712.225	3191
2714.125	3194
2716.024	3205
2717.923	3232
2719.822	3276
2721.719	3272
2723.616	3225
2725.512	3313
2727.41	3258
2729.305	3242
2731.201	3230
2733.095	3266
2734.99	3243
2736.884	3237
2738.778	3249
2740.67	3200
2742.562	3225
2744.455	3291
2746.346	3231
2748.238	3227
2750.129	3224
2752.018	3245
2753.907	3245
2755.797	3217
2757.687	3186
2759.575	3224
2761.462	3321
2763.349	3227
2765.237	3270
2767.124	3244
2769.009	3210
2770.894	3256
2772.779	3129
2774.663	3215
2776.547	3212
2778.431	3217
2780.314	3191
2782.197	3177
2784.078	3244
2785.96	3221
2787.842	3167
2789.723	3232
2791.603	3280
2793.483	3232
2795.362	3228
2797.241	3176
2799.121	3189
2800.997	3202
2802.874	3226
2804.751	3201
2806.628	3234
2808.506	3119
2810.38	3193
2812.255	3289
2814.13	3178
2816.003	3186
2817.878	3150
2819.752	3184
2821.623	3214
2823.496	3159
2825.368	3166
2827.238	3137
2829.111	3194
2830.98	3212
2832.851	3237
2834.719	3240
2836.589	3279
2838.458	3258
2840.327	3129
2842.193	3255
2844.061	3111
2845.927	3220
2847.794	3207
2849.66	3294
2851.525	3200
2853.39	3309
2855.254	3197
2857.117	3199
2858.983	3292
2860.845	3243
2862.707	3232
2864.569	3285
2866.431	3318
2868.293	3263
2870.154	3285
2872.013	3436
2873.873	3328
2875.733	3407
2877.592	3406
2879.451	3416
2881.309	3402
2883.166	3421
2885.022	3482
2886.879	3436
2888.736	3422
2890.591	3438
2892.446	3484
2894.301	3530
2896.155	3475
2898.009	3451
2899.863	3422
2901.716	3483
2903.568	3519
2905.419	3428
2907.27	3466
2909.123	3493
2910.973	3368
2912.824	3450
2914.673	3531
2916.521	3440
2918.372	3561
2920.22	3554
2922.067	3541
2923.914	3539
2925.761	3615
2927.607	3570
2929.455	3671
2931.301	3627
2933.144	3656
2934.99	3628
2936.833	3675
2938.678	3662
2940.522	3833
2942.364	3871
2944.207	3722
2946.048	3779
2947.891	3864
2949.731	3819
2951.571	3766
2953.412	3841
2955.25	3802
2957.09	3716
2958.93	3701
2960.767	3705
2962.606	3604
2964.443	3703
2966.279	3633
2968.116	3633
2969.953	3539
2971.788	3603
2973.623	3567
2975.457	3539
2977.292	3511
2979.127	3475
2980.959	3485
2982.792	3499
2984.624	3407
2986.455	3513
2988.288	3487
2990.119	3389
2991.949	3344
2993.779	3375
2995.608	3365
2997.439	3399
2999.268	3316
3001.096	3328
3002.923	3272
3004.751	3286
3006.578	3213
3008.406	3332
3010.232	3236
3012.057	3225
3013.883	3176
3015.706	3125
3017.532	3153
3019.356	3157
3021.179	3135
3023.002	3179
3024.823	3161
3026.646	3158
3028.469	3023
3030.289	3073
3032.11	3096
3033.93	3085
3035.749	3071
3037.57	3095
3039.39	3055
3041.207	3037
3043.026	3146
3044.842	3067
3046.661	3087
3048.477	3040
3050.294	3111
3052.109	3142
3053.925	3012
3055.739	3055
3057.555	3110
3059.368	3085
3061.181	3069
3062.995	2992
3064.807	3071
3066.62	2974
3068.433	3098
3070.243	3055
3072.054	2956
3073.865	3071
3075.675	3089
3077.485	2975
3079.293	3051
3081.102	3036
3082.911	2977
3084.719	3104
3086.527	2967
3088.333	2991
3090.139	2975
3091.945	2961
3093.75	2985
3095.557	2961
3097.361	3027
3099.165	3014
3100.969	2969
3102.772	2993
3104.575	2920
3106.379	2969
3108.181	2935
3109.982	2944
3111.783	2929
3113.584	2924
3115.386	2956
3117.186	2979
3118.985	2965
3120.783	2873
3122.582	2866
3124.381	2888
3126.179	2959
3127.975	2951
3129.772	2910
3131.569	2942
3133.365	2919
3135.161	3005
3136.956	2957
3138.751	2976
3140.544	2939
3142.338	2930
3144.132	2849
3145.925	2945
3147.717	2936
3149.509	2999
3151.301	2942
3153.091	2869
3154.884	2882
3156.673	2982
3158.462	2808
3160.252	2930
3162.041	2954
3163.831	2926
3165.618	2867
3167.405	2926
3169.193	2887
3170.979	2937
3172.767	2934
3174.553	2877
3176.338	2875
3178.123	2883
3179.907	2870
3181.692	2922
3183.477	2971
3185.259	2913
3187.042	2917
3188.824	2855
3190.607	2858
3192.389	2865
3194.17	2873
3195.951	2879
3197.73	2823
3199.51	2928
3201.289	2893
3203.07	2872
3204.848	2937
3206.626	2891
3208.403	2861
3210.18	2903
3211.959	2854
3213.735	2927
3215.511	2866
3217.285	2819
3219.06	2867
3220.836	2888
3222.611	2870
3224.384	2886
3226.158	2837
3227.929	2841
3229.702	2843
3231.476	2822
3233.248	2943
3235.018	2875
3236.789	2898
3238.56	2946
3240.33	2860
3242.1	2882
3243.869	2897
3245.637	2800
3247.405	2866
3249.172	2836
3250.941	2867
3252.707	2890
3254.474	2896
3256.24	2823
3258.006	2793
3259.772	2876
3261.537	2843
3263.301	2836
3265.065	2864
3266.828	2855
3268.592	2790
3270.355	2790
3272.117	2834
3273.878	2867
3275.64	2813
3277.401	2883
3279.162	2943
3280.922	2861
3282.682	2874
3284.441	2870
3286.199	2841
3287.959	2831
3289.716	2845
3291.475	2815
3293.232	2883
3294.988	2868
3296.744	2810
3298.501	2875
3300.256	2887
3302.011	2904
3303.766	2894
3305.52	2893
3307.275	2849
3309.028	2849
3310.781	2830
3312.533	2836
3314.285	2897
3316.038	2847
3317.789	2872
3319.54	2877
3321.289	2770
3323.039	2835
3324.789	2880
3326.539	2977
3328.288	2797
3330.035	2897
3331.783	2823
3333.531	2893
3335.28	2898
3337.025	2831
3338.771	2795
3340.518	2753
3342.262	2843
3344.009	2920
3345.753	2795
3347.497	2845
3349.24	2806
3350.983	2789
3352.726	2752
3354.469	2840
3356.212	2756
3357.952	2837
3359.694	2784
3361.434	2810
3363.176	2758
3364.916	2827
3366.654	2844
3368.394	2832
3370.132	2764
3371.871	2808
3373.61	2773
3375.346	2756
3377.083	2788
3378.82	2805
3380.556	2779
3382.292	2792
3384.027	2772
3385.763	2699
3387.497	2747
3389.231	2774
3390.965	2832
3392.698	2745
3394.431	2754
3396.164	2755
3397.896	2760
3399.627	2782
3401.36	2750
3403.09	2790
3404.82	2832
3406.55	2683
3408.279	2703
3410.01	2777
3411.738	2716
3413.467	2715
3415.194	2727
3416.92	2743
3418.647	2758
3420.375	2724
3422.102	2727
3423.827	2789
3425.553	2684
3427.277	2720
3429.003	2728
3430.727	2685
3432.451	2696
3434.173	2729
3435.896	2748
3437.62	2730
3439.343	2673
3441.063	2657
3442.785	2680
3444.505	2676
3446.226	2693
3447.948	2636
3449.666	2697
3451.386	2715
3453.104	2716
3454.823	2657
3456.541	2657
3458.259	2670
3459.976	2724
3461.693	2687
3463.408	2694
3465.125	2583
3466.841	2629
3468.556	2705
3470.271	2662
3471.985	2669
3473.698	2581
3475.414	2678
3477.126	2640
3478.838	2636
3480.55	2596
3482.263	2661
3483.975	2590
3485.686	2639
3487.396	2610
3489.106	2641
3490.817	2602
3492.526	2649
3494.236	2649
3495.944	2583
3497.652	2574
3499.359	2625
3501.066	2583
3502.775	2571
3504.481	2587
3506.187	2600
3507.893	2627
3509.598	2522
3511.304	2561
3513.009	2541
3514.713	2621
3516.417	2563
3518.12	2543
3519.821	2603
3521.525	2556
3523.228	2573
3524.929	2594
3526.631	2587
3528.33	2548
3530.032	2601
3531.733	2517
3533.433	2544
3535.131	2511
3536.83	2553
3538.529	2557
3540.227	2559
3541.925	2518
3543.623	2594
3545.319	2567
3547.016	2549
3548.712	2509
3550.408	2608
3552.103	2524
3553.798	2527
3555.491	2479
3557.188	2472
3558.88	2516
3560.574	2506
3562.266	2581
3563.959	2538
3565.651	2491
3567.343	2526
3569.035	2497
3570.725	2504
3572.415	2476
3574.106	2464
3575.797	2453
3577.485	2544
3579.174	2481
3580.863	2477
3582.551	2524
3584.238	2461
3585.926	2478
3587.613	2488
3589.3	2499
3590.986	2458
3592.671	2437
3594.357	2413
3596.042	2476
3597.726	2477
3599.41	2352
3601.094	2389
3602.778	2401
3604.461	2484
3606.143	2502
3607.825	2483
3609.507	2424
3611.188	2466
3612.87	2404
3614.551	2433
3616.229	2427
3617.909	2349
3619.589	2409
3621.269	2459
3622.948	2428
3624.625	2422
3626.302	2409
3627.98	2388
3629.657	2417
3631.334	2350
3633.01	2442
3634.686	2435
3636.361	2280
3638.036	2368
3639.712	2396
3641.385	2333
3643.06	2370
3644.732	2369
3646.405	2339
3648.08	2414
3649.751	2414
3651.424	2341
3653.094	2326
3654.766	2347
3656.436	2328
3658.106	2343
3659.777	2349
3661.446	2329
3663.115	2301
3664.783	2333
3666.452	2363
3668.121	2364
3669.788	2375
3671.454	2302
3673.121	2377
3674.789	2332
3676.455	2339
3678.12	2331
3679.784	2347
3681.45	2324
3683.114	2365
3684.779	2311
3686.442	2343
3688.105	2329
3689.768	2309
3691.43	2316
3693.093	2315
3694.754	2309
3696.415	2303
3698.076	2303
3699.736	2271
3701.396	2338
3703.057	2274
3704.716	2295
3706.375	2271
3708.034	2329
3709.692	2265
3711.351	2259
3713.008	2284
3714.665	2322
3716.321	2292
3717.977	2277
3719.634	2345
3721.29	2267
3722.945	2235
3724.598	2299
3726.253	2215
3727.907	2283
3729.561	2310
3731.214	2286
3732.867	2212
3734.518	2238
3736.171	2295
3737.824	2328
3739.474	2309
3741.125	2279
3742.775	2287
3744.425	2279
3746.074	2230
3747.725	2302
3749.373	2256
3751.022	2181
3752.669	2273
3754.318	2302
3755.966	2217
3757.612	2215
3759.259	2260
3760.905	2250
3762.55	2248
3764.197	2266
3765.842	2203
3767.486	2244
3769.131	2252
3770.774	2273
3772.417	2239
3774.061	2243
3775.705	2198
3777.347	2223
3778.988	2146
3780.629	2209
3782.271	2203
3783.912	2203
3785.552	2216
3787.192	2206
3788.831	2241
3790.472	2242
3792.112	2203
3793.75	2252
3795.388	2194
3797.024	2236
3798.661	2180
3800.3	2146
3801.936	2150
3803.572	2209
3805.208	2173
3806.844	2207
3808.48	2193
3810.115	2201
3811.748	2183
3813.382	2225
3815.016	2154
3816.649	2195
3818.283	2176
3819.914	2229
3821.547	2159
3823.178	2182
3824.809	2153
3826.441	2140
3828.072	2154
3829.701	2202
3831.331	2132
3832.96	2164
3834.591	2159
3836.219	2231
3837.847	2172
3839.475	2140
3841.102	2147
3842.729	2156
3844.357	2104
3845.984	2128
3847.609	2159
3849.234	2125
3850.86	2136
3852.485	2118
3854.11	2107
3855.734	2134
3857.357	2075
3858.981	2132
3860.603	2149
3862.227	2180
3863.848	2141
3865.471	2133
3867.092	2111
3868.713	2143
3870.334	2112
3871.954	2137
3873.575	2078
3875.194	2174
3876.813	2110
3878.433	2121
3880.051	2125
3881.669	2212
3883.286	2091
3884.904	2098
3886.52	2092
3888.138	2152
3889.754	2107
3891.37	2142
3892.985	2128
3894.6	2079
3896.216	2116
3897.831	2118
3899.444	2057
3901.058	2119
3902.67	2140
3904.283	2116
3905.897	2093
3907.509	2071
3909.121	2096
3910.731	2084
3912.342	2029
3913.954	2046
3915.563	2081
3917.174	2089
3918.783	2115
3920.391	2092
3922.002	2102
3923.611	2102
3925.218	2070
3926.826	2021
3928.432	2063
3930.039	2070
3931.647	2081
3933.253	2060
3934.859	2040
3936.464	2047
3938.068	2069
3939.675	2045
3941.278	2023
3942.883	2070
3944.486	2071
3946.089	2102
3947.692	2057
3949.295	2048
3950.898	2062
3952.499	2068
3954.1	2036
3955.7	2047
3957.303	2113
3958.903	2047
3960.502	2056
3962.101	2118
3963.7	2059
3965.301	2054
3966.899	2056
3968.497	2020
3970.094	2017
3971.691	2079
3973.288	2035
3974.885	2062
3976.481	2016
3978.077	2076
3979.672	2072
3981.267	2028
3982.863	2035
3984.457	1991
3986.051	2039
3987.645	2005
3989.238	2058
3990.831	1976
3992.425	1975
3994.017	2018
3995.607	2003
3997.199	1994
3998.79	1966
4000.382	1981
4001.973	2073
4003.561	2070
4005.151	1978
4006.741	2002
4008.331	2005
4009.918	1947
4011.507	1990
4013.095	2056
4014.681	2033
4016.269	1943
4017.856	1978
4019.443	2031
4021.028	2010
4022.614	1943
4024.199	1960
4025.785	1977
4027.37	1984
4028.953	1963
4030.536	1962
4032.12	1986
4033.704	1909
4035.287	1948
4036.869	1981
4038.45	1921
4040.032	1889
4041.613	1953
4043.195	1948
4044.776	1923
4046.356	1920
4047.935	1950
4049.515	1934
4051.095	1925
4052.674	1960
4054.251	1918
4055.829	1949
4057.406	1904
4058.985	1884
4060.562	1900
4062.139	1941
4063.715	1901
4065.29	1921
4066.865	1891
4068.442	1937
4070.016	1927
4071.59	1924
4073.164	1942
4074.738	1883
4076.312	1885
4077.885	1914
4079.458	1910
4081.03	1909
4082.602	1919
4084.173	1869
4085.745	1928
4087.315	1929
4088.886	1893
4090.456	1882
4092.026	1912
4093.596	1843
4095.165	1921
4096.734	1922
4098.301	1893
4099.869	1857
4101.437	1891
4103.006	1881
4104.572	1874
4106.139	1878
4107.704	1876
4109.27	1911
4110.837	1864
4112.401	1904
4113.966	1822
4115.53	1899
4117.094	1814
4118.659	1867
4120.223	1847
4121.785	1887
4123.347	1896
4124.909	1854
4126.471	1850
4128.034	1861
4129.595	1880
4131.155	1850
4132.716	1773
4134.275	1874
4135.836	1889
4137.395	1859
4138.955	1837
4140.513	1804
4142.071	1837
4143.628	1789
4145.188	1847
4146.745	1818
4148.302	1829
4149.858	1830
4151.414	1838
4152.971	1809
4154.526	1763
4156.081	1841
4157.635	1806
4159.189	1801
4160.745	1822
4162.298	1743
4163.852	1817
4165.405	1796
4166.957	1835
4168.51	1791
4170.063	1825
4171.614	1873
4173.166	1786
4174.717	1819
4176.267	1775
4177.817	1811
4179.368	1788
4180.917	1798
4182.466	1814
4184.016	1878
4185.564	1797
4187.112	1782
4188.66	1767
4190.207	1845
4191.754	1801
4193.301	1801
4194.848	1815
4196.394	1741
4197.94	1766
4199.484	1784
4201.03	1756
4202.575	1774
4204.12	1768
4205.663	1773
4207.207	1813
4208.75	1756
4210.292	1745
4211.836	1741
4213.378	1783
4214.92	1831
4216.46	1794
4218.002	1761
4219.544	1814
4221.083	1776
4222.625	1793
4224.164	1711
4225.703	1765
4227.244	1750
4228.782	1815
4230.32	1742
4231.857	1737
4233.395	1737
4234.933	1740
4236.471	1746
4238.007	1769
4239.542	1728
4241.078	1719
4242.614	1698
4244.15	1766
4245.685	1780
4247.219	1715
4248.753	1689
4250.287	1740
4251.82	1719
4253.354	1735
4254.887	1758
4256.419	1717
4257.951	1804
4259.483	1762
4261.016	1780
4262.547	1711
4264.078	1727
4265.608	1720
4267.137	1739
4268.668	1715
4270.197	1731
4271.727	1721
4273.254	1708
4274.783	1727
4276.311	1687
4277.84	1673
4279.366	1727
4280.894	1679
4282.42	1708
4283.946	1714
4285.473	1725
4286.998	1657
4288.523	1717
4290.047	1688
4291.572	1698
4293.096	1692
4294.622	1744
4296.144	1707
4297.668	1664
4299.19	1668
4300.713	1681
4302.236	1680
4303.758	1668
4305.279	1703
4306.799	1638
4308.321	1651
4309.842	1734
4311.361	1716
4312.882	1695
4314.401	1673
