400.0961	2934
402.6185	2915
405.1424	2965
407.6635	3000
410.1838	3017
412.7035	2937
415.2225	3040
417.7388	3056
420.2585	3021
422.7754	3077
425.2917	3163
427.8072	3080
430.3221	3147
432.8363	3127
435.3498	3205
437.8626	3195
440.3727	3142
442.8841	3198
445.3969	3188
447.907	3121
450.4142	3166
452.9229	3191
455.4289	3202
457.9362	3208
460.4449	3163
462.9488	3229
465.454	3154
467.9566	3180
470.4604	3212
472.9637	3185
475.4662	3188
477.966	3170
480.4671	3162
482.9656	3267
485.4633	3194
487.9645	3245
490.4608	3293
492.9566	3213
495.4536	3332
497.948	3184
500.4437	3188
502.9387	3272
505.431	3302
507.9226	3244
510.4136	3349
512.9079	3280
515.3975	3236
517.8864	3329
520.3746	3268
522.8622	3328
525.3491	3195
527.8394	3271
530.3249	3320
532.8098	3276
535.2939	3329
537.7774	3269
540.2623	3287
542.7444	3378
545.2259	3335
547.7067	3288
550.1868	3351
552.6683	3296
555.147	3350
557.6231	3324
560.1005	3327
562.5773	3426
565.0534	3441
567.5308	3374
570.0056	3403
572.4776	3397
574.951	3408
577.4237	3445
579.8978	3521
582.3671	3386
584.8378	3433
587.3079	3401
589.7773	3508
592.244	3457
594.714	3387
597.1793	3394
599.6461	3379
602.1121	3434
604.5754	3376
607.0421	3426
609.5042	3447
611.9675	3399
614.4282	3403
616.8902	3372
619.3515	3374
621.8122	3412
624.2702	3412
626.7296	3466
629.1863	3414
631.6423	3353
634.1017	3492
636.5563	3417
639.0104	3329
641.4658	3383
643.9185	3383
646.3725	3445
648.8239	3379
651.2766	3415
653.7266	3514
656.176	3478
658.6247	3524
661.0748	3441
663.5242	3457
665.9709	3474
668.417	3483
670.8624	3511
673.3092	3480
675.7533	3579
678.1968	3516
680.6395	3551
683.0817	3410
685.5251	3540
687.9659	3542
690.4061	3572
692.8456	3516
695.2844	3520
697.7226	3525
700.1621	3617
702.599	3493
705.0332	3465
707.4688	3622
709.9036	3447
712.3399	3604
714.7735	3565
717.2044	3569
719.6367	3594
722.0683	3577
724.4993	3677
726.9296	3627
729.3593	3634
731.7883	3689
734.2147	3684
736.6423	3642
739.0714	3653
741.4958	3710
743.9216	3664
746.3447	3698
748.7691	3721
751.1929	3735
753.616	3691
756.0366	3721
758.4584	3773
760.8776	3828
763.2982	3692
765.718	3743
768.1373	3763
770.5539	3725
772.9698	3779
775.3871	3790
777.8038	3768
780.2178	3780
782.6332	3762
785.0459	3709
787.458	3797
789.8714	3770
792.2842	3766
794.6943	3764
797.1038	3828
799.5127	3772
801.9209	3758
804.3324	3756
806.7393	3903
809.1456	3748
811.5513	3835
813.9562	3745
816.3625	3817
818.7663	3806
821.1693	3826
823.5718	3770
825.9735	3806
828.3746	3803
830.7771	3759
833.177	3944
835.5762	3795
837.9747	3808
840.3727	3837
842.772	3867
845.1666	3784
847.5626	3926
849.958	3884
852.3527	3849
854.7488	3882
857.1403	3924
859.5331	3839
861.9253	3961
864.3168	3837
866.7057	3816
869.098	3890
871.4876	3850
873.8746	3837
876.263	3926
878.6487	3852
881.0378	3854
883.4243	3898
885.8081	3914
888.1933	3874
890.5759	3857
892.9598	3917
895.343	3831
897.7256	3923
900.1057	3887
902.4871	3928
904.8659	3915
907.246	3864
909.6254	3867
912.0023	3900
914.3786	3952
916.7562	4005
919.1331	4062
921.5074	4042
923.8831	4055
926.2562	4040
928.6287	4097
931.0005	4091
933.3757	4104
935.7462	4017
938.1162	4043
940.4855	4124
942.8542	4079
945.2242	4196
947.5916	4058
949.9584	4271
952.3266	4361
954.6921	4406
957.0571	4433
959.4233	4604
961.787	4692
964.15	4637
966.5125	4621
968.8742	4510
971.2354	4485
973.5959	4320
975.9559	4161
978.3151	4152
980.6738	4049
983.0338	4093
985.3912	4042
987.7461	4053
990.1022	3974
992.4578	3898
994.8127	4045
997.1689	4068
999.5207	3986
1001.874	3977
1004.226	4038
1006.576	3901
1008.929	4024
1011.28	4075
1013.628	4023
1015.977	4023
1018.324	3982
1020.674	4083
1023.019	4095
1025.366	4127
1027.713	4091
1030.056	4100
1032.399	4013
1034.746	4149
1037.087	4101
1039.431	4122
1041.771	4213
1044.113	4066
1046.454	4053
1048.793	4181
1051.133	4112
1053.471	4114
1055.807	4152
1058.146	4034
1060.483	4163
1062.818	4138
1065.153	4235
1067.489	4163
1069.822	4165
1072.156	4212
1074.488	4135
1076.82	4170
1079.15	4059
1081.48	4136
1083.814	4121
1086.143	4140
1088.471	4098
1090.799	4093
1093.126	4092
1095.452	4109
1097.78	4173
1100.105	4173
1102.43	4095
1104.754	4186
1107.077	4192
1109.4	4060
1111.722	4174
1114.044	4095
1116.365	4129
1118.685	4177
1121.005	4226
1123.324	4183
1125.643	4174
1127.961	4186
1130.278	4146
1132.595	4118
1134.911	4226
1137.226	4217
1139.541	4179
1141.854	4204
1144.167	4162
1146.482	4198
1148.793	4086
1151.105	4086
1153.414	4177
1155.725	4160
1158.033	4161
1160.344	4177
1162.651	4161
1164.959	4194
1167.265	4200
1169.572	4236
1171.878	4187
1174.184	4117
1176.488	4115
1178.79	4279
1181.094	4258
1183.396	4233
1185.699	4171
1188.001	4193
1190.301	4195
1192.6	4180
1194.9	4174
1197.2	4223
1199.497	4157
1201.794	4277
1204.09	4166
1206.387	4250
1208.684	4193
1210.978	4235
1213.272	4167
1215.565	4186
1217.858	4162
1220.15	4197
1222.443	4229
1224.734	4223
1227.024	4242
1229.313	4231
1231.602	4261
1233.892	4199
1236.18	4307
1238.467	4319
1240.754	4259
1243.04	4370
1245.325	4283
1247.612	4440
1249.896	4321
1252.178	4308
1254.461	4343
1256.743	4283
1259.027	4246
1261.308	4300
1263.587	4294
1265.867	4271
1268.146	4339
1270.425	4335
1272.703	4284
1274.981	4289
1277.256	4404
1279.532	4302
1281.808	4238
1284.083	4296
1286.358	4335
1288.63	4225
1290.904	4323
1293.175	4303
1295.449	4219
1297.719	4243
1299.99	4292
1302.259	4260
1304.529	4310
1306.798	4354
1309.065	4243
1311.333	4369
1313.599	4218
1315.866	4248
1318.131	4272
1320.396	4340
1322.66	4234
1324.925	4302
1327.187	4282
1329.448	4271
1331.711	4248
1333.974	4346
1336.234	4271
1338.493	4391
1340.752	4367
1343.01	4296
1345.269	4286
1347.526	4309
1349.784	4287
1352.04	4303
1354.295	4219
1356.552	4297
1358.806	4396
1361.059	4369
1363.312	4349
1365.564	4476
1367.818	4316
1370.069	4264
1372.318	4368
1374.568	4343
1376.817	4442
1379.066	4350
1381.316	4371
1383.564	4433
1385.809	4332
1388.056	4352
1390.301	4435
1392.549	4387
1394.793	4342
1397.036	4453
1399.279	4453
1401.522	4434
1403.763	4416
1406.007	4494
1408.248	4445
1410.487	4438
1412.727	4459
1414.965	4425
1417.205	4356
1419.442	4354
1421.68	4425
1423.915	4537
1426.152	4464
1428.388	4507
1430.623	4504
1432.857	4487
1435.091	4452
1437.323	4478
1439.556	4514
1441.789	4521
1444.019	4451
1446.25	4490
1448.48	4521
1450.708	4511
1452.938	4509
1455.167	4507
1457.394	4566
1459.62	4501
1461.846	4584
1464.073	4571
1466.299	4572
1468.523	4561
1470.746	4454
1472.969	4483
1475.191	4412
1477.415	4426
1479.636	4437
1481.858	4447
1484.078	4451
1486.298	4358
1488.518	4366
1490.736	4388
1492.954	4388
1495.169	4382
1497.386	4372
1499.602	4370
1501.819	4377
1504.034	4270
1506.248	4415
1508.462	4371
1510.675	4354
1512.888	4344
1515.1	4313
1517.311	4305
1519.522	4330
1521.732	4240
1523.942	4323
1526.151	4368
1528.36	4340
1530.566	4440
1532.773	4340
1534.98	4323
1537.187	4385
1539.392	4370
1541.596	4336
1543.801	4284
1546.005	4445
1548.208	4337
1550.411	4467
1552.612	4351
1554.814	4452
1557.013	4391
1559.212	4538
1561.414	4500
1563.612	4373
1565.811	4446
1568.007	4459
1570.203	4516
1572.403	4413
1574.598	4450
1576.792	4451
1578.988	4459
1581.181	4516
1583.376	4427
1585.568	4535
1587.761	4506
1589.952	4479
1592.143	4476
1594.333	4572
1596.524	4482
1598.715	4436
1600.903	4469
1603.091	4514
1605.278	4564
1607.466	4490
1609.652	4438
1611.838	4498
1614.023	4470
1616.207	4497
1618.391	4474
1620.576	4482
1622.759	4494
1624.941	4493
1627.123	4489
1629.304	4530
1631.484	4494
1633.664	4532
1635.844	4539
1638.022	4665
1640.201	4523
1642.38	4596
1644.556	4563
1646.732	4664
1648.908	4564
1651.084	4651
1653.257	4554
1655.433	4688
1657.607	4564
1659.779	4550
1661.951	4572
1664.122	4645
1666.295	4620
1668.467	4523
1670.635	4595
1672.805	4589
1674.973	4630
1677.142	4591
1679.31	4612
1681.478	4594
1683.644	4598
1685.81	4558
1687.975	4688
1690.142	4593
1692.305	4632
1694.468	4484
1696.632	4544
1698.794	4486
1700.957	4524
1703.119	4526
1705.279	4480
1707.439	4493
1709.598	4529
1711.758	4572
1713.917	4455
1716.075	4474
1718.231	4468
1720.388	4462
1722.543	4518
1724.702	4495
1726.856	4491
1729.01	4446
1731.164	4465
1733.317	4559
1735.471	4488
1737.623	4536
1739.774	4578
1741.925	4528
1744.075	4581
1746.225	4525
1748.376	4447
1750.524	4510
1752.672	4508
1754.82	4561
1756.965	4584
1759.113	4551
1761.259	4557
1763.405	4580
1765.549	4549
1767.694	4510
1769.836	4499
1771.981	4543
1774.123	4482
1776.264	4542
1778.405	4494
1780.546	4524
1782.687	4515
1784.827	4466
1786.966	4562
1789.103	4620
1791.242	4615
1793.381	4509
1795.517	4559
1797.653	4518
1799.788	4462
1801.923	4487
1804.057	4544
1806.193	4554
1808.326	4597
1810.457	4520
1812.59	4534
1814.721	4543
1816.855	4587
1818.984	4602
1821.113	4479
1823.244	4529
1825.372	4631
1827.499	4623
1829.63	4571
1831.756	4641
1833.882	4555
1836.007	4547
1838.132	4552
1840.26	4563
1842.384	4519
1844.507	4495
1846.63	4486
1848.752	4455
1850.875	4542
1852.996	4544
1855.118	4393
1857.238	4539
1859.358	4461
1861.477	4498
1863.597	4458
1865.715	4491
1867.832	4526
1869.948	4632
1872.064	4465
1874.181	4440
1876.297	4505
1878.411	4546
1880.526	4544
1882.639	4527
1884.752	4460
1886.865	4485
1888.977	4492
1891.089	4498
1893.2	4575
1895.308	4552
1897.42	4506
1899.53	4530
1901.639	4586
1903.745	4463
1905.853	4461
1907.962	4662
1910.067	4542
1912.174	4547
1914.278	4567
1916.383	4552
1918.486	4705
1920.592	4544
1922.694	4555
1924.797	4496
1926.898	4665
1929	4667
1931.102	4621
1933.203	4506
1935.301	4558
1937.401	4560
1939.499	4628
1941.598	4628
1943.697	4626
1945.793	4556
1947.888	4620
1949.985	4567
1952.08	4638
1954.176	4570
1956.269	4644
1958.364	4551
1960.457	4559
1962.549	4624
1964.642	4599
1966.733	4539
1968.823	4534
1970.913	4561
1973.005	4523
1975.093	4571
1977.184	4557
1979.271	4572
1981.359	4523
1983.446	4570
1985.532	4464
1987.619	4507
1989.705	4485
1991.789	4493
1993.874	4562
1995.956	4636
1998.041	4517
2000.123	4489
2002.206	4599
2004.287	4568
2006.368	4508
2008.449	4521
2010.529	4503
2012.609	4617
2014.688	4585
2016.766	4465
2018.843	4555
2020.922	4512
2022.999	4497
2025.074	4477
2027.15	4576
2029.225	4573
2031.299	4523
2033.375	4539
2035.447	4528
2037.52	4539
2039.592	4507
2041.664	4568
2043.736	4521
2045.807	4535
2047.876	4576
2049.947	4528
2052.015	4494
2054.086	4473
2056.153	4483
2058.221	4519
2060.288	4570
2062.353	4500
2064.42	4435
2066.486	4485
2068.55	4550
2070.614	4580
2072.678	4576
2074.741	4455
2076.805	4571
2078.866	4584
2080.929	4585
2082.99	4624
2085.049	4444
2087.109	4591
2089.17	4531
2091.228	4501
2093.286	4653
2095.344	4426
2097.4	4555
2099.46	4562
2101.516	4505
2103.572	4584
2105.626	4590
2107.679	4553
2109.735	4570
2111.788	4440
2113.841	4557
2115.894	4565
2117.945	4582
2119.997	4553
2122.049	4514
2124.1	4537
2126.148	4590
2128.197	4495
2130.246	4550
2132.296	4449
2134.342	4494
2136.39	4533
2138.437	4482
2140.483	4582
2142.527	4480
2144.574	4550
2146.619	4500
2148.661	4456
2150.705	4518
2152.747	4528
2154.792	4515
2156.832	4489
2158.874	4451
2160.915	4613
2162.954	4451
2164.995	4525
2167.034	4570
2169.072	4426
2171.111	4483
2173.148	4480
2175.186	4463
2177.223	4444
2179.258	4472
2181.294	4529
2183.328	4425
2185.362	4473
2187.398	4363
2189.431	4443
2191.463	4370
2193.495	4521
2195.528	4437
2197.56	4370
2199.59	4447
2201.62	4276
2203.649	4515
2205.678	4409
2207.708	4443
2209.737	4464
2211.764	4377
2213.791	4443
2215.817	4470
2217.843	4426
2219.87	4424
2221.895	4440
2223.919	4487
2225.942	4463
2227.966	4428
2229.988	4438
2232.012	4378
2234.032	4439
2236.054	4380
2238.074	4355
2240.095	4354
2242.116	4393
2244.135	4445
2246.153	4397
2248.171	4445
2250.188	4465
2252.208	4423
2254.223	4478
2256.239	4444
2258.255	4363
2260.269	4403
2262.283	4465
2264.3	4379
2266.312	4418
2268.325	4377
2270.336	4405
2272.349	4370
2274.362	4425
2276.372	4483
2278.383	4359
2280.392	4476
2282.402	4469
2284.409	4414
2286.418	4439
2288.427	4424
2290.433	4342
2292.441	4431
2294.446	4473
2296.453	4324
2298.459	4341
2300.463	4376
2302.466	4409
2304.471	4422
2306.475	4440
2308.477	4399
2310.478	4326
2312.481	4338
2314.481	4361
2316.481	4420
2318.482	4303
2320.482	4431
2322.48	4419
2324.48	4324
2326.478	4418
2328.476	4330
2330.473	4402
2332.469	4323
2334.465	4327
2336.46	4395
2338.454	4332
2340.45	4327
2342.444	4334
2344.437	4304
2346.43	4321
2348.421	4211
2350.414	4272
2352.405	4364
2354.396	4306
2356.386	4341
2358.376	4267
2360.366	4333
2362.355	4368
2364.343	4266
2366.331	4249
2368.317	4254
2370.304	4377
2372.292	4270
2374.278	4374
2376.262	4318
2378.247	4281
2380.23	4370
2382.216	4290
2384.199	4190
2386.181	4294
2388.163	4284
2390.144	4244
2392.127	4327
2394.107	4269
2396.087	4374
2398.066	4258
2400.046	4336
2402.023	4277
2404.004	4276
2405.981	4157
2407.957	4278
2409.934	4237
2411.91	4245
2413.886	4265
2415.862	4351
2417.836	4269
2419.809	4308
2421.784	4121
2423.756	4269
2425.73	4276
2427.701	4335
2429.672	4253
2431.644	4267
2433.615	4216
2435.586	4186
2437.555	4252
2439.523	4231
2441.491	4248
2443.459	4304
2445.428	4216
2447.395	4126
2449.361	4284
2451.327	4195
2453.292	4289
2455.257	4314
2457.223	4227
2459.187	4240
2461.15	4184
2463.113	4252
2465.076	4225
2467.039	4265
2468.999	4236
2470.96	4153
2472.921	4232
2474.881	4273
2476.841	4162
2478.8	4217
2480.759	4177
2482.717	4190
2484.675	4201
2486.63	4158
2488.589	4257
2490.545	4205
2492.5	4153
2494.455	4218
2496.408	4127
2498.364	4206
2500.318	4232
2502.27	4163
2504.223	4087
2506.174	4199
2508.126	4206
2510.078	4056
2512.03	4191
2513.979	4202
2515.927	4209
2517.877	4315
2519.826	4193
2521.775	4194
2523.722	4126
2525.668	4168
2527.616	4181
2529.561	4141
2531.508	4120
2533.452	4145
2535.398	4202
2537.342	4179
2539.284	4160
2541.229	4265
2543.173	4173
2545.114	4111
2547.055	4224
2548.996	4112
2550.938	4148
2552.878	4203
2554.817	4153
2556.756	4206
2558.695	4207
2560.633	4228
2562.572	4128
2564.509	4172
2566.445	4163
2568.382	4150
2570.317	4095
2572.254	4171
2574.189	4189
2576.123	4184
2578.057	4079
2579.99	4175
2581.923	4089
2583.855	4194
2585.788	4140
2587.719	4132
2589.65	4127
2591.579	4096
2593.511	4203
2595.44	4201
2597.37	4081
2599.297	4210
2601.225	4212
2603.153	4119
2605.08	4241
2607.007	4145
2608.932	4184
2610.858	4186
2612.782	4125
2614.709	4180
2616.632	4152
2618.556	4201
2620.478	4163
2622.401	4224
2624.324	4064
2626.247	4120
2628.167	4176
2630.088	4121
2632.008	4183
2633.928	4190
2635.848	4135
2637.766	4097
2639.684	4145
2641.603	4166
2643.519	4149
2645.437	4159
2647.353	4136
2649.27	4124
2651.184	4223
2653.099	4135
2655.014	4117
2656.928	4142
2658.842	4195
2660.755	4217
2662.667	4121
2664.579	4097
2666.491	4190
2668.402	4081
2670.312	4074
2672.222	4144
2674.132	4126
2676.042	4231
2677.951	4208
2679.859	4153
2681.766	4093
2683.674	4172
2685.582	4098
2687.488	4076
2689.392	4213
2691.298	4111
2693.202	4141
2695.107	4090
2697.012	4086
2698.914	4102
2700.817	4055
2702.72	4066
2704.622	4071
2706.524	4076
2708.425	4115
2710.326	4133
2712.225	4059
2714.125	4049
2716.024	4167
2717.923	4104
2719.822	4181
2721.719	4034
2723.616	4079
2725.512	4112
2727.41	4090
2729.305	4065
2731.201	4019
2733.095	4106
2734.99	4091
2736.884	4105
2738.778	4095
2740.67	4042
2742.562	4108
2744.455	4029
2746.346	3981
2748.238	4120
2750.129	4012
2752.018	4086
2753.907	4057
2755.797	3990
2757.687	4026
2759.575	4064
2761.462	4047
2763.349	4066
2765.237	4016
2767.124	4067
2769.009	4039
2770.894	4057
2772.779	3991
2774.663	4034
2776.547	4066
2778.431	4047
2780.314	4072
2782.197	4088
2784.078	4048
2785.96	4047
2787.842	3937
2789.723	3937
2791.603	4032
2793.483	3962
2795.362	4024
2797.241	4082
2799.121	3983
2800.997	3981
2802.874	4036
2804.751	3947
2806.628	3956
2808.506	4045
2810.38	3982
2812.255	3945
2814.13	3950
2816.003	3978
2817.878	4043
2819.752	3972
2821.623	4013
2823.496	4023
2825.368	4001
2827.238	3954
2829.111	4002
2830.98	4031
2832.851	4032
2834.719	4025
2836.589	3989
2838.458	3974
2840.327	3988
2842.193	4088
2844.061	3992
2845.927	3908
2847.794	3986
2849.66	3929
2851.525	4052
2853.39	4107
2855.254	3978
2857.117	3961
2858.983	3890
2860.845	4047
2862.707	4020
2864.569	4061
2866.431	4011
2868.293	4100
2870.154	4075
2872.013	4175
2873.873	4078
2875.733	4121
2877.592	4175
2879.451	4208
2881.309	4124
2883.166	4218
2885.022	4225
2886.879	4250
2888.736	4180
2890.591	4205
2892.446	4250
2894.301	4247
2896.155	4221
2898.009	4205
2899.863	4316
2901.716	4250
2903.568	4174
2905.419	4263
2907.27	4229
2909.123	4126
2910.973	4208
2912.824	4273
2914.673	4233
2916.521	4270
2918.372	4192
2920.22	4167
2922.067	4253
2923.914	4350
2925.761	4401
2927.607	4380
2929.455	4390
2931.301	4458
2933.144	4445
2934.99	4466
2936.833	4509
2938.678	4516
2940.522	4478
2942.364	4549
2944.207	4611
2946.048	4617
2947.891	4584
2949.731	4623
2951.571	4482
2953.412	4498
2955.25	4530
2957.09	4483
2958.93	4459
2960.767	4463
2962.606	4512
2964.443	4404
2966.279	4457
2968.116	4395
2969.953	4340
2971.788	4352
2973.623	4339
2975.457	4211
2977.292	4292
2979.127	4265
2980.959	4160
2982.792	4150
2984.624	4261
2986.455	4180
2988.288	4162
2990.119	4184
2991.949	4116
2993.779	4114
2995.608	4177
2997.439	4040
2999.268	4073
3001.096	4007
3002.923	4036
3004.751	3966
3006.578	4064
3008.406	3916
3010.232	3976
3012.057	3857
3013.883	3906
3015.706	3999
3017.532	3881
3019.356	3882
3021.179	3852
3023.002	3874
3024.823	3760
3026.646	3854
3028.469	3812
3030.289	3766
3032.11	3776
3033.93	3847
3035.749	3772
3037.57	3817
3039.39	3790
3041.207	3779
3043.026	3790
3044.842	3786
3046.661	3740
3048.477	3839
3050.294	3766
3052.109	3703
3053.925	3861
3055.739	3772
3057.555	3730
3059.368	3814
3061.181	3629
3062.995	3777
3064.807	3823
3066.62	3707
3068.433	3765
3070.243	3762
3072.054	3689
3073.865	3798
3075.675	3665
3077.485	3778
3079.293	3663
3081.102	3710
3082.911	3725
3084.719	3693
3086.527	3782
3088.333	3651
3090.139	3654
3091.945	3700
3093.75	3665
3095.557	3654
3097.361	3737
3099.165	3633
3100.969	3722
3102.772	3681
3104.575	3643
3106.379	3606
3108.181	3705
3109.982	3595
3111.783	3612
3113.584	3642
3115.386	3675
3117.186	3672
3118.985	3615
3120.783	3702
3122.582	3571
3124.381	3591
3126.179	3549
3127.975	3679
3129.772	3586
3131.569	3651
3133.365	3580
3135.161	3564
3136.956	3631
3138.751	3586
3140.544	3558
3142.338	3607
3144.132	3567
3145.925	3479
3147.717	3613
3149.509	3537
3151.301	3564
3153.091	3528
3154.884	3530
3156.673	3557
3158.462	3483
3160.252	3599
3162.041	3553
3163.831	3574
3165.618	3514
3167.405	3545
3169.193	3506
3170.979	3574
3172.767	3492
3174.553	3587
3176.338	3484
3178.123	3578
3179.907	3492
3181.692	3512
3183.477	3529
3185.259	3450
3187.042	3499
3188.824	3527
3190.607	3514
3192.389	3480
3194.17	3506
3195.951	3515
3197.73	3501
3199.51	3537
3201.289	3485
3203.07	3422
3204.848	3475
3206.626	3501
3208.403	3526
3210.18	3463
3211.959	3450
3213.735	3516
3215.511	3463
3217.285	3477
3219.06	3543
3220.836	3490
3222.611	3464
3224.384	3432
3226.158	3501
3227.929	3517
3229.702	3423
3231.476	3492
3233.248	3502
3235.018	3465
3236.789	3473
3238.56	3429
3240.33	3454
3242.1	3477
3243.869	3509
3245.637	3473
3247.405	3402
3249.172	3473
3250.941	3488
3252.707	3389
3254.474	3424
3256.24	3514
3258.006	3495
3259.772	3444
3261.537	3505
3263.301	3463
3265.065	3587
3266.828	3420
3268.592	3447
3270.355	3453
3272.117	3582
3273.878	3465
3275.64	3405
3277.401	3423
3279.162	3486
3280.922	3321
3282.682	3475
3284.441	3520
3286.199	3481
3287.959	3459
3289.716	3424
3291.475	3473
3293.232	3458
3294.988	3493
3296.744	3439
3298.501	3485
3300.256	3485
3302.011	3466
3303.766	3436
3305.52	3445
3307.275	3395
3309.028	3424
3310.781	3487
3312.533	3463
3314.285	3412
3316.038	3337
3317.789	3492
3319.54	3400
3321.289	3441
3323.039	3380
3324.789	3423
3326.539	3394
3328.288	3424
3330.035	3478
3331.783	3430
3333.531	3410
3335.28	3432
3337.025	3371
3338.771	3452
3340.518	3419
3342.262	3418
3344.009	3395
3345.753	3377
3347.497	3357
3349.24	3324
3350.983	3391
3352.726	3413
3354.469	3335
3356.212	3339
3357.952	3409
3359.694	3362
3361.434	3473
3363.176	3335
3364.916	3443
3366.654	3287
3368.394	3369
3370.132	3335
3371.871	3413
3373.61	3249
3375.346	3343
3377.083	3283
3378.82	3348
3380.556	3384
3382.292	3368
3384.027	3344
3385.763	3257
3387.497	3312
3389.231	3251
3390.965	3347
3392.698	3305
3394.431	3306
3396.164	3384
3397.896	3302
3399.627	3389
3401.36	3331
3403.09	3289
3404.82	3290
3406.55	3293
3408.279	3294
3410.01	3337
3411.738	3270
3413.467	3264
3415.194	3236
3416.92	3292
3418.647	3283
3420.375	3235
3422.102	3346
3423.827	3251
3425.553	3267
3427.277	3192
3429.003	3280
3430.727	3302
3432.451	3222
3434.173	3257
3435.896	3186
3437.62	3182
3439.343	3259
3441.063	3240
3442.785	3289
3444.505	3214
3446.226	3140
3447.948	3198
3449.666	3281
3451.386	3247
3453.104	3214
3454.823	3211
3456.541	3159
3458.259	3141
3459.976	3168
3461.693	3184
3463.408	3225
3465.125	3162
3466.841	3147
3468.556	3195
3470.271	3242
3471.985	3123
3473.698	3099
3475.414	3153
3477.126	3148
3478.838	3214
3480.55	3150
3482.263	3103
3483.975	3175
3485.686	3206
3487.396	3088
3489.106	3136
3490.817	3057
3492.526	3166
3494.236	3114
3495.944	3106
3497.652	3127
3499.359	3140
3501.066	3063
3502.775	3126
3504.481	3095
3506.187	2982
3507.893	3092
3509.598	3087
3511.304	3165
3513.009	3099
3514.713	3048
3516.417	3062
3518.12	3085
3519.821	3072
3521.525	3068
3523.228	3151
3524.929	3110
3526.631	3099
3528.33	3058
3530.032	3045
3531.733	3047
3533.433	3058
3535.131	3074
3536.83	2974
3538.529	2976
3540.227	3146
3541.925	3040
3543.623	3078
3545.319	2977
3547.016	3006
3548.712	3017
3550.408	2985
3552.103	3105
3553.798	2978
3555.491	3186
3557.188	2952
3558.88	3029
3560.574	2999
3562.266	3097
3563.959	2986
3565.651	2932
3567.343	3028
3569.035	2951
3570.725	2957
3572.415	2972
3574.106	2962
3575.797	2936
3577.485	2953
3579.174	2975
3580.863	2980
3582.551	3012
3584.238	2958
3585.926	3000
3587.613	2944
3589.3	2988
3590.986	2960
3592.671	2971
3594.357	2956
3596.042	2949
3597.726	2923
3599.41	2927
3601.094	2953
3602.778	2903
3604.461	2901
3606.143	2883
3607.825	2924
3609.507	2797
3611.188	2828
3612.87	2922
3614.551	2896
3616.229	2824
3617.909	2906
3619.589	2857
3621.269	2959
3622.948	2855
3624.625	2866
3626.302	2848
3627.98	2887
3629.657	2835
3631.334	2911
3633.01	2880
3634.686	2799
3636.361	2813
3638.036	2875
3639.712	2797
3641.385	2843
3643.06	2862
3644.732	2848
3646.405	2807
3648.08	2788
3649.751	2855
3651.424	2753
3653.094	2846
3654.766	2819
3656.436	2850
3658.106	2829
3659.777	2849
3661.446	2803
3663.115	2759
3664.783	2740
3666.452	2853
3668.121	2776
3669.788	2788
3671.454	2840
3673.121	2835
3674.789	2776
3676.455	2793
3678.12	2793
3679.784	2788
3681.45	2704
3683.114	2815
3684.779	2840
3686.442	2691
3688.105	2778
3689.768	2781
3691.43	2730
3693.093	2736
3694.754	2727
3696.415	2717
3698.076	2748
3699.736	2793
3701.396	2745
3703.057	2744
3704.716	2718
3706.375	2725
3708.034	2719
3709.692	2783
3711.351	2718
3713.008	2693
3714.665	2732
3716.321	2745
3717.977	2670
3719.634	2720
3721.29	2723
3722.945	2697
3724.598	2744
3726.253	2735
3727.907	2701
3729.561	2653
3731.214	2638
3732.867	2732
3734.518	2682
3736.171	2661
3737.824	2720
3739.474	2678
3741.125	2652
3742.775	2752
3744.425	2656
3746.074	2688
3747.725	2693
3749.373	2641
3751.022	2710
3752.669	2718
3754.318	2653
3755.966	2702
3757.612	2656
3759.259	2666
3760.905	2687
3762.55	2636
3764.197	2642
3765.842	2685
3767.486	2714
3769.131	2694
3770.774	2666
3772.417	2594
3774.061	2636
3775.705	2705
3777.347	2698
3778.988	2632
3780.629	2673
3782.271	2672
3783.912	2611
3785.552	2554
3787.192	2680
3788.831	2632
3790.472	2615
3792.112	2539
3793.75	2643
3795.388	2623
3797.024	2571
3798.661	2650
3800.3	2633
3801.936	2547
3803.572	2614
3805.208	2590
3806.844	2577
3808.48	2609
3810.115	2553
3811.748	2523
3813.382	2616
3815.016	2637
3816.649	2512
3818.283	2518
3819.914	2575
3821.547	2576
3823.178	2566
3824.809	2537
3826.441	2539
3828.072	2568
3829.701	2562
3831.331	2552
3832.96	2566
3834.591	2524
3836.219	2552
3837.847	2572
3839.475	2551
3841.102	2586
3842.729	2559
3844.357	2637
3845.984	2521
3847.609	2485
3849.234	2524
3850.86	2445
3852.485	2477
3854.11	2501
3855.734	2501
3857.357	2483
3858.981	2558
3860.603	2490
3862.227	2528
3863.848	2507
3865.471	2491
3867.092	2529
3868.713	2570
3870.334	2487
3871.954	2479
3873.575	2508
3875.194	2502
3876.813	2499
3878.433	2442
3880.051	2474
3881.669	2477
3883.286	2484
3884.904	2494
3886.52	2480
3888.138	2529
3889.754	2494
3891.37	2521
3892.985	2458
3894.6	2452
3896.216	2505
3897.831	2553
3899.444	2477
3901.058	2541
3902.67	2453
3904.283	2479
3905.897	2477
3907.509	2422
3909.121	2461
3910.731	2462
3912.342	2476
3913.954	2458
3915.563	2502
3917.174	2388
3918.783	2429
3920.391	2450
3922.002	2448
3923.611	2453
3925.218	2447
3926.826	2422
3928.432	2475
3930.039	2453
3931.647	2393
3933.253	2468
3934.859	2431
3936.464	2446
3938.068	2446
3939.675	2468
3941.278	2438
3942.883	2420
3944.486	2417
3946.089	2444
3947.692	2423
3949.295	2463
3950.898	2427
3952.499	2406
3954.1	2402
3955.7	2443
3957.303	2386
3958.903	2362
3960.502	2446
3962.101	2360
3963.7	2402
3965.301	2402
3966.899	2329
3968.497	2380
3970.094	2363
3971.691	2418
3973.288	2405
3974.885	2373
3976.481	2378
3978.077	2324
3979.672	2381
3981.267	2391
3982.863	2479
3984.457	2366
3986.051	2391
3987.645	2353
3989.238	2371
3990.831	2316
3992.425	2363
3994.017	2363
3995.607	2354
3997.199	2365
3998.79	2341
4000.382	2319
4001.973	2340
4003.561	2358
4005.151	2287
4006.741	2323
4008.331	2265
4009.918	2311
4011.507	2374
4013.095	2328
4014.681	2345
4016.269	2260
4017.856	2317
4019.443	2257
4021.028	2299
4022.614	2243
4024.199	2306
4025.785	2315
4027.37	2294
4028.953	2285
4030.536	2221
4032.12	2324
4033.704	2280
4035.287	2269
4036.869	2221
4038.45	2255
4040.032	2253
4041.613	2302
4043.195	2271
4044.776	2287
4046.356	2294
4047.935	2308
4049.515	2277
4051.095	2241
4052.674	2227
4054.251	2276
4055.829	2239
4057.406	2225
4058.985	2259
4060.562	2257
4062.139	2193
4063.715	2241
4065.29	2209
4066.865	2306
4068.442	2268
4070.016	2274
4071.59	2236
4073.164	2229
4074.738	2295
4076.312	2262
4077.885	2266
4079.458	2221
4081.03	2222
4082.602	2202
4084.173	2157
4085.745	2155
4087.315	2210
4088.886	2189
4090.456	2212
4092.026	2221
4093.596	2208
4095.165	2245
4096.734	2153
4098.301	2278
4099.869	2163
4101.437	2237
4103.006	2152
4104.572	2187
4106.139	2209
4107.704	2151
4109.27	2151
4110.837	2118
4112.401	2254
4113.966	2119
4115.53	2157
4117.094	2157
4118.659	2151
4120.223	2174
4121.785	2156
4123.347	2145
4124.909	2117
4126.471	2112
4128.034	2155
4129.595	2130
4131.155	2167
4132.716	2180
4134.275	2166
4135.836	2227
4137.395	2203
4138.955	2167
4140.513	2162
4142.071	2166
4143.628	2078
4145.188	2072
4146.745	2168
4148.302	2206
4149.858	2120
4151.414	2089
4152.971	2167
4154.526	2148
4156.081	2068
4157.635	2161
4159.189	2045
4160.745	2100
4162.298	2085
4163.852	2013
4165.405	2057
4166.957	2112
4168.51	2147
4170.063	2075
4171.614	2032
4173.166	2100
4174.717	2065
4176.267	2064
4177.817	2077
4179.368	2040
4180.917	2093
4182.466	2082
4184.016	2045
4185.564	2067
4187.112	2067
4188.66	2073
4190.207	2043
4191.754	2068
4193.301	2086
4194.848	2103
4196.394	2087
4197.94	2004
4199.484	2053
4201.03	1984
4202.575	2089
4204.12	2038
4205.663	2063
4207.207	2027
4208.75	2051
4210.292	1980
4211.836	2039
4213.378	2018
4214.92	2056
4216.46	1967
4218.002	2015
4219.544	2022
4221.083	2010
4222.625	2045
4224.164	2026
4225.703	2021
4227.244	2026
4228.782	2031
4230.32	1995
4231.857	2003
4233.395	2025
4234.933	1982
4236.471	2034
4238.007	2037
4239.542	2038
4241.078	2015
4242.614	1982
4244.15	2013
4245.685	1972
4247.219	1994
4248.753	1976
4250.287	2041
4251.82	1997
4253.354	1980
4254.887	1951
4256.419	1968
4257.951	1993
4259.483	1995
4261.016	1994
4262.547	1962
4264.078	1962
4265.608	1966
4267.137	1993
4268.668	2021
4270.197	2004
4271.727	1996
4273.254	1961
4274.783	1985
4276.311	1897
4277.84	1944
4279.366	1997
4280.894	1989
4282.42	1975
4283.946	1964
4285.473	1953
4286.998	1931
4288.523	1975
4290.047	1921
4291.572	1942
4293.096	1920
4294.622	1947
4296.144	1987
4297.668	1955
4299.19	1968
4300.713	1916
4302.236	1922
4303.758	1937
4305.279	1920
4306.799	1951
4308.321	1942
4309.842	1955
4311.361	1993
4312.882	1911
4314.401	1886
