400.0961	3818
402.6185	3928
405.1424	3965
407.6635	3880
410.1838	3929
412.7035	3872
415.2225	3980
417.7388	4099
420.2585	4068
422.7754	4131
425.2917	4158
427.8072	4216
430.3221	4102
432.8363	4250
435.3498	4251
437.8626	4251
440.3727	4195
442.8841	4280
445.3969	4320
447.907	4170
450.4142	4187
452.9229	4265
455.4289	4176
457.9362	4223
460.4449	4177
462.9488	4182
465.454	4119
467.9566	4094
470.4604	4150
472.9637	4124
475.4662	4176
477.966	4166
480.4671	4193
482.9656	4199
485.4633	4146
487.9645	4210
490.4608	4244
492.9566	4152
495.4536	4253
497.948	4205
500.4437	4235
502.9387	4263
505.431	4246
507.9226	4284
510.4136	4176
512.9079	4250
515.3975	4165
517.8864	4290
520.3746	4394
522.8622	4260
525.3491	4349
527.8394	4227
530.3249	4257
532.8098	4267
535.2939	4276
537.7774	4214
540.2623	4285
542.7444	4264
545.2259	4313
547.7067	4325
550.1868	4322
552.6683	4401
555.147	4390
557.6231	4307
560.1005	4331
562.5773	4388
565.0534	4479
567.5308	4320
570.0056	4381
572.4776	4457
574.951	4410
577.4237	4421
579.8978	4526
582.3671	4506
584.8378	4474
587.3079	4543
589.7773	4569
592.244	4531
594.714	4573
597.1793	4595
599.6461	4519
602.1121	4492
604.5754	4447
607.0421	4515
609.5042	4485
611.9675	4400
614.4282	4524
616.8902	4442
619.3515	4451
621.8122	4481
624.2702	4376
626.7296	4410
629.1863	4358
631.6423	4420
634.1017	4398
636.5563	4426
639.0104	4344
641.4658	4369
643.9185	4392
646.3725	4372
648.8239	4481
651.2766	4398
653.7266	4485
656.176	4329
658.6247	4500
661.0748	4461
663.5242	4481
665.9709	4482
668.417	4559
670.8624	4603
673.3092	4467
675.7533	4500
678.1968	4609
680.6395	4603
683.0817	4531
685.5251	4564
687.9659	4600
690.4061	4571
692.8456	4561
695.2844	4612
697.7226	4529
700.1621	4600
702.599	4645
705.0332	4639
707.4688	4566
709.9036	4550
712.3399	4661
714.7735	4580
717.2044	4667
719.6367	4730
722.0683	4603
724.4993	4697
726.9296	4593
729.3593	4766
731.7883	4731
734.2147	4745
736.6423	4703
739.0714	4888
741.4958	4766
743.9216	4775
746.3447	4833
748.7691	4774
751.1929	4781
753.616	4788
756.0366	4866
758.4584	4823
760.8776	4854
763.2982	4836
765.718	4893
768.1373	4878
770.5539	4827
772.9698	4924
775.3871	5016
777.8038	4858
780.2178	4979
782.6332	4949
785.0459	4878
787.458	4901
789.8714	4899
792.2842	4721
794.6943	4892
797.1038	5024
799.5127	4934
801.9209	4845
804.3324	4865
806.7393	4913
809.1456	4933
811.5513	4897
813.9562	4935
816.3625	4969
818.7663	4963
821.1693	4968
823.5718	5028
825.9735	5019
828.3746	4915
830.7771	4954
833.177	4953
835.5762	4923
837.9747	4939
840.3727	4960
842.772	4993
845.1666	4978
847.5626	5175
849.958	5069
852.3527	5198
854.7488	5101
857.1403	5154
859.5331	5148
861.9253	5064
864.3168	5039
866.7057	5048
869.098	5074
871.4876	5169
873.8746	4979
876.263	5094
878.6487	5074
881.0378	5085
883.4243	5229
885.8081	5084
888.1933	5072
890.5759	5041
892.9598	5087
895.343	5045
897.7256	5059
900.1057	5031
902.4871	5118
904.8659	5178
907.246	5138
909.6254	5220
912.0023	5108
914.3786	5173
916.7562	5220
919.1331	5295
921.5074	5323
923.8831	5430
926.2562	5340
928.6287	5520
931.0005	5454
933.3757	5430
935.7462	5510
938.1162	5427
940.4855	5564
942.8542	5565
945.2242	5679
947.5916	5790
949.9584	6103
952.3266	6305
954.6921	6500
957.0571	6792
959.4233	7129
961.787	7280
964.15	7317
966.5125	6936
968.8742	6532
971.2354	6189
973.5959	5973
975.9559	5725
978.3151	5459
980.6738	5456
983.0338	5336
985.3912	5267
987.7461	5323
990.1022	5223
992.4578	5325
994.8127	5304
997.1689	5295
999.5207	5240
1001.874	5409
1004.226	5354
1006.576	5354
1008.929	5307
1011.28	5346
1013.628	5362
1015.977	5386
1018.324	5358
1020.674	5356
1023.019	5377
1025.366	5326
1027.713	5373
1030.056	5452
1032.399	5471
1034.746	5407
1037.087	5461
1039.431	5489
1041.771	5341
1044.113	5390
1046.454	5513
1048.793	5393
1051.133	5402
1053.471	5419
1055.807	5440
1058.146	5478
1060.483	5493
1062.818	5555
1065.153	5639
1067.489	5567
1069.822	5723
1072.156	5662
1074.488	5611
1076.82	5619
1079.15	5588
1081.48	5520
1083.814	5603
1086.143	5492
1088.471	5566
1090.799	5437
1093.126	5414
1095.452	5457
1097.78	5438
1100.105	5461
1102.43	5411
1104.754	5415
1107.077	5504
1109.4	5447
1111.722	5437
1114.044	5396
1116.365	5388
1118.685	5471
1121.005	5318
1123.324	5376
1125.643	5456
1127.961	5386
1130.278	5441
1132.595	5413
1134.911	5359
1137.226	5359
1139.541	5448
1141.854	5371
1144.167	5397
1146.482	5381
1148.793	5389
1151.105	5263
1153.414	5371
1155.725	5474
1158.033	5297
1160.344	5374
1162.651	5456
1164.959	5448
1167.265	5567
1169.572	5323
1171.878	5399
1174.184	5447
1176.488	5372
1178.79	5485
1181.094	5539
1183.396	5410
1185.699	5364
1188.001	5503
1190.301	5448
1192.6	5437
1194.9	5512
1197.2	5465
1199.497	5403
1201.794	5437
1204.09	5480
1206.387	5453
1208.684	5459
1210.978	5466
1213.272	5442
1215.565	5462
1217.858	5502
1220.15	5480
1222.443	5497
1224.734	5537
1227.024	5332
1229.313	5484
1231.602	5578
1233.892	5637
1236.18	5543
1238.467	5727
1240.754	5632
1243.04	5774
1245.325	5749
1247.612	5635
1249.896	5673
1252.178	5761
1254.461	5703
1256.743	5561
1259.027	5754
1261.308	5687
1263.587	5763
1265.867	5830
1268.146	5582
1270.425	5816
1272.703	5734
1274.981	5578
1277.256	5647
1279.532	5707
1281.808	5602
1284.083	5594
1286.358	5540
1288.63	5581
1290.904	5593
1293.175	5587
1295.449	5627
1297.719	5624
1299.99	5573
1302.259	5573
1304.529	5536
1306.798	5639
1309.065	5532
1311.333	5573
1313.599	5504
1315.866	5551
1318.131	5634
1320.396	5632
1322.66	5483
1324.925	5587
1327.187	5590
1329.448	5604
1331.711	5665
1333.974	5596
1336.234	5553
1338.493	5547
1340.752	5584
1343.01	5616
1345.269	5518
1347.526	5627
1349.784	5595
1352.04	5528
1354.295	5630
1356.552	5518
1358.806	5593
1361.059	5545
1363.312	5544
1365.564	5564
1367.818	5622
1370.069	5597
1372.318	5558
1374.568	5628
1376.817	5654
1379.066	5688
1381.316	5645
1383.564	5629
1385.809	5681
1388.056	5756
1390.301	5688
1392.549	5734
1394.793	5893
1397.036	5731
1399.279	5779
1401.522	5774
1403.763	5729
1406.007	5772
1408.248	5818
1410.487	5757
1412.727	5811
1414.965	5814
1417.205	5735
1419.442	5789
1421.68	5823
1423.915	5764
1426.152	5801
1428.388	5880
1430.623	5711
1432.857	5822
1435.091	5951
1437.323	5895
1439.556	5812
1441.789	5881
1444.019	5962
1446.25	5909
1448.48	5968
1450.708	5862
1452.938	5928
1455.167	6076
1457.394	6132
1459.62	6071
1461.846	5935
1464.073	6066
1466.299	5955
1468.523	5909
1470.746	5902
1472.969	5913
1475.191	5793
1477.415	5825
1479.636	5604
1481.858	5756
1484.078	5729
1486.298	5634
1488.518	5661
1490.736	5714
1492.954	5624
1495.169	5615
1497.386	5599
1499.602	5693
1501.819	5566
1504.034	5641
1506.248	5495
1508.462	5632
1510.675	5478
1512.888	5586
1515.1	5586
1517.311	5589
1519.522	5620
1521.732	5673
1523.942	5542
1526.151	5615
1528.36	5605
1530.566	5452
1532.773	5589
1534.98	5531
1537.187	5598
1539.392	5586
1541.596	5674
1543.801	5663
1546.005	5578
1548.208	5657
1550.411	5673
1552.612	5665
1554.814	5600
1557.013	5569
1559.212	5739
1561.414	5609
1563.612	5698
1565.811	5627
1568.007	5723
1570.203	5629
1572.403	5702
1574.598	5766
1576.792	5744
1578.988	5607
1581.181	5778
1583.376	5907
1585.568	5650
1587.761	5692
1589.952	5794
1592.143	5703
1594.333	5839
1596.524	5741
1598.715	5777
1600.903	5766
1603.091	5755
1605.278	5771
1607.466	5824
1609.652	5830
1611.838	5698
1614.023	5871
1616.207	5778
1618.391	5780
1620.576	5790
1622.759	5763
1624.941	5841
1627.123	5879
1629.304	5860
1631.484	5920
1633.664	6020
1635.844	5882
1638.022	5956
1640.201	5860
1642.38	5828
1644.556	5998
1646.732	5997
1648.908	5961
1651.084	6068
1653.257	5915
1655.433	5911
1657.607	5902
1659.779	6035
1661.951	5909
1664.122	6040
1666.295	6073
1668.467	6096
1670.635	6111
1672.805	5988
1674.973	6019
1677.142	6051
1679.31	6035
1681.478	5934
1683.644	5962
1685.81	5973
1687.975	5973
1690.142	5838
1692.305	5934
1694.468	5937
1696.632	5828
1698.794	5915
1700.957	5777
1703.119	5865
1705.279	5769
1707.439	5845
1709.598	5788
1711.758	5737
1713.917	5828
1716.075	5741
1718.231	5875
1720.388	5743
1722.543	5714
1724.702	5782
1726.856	5752
1729.01	5865
1731.164	5803
1733.317	5748
1735.471	5774
1737.623	5803
1739.774	5768
1741.925	5745
1744.075	5760
1746.225	5779
1748.376	5714
1750.524	5776
1752.672	5751
1754.82	5770
1756.965	5787
1759.113	5782
1761.259	5780
1763.405	5833
1765.549	5819
1767.694	5906
1769.836	5790
1771.981	5737
1774.123	5885
1776.264	5808
1778.405	5880
1780.546	5769
1782.687	5866
1784.827	5765
1786.966	5781
1789.103	5806
1791.242	5908
1793.381	5820
1795.517	5881
1797.653	5915
1799.788	5871
1801.923	5756
1804.057	5826
1806.193	5733
1808.326	5851
1810.457	5913
1812.59	5785
1814.721	5859
1816.855	5726
1818.984	5839
1821.113	5809
1823.244	5714
1825.372	5763
1827.499	5823
1829.63	5851
1831.756	5740
1833.882	5804
1836.007	5806
1838.132	5834
1840.26	5733
1842.384	5776
1844.507	5790
1846.63	5843
1848.752	5732
1850.875	5754
1852.996	5826
1855.118	5783
1857.238	5816
1859.358	5819
1861.477	5756
1863.597	5745
1865.715	5739
1867.832	5786
1869.948	5786
1872.064	5801
1874.181	5721
1876.297	5737
1878.411	5665
1880.526	5787
1882.639	5730
1884.752	5766
1886.865	5757
1888.977	5792
1891.089	5799
1893.2	5859
1895.308	5786
1897.42	5774
1899.53	5812
1901.639	5806
1903.745	5753
1905.853	5860
1907.962	5834
1910.067	5843
1912.174	5759
1914.278	5947
1916.383	5845
1918.486	5868
1920.592	5912
1922.694	5866
1924.797	5857
1926.898	5852
1929	5925
1931.102	5855
1933.203	5802
1935.301	5835
1937.401	5827
1939.499	5869
1941.598	5825
1943.697	5859
1945.793	5849
1947.888	5925
1949.985	5878
1952.08	5863
1954.176	5936
1956.269	5885
1958.364	5777
1960.457	5927
1962.549	5849
1964.642	5859
1966.733	5927
1968.823	5810
1970.913	5806
1973.005	5709
1975.093	5819
1977.184	5788
1979.271	5751
1981.359	5841
1983.446	5819
1985.532	5775
1987.619	5809
1989.705	5839
1991.789	5804
1993.874	5754
1995.956	5744
1998.041	5826
2000.123	5751
2002.206	5842
2004.287	5772
2006.368	5804
2008.449	5647
2010.529	5776
2012.609	5712
2014.688	5746
2016.766	5804
2018.843	5779
2020.922	5710
2022.999	5846
2025.074	5827
2027.15	5743
2029.225	5757
2031.299	5742
2033.375	5868
2035.447	5809
2037.52	5736
2039.592	5793
2041.664	5766
2043.736	5883
2045.807	5762
2047.876	5811
2049.947	5774
2052.015	5715
2054.086	5723
2056.153	5756
2058.221	5774
2060.288	5747
2062.353	5885
2064.42	5779
2066.486	5834
2068.55	5768
2070.614	5869
2072.678	5893
2074.741	5710
2076.805	5847
2078.866	5727
2080.929	5758
2082.99	5666
2085.049	5816
2087.109	5850
2089.17	5821
2091.228	5788
2093.286	5748
2095.344	5706
2097.4	5781
2099.46	5802
2101.516	5787
2103.572	5842
2105.626	5773
2107.679	5844
2109.735	5805
2111.788	5773
2113.841	5839
2115.894	5735
2117.945	5843
2119.997	5742
2122.049	5806
2124.1	5931
2126.148	5773
2128.197	5756
2130.246	5750
2132.296	5736
2134.342	5857
2136.39	5658
2138.437	5823
2140.483	5763
2142.527	5764
2144.574	5838
2146.619	5755
2148.661	5799
2150.705	5772
2152.747	5809
2154.792	5783
2156.832	5745
2158.874	5890
2160.915	5703
2162.954	5727
2164.995	5775
2167.034	5788
2169.072	5773
2171.111	5641
2173.148	5735
2175.186	5672
2177.223	5745
2179.258	5690
2181.294	5723
2183.328	5673
2185.362	5778
2187.398	5676
2189.431	5725
2191.463	5671
2193.495	5793
2195.528	5642
2197.56	5636
2199.59	5708
2201.62	5685
2203.649	5622
2205.678	5630
2207.708	5662
2209.737	5673
2211.764	5676
2213.791	5706
2215.817	5633
2217.843	5756
2219.87	5674
2221.895	5682
2223.919	5694
2225.942	5601
2227.966	5612
2229.988	5606
2232.012	5580
2234.032	5792
2236.054	5679
2238.074	5570
2240.095	5599
2242.116	5713
2244.135	5733
2246.153	5662
2248.171	5646
2250.188	5594
2252.208	5619
2254.223	5610
2256.239	5613
2258.255	5603
2260.269	5645
2262.283	5663
2264.3	5703
2266.312	5525
2268.325	5530
2270.336	5605
2272.349	5702
2274.362	5687
2276.372	5625
2278.383	5586
2280.392	5596
2282.402	5636
2284.409	5644
2286.418	5467
2288.427	5586
2290.433	5555
2292.441	5660
2294.446	5578
2296.453	5598
2298.459	5627
2300.463	5671
2302.466	5556
2304.471	5539
2306.475	5638
2308.477	5640
2310.478	5648
2312.481	5725
2314.481	5656
2316.481	5499
2318.482	5567
2320.482	5530
2322.48	5545
2324.48	5632
2326.478	5660
2328.476	5600
2330.473	5535
2332.469	5548
2334.465	5576
2336.46	5526
2338.454	5480
2340.45	5555
2342.444	5518
2344.437	5476
2346.43	5543
2348.421	5437
2350.414	5519
2352.405	5516
2354.396	5554
2356.386	5573
2358.376	5516
2360.366	5440
2362.355	5486
2364.343	5491
2366.331	5516
2368.317	5516
2370.304	5458
2372.292	5487
2374.278	5388
2376.262	5443
2378.247	5471
2380.23	5528
2382.216	5520
2384.199	5453
2386.181	5529
2388.163	5478
2390.144	5465
2392.127	5436
2394.107	5560
2396.087	5539
2398.066	5538
2400.046	5489
2402.023	5386
2404.004	5548
2405.981	5358
2407.957	5449
2409.934	5447
2411.91	5464
2413.886	5410
2415.862	5508
2417.836	5468
2419.809	5399
2421.784	5329
2423.756	5353
2425.73	5478
2427.701	5503
2429.672	5465
2431.644	5385
2433.615	5410
2435.586	5473
2437.555	5351
2439.523	5441
2441.491	5419
2443.459	5426
2445.428	5444
2447.395	5449
2449.361	5359
2451.327	5405
2453.292	5461
2455.257	5337
2457.223	5457
2459.187	5500
2461.15	5409
2463.113	5429
2465.076	5385
2467.039	5317
2468.999	5460
2470.96	5304
2472.921	5298
2474.881	5448
2476.841	5400
2478.8	5503
2480.759	5309
2482.717	5356
2484.675	5409
2486.63	5370
2488.589	5389
2490.545	5392
2492.5	5336
2494.455	5355
2496.408	5354
2498.364	5305
2500.318	5303
2502.27	5318
2504.223	5300
2506.174	5350
2508.126	5252
2510.078	5281
2512.03	5327
2513.979	5203
2515.927	5307
2517.877	5414
2519.826	5220
2521.775	5351
2523.722	5266
2525.668	5271
2527.616	5265
2529.561	5451
2531.508	5340
2533.452	5297
2535.398	5251
2537.342	5324
2539.284	5367
2541.229	5280
2543.173	5272
2545.114	5244
2547.055	5264
2548.996	5351
2550.938	5236
2552.878	5278
2554.817	5273
2556.756	5406
2558.695	5386
2560.633	5232
2562.572	5282
2564.509	5330
2566.445	5270
2568.382	5276
2570.317	5391
2572.254	5350
2574.189	5317
2576.123	5187
2578.057	5203
2579.99	5301
2581.923	5374
2583.855	5234
2585.788	5313
2587.719	5299
2589.65	5261
2591.579	5206
2593.511	5251
2595.44	5435
2597.37	5260
2599.297	5295
2601.225	5359
2603.153	5214
2605.08	5295
2607.007	5425
2608.932	5197
2610.858	5318
2612.782	5293
2614.709	5387
2616.632	5260
2618.556	5166
2620.478	5333
2622.401	5365
2624.324	5318
2626.247	5247
2628.167	5323
2630.088	5178
2632.008	5251
2633.928	5354
2635.848	5325
2637.766	5472
2639.684	5341
2641.603	5394
2643.519	5308
2645.437	5358
2647.353	5309
2649.27	5343
2651.184	5263
2653.099	5223
2655.014	5207
2656.928	5344
2658.842	5317
2660.755	5275
2662.667	5388
2664.579	5246
2666.491	5282
2668.402	5383
2670.312	5217
2672.222	5315
2674.132	5263
2676.042	5369
2677.951	5149
2679.859	5356
2681.766	5157
2683.674	5286
2685.582	5206
2687.488	5261
2689.392	5203
2691.298	5159
2693.202	5244
2695.107	5339
2697.012	5232
2698.914	5252
2700.817	5138
2702.72	5245
2704.622	5236
2706.524	5293
2708.425	5141
2710.326	5164
2712.225	5198
2714.125	5202
2716.024	5267
2717.923	5152
2719.822	5245
2721.719	5132
2723.616	5163
2725.512	5196
2727.41	5141
2729.305	5236
2731.201	5197
2733.095	5250
2734.99	5194
2736.884	5155
2738.778	5124
2740.67	5164
2742.562	5218
2744.455	5239
2746.346	5185
2748.238	5162
2750.129	5191
2752.018	5168
2753.907	5152
2755.797	5161
2757.687	5260
2759.575	5172
2761.462	5169
2763.349	5215
2765.237	5116
2767.124	5132
2769.009	5278
2770.894	5170
2772.779	5161
2774.663	5165
2776.547	5192
2778.431	5165
2780.314	5214
2782.197	5149
2784.078	5140
2785.96	5062
2787.842	5239
2789.723	5190
2791.603	5112
2793.483	5099
2795.362	5226
2797.241	5151
2799.121	5121
2800.997	5203
2802.874	5233
2804.751	5124
2806.628	5027
2808.506	5211
2810.38	5123
2812.255	5257
2814.13	5127
2816.003	5091
2817.878	5117
2819.752	5130
2821.623	5207
2823.496	5056
2825.368	5139
2827.238	5041
2829.111	5107
2830.98	5122
2832.851	5122
2834.719	5044
2836.589	5196
2838.458	5162
2840.327	5136
2842.193	5114
2844.061	5110
2845.927	5125
2847.794	5156
2849.66	5163
2851.525	5269
2853.39	5230
2855.254	5142
2857.117	5303
2858.983	5217
2860.845	5253
2862.707	5313
2864.569	5384
2866.431	5363
2868.293	5359
2870.154	5375
2872.013	5486
2873.873	5407
2875.733	5601
2877.592	5672
2879.451	5692
2881.309	5745
2883.166	5682
2885.022	5675
2886.879	5845
2888.736	5848
2890.591	5860
2892.446	5771
2894.301	5737
2896.155	5773
2898.009	5728
2899.863	5827
2901.716	5698
2903.568	5793
2905.419	5684
2907.27	5793
2909.123	5724
2910.973	5820
2912.824	5820
2914.673	5924
2916.521	5898
2918.372	5982
2920.22	6040
2922.067	6081
2923.914	6161
2925.761	6215
2927.607	6253
2929.455	6395
2931.301	6487
2933.144	6468
2934.99	6394
2936.833	6525
2938.678	6607
2940.522	6674
2942.364	6735
2944.207	6760
2946.048	6827
2947.891	6862
2949.731	6749
2951.571	6760
2953.412	6714
2955.25	6676
2957.09	6610
2958.93	6480
2960.767	6444
2962.606	6499
2964.443	6398
2966.279	6351
2968.116	6268
2969.953	6201
2971.788	6132
2973.623	6187
2975.457	5985
2977.292	6019
2979.127	6035
2980.959	5955
2982.792	5864
2984.624	5871
2986.455	5872
2988.288	5874
2990.119	5818
2991.949	5782
2993.779	5697
2995.608	5681
2997.439	5626
2999.268	5544
3001.096	5637
3002.923	5481
3004.751	5470
3006.578	5415
3008.406	5298
3010.232	5341
3012.057	5264
3013.883	5140
3015.706	5235
3017.532	5102
3019.356	5093
3021.179	5036
3023.002	5075
3024.823	4949
3026.646	5026
3028.469	5084
3030.289	5043
3032.11	4897
3033.93	5001
3035.749	4851
3037.57	4984
3039.39	4880
3041.207	4906
3043.026	4930
3044.842	4995
3046.661	4893
3048.477	4847
3050.294	4753
3052.109	4997
3053.925	4952
3055.739	5022
3057.555	4989
3059.368	4837
3061.181	4735
3062.995	4983
3064.807	4947
3066.62	4813
3068.433	4895
3070.243	4886
3072.054	4887
3073.865	4793
3075.675	4843
3077.485	4782
3079.293	4791
3081.102	4751
3082.911	4851
3084.719	4715
3086.527	4704
3088.333	4768
3090.139	4851
3091.945	4672
3093.75	4745
3095.557	4707
3097.361	4855
3099.165	4695
3100.969	4762
3102.772	4725
3104.575	4719
3106.379	4683
3108.181	4718
3109.982	4771
3111.783	4674
3113.584	4752
3115.386	4747
3117.186	4707
3118.985	4716
3120.783	4726
3122.582	4612
3124.381	4653
3126.179	4701
3127.975	4665
3129.772	4597
3131.569	4722
3133.365	4647
3135.161	4747
3136.956	4727
3138.751	4632
3140.544	4581
3142.338	4674
3144.132	4657
3145.925	4606
3147.717	4649
3149.509	4493
3151.301	4663
3153.091	4650
3154.884	4627
3156.673	4612
3158.462	4662
3160.252	4603
3162.041	4560
3163.831	4614
3165.618	4536
3167.405	4696
3169.193	4568
3170.979	4473
3172.767	4547
3174.553	4543
3176.338	4598
3178.123	4543
3179.907	4629
3181.692	4618
3183.477	4640
3185.259	4589
3187.042	4622
3188.824	4589
3190.607	4591
3192.389	4666
3194.17	4592
3195.951	4577
3197.73	4553
3199.51	4554
3201.289	4618
3203.07	4561
3204.848	4559
3206.626	4573
3208.403	4573
3210.18	4555
3211.959	4606
3213.735	4560
3215.511	4563
3217.285	4559
3219.06	4637
3220.836	4584
3222.611	4569
3224.384	4607
3226.158	4602
3227.929	4628
3229.702	4621
3231.476	4596
3233.248	4539
3235.018	4538
3236.789	4552
3238.56	4639
3240.33	4575
3242.1	4599
3243.869	4581
3245.637	4528
3247.405	4595
3249.172	4555
3250.941	4499
3252.707	4582
3254.474	4567
3256.24	4534
3258.006	4594
3259.772	4649
3261.537	4548
3263.301	4630
3265.065	4536
3266.828	4634
3268.592	4502
3270.355	4671
3272.117	4564
3273.878	4606
3275.64	4613
3277.401	4600
3279.162	4602
3280.922	4575
3282.682	4542
3284.441	4651
3286.199	4486
3287.959	4550
3289.716	4515
3291.475	4632
3293.232	4601
3294.988	4587
3296.744	4562
3298.501	4570
3300.256	4500
3302.011	4605
3303.766	4664
3305.52	4599
3307.275	4591
3309.028	4592
3310.781	4609
3312.533	4538
3314.285	4519
3316.038	4563
3317.789	4578
3319.54	4517
3321.289	4551
3323.039	4587
3324.789	4571
3326.539	4555
3328.288	4563
3330.035	4694
3331.783	4514
3333.531	4506
3335.28	4564
3337.025	4576
3338.771	4557
3340.518	4534
3342.262	4588
3344.009	4586
3345.753	4598
3347.497	4449
3349.24	4510
3350.983	4554
3352.726	4538
3354.469	4555
3356.212	4442
3357.952	4465
3359.694	4453
3361.434	4506
3363.176	4426
3364.916	4522
3366.654	4471
3368.394	4525
3370.132	4510
3371.871	4434
3373.61	4506
3375.346	4395
3377.083	4439
3378.82	4452
3380.556	4447
3382.292	4409
3384.027	4479
3385.763	4307
3387.497	4375
3389.231	4467
3390.965	4366
3392.698	4424
3394.431	4354
3396.164	4374
3397.896	4352
3399.627	4351
3401.36	4320
3403.09	4391
3404.82	4304
3406.55	4410
3408.279	4379
3410.01	4389
3411.738	4354
3413.467	4294
3415.194	4342
3416.92	4348
3418.647	4374
3420.375	4347
3422.102	4347
3423.827	4278
3425.553	4300
3427.277	4334
3429.003	4195
3430.727	4319
3432.451	4275
3434.173	4257
3435.896	4307
3437.62	4304
3439.343	4255
3441.063	4242
3442.785	4304
3444.505	4251
3446.226	4139
3447.948	4260
3449.666	4191
3451.386	4290
3453.104	4330
3454.823	4149
3456.541	4204
3458.259	4188
3459.976	4215
3461.693	4171
3463.408	4178
3465.125	4090
3466.841	4209
3468.556	4136
3470.271	4139
3471.985	4156
3473.698	4142
3475.414	4200
3477.126	4105
3478.838	4271
3480.55	4060
3482.263	4134
3483.975	4085
3485.686	4082
3487.396	4159
3489.106	4074
3490.817	4079
3492.526	4069
3494.236	4100
3495.944	4058
3497.652	4113
3499.359	4011
3501.066	4032
3502.775	4050
3504.481	4052
3506.187	3996
3507.893	4044
3509.598	4036
3511.304	4038
3513.009	4006
3514.713	4017
3516.417	4009
3518.12	4048
3519.821	3958
3521.525	3992
3523.228	3947
3524.929	3925
3526.631	3919
3528.33	3890
3530.032	3926
3531.733	4011
3533.433	3935
3535.131	3900
3536.83	3916
3538.529	3882
3540.227	3930
3541.925	3833
3543.623	3852
3545.319	3861
3547.016	3909
3548.712	3940
3550.408	3835
3552.103	3929
3553.798	3872
3555.491	3916
3557.188	3950
3558.88	3848
3560.574	3816
3562.266	3829
3563.959	3866
3565.651	3856
3567.343	3828
3569.035	3841
3570.725	3872
3572.415	3834
3574.106	3830
3575.797	3796
3577.485	3817
3579.174	3782
3580.863	3823
3582.551	3825
3584.238	3801
3585.926	3808
3587.613	3819
3589.3	3772
3590.986	3784
3592.671	3793
3594.357	3767
3596.042	3822
3597.726	3769
3599.41	3748
3601.094	3698
3602.778	3707
3604.461	3669
3606.143	3712
3607.825	3709
3609.507	3715
3611.188	3694
3612.87	3696
3614.551	3706
3616.229	3723
3617.909	3597
3619.589	3608
3621.269	3688
3622.948	3614
3624.625	3729
3626.302	3709
3627.98	3622
3629.657	3597
3631.334	3643
3633.01	3669
3634.686	3530
3636.361	3638
3638.036	3587
3639.712	3629
3641.385	3624
3643.06	3593
3644.732	3589
3646.405	3547
3648.08	3574
3649.751	3497
3651.424	3548
3653.094	3640
3654.766	3587
3656.436	3491
3658.106	3460
3659.777	3563
3661.446	3521
3663.115	3514
3664.783	3478
3666.452	3517
3668.121	3458
3669.788	3611
3671.454	3502
3673.121	3508
3674.789	3517
3676.455	3477
3678.12	3480
3679.784	3490
3681.45	3482
3683.114	3573
3684.779	3551
3686.442	3500
3688.105	3490
3689.768	3412
3691.43	3463
3693.093	3489
3694.754	3528
3696.415	3456
3698.076	3456
3699.736	3446
3701.396	3425
3703.057	3483
3704.716	3430
3706.375	3521
3708.034	3452
3709.692	3397
3711.351	3471
3713.008	3420
3714.665	3456
3716.321	3372
3717.977	3441
3719.634	3359
3721.29	3437
3722.945	3456
3724.598	3379
3726.253	3425
3727.907	3377
3729.561	3323
3731.214	3399
3732.867	3393
3734.518	3429
3736.171	3321
3737.824	3341
3739.474	3403
3741.125	3479
3742.775	3299
3744.425	3420
3746.074	3408
3747.725	3399
3749.373	3367
3751.022	3384
3752.669	3303
3754.318	3397
3755.966	3303
3757.612	3330
3759.259	3310
3760.905	3317
3762.55	3363
3764.197	3282
3765.842	3369
3767.486	3331
3769.131	3316
3770.774	3354
3772.417	3378
3774.061	3327
3775.705	3321
3777.347	3315
3778.988	3289
3780.629	3255
3782.271	3281
3783.912	3253
3785.552	3256
3787.192	3286
3788.831	3286
3790.472	3240
3792.112	3286
3793.75	3227
3795.388	3266
3797.024	3218
3798.661	3303
3800.3	3201
3801.936	3238
3803.572	3199
3805.208	3215
3806.844	3226
3808.48	3218
3810.115	3238
3811.748	3277
3813.382	3194
3815.016	3226
3816.649	3191
3818.283	3253
3819.914	3171
3821.547	3186
3823.178	3193
3824.809	3195
3826.441	3182
3828.072	3216
3829.701	3205
3831.331	3203
3832.96	3282
3834.591	3154
3836.219	3105
3837.847	3189
3839.475	3144
3841.102	3248
3842.729	3142
3844.357	3154
3845.984	3102
3847.609	3101
3849.234	3079
3850.86	3174
3852.485	3098
3854.11	3118
3855.734	3196
3857.357	3160
3858.981	3183
3860.603	3145
3862.227	3148
3863.848	3127
3865.471	3209
3867.092	3184
3868.713	3104
3870.334	3060
3871.954	3106
3873.575	3087
3875.194	3019
3876.813	3051
3878.433	3070
3880.051	3124
3881.669	3105
3883.286	3132
3884.904	3024
3886.52	3163
3888.138	3134
3889.754	3104
3891.37	3130
3892.985	3085
3894.6	3023
3896.216	3087
3897.831	3047
3899.444	3051
3901.058	3106
3902.67	3144
3904.283	3074
3905.897	3065
3907.509	3085
3909.121	3081
3910.731	3067
3912.342	3071
3913.954	3051
3915.563	3099
3917.174	3072
3918.783	3108
3920.391	3131
3922.002	3049
3923.611	3004
3925.218	3081
3926.826	3129
3928.432	3055
3930.039	3059
3931.647	3048
3933.253	3051
3934.859	3017
3936.464	3038
3938.068	3032
3939.675	3050
3941.278	3022
3942.883	2967
3944.486	3057
3946.089	3009
3947.692	2968
3949.295	3048
3950.898	3019
3952.499	3063
3954.1	3021
3955.7	2999
3957.303	3008
3958.903	2966
3960.502	3018
3962.101	3037
3963.7	2926
3965.301	3040
3966.899	2913
3968.497	3047
3970.094	2996
3971.691	2949
3973.288	3044
3974.885	3012
3976.481	2960
3978.077	3007
3979.672	2894
3981.267	2912
3982.863	2998
3984.457	2924
3986.051	2954
3987.645	2865
3989.238	2981
3990.831	2910
3992.425	2969
3994.017	2941
3995.607	2954
3997.199	2918
3998.79	2867
4000.382	2887
4001.973	2909
4003.561	2856
4005.151	2902
4006.741	2869
4008.331	2891
4009.918	2903
4011.507	2835
4013.095	2822
4014.681	2846
4016.269	2921
4017.856	2860
4019.443	2875
4021.028	2900
4022.614	2861
4024.199	2773
4025.785	2873
4027.37	2842
4028.953	2814
4030.536	2836
4032.12	2830
4033.704	2864
4035.287	2841
4036.869	2826
4038.45	2840
4040.032	2775
4041.613	2844
4043.195	2802
4044.776	2748
4046.356	2825
4047.935	2763
4049.515	2827
4051.095	2865
4052.674	2753
4054.251	2837
4055.829	2775
4057.406	2768
4058.985	2822
4060.562	2807
4062.139	2721
4063.715	2737
4065.29	2800
4066.865	2770
4068.442	2809
4070.016	2744
4071.59	2780
4073.164	2768
4074.738	2759
4076.312	2774
4077.885	2679
4079.458	2776
4081.03	2762
4082.602	2685
4084.173	2741
4085.745	2704
4087.315	2774
4088.886	2711
4090.456	2689
4092.026	2671
4093.596	2700
4095.165	2744
4096.734	2660
4098.301	2731
4099.869	2676
4101.437	2716
4103.006	2750
4104.572	2657
4106.139	2744
4107.704	2733
4109.27	2699
4110.837	2745
4112.401	2685
4113.966	2689
4115.53	2657
4117.094	2688
4118.659	2696
4120.223	2636
4121.785	2663
4123.347	2681
4124.909	2628
4126.471	2604
4128.034	2646
4129.595	2656
4131.155	2662
4132.716	2634
4134.275	2723
4135.836	2677
4137.395	2626
4138.955	2581
4140.513	2599
4142.071	2616
4143.628	2653
4145.188	2601
4146.745	2611
4148.302	2670
4149.858	2571
4151.414	2658
4152.971	2584
4154.526	2589
4156.081	2517
4157.635	2597
4159.189	2637
4160.745	2531
4162.298	2576
4163.852	2616
4165.405	2543
4166.957	2586
4168.51	2512
4170.063	2587
4171.614	2601
4173.166	2550
4174.717	2613
4176.267	2590
4177.817	2567
4179.368	2604
4180.917	2489
4182.466	2559
4184.016	2555
4185.564	2531
4187.112	2525
4188.66	2563
4190.207	2507
4191.754	2581
4193.301	2501
4194.848	2585
4196.394	2485
4197.94	2484
4199.484	2543
4201.03	2549
4202.575	2513
4204.12	2493
4205.663	2549
4207.207	2532
4208.75	2529
4210.292	2458
4211.836	2512
4213.378	2532
4214.92	2527
4216.46	2543
4218.002	2489
4219.544	2549
4221.083	2438
4222.625	2492
4224.164	2427
4225.703	2519
4227.244	2490
4228.782	2441
4230.32	2523
4231.857	2423
4233.395	2491
4234.933	2435
4236.471	2500
4238.007	2489
4239.542	2431
4241.078	2459
4242.614	2428
4244.15	2446
4245.685	2460
4247.219	2463
4248.753	2448
4250.287	2439
4251.82	2431
4253.354	2501
4254.887	2416
4256.419	2433
4257.951	2410
4259.483	2449
4261.016	2450
4262.547	2350
4264.078	2426
4265.608	2434
4267.137	2446
4268.668	2448
4270.197	2399
4271.727	2447
4273.254	2366
4274.783	2407
4276.311	2433
4277.84	2454
4279.366	2475
4280.894	2338
4282.42	2389
4283.946	2379
4285.473	2393
4286.998	2447
4288.523	2353
4290.047	2428
4291.572	2407
4293.096	2386
4294.622	2403
4296.144	2448
4297.668	2371
4299.19	2391
4300.713	2370
4302.236	2376
4303.758	2332
4305.279	2361
4306.799	2369
4308.321	2360
4309.842	2347
4311.361	2349
4312.882	2329
4314.401	2344
