400.0961	2576
402.6185	2653
405.1424	2667
407.6635	2630
410.1838	2689
412.7035	2678
415.2225	2688
417.7388	2679
420.2585	2846
422.7754	2767
425.2917	2757
427.8072	2947
430.3221	2911
432.8363	2887
435.3498	2828
437.8626	2929
440.3727	2907
442.8841	2861
445.3969	2833
447.907	2886
450.4142	2884
452.9229	2869
455.4289	2812
457.9362	2854
460.4449	2788
462.9488	2755
465.454	2811
467.9566	2748
470.4604	2734
472.9637	2789
475.4662	2733
477.966	2731
480.4671	2768
482.9656	2765
485.4633	2825
487.9645	2839
490.4608	2766
492.9566	2779
495.4536	2851
497.948	2757
500.4437	2791
502.9387	2866
505.431	2793
507.9226	2782
510.4136	2819
512.9079	2810
515.3975	2867
517.8864	2826
520.3746	2823
522.8622	2872
525.3491	2860
527.8394	2797
530.3249	2877
532.8098	2821
535.2939	2834
537.7774	2840
540.2623	2839
542.7444	2790
545.2259	2918
547.7067	2833
550.1868	2828
552.6683	2845
555.147	2904
557.6231	2882
560.1005	2862
562.5773	2904
565.0534	2929
567.5308	2984
570.0056	2925
572.4776	2963
574.951	2948
577.4237	2989
579.8978	3044
582.3671	3057
584.8378	3097
587.3079	3092
589.7773	3034
592.244	3110
594.714	3010
597.1793	3047
599.6461	2981
602.1121	2973
604.5754	3041
607.0421	2931
609.5042	2986
611.9675	2962
614.4282	3009
616.8902	2950
619.3515	2929
621.8122	2915
624.2702	2888
626.7296	2929
629.1863	2865
631.6423	2854
634.1017	2869
636.5563	2822
639.0104	2912
641.4658	2945
643.9185	2944
646.3725	2905
648.8239	2883
651.2766	2918
653.7266	2953
656.176	2909
658.6247	2973
661.0748	2900
663.5242	2904
665.9709	2992
668.417	2953
670.8624	2931
673.3092	3000
675.7533	3000
678.1968	2979
680.6395	2966
683.0817	2958
685.5251	2921
687.9659	3051
690.4061	2999
692.8456	3006
695.2844	3074
697.7226	3036
700.1621	3044
702.599	3012
705.0332	3080
707.4688	3011
709.9036	3061
712.3399	3060
714.7735	3042
717.2044	3066
719.6367	3069
722.0683	3062
724.4993	3009
726.9296	3057
729.3593	3112
731.7883	3066
734.2147	3166
736.6423	3071
739.0714	3099
741.4958	3165
743.9216	3076
746.3447	3189
748.7691	3077
751.1929	3226
753.616	3211
756.0366	3145
758.4584	3258
760.8776	3139
763.2982	3162
765.718	3184
768.1373	3214
770.5539	3126
772.9698	3216
775.3871	3176
777.8038	3175
780.2178	3153
782.6332	3319
785.0459	3214
787.458	3150
789.8714	3225
792.2842	3201
794.6943	3163
797.1038	3274
799.5127	3207
801.9209	3152
804.3324	3151
806.7393	3221
809.1456	3260
811.5513	3248
813.9562	3262
816.3625	3208
818.7663	3174
821.1693	3268
823.5718	3218
825.9735	3286
828.3746	3296
830.7771	3258
833.177	3263
835.5762	3316
837.9747	3242
840.3727	3387
842.772	3226
845.1666	3360
847.5626	3339
849.958	3357
852.3527	3328
854.7488	3404
857.1403	3424
859.5331	3422
861.9253	3288
864.3168	3398
866.7057	3373
869.098	3402
871.4876	3385
873.8746	3312
876.263	3439
878.6487	3394
881.0378	3399
883.4243	3269
885.8081	3403
888.1933	3323
890.5759	3312
892.9598	3360
895.343	3405
897.7256	3395
900.1057	3382
902.4871	3388
904.8659	3385
907.246	3407
909.6254	3408
912.0023	3369
914.3786	3484
916.7562	3551
919.1331	3567
921.5074	3600
923.8831	3650
926.2562	3658
928.6287	3629
931.0005	3561
933.3757	3632
935.7462	3575
938.1162	3742
940.4855	3723
942.8542	3771
945.2242	3813
947.5916	3950
949.9584	4153
952.3266	4465
954.6921	4622
957.0571	4873
959.4233	5158
961.787	5357
964.15	5137
966.5125	5057
968.8742	4618
971.2354	4353
973.5959	4087
975.9559	3797
978.3151	3680
980.6738	3725
983.0338	3548
985.3912	3491
987.7461	3618
990.1022	3458
992.4578	3457
994.8127	3506
997.1689	3570
999.5207	3518
1001.874	3542
1004.226	3598
1006.576	3595
1008.929	3530
1011.28	3556
1013.628	3501
1015.977	3468
1018.324	3461
1020.674	3600
1023.019	3559
1025.366	3623
1027.713	3617
1030.056	3572
1032.399	3542
1034.746	3664
1037.087	3618
1039.431	3665
1041.771	3645
1044.113	3630
1046.454	3535
1048.793	3607
1051.133	3647
1053.471	3678
1055.807	3631
1058.146	3714
1060.483	3686
1062.818	3683
1065.153	3682
1067.489	3730
1069.822	3724
1072.156	3851
1074.488	3769
1076.82	3775
1079.15	3727
1081.48	3671
1083.814	3691
1086.143	3628
1088.471	3569
1090.799	3590
1093.126	3567
1095.452	3574
1097.78	3582
1100.105	3604
1102.43	3592
1104.754	3629
1107.077	3668
1109.4	3546
1111.722	3596
1114.044	3540
1116.365	3510
1118.685	3530
1121.005	3494
1123.324	3548
1125.643	3573
1127.961	3531
1130.278	3642
1132.595	3557
1134.911	3585
1137.226	3563
1139.541	3498
1141.854	3559
1144.167	3539
1146.482	3541
1148.793	3553
1151.105	3609
1153.414	3560
1155.725	3498
1158.033	3510
1160.344	3511
1162.651	3583
1164.959	3520
1167.265	3592
1169.572	3545
1171.878	3615
1174.184	3488
1176.488	3590
1178.79	3569
1181.094	3618
1183.396	3548
1185.699	3518
1188.001	3600
1190.301	3536
1192.6	3551
1194.9	3557
1197.2	3473
1199.497	3553
1201.794	3642
1204.09	3558
1206.387	3641
1208.684	3706
1210.978	3574
1213.272	3588
1215.565	3653
1217.858	3588
1220.15	3582
1222.443	3620
1224.734	3610
1227.024	3702
1229.313	3630
1231.602	3666
1233.892	3696
1236.18	3669
1238.467	3860
1240.754	3694
1243.04	3804
1245.325	3763
1247.612	3772
1249.896	3782
1252.178	3834
1254.461	3758
1256.743	3721
1259.027	3807
1261.308	3764
1263.587	3792
1265.867	3825
1268.146	3756
1270.425	3777
1272.703	3779
1274.981	3739
1277.256	3796
1279.532	3751
1281.808	3798
1284.083	3777
1286.358	3701
1288.63	3697
1290.904	3733
1293.175	3693
1295.449	3687
1297.719	3700
1299.99	3657
1302.259	3718
1304.529	3638
1306.798	3681
1309.065	3722
1311.333	3638
1313.599	3717
1315.866	3641
1318.131	3637
1320.396	3641
1322.66	3700
1324.925	3602
1327.187	3703
1329.448	3731
1331.711	3721
1333.974	3666
1336.234	3665
1338.493	3676
1340.752	3694
1343.01	3694
1345.269	3679
1347.526	3692
1349.784	3644
1352.04	3680
1354.295	3662
1356.552	3655
1358.806	3674
1361.059	3654
1363.312	3696
1365.564	3681
1367.818	3669
1370.069	3660
1372.318	3735
1374.568	3706
1376.817	3634
1379.066	3768
1381.316	3676
1383.564	3669
1385.809	3706
1388.056	3766
1390.301	3806
1392.549	3745
1394.793	3825
1397.036	3855
1399.279	3803
1401.522	3769
1403.763	3783
1406.007	3865
1408.248	3762
1410.487	3794
1412.727	3874
1414.965	3862
1417.205	3749
1419.442	3851
1421.68	3820
1423.915	3801
1426.152	3870
1428.388	3746
1430.623	3881
1432.857	3923
1435.091	3875
1437.323	3983
1439.556	3827
1441.789	3890
1444.019	3925
1446.25	3858
1448.48	3966
1450.708	4017
1452.938	3996
1455.167	3947
1457.394	3901
1459.62	3974
1461.846	3867
1464.073	3972
1466.299	3888
1468.523	4020
1470.746	3865
1472.969	3810
1475.191	3812
1477.415	3770
1479.636	3766
1481.858	3856
1484.078	3703
1486.298	3721
1488.518	3654
1490.736	3683
1492.954	3615
1495.169	3681
1497.386	3800
1499.602	3659
1501.819	3659
1504.034	3677
1506.248	3685
1508.462	3597
1510.675	3708
1512.888	3634
1515.1	3694
1517.311	3707
1519.522	3592
1521.732	3557
1523.942	3686
1526.151	3704
1528.36	3679
1530.566	3676
1532.773	3623
1534.98	3685
1537.187	3651
1539.392	3711
1541.596	3704
1543.801	3641
1546.005	3789
1548.208	3697
1550.411	3643
1552.612	3650
1554.814	3685
1557.013	3714
1559.212	3714
1561.414	3844
1563.612	3680
1565.811	3754
1568.007	3669
1570.203	3789
1572.403	3741
1574.598	3802
1576.792	3808
1578.988	3750
1581.181	3786
1583.376	3771
1585.568	3858
1587.761	3713
1589.952	3880
1592.143	3891
1594.333	3764
1596.524	3802
1598.715	3817
1600.903	3844
1603.091	3776
1605.278	3864
1607.466	3872
1609.652	3755
1611.838	3791
1614.023	3868
1616.207	3831
1618.391	3774
1620.576	3874
1622.759	3932
1624.941	3856
1627.123	3869
1629.304	3892
1631.484	3989
1633.664	3921
1635.844	3854
1638.022	3943
1640.201	3906
1642.38	3849
1644.556	3920
1646.732	3910
1648.908	3909
1651.084	3832
1653.257	3974
1655.433	3959
1657.607	3837
1659.779	4050
1661.951	3968
1664.122	4035
1666.295	4090
1668.467	3951
1670.635	4059
1672.805	3988
1674.973	4001
1677.142	4029
1679.31	4093
1681.478	4057
1683.644	4009
1685.81	4018
1687.975	3971
1690.142	3878
1692.305	3837
1694.468	3960
1696.632	3882
1698.794	3925
1700.957	3921
1703.119	3856
1705.279	3759
1707.439	3886
1709.598	3932
1711.758	3824
1713.917	3802
1716.075	3814
1718.231	3830
1720.388	3762
1722.543	3847
1724.702	3855
1726.856	3764
1729.01	3782
1731.164	3790
1733.317	3866
1735.471	3817
1737.623	3796
1739.774	3776
1741.925	3805
1744.075	3855
1746.225	3855
1748.376	3821
1750.524	3800
1752.672	3810
1754.82	3857
1756.965	3874
1759.113	3795
1761.259	3736
1763.405	3865
1765.549	3779
1767.694	3791
1769.836	3827
1771.981	3850
1774.123	3829
1776.264	3781
1778.405	3863
1780.546	3873
1782.687	3891
1784.827	3730
1786.966	3823
1789.103	3846
1791.242	3833
1793.381	3902
1795.517	3825
1797.653	3866
1799.788	3869
1801.923	3792
1804.057	3820
1806.193	3837
1808.326	3917
1810.457	3788
1812.59	3849
1814.721	3854
1816.855	3852
1818.984	3852
1821.113	3806
1823.244	3768
1825.372	3810
1827.499	3819
1829.63	3817
1831.756	3820
1833.882	3842
1836.007	3864
1838.132	3822
1840.26	3836
1842.384	3857
1844.507	3796
1846.63	3724
1848.752	3835
1850.875	3794
1852.996	3815
1855.118	3716
1857.238	3775
1859.358	3882
1861.477	3883
1863.597	3832
1865.715	3835
1867.832	3818
1869.948	3846
1872.064	3823
1874.181	3897
1876.297	3789
1878.411	3856
1880.526	3833
1882.639	3809
1884.752	3808
1886.865	3776
1888.977	3763
1891.089	3816
1893.2	3894
1895.308	3836
1897.42	3907
1899.53	3811
1901.639	3875
1903.745	3786
1905.853	3880
1907.962	3896
1910.067	3935
1912.174	3888
1914.278	3868
1916.383	3881
1918.486	3911
1920.592	3889
1922.694	3885
1924.797	3871
1926.898	3884
1929	3897
1931.102	3940
1933.203	3822
1935.301	3952
1937.401	3867
1939.499	3866
1941.598	3869
1943.697	3863
1945.793	3843
1947.888	3910
1949.985	3960
1952.08	3888
1954.176	3902
1956.269	3909
1958.364	3819
1960.457	3903
1962.549	3828
1964.642	3898
1966.733	3892
1968.823	3830
1970.913	3861
1973.005	3806
1975.093	3892
1977.184	3874
1979.271	3861
1981.359	3834
1983.446	3816
1985.532	3833
1987.619	3863
1989.705	3839
1991.789	3906
1993.874	3860
1995.956	3909
1998.041	3799
2000.123	3857
2002.206	3920
2004.287	3897
2006.368	3882
2008.449	3822
2010.529	3906
2012.609	3843
2014.688	3868
2016.766	3885
2018.843	3935
2020.922	3872
2022.999	3869
2025.074	3864
2027.15	3878
2029.225	3868
2031.299	3814
2033.375	3804
2035.447	3942
2037.52	3798
2039.592	3893
2041.664	3725
2043.736	3814
2045.807	3827
2047.876	3777
2049.947	3831
2052.015	3762
2054.086	3761
2056.153	3942
2058.221	3957
2060.288	3901
2062.353	3855
2064.42	3887
2066.486	3897
2068.55	3821
2070.614	3884
2072.678	3823
2074.741	3903
2076.805	3775
2078.866	3803
2080.929	3866
2082.99	3895
2085.049	3828
2087.109	3947
2089.17	3933
2091.228	3877
2093.286	3911
2095.344	3880
2097.4	3873
2099.46	3934
2101.516	3898
2103.572	3962
2105.626	3870
2107.679	3943
2109.735	3847
2111.788	3821
2113.841	3876
2115.894	3852
2117.945	3904
2119.997	3836
2122.049	3821
2124.1	3924
2126.148	3916
2128.197	3847
2130.246	3892
2132.296	3900
2134.342	3847
2136.39	3886
2138.437	3840
2140.483	3863
2142.527	3867
2144.574	3897
2146.619	3842
2148.661	3960
2150.705	3742
2152.747	3877
2154.792	3890
2156.832	3806
2158.874	3875
2160.915	3872
2162.954	3809
2164.995	3818
2167.034	3862
2169.072	3817
2171.111	3802
2173.148	3788
2175.186	3845
2177.223	3819
2179.258	3816
2181.294	3809
2183.328	3780
2185.362	3880
2187.398	3822
2189.431	3817
2191.463	3805
2193.495	3830
2195.528	3893
2197.56	3819
2199.59	3754
2201.62	3775
2203.649	3816
2205.678	3887
2207.708	3855
2209.737	3807
2211.764	3799
2213.791	3804
2215.817	3863
2217.843	3834
2219.87	3784
2221.895	3832
2223.919	3806
2225.942	3857
2227.966	3714
2229.988	3808
2232.012	3718
2234.032	3837
2236.054	3730
2238.074	3763
2240.095	3764
2242.116	3879
2244.135	3822
2246.153	3828
2248.171	3835
2250.188	3861
2252.208	3756
2254.223	3797
2256.239	3756
2258.255	3828
2260.269	3771
2262.283	3783
2264.3	3814
2266.312	3793
2268.325	3813
2270.336	3780
2272.349	3816
2274.362	3829
2276.372	3835
2278.383	3863
2280.392	3847
2282.402	3788
2284.409	3757
2286.418	3773
2288.427	3863
2290.433	3785
2292.441	3741
2294.446	3865
2296.453	3820
2298.459	3765
2300.463	3692
2302.466	3883
2304.471	3738
2306.475	3889
2308.477	3859
2310.478	3802
2312.481	3873
2314.481	3757
2316.481	3836
2318.482	3781
2320.482	3805
2322.48	3763
2324.48	3815
2326.478	3732
2328.476	3783
2330.473	3755
2332.469	3717
2334.465	3796
2336.46	3727
2338.454	3811
2340.45	3742
2342.444	3742
2344.437	3667
2346.43	3722
2348.421	3767
2350.414	3695
2352.405	3709
2354.396	3700
2356.386	3750
2358.376	3711
2360.366	3747
2362.355	3768
2364.343	3753
2366.331	3771
2368.317	3701
2370.304	3798
2372.292	3745
2374.278	3606
2376.262	3748
2378.247	3761
2380.23	3733
2382.216	3665
2384.199	3688
2386.181	3659
2388.163	3644
2390.144	3779
2392.127	3705
2394.107	3652
2396.087	3641
2398.066	3730
2400.046	3680
2402.023	3596
2404.004	3706
2405.981	3691
2407.957	3730
2409.934	3685
2411.91	3738
2413.886	3764
2415.862	3696
2417.836	3707
2419.809	3661
2421.784	3674
2423.756	3710
2425.73	3675
2427.701	3754
2429.672	3732
2431.644	3753
2433.615	3710
2435.586	3640
2437.555	3663
2439.523	3703
2441.491	3751
2443.459	3743
2445.428	3628
2447.395	3679
2449.361	3708
2451.327	3716
2453.292	3672
2455.257	3750
2457.223	3694
2459.187	3622
2461.15	3674
2463.113	3656
2465.076	3670
2467.039	3686
2468.999	3729
2470.96	3615
2472.921	3688
2474.881	3687
2476.841	3706
2478.8	3660
2480.759	3717
2482.717	3631
2484.675	3721
2486.63	3626
2488.589	3710
2490.545	3680
2492.5	3599
2494.455	3671
2496.408	3660
2498.364	3672
2500.318	3683
2502.27	3647
2504.223	3608
2506.174	3651
2508.126	3593
2510.078	3707
2512.03	3648
2513.979	3647
2515.927	3664
2517.877	3716
2519.826	3728
2521.775	3707
2523.722	3614
2525.668	3578
2527.616	3570
2529.561	3618
2531.508	3604
2533.452	3686
2535.398	3688
2537.342	3698
2539.284	3720
2541.229	3707
2543.173	3547
2545.114	3547
2547.055	3659
2548.996	3616
2550.938	3617
2552.878	3595
2554.817	3695
2556.756	3694
2558.695	3638
2560.633	3572
2562.572	3614
2564.509	3595
2566.445	3652
2568.382	3578
2570.317	3680
2572.254	3531
2574.189	3674
2576.123	3570
2578.057	3622
2579.99	3591
2581.923	3581
2583.855	3695
2585.788	3626
2587.719	3570
2589.65	3615
2591.579	3683
2593.511	3649
2595.44	3659
2597.37	3614
2599.297	3642
2601.225	3668
2603.153	3595
2605.08	3623
2607.007	3640
2608.932	3606
2610.858	3545
2612.782	3645
2614.709	3643
2616.632	3679
2618.556	3631
2620.478	3681
2622.401	3611
2624.324	3742
2626.247	3624
2628.167	3613
2630.088	3670
2632.008	3666
2633.928	3655
2635.848	3644
2637.766	3613
2639.684	3667
2641.603	3667
2643.519	3722
2645.437	3670
2647.353	3737
2649.27	3611
2651.184	3616
2653.099	3675
2655.014	3632
2656.928	3670
2658.842	3656
2660.755	3627
2662.667	3703
2664.579	3629
2666.491	3774
2668.402	3625
2670.312	3610
2672.222	3678
2674.132	3669
2676.042	3602
2677.951	3573
2679.859	3629
2681.766	3707
2683.674	3601
2685.582	3686
2687.488	3693
2689.392	3609
2691.298	3639
2693.202	3536
2695.107	3542
2697.012	3576
2698.914	3575
2700.817	3632
2702.72	3608
2704.622	3541
2706.524	3653
2708.425	3624
2710.326	3581
2712.225	3653
2714.125	3517
2716.024	3720
2717.923	3610
2719.822	3564
2721.719	3563
2723.616	3610
2725.512	3593
2727.41	3694
2729.305	3599
2731.201	3636
2733.095	3659
2734.99	3653
2736.884	3606
2738.778	3613
2740.67	3592
2742.562	3591
2744.455	3548
2746.346	3546
2748.238	3592
2750.129	3518
2752.018	3569
2753.907	3615
2755.797	3583
2757.687	3575
2759.575	3620
2761.462	3582
2763.349	3586
2765.237	3622
2767.124	3656
2769.009	3566
2770.894	3542
2772.779	3611
2774.663	3562
2776.547	3557
2778.431	3544
2780.314	3552
2782.197	3589
2784.078	3709
2785.96	3524
2787.842	3607
2789.723	3578
2791.603	3532
2793.483	3561
2795.362	3573
2797.241	3616
2799.121	3630
2800.997	3530
2802.874	3539
2804.751	3547
2806.628	3604
2808.506	3580
2810.38	3547
2812.255	3584
2814.13	3633
2816.003	3578
2817.878	3561
2819.752	3566
2821.623	3600
2823.496	3602
2825.368	3558
2827.238	3600
2829.111	3616
2830.98	3545
2832.851	3617
2834.719	3587
2836.589	3584
2838.458	3699
2840.327	3644
2842.193	3570
2844.061	3523
2845.927	3725
2847.794	3632
2849.66	3628
2851.525	3686
2853.39	3683
2855.254	3640
2857.117	3677
2858.983	3616
2860.845	3679
2862.707	3744
2864.569	3816
2866.431	3765
2868.293	3791
2870.154	3781
2872.013	3977
2873.873	3925
2875.733	3930
2877.592	3918
2879.451	3961
2881.309	3952
2883.166	4005
2885.022	4097
2886.879	4089
2888.736	4191
2890.591	4061
2892.446	4115
2894.301	4091
2896.155	4109
2898.009	4062
2899.863	4108
2901.716	4107
2903.568	3983
2905.419	4028
2907.27	4133
2909.123	4132
2910.973	4069
2912.824	4189
2914.673	4248
2916.521	4296
2918.372	4189
2920.22	4273
2922.067	4304
2923.914	4510
2925.761	4415
2927.607	4514
2929.455	4491
2931.301	4594
2933.144	4574
2934.99	4754
2936.833	4803
2938.678	4756
2940.522	4777
2942.364	4818
2944.207	4927
2946.048	4814
2947.891	4844
2949.731	4906
2951.571	4904
2953.412	4915
2955.25	4772
2957.09	4781
2958.93	4742
2960.767	4728
2962.606	4677
2964.443	4645
2966.279	4509
2968.116	4431
2969.953	4529
2971.788	4452
2973.623	4402
2975.457	4322
2977.292	4285
2979.127	4262
2980.959	4312
2982.792	4233
2984.624	4304
2986.455	4221
2988.288	4227
2990.119	4177
2991.949	4144
2993.779	4117
2995.608	4057
2997.439	3968
2999.268	4030
3001.096	3975
3002.923	3885
3004.751	3820
3006.578	3825
3008.406	3687
3010.232	3820
3012.057	3757
3013.883	3724
3015.706	3741
3017.532	3731
3019.356	3718
3021.179	3650
3023.002	3584
3024.823	3553
3026.646	3586
3028.469	3545
3030.289	3570
3032.11	3523
3033.93	3521
3035.749	3425
3037.57	3514
3039.39	3499
3041.207	3453
3043.026	3538
3044.842	3459
3046.661	3455
3048.477	3524
3050.294	3533
3052.109	3459
3053.925	3496
3055.739	3459
3057.555	3474
3059.368	3473
3061.181	3508
3062.995	3397
3064.807	3491
3066.62	3510
3068.433	3464
3070.243	3515
3072.054	3435
3073.865	3433
3075.675	3507
3077.485	3387
3079.293	3440
3081.102	3480
3082.911	3486
3084.719	3398
3086.527	3479
3088.333	3478
3090.139	3349
3091.945	3459
3093.75	3426
3095.557	3407
3097.361	3386
3099.165	3452
3100.969	3456
3102.772	3405
3104.575	3353
3106.379	3354
3108.181	3326
3109.982	3330
3111.783	3427
3113.584	3297
3115.386	3386
3117.186	3313
3118.985	3356
3120.783	3430
3122.582	3364
3124.381	3359
3126.179	3373
3127.975	3377
3129.772	3444
3131.569	3323
3133.365	3326
3135.161	3329
3136.956	3309
3138.751	3309
3140.544	3247
3142.338	3317
3144.132	3316
3145.925	3322
3147.717	3360
3149.509	3311
3151.301	3332
3153.091	3302
3154.884	3358
3156.673	3329
3158.462	3340
3160.252	3317
3162.041	3272
3163.831	3279
3165.618	3351
3167.405	3346
3169.193	3315
3170.979	3268
3172.767	3345
3174.553	3309
3176.338	3314
3178.123	3338
3179.907	3264
3181.692	3270
3183.477	3358
3185.259	3273
3187.042	3220
3188.824	3241
3190.607	3247
3192.389	3286
3194.17	3326
3195.951	3260
3197.73	3296
3199.51	3289
3201.289	3260
3203.07	3329
3204.848	3350
3206.626	3298
3208.403	3357
3210.18	3263
3211.959	3324
3213.735	3351
3215.511	3299
3217.285	3263
3219.06	3357
3220.836	3352
3222.611	3287
3224.384	3303
3226.158	3332
3227.929	3304
3229.702	3314
3231.476	3342
3233.248	3312
3235.018	3289
3236.789	3289
3238.56	3330
3240.33	3237
3242.1	3344
3243.869	3267
3245.637	3369
3247.405	3291
3249.172	3291
3250.941	3310
3252.707	3324
3254.474	3384
3256.24	3275
3258.006	3214
3259.772	3334
3261.537	3284
3263.301	3357
3265.065	3373
3266.828	3323
3268.592	3380
3270.355	3322
3272.117	3359
3273.878	3296
3275.64	3384
3277.401	3328
3279.162	3339
3280.922	3260
3282.682	3329
3284.441	3418
3286.199	3329
3287.959	3352
3289.716	3414
3291.475	3326
3293.232	3292
3294.988	3278
3296.744	3336
3298.501	3332
3300.256	3312
3302.011	3320
3303.766	3335
3305.52	3411
3307.275	3330
3309.028	3407
3310.781	3349
3312.533	3342
3314.285	3411
3316.038	3347
3317.789	3335
3319.54	3305
3321.289	3361
3323.039	3335
3324.789	3400
3326.539	3374
3328.288	3321
3330.035	3282
3331.783	3326
3333.531	3320
3335.28	3329
3337.025	3337
3338.771	3269
3340.518	3300
3342.262	3293
3344.009	3336
3345.753	3322
3347.497	3314
3349.24	3304
3350.983	3255
3352.726	3347
3354.469	3264
3356.212	3330
3357.952	3294
3359.694	3266
3361.434	3348
3363.176	3322
3364.916	3333
3366.654	3280
3368.394	3300
3370.132	3252
3371.871	3270
3373.61	3277
3375.346	3261
3377.083	3243
3378.82	3266
3380.556	3223
3382.292	3319
3384.027	3264
3385.763	3190
3387.497	3247
3389.231	3302
3390.965	3247
3392.698	3253
3394.431	3176
3396.164	3336
3397.896	3243
3399.627	3219
3401.36	3226
3403.09	3160
3404.82	3234
3406.55	3225
3408.279	3225
3410.01	3118
3411.738	3173
3413.467	3246
3415.194	3251
3416.92	3165
3418.647	3176
3420.375	3126
3422.102	3192
3423.827	3226
3425.553	3111
3427.277	3173
3429.003	3096
3430.727	3184
3432.451	3111
3434.173	3203
3435.896	3202
3437.62	3134
3439.343	3207
3441.063	3109
3442.785	3159
3444.505	3178
3446.226	3134
3447.948	3194
3449.666	3120
3451.386	3136
3453.104	3099
3454.823	3063
3456.541	3021
3458.259	3188
3459.976	3087
3461.693	3066
3463.408	3081
3465.125	3006
3466.841	3098
3468.556	3068
3470.271	3054
3471.985	3047
3473.698	3014
3475.414	3105
3477.126	3095
3478.838	2970
3480.55	2926
3482.263	3101
3483.975	3036
3485.686	3016
3487.396	3033
3489.106	3016
3490.817	3095
3492.526	2972
3494.236	2971
3495.944	2983
3497.652	3037
3499.359	2979
3501.066	2995
3502.775	2985
3504.481	2987
3506.187	2909
3507.893	2992
3509.598	2950
3511.304	3027
3513.009	2936
3514.713	2950
3516.417	2981
3518.12	2942
3519.821	2959
3521.525	2935
3523.228	2916
3524.929	2951
3526.631	2862
3528.33	2993
3530.032	2896
3531.733	2938
3533.433	2863
3535.131	2928
3536.83	2916
3538.529	2943
3540.227	2918
3541.925	2899
3543.623	2839
3545.319	2894
3547.016	2905
3548.712	2886
3550.408	2908
3552.103	2939
3553.798	2890
3555.491	2865
3557.188	2813
3558.88	2884
3560.574	2827
3562.266	2839
3563.959	2813
3565.651	2902
3567.343	2836
3569.035	2801
3570.725	2887
3572.415	2837
3574.106	2883
3575.797	2782
3577.485	2819
3579.174	2763
3580.863	2787
3582.551	2771
3584.238	2803
3585.926	2807
3587.613	2741
3589.3	2755
3590.986	2837
3592.671	2816
3594.357	2797
3596.042	2867
3597.726	2757
3599.41	2793
3601.094	2829
3602.778	2717
3604.461	2723
3606.143	2666
3607.825	2783
3609.507	2737
3611.188	2795
3612.87	2787
3614.551	2775
3616.229	2769
3617.909	2703
3619.589	2721
3621.269	2720
3622.948	2727
3624.625	2686
3626.302	2738
3627.98	2645
3629.657	2675
3631.334	2677
3633.01	2678
3634.686	2615
3636.361	2673
3638.036	2574
3639.712	2697
3641.385	2633
3643.06	2697
3644.732	2711
3646.405	2686
3648.08	2654
3649.751	2656
3651.424	2609
3653.094	2609
3654.766	2621
3656.436	2695
3658.106	2647
3659.777	2556
3661.446	2652
3663.115	2585
3664.783	2558
3666.452	2581
3668.121	2594
3669.788	2543
3671.454	2651
3673.121	2583
3674.789	2568
3676.455	2563
3678.12	2557
3679.784	2570
3681.45	2581
3683.114	2651
3684.779	2614
3686.442	2550
3688.105	2606
3689.768	2529
3691.43	2536
3693.093	2576
3694.754	2567
3696.415	2527
3698.076	2582
3699.736	2540
3701.396	2554
3703.057	2509
3704.716	2580
3706.375	2555
3708.034	2557
3709.692	2522
3711.351	2531
3713.008	2585
3714.665	2539
3716.321	2530
3717.977	2515
3719.634	2508
3721.29	2538
3722.945	2561
3724.598	2568
3726.253	2588
3727.907	2505
3729.561	2471
3731.214	2540
3732.867	2537
3734.518	2540
3736.171	2586
3737.824	2558
3739.474	2466
3741.125	2503
3742.775	2541
3744.425	2480
3746.074	2527
3747.725	2503
3749.373	2491
3751.022	2456
3752.669	2485
3754.318	2443
3755.966	2541
3757.612	2466
3759.259	2477
3760.905	2509
3762.55	2496
3764.197	2462
3765.842	2423
3767.486	2477
3769.131	2462
3770.774	2523
3772.417	2480
3774.061	2514
3775.705	2440
3777.347	2445
3778.988	2517
3780.629	2431
3782.271	2458
3783.912	2451
3785.552	2426
3787.192	2517
3788.831	2419
3790.472	2407
3792.112	2443
3793.75	2410
3795.388	2400
3797.024	2475
3798.661	2341
3800.3	2353
3801.936	2482
3803.572	2475
3805.208	2364
3806.844	2401
3808.48	2382
3810.115	2418
3811.748	2397
3813.382	2479
3815.016	2414
3816.649	2371
3818.283	2408
3819.914	2385
3821.547	2387
3823.178	2373
3824.809	2352
3826.441	2379
3828.072	2400
3829.701	2384
3831.331	2433
3832.96	2376
3834.591	2382
3836.219	2403
3837.847	2378
3839.475	2371
3841.102	2395
3842.729	2348
3844.357	2394
3845.984	2295
3847.609	2346
3849.234	2396
3850.86	2360
3852.485	2394
3854.11	2360
3855.734	2300
3857.357	2361
3858.981	2355
3860.603	2315
3862.227	2326
3863.848	2306
3865.471	2342
3867.092	2364
3868.713	2322
3870.334	2311
3871.954	2314
3873.575	2330
3875.194	2337
3876.813	2333
3878.433	2297
3880.051	2373
3881.669	2307
3883.286	2306
3884.904	2332
3886.52	2320
3888.138	2334
3889.754	2314
3891.37	2266
3892.985	2316
3894.6	2371
3896.216	2344
3897.831	2315
3899.444	2287
3901.058	2331
3902.67	2331
3904.283	2271
3905.897	2295
3907.509	2291
3909.121	2284
3910.731	2342
3912.342	2294
3913.954	2309
3915.563	2248
3917.174	2247
3918.783	2286
3920.391	2274
3922.002	2260
3923.611	2248
3925.218	2287
3926.826	2286
3928.432	2323
3930.039	2295
3931.647	2253
3933.253	2252
3934.859	2339
3936.464	2326
3938.068	2272
3939.675	2232
3941.278	2294
3942.883	2279
3944.486	2295
3946.089	2261
3947.692	2214
3949.295	2273
3950.898	2295
3952.499	2297
3954.1	2316
3955.7	2268
3957.303	2338
3958.903	2255
3960.502	2240
3962.101	2271
3963.7	2269
3965.301	2232
3966.899	2219
3968.497	2255
3970.094	2196
3971.691	2200
3973.288	2279
3974.885	2292
3976.481	2194
3978.077	2239
3979.672	2244
3981.267	2200
3982.863	2259
3984.457	2183
3986.051	2194
3987.645	2186
3989.238	2175
3990.831	2191
3992.425	2231
3994.017	2176
3995.607	2201
3997.199	2165
3998.79	2233
4000.382	2181
4001.973	2173
4003.561	2176
4005.151	2183
4006.741	2222
4008.331	2162
4009.918	2155
4011.507	2122
4013.095	2197
4014.681	2134
4016.269	2173
4017.856	2152
4019.443	2151
4021.028	2162
4022.614	2202
4024.199	2130
4025.785	2173
4027.37	2160
4028.953	2139
4030.536	2092
4032.12	2115
4033.704	2174
4035.287	2101
4036.869	2143
4038.45	2154
4040.032	2155
4041.613	2158
4043.195	2101
4044.776	2087
4046.356	2120
4047.935	2117
4049.515	2158
4051.095	2133
4052.674	2143
4054.251	2098
4055.829	2081
4057.406	2126
4058.985	2163
4060.562	2140
4062.139	2116
4063.715	2102
4065.29	2103
4066.865	2078
4068.442	2053
4070.016	2075
4071.59	2064
4073.164	2120
4074.738	2067
4076.312	2134
4077.885	2068
4079.458	2112
4081.03	2118
4082.602	2075
4084.173	2082
4085.745	2076
4087.315	2100
4088.886	2063
4090.456	2070
4092.026	2107
4093.596	2071
4095.165	2054
4096.734	2079
4098.301	2045
4099.869	2074
4101.437	2074
4103.006	2084
4104.572	2073
4106.139	2066
4107.704	2067
4109.27	2095
4110.837	2052
4112.401	2100
4113.966	2053
4115.53	2016
4117.094	2063
4118.659	2097
4120.223	2035
4121.785	2076
4123.347	1994
4124.909	2093
4126.471	2067
4128.034	2021
4129.595	2060
4131.155	2022
4132.716	2072
4134.275	2084
4135.836	2030
4137.395	2073
4138.955	2042
4140.513	2014
4142.071	2041
4143.628	2023
4145.188	1953
4146.745	1996
4148.302	1997
4149.858	2004
4151.414	1983
4152.971	2048
4154.526	2032
4156.081	1990
4157.635	2005
4159.189	1994
4160.745	2018
4162.298	1969
4163.852	2008
4165.405	2031
4166.957	2050
4168.51	1945
4170.063	1944
4171.614	1927
4173.166	1938
4174.717	1996
4176.267	1957
4177.817	1949
4179.368	1973
4180.917	1984
4182.466	1922
4184.016	2025
4185.564	2004
4187.112	1951
4188.66	1989
4190.207	1923
4191.754	1930
4193.301	1953
4194.848	2011
4196.394	1936
4197.94	1994
4199.484	1945
4201.03	1970
4202.575	1905
4204.12	1972
4205.663	1954
4207.207	1915
4208.75	1908
4210.292	1916
4211.836	1904
4213.378	1997
4214.92	1954
4216.46	1919
4218.002	1915
4219.544	1928
4221.083	1960
4222.625	1914
4224.164	1933
4225.703	1889
4227.244	1847
4228.782	1964
4230.32	1898
4231.857	1971
4233.395	1902
4234.933	1898
4236.471	1877
4238.007	1899
4239.542	1940
4241.078	1894
4242.614	1929
4244.15	1871
4245.685	1928
4247.219	1891
4248.753	1893
4250.287	1891
4251.82	1900
4253.354	1849
4254.887	1954
4256.419	1902
4257.951	1898
4259.483	1872
4261.016	1899
4262.547	1838
4264.078	1883
4265.608	1865
4267.137	1869
4268.668	1864
4270.197	1867
4271.727	1871
4273.254	1845
4274.783	1916
4276.311	1890
4277.84	1911
4279.366	1924
4280.894	1812
4282.42	1873
4283.946	1917
4285.473	1878
4286.998	1914
4288.523	1846
4290.047	1821
4291.572	1823
4293.096	1847
4294.622	1837
4296.144	1865
4297.668	1841
4299.19	1823
4300.713	1837
4302.236	1837
4303.758	1814
4305.279	1841
4306.799	1859
4308.321	1846
4309.842	1871
4311.361	1860
4312.882	1819
4314.401	1817
