400.0961	2731
402.6185	2833
405.1424	2728
407.6635	2834
410.1838	2833
412.7035	2759
415.2225	2866
417.7388	2909
420.2585	2954
422.7754	2860
425.2917	2970
427.8072	2989
430.3221	3038
432.8363	2994
435.3498	2980
437.8626	3035
440.3727	3018
442.8841	2999
445.3969	2940
447.907	3011
450.4142	3034
452.9229	2938
455.4289	3022
457.9362	2970
460.4449	3010
462.9488	2960
465.454	2923
467.9566	2900
470.4604	2926
472.9637	2955
475.4662	2971
477.966	2978
480.4671	2926
482.9656	2950
485.4633	2937
487.9645	2972
490.4608	2946
492.9566	2951
495.4536	2970
497.948	3014
500.4437	2986
502.9387	3034
505.431	2968
507.9226	2963
510.4136	2972
512.9079	3046
515.3975	2980
517.8864	3006
520.3746	3027
522.8622	3036
525.3491	3022
527.8394	3046
530.3249	3016
532.8098	3026
535.2939	3109
537.7774	2986
540.2623	3017
542.7444	3006
545.2259	3011
547.7067	3112
550.1868	3063
552.6683	3034
555.147	3019
557.6231	3050
560.1005	3092
562.5773	3028
565.0534	3023
567.5308	3087
570.0056	3072
572.4776	3143
574.951	3228
577.4237	3104
579.8978	3194
582.3671	3250
584.8378	3197
587.3079	3160
589.7773	3201
592.244	3293
594.714	3192
597.1793	3210
599.6461	3216
602.1121	3132
604.5754	3096
607.0421	3161
609.5042	3190
611.9675	3148
614.4282	3214
616.8902	3112
619.3515	3142
621.8122	3099
624.2702	3092
626.7296	3190
629.1863	3087
631.6423	3084
634.1017	3097
636.5563	3115
639.0104	3101
641.4658	3142
643.9185	3188
646.3725	3140
648.8239	3142
651.2766	3171
653.7266	2981
656.176	3192
658.6247	3084
661.0748	3146
663.5242	3184
665.9709	3147
668.417	3256
670.8624	3136
673.3092	3158
675.7533	3216
678.1968	3239
680.6395	3155
683.0817	3199
685.5251	3254
687.9659	3229
690.4061	3249
692.8456	3273
695.2844	3224
697.7226	3300
700.1621	3161
702.599	3223
705.0332	3211
707.4688	3270
709.9036	3262
712.3399	3260
714.7735	3229
717.2044	3253
719.6367	3327
722.0683	3355
724.4993	3362
726.9296	3297
729.3593	3339
731.7883	3351
734.2147	3360
736.6423	3327
739.0714	3307
741.4958	3356
743.9216	3341
746.3447	3360
748.7691	3384
751.1929	3330
753.616	3344
756.0366	3398
758.4584	3420
760.8776	3421
763.2982	3473
765.718	3377
768.1373	3497
770.5539	3449
772.9698	3403
775.3871	3424
777.8038	3411
780.2178	3448
782.6332	3427
785.0459	3456
787.458	3446
789.8714	3499
792.2842	3421
794.6943	3428
797.1038	3476
799.5127	3420
801.9209	3446
804.3324	3415
806.7393	3465
809.1456	3527
811.5513	3429
813.9562	3557
816.3625	3536
818.7663	3514
821.1693	3443
823.5718	3532
825.9735	3485
828.3746	3517
830.7771	3395
833.177	3474
835.5762	3511
837.9747	3531
840.3727	3525
842.772	3542
845.1666	3562
847.5626	3613
849.958	3529
852.3527	3632
854.7488	3642
857.1403	3649
859.5331	3590
861.9253	3572
864.3168	3600
866.7057	3488
869.098	3561
871.4876	3593
873.8746	3607
876.263	3559
878.6487	3533
881.0378	3556
883.4243	3612
885.8081	3641
888.1933	3562
890.5759	3536
892.9598	3522
895.343	3598
897.7256	3522
900.1057	3637
902.4871	3577
904.8659	3594
907.246	3556
909.6254	3622
912.0023	3636
914.3786	3665
916.7562	3684
919.1331	3863
921.5074	3762
923.8831	3817
926.2562	3778
928.6287	3836
931.0005	3755
933.3757	3810
935.7462	3852
938.1162	3867
940.4855	3864
942.8542	3919
945.2242	4039
947.5916	4113
949.9584	4216
952.3266	4402
954.6921	4646
957.0571	4800
959.4233	5022
961.787	5153
964.15	5078
966.5125	4835
968.8742	4509
971.2354	4515
973.5959	4109
975.9559	4012
978.3151	3937
980.6738	3807
983.0338	3803
985.3912	3738
987.7461	3791
990.1022	3734
992.4578	3724
994.8127	3726
997.1689	3761
999.5207	3824
1001.874	3815
1004.226	3776
1006.576	3738
1008.929	3780
1011.28	3645
1013.628	3720
1015.977	3797
1018.324	3722
1020.674	3747
1023.019	3827
1025.366	3877
1027.713	3822
1030.056	3856
1032.399	3816
1034.746	3738
1037.087	3815
1039.431	3837
1041.771	3860
1044.113	3861
1046.454	3895
1048.793	3871
1051.133	3869
1053.471	3844
1055.807	3891
1058.146	3818
1060.483	3868
1062.818	3936
1065.153	3873
1067.489	3924
1069.822	3875
1072.156	3902
1074.488	3913
1076.82	3939
1079.15	3918
1081.48	3870
1083.814	3771
1086.143	3930
1088.471	3703
1090.799	3829
1093.126	3769
1095.452	3845
1097.78	3834
1100.105	3857
1102.43	3805
1104.754	3746
1107.077	3779
1109.4	3822
1111.722	3831
1114.044	3841
1116.365	3869
1118.685	3736
1121.005	3851
1123.324	3815
1125.643	3784
1127.961	3877
1130.278	3823
1132.595	3795
1134.911	3730
1137.226	3744
1139.541	3718
1141.854	3778
1144.167	3772
1146.482	3867
1148.793	3768
1151.105	3775
1153.414	3813
1155.725	3762
1158.033	3839
1160.344	3819
1162.651	3800
1164.959	3720
1167.265	3879
1169.572	3794
1171.878	3820
1174.184	3787
1176.488	3816
1178.79	3923
1181.094	3872
1183.396	3782
1185.699	3814
1188.001	3814
1190.301	3748
1192.6	3754
1194.9	3826
1197.2	3732
1199.497	3830
1201.794	3740
1204.09	3829
1206.387	3857
1208.684	3857
1210.978	3828
1213.272	3869
1215.565	3824
1217.858	3801
1220.15	3877
1222.443	3775
1224.734	3879
1227.024	3888
1229.313	3900
1231.602	3943
1233.892	3934
1236.18	3972
1238.467	3983
1240.754	4010
1243.04	4045
1245.325	4000
1247.612	4015
1249.896	3987
1252.178	4008
1254.461	4029
1256.743	3955
1259.027	4054
1261.308	3951
1263.587	3996
1265.867	4017
1268.146	4105
1270.425	3989
1272.703	4095
1274.981	4037
1277.256	4008
1279.532	3921
1281.808	4108
1284.083	4084
1286.358	4031
1288.63	3904
1290.904	3989
1293.175	3985
1295.449	3869
1297.719	3995
1299.99	3985
1302.259	3964
1304.529	3909
1306.798	3941
1309.065	3924
1311.333	3959
1313.599	3888
1315.866	3883
1318.131	3939
1320.396	3857
1322.66	3894
1324.925	3937
1327.187	3884
1329.448	3942
1331.711	3959
1333.974	3960
1336.234	3914
1338.493	3933
1340.752	3939
1343.01	3912
1345.269	3939
1347.526	3910
1349.784	3973
1352.04	3826
1354.295	3946
1356.552	3873
1358.806	3904
1361.059	3964
1363.312	3884
1365.564	3937
1367.818	3967
1370.069	3946
1372.318	3907
1374.568	3962
1376.817	3907
1379.066	3978
1381.316	3943
1383.564	4020
1385.809	4076
1388.056	3956
1390.301	4002
1392.549	4100
1394.793	4082
1397.036	4120
1399.279	4121
1401.522	4147
1403.763	4105
1406.007	4105
1408.248	4205
1410.487	4129
1412.727	4138
1414.965	4156
1417.205	4138
1419.442	4166
1421.68	4175
1423.915	4033
1426.152	4086
1428.388	4074
1430.623	4081
1432.857	4082
1435.091	4204
1437.323	4215
1439.556	4139
1441.789	4183
1444.019	4178
1446.25	4153
1448.48	4158
1450.708	4147
1452.938	4211
1455.167	4225
1457.394	4293
1459.62	4184
1461.846	4279
1464.073	4207
1466.299	4179
1468.523	4126
1470.746	4110
1472.969	4164
1475.191	4030
1477.415	4094
1479.636	4063
1481.858	4006
1484.078	3959
1486.298	3993
1488.518	3985
1490.736	3975
1492.954	3986
1495.169	3926
1497.386	3924
1499.602	3987
1501.819	3944
1504.034	3911
1506.248	3970
1508.462	3867
1510.675	3938
1512.888	3913
1515.1	3981
1517.311	3905
1519.522	4019
1521.732	3975
1523.942	4051
1526.151	3971
1528.36	3975
1530.566	4026
1532.773	4059
1534.98	3988
1537.187	3962
1539.392	4017
1541.596	3953
1543.801	4005
1546.005	4055
1548.208	4064
1550.411	4051
1552.612	3962
1554.814	3997
1557.013	3999
1559.212	4013
1561.414	3992
1563.612	4014
1565.811	3987
1568.007	4052
1570.203	4061
1572.403	4060
1574.598	4044
1576.792	4031
1578.988	4028
1581.181	3991
1583.376	4134
1585.568	4056
1587.761	4076
1589.952	4100
1592.143	4056
1594.333	4058
1596.524	4143
1598.715	4148
1600.903	4179
1603.091	4071
1605.278	4059
1607.466	4104
1609.652	4131
1611.838	4109
1614.023	4127
1616.207	4204
1618.391	4128
1620.576	4156
1622.759	4049
1624.941	4134
1627.123	4140
1629.304	4211
1631.484	4140
1633.664	4168
1635.844	4185
1638.022	4228
1640.201	4156
1642.38	4251
1644.556	4170
1646.732	4192
1648.908	4214
1651.084	4189
1653.257	4236
1655.433	4243
1657.607	4165
1659.779	4209
1661.951	4140
1664.122	4283
1666.295	4207
1668.467	4315
1670.635	4162
1672.805	4286
1674.973	4266
1677.142	4345
1679.31	4271
1681.478	4182
1683.644	4185
1685.81	4202
1687.975	4122
1690.142	4165
1692.305	4270
1694.468	4248
1696.632	4219
1698.794	4164
1700.957	4181
1703.119	4097
1705.279	4075
1707.439	4088
1709.598	4124
1711.758	4134
1713.917	4117
1716.075	4162
1718.231	3952
1720.388	4099
1722.543	4117
1724.702	4140
1726.856	4089
1729.01	4135
1731.164	4169
1733.317	4189
1735.471	4148
1737.623	4074
1739.774	4036
1741.925	4092
1744.075	4059
1746.225	4080
1748.376	4120
1750.524	4081
1752.672	4142
1754.82	4127
1756.965	4003
1759.113	4170
1761.259	4020
1763.405	4206
1765.549	4128
1767.694	4024
1769.836	4137
1771.981	4123
1774.123	4122
1776.264	4125
1778.405	4115
1780.546	4132
1782.687	4165
1784.827	4071
1786.966	4089
1789.103	4094
1791.242	4117
1793.381	4114
1795.517	4076
1797.653	4108
1799.788	4082
1801.923	4118
1804.057	4118
1806.193	4121
1808.326	4142
1810.457	4140
1812.59	4192
1814.721	4138
1816.855	4191
1818.984	4177
1821.113	4111
1823.244	4114
1825.372	4115
1827.499	4166
1829.63	4107
1831.756	4138
1833.882	4144
1836.007	4142
1838.132	4050
1840.26	4075
1842.384	4037
1844.507	4135
1846.63	4121
1848.752	4098
1850.875	4076
1852.996	4211
1855.118	4072
1857.238	4057
1859.358	4124
1861.477	4180
1863.597	4084
1865.715	4157
1867.832	4090
1869.948	4118
1872.064	4094
1874.181	4063
1876.297	4077
1878.411	4179
1880.526	4105
1882.639	4124
1884.752	4186
1886.865	4031
1888.977	3992
1891.089	4093
1893.2	4143
1895.308	4178
1897.42	4061
1899.53	4152
1901.639	4094
1903.745	4206
1905.853	4204
1907.962	4134
1910.067	4107
1912.174	4136
1914.278	4078
1916.383	4168
1918.486	4129
1920.592	4141
1922.694	4180
1924.797	4099
1926.898	4113
1929	4167
1931.102	4098
1933.203	4164
1935.301	4211
1937.401	4152
1939.499	4160
1941.598	4276
1943.697	4254
1945.793	4223
1947.888	4142
1949.985	4167
1952.08	4087
1954.176	4163
1956.269	4170
1958.364	4178
1960.457	4133
1962.549	4117
1964.642	4190
1966.733	4135
1968.823	4212
1970.913	4102
1973.005	4139
1975.093	4217
1977.184	4225
1979.271	4174
1981.359	4241
1983.446	4099
1985.532	4155
1987.619	4281
1989.705	4157
1991.789	4115
1993.874	4083
1995.956	4122
1998.041	4185
2000.123	4110
2002.206	4147
2004.287	4106
2006.368	4144
2008.449	4108
2010.529	4123
2012.609	4176
2014.688	4090
2016.766	4130
2018.843	4142
2020.922	4134
2022.999	4129
2025.074	4111
2027.15	4141
2029.225	4119
2031.299	4114
2033.375	4178
2035.447	4190
2037.52	4119
2039.592	4136
2041.664	4171
2043.736	4219
2045.807	4094
2047.876	4123
2049.947	4094
2052.015	4117
2054.086	4132
2056.153	4147
2058.221	4190
2060.288	4203
2062.353	4165
2064.42	4203
2066.486	4134
2068.55	4235
2070.614	4193
2072.678	4128
2074.741	4246
2076.805	4272
2078.866	4180
2080.929	4162
2082.99	4124
2085.049	4108
2087.109	4184
2089.17	4118
2091.228	4129
2093.286	4176
2095.344	4114
2097.4	4196
2099.46	4108
2101.516	4249
2103.572	4163
2105.626	4172
2107.679	4106
2109.735	4215
2111.788	4162
2113.841	4211
2115.894	4199
2117.945	4184
2119.997	4210
2122.049	4244
2124.1	4110
2126.148	4065
2128.197	4190
2130.246	4271
2132.296	4101
2134.342	4210
2136.39	4175
2138.437	4148
2140.483	4223
2142.527	4140
2144.574	4146
2146.619	4146
2148.661	4121
2150.705	4139
2152.747	4200
2154.792	4163
2156.832	4166
2158.874	4073
2160.915	4134
2162.954	4227
2164.995	4183
2167.034	4143
2169.072	4187
2171.111	4052
2173.148	4082
2175.186	4183
2177.223	4097
2179.258	3990
2181.294	4196
2183.328	4049
2185.362	4121
2187.398	4042
2189.431	4105
2191.463	4107
2193.495	4067
2195.528	4065
2197.56	4121
2199.59	4109
2201.62	4081
2203.649	4081
2205.678	4080
2207.708	4089
2209.737	4061
2211.764	4083
2213.791	4022
2215.817	4053
2217.843	4037
2219.87	4055
2221.895	4062
2223.919	4044
2225.942	4044
2227.966	4000
2229.988	4012
2232.012	4029
2234.032	4043
2236.054	4090
2238.074	4120
2240.095	4038
2242.116	4058
2244.135	4033
2246.153	4091
2248.171	4027
2250.188	4109
2252.208	4048
2254.223	3959
2256.239	4126
2258.255	4072
2260.269	4144
2262.283	4051
2264.3	4073
2266.312	4063
2268.325	4115
2270.336	4027
2272.349	4038
2274.362	4086
2276.372	4033
2278.383	4036
2280.392	4053
2282.402	4161
2284.409	4057
2286.418	4055
2288.427	4138
2290.433	4008
2292.441	4133
2294.446	4077
2296.453	4042
2298.459	4122
2300.463	4074
2302.466	4058
2304.471	4044
2306.475	3982
2308.477	4046
2310.478	4055
2312.481	4108
2314.481	4034
2316.481	4069
2318.482	4030
2320.482	4116
2322.48	4042
2324.48	3990
2326.478	3930
2328.476	4052
2330.473	4012
2332.469	3978
2334.465	4038
2336.46	4105
2338.454	4055
2340.45	4105
2342.444	4041
2344.437	3993
2346.43	3985
2348.421	4020
2350.414	4045
2352.405	4020
2354.396	3981
2356.386	3912
2358.376	3992
2360.366	3953
2362.355	4012
2364.343	4019
2366.331	4043
2368.317	3982
2370.304	3973
2372.292	3960
2374.278	4017
2376.262	4014
2378.247	4054
2380.23	3917
2382.216	3978
2384.199	3961
2386.181	4032
2388.163	3899
2390.144	3940
2392.127	4041
2394.107	3901
2396.087	3996
2398.066	3951
2400.046	3939
2402.023	3931
2404.004	3949
2405.981	4009
2407.957	3939
2409.934	3903
2411.91	3958
2413.886	3936
2415.862	3914
2417.836	3938
2419.809	3990
2421.784	3983
2423.756	3965
2425.73	3949
2427.701	3872
2429.672	4054
2431.644	3930
2433.615	4018
2435.586	3903
2437.555	3913
2439.523	3947
2441.491	4022
2443.459	3991
2445.428	3972
2447.395	3929
2449.361	3908
2451.327	3949
2453.292	3952
2455.257	3850
2457.223	3978
2459.187	3929
2461.15	3888
2463.113	3933
2465.076	3924
2467.039	3847
2468.999	3997
2470.96	3905
2472.921	3952
2474.881	4025
2476.841	3865
2478.8	3932
2480.759	3825
2482.717	3978
2484.675	3932
2486.63	3913
2488.589	3792
2490.545	3865
2492.5	3939
2494.455	3859
2496.408	3935
2498.364	3911
2500.318	3892
2502.27	3857
2504.223	3882
2506.174	3904
2508.126	3943
2510.078	3793
2512.03	3812
2513.979	3891
2515.927	3909
2517.877	3937
2519.826	3834
2521.775	3974
2523.722	3853
2525.668	3829
2527.616	3931
2529.561	3857
2531.508	3815
2533.452	3945
2535.398	3890
2537.342	3863
2539.284	3803
2541.229	3967
2543.173	3913
2545.114	3888
2547.055	3911
2548.996	3846
2550.938	3915
2552.878	3851
2554.817	3839
2556.756	3828
2558.695	3902
2560.633	3855
2562.572	3902
2564.509	3893
2566.445	3814
2568.382	3903
2570.317	3956
2572.254	3849
2574.189	3869
2576.123	3828
2578.057	3846
2579.99	3902
2581.923	3854
2583.855	3913
2585.788	3932
2587.719	3829
2589.65	3902
2591.579	3841
2593.511	4000
2595.44	3868
2597.37	3910
2599.297	4011
2601.225	3931
2603.153	3852
2605.08	3846
2607.007	3890
2608.932	3876
2610.858	3947
2612.782	3905
2614.709	3917
2616.632	3899
2618.556	3943
2620.478	3878
2622.401	3814
2624.324	3989
2626.247	3938
2628.167	4001
2630.088	3894
2632.008	3865
2633.928	3917
2635.848	3914
2637.766	3932
2639.684	3913
2641.603	3929
2643.519	3857
2645.437	3939
2647.353	3867
2649.27	3825
2651.184	3943
2653.099	3838
2655.014	3845
2656.928	3900
2658.842	3889
2660.755	3902
2662.667	3855
2664.579	3809
2666.491	3907
2668.402	3837
2670.312	3876
2672.222	3848
2674.132	3937
2676.042	3946
2677.951	3853
2679.859	3894
2681.766	3951
2683.674	3878
2685.582	3851
2687.488	3821
2689.392	3830
2691.298	3894
2693.202	3910
2695.107	3857
2697.012	3845
2698.914	3889
2700.817	3888
2702.72	3919
2704.622	3799
2706.524	3870
2708.425	3768
2710.326	3835
2712.225	3808
2714.125	3800
2716.024	3914
2717.923	3753
2719.822	3864
2721.719	3887
2723.616	3782
2725.512	3762
2727.41	3794
2729.305	3859
2731.201	3830
2733.095	3853
2734.99	3876
2736.884	3806
2738.778	3792
2740.67	3858
2742.562	3776
2744.455	3768
2746.346	3829
2748.238	3884
2750.129	3906
2752.018	3813
2753.907	3811
2755.797	3830
2757.687	3832
2759.575	3805
2761.462	3893
2763.349	3842
2765.237	3829
2767.124	3802
2769.009	3852
2770.894	3788
2772.779	3764
2774.663	3811
2776.547	3918
2778.431	3813
2780.314	3820
2782.197	3851
2784.078	3796
2785.96	3869
2787.842	3793
2789.723	3809
2791.603	3844
2793.483	3825
2795.362	3741
2797.241	3808
2799.121	3816
2800.997	3780
2802.874	3812
2804.751	3779
2806.628	3842
2808.506	3840
2810.38	3810
2812.255	3786
2814.13	3765
2816.003	3820
2817.878	3798
2819.752	3756
2821.623	3800
2823.496	3793
2825.368	3870
2827.238	3808
2829.111	3859
2830.98	3818
2832.851	3798
2834.719	3729
2836.589	3824
2838.458	3847
2840.327	3836
2842.193	3809
2844.061	3770
2845.927	3813
2847.794	3762
2849.66	3937
2851.525	3858
2853.39	3926
2855.254	3821
2857.117	3779
2858.983	3833
2860.845	3893
2862.707	4048
2864.569	3985
2866.431	3981
2868.293	3888
2870.154	4094
2872.013	4099
2873.873	4028
2875.733	4163
2877.592	4042
2879.451	4169
2881.309	4138
2883.166	4214
2885.022	4302
2886.879	4260
2888.736	4253
2890.591	4322
2892.446	4290
2894.301	4222
2896.155	4273
2898.009	4273
2899.863	4281
2901.716	4256
2903.568	4321
2905.419	4358
2907.27	4256
2909.123	4325
2910.973	4331
2912.824	4359
2914.673	4359
2916.521	4395
2918.372	4430
2920.22	4518
2922.067	4513
2923.914	4477
2925.761	4570
2927.607	4523
2929.455	4650
2931.301	4758
2933.144	4717
2934.99	4711
2936.833	4615
2938.678	4796
2940.522	4835
2942.364	4870
2944.207	4947
2946.048	4961
2947.891	5024
2949.731	5028
2951.571	4970
2953.412	5010
2955.25	4951
2957.09	4859
2958.93	4888
2960.767	4819
2962.606	4737
2964.443	4688
2966.279	4673
2968.116	4688
2969.953	4545
2971.788	4521
2973.623	4391
2975.457	4437
2977.292	4483
2979.127	4417
2980.959	4443
2982.792	4306
2984.624	4223
2986.455	4339
2988.288	4313
2990.119	4280
2991.949	4219
2993.779	4159
2995.608	4165
2997.439	4109
2999.268	4146
3001.096	4031
3002.923	4083
3004.751	3960
3006.578	3940
3008.406	4003
3010.232	3923
3012.057	3900
3013.883	3811
3015.706	3851
3017.532	3721
3019.356	3798
3021.179	3797
3023.002	3854
3024.823	3815
3026.646	3752
3028.469	3699
3030.289	3805
3032.11	3706
3033.93	3694
3035.749	3703
3037.57	3598
3039.39	3594
3041.207	3718
3043.026	3633
3044.842	3684
3046.661	3717
3048.477	3620
3050.294	3716
3052.109	3690
3053.925	3599
3055.739	3637
3057.555	3673
3059.368	3689
3061.181	3666
3062.995	3617
3064.807	3661
3066.62	3740
3068.433	3610
3070.243	3640
3072.054	3634
3073.865	3701
3075.675	3657
3077.485	3642
3079.293	3513
3081.102	3644
3082.911	3634
3084.719	3581
3086.527	3637
3088.333	3585
3090.139	3592
3091.945	3608
3093.75	3593
3095.557	3573
3097.361	3600
3099.165	3651
3100.969	3645
3102.772	3512
3104.575	3474
3106.379	3615
3108.181	3573
3109.982	3513
3111.783	3489
3113.584	3587
3115.386	3521
3117.186	3551
3118.985	3477
3120.783	3561
3122.582	3551
3124.381	3488
3126.179	3523
3127.975	3543
3129.772	3523
3131.569	3553
3133.365	3573
3135.161	3557
3136.956	3473
3138.751	3480
3140.544	3476
3142.338	3531
3144.132	3456
3145.925	3490
3147.717	3558
3149.509	3408
3151.301	3568
3153.091	3391
3154.884	3488
3156.673	3487
3158.462	3474
3160.252	3565
3162.041	3428
3163.831	3428
3165.618	3442
3167.405	3468
3169.193	3516
3170.979	3487
3172.767	3450
3174.553	3530
3176.338	3392
3178.123	3419
3179.907	3430
3181.692	3519
3183.477	3510
3185.259	3470
3187.042	3431
3188.824	3459
3190.607	3496
3192.389	3499
3194.17	3396
3195.951	3505
3197.73	3460
3199.51	3464
3201.289	3447
3203.07	3490
3204.848	3476
3206.626	3468
3208.403	3534
3210.18	3378
3211.959	3452
3213.735	3426
3215.511	3500
3217.285	3444
3219.06	3463
3220.836	3393
3222.611	3483
3224.384	3525
3226.158	3508
3227.929	3433
3229.702	3409
3231.476	3436
3233.248	3463
3235.018	3472
3236.789	3404
3238.56	3469
3240.33	3421
3242.1	3409
3243.869	3529
3245.637	3500
3247.405	3491
3249.172	3426
3250.941	3505
3252.707	3452
3254.474	3451
3256.24	3447
3258.006	3428
3259.772	3555
3261.537	3381
3263.301	3454
3265.065	3527
3266.828	3455
3268.592	3405
3270.355	3513
3272.117	3373
3273.878	3484
3275.64	3457
3277.401	3488
3279.162	3482
3280.922	3399
3282.682	3472
3284.441	3396
3286.199	3452
3287.959	3469
3289.716	3461
3291.475	3476
3293.232	3487
3294.988	3487
3296.744	3497
3298.501	3474
3300.256	3468
3302.011	3393
3303.766	3418
3305.52	3421
3307.275	3481
3309.028	3400
3310.781	3453
3312.533	3451
3314.285	3495
3316.038	3514
3317.789	3445
3319.54	3455
3321.289	3427
3323.039	3417
3324.789	3441
3326.539	3475
3328.288	3476
3330.035	3420
3331.783	3472
3333.531	3503
3335.28	3392
3337.025	3426
3338.771	3472
3340.518	3472
3342.262	3388
3344.009	3453
3345.753	3419
3347.497	3433
3349.24	3330
3350.983	3444
3352.726	3416
3354.469	3380
3356.212	3352
3357.952	3395
3359.694	3353
3361.434	3430
3363.176	3392
3364.916	3372
3366.654	3394
3368.394	3387
3370.132	3384
3371.871	3328
3373.61	3323
3375.346	3416
3377.083	3355
3378.82	3391
3380.556	3366
3382.292	3391
3384.027	3296
3385.763	3315
3387.497	3387
3389.231	3325
3390.965	3337
3392.698	3239
3394.431	3344
3396.164	3351
3397.896	3408
3399.627	3259
3401.36	3404
3403.09	3330
3404.82	3350
3406.55	3274
3408.279	3315
3410.01	3312
3411.738	3335
3413.467	3309
3415.194	3303
3416.92	3287
3418.647	3270
3420.375	3297
3422.102	3256
3423.827	3403
3425.553	3327
3427.277	3321
3429.003	3305
3430.727	3366
3432.451	3244
3434.173	3223
3435.896	3267
3437.62	3202
3439.343	3186
3441.063	3295
3442.785	3332
3444.505	3216
3446.226	3266
3447.948	3204
3449.666	3261
3451.386	3219
3453.104	3233
3454.823	3209
3456.541	3206
3458.259	3193
3459.976	3206
3461.693	3163
3463.408	3237
3465.125	3238
3466.841	3173
3468.556	3155
3470.271	3257
3471.985	3193
3473.698	3170
3475.414	3121
3477.126	3082
3478.838	3189
3480.55	3130
3482.263	3122
3483.975	3110
3485.686	3187
3487.396	3075
3489.106	3115
3490.817	3103
3492.526	3135
3494.236	3111
3495.944	3196
3497.652	3139
3499.359	3125
3501.066	3089
3502.775	3085
3504.481	3098
3506.187	3079
3507.893	3104
3509.598	3072
3511.304	3149
3513.009	3025
3514.713	3117
3516.417	3023
3518.12	3060
3519.821	3110
3521.525	3085
3523.228	2994
3524.929	3055
3526.631	3097
3528.33	3062
3530.032	3043
3531.733	3019
3533.433	3025
3535.131	3053
3536.83	2980
3538.529	3037
3540.227	3050
3541.925	3095
3543.623	3042
3545.319	2982
3547.016	3019
3548.712	2992
3550.408	3049
3552.103	2975
3553.798	2993
3555.491	2905
3557.188	2961
3558.88	2953
3560.574	2979
3562.266	2960
3563.959	2911
3565.651	2944
3567.343	2954
3569.035	2994
3570.725	3021
3572.415	2922
3574.106	2967
3575.797	3000
3577.485	2921
3579.174	2948
3580.863	2985
3582.551	2966
3584.238	3006
3585.926	2928
3587.613	3037
3589.3	2926
3590.986	2990
3592.671	2862
3594.357	2847
3596.042	2866
3597.726	2833
3599.41	2922
3601.094	2883
3602.778	2868
3604.461	2864
3606.143	2825
3607.825	2804
3609.507	2869
3611.188	2784
3612.87	2836
3614.551	2799
3616.229	2790
3617.909	2829
3619.589	2840
3621.269	2888
3622.948	2772
3624.625	2921
3626.302	2835
3627.98	2815
3629.657	2809
3631.334	2857
3633.01	2789
3634.686	2788
3636.361	2755
3638.036	2784
3639.712	2783
3641.385	2778
3643.06	2824
3644.732	2803
3646.405	2806
3648.08	2787
3649.751	2728
3651.424	2756
3653.094	2803
3654.766	2754
3656.436	2738
3658.106	2731
3659.777	2735
3661.446	2719
3663.115	2710
3664.783	2787
3666.452	2773
3668.121	2711
3669.788	2656
3671.454	2752
3673.121	2732
3674.789	2704
3676.455	2754
3678.12	2719
3679.784	2707
3681.45	2702
3683.114	2741
3684.779	2739
3686.442	2764
3688.105	2652
3689.768	2712
3691.43	2692
3693.093	2643
3694.754	2651
3696.415	2686
3698.076	2693
3699.736	2628
3701.396	2654
3703.057	2615
3704.716	2727
3706.375	2668
3708.034	2688
3709.692	2657
3711.351	2671
3713.008	2698
3714.665	2653
3716.321	2601
3717.977	2723
3719.634	2686
3721.29	2654
3722.945	2580
3724.598	2629
3726.253	2639
3727.907	2638
3729.561	2661
3731.214	2653
3732.867	2676
3734.518	2623
3736.171	2703
3737.824	2608
3739.474	2681
3741.125	2586
3742.775	2682
3744.425	2572
3746.074	2613
3747.725	2521
3749.373	2563
3751.022	2638
3752.669	2646
3754.318	2636
3755.966	2595
3757.612	2610
3759.259	2614
3760.905	2548
3762.55	2650
3764.197	2647
3765.842	2628
3767.486	2531
3769.131	2606
3770.774	2596
3772.417	2533
3774.061	2592
3775.705	2598
3777.347	2546
3778.988	2574
3780.629	2586
3782.271	2562
3783.912	2579
3785.552	2608
3787.192	2517
3788.831	2576
3790.472	2574
3792.112	2539
3793.75	2558
3795.388	2576
3797.024	2622
3798.661	2520
3800.3	2550
3801.936	2528
3803.572	2511
3805.208	2611
3806.844	2550
3808.48	2575
3810.115	2478
3811.748	2500
3813.382	2476
3815.016	2505
3816.649	2534
3818.283	2490
3819.914	2495
3821.547	2537
3823.178	2536
3824.809	2454
3826.441	2487
3828.072	2498
3829.701	2509
3831.331	2500
3832.96	2529
3834.591	2503
3836.219	2483
3837.847	2487
3839.475	2527
3841.102	2549
3842.729	2481
3844.357	2521
3845.984	2513
3847.609	2488
3849.234	2479
3850.86	2497
3852.485	2491
3854.11	2438
3855.734	2501
3857.357	2487
3858.981	2454
3860.603	2462
3862.227	2455
3863.848	2472
3865.471	2449
3867.092	2511
3868.713	2469
3870.334	2492
3871.954	2392
3873.575	2437
3875.194	2524
3876.813	2476
3878.433	2412
3880.051	2459
3881.669	2405
3883.286	2443
3884.904	2409
3886.52	2380
3888.138	2401
3889.754	2462
3891.37	2451
3892.985	2441
3894.6	2462
3896.216	2397
3897.831	2432
3899.444	2466
3901.058	2402
3902.67	2499
3904.283	2400
3905.897	2469
3907.509	2380
3909.121	2408
3910.731	2472
3912.342	2458
3913.954	2467
3915.563	2403
3917.174	2353
3918.783	2378
3920.391	2442
3922.002	2476
3923.611	2421
3925.218	2361
3926.826	2381
3928.432	2442
3930.039	2385
3931.647	2402
3933.253	2455
3934.859	2393
3936.464	2417
3938.068	2380
3939.675	2356
3941.278	2326
3942.883	2394
3944.486	2333
3946.089	2453
3947.692	2386
3949.295	2353
3950.898	2398
3952.499	2386
3954.1	2370
3955.7	2355
3957.303	2345
3958.903	2362
3960.502	2341
3962.101	2397
3963.7	2371
3965.301	2385
3966.899	2427
3968.497	2403
3970.094	2368
3971.691	2291
3973.288	2347
3974.885	2328
3976.481	2335
3978.077	2341
3979.672	2398
3981.267	2340
3982.863	2341
3984.457	2328
3986.051	2311
3987.645	2356
3989.238	2315
3990.831	2277
3992.425	2325
3994.017	2298
3995.607	2305
3997.199	2258
3998.79	2365
4000.382	2287
4001.973	2256
4003.561	2279
4005.151	2299
4006.741	2233
4008.331	2280
4009.918	2304
4011.507	2296
4013.095	2275
4014.681	2257
4016.269	2314
4017.856	2242
4019.443	2233
4021.028	2282
4022.614	2311
4024.199	2264
4025.785	2268
4027.37	2311
4028.953	2285
4030.536	2201
4032.12	2263
4033.704	2230
4035.287	2246
4036.869	2253
4038.45	2225
4040.032	2203
4041.613	2201
4043.195	2200
4044.776	2185
4046.356	2217
4047.935	2202
4049.515	2246
4051.095	2284
4052.674	2225
4054.251	2211
4055.829	2249
4057.406	2197
4058.985	2208
4060.562	2233
4062.139	2203
4063.715	2198
4065.29	2244
4066.865	2256
4068.442	2243
4070.016	2215
4071.59	2198
4073.164	2144
4074.738	2236
4076.312	2230
4077.885	2232
4079.458	2137
4081.03	2202
4082.602	2201
4084.173	2149
4085.745	2181
4087.315	2197
4088.886	2177
4090.456	2160
4092.026	2234
4093.596	2205
4095.165	2194
4096.734	2106
4098.301	2188
4099.869	2239
4101.437	2181
4103.006	2154
4104.572	2170
4106.139	2129
4107.704	2191
4109.27	2086
4110.837	2170
4112.401	2157
4113.966	2162
4115.53	2146
4117.094	2109
4118.659	2154
4120.223	2250
4121.785	2142
4123.347	2143
4124.909	2107
4126.471	2199
4128.034	2124
4129.595	2103
4131.155	2138
4132.716	2098
4134.275	2167
4135.836	2196
4137.395	2136
4138.955	2114
4140.513	2116
4142.071	2113
4143.628	2138
4145.188	2093
4146.745	2067
4148.302	2100
4149.858	2136
4151.414	2118
4152.971	2108
4154.526	2097
4156.081	2074
4157.635	2071
4159.189	2115
4160.745	2038
4162.298	2099
4163.852	2069
4165.405	2069
4166.957	2065
4168.51	2033
4170.063	2107
4171.614	2069
4173.166	2053
4174.717	2068
4176.267	1996
4177.817	2052
4179.368	2068
4180.917	2043
4182.466	2049
4184.016	2016
4185.564	2047
4187.112	2010
4188.66	2052
4190.207	2075
4191.754	2067
4193.301	2043
4194.848	2043
4196.394	2055
4197.94	2055
4199.484	2053
4201.03	2021
4202.575	2038
4204.12	2003
4205.663	2009
4207.207	1993
4208.75	2068
4210.292	2000
4211.836	2049
4213.378	2028
4214.92	2045
4216.46	2053
4218.002	2007
4219.544	2006
4221.083	1978
4222.625	2034
4224.164	2031
4225.703	2004
4227.244	1968
4228.782	1991
4230.32	2013
4231.857	1942
4233.395	2022
4234.933	2029
4236.471	2077
4238.007	1990
4239.542	1995
4241.078	1988
4242.614	2036
4244.15	2029
4245.685	1967
4247.219	2016
4248.753	1988
4250.287	1998
4251.82	1961
4253.354	1971
4254.887	2003
4256.419	1973
4257.951	1986
4259.483	1973
4261.016	2009
4262.547	1995
4264.078	1982
4265.608	1963
4267.137	1983
4268.668	2015
4270.197	1951
4271.727	1979
4273.254	2002
4274.783	2003
4276.311	1923
4277.84	1989
4279.366	1954
4280.894	1955
4282.42	1944
4283.946	1979
4285.473	1962
4286.998	1956
4288.523	1981
4290.047	1949
4291.572	1964
4293.096	1944
4294.622	1933
4296.144	1864
4297.668	1898
4299.19	1947
4300.713	1904
4302.236	1912
4303.758	1924
4305.279	1926
4306.799	1923
4308.321	1963
4309.842	1913
4311.361	1958
4312.882	1860
4314.401	1993
