400.0961	2287
402.6185	2270
405.1424	2203
407.6635	2209
410.1838	2265
412.7035	2248
415.2225	2281
417.7388	2272
420.2585	2280
422.7754	2348
425.2917	2446
427.8072	2312
430.3221	2419
432.8363	2462
435.3498	2350
437.8626	2411
440.3727	2436
442.8841	2444
445.3969	2401
447.907	2506
450.4142	2396
452.9229	2486
455.4289	2427
457.9362	2390
460.4449	2379
462.9488	2428
465.454	2360
467.9566	2371
470.4604	2326
472.9637	2378
475.4662	2378
477.966	2364
480.4671	2387
482.9656	2348
485.4633	2412
487.9645	2333
490.4608	2328
492.9566	2326
495.4536	2408
497.948	2377
500.4437	2396
502.9387	2371
505.431	2416
507.9226	2336
510.4136	2362
512.9079	2410
515.3975	2418
517.8864	2421
520.3746	2415
522.8622	2439
525.3491	2437
527.8394	2391
530.3249	2381
532.8098	2421
535.2939	2444
537.7774	2446
540.2623	2419
542.7444	2429
545.2259	2397
547.7067	2422
550.1868	2413
552.6683	2440
555.147	2461
557.6231	2405
560.1005	2447
562.5773	2494
565.0534	2502
567.5308	2425
570.0056	2483
572.4776	2513
574.951	2467
577.4237	2464
579.8978	2575
582.3671	2495
584.8378	2482
587.3079	2530
589.7773	2602
592.244	2557
594.714	2504
597.1793	2513
599.6461	2560
602.1121	2506
604.5754	2460
607.0421	2456
609.5042	2560
611.9675	2574
614.4282	2520
616.8902	2441
619.3515	2564
621.8122	2460
624.2702	2480
626.7296	2529
629.1863	2502
631.6423	2469
634.1017	2408
636.5563	2440
639.0104	2505
641.4658	2477
643.9185	2521
646.3725	2427
648.8239	2501
651.2766	2539
653.7266	2468
656.176	2521
658.6247	2518
661.0748	2527
663.5242	2583
665.9709	2473
668.417	2506
670.8624	2507
673.3092	2525
675.7533	2562
678.1968	2531
680.6395	2533
683.0817	2531
685.5251	2522
687.9659	2552
690.4061	2638
692.8456	2515
695.2844	2541
697.7226	2656
700.1621	2592
702.599	2614
705.0332	2549
707.4688	2585
709.9036	2542
712.3399	2634
714.7735	2599
717.2044	2581
719.6367	2637
722.0683	2561
724.4993	2563
726.9296	2588
729.3593	2573
731.7883	2663
734.2147	2647
736.6423	2564
739.0714	2608
741.4958	2626
743.9216	2683
746.3447	2681
748.7691	2733
751.1929	2722
753.616	2695
756.0366	2721
758.4584	2766
760.8776	2672
763.2982	2759
765.718	2720
768.1373	2736
770.5539	2738
772.9698	2729
775.3871	2733
777.8038	2724
780.2178	2674
782.6332	2740
785.0459	2705
787.458	2766
789.8714	2723
792.2842	2680
794.6943	2718
797.1038	2741
799.5127	2699
801.9209	2732
804.3324	2700
806.7393	2782
809.1456	2719
811.5513	2769
813.9562	2706
816.3625	2790
818.7663	2768
821.1693	2825
823.5718	2697
825.9735	2775
828.3746	2782
830.7771	2734
833.177	2821
835.5762	2762
837.9747	2849
840.3727	2861
842.772	2782
845.1666	2781
847.5626	2889
849.958	2830
852.3527	2921
854.7488	2846
857.1403	2834
859.5331	2859
861.9253	2933
864.3168	2843
866.7057	2815
869.098	2764
871.4876	2830
873.8746	2866
876.263	2829
878.6487	2891
881.0378	2880
883.4243	2859
885.8081	2853
888.1933	2909
890.5759	2768
892.9598	2690
895.343	2839
897.7256	2836
900.1057	2761
902.4871	2830
904.8659	2832
907.246	2913
909.6254	2884
912.0023	2915
914.3786	2875
916.7562	2899
919.1331	3024
921.5074	3047
923.8831	3059
926.2562	3093
928.6287	3001
931.0005	3000
933.3757	3018
935.7462	3006
938.1162	3036
940.4855	3099
942.8542	3089
945.2242	3155
947.5916	3170
949.9584	3304
952.3266	3489
954.6921	3604
957.0571	3714
959.4233	3837
961.787	3836
964.15	3971
966.5125	3807
968.8742	3475
971.2354	3441
973.5959	3302
975.9559	3176
978.3151	3056
980.6738	3061
983.0338	2941
985.3912	2969
987.7461	2910
990.1022	2912
992.4578	2945
994.8127	2953
997.1689	2935
999.5207	2912
1001.874	3027
1004.226	2974
1006.576	2957
1008.929	2951
1011.28	2991
1013.628	2952
1015.977	2985
1018.324	2997
1020.674	2997
1023.019	2977
1025.366	2963
1027.713	2992
1030.056	2989
1032.399	3009
1034.746	2968
1037.087	3065
1039.431	2984
1041.771	3077
1044.113	3014
1046.454	3049
1048.793	2958
1051.133	3002
1053.471	3028
1055.807	3029
1058.146	3036
1060.483	3099
1062.818	2998
1065.153	3093
1067.489	3092
1069.822	3131
1072.156	3025
1074.488	3136
1076.82	3136
1079.15	3118
1081.48	3114
1083.814	3048
1086.143	3054
1088.471	3010
1090.799	3060
1093.126	3020
1095.452	3024
1097.78	3102
1100.105	3008
1102.43	3098
1104.754	2977
1107.077	2978
1109.4	3019
1111.722	2995
1114.044	2966
1116.365	3082
1118.685	3052
1121.005	3039
1123.324	3052
1125.643	3067
1127.961	3014
1130.278	3030
1132.595	3013
1134.911	2982
1137.226	2967
1139.541	2949
1141.854	2991
1144.167	3041
1146.482	3042
1148.793	3056
1151.105	2992
1153.414	2995
1155.725	3002
1158.033	3047
1160.344	2965
1162.651	3006
1164.959	3072
1167.265	3031
1169.572	3066
1171.878	3012
1174.184	3029
1176.488	2966
1178.79	3016
1181.094	2943
1183.396	2983
1185.699	3071
1188.001	2972
1190.301	3049
1192.6	3008
1194.9	3078
1197.2	3055
1199.497	3036
1201.794	3062
1204.09	3011
1206.387	3055
1208.684	3028
1210.978	3111
1213.272	3067
1215.565	2997
1217.858	3088
1220.15	3072
1222.443	3049
1224.734	2969
1227.024	3081
1229.313	3101
1231.602	3125
1233.892	3077
1236.18	3173
1238.467	3205
1240.754	3174
1243.04	3146
1245.325	3272
1247.612	3178
1249.896	3218
1252.178	3230
1254.461	3163
1256.743	3271
1259.027	3165
1261.308	3165
1263.587	3192
1265.867	3186
1268.146	3168
1270.425	3188
1272.703	3177
1274.981	3218
1277.256	3163
1279.532	3137
1281.808	3106
1284.083	3119
1286.358	3105
1288.63	3153
1290.904	3176
1293.175	3105
1295.449	3125
1297.719	3201
1299.99	3094
1302.259	3095
1304.529	3109
1306.798	3122
1309.065	3142
1311.333	3097
1313.599	3051
1315.866	3158
1318.131	3174
1320.396	3139
1322.66	3174
1324.925	3016
1327.187	3180
1329.448	3181
1331.711	3109
1333.974	3158
1336.234	3166
1338.493	3180
1340.752	3101
1343.01	3173
1345.269	3165
1347.526	3133
1349.784	3152
1352.04	3073
1354.295	3047
1356.552	3159
1358.806	3072
1361.059	3078
1363.312	3131
1365.564	3109
1367.818	3089
1370.069	3127
1372.318	3254
1374.568	3082
1376.817	3186
1379.066	3149
1381.316	3168
1383.564	3145
1385.809	3200
1388.056	3227
1390.301	3187
1392.549	3240
1394.793	3231
1397.036	3262
1399.279	3262
1401.522	3263
1403.763	3272
1406.007	3229
1408.248	3281
1410.487	3173
1412.727	3239
1414.965	3221
1417.205	3302
1419.442	3261
1421.68	3202
1423.915	3251
1426.152	3218
1428.388	3280
1430.623	3311
1432.857	3323
1435.091	3254
1437.323	3323
1439.556	3322
1441.789	3275
1444.019	3344
1446.25	3295
1448.48	3310
1450.708	3381
1452.938	3380
1455.167	3310
1457.394	3339
1459.62	3343
1461.846	3417
1464.073	3303
1466.299	3351
1468.523	3320
1470.746	3237
1472.969	3335
1475.191	3237
1477.415	3293
1479.636	3187
1481.858	3218
1484.078	3180
1486.298	3172
1488.518	3059
1490.736	3122
1492.954	3140
1495.169	3016
1497.386	3140
1499.602	3085
1501.819	3130
1504.034	3138
1506.248	3065
1508.462	3165
1510.675	3107
1512.888	3089
1515.1	3115
1517.311	3081
1519.522	3089
1521.732	3049
1523.942	3179
1526.151	3128
1528.36	3214
1530.566	3181
1532.773	3150
1534.98	3088
1537.187	3158
1539.392	3170
1541.596	3148
1543.801	3126
1546.005	3140
1548.208	3173
1550.411	3177
1552.612	3049
1554.814	3235
1557.013	3142
1559.212	3251
1561.414	3190
1563.612	3205
1565.811	3142
1568.007	3157
1570.203	3106
1572.403	3127
1574.598	3215
1576.792	3238
1578.988	3211
1581.181	3166
1583.376	3235
1585.568	3258
1587.761	3203
1589.952	3286
1592.143	3213
1594.333	3172
1596.524	3189
1598.715	3260
1600.903	3273
1603.091	3251
1605.278	3233
1607.466	3262
1609.652	3316
1611.838	3255
1614.023	3320
1616.207	3245
1618.391	3220
1620.576	3334
1622.759	3227
1624.941	3376
1627.123	3242
1629.304	3283
1631.484	3310
1633.664	3276
1635.844	3273
1638.022	3406
1640.201	3270
1642.38	3363
1644.556	3343
1646.732	3357
1648.908	3303
1651.084	3320
1653.257	3384
1655.433	3350
1657.607	3346
1659.779	3445
1661.951	3302
1664.122	3388
1666.295	3369
1668.467	3390
1670.635	3434
1672.805	3307
1674.973	3317
1677.142	3402
1679.31	3373
1681.478	3379
1683.644	3348
1685.81	3364
1687.975	3363
1690.142	3348
1692.305	3345
1694.468	3278
1696.632	3304
1698.794	3298
1700.957	3301
1703.119	3273
1705.279	3270
1707.439	3224
1709.598	3257
1711.758	3229
1713.917	3194
1716.075	3259
1718.231	3249
1720.388	3262
1722.543	3274
1724.702	3287
1726.856	3230
1729.01	3284
1731.164	3231
1733.317	3318
1735.471	3201
1737.623	3193
1739.774	3299
1741.925	3168
1744.075	3237
1746.225	3228
1748.376	3268
1750.524	3250
1752.672	3199
1754.82	3252
1756.965	3277
1759.113	3166
1761.259	3246
1763.405	3255
1765.549	3242
1767.694	3293
1769.836	3154
1771.981	3306
1774.123	3184
1776.264	3276
1778.405	3246
1780.546	3316
1782.687	3259
1784.827	3295
1786.966	3306
1789.103	3218
1791.242	3311
1793.381	3244
1795.517	3290
1797.653	3287
1799.788	3241
1801.923	3282
1804.057	3236
1806.193	3296
1808.326	3250
1810.457	3258
1812.59	3267
1814.721	3261
1816.855	3247
1818.984	3212
1821.113	3197
1823.244	3317
1825.372	3318
1827.499	3279
1829.63	3180
1831.756	3286
1833.882	3258
1836.007	3247
1838.132	3289
1840.26	3233
1842.384	3282
1844.507	3265
1846.63	3243
1848.752	3266
1850.875	3268
1852.996	3290
1855.118	3253
1857.238	3326
1859.358	3251
1861.477	3199
1863.597	3266
1865.715	3220
1867.832	3288
1869.948	3281
1872.064	3184
1874.181	3320
1876.297	3237
1878.411	3265
1880.526	3245
1882.639	3287
1884.752	3265
1886.865	3318
1888.977	3235
1891.089	3278
1893.2	3244
1895.308	3253
1897.42	3302
1899.53	3316
1901.639	3293
1903.745	3260
1905.853	3229
1907.962	3259
1910.067	3306
1912.174	3252
1914.278	3370
1916.383	3263
1918.486	3319
1920.592	3265
1922.694	3346
1924.797	3337
1926.898	3306
1929	3323
1931.102	3256
1933.203	3384
1935.301	3404
1937.401	3345
1939.499	3330
1941.598	3331
1943.697	3244
1945.793	3316
1947.888	3318
1949.985	3249
1952.08	3302
1954.176	3290
1956.269	3286
1958.364	3308
1960.457	3291
1962.549	3391
1964.642	3273
1966.733	3319
1968.823	3378
1970.913	3316
1973.005	3288
1975.093	3248
1977.184	3265
1979.271	3266
1981.359	3325
1983.446	3330
1985.532	3271
1987.619	3371
1989.705	3251
1991.789	3255
1993.874	3282
1995.956	3273
1998.041	3301
2000.123	3259
2002.206	3334
2004.287	3315
2006.368	3234
2008.449	3291
2010.529	3167
2012.609	3320
2014.688	3273
2016.766	3320
2018.843	3306
2020.922	3274
2022.999	3320
2025.074	3311
2027.15	3278
2029.225	3300
2031.299	3253
2033.375	3296
2035.447	3305
2037.52	3305
2039.592	3252
2041.664	3283
2043.736	3288
2045.807	3311
2047.876	3252
2049.947	3254
2052.015	3273
2054.086	3309
2056.153	3243
2058.221	3329
2060.288	3293
2062.353	3365
2064.42	3280
2066.486	3252
2068.55	3214
2070.614	3249
2072.678	3311
2074.741	3294
2076.805	3288
2078.866	3340
2080.929	3304
2082.99	3326
2085.049	3271
2087.109	3298
2089.17	3279
2091.228	3235
2093.286	3336
2095.344	3284
2097.4	3205
2099.46	3315
2101.516	3317
2103.572	3275
2105.626	3263
2107.679	3249
2109.735	3266
2111.788	3243
2113.841	3301
2115.894	3270
2117.945	3309
2119.997	3256
2122.049	3341
2124.1	3309
2126.148	3324
2128.197	3250
2130.246	3330
2132.296	3308
2134.342	3294
2136.39	3256
2138.437	3310
2140.483	3284
2142.527	3288
2144.574	3350
2146.619	3297
2148.661	3326
2150.705	3269
2152.747	3224
2154.792	3306
2156.832	3301
2158.874	3289
2160.915	3279
2162.954	3261
2164.995	3231
2167.034	3268
2169.072	3246
2171.111	3251
2173.148	3256
2175.186	3274
2177.223	3260
2179.258	3255
2181.294	3228
2183.328	3247
2185.362	3219
2187.398	3241
2189.431	3232
2191.463	3168
2193.495	3244
2195.528	3231
2197.56	3225
2199.59	3232
2201.62	3218
2203.649	3225
2205.678	3316
2207.708	3246
2209.737	3178
2211.764	3174
2213.791	3236
2215.817	3266
2217.843	3223
2219.87	3239
2221.895	3241
2223.919	3250
2225.942	3240
2227.966	3208
2229.988	3190
2232.012	3226
2234.032	3261
2236.054	3212
2238.074	3206
2240.095	3211
2242.116	3207
2244.135	3187
2246.153	3245
2248.171	3272
2250.188	3269
2252.208	3225
2254.223	3198
2256.239	3250
2258.255	3290
2260.269	3325
2262.283	3295
2264.3	3192
2266.312	3176
2268.325	3191
2270.336	3296
2272.349	3227
2274.362	3161
2276.372	3281
2278.383	3229
2280.392	3204
2282.402	3239
2284.409	3181
2286.418	3207
2288.427	3229
2290.433	3251
2292.441	3138
2294.446	3261
2296.453	3203
2298.459	3270
2300.463	3136
2302.466	3243
2304.471	3205
2306.475	3229
2308.477	3272
2310.478	3281
2312.481	3231
2314.481	3241
2316.481	3178
2318.482	3203
2320.482	3185
2322.48	3193
2324.48	3218
2326.478	3264
2328.476	3160
2330.473	3197
2332.469	3238
2334.465	3264
2336.46	3229
2338.454	3192
2340.45	3225
2342.444	3222
2344.437	3235
2346.43	3281
2348.421	3221
2350.414	3229
2352.405	3201
2354.396	3097
2356.386	3251
2358.376	3142
2360.366	3145
2362.355	3188
2364.343	3124
2366.331	3149
2368.317	3218
2370.304	3195
2372.292	3131
2374.278	3170
2376.262	3228
2378.247	3179
2380.23	3148
2382.216	3168
2384.199	3145
2386.181	3186
2388.163	3108
2390.144	3151
2392.127	3156
2394.107	3174
2396.087	3155
2398.066	3171
2400.046	3156
2402.023	3129
2404.004	3214
2405.981	3112
2407.957	3207
2409.934	3149
2411.91	3178
2413.886	3183
2415.862	3127
2417.836	3129
2419.809	3254
2421.784	3198
2423.756	3146
2425.73	3091
2427.701	3118
2429.672	3166
2431.644	3146
2433.615	3207
2435.586	3194
2437.555	3122
2439.523	3135
2441.491	3211
2443.459	3120
2445.428	3134
2447.395	3112
2449.361	3157
2451.327	3134
2453.292	3123
2455.257	3077
2457.223	3141
2459.187	3113
2461.15	3106
2463.113	3145
2465.076	3198
2467.039	3176
2468.999	3113
2470.96	3121
2472.921	3154
2474.881	3130
2476.841	3155
2478.8	3140
2480.759	3119
2482.717	3018
2484.675	3128
2486.63	3043
2488.589	3056
2490.545	3179
2492.5	3053
2494.455	3097
2496.408	3039
2498.364	3139
2500.318	3116
2502.27	3042
2504.223	3014
2506.174	3108
2508.126	3168
2510.078	3105
2512.03	3120
2513.979	3120
2515.927	3123
2517.877	3194
2519.826	3113
2521.775	3042
2523.722	3066
2525.668	3114
2527.616	3085
2529.561	3132
2531.508	3023
2533.452	3144
2535.398	3128
2537.342	3067
2539.284	3084
2541.229	3165
2543.173	3155
2545.114	3073
2547.055	3128
2548.996	2988
2550.938	3079
2552.878	3106
2554.817	3085
2556.756	3070
2558.695	3126
2560.633	3122
2562.572	3127
2564.509	3063
2566.445	3129
2568.382	3089
2570.317	3129
2572.254	3161
2574.189	3087
2576.123	3101
2578.057	3036
2579.99	3091
2581.923	3161
2583.855	3098
2585.788	3134
2587.719	3166
2589.65	3117
2591.579	3151
2593.511	3093
2595.44	3075
2597.37	3107
2599.297	3104
2601.225	3149
2603.153	3114
2605.08	3154
2607.007	3110
2608.932	3164
2610.858	3184
2612.782	3123
2614.709	3127
2616.632	3094
2618.556	3207
2620.478	3089
2622.401	3133
2624.324	3056
2626.247	3093
2628.167	3125
2630.088	3152
2632.008	3137
2633.928	3153
2635.848	3193
2637.766	3151
2639.684	3176
2641.603	3111
2643.519	3068
2645.437	3154
2647.353	3138
2649.27	3097
2651.184	3146
2653.099	3049
2655.014	3212
2656.928	3215
2658.842	3159
2660.755	3143
2662.667	3075
2664.579	3064
2666.491	3172
2668.402	3053
2670.312	3097
2672.222	3075
2674.132	3061
2676.042	3125
2677.951	3094
2679.859	3069
2681.766	3110
2683.674	3054
2685.582	3109
2687.488	3081
2689.392	3046
2691.298	3055
2693.202	3081
2695.107	3126
2697.012	3040
2698.914	3112
2700.817	3073
2702.72	3088
2704.622	3096
2706.524	3076
2708.425	3112
2710.326	3085
2712.225	3063
2714.125	3054
2716.024	3106
2717.923	3095
2719.822	3093
2721.719	3047
2723.616	3152
2725.512	3069
2727.41	3119
2729.305	3135
2731.201	3075
2733.095	3119
2734.99	3112
2736.884	3040
2738.778	3014
2740.67	3087
2742.562	3082
2744.455	3072
2746.346	3093
2748.238	3087
2750.129	3131
2752.018	3026
2753.907	3100
2755.797	3044
2757.687	3075
2759.575	3054
2761.462	3126
2763.349	3048
2765.237	3108
2767.124	3128
2769.009	3126
2770.894	3058
2772.779	3057
2774.663	3030
2776.547	3136
2778.431	3067
2780.314	3037
2782.197	3020
2784.078	3131
2785.96	3104
2787.842	3098
2789.723	3079
2791.603	3072
2793.483	3035
2795.362	3100
2797.241	3019
2799.121	3058
2800.997	3007
2802.874	3086
2804.751	3026
2806.628	3070
2808.506	3137
2810.38	3074
2812.255	3121
2814.13	3052
2816.003	3064
2817.878	3086
2819.752	3145
2821.623	3091
2823.496	3080
2825.368	3012
2827.238	3029
2829.111	3100
2830.98	3014
2832.851	3070
2834.719	3056
2836.589	3104
2838.458	3118
2840.327	3082
2842.193	3208
2844.061	3140
2845.927	3105
2847.794	3132
2849.66	3141
2851.525	3194
2853.39	3143
2855.254	3103
2857.117	3134
2858.983	3240
2860.845	3267
2862.707	3260
2864.569	3292
2866.431	3325
2868.293	3353
2870.154	3307
2872.013	3422
2873.873	3348
2875.733	3411
2877.592	3476
2879.451	3484
2881.309	3560
2883.166	3542
2885.022	3645
2886.879	3515
2888.736	3621
2890.591	3612
2892.446	3663
2894.301	3683
2896.155	3664
2898.009	3575
2899.863	3651
2901.716	3567
2903.568	3602
2905.419	3614
2907.27	3535
2909.123	3673
2910.973	3540
2912.824	3679
2914.673	3640
2916.521	3607
2918.372	3718
2920.22	3688
2922.067	3734
2923.914	3786
2925.761	3852
2927.607	3817
2929.455	3873
2931.301	3926
2933.144	3950
2934.99	4053
2936.833	4081
2938.678	4064
2940.522	4114
2942.364	4129
2944.207	4190
2946.048	4146
2947.891	4249
2949.731	4385
2951.571	4273
2953.412	4192
2955.25	4183
2957.09	4160
2958.93	4199
2960.767	4204
2962.606	4205
2964.443	4127
2966.279	4125
2968.116	4046
2969.953	3975
2971.788	3813
2973.623	3738
2975.457	3756
2977.292	3847
2979.127	3670
2980.959	3732
2982.792	3648
2984.624	3617
2986.455	3573
2988.288	3589
2990.119	3509
2991.949	3442
2993.779	3389
2995.608	3529
2997.439	3450
2999.268	3403
3001.096	3396
3002.923	3378
3004.751	3353
3006.578	3179
3008.406	3186
3010.232	3199
3012.057	3152
3013.883	3169
3015.706	3060
3017.532	3139
3019.356	3069
3021.179	3099
3023.002	2995
3024.823	3123
3026.646	3033
3028.469	3044
3030.289	3028
3032.11	3042
3033.93	3042
3035.749	3033
3037.57	3025
3039.39	3059
3041.207	2994
3043.026	2974
3044.842	3053
3046.661	3004
3048.477	2991
3050.294	2998
3052.109	2972
3053.925	3035
3055.739	3060
3057.555	3016
3059.368	2948
3061.181	2975
3062.995	2964
3064.807	3001
3066.62	2944
3068.433	2996
3070.243	3006
3072.054	2885
3073.865	3032
3075.675	2958
3077.485	3015
3079.293	3019
3081.102	2981
3082.911	2947
3084.719	2943
3086.527	2989
3088.333	2869
3090.139	2879
3091.945	2913
3093.75	2969
3095.557	2921
3097.361	2870
3099.165	2929
3100.969	2881
3102.772	2934
3104.575	2882
3106.379	2874
3108.181	2861
3109.982	2914
3111.783	2935
3113.584	2840
3115.386	2858
3117.186	2906
3118.985	2850
3120.783	2848
3122.582	2822
3124.381	2839
3126.179	2879
3127.975	2864
3129.772	2825
3131.569	2869
3133.365	2868
3135.161	2835
3136.956	2850
3138.751	2861
3140.544	2810
3142.338	2849
3144.132	2907
3145.925	2861
3147.717	2840
3149.509	2799
3151.301	2863
3153.091	2819
3154.884	2824
3156.673	2843
3158.462	2798
3160.252	2843
3162.041	2807
3163.831	2823
3165.618	2845
3167.405	2800
3169.193	2846
3170.979	2861
3172.767	2844
3174.553	2822
3176.338	2793
3178.123	2850
3179.907	2774
3181.692	2704
3183.477	2819
3185.259	2828
3187.042	2849
3188.824	2791
3190.607	2858
3192.389	2809
3194.17	2842
3195.951	2897
3197.73	2849
3199.51	2801
3201.289	2789
3203.07	2833
3204.848	2788
3206.626	2796
3208.403	2860
3210.18	2808
3211.959	2881
3213.735	2822
3215.511	2814
3217.285	2872
3219.06	2819
3220.836	2797
3222.611	2851
3224.384	2848
3226.158	2866
3227.929	2824
3229.702	2769
3231.476	2805
3233.248	2835
3235.018	2784
3236.789	2840
3238.56	2842
3240.33	2732
3242.1	2779
3243.869	2836
3245.637	2860
3247.405	2823
3249.172	2910
3250.941	2809
3252.707	2753
3254.474	2780
3256.24	2740
3258.006	2738
3259.772	2904
3261.537	2889
3263.301	2811
3265.065	2815
3266.828	2775
3268.592	2922
3270.355	2836
3272.117	2890
3273.878	2828
3275.64	2837
3277.401	2726
3279.162	2909
3280.922	2817
3282.682	2855
3284.441	2868
3286.199	2834
3287.959	2868
3289.716	2793
3291.475	2861
3293.232	2904
3294.988	2856
3296.744	2854
3298.501	2752
3300.256	2804
3302.011	2893
3303.766	2862
3305.52	2829
3307.275	2733
3309.028	2861
3310.781	2884
3312.533	2810
3314.285	2847
3316.038	2843
3317.789	2885
3319.54	2773
3321.289	2854
3323.039	2866
3324.789	2837
3326.539	2906
3328.288	2815
3330.035	2854
3331.783	2761
3333.531	2783
3335.28	2816
3337.025	2787
3338.771	2781
3340.518	2823
3342.262	2850
3344.009	2804
3345.753	2831
3347.497	2821
3349.24	2863
3350.983	2806
3352.726	2814
3354.469	2815
3356.212	2791
3357.952	2741
3359.694	2768
3361.434	2787
3363.176	2770
3364.916	2843
3366.654	2767
3368.394	2793
3370.132	2810
3371.871	2779
3373.61	2738
3375.346	2739
3377.083	2778
3378.82	2725
3380.556	2728
3382.292	2742
3384.027	2714
3385.763	2719
3387.497	2741
3389.231	2759
3390.965	2738
3392.698	2692
3394.431	2808
3396.164	2672
3397.896	2782
3399.627	2756
3401.36	2742
3403.09	2699
3404.82	2779
3406.55	2717
3408.279	2735
3410.01	2727
3411.738	2716
3413.467	2710
3415.194	2728
3416.92	2732
3418.647	2730
3420.375	2757
3422.102	2716
3423.827	2720
3425.553	2668
3427.277	2707
3429.003	2713
3430.727	2693
3432.451	2675
3434.173	2644
3435.896	2720
3437.62	2701
3439.343	2672
3441.063	2684
3442.785	2657
3444.505	2657
3446.226	2670
3447.948	2632
3449.666	2630
3451.386	2667
3453.104	2731
3454.823	2695
3456.541	2694
3458.259	2580
3459.976	2665
3461.693	2648
3463.408	2644
3465.125	2586
3466.841	2638
3468.556	2670
3470.271	2608
3471.985	2628
3473.698	2546
3475.414	2574
3477.126	2616
3478.838	2554
3480.55	2586
3482.263	2531
3483.975	2538
3485.686	2581
3487.396	2622
3489.106	2564
3490.817	2521
3492.526	2639
3494.236	2545
3495.944	2567
3497.652	2533
3499.359	2555
3501.066	2573
3502.775	2552
3504.481	2525
3506.187	2510
3507.893	2587
3509.598	2475
3511.304	2508
3513.009	2611
3514.713	2545
3516.417	2485
3518.12	2487
3519.821	2455
3521.525	2455
3523.228	2482
3524.929	2488
3526.631	2456
3528.33	2449
3530.032	2479
3531.733	2494
3533.433	2553
3535.131	2474
3536.83	2540
3538.529	2543
3540.227	2440
3541.925	2427
3543.623	2458
3545.319	2459
3547.016	2470
3548.712	2355
3550.408	2518
3552.103	2444
3553.798	2447
3555.491	2386
3557.188	2431
3558.88	2452
3560.574	2408
3562.266	2484
3563.959	2461
3565.651	2451
3567.343	2488
3569.035	2411
3570.725	2436
3572.415	2447
3574.106	2440
3575.797	2411
3577.485	2453
3579.174	2377
3580.863	2408
3582.551	2460
3584.238	2402
3585.926	2403
3587.613	2483
3589.3	2378
3590.986	2443
3592.671	2391
3594.357	2350
3596.042	2385
3597.726	2410
3599.41	2423
3601.094	2406
3602.778	2387
3604.461	2326
3606.143	2327
3607.825	2345
3609.507	2406
3611.188	2346
3612.87	2296
3614.551	2317
3616.229	2340
3617.909	2346
3619.589	2287
3621.269	2364
3622.948	2276
3624.625	2312
3626.302	2327
3627.98	2322
3629.657	2312
3631.334	2255
3633.01	2300
3634.686	2280
3636.361	2283
3638.036	2265
3639.712	2288
3641.385	2265
3643.06	2299
3644.732	2233
3646.405	2274
3648.08	2261
3649.751	2279
3651.424	2271
3653.094	2302
3654.766	2227
3656.436	2271
3658.106	2238
3659.777	2319
3661.446	2253
3663.115	2244
3664.783	2273
3666.452	2250
3668.121	2238
3669.788	2222
3671.454	2225
3673.121	2180
3674.789	2226
3676.455	2240
3678.12	2243
3679.784	2231
3681.45	2222
3683.114	2286
3684.779	2207
3686.442	2233
3688.105	2208
3689.768	2191
3691.43	2172
3693.093	2149
3694.754	2225
3696.415	2159
3698.076	2237
3699.736	2222
3701.396	2210
3703.057	2197
3704.716	2149
3706.375	2173
3708.034	2156
3709.692	2123
3711.351	2168
3713.008	2249
3714.665	2162
3716.321	2165
3717.977	2177
3719.634	2203
3721.29	2200
3722.945	2139
3724.598	2162
3726.253	2193
3727.907	2169
3729.561	2111
3731.214	2217
3732.867	2122
3734.518	2156
3736.171	2156
3737.824	2157
3739.474	2192
3741.125	2111
3742.775	2143
3744.425	2177
3746.074	2166
3747.725	2155
3749.373	2153
3751.022	2109
3752.669	2152
3754.318	2181
3755.966	2124
3757.612	2104
3759.259	2164
3760.905	2145
3762.55	2072
3764.197	2146
3765.842	2135
3767.486	2196
3769.131	2150
3770.774	2123
3772.417	2120
3774.061	2136
3775.705	2105
3777.347	2135
3778.988	2136
3780.629	2145
3782.271	2054
3783.912	2114
3785.552	2135
3787.192	2093
3788.831	2077
3790.472	2110
3792.112	2044
3793.75	2181
3795.388	2165
3797.024	2129
3798.661	2092
3800.3	2109
3801.936	2096
3803.572	2139
3805.208	2130
3806.844	2104
3808.48	2117
3810.115	2067
3811.748	2058
3813.382	2091
3815.016	2056
3816.649	2066
3818.283	2138
3819.914	2088
3821.547	2094
3823.178	2071
3824.809	2083
3826.441	2092
3828.072	2110
3829.701	2072
3831.331	2000
3832.96	2156
3834.591	2017
3836.219	2075
3837.847	2078
3839.475	2079
3841.102	2088
3842.729	2093
3844.357	2075
3845.984	2001
3847.609	2077
3849.234	2042
3850.86	2101
3852.485	1970
3854.11	2038
3855.734	2031
3857.357	2028
3858.981	2056
3860.603	2060
3862.227	2054
3863.848	2062
3865.471	2078
3867.092	2035
3868.713	2023
3870.334	2041
3871.954	2039
3873.575	2067
3875.194	1993
3876.813	2044
3878.433	1983
3880.051	2001
3881.669	2028
3883.286	1996
3884.904	2010
3886.52	1975
3888.138	2027
3889.754	2035
3891.37	2058
3892.985	2016
3894.6	2025
3896.216	2020
3897.831	2029
3899.444	2045
3901.058	1987
3902.67	2018
3904.283	1981
3905.897	2000
3907.509	1961
3909.121	1942
3910.731	1995
3912.342	2048
3913.954	2053
3915.563	1957
3917.174	2021
3918.783	1981
3920.391	1944
3922.002	1967
3923.611	2006
3925.218	2026
3926.826	1972
3928.432	1973
3930.039	1974
3931.647	2006
3933.253	2025
3934.859	1980
3936.464	1937
3938.068	2026
3939.675	2005
3941.278	1979
3942.883	2000
3944.486	1956
3946.089	1971
3947.692	1993
3949.295	1953
3950.898	1989
3952.499	1964
3954.1	1955
3955.7	1944
3957.303	1923
3958.903	1982
3960.502	1977
3962.101	1914
3963.7	1952
3965.301	1903
3966.899	1973
3968.497	1903
3970.094	1868
3971.691	1949
3973.288	1994
3974.885	1967
3976.481	1934
3978.077	1881
3979.672	1960
3981.267	1942
3982.863	1935
3984.457	1968
3986.051	1953
3987.645	1945
3989.238	1918
3990.831	1915
3992.425	1900
3994.017	1919
3995.607	1919
3997.199	1881
3998.79	1884
4000.382	1940
4001.973	1878
4003.561	1868
4005.151	1929
4006.741	1930
4008.331	1888
4009.918	1885
4011.507	1913
4013.095	1923
4014.681	1860
4016.269	1911
4017.856	1882
4019.443	1875
4021.028	1856
4022.614	1873
4024.199	1868
4025.785	1848
4027.37	1829
4028.953	1884
4030.536	1877
4032.12	1906
4033.704	1824
4035.287	1911
4036.869	1889
4038.45	1822
4040.032	1867
4041.613	1810
4043.195	1868
4044.776	1930
4046.356	1838
4047.935	1877
4049.515	1853
4051.095	1850
4052.674	1844
4054.251	1824
4055.829	1816
4057.406	1839
4058.985	1805
4060.562	1850
4062.139	1873
4063.715	1841
4065.29	1804
4066.865	1807
4068.442	1841
4070.016	1851
4071.59	1820
4073.164	1851
4074.738	1813
4076.312	1889
4077.885	1795
4079.458	1824
4081.03	1867
4082.602	1791
4084.173	1803
4085.745	1835
4087.315	1821
4088.886	1845
4090.456	1832
4092.026	1825
4093.596	1778
4095.165	1840
4096.734	1749
4098.301	1814
4099.869	1811
4101.437	1814
4103.006	1833
4104.572	1782
4106.139	1767
4107.704	1778
4109.27	1807
4110.837	1833
4112.401	1795
4113.966	1811
4115.53	1812
4117.094	1789
4118.659	1822
4120.223	1770
4121.785	1817
4123.347	1747
4124.909	1774
4126.471	1755
4128.034	1784
4129.595	1772
4131.155	1777
4132.716	1767
4134.275	1793
4135.836	1784
4137.395	1792
4138.955	1691
4140.513	1790
4142.071	1728
4143.628	1784
4145.188	1781
4146.745	1747
4148.302	1761
4149.858	1743
4151.414	1693
4152.971	1734
4154.526	1791
4156.081	1736
4157.635	1758
4159.189	1728
4160.745	1716
4162.298	1702
4163.852	1717
4165.405	1703
4166.957	1739
4168.51	1698
4170.063	1715
4171.614	1749
4173.166	1749
4174.717	1705
4176.267	1711
4177.817	1685
4179.368	1711
4180.917	1723
4182.466	1718
4184.016	1709
4185.564	1682
4187.112	1719
4188.66	1740
4190.207	1681
4191.754	1727
4193.301	1702
4194.848	1695
4196.394	1678
4197.94	1671
4199.484	1741
4201.03	1685
4202.575	1683
4204.12	1735
4205.663	1732
4207.207	1678
4208.75	1714
4210.292	1718
4211.836	1682
4213.378	1655
4214.92	1715
4216.46	1756
4218.002	1668
4219.544	1677
4221.083	1649
4222.625	1703
4224.164	1695
4225.703	1689
4227.244	1663
4228.782	1645
4230.32	1684
4231.857	1668
4233.395	1662
4234.933	1669
4236.471	1637
4238.007	1724
4239.542	1712
4241.078	1711
4242.614	1679
4244.15	1718
4245.685	1650
4247.219	1697
4248.753	1638
4250.287	1678
4251.82	1707
4253.354	1696
4254.887	1704
4256.419	1652
4257.951	1680
4259.483	1614
4261.016	1637
4262.547	1668
4264.078	1655
4265.608	1636
4267.137	1612
4268.668	1668
4270.197	1621
4271.727	1665
4273.254	1678
4274.783	1621
4276.311	1643
4277.84	1643
4279.366	1655
4280.894	1600
4282.42	1634
4283.946	1625
4285.473	1665
4286.998	1647
4288.523	1598
4290.047	1640
4291.572	1642
4293.096	1632
4294.622	1670
4296.144	1688
4297.668	1624
4299.19	1634
4300.713	1606
4302.236	1660
4303.758	1600
4305.279	1633
4306.799	1632
4308.321	1615
4309.842	1651
4311.361	1637
4312.882	1566
4314.401	1583
