400.0961	3156
402.6185	3177
405.1424	3182
407.6635	3211
410.1838	3199
412.7035	3214
415.2225	3194
417.7388	3182
420.2585	3263
422.7754	3331
425.2917	3316
427.8072	3285
430.3221	3380
432.8363	3454
435.3498	3381
437.8626	3313
440.3727	3419
442.8841	3373
445.3969	3374
447.907	3384
450.4142	3431
452.9229	3365
455.4289	3423
457.9362	3434
460.4449	3376
462.9488	3285
465.454	3368
467.9566	3375
470.4604	3316
472.9637	3345
475.4662	3325
477.966	3376
480.4671	3415
482.9656	3482
485.4633	3332
487.9645	3404
490.4608	3466
492.9566	3391
495.4536	3505
497.948	3442
500.4437	3419
502.9387	3377
505.431	3423
507.9226	3468
510.4136	3430
512.9079	3454
515.3975	3430
517.8864	3465
520.3746	3427
522.8622	3443
525.3491	3449
527.8394	3421
530.3249	3427
532.8098	3522
535.2939	3471
537.7774	3501
540.2623	3493
542.7444	3498
545.2259	3447
547.7067	3607
550.1868	3581
552.6683	3488
555.147	3561
557.6231	3598
560.1005	3486
562.5773	3673
565.0534	3491
567.5308	3526
570.0056	3593
572.4776	3633
574.951	3483
577.4237	3607
579.8978	3608
582.3671	3557
584.8378	3596
587.3079	3658
589.7773	3585
592.244	3653
594.714	3594
597.1793	3687
599.6461	3654
602.1121	3643
604.5754	3579
607.0421	3640
609.5042	3564
611.9675	3534
614.4282	3540
616.8902	3566
619.3515	3633
621.8122	3659
624.2702	3566
626.7296	3554
629.1863	3568
631.6423	3569
634.1017	3571
636.5563	3552
639.0104	3645
641.4658	3540
643.9185	3540
646.3725	3665
648.8239	3640
651.2766	3637
653.7266	3622
656.176	3647
658.6247	3665
661.0748	3721
663.5242	3661
665.9709	3622
668.417	3672
670.8624	3657
673.3092	3701
675.7533	3647
678.1968	3658
680.6395	3663
683.0817	3647
685.5251	3667
687.9659	3654
690.4061	3751
692.8456	3692
695.2844	3765
697.7226	3699
700.1621	3716
702.599	3806
705.0332	3807
707.4688	3770
709.9036	3679
712.3399	3773
714.7735	3743
717.2044	3792
719.6367	3764
722.0683	3838
724.4993	3831
726.9296	3835
729.3593	3840
731.7883	3920
734.2147	3846
736.6423	3796
739.0714	3909
741.4958	3830
743.9216	3812
746.3447	3788
748.7691	3933
751.1929	4028
753.616	3975
756.0366	3899
758.4584	3926
760.8776	3974
763.2982	4076
765.718	4002
768.1373	3966
770.5539	4006
772.9698	4037
775.3871	4006
777.8038	3983
780.2178	4032
782.6332	3965
785.0459	4021
787.458	3929
789.8714	3944
792.2842	3978
794.6943	4013
797.1038	3989
799.5127	4006
801.9209	3921
804.3324	3986
806.7393	3981
809.1456	3946
811.5513	4031
813.9562	4059
816.3625	4095
818.7663	3982
821.1693	4021
823.5718	4075
825.9735	3991
828.3746	3941
830.7771	4073
833.177	3984
835.5762	4063
837.9747	3981
840.3727	4077
842.772	4132
845.1666	4151
847.5626	4089
849.958	4135
852.3527	4145
854.7488	4217
857.1403	4090
859.5331	4113
861.9253	4216
864.3168	4151
866.7057	4145
869.098	4201
871.4876	4157
873.8746	4072
876.263	4059
878.6487	4129
881.0378	4105
883.4243	3987
885.8081	4085
888.1933	4131
890.5759	4075
892.9598	4093
895.343	4076
897.7256	4150
900.1057	4136
902.4871	4071
904.8659	4200
907.246	4085
909.6254	4171
912.0023	4235
914.3786	4300
916.7562	4316
919.1331	4365
921.5074	4393
923.8831	4390
926.2562	4400
928.6287	4427
931.0005	4375
933.3757	4342
935.7462	4326
938.1162	4426
940.4855	4395
942.8542	4443
945.2242	4446
947.5916	4487
949.9584	4537
952.3266	4658
954.6921	4760
957.0571	4958
959.4233	5029
961.787	5054
964.15	5043
966.5125	4964
968.8742	4801
971.2354	4716
973.5959	4546
975.9559	4510
978.3151	4337
980.6738	4433
983.0338	4316
985.3912	4385
987.7461	4287
990.1022	4232
992.4578	4207
994.8127	4259
997.1689	4220
999.5207	4268
1001.874	4327
1004.226	4275
1006.576	4220
1008.929	4340
1011.28	4232
1013.628	4234
1015.977	4233
1018.324	4270
1020.674	4192
1023.019	4284
1025.366	4264
1027.713	4260
1030.056	4242
1032.399	4310
1034.746	4391
1037.087	4327
1039.431	4372
1041.771	4262
1044.113	4274
1046.454	4381
1048.793	4348
1051.133	4369
1053.471	4287
1055.807	4314
1058.146	4432
1060.483	4387
1062.818	4304
1065.153	4428
1067.489	4385
1069.822	4398
1072.156	4508
1074.488	4503
1076.82	4439
1079.15	4409
1081.48	4449
1083.814	4398
1086.143	4270
1088.471	4416
1090.799	4266
1093.126	4411
1095.452	4286
1097.78	4389
1100.105	4344
1102.43	4338
1104.754	4319
1107.077	4394
1109.4	4394
1111.722	4415
1114.044	4307
1116.365	4316
1118.685	4391
1121.005	4356
1123.324	4310
1125.643	4411
1127.961	4472
1130.278	4370
1132.595	4341
1134.911	4436
1137.226	4346
1139.541	4327
1141.854	4305
1144.167	4341
1146.482	4307
1148.793	4476
1151.105	4384
1153.414	4379
1155.725	4382
1158.033	4330
1160.344	4447
1162.651	4315
1164.959	4337
1167.265	4460
1169.572	4383
1171.878	4453
1174.184	4411
1176.488	4466
1178.79	4404
1181.094	4454
1183.396	4430
1185.699	4476
1188.001	4446
1190.301	4435
1192.6	4372
1194.9	4408
1197.2	4408
1199.497	4371
1201.794	4438
1204.09	4486
1206.387	4425
1208.684	4345
1210.978	4398
1213.272	4395
1215.565	4441
1217.858	4429
1220.15	4375
1222.443	4471
1224.734	4461
1227.024	4504
1229.313	4470
1231.602	4412
1233.892	4543
1236.18	4523
1238.467	4517
1240.754	4594
1243.04	4583
1245.325	4585
1247.612	4599
1249.896	4677
1252.178	4678
1254.461	4653
1256.743	4587
1259.027	4611
1261.308	4606
1263.587	4614
1265.867	4654
1268.146	4638
1270.425	4642
1272.703	4640
1274.981	4579
1277.256	4632
1279.532	4637
1281.808	4628
1284.083	4557
1286.358	4606
1288.63	4615
1290.904	4466
1293.175	4553
1295.449	4538
1297.719	4551
1299.99	4551
1302.259	4517
1304.529	4564
1306.798	4512
1309.065	4528
1311.333	4652
1313.599	4509
1315.866	4416
1318.131	4473
1320.396	4619
1322.66	4517
1324.925	4592
1327.187	4497
1329.448	4599
1331.711	4586
1333.974	4652
1336.234	4576
1338.493	4508
1340.752	4617
1343.01	4494
1345.269	4509
1347.526	4579
1349.784	4534
1352.04	4607
1354.295	4494
1356.552	4638
1358.806	4580
1361.059	4529
1363.312	4554
1365.564	4487
1367.818	4571
1370.069	4536
1372.318	4615
1374.568	4563
1376.817	4624
1379.066	4627
1381.316	4592
1383.564	4568
1385.809	4610
1388.056	4720
1390.301	4651
1392.549	4717
1394.793	4809
1397.036	4833
1399.279	4896
1401.522	4797
1403.763	4771
1406.007	4817
1408.248	4810
1410.487	4744
1412.727	4736
1414.965	4789
1417.205	4812
1419.442	4870
1421.68	4714
1423.915	4768
1426.152	4732
1428.388	4684
1430.623	4751
1432.857	4753
1435.091	4854
1437.323	4745
1439.556	4761
1441.789	4790
1444.019	4814
1446.25	4805
1448.48	4801
1450.708	4837
1452.938	4833
1455.167	4883
1457.394	4930
1459.62	4877
1461.846	4860
1464.073	4903
1466.299	4775
1468.523	4787
1470.746	4761
1472.969	4729
1475.191	4709
1477.415	4734
1479.636	4659
1481.858	4580
1484.078	4565
1486.298	4624
1488.518	4625
1490.736	4588
1492.954	4613
1495.169	4528
1497.386	4585
1499.602	4598
1501.819	4594
1504.034	4536
1506.248	4636
1508.462	4562
1510.675	4554
1512.888	4547
1515.1	4509
1517.311	4494
1519.522	4568
1521.732	4533
1523.942	4570
1526.151	4642
1528.36	4487
1530.566	4458
1532.773	4558
1534.98	4540
1537.187	4457
1539.392	4633
1541.596	4576
1543.801	4519
1546.005	4651
1548.208	4613
1550.411	4607
1552.612	4615
1554.814	4724
1557.013	4565
1559.212	4596
1561.414	4696
1563.612	4683
1565.811	4631
1568.007	4642
1570.203	4673
1572.403	4604
1574.598	4782
1576.792	4665
1578.988	4703
1581.181	4720
1583.376	4687
1585.568	4732
1587.761	4725
1589.952	4791
1592.143	4706
1594.333	4661
1596.524	4774
1598.715	4646
1600.903	4770
1603.091	4728
1605.278	4685
1607.466	4717
1609.652	4655
1611.838	4813
1614.023	4749
1616.207	4685
1618.391	4795
1620.576	4690
1622.759	4697
1624.941	4877
1627.123	4690
1629.304	4817
1631.484	4788
1633.664	4826
1635.844	4700
1638.022	4890
1640.201	4791
1642.38	4880
1644.556	4891
1646.732	4819
1648.908	4775
1651.084	4813
1653.257	4894
1655.433	4825
1657.607	4873
1659.779	4908
1661.951	4798
1664.122	4922
1666.295	4783
1668.467	4937
1670.635	4825
1672.805	4921
1674.973	4820
1677.142	4801
1679.31	4884
1681.478	4858
1683.644	4747
1685.81	4871
1687.975	4778
1690.142	4791
1692.305	4727
1694.468	4871
1696.632	4770
1698.794	4784
1700.957	4581
1703.119	4802
1705.279	4740
1707.439	4633
1709.598	4714
1711.758	4665
1713.917	4631
1716.075	4679
1718.231	4773
1720.388	4692
1722.543	4774
1724.702	4652
1726.856	4733
1729.01	4723
1731.164	4696
1733.317	4658
1735.471	4736
1737.623	4729
1739.774	4687
1741.925	4681
1744.075	4718
1746.225	4707
1748.376	4675
1750.524	4791
1752.672	4753
1754.82	4794
1756.965	4725
1759.113	4649
1761.259	4713
1763.405	4738
1765.549	4780
1767.694	4626
1769.836	4690
1771.981	4728
1774.123	4676
1776.264	4742
1778.405	4837
1780.546	4717
1782.687	4705
1784.827	4768
1786.966	4725
1789.103	4839
1791.242	4808
1793.381	4771
1795.517	4800
1797.653	4892
1799.788	4726
1801.923	4792
1804.057	4813
1806.193	4702
1808.326	4752
1810.457	4755
1812.59	4685
1814.721	4800
1816.855	4894
1818.984	4827
1821.113	4771
1823.244	4874
1825.372	4727
1827.499	4799
1829.63	4669
1831.756	4730
1833.882	4822
1836.007	4759
1838.132	4686
1840.26	4647
1842.384	4710
1844.507	4619
1846.63	4712
1848.752	4836
1850.875	4677
1852.996	4692
1855.118	4668
1857.238	4688
1859.358	4743
1861.477	4718
1863.597	4713
1865.715	4774
1867.832	4732
1869.948	4629
1872.064	4589
1874.181	4728
1876.297	4728
1878.411	4714
1880.526	4756
1882.639	4859
1884.752	4733
1886.865	4669
1888.977	4773
1891.089	4648
1893.2	4788
1895.308	4705
1897.42	4739
1899.53	4763
1901.639	4729
1903.745	4740
1905.853	4810
1907.962	4788
1910.067	4751
1912.174	4673
1914.278	4733
1916.383	4864
1918.486	4668
1920.592	4727
1922.694	4780
1924.797	4703
1926.898	4744
1929	4821
1931.102	4857
1933.203	4801
1935.301	4752
1937.401	4758
1939.499	4748
1941.598	4816
1943.697	4675
1945.793	4772
1947.888	4801
1949.985	4824
1952.08	4827
1954.176	4764
1956.269	4646
1958.364	4750
1960.457	4898
1962.549	4831
1964.642	4764
1966.733	4795
1968.823	4863
1970.913	4673
1973.005	4718
1975.093	4819
1977.184	4735
1979.271	4743
1981.359	4819
1983.446	4728
1985.532	4781
1987.619	4771
1989.705	4699
1991.789	4657
1993.874	4806
1995.956	4672
1998.041	4743
2000.123	4703
2002.206	4802
2004.287	4707
2006.368	4759
2008.449	4704
2010.529	4692
2012.609	4698
2014.688	4746
2016.766	4642
2018.843	4838
2020.922	4659
2022.999	4706
2025.074	4764
2027.15	4738
2029.225	4695
2031.299	4789
2033.375	4742
2035.447	4785
2037.52	4809
2039.592	4725
2041.664	4838
2043.736	4800
2045.807	4820
2047.876	4715
2049.947	4794
2052.015	4706
2054.086	4768
2056.153	4657
2058.221	4753
2060.288	4673
2062.353	4644
2064.42	4695
2066.486	4819
2068.55	4847
2070.614	4706
2072.678	4808
2074.741	4776
2076.805	4787
2078.866	4774
2080.929	4842
2082.99	4699
2085.049	4814
2087.109	4755
2089.17	4785
2091.228	4747
2093.286	4730
2095.344	4740
2097.4	4770
2099.46	4729
2101.516	4785
2103.572	4805
2105.626	4770
2107.679	4705
2109.735	4756
2111.788	4676
2113.841	4638
2115.894	4641
2117.945	4826
2119.997	4780
2122.049	4758
2124.1	4814
2126.148	4773
2128.197	4710
2130.246	4618
2132.296	4693
2134.342	4723
2136.39	4747
2138.437	4688
2140.483	4735
2142.527	4708
2144.574	4785
2146.619	4765
2148.661	4808
2150.705	4680
2152.747	4739
2154.792	4840
2156.832	4683
2158.874	4737
2160.915	4712
2162.954	4782
2164.995	4729
2167.034	4732
2169.072	4692
2171.111	4697
2173.148	4757
2175.186	4722
2177.223	4697
2179.258	4628
2181.294	4660
2183.328	4600
2185.362	4700
2187.398	4685
2189.431	4703
2191.463	4691
2193.495	4652
2195.528	4610
2197.56	4701
2199.59	4705
2201.62	4606
2203.649	4655
2205.678	4559
2207.708	4597
2209.737	4675
2211.764	4657
2213.791	4667
2215.817	4592
2217.843	4661
2219.87	4623
2221.895	4713
2223.919	4649
2225.942	4627
2227.966	4605
2229.988	4688
2232.012	4632
2234.032	4708
2236.054	4607
2238.074	4678
2240.095	4675
2242.116	4545
2244.135	4597
2246.153	4644
2248.171	4591
2250.188	4667
2252.208	4532
2254.223	4545
2256.239	4704
2258.255	4607
2260.269	4643
2262.283	4565
2264.3	4655
2266.312	4537
2268.325	4599
2270.336	4566
2272.349	4690
2274.362	4580
2276.372	4620
2278.383	4601
2280.392	4609
2282.402	4736
2284.409	4567
2286.418	4612
2288.427	4583
2290.433	4654
2292.441	4650
2294.446	4594
2296.453	4584
2298.459	4681
2300.463	4610
2302.466	4599
2304.471	4595
2306.475	4753
2308.477	4547
2310.478	4605
2312.481	4578
2314.481	4666
2316.481	4566
2318.482	4615
2320.482	4552
2322.48	4572
2324.48	4578
2326.478	4540
2328.476	4586
2330.473	4616
2332.469	4575
2334.465	4542
2336.46	4541
2338.454	4580
2340.45	4617
2342.444	4533
2344.437	4571
2346.43	4487
2348.421	4497
2350.414	4552
2352.405	4500
2354.396	4588
2356.386	4517
2358.376	4536
2360.366	4615
2362.355	4475
2364.343	4459
2366.331	4543
2368.317	4459
2370.304	4508
2372.292	4502
2374.278	4574
2376.262	4549
2378.247	4521
2380.23	4556
2382.216	4531
2384.199	4550
2386.181	4345
2388.163	4447
2390.144	4486
2392.127	4448
2394.107	4435
2396.087	4561
2398.066	4496
2400.046	4423
2402.023	4407
2404.004	4390
2405.981	4569
2407.957	4430
2409.934	4469
2411.91	4424
2413.886	4536
2415.862	4486
2417.836	4467
2419.809	4452
2421.784	4418
2423.756	4496
2425.73	4367
2427.701	4411
2429.672	4423
2431.644	4404
2433.615	4494
2435.586	4467
2437.555	4453
2439.523	4475
2441.491	4506
2443.459	4471
2445.428	4505
2447.395	4408
2449.361	4352
2451.327	4379
2453.292	4415
2455.257	4446
2457.223	4457
2459.187	4496
2461.15	4386
2463.113	4476
2465.076	4455
2467.039	4382
2468.999	4411
2470.96	4340
2472.921	4445
2474.881	4438
2476.841	4468
2478.8	4412
2480.759	4424
2482.717	4336
2484.675	4446
2486.63	4420
2488.589	4410
2490.545	4352
2492.5	4329
2494.455	4369
2496.408	4302
2498.364	4390
2500.318	4446
2502.27	4410
2504.223	4339
2506.174	4317
2508.126	4308
2510.078	4372
2512.03	4335
2513.979	4259
2515.927	4433
2517.877	4395
2519.826	4384
2521.775	4346
2523.722	4426
2525.668	4407
2527.616	4451
2529.561	4388
2531.508	4358
2533.452	4430
2535.398	4369
2537.342	4377
2539.284	4344
2541.229	4399
2543.173	4390
2545.114	4364
2547.055	4318
2548.996	4356
2550.938	4361
2552.878	4348
2554.817	4363
2556.756	4281
2558.695	4342
2560.633	4341
2562.572	4296
2564.509	4353
2566.445	4292
2568.382	4326
2570.317	4318
2572.254	4385
2574.189	4359
2576.123	4226
2578.057	4352
2579.99	4400
2581.923	4357
2583.855	4328
2585.788	4329
2587.719	4355
2589.65	4409
2591.579	4409
2593.511	4381
2595.44	4326
2597.37	4316
2599.297	4374
2601.225	4327
2603.153	4356
2605.08	4409
2607.007	4428
2608.932	4349
2610.858	4416
2612.782	4377
2614.709	4442
2616.632	4372
2618.556	4334
2620.478	4402
2622.401	4406
2624.324	4341
2626.247	4356
2628.167	4343
2630.088	4422
2632.008	4336
2633.928	4358
2635.848	4436
2637.766	4366
2639.684	4375
2641.603	4406
2643.519	4412
2645.437	4407
2647.353	4474
2649.27	4298
2651.184	4382
2653.099	4382
2655.014	4281
2656.928	4340
2658.842	4350
2660.755	4312
2662.667	4325
2664.579	4345
2666.491	4411
2668.402	4337
2670.312	4326
2672.222	4382
2674.132	4367
2676.042	4351
2677.951	4369
2679.859	4337
2681.766	4306
2683.674	4369
2685.582	4324
2687.488	4316
2689.392	4245
2691.298	4336
2693.202	4278
2695.107	4262
2697.012	4288
2698.914	4303
2700.817	4277
2702.72	4343
2704.622	4314
2706.524	4270
2708.425	4321
2710.326	4325
2712.225	4245
2714.125	4187
2716.024	4278
2717.923	4353
2719.822	4197
2721.719	4293
2723.616	4311
2725.512	4338
2727.41	4296
2729.305	4242
2731.201	4217
2733.095	4297
2734.99	4221
2736.884	4274
2738.778	4313
2740.67	4236
2742.562	4264
2744.455	4312
2746.346	4288
2748.238	4235
2750.129	4352
2752.018	4311
2753.907	4234
2755.797	4261
2757.687	4285
2759.575	4256
2761.462	4296
2763.349	4245
2765.237	4300
2767.124	4252
2769.009	4225
2770.894	4240
2772.779	4217
2774.663	4336
2776.547	4244
2778.431	4216
2780.314	4244
2782.197	4301
2784.078	4219
2785.96	4220
2787.842	4186
2789.723	4243
2791.603	4247
2793.483	4203
2795.362	4140
2797.241	4292
2799.121	4166
2800.997	4237
2802.874	4267
2804.751	4216
2806.628	4125
2808.506	4258
2810.38	4213
2812.255	4186
2814.13	4202
2816.003	4235
2817.878	4292
2819.752	4320
2821.623	4243
2823.496	4188
2825.368	4228
2827.238	4299
2829.111	4321
2830.98	4245
2832.851	4273
2834.719	4259
2836.589	4244
2838.458	4285
2840.327	4167
2842.193	4314
2844.061	4265
2845.927	4297
2847.794	4187
2849.66	4273
2851.525	4297
2853.39	4343
2855.254	4289
2857.117	4285
2858.983	4336
2860.845	4435
2862.707	4358
2864.569	4377
2866.431	4478
2868.293	4344
2870.154	4445
2872.013	4537
2873.873	4552
2875.733	4548
2877.592	4634
2879.451	4666
2881.309	4672
2883.166	4661
2885.022	4782
2886.879	4826
2888.736	4722
2890.591	4755
2892.446	4842
2894.301	4768
2896.155	4896
2898.009	4800
2899.863	4839
2901.716	4657
2903.568	4830
2905.419	4748
2907.27	4700
2909.123	4780
2910.973	4730
2912.824	4897
2914.673	4893
2916.521	4879
2918.372	4836
2920.22	4889
2922.067	4859
2923.914	4964
2925.761	4941
2927.607	4993
2929.455	5134
2931.301	5080
2933.144	5116
2934.99	5098
2936.833	5203
2938.678	5148
2940.522	5272
2942.364	5394
2944.207	5440
2946.048	5520
2947.891	5398
2949.731	5554
2951.571	5461
2953.412	5494
2955.25	5396
2957.09	5359
2958.93	5370
2960.767	5310
2962.606	5225
2964.443	5299
2966.279	5150
2968.116	5100
2969.953	5023
2971.788	4956
2973.623	4970
2975.457	4882
2977.292	4784
2979.127	4839
2980.959	4822
2982.792	4704
2984.624	4786
2986.455	4686
2988.288	4702
2990.119	4679
2991.949	4524
2993.779	4593
2995.608	4578
2997.439	4466
2999.268	4499
3001.096	4500
3002.923	4355
3004.751	4357
3006.578	4399
3008.406	4347
3010.232	4329
3012.057	4233
3013.883	4290
3015.706	4268
3017.532	4232
3019.356	4290
3021.179	4131
3023.002	4242
3024.823	4137
3026.646	4110
3028.469	4091
3030.289	4104
3032.11	4033
3033.93	4130
3035.749	4123
3037.57	3971
3039.39	3967
3041.207	4100
3043.026	4147
3044.842	4015
3046.661	4026
3048.477	4043
3050.294	4097
3052.109	3969
3053.925	3974
3055.739	3998
3057.555	4051
3059.368	3963
3061.181	4095
3062.995	4039
3064.807	4025
3066.62	4040
3068.433	4015
3070.243	3988
3072.054	3990
3073.865	3998
3075.675	4009
3077.485	4024
3079.293	3963
3081.102	3988
3082.911	3876
3084.719	3922
3086.527	3952
3088.333	3974
3090.139	3961
3091.945	3928
3093.75	3944
3095.557	4001
3097.361	3903
3099.165	3946
3100.969	3968
3102.772	3925
3104.575	4005
3106.379	3922
3108.181	3755
3109.982	3915
3111.783	3885
3113.584	3811
3115.386	3871
3117.186	3831
3118.985	3859
3120.783	3857
3122.582	3878
3124.381	3806
3126.179	3872
3127.975	3811
3129.772	3826
3131.569	3834
3133.365	3913
3135.161	3817
3136.956	3856
3138.751	3814
3140.544	3744
3142.338	3829
3144.132	3747
3145.925	3865
3147.717	3733
3149.509	3889
3151.301	3773
3153.091	3743
3154.884	3769
3156.673	3826
3158.462	3791
3160.252	3821
3162.041	3725
3163.831	3761
3165.618	3865
3167.405	3830
3169.193	3745
3170.979	3763
3172.767	3770
3174.553	3859
3176.338	3667
3178.123	3739
3179.907	3713
3181.692	3780
3183.477	3779
3185.259	3766
3187.042	3795
3188.824	3763
3190.607	3828
3192.389	3646
3194.17	3756
3195.951	3701
3197.73	3730
3199.51	3775
3201.289	3742
3203.07	3788
3204.848	3801
3206.626	3708
3208.403	3795
3210.18	3721
3211.959	3681
3213.735	3723
3215.511	3764
3217.285	3744
3219.06	3729
3220.836	3820
3222.611	3762
3224.384	3706
3226.158	3851
3227.929	3743
3229.702	3778
3231.476	3733
3233.248	3727
3235.018	3800
3236.789	3742
3238.56	3781
3240.33	3713
3242.1	3749
3243.869	3868
3245.637	3805
3247.405	3757
3249.172	3845
3250.941	3776
3252.707	3762
3254.474	3735
3256.24	3750
3258.006	3713
3259.772	3702
3261.537	3718
3263.301	3680
3265.065	3666
3266.828	3756
3268.592	3657
3270.355	3777
3272.117	3714
3273.878	3810
3275.64	3768
3277.401	3721
3279.162	3698
3280.922	3681
3282.682	3793
3284.441	3774
3286.199	3837
3287.959	3755
3289.716	3690
3291.475	3722
3293.232	3770
3294.988	3666
3296.744	3697
3298.501	3757
3300.256	3724
3302.011	3683
3303.766	3763
3305.52	3772
3307.275	3653
3309.028	3676
3310.781	3785
3312.533	3739
3314.285	3781
3316.038	3708
3317.789	3739
3319.54	3755
3321.289	3738
3323.039	3724
3324.789	3677
3326.539	3756
3328.288	3701
3330.035	3729
3331.783	3630
3333.531	3722
3335.28	3703
3337.025	3602
3338.771	3640
3340.518	3634
3342.262	3659
3344.009	3669
3345.753	3716
3347.497	3704
3349.24	3615
3350.983	3623
3352.726	3666
3354.469	3693
3356.212	3708
3357.952	3692
3359.694	3676
3361.434	3620
3363.176	3615
3364.916	3616
3366.654	3603
3368.394	3618
3370.132	3605
3371.871	3692
3373.61	3597
3375.346	3616
3377.083	3618
3378.82	3616
3380.556	3536
3382.292	3578
3384.027	3490
3385.763	3644
3387.497	3549
3389.231	3649
3390.965	3513
3392.698	3584
3394.431	3571
3396.164	3650
3397.896	3621
3399.627	3546
3401.36	3504
3403.09	3552
3404.82	3647
3406.55	3577
3408.279	3543
3410.01	3559
3411.738	3505
3413.467	3541
3415.194	3500
3416.92	3538
3418.647	3505
3420.375	3452
3422.102	3541
3423.827	3591
3425.553	3513
3427.277	3527
3429.003	3451
3430.727	3540
3432.451	3504
3434.173	3449
3435.896	3542
3437.62	3540
3439.343	3508
3441.063	3485
3442.785	3401
3444.505	3462
3446.226	3471
3447.948	3479
3449.666	3444
3451.386	3462
3453.104	3448
3454.823	3444
3456.541	3424
3458.259	3458
3459.976	3441
3461.693	3387
3463.408	3435
3465.125	3425
3466.841	3423
3468.556	3394
3470.271	3372
3471.985	3378
3473.698	3404
3475.414	3363
3477.126	3302
3478.838	3319
3480.55	3366
3482.263	3468
3483.975	3406
3485.686	3417
3487.396	3367
3489.106	3380
3490.817	3315
3492.526	3301
3494.236	3336
3495.944	3362
3497.652	3371
3499.359	3339
3501.066	3295
3502.775	3305
3504.481	3239
3506.187	3288
3507.893	3283
3509.598	3334
3511.304	3257
3513.009	3224
3514.713	3335
3516.417	3321
3518.12	3296
3519.821	3223
3521.525	3277
3523.228	3195
3524.929	3384
3526.631	3220
3528.33	3254
3530.032	3228
3531.733	3304
3533.433	3245
3535.131	3274
3536.83	3147
3538.529	3198
3540.227	3228
3541.925	3193
3543.623	3227
3545.319	3236
3547.016	3236
3548.712	3242
3550.408	3225
3552.103	3176
3553.798	3220
3555.491	3204
3557.188	3110
3558.88	3162
3560.574	3154
3562.266	3111
3563.959	3164
3565.651	3127
3567.343	3169
3569.035	3187
3570.725	3162
3572.415	3168
3574.106	3159
3575.797	3153
3577.485	3243
3579.174	3091
3580.863	3170
3582.551	3149
3584.238	3115
3585.926	3102
3587.613	3152
3589.3	3107
3590.986	3065
3592.671	3091
3594.357	3105
3596.042	3058
3597.726	3063
3599.41	3123
3601.094	3070
3602.778	3066
3604.461	2989
3606.143	3083
3607.825	3033
3609.507	3067
3611.188	3005
3612.87	3077
3614.551	3042
3616.229	3068
3617.909	2989
3619.589	2994
3621.269	3125
3622.948	3060
3624.625	3053
3626.302	3074
3627.98	2989
3629.657	3004
3631.334	3055
3633.01	3016
3634.686	2963
3636.361	2980
3638.036	2981
3639.712	2981
3641.385	2968
3643.06	2971
3644.732	3012
3646.405	2948
3648.08	3055
3649.751	2990
3651.424	2909
3653.094	3005
3654.766	2922
3656.436	2938
3658.106	2927
3659.777	2947
3661.446	2898
3663.115	2908
3664.783	2958
3666.452	2948
3668.121	2917
3669.788	2923
3671.454	2966
3673.121	2938
3674.789	2888
3676.455	2971
3678.12	2930
3679.784	2884
3681.45	2942
3683.114	2941
3684.779	2914
3686.442	2911
3688.105	2941
3689.768	2893
3691.43	2887
3693.093	2886
3694.754	2882
3696.415	2845
3698.076	2869
3699.736	2966
3701.396	2888
3703.057	2970
3704.716	2813
3706.375	2883
3708.034	2883
3709.692	2852
3711.351	2934
3713.008	2882
3714.665	2812
3716.321	2842
3717.977	2846
3719.634	2885
3721.29	2852
3722.945	2869
3724.598	2891
3726.253	2832
3727.907	2789
3729.561	2827
3731.214	2767
3732.867	2832
3734.518	2821
3736.171	2886
3737.824	2846
3739.474	2901
3741.125	2738
3742.775	2856
3744.425	2811
3746.074	2762
3747.725	2810
3749.373	2910
3751.022	2771
3752.669	2848
3754.318	2764
3755.966	2767
3757.612	2817
3759.259	2803
3760.905	2803
3762.55	2773
3764.197	2772
3765.842	2851
3767.486	2725
3769.131	2783
3770.774	2734
3772.417	2776
3774.061	2761
3775.705	2752
3777.347	2796
3778.988	2775
3780.629	2705
3782.271	2713
3783.912	2749
3785.552	2818
3787.192	2715
3788.831	2773
3790.472	2702
3792.112	2741
3793.75	2645
3795.388	2780
3797.024	2709
3798.661	2685
3800.3	2757
3801.936	2707
3803.572	2785
3805.208	2726
3806.844	2782
3808.48	2756
3810.115	2744
3811.748	2734
3813.382	2674
3815.016	2688
3816.649	2675
3818.283	2664
3819.914	2696
3821.547	2668
3823.178	2717
3824.809	2694
3826.441	2732
3828.072	2685
3829.701	2710
3831.331	2714
3832.96	2615
3834.591	2721
3836.219	2724
3837.847	2652
3839.475	2681
3841.102	2670
3842.729	2662
3844.357	2617
3845.984	2645
3847.609	2640
3849.234	2635
3850.86	2659
3852.485	2589
3854.11	2660
3855.734	2717
3857.357	2652
3858.981	2632
3860.603	2646
3862.227	2621
3863.848	2637
3865.471	2631
3867.092	2674
3868.713	2695
3870.334	2635
3871.954	2630
3873.575	2552
3875.194	2569
3876.813	2616
3878.433	2557
3880.051	2598
3881.669	2624
3883.286	2628
3884.904	2547
3886.52	2545
3888.138	2666
3889.754	2589
3891.37	2591
3892.985	2506
3894.6	2625
3896.216	2591
3897.831	2591
3899.444	2602
3901.058	2531
3902.67	2554
3904.283	2588
3905.897	2650
3907.509	2617
3909.121	2528
3910.731	2529
3912.342	2595
3913.954	2592
3915.563	2605
3917.174	2604
3918.783	2601
3920.391	2504
3922.002	2582
3923.611	2503
3925.218	2531
3926.826	2605
3928.432	2603
3930.039	2531
3931.647	2510
3933.253	2535
3934.859	2507
3936.464	2546
3938.068	2568
3939.675	2536
3941.278	2570
3942.883	2611
3944.486	2515
3946.089	2492
3947.692	2464
3949.295	2541
3950.898	2544
3952.499	2509
3954.1	2565
3955.7	2441
3957.303	2535
3958.903	2470
3960.502	2533
3962.101	2521
3963.7	2539
3965.301	2469
3966.899	2499
3968.497	2509
3970.094	2497
3971.691	2478
3973.288	2483
3974.885	2548
3976.481	2445
3978.077	2509
3979.672	2477
3981.267	2452
3982.863	2452
3984.457	2503
3986.051	2484
3987.645	2470
3989.238	2457
3990.831	2477
3992.425	2432
3994.017	2445
3995.607	2455
3997.199	2417
3998.79	2427
4000.382	2428
4001.973	2489
4003.561	2446
4005.151	2381
4006.741	2462
4008.331	2439
4009.918	2388
4011.507	2432
4013.095	2329
4014.681	2412
4016.269	2457
4017.856	2484
4019.443	2429
4021.028	2380
4022.614	2348
4024.199	2422
4025.785	2358
4027.37	2400
4028.953	2462
4030.536	2367
4032.12	2353
4033.704	2371
4035.287	2343
4036.869	2414
4038.45	2352
4040.032	2354
4041.613	2403
4043.195	2390
4044.776	2350
4046.356	2327
4047.935	2403
4049.515	2341
4051.095	2346
4052.674	2356
4054.251	2358
4055.829	2324
4057.406	2309
4058.985	2304
4060.562	2354
4062.139	2300
4063.715	2358
4065.29	2289
4066.865	2381
4068.442	2333
4070.016	2337
4071.59	2316
4073.164	2272
4074.738	2368
4076.312	2283
4077.885	2318
4079.458	2357
4081.03	2327
4082.602	2310
4084.173	2309
4085.745	2317
4087.315	2346
4088.886	2223
4090.456	2330
4092.026	2271
4093.596	2297
4095.165	2339
4096.734	2332
4098.301	2249
4099.869	2303
4101.437	2303
4103.006	2286
4104.572	2270
4106.139	2312
4107.704	2298
4109.27	2290
4110.837	2292
4112.401	2355
4113.966	2268
4115.53	2226
4117.094	2246
4118.659	2310
4120.223	2267
4121.785	2262
4123.347	2300
4124.909	2271
4126.471	2198
4128.034	2255
4129.595	2242
4131.155	2266
4132.716	2219
4134.275	2237
4135.836	2207
4137.395	2262
4138.955	2252
4140.513	2273
4142.071	2214
4143.628	2203
4145.188	2233
4146.745	2173
4148.302	2193
4149.858	2241
4151.414	2187
4152.971	2191
4154.526	2169
4156.081	2243
4157.635	2238
4159.189	2254
4160.745	2218
4162.298	2178
4163.852	2164
4165.405	2141
4166.957	2183
4168.51	2205
4170.063	2132
4171.614	2155
4173.166	2134
4174.717	2140
4176.267	2096
4177.817	2175
4179.368	2112
4180.917	2149
4182.466	2186
4184.016	2141
4185.564	2138
4187.112	2123
4188.66	2053
4190.207	2209
4191.754	2124
4193.301	2134
4194.848	2139
4196.394	2172
4197.94	2215
4199.484	2136
4201.03	2115
4202.575	2164
4204.12	2078
4205.663	2203
4207.207	2099
4208.75	2102
4210.292	2122
4211.836	2206
4213.378	2114
4214.92	2153
4216.46	2158
4218.002	2114
4219.544	2116
4221.083	2109
4222.625	2114
4224.164	2022
4225.703	2102
4227.244	2069
4228.782	2138
4230.32	2095
4231.857	2064
4233.395	2052
4234.933	2142
4236.471	2164
4238.007	2074
4239.542	2038
4241.078	2057
4242.614	2121
4244.15	2145
4245.685	2076
4247.219	2089
4248.753	2103
4250.287	2120
4251.82	2078
4253.354	2111
4254.887	2046
4256.419	2044
4257.951	2075
4259.483	2048
4261.016	2089
4262.547	2107
4264.078	2090
4265.608	2097
4267.137	2030
4268.668	2023
4270.197	2104
4271.727	2076
4273.254	2042
4274.783	2068
4276.311	2055
4277.84	1988
4279.366	2031
4280.894	2085
4282.42	2049
4283.946	2042
4285.473	2044
4286.998	2073
4288.523	2070
4290.047	2013
4291.572	1979
4293.096	2038
4294.622	2089
4296.144	2005
4297.668	2000
4299.19	2003
4300.713	2077
4302.236	1996
4303.758	2042
4305.279	2028
4306.799	1980
4308.321	2065
4309.842	1953
4311.361	1971
4312.882	2001
4314.401	2059
