400.0961	2567
402.6185	2549
405.1424	2528
407.6635	2558
410.1838	2575
412.7035	2584
415.2225	2576
417.7388	2603
420.2585	2664
422.7754	2685
425.2917	2682
427.8072	2751
430.3221	2787
432.8363	2781
435.3498	2687
437.8626	2776
440.3727	2765
442.8841	2730
445.3969	2722
447.907	2748
450.4142	2711
452.9229	2800
455.4289	2727
457.9362	2715
460.4449	2783
462.9488	2671
465.454	2706
467.9566	2679
470.4604	2668
472.9637	2723
475.4662	2723
477.966	2718
480.4671	2634
482.9656	2700
485.4633	2638
487.9645	2752
490.4608	2666
492.9566	2766
495.4536	2679
497.948	2678
500.4437	2769
502.9387	2753
505.431	2803
507.9226	2694
510.4136	2728
512.9079	2797
515.3975	2762
517.8864	2760
520.3746	2745
522.8622	2783
525.3491	2809
527.8394	2797
530.3249	2752
532.8098	2886
535.2939	2702
537.7774	2747
540.2623	2808
542.7444	2785
545.2259	2788
547.7067	2790
550.1868	2813
552.6683	2800
555.147	2817
557.6231	2815
560.1005	2844
562.5773	2833
565.0534	2751
567.5308	2833
570.0056	2792
572.4776	2899
574.951	2881
577.4237	2854
579.8978	2945
582.3671	3013
584.8378	2952
587.3079	2934
589.7773	2947
592.244	2945
594.714	2954
597.1793	2927
599.6461	2873
602.1121	2922
604.5754	2919
607.0421	2880
609.5042	2848
611.9675	2903
614.4282	2864
616.8902	2854
619.3515	2862
621.8122	2855
624.2702	2828
626.7296	2804
629.1863	2812
631.6423	2844
634.1017	2843
636.5563	2815
639.0104	2808
641.4658	2793
643.9185	2782
646.3725	2755
648.8239	2829
651.2766	2923
653.7266	2813
656.176	2909
658.6247	2886
661.0748	2826
663.5242	2863
665.9709	2861
668.417	2887
670.8624	2909
673.3092	2961
675.7533	2877
678.1968	2925
680.6395	2912
683.0817	2918
685.5251	2909
687.9659	2947
690.4061	2830
692.8456	2870
695.2844	2892
697.7226	2958
700.1621	2925
702.599	2951
705.0332	2893
707.4688	2919
709.9036	2966
712.3399	2971
714.7735	2928
717.2044	2964
719.6367	2970
722.0683	2879
724.4993	3008
726.9296	2988
729.3593	2955
731.7883	2933
734.2147	3041
736.6423	2995
739.0714	3049
741.4958	3062
743.9216	3113
746.3447	3033
748.7691	3052
751.1929	3105
753.616	3058
756.0366	3008
758.4584	3132
760.8776	3148
763.2982	3159
765.718	3082
768.1373	3146
770.5539	3124
772.9698	3115
775.3871	3153
777.8038	3136
780.2178	3111
782.6332	3117
785.0459	3055
787.458	3139
789.8714	3096
792.2842	3110
794.6943	3180
797.1038	3139
799.5127	3043
801.9209	3121
804.3324	3128
806.7393	3153
809.1456	3121
811.5513	3170
813.9562	3201
816.3625	3267
818.7663	3201
821.1693	3164
823.5718	3184
825.9735	3160
828.3746	3260
830.7771	3168
833.177	3097
835.5762	3137
837.9747	3182
840.3727	3248
842.772	3273
845.1666	3207
847.5626	3245
849.958	3310
852.3527	3308
854.7488	3370
857.1403	3261
859.5331	3304
861.9253	3250
864.3168	3221
866.7057	3306
869.098	3223
871.4876	3267
873.8746	3229
876.263	3226
878.6487	3241
881.0378	3218
883.4243	3255
885.8081	3269
888.1933	3216
890.5759	3242
892.9598	3269
895.343	3268
897.7256	3224
900.1057	3273
902.4871	3339
904.8659	3215
907.246	3270
909.6254	3281
912.0023	3312
914.3786	3311
916.7562	3339
919.1331	3341
921.5074	3530
923.8831	3445
926.2562	3440
928.6287	3521
931.0005	3448
933.3757	3472
935.7462	3518
938.1162	3449
940.4855	3619
942.8542	3595
945.2242	3672
947.5916	3718
949.9584	3927
952.3266	4056
954.6921	4242
957.0571	4502
959.4233	4758
961.787	4761
964.15	4816
966.5125	4655
968.8742	4414
971.2354	4150
973.5959	3875
975.9559	3678
978.3151	3582
980.6738	3428
983.0338	3409
985.3912	3400
987.7461	3435
990.1022	3451
992.4578	3316
994.8127	3419
997.1689	3427
999.5207	3446
1001.874	3394
1004.226	3441
1006.576	3471
1008.929	3402
1011.28	3416
1013.628	3391
1015.977	3415
1018.324	3400
1020.674	3505
1023.019	3425
1025.366	3473
1027.713	3448
1030.056	3521
1032.399	3524
1034.746	3558
1037.087	3425
1039.431	3510
1041.771	3468
1044.113	3549
1046.454	3608
1048.793	3434
1051.133	3560
1053.471	3519
1055.807	3568
1058.146	3500
1060.483	3467
1062.818	3566
1065.153	3473
1067.489	3577
1069.822	3635
1072.156	3581
1074.488	3659
1076.82	3570
1079.15	3617
1081.48	3606
1083.814	3575
1086.143	3491
1088.471	3502
1090.799	3454
1093.126	3473
1095.452	3475
1097.78	3488
1100.105	3527
1102.43	3424
1104.754	3510
1107.077	3430
1109.4	3460
1111.722	3482
1114.044	3507
1116.365	3519
1118.685	3451
1121.005	3472
1123.324	3432
1125.643	3380
1127.961	3472
1130.278	3505
1132.595	3412
1134.911	3454
1137.226	3445
1139.541	3455
1141.854	3412
1144.167	3428
1146.482	3452
1148.793	3473
1151.105	3493
1153.414	3469
1155.725	3512
1158.033	3475
1160.344	3474
1162.651	3499
1164.959	3442
1167.265	3457
1169.572	3396
1171.878	3518
1174.184	3474
1176.488	3440
1178.79	3457
1181.094	3503
1183.396	3518
1185.699	3533
1188.001	3496
1190.301	3462
1192.6	3475
1194.9	3528
1197.2	3469
1199.497	3488
1201.794	3473
1204.09	3495
1206.387	3447
1208.684	3504
1210.978	3481
1213.272	3546
1215.565	3468
1217.858	3451
1220.15	3471
1222.443	3499
1224.734	3513
1227.024	3560
1229.313	3510
1231.602	3555
1233.892	3629
1236.18	3545
1238.467	3650
1240.754	3704
1243.04	3672
1245.325	3686
1247.612	3728
1249.896	3608
1252.178	3723
1254.461	3697
1256.743	3681
1259.027	3657
1261.308	3639
1263.587	3613
1265.867	3741
1268.146	3724
1270.425	3645
1272.703	3620
1274.981	3676
1277.256	3640
1279.532	3670
1281.808	3653
1284.083	3616
1286.358	3591
1288.63	3720
1290.904	3604
1293.175	3589
1295.449	3621
1297.719	3580
1299.99	3624
1302.259	3669
1304.529	3634
1306.798	3577
1309.065	3561
1311.333	3679
1313.599	3723
1315.866	3486
1318.131	3578
1320.396	3570
1322.66	3526
1324.925	3572
1327.187	3535
1329.448	3586
1331.711	3639
1333.974	3610
1336.234	3662
1338.493	3681
1340.752	3678
1343.01	3598
1345.269	3692
1347.526	3592
1349.784	3606
1352.04	3601
1354.295	3630
1356.552	3613
1358.806	3613
1361.059	3529
1363.312	3639
1365.564	3678
1367.818	3628
1370.069	3642
1372.318	3588
1374.568	3692
1376.817	3628
1379.066	3643
1381.316	3687
1383.564	3665
1385.809	3661
1388.056	3626
1390.301	3661
1392.549	3648
1394.793	3755
1397.036	3649
1399.279	3666
1401.522	3748
1403.763	3762
1406.007	3754
1408.248	3691
1410.487	3769
1412.727	3700
1414.965	3694
1417.205	3760
1419.442	3769
1421.68	3702
1423.915	3711
1426.152	3769
1428.388	3798
1430.623	3745
1432.857	3729
1435.091	3807
1437.323	3807
1439.556	3756
1441.789	3713
1444.019	3850
1446.25	3764
1448.48	3838
1450.708	3861
1452.938	3897
1455.167	3907
1457.394	3917
1459.62	3924
1461.846	3865
1464.073	3815
1466.299	3864
1468.523	3805
1470.746	3816
1472.969	3762
1475.191	3718
1477.415	3765
1479.636	3715
1481.858	3622
1484.078	3632
1486.298	3705
1488.518	3722
1490.736	3607
1492.954	3716
1495.169	3624
1497.386	3544
1499.602	3617
1501.819	3561
1504.034	3584
1506.248	3561
1508.462	3563
1510.675	3532
1512.888	3652
1515.1	3604
1517.311	3564
1519.522	3592
1521.732	3579
1523.942	3689
1526.151	3517
1528.36	3621
1530.566	3565
1532.773	3640
1534.98	3615
1537.187	3594
1539.392	3677
1541.596	3648
1543.801	3628
1546.005	3598
1548.208	3660
1550.411	3634
1552.612	3647
1554.814	3662
1557.013	3670
1559.212	3730
1561.414	3601
1563.612	3716
1565.811	3656
1568.007	3648
1570.203	3732
1572.403	3541
1574.598	3761
1576.792	3725
1578.988	3690
1581.181	3696
1583.376	3686
1585.568	3715
1587.761	3748
1589.952	3728
1592.143	3650
1594.333	3868
1596.524	3651
1598.715	3728
1600.903	3747
1603.091	3719
1605.278	3786
1607.466	3772
1609.652	3710
1611.838	3701
1614.023	3837
1616.207	3813
1618.391	3840
1620.576	3750
1622.759	3876
1624.941	3716
1627.123	3810
1629.304	3797
1631.484	3727
1633.664	3780
1635.844	3798
1638.022	3842
1640.201	3797
1642.38	3890
1644.556	3830
1646.732	3791
1648.908	3842
1651.084	3835
1653.257	3820
1655.433	3876
1657.607	3866
1659.779	3943
1661.951	3879
1664.122	3865
1666.295	3865
1668.467	3927
1670.635	3993
1672.805	3928
1674.973	3836
1677.142	3840
1679.31	3854
1681.478	3881
1683.644	3871
1685.81	3912
1687.975	3866
1690.142	3878
1692.305	3860
1694.468	3811
1696.632	3785
1698.794	3843
1700.957	3793
1703.119	3783
1705.279	3683
1707.439	3788
1709.598	3736
1711.758	3719
1713.917	3723
1716.075	3746
1718.231	3753
1720.388	3716
1722.543	3662
1724.702	3716
1726.856	3795
1729.01	3767
1731.164	3687
1733.317	3705
1735.471	3684
1737.623	3667
1739.774	3657
1741.925	3767
1744.075	3721
1746.225	3735
1748.376	3758
1750.524	3772
1752.672	3699
1754.82	3712
1756.965	3817
1759.113	3668
1761.259	3760
1763.405	3770
1765.549	3708
1767.694	3704
1769.836	3766
1771.981	3754
1774.123	3715
1776.264	3759
1778.405	3718
1780.546	3782
1782.687	3762
1784.827	3745
1786.966	3806
1789.103	3797
1791.242	3840
1793.381	3800
1795.517	3778
1797.653	3750
1799.788	3762
1801.923	3710
1804.057	3796
1806.193	3758
1808.326	3884
1810.457	3743
1812.59	3766
1814.721	3725
1816.855	3743
1818.984	3796
1821.113	3692
1823.244	3710
1825.372	3721
1827.499	3733
1829.63	3734
1831.756	3724
1833.882	3758
1836.007	3745
1838.132	3701
1840.26	3751
1842.384	3730
1844.507	3696
1846.63	3812
1848.752	3770
1850.875	3773
1852.996	3759
1855.118	3769
1857.238	3728
1859.358	3736
1861.477	3733
1863.597	3716
1865.715	3686
1867.832	3701
1869.948	3649
1872.064	3677
1874.181	3729
1876.297	3773
1878.411	3690
1880.526	3763
1882.639	3840
1884.752	3697
1886.865	3827
1888.977	3717
1891.089	3733
1893.2	3794
1895.308	3790
1897.42	3752
1899.53	3764
1901.639	3759
1903.745	3723
1905.853	3805
1907.962	3725
1910.067	3780
1912.174	3848
1914.278	3829
1916.383	3741
1918.486	3767
1920.592	3825
1922.694	3814
1924.797	3845
1926.898	3841
1929	3796
1931.102	3788
1933.203	3884
1935.301	3890
1937.401	3750
1939.499	3744
1941.598	3871
1943.697	3834
1945.793	3855
1947.888	3762
1949.985	3873
1952.08	3779
1954.176	3663
1956.269	3861
1958.364	3885
1960.457	3695
1962.549	3795
1964.642	3782
1966.733	3769
1968.823	3835
1970.913	3754
1973.005	3751
1975.093	3791
1977.184	3815
1979.271	3828
1981.359	3867
1983.446	3779
1985.532	3703
1987.619	3801
1989.705	3818
1991.789	3726
1993.874	3785
1995.956	3695
1998.041	3824
2000.123	3734
2002.206	3681
2004.287	3688
2006.368	3816
2008.449	3805
2010.529	3825
2012.609	3796
2014.688	3827
2016.766	3762
2018.843	3785
2020.922	3769
2022.999	3765
2025.074	3729
2027.15	3762
2029.225	3742
2031.299	3749
2033.375	3717
2035.447	3785
2037.52	3742
2039.592	3658
2041.664	3735
2043.736	3770
2045.807	3834
2047.876	3769
2049.947	3747
2052.015	3764
2054.086	3829
2056.153	3722
2058.221	3768
2060.288	3846
2062.353	3837
2064.42	3783
2066.486	3717
2068.55	3788
2070.614	3715
2072.678	3783
2074.741	3722
2076.805	3750
2078.866	3772
2080.929	3787
2082.99	3811
2085.049	3738
2087.109	3760
2089.17	3750
2091.228	3773
2093.286	3768
2095.344	3844
2097.4	3775
2099.46	3754
2101.516	3774
2103.572	3748
2105.626	3801
2107.679	3825
2109.735	3829
2111.788	3818
2113.841	3821
2115.894	3848
2117.945	3754
2119.997	3791
2122.049	3747
2124.1	3774
2126.148	3782
2128.197	3736
2130.246	3876
2132.296	3762
2134.342	3814
2136.39	3663
2138.437	3675
2140.483	3820
2142.527	3869
2144.574	3826
2146.619	3679
2148.661	3782
2150.705	3782
2152.747	3814
2154.792	3751
2156.832	3709
2158.874	3774
2160.915	3733
2162.954	3800
2164.995	3774
2167.034	3705
2169.072	3706
2171.111	3642
2173.148	3740
2175.186	3854
2177.223	3748
2179.258	3746
2181.294	3779
2183.328	3720
2185.362	3762
2187.398	3692
2189.431	3713
2191.463	3738
2193.495	3787
2195.528	3686
2197.56	3741
2199.59	3718
2201.62	3735
2203.649	3729
2205.678	3818
2207.708	3641
2209.737	3722
2211.764	3746
2213.791	3645
2215.817	3760
2217.843	3816
2219.87	3719
2221.895	3748
2223.919	3688
2225.942	3743
2227.966	3707
2229.988	3695
2232.012	3682
2234.032	3720
2236.054	3694
2238.074	3758
2240.095	3673
2242.116	3798
2244.135	3646
2246.153	3690
2248.171	3684
2250.188	3719
2252.208	3734
2254.223	3694
2256.239	3690
2258.255	3721
2260.269	3746
2262.283	3783
2264.3	3630
2266.312	3709
2268.325	3783
2270.336	3729
2272.349	3700
2274.362	3764
2276.372	3727
2278.383	3724
2280.392	3763
2282.402	3702
2284.409	3797
2286.418	3687
2288.427	3765
2290.433	3712
2292.441	3758
2294.446	3753
2296.453	3725
2298.459	3679
2300.463	3745
2302.466	3752
2304.471	3668
2306.475	3703
2308.477	3765
2310.478	3699
2312.481	3765
2314.481	3684
2316.481	3725
2318.482	3607
2320.482	3762
2322.48	3641
2324.48	3693
2326.478	3733
2328.476	3691
2330.473	3668
2332.469	3614
2334.465	3627
2336.46	3725
2338.454	3704
2340.45	3633
2342.444	3767
2344.437	3671
2346.43	3673
2348.421	3645
2350.414	3672
2352.405	3663
2354.396	3648
2356.386	3600
2358.376	3651
2360.366	3656
2362.355	3603
2364.343	3656
2366.331	3653
2368.317	3706
2370.304	3692
2372.292	3647
2374.278	3637
2376.262	3622
2378.247	3597
2380.23	3669
2382.216	3697
2384.199	3608
2386.181	3603
2388.163	3640
2390.144	3600
2392.127	3633
2394.107	3633
2396.087	3666
2398.066	3648
2400.046	3596
2402.023	3607
2404.004	3701
2405.981	3588
2407.957	3691
2409.934	3638
2411.91	3551
2413.886	3642
2415.862	3623
2417.836	3653
2419.809	3564
2421.784	3615
2423.756	3517
2425.73	3584
2427.701	3594
2429.672	3666
2431.644	3612
2433.615	3653
2435.586	3651
2437.555	3656
2439.523	3640
2441.491	3601
2443.459	3621
2445.428	3565
2447.395	3631
2449.361	3634
2451.327	3537
2453.292	3685
2455.257	3608
2457.223	3643
2459.187	3639
2461.15	3482
2463.113	3615
2465.076	3558
2467.039	3570
2468.999	3708
2470.96	3574
2472.921	3534
2474.881	3564
2476.841	3564
2478.8	3530
2480.759	3620
2482.717	3615
2484.675	3551
2486.63	3598
2488.589	3539
2490.545	3515
2492.5	3535
2494.455	3550
2496.408	3622
2498.364	3532
2500.318	3610
2502.27	3570
2504.223	3559
2506.174	3589
2508.126	3584
2510.078	3557
2512.03	3569
2513.979	3623
2515.927	3561
2517.877	3565
2519.826	3541
2521.775	3529
2523.722	3610
2525.668	3523
2527.616	3594
2529.561	3557
2531.508	3547
2533.452	3507
2535.398	3498
2537.342	3581
2539.284	3417
2541.229	3619
2543.173	3568
2545.114	3557
2547.055	3618
2548.996	3500
2550.938	3514
2552.878	3584
2554.817	3629
2556.756	3622
2558.695	3590
2560.633	3542
2562.572	3566
2564.509	3601
2566.445	3497
2568.382	3474
2570.317	3597
2572.254	3510
2574.189	3545
2576.123	3541
2578.057	3656
2579.99	3510
2581.923	3583
2583.855	3598
2585.788	3573
2587.719	3535
2589.65	3564
2591.579	3574
2593.511	3541
2595.44	3495
2597.37	3563
2599.297	3518
2601.225	3548
2603.153	3490
2605.08	3577
2607.007	3581
2608.932	3565
2610.858	3563
2612.782	3557
2614.709	3625
2616.632	3595
2618.556	3553
2620.478	3549
2622.401	3555
2624.324	3597
2626.247	3626
2628.167	3634
2630.088	3594
2632.008	3616
2633.928	3632
2635.848	3669
2637.766	3549
2639.684	3590
2641.603	3615
2643.519	3482
2645.437	3536
2647.353	3591
2649.27	3629
2651.184	3548
2653.099	3655
2655.014	3602
2656.928	3595
2658.842	3508
2660.755	3600
2662.667	3583
2664.579	3563
2666.491	3612
2668.402	3657
2670.312	3597
2672.222	3556
2674.132	3580
2676.042	3572
2677.951	3629
2679.859	3571
2681.766	3530
2683.674	3536
2685.582	3573
2687.488	3488
2689.392	3478
2691.298	3596
2693.202	3577
2695.107	3613
2697.012	3460
2698.914	3613
2700.817	3563
2702.72	3548
2704.622	3555
2706.524	3551
2708.425	3493
2710.326	3542
2712.225	3574
2714.125	3469
2716.024	3531
2717.923	3475
2719.822	3494
2721.719	3487
2723.616	3500
2725.512	3604
2727.41	3477
2729.305	3631
2731.201	3607
2733.095	3526
2734.99	3527
2736.884	3486
2738.778	3498
2740.67	3550
2742.562	3485
2744.455	3578
2746.346	3468
2748.238	3479
2750.129	3522
2752.018	3568
2753.907	3539
2755.797	3527
2757.687	3546
2759.575	3572
2761.462	3490
2763.349	3512
2765.237	3513
2767.124	3539
2769.009	3496
2770.894	3525
2772.779	3539
2774.663	3481
2776.547	3537
2778.431	3481
2780.314	3490
2782.197	3559
2784.078	3496
2785.96	3512
2787.842	3530
2789.723	3531
2791.603	3483
2793.483	3480
2795.362	3457
2797.241	3547
2799.121	3441
2800.997	3532
2802.874	3449
2804.751	3478
2806.628	3483
2808.506	3490
2810.38	3488
2812.255	3447
2814.13	3498
2816.003	3545
2817.878	3466
2819.752	3509
2821.623	3461
2823.496	3445
2825.368	3487
2827.238	3493
2829.111	3523
2830.98	3374
2832.851	3452
2834.719	3499
2836.589	3545
2838.458	3606
2840.327	3517
2842.193	3535
2844.061	3531
2845.927	3436
2847.794	3545
2849.66	3485
2851.525	3474
2853.39	3625
2855.254	3622
2857.117	3647
2858.983	3585
2860.845	3596
2862.707	3552
2864.569	3680
2866.431	3746
2868.293	3681
2870.154	3607
2872.013	3699
2873.873	3785
2875.733	3834
2877.592	3813
2879.451	3915
2881.309	3871
2883.166	3936
2885.022	4026
2886.879	4018
2888.736	3988
2890.591	4033
2892.446	3961
2894.301	4025
2896.155	3969
2898.009	4098
2899.863	4000
2901.716	3931
2903.568	3920
2905.419	3971
2907.27	3935
2909.123	3959
2910.973	3953
2912.824	3995
2914.673	3950
2916.521	4214
2918.372	4081
2920.22	4075
2922.067	4206
2923.914	4209
2925.761	4289
2927.607	4304
2929.455	4336
2931.301	4400
2933.144	4468
2934.99	4486
2936.833	4520
2938.678	4541
2940.522	4607
2942.364	4683
2944.207	4667
2946.048	4670
2947.891	4682
2949.731	4687
2951.571	4657
2953.412	4831
2955.25	4601
2957.09	4614
2958.93	4626
2960.767	4490
2962.606	4441
2964.443	4425
2966.279	4347
2968.116	4435
2969.953	4313
2971.788	4257
2973.623	4306
2975.457	4202
2977.292	4123
2979.127	4121
2980.959	4096
2982.792	4030
2984.624	4094
2986.455	4094
2988.288	4032
2990.119	4062
2991.949	3956
2993.779	3945
2995.608	3937
2997.439	3908
2999.268	3878
3001.096	3806
3002.923	3804
3004.751	3756
3006.578	3594
3008.406	3734
3010.232	3715
3012.057	3644
3013.883	3614
3015.706	3554
3017.532	3529
3019.356	3624
3021.179	3569
3023.002	3501
3024.823	3499
3026.646	3432
3028.469	3445
3030.289	3532
3032.11	3473
3033.93	3450
3035.749	3422
3037.57	3385
3039.39	3442
3041.207	3397
3043.026	3412
3044.842	3376
3046.661	3419
3048.477	3313
3050.294	3378
3052.109	3342
3053.925	3470
3055.739	3405
3057.555	3370
3059.368	3268
3061.181	3425
3062.995	3426
3064.807	3404
3066.62	3363
3068.433	3372
3070.243	3389
3072.054	3363
3073.865	3409
3075.675	3394
3077.485	3383
3079.293	3338
3081.102	3337
3082.911	3313
3084.719	3281
3086.527	3284
3088.333	3384
3090.139	3364
3091.945	3243
3093.75	3301
3095.557	3329
3097.361	3299
3099.165	3278
3100.969	3272
3102.772	3313
3104.575	3273
3106.379	3277
3108.181	3253
3109.982	3300
3111.783	3290
3113.584	3287
3115.386	3295
3117.186	3271
3118.985	3248
3120.783	3278
3122.582	3304
3124.381	3308
3126.179	3212
3127.975	3219
3129.772	3257
3131.569	3242
3133.365	3213
3135.161	3230
3136.956	3329
3138.751	3237
3140.544	3217
3142.338	3282
3144.132	3258
3145.925	3145
3147.717	3263
3149.509	3194
3151.301	3268
3153.091	3235
3154.884	3295
3156.673	3213
3158.462	3204
3160.252	3270
3162.041	3195
3163.831	3204
3165.618	3210
3167.405	3185
3169.193	3265
3170.979	3218
3172.767	3159
3174.553	3185
3176.338	3273
3178.123	3205
3179.907	3201
3181.692	3223
3183.477	3134
3185.259	3139
3187.042	3188
3188.824	3220
3190.607	3198
3192.389	3219
3194.17	3118
3195.951	3231
3197.73	3148
3199.51	3240
3201.289	3197
3203.07	3198
3204.848	3198
3206.626	3244
3208.403	3256
3210.18	3223
3211.959	3222
3213.735	3218
3215.511	3253
3217.285	3220
3219.06	3252
3220.836	3249
3222.611	3296
3224.384	3183
3226.158	3203
3227.929	3208
3229.702	3207
3231.476	3152
3233.248	3161
3235.018	3177
3236.789	3178
3238.56	3237
3240.33	3143
3242.1	3249
3243.869	3154
3245.637	3250
3247.405	3225
3249.172	3216
3250.941	3219
3252.707	3239
3254.474	3238
3256.24	3199
3258.006	3179
3259.772	3217
3261.537	3253
3263.301	3250
3265.065	3284
3266.828	3198
3268.592	3199
3270.355	3240
3272.117	3264
3273.878	3164
3275.64	3219
3277.401	3345
3279.162	3284
3280.922	3168
3282.682	3245
3284.441	3273
3286.199	3231
3287.959	3209
3289.716	3219
3291.475	3232
3293.232	3239
3294.988	3229
3296.744	3212
3298.501	3308
3300.256	3238
3302.011	3200
3303.766	3242
3305.52	3278
3307.275	3228
3309.028	3254
3310.781	3263
3312.533	3280
3314.285	3249
3316.038	3217
3317.789	3207
3319.54	3188
3321.289	3217
3323.039	3303
3324.789	3234
3326.539	3193
3328.288	3196
3330.035	3331
3331.783	3192
3333.531	3218
3335.28	3241
3337.025	3210
3338.771	3206
3340.518	3183
3342.262	3234
3344.009	3203
3345.753	3220
3347.497	3196
3349.24	3212
3350.983	3141
3352.726	3155
3354.469	3218
3356.212	3213
3357.952	3203
3359.694	3231
3361.434	3145
3363.176	3189
3364.916	3116
3366.654	3048
3368.394	3168
3370.132	3158
3371.871	3098
3373.61	3204
3375.346	3138
3377.083	3169
3378.82	3155
3380.556	3145
3382.292	3178
3384.027	3098
3385.763	3066
3387.497	3081
3389.231	3172
3390.965	3151
3392.698	3154
3394.431	3079
3396.164	3160
3397.896	3135
3399.627	3109
3401.36	3076
3403.09	3099
3404.82	3059
3406.55	3156
3408.279	3170
3410.01	3096
3411.738	3163
3413.467	3039
3415.194	3086
3416.92	3067
3418.647	3036
3420.375	3063
3422.102	3118
3423.827	3017
3425.553	3039
3427.277	3090
3429.003	3037
3430.727	3044
3432.451	3158
3434.173	3027
3435.896	3082
3437.62	3063
3439.343	3057
3441.063	3024
3442.785	2998
3444.505	3040
3446.226	3021
3447.948	3035
3449.666	3000
3451.386	3014
3453.104	3057
3454.823	3036
3456.541	2981
3458.259	2963
3459.976	3020
3461.693	3019
3463.408	2973
3465.125	2949
3466.841	2993
3468.556	3002
3470.271	2942
3471.985	2938
3473.698	2938
3475.414	3023
3477.126	2871
3478.838	2932
3480.55	2940
3482.263	2903
3483.975	2916
3485.686	2979
3487.396	2962
3489.106	2907
3490.817	2929
3492.526	2948
3494.236	2994
3495.944	2896
3497.652	2910
3499.359	2911
3501.066	2848
3502.775	2875
3504.481	2944
3506.187	2834
3507.893	2927
3509.598	2878
3511.304	2848
3513.009	2869
3514.713	2931
3516.417	2832
3518.12	2925
3519.821	2912
3521.525	2825
3523.228	2915
3524.929	2815
3526.631	2791
3528.33	2856
3530.032	2791
3531.733	2847
3533.433	2901
3535.131	2859
3536.83	2862
3538.529	2766
3540.227	2922
3541.925	2799
3543.623	2824
3545.319	2787
3547.016	2800
3548.712	2821
3550.408	2804
3552.103	2783
3553.798	2780
3555.491	2822
3557.188	2779
3558.88	2800
3560.574	2813
3562.266	2769
3563.959	2735
3565.651	2746
3567.343	2777
3569.035	2761
3570.725	2720
3572.415	2807
3574.106	2732
3575.797	2875
3577.485	2742
3579.174	2786
3580.863	2704
3582.551	2744
3584.238	2758
3585.926	2744
3587.613	2771
3589.3	2761
3590.986	2737
3592.671	2745
3594.357	2793
3596.042	2735
3597.726	2667
3599.41	2709
3601.094	2684
3602.778	2686
3604.461	2637
3606.143	2630
3607.825	2676
3609.507	2641
3611.188	2672
3612.87	2687
3614.551	2673
3616.229	2640
3617.909	2642
3619.589	2629
3621.269	2616
3622.948	2659
3624.625	2607
3626.302	2592
3627.98	2633
3629.657	2610
3631.334	2629
3633.01	2674
3634.686	2628
3636.361	2556
3638.036	2581
3639.712	2592
3641.385	2605
3643.06	2623
3644.732	2603
3646.405	2630
3648.08	2550
3649.751	2578
3651.424	2606
3653.094	2554
3654.766	2632
3656.436	2580
3658.106	2626
3659.777	2562
3661.446	2571
3663.115	2615
3664.783	2590
3666.452	2567
3668.121	2553
3669.788	2476
3671.454	2594
3673.121	2506
3674.789	2574
3676.455	2592
3678.12	2544
3679.784	2538
3681.45	2495
3683.114	2588
3684.779	2458
3686.442	2438
3688.105	2521
3689.768	2501
3691.43	2552
3693.093	2457
3694.754	2528
3696.415	2480
3698.076	2549
3699.736	2537
3701.396	2541
3703.057	2492
3704.716	2502
3706.375	2507
3708.034	2502
3709.692	2482
3711.351	2518
3713.008	2509
3714.665	2517
3716.321	2454
3717.977	2427
3719.634	2501
3721.29	2440
3722.945	2459
3724.598	2472
3726.253	2539
3727.907	2473
3729.561	2517
3731.214	2452
3732.867	2462
3734.518	2413
3736.171	2430
3737.824	2415
3739.474	2417
3741.125	2495
3742.775	2425
3744.425	2446
3746.074	2415
3747.725	2448
3749.373	2358
3751.022	2475
3752.669	2469
3754.318	2446
3755.966	2462
3757.612	2434
3759.259	2459
3760.905	2467
3762.55	2410
3764.197	2409
3765.842	2402
3767.486	2463
3769.131	2451
3770.774	2485
3772.417	2408
3774.061	2404
3775.705	2392
3777.347	2442
3778.988	2436
3780.629	2448
3782.271	2404
3783.912	2391
3785.552	2368
3787.192	2403
3788.831	2370
3790.472	2361
3792.112	2405
3793.75	2415
3795.388	2367
3797.024	2338
3798.661	2378
3800.3	2387
3801.936	2417
3803.572	2438
3805.208	2350
3806.844	2416
3808.48	2380
3810.115	2326
3811.748	2382
3813.382	2350
3815.016	2356
3816.649	2384
3818.283	2318
3819.914	2408
3821.547	2366
3823.178	2320
3824.809	2403
3826.441	2327
3828.072	2348
3829.701	2363
3831.331	2337
3832.96	2339
3834.591	2347
3836.219	2327
3837.847	2358
3839.475	2346
3841.102	2336
3842.729	2336
3844.357	2312
3845.984	2293
3847.609	2404
3849.234	2377
3850.86	2273
3852.485	2283
3854.11	2324
3855.734	2304
3857.357	2323
3858.981	2274
3860.603	2346
3862.227	2361
3863.848	2264
3865.471	2265
3867.092	2341
3868.713	2278
3870.334	2298
3871.954	2367
3873.575	2368
3875.194	2324
3876.813	2375
3878.433	2309
3880.051	2243
3881.669	2292
3883.286	2302
3884.904	2284
3886.52	2320
3888.138	2308
3889.754	2253
3891.37	2332
3892.985	2283
3894.6	2262
3896.216	2308
3897.831	2321
3899.444	2270
3901.058	2272
3902.67	2266
3904.283	2275
3905.897	2264
3907.509	2283
3909.121	2293
3910.731	2276
3912.342	2268
3913.954	2250
3915.563	2238
3917.174	2289
3918.783	2259
3920.391	2274
3922.002	2225
3923.611	2265
3925.218	2246
3926.826	2242
3928.432	2255
3930.039	2261
3931.647	2228
3933.253	2274
3934.859	2235
3936.464	2247
3938.068	2163
3939.675	2241
3941.278	2232
3942.883	2282
3944.486	2194
3946.089	2240
3947.692	2229
3949.295	2239
3950.898	2269
3952.499	2237
3954.1	2210
3955.7	2197
3957.303	2197
3958.903	2243
3960.502	2261
3962.101	2209
3963.7	2217
3965.301	2179
3966.899	2148
3968.497	2223
3970.094	2248
3971.691	2182
3973.288	2242
3974.885	2216
3976.481	2204
3978.077	2168
3979.672	2209
3981.267	2196
3982.863	2245
3984.457	2198
3986.051	2207
3987.645	2170
3989.238	2229
3990.831	2143
3992.425	2159
3994.017	2154
3995.607	2150
3997.199	2236
3998.79	2203
4000.382	2147
4001.973	2171
4003.561	2189
4005.151	2157
4006.741	2176
4008.331	2163
4009.918	2103
4011.507	2129
4013.095	2160
4014.681	2145
4016.269	2131
4017.856	2184
4019.443	2167
4021.028	2140
4022.614	2137
4024.199	2174
4025.785	2051
4027.37	2125
4028.953	2107
4030.536	2186
4032.12	2114
4033.704	2119
4035.287	2102
4036.869	2068
4038.45	2145
4040.032	2133
4041.613	2128
4043.195	2157
4044.776	2120
4046.356	2123
4047.935	2075
4049.515	2132
4051.095	2085
4052.674	2111
4054.251	2137
4055.829	2079
4057.406	2159
4058.985	2101
4060.562	2087
4062.139	2076
4063.715	2113
4065.29	2055
4066.865	2135
4068.442	2095
4070.016	2061
4071.59	2066
4073.164	2072
4074.738	2053
4076.312	2115
4077.885	2101
4079.458	2014
4081.03	2029
4082.602	2038
4084.173	2060
4085.745	2059
4087.315	2058
4088.886	2057
4090.456	2092
4092.026	2108
4093.596	2057
4095.165	2114
4096.734	2059
4098.301	2100
4099.869	1980
4101.437	2035
4103.006	2081
4104.572	2034
4106.139	2032
4107.704	2009
4109.27	2034
4110.837	2019
4112.401	2022
4113.966	2049
4115.53	2043
4117.094	2065
4118.659	2071
4120.223	2033
4121.785	2049
4123.347	2054
4124.909	2052
4126.471	1992
4128.034	2036
4129.595	2006
4131.155	1952
4132.716	2032
4134.275	1979
4135.836	2010
4137.395	2026
4138.955	1976
4140.513	2039
4142.071	1991
4143.628	1967
4145.188	1984
4146.745	1989
4148.302	2017
4149.858	1978
4151.414	1975
4152.971	2010
4154.526	1996
4156.081	2003
4157.635	1993
4159.189	1984
4160.745	1908
4162.298	1946
4163.852	1971
4165.405	1963
4166.957	1985
4168.51	1930
4170.063	1934
4171.614	1932
4173.166	1984
4174.717	1961
4176.267	1961
4177.817	1944
4179.368	1998
4180.917	1933
4182.466	1948
4184.016	1958
4185.564	1936
4187.112	1980
4188.66	1947
4190.207	1954
4191.754	1901
4193.301	1927
4194.848	1920
4196.394	1963
4197.94	1915
4199.484	1950
4201.03	1915
4202.575	1919
4204.12	1938
4205.663	1961
4207.207	1924
4208.75	1925
4210.292	1906
4211.836	1863
4213.378	1978
4214.92	1925
4216.46	1948
4218.002	1959
4219.544	1916
4221.083	1915
4222.625	1900
4224.164	1950
4225.703	1870
4227.244	1930
4228.782	1877
4230.32	1923
4231.857	1885
4233.395	1912
4234.933	1887
4236.471	1926
4238.007	1903
4239.542	1848
4241.078	1862
4242.614	1900
4244.15	1882
4245.685	1900
4247.219	1916
4248.753	1932
4250.287	1849
4251.82	1863
4253.354	1861
4254.887	1898
4256.419	1859
4257.951	1882
4259.483	1852
4261.016	1890
4262.547	1863
4264.078	1863
4265.608	1907
4267.137	1885
4268.668	1882
4270.197	1839
4271.727	1875
4273.254	1858
4274.783	1837
4276.311	1859
4277.84	1824
4279.366	1852
4280.894	1854
4282.42	1822
4283.946	1889
4285.473	1873
4286.998	1898
4288.523	1869
4290.047	1839
4291.572	1828
4293.096	1798
4294.622	1821
4296.144	1804
4297.668	1845
4299.19	1830
4300.713	1877
4302.236	1883
4303.758	1865
4305.279	1824
4306.799	1791
4308.321	1820
4309.842	1804
4311.361	1831
4312.882	1857
4314.401	1867
