400.0961	2421
402.6185	2500
405.1424	2500
407.6635	2418
410.1838	2470
412.7035	2479
415.2225	2462
417.7388	2514
420.2585	2486
422.7754	2536
425.2917	2617
427.8072	2518
430.3221	2597
432.8363	2600
435.3498	2597
437.8626	2689
440.3727	2647
442.8841	2597
445.3969	2608
447.907	2622
450.4142	2535
452.9229	2587
455.4289	2646
457.9362	2547
460.4449	2555
462.9488	2541
465.454	2585
467.9566	2504
470.4604	2571
472.9637	2582
475.4662	2529
477.966	2524
480.4671	2540
482.9656	2605
485.4633	2589
487.9645	2587
490.4608	2565
492.9566	2584
495.4536	2566
497.948	2555
500.4437	2571
502.9387	2620
505.431	2556
507.9226	2571
510.4136	2577
512.9079	2622
515.3975	2631
517.8864	2629
520.3746	2569
522.8622	2689
525.3491	2618
527.8394	2603
530.3249	2604
532.8098	2700
535.2939	2559
537.7774	2601
540.2623	2684
542.7444	2656
545.2259	2607
547.7067	2671
550.1868	2628
552.6683	2633
555.147	2637
557.6231	2726
560.1005	2655
562.5773	2693
565.0534	2680
567.5308	2698
570.0056	2607
572.4776	2697
574.951	2789
577.4237	2718
579.8978	2805
582.3671	2788
584.8378	2746
587.3079	2781
589.7773	2772
592.244	2798
594.714	2654
597.1793	2734
599.6461	2726
602.1121	2749
604.5754	2704
607.0421	2702
609.5042	2711
611.9675	2722
614.4282	2724
616.8902	2743
619.3515	2726
621.8122	2726
624.2702	2684
626.7296	2680
629.1863	2709
631.6423	2625
634.1017	2652
636.5563	2717
639.0104	2679
641.4658	2770
643.9185	2775
646.3725	2694
648.8239	2762
651.2766	2688
653.7266	2718
656.176	2641
658.6247	2687
661.0748	2697
663.5242	2724
665.9709	2772
668.417	2791
670.8624	2741
673.3092	2762
675.7533	2746
678.1968	2805
680.6395	2757
683.0817	2735
685.5251	2806
687.9659	2748
690.4061	2845
692.8456	2810
695.2844	2722
697.7226	2784
700.1621	2801
702.599	2859
705.0332	2817
707.4688	2809
709.9036	2807
712.3399	2788
714.7735	2823
717.2044	2836
719.6367	2852
722.0683	2863
724.4993	2790
726.9296	2871
729.3593	2867
731.7883	2890
734.2147	2818
736.6423	2874
739.0714	2875
741.4958	2868
743.9216	2825
746.3447	2881
748.7691	2865
751.1929	2891
753.616	2999
756.0366	2957
758.4584	2929
760.8776	2953
763.2982	2895
765.718	2904
768.1373	2895
770.5539	2941
772.9698	3000
775.3871	2948
777.8038	2934
780.2178	2919
782.6332	2963
785.0459	2928
787.458	2948
789.8714	3035
792.2842	2975
794.6943	3014
797.1038	2909
799.5127	2881
801.9209	2954
804.3324	2936
806.7393	3027
809.1456	2981
811.5513	2950
813.9562	2973
816.3625	3034
818.7663	3035
821.1693	2990
823.5718	3027
825.9735	3017
828.3746	3068
830.7771	2983
833.177	3022
835.5762	2994
837.9747	3053
840.3727	3052
842.772	2999
845.1666	3067
847.5626	3043
849.958	3134
852.3527	3048
854.7488	3109
857.1403	3130
859.5331	3059
861.9253	3073
864.3168	3092
866.7057	3118
869.098	3076
871.4876	3113
873.8746	3041
876.263	3053
878.6487	3087
881.0378	3180
883.4243	3019
885.8081	3053
888.1933	3094
890.5759	3091
892.9598	3174
895.343	3042
897.7256	3065
900.1057	2980
902.4871	3116
904.8659	3031
907.246	3121
909.6254	3135
912.0023	3212
914.3786	3194
916.7562	3201
919.1331	3355
921.5074	3383
923.8831	3391
926.2562	3382
928.6287	3367
931.0005	3324
933.3757	3426
935.7462	3305
938.1162	3279
940.4855	3370
942.8542	3379
945.2242	3490
947.5916	3498
949.9584	3662
952.3266	3739
954.6921	3886
957.0571	3953
959.4233	4193
961.787	4197
964.15	4192
966.5125	4153
968.8742	3897
971.2354	3699
973.5959	3559
975.9559	3449
978.3151	3388
980.6738	3335
983.0338	3332
985.3912	3205
987.7461	3202
990.1022	3192
992.4578	3214
994.8127	3182
997.1689	3197
999.5207	3117
1001.874	3273
1004.226	3202
1006.576	3271
1008.929	3291
1011.28	3202
1013.628	3209
1015.977	3190
1018.324	3242
1020.674	3205
1023.019	3283
1025.366	3199
1027.713	3245
1030.056	3203
1032.399	3267
1034.746	3298
1037.087	3329
1039.431	3257
1041.771	3180
1044.113	3365
1046.454	3281
1048.793	3358
1051.133	3353
1053.471	3290
1055.807	3330
1058.146	3308
1060.483	3337
1062.818	3292
1065.153	3390
1067.489	3358
1069.822	3417
1072.156	3415
1074.488	3387
1076.82	3371
1079.15	3319
1081.48	3306
1083.814	3375
1086.143	3329
1088.471	3339
1090.799	3306
1093.126	3226
1095.452	3225
1097.78	3276
1100.105	3301
1102.43	3326
1104.754	3249
1107.077	3331
1109.4	3262
1111.722	3245
1114.044	3355
1116.365	3220
1118.685	3336
1121.005	3312
1123.324	3189
1125.643	3234
1127.961	3356
1130.278	3262
1132.595	3385
1134.911	3325
1137.226	3271
1139.541	3272
1141.854	3254
1144.167	3267
1146.482	3290
1148.793	3307
1151.105	3269
1153.414	3231
1155.725	3262
1158.033	3278
1160.344	3373
1162.651	3255
1164.959	3254
1167.265	3393
1169.572	3260
1171.878	3317
1174.184	3322
1176.488	3289
1178.79	3434
1181.094	3328
1183.396	3326
1185.699	3290
1188.001	3363
1190.301	3319
1192.6	3292
1194.9	3266
1197.2	3290
1199.497	3283
1201.794	3331
1204.09	3287
1206.387	3339
1208.684	3313
1210.978	3285
1213.272	3349
1215.565	3341
1217.858	3313
1220.15	3263
1222.443	3313
1224.734	3346
1227.024	3364
1229.313	3372
1231.602	3374
1233.892	3444
1236.18	3421
1238.467	3473
1240.754	3419
1243.04	3502
1245.325	3413
1247.612	3473
1249.896	3483
1252.178	3453
1254.461	3465
1256.743	3557
1259.027	3501
1261.308	3439
1263.587	3531
1265.867	3514
1268.146	3467
1270.425	3552
1272.703	3540
1274.981	3540
1277.256	3492
1279.532	3546
1281.808	3492
1284.083	3517
1286.358	3456
1288.63	3495
1290.904	3435
1293.175	3454
1295.449	3452
1297.719	3378
1299.99	3422
1302.259	3454
1304.529	3434
1306.798	3445
1309.065	3429
1311.333	3475
1313.599	3428
1315.866	3435
1318.131	3463
1320.396	3400
1322.66	3450
1324.925	3443
1327.187	3468
1329.448	3540
1331.711	3548
1333.974	3448
1336.234	3493
1338.493	3493
1340.752	3471
1343.01	3436
1345.269	3487
1347.526	3469
1349.784	3394
1352.04	3428
1354.295	3475
1356.552	3442
1358.806	3441
1361.059	3373
1363.312	3467
1365.564	3426
1367.818	3449
1370.069	3477
1372.318	3414
1374.568	3483
1376.817	3511
1379.066	3496
1381.316	3573
1383.564	3501
1385.809	3566
1388.056	3501
1390.301	3538
1392.549	3585
1394.793	3633
1397.036	3624
1399.279	3618
1401.522	3695
1403.763	3713
1406.007	3735
1408.248	3739
1410.487	3651
1412.727	3679
1414.965	3652
1417.205	3727
1419.442	3633
1421.68	3692
1423.915	3657
1426.152	3629
1428.388	3676
1430.623	3677
1432.857	3528
1435.091	3594
1437.323	3653
1439.556	3665
1441.789	3669
1444.019	3735
1446.25	3710
1448.48	3753
1450.708	3673
1452.938	3761
1455.167	3643
1457.394	3705
1459.62	3720
1461.846	3747
1464.073	3665
1466.299	3744
1468.523	3624
1470.746	3596
1472.969	3583
1475.191	3575
1477.415	3521
1479.636	3589
1481.858	3475
1484.078	3506
1486.298	3484
1488.518	3457
1490.736	3472
1492.954	3462
1495.169	3485
1497.386	3461
1499.602	3444
1501.819	3440
1504.034	3402
1506.248	3406
1508.462	3300
1510.675	3377
1512.888	3445
1515.1	3446
1517.311	3445
1519.522	3468
1521.732	3394
1523.942	3461
1526.151	3499
1528.36	3449
1530.566	3441
1532.773	3468
1534.98	3510
1537.187	3412
1539.392	3485
1541.596	3414
1543.801	3400
1546.005	3424
1548.208	3434
1550.411	3466
1552.612	3420
1554.814	3526
1557.013	3507
1559.212	3481
1561.414	3466
1563.612	3515
1565.811	3561
1568.007	3620
1570.203	3512
1572.403	3508
1574.598	3590
1576.792	3527
1578.988	3502
1581.181	3581
1583.376	3497
1585.568	3584
1587.761	3430
1589.952	3556
1592.143	3525
1594.333	3532
1596.524	3585
1598.715	3605
1600.903	3501
1603.091	3604
1605.278	3531
1607.466	3544
1609.652	3618
1611.838	3563
1614.023	3552
1616.207	3553
1618.391	3609
1620.576	3641
1622.759	3588
1624.941	3626
1627.123	3650
1629.304	3665
1631.484	3612
1633.664	3628
1635.844	3651
1638.022	3711
1640.201	3603
1642.38	3690
1644.556	3648
1646.732	3685
1648.908	3745
1651.084	3697
1653.257	3686
1655.433	3722
1657.607	3600
1659.779	3668
1661.951	3655
1664.122	3757
1666.295	3749
1668.467	3721
1670.635	3835
1672.805	3746
1674.973	3729
1677.142	3697
1679.31	3712
1681.478	3607
1683.644	3683
1685.81	3732
1687.975	3598
1690.142	3650
1692.305	3667
1694.468	3710
1696.632	3544
1698.794	3597
1700.957	3630
1703.119	3556
1705.279	3558
1707.439	3589
1709.598	3508
1711.758	3572
1713.917	3540
1716.075	3582
1718.231	3522
1720.388	3651
1722.543	3554
1724.702	3603
1726.856	3612
1729.01	3543
1731.164	3530
1733.317	3523
1735.471	3538
1737.623	3597
1739.774	3629
1741.925	3593
1744.075	3601
1746.225	3526
1748.376	3570
1750.524	3501
1752.672	3596
1754.82	3577
1756.965	3607
1759.113	3625
1761.259	3481
1763.405	3642
1765.549	3615
1767.694	3532
1769.836	3623
1771.981	3653
1774.123	3594
1776.264	3550
1778.405	3580
1780.546	3615
1782.687	3534
1784.827	3534
1786.966	3571
1789.103	3606
1791.242	3548
1793.381	3560
1795.517	3576
1797.653	3649
1799.788	3547
1801.923	3573
1804.057	3647
1806.193	3634
1808.326	3571
1810.457	3537
1812.59	3673
1814.721	3610
1816.855	3567
1818.984	3570
1821.113	3572
1823.244	3595
1825.372	3633
1827.499	3589
1829.63	3493
1831.756	3537
1833.882	3637
1836.007	3588
1838.132	3561
1840.26	3557
1842.384	3631
1844.507	3546
1846.63	3658
1848.752	3481
1850.875	3516
1852.996	3549
1855.118	3532
1857.238	3641
1859.358	3634
1861.477	3501
1863.597	3591
1865.715	3613
1867.832	3590
1869.948	3591
1872.064	3539
1874.181	3570
1876.297	3555
1878.411	3639
1880.526	3598
1882.639	3637
1884.752	3541
1886.865	3558
1888.977	3553
1891.089	3556
1893.2	3625
1895.308	3551
1897.42	3595
1899.53	3568
1901.639	3710
1903.745	3552
1905.853	3587
1907.962	3597
1910.067	3668
1912.174	3629
1914.278	3584
1916.383	3635
1918.486	3634
1920.592	3607
1922.694	3554
1924.797	3539
1926.898	3618
1929	3624
1931.102	3662
1933.203	3706
1935.301	3664
1937.401	3700
1939.499	3645
1941.598	3674
1943.697	3611
1945.793	3647
1947.888	3587
1949.985	3666
1952.08	3628
1954.176	3641
1956.269	3708
1958.364	3629
1960.457	3720
1962.549	3680
1964.642	3655
1966.733	3629
1968.823	3601
1970.913	3713
1973.005	3689
1975.093	3583
1977.184	3594
1979.271	3629
1981.359	3584
1983.446	3655
1985.532	3594
1987.619	3589
1989.705	3603
1991.789	3615
1993.874	3626
1995.956	3687
1998.041	3643
2000.123	3635
2002.206	3572
2004.287	3666
2006.368	3596
2008.449	3633
2010.529	3632
2012.609	3656
2014.688	3581
2016.766	3525
2018.843	3626
2020.922	3574
2022.999	3565
2025.074	3641
2027.15	3585
2029.225	3704
2031.299	3660
2033.375	3624
2035.447	3655
2037.52	3592
2039.592	3621
2041.664	3640
2043.736	3569
2045.807	3670
2047.876	3569
2049.947	3629
2052.015	3653
2054.086	3560
2056.153	3590
2058.221	3610
2060.288	3669
2062.353	3656
2064.42	3618
2066.486	3619
2068.55	3697
2070.614	3575
2072.678	3639
2074.741	3536
2076.805	3648
2078.866	3658
2080.929	3693
2082.99	3654
2085.049	3675
2087.109	3617
2089.17	3618
2091.228	3510
2093.286	3595
2095.344	3615
2097.4	3685
2099.46	3559
2101.516	3589
2103.572	3722
2105.626	3590
2107.679	3679
2109.735	3621
2111.788	3649
2113.841	3629
2115.894	3652
2117.945	3583
2119.997	3703
2122.049	3644
2124.1	3682
2126.148	3677
2128.197	3680
2130.246	3583
2132.296	3648
2134.342	3588
2136.39	3724
2138.437	3647
2140.483	3644
2142.527	3639
2144.574	3674
2146.619	3575
2148.661	3623
2150.705	3631
2152.747	3597
2154.792	3562
2156.832	3711
2158.874	3653
2160.915	3589
2162.954	3692
2164.995	3680
2167.034	3586
2169.072	3606
2171.111	3575
2173.148	3566
2175.186	3607
2177.223	3625
2179.258	3581
2181.294	3657
2183.328	3513
2185.362	3652
2187.398	3607
2189.431	3591
2191.463	3585
2193.495	3569
2195.528	3556
2197.56	3611
2199.59	3613
2201.62	3547
2203.649	3529
2205.678	3556
2207.708	3605
2209.737	3586
2211.764	3615
2213.791	3587
2215.817	3497
2217.843	3624
2219.87	3540
2221.895	3556
2223.919	3549
2225.942	3584
2227.966	3610
2229.988	3538
2232.012	3487
2234.032	3615
2236.054	3545
2238.074	3528
2240.095	3551
2242.116	3534
2244.135	3550
2246.153	3562
2248.171	3615
2250.188	3484
2252.208	3605
2254.223	3575
2256.239	3609
2258.255	3641
2260.269	3636
2262.283	3624
2264.3	3531
2266.312	3571
2268.325	3606
2270.336	3538
2272.349	3566
2274.362	3538
2276.372	3579
2278.383	3537
2280.392	3576
2282.402	3516
2284.409	3594
2286.418	3572
2288.427	3583
2290.433	3565
2292.441	3517
2294.446	3654
2296.453	3618
2298.459	3559
2300.463	3567
2302.466	3634
2304.471	3550
2306.475	3586
2308.477	3432
2310.478	3511
2312.481	3572
2314.481	3552
2316.481	3541
2318.482	3574
2320.482	3524
2322.48	3605
2324.48	3593
2326.478	3545
2328.476	3556
2330.473	3592
2332.469	3537
2334.465	3568
2336.46	3604
2338.454	3505
2340.45	3579
2342.444	3560
2344.437	3491
2346.43	3607
2348.421	3550
2350.414	3544
2352.405	3546
2354.396	3566
2356.386	3531
2358.376	3556
2360.366	3506
2362.355	3455
2364.343	3515
2366.331	3529
2368.317	3580
2370.304	3491
2372.292	3518
2374.278	3473
2376.262	3563
2378.247	3479
2380.23	3521
2382.216	3604
2384.199	3534
2386.181	3502
2388.163	3555
2390.144	3505
2392.127	3500
2394.107	3434
2396.087	3487
2398.066	3471
2400.046	3534
2402.023	3563
2404.004	3463
2405.981	3517
2407.957	3540
2409.934	3496
2411.91	3459
2413.886	3483
2415.862	3476
2417.836	3537
2419.809	3558
2421.784	3518
2423.756	3410
2425.73	3447
2427.701	3378
2429.672	3468
2431.644	3458
2433.615	3479
2435.586	3480
2437.555	3493
2439.523	3513
2441.491	3446
2443.459	3496
2445.428	3532
2447.395	3446
2449.361	3502
2451.327	3488
2453.292	3570
2455.257	3458
2457.223	3536
2459.187	3483
2461.15	3451
2463.113	3493
2465.076	3443
2467.039	3523
2468.999	3434
2470.96	3415
2472.921	3468
2474.881	3401
2476.841	3489
2478.8	3446
2480.759	3406
2482.717	3457
2484.675	3436
2486.63	3424
2488.589	3560
2490.545	3488
2492.5	3481
2494.455	3494
2496.408	3452
2498.364	3424
2500.318	3468
2502.27	3396
2504.223	3465
2506.174	3452
2508.126	3425
2510.078	3468
2512.03	3469
2513.979	3510
2515.927	3394
2517.877	3520
2519.826	3488
2521.775	3499
2523.722	3514
2525.668	3451
2527.616	3470
2529.561	3397
2531.508	3400
2533.452	3426
2535.398	3445
2537.342	3463
2539.284	3376
2541.229	3442
2543.173	3451
2545.114	3488
2547.055	3507
2548.996	3456
2550.938	3412
2552.878	3430
2554.817	3372
2556.756	3451
2558.695	3408
2560.633	3429
2562.572	3433
2564.509	3459
2566.445	3442
2568.382	3365
2570.317	3476
2572.254	3475
2574.189	3446
2576.123	3504
2578.057	3373
2579.99	3364
2581.923	3363
2583.855	3413
2585.788	3496
2587.719	3447
2589.65	3438
2591.579	3452
2593.511	3421
2595.44	3419
2597.37	3500
2599.297	3456
2601.225	3467
2603.153	3476
2605.08	3494
2607.007	3396
2608.932	3446
2610.858	3414
2612.782	3476
2614.709	3447
2616.632	3555
2618.556	3472
2620.478	3425
2622.401	3440
2624.324	3443
2626.247	3451
2628.167	3519
2630.088	3464
2632.008	3408
2633.928	3515
2635.848	3439
2637.766	3439
2639.684	3540
2641.603	3518
2643.519	3454
2645.437	3432
2647.353	3428
2649.27	3437
2651.184	3511
2653.099	3396
2655.014	3438
2656.928	3471
2658.842	3477
2660.755	3455
2662.667	3463
2664.579	3508
2666.491	3524
2668.402	3483
2670.312	3556
2672.222	3422
2674.132	3492
2676.042	3399
2677.951	3501
2679.859	3457
2681.766	3485
2683.674	3439
2685.582	3441
2687.488	3411
2689.392	3511
2691.298	3453
2693.202	3463
2695.107	3439
2697.012	3405
2698.914	3456
2700.817	3437
2702.72	3444
2704.622	3419
2706.524	3468
2708.425	3395
2710.326	3435
2712.225	3417
2714.125	3412
2716.024	3461
2717.923	3380
2719.822	3394
2721.719	3460
2723.616	3366
2725.512	3480
2727.41	3460
2729.305	3427
2731.201	3462
2733.095	3415
2734.99	3417
2736.884	3520
2738.778	3436
2740.67	3467
2742.562	3481
2744.455	3487
2746.346	3472
2748.238	3444
2750.129	3496
2752.018	3422
2753.907	3386
2755.797	3475
2757.687	3447
2759.575	3321
2761.462	3414
2763.349	3427
2765.237	3403
2767.124	3408
2769.009	3462
2770.894	3380
2772.779	3450
2774.663	3422
2776.547	3492
2778.431	3451
2780.314	3476
2782.197	3419
2784.078	3472
2785.96	3467
2787.842	3486
2789.723	3498
2791.603	3472
2793.483	3401
2795.362	3426
2797.241	3419
2799.121	3467
2800.997	3430
2802.874	3474
2804.751	3388
2806.628	3470
2808.506	3549
2810.38	3519
2812.255	3416
2814.13	3471
2816.003	3421
2817.878	3453
2819.752	3544
2821.623	3464
2823.496	3455
2825.368	3492
2827.238	3463
2829.111	3498
2830.98	3425
2832.851	3404
2834.719	3543
2836.589	3449
2838.458	3450
2840.327	3498
2842.193	3518
2844.061	3577
2845.927	3482
2847.794	3518
2849.66	3483
2851.525	3575
2853.39	3517
2855.254	3548
2857.117	3556
2858.983	3565
2860.845	3600
2862.707	3633
2864.569	3632
2866.431	3619
2868.293	3717
2870.154	3655
2872.013	3783
2873.873	3719
2875.733	3760
2877.592	3928
2879.451	3894
2881.309	3930
2883.166	3990
2885.022	4016
2886.879	4020
2888.736	4064
2890.591	3985
2892.446	4090
2894.301	4098
2896.155	4060
2898.009	4026
2899.863	4081
2901.716	4114
2903.568	4010
2905.419	4042
2907.27	4025
2909.123	4109
2910.973	4026
2912.824	4133
2914.673	4156
2916.521	4155
2918.372	4235
2920.22	4198
2922.067	4258
2923.914	4306
2925.761	4238
2927.607	4368
2929.455	4402
2931.301	4464
2933.144	4468
2934.99	4486
2936.833	4585
2938.678	4637
2940.522	4527
2942.364	4608
2944.207	4699
2946.048	4777
2947.891	4950
2949.731	4947
2951.571	4902
2953.412	4849
2955.25	4829
2957.09	4800
2958.93	4729
2960.767	4774
2962.606	4618
2964.443	4639
2966.279	4514
2968.116	4426
2969.953	4476
2971.788	4362
2973.623	4325
2975.457	4272
2977.292	4187
2979.127	4186
2980.959	4204
2982.792	4117
2984.624	3947
2986.455	4077
2988.288	3990
2990.119	3995
2991.949	3909
2993.779	3923
2995.608	3865
2997.439	3901
2999.268	3808
3001.096	3740
3002.923	3799
3004.751	3723
3006.578	3707
3008.406	3684
3010.232	3628
3012.057	3617
3013.883	3588
3015.706	3623
3017.532	3594
3019.356	3508
3021.179	3594
3023.002	3523
3024.823	3487
3026.646	3418
3028.469	3439
3030.289	3436
3032.11	3464
3033.93	3443
3035.749	3325
3037.57	3458
3039.39	3397
3041.207	3424
3043.026	3435
3044.842	3440
3046.661	3349
3048.477	3431
3050.294	3482
3052.109	3347
3053.925	3398
3055.739	3399
3057.555	3372
3059.368	3381
3061.181	3380
3062.995	3365
3064.807	3410
3066.62	3386
3068.433	3384
3070.243	3384
3072.054	3353
3073.865	3319
3075.675	3406
3077.485	3394
3079.293	3326
3081.102	3358
3082.911	3345
3084.719	3312
3086.527	3369
3088.333	3334
3090.139	3326
3091.945	3257
3093.75	3343
3095.557	3260
3097.361	3256
3099.165	3330
3100.969	3301
3102.772	3263
3104.575	3252
3106.379	3262
3108.181	3279
3109.982	3266
3111.783	3270
3113.584	3198
3115.386	3234
3117.186	3281
3118.985	3201
3120.783	3235
3122.582	3309
3124.381	3283
3126.179	3262
3127.975	3278
3129.772	3183
3131.569	3245
3133.365	3220
3135.161	3213
3136.956	3295
3138.751	3193
3140.544	3243
3142.338	3246
3144.132	3165
3145.925	3247
3147.717	3219
3149.509	3202
3151.301	3219
3153.091	3212
3154.884	3154
3156.673	3250
3158.462	3219
3160.252	3222
3162.041	3200
3163.831	3252
3165.618	3248
3167.405	3152
3169.193	3228
3170.979	3247
3172.767	3228
3174.553	3244
3176.338	3204
3178.123	3187
3179.907	3173
3181.692	3204
3183.477	3226
3185.259	3160
3187.042	3223
3188.824	3199
3190.607	3200
3192.389	3187
3194.17	3188
3195.951	3235
3197.73	3200
3199.51	3227
3201.289	3230
3203.07	3134
3204.848	3258
3206.626	3243
3208.403	3132
3210.18	3282
3211.959	3194
3213.735	3196
3215.511	3245
3217.285	3218
3219.06	3247
3220.836	3204
3222.611	3212
3224.384	3226
3226.158	3269
3227.929	3218
3229.702	3168
3231.476	3261
3233.248	3196
3235.018	3207
3236.789	3243
3238.56	3238
3240.33	3210
3242.1	3224
3243.869	3269
3245.637	3156
3247.405	3306
3249.172	3215
3250.941	3312
3252.707	3233
3254.474	3293
3256.24	3235
3258.006	3240
3259.772	3289
3261.537	3182
3263.301	3255
3265.065	3332
3266.828	3245
3268.592	3264
3270.355	3218
3272.117	3241
3273.878	3147
3275.64	3344
3277.401	3202
3279.162	3311
3280.922	3272
3282.682	3308
3284.441	3209
3286.199	3175
3287.959	3203
3289.716	3166
3291.475	3220
3293.232	3353
3294.988	3332
3296.744	3142
3298.501	3222
3300.256	3174
3302.011	3227
3303.766	3248
3305.52	3267
3307.275	3213
3309.028	3228
3310.781	3171
3312.533	3301
3314.285	3273
3316.038	3211
3317.789	3187
3319.54	3176
3321.289	3195
3323.039	3228
3324.789	3256
3326.539	3267
3328.288	3256
3330.035	3198
3331.783	3230
3333.531	3143
3335.28	3250
3337.025	3211
3338.771	3262
3340.518	3141
3342.262	3203
3344.009	3160
3345.753	3170
3347.497	3197
3349.24	3229
3350.983	3219
3352.726	3168
3354.469	3164
3356.212	3132
3357.952	3216
3359.694	3074
3361.434	3145
3363.176	3170
3364.916	3173
3366.654	3169
3368.394	3128
3370.132	3203
3371.871	3167
3373.61	3102
3375.346	3095
3377.083	3099
3378.82	3140
3380.556	3170
3382.292	3154
3384.027	3148
3385.763	3123
3387.497	3066
3389.231	3121
3390.965	3066
3392.698	3073
3394.431	3082
3396.164	3059
3397.896	3210
3399.627	3091
3401.36	3163
3403.09	3110
3404.82	3026
3406.55	3140
3408.279	3077
3410.01	3137
3411.738	3095
3413.467	3070
3415.194	3031
3416.92	3114
3418.647	3087
3420.375	3038
3422.102	3035
3423.827	3035
3425.553	3032
3427.277	3039
3429.003	3078
3430.727	3109
3432.451	3080
3434.173	3067
3435.896	3072
3437.62	3062
3439.343	3072
3441.063	3009
3442.785	3050
3444.505	3046
3446.226	3037
3447.948	2994
3449.666	3012
3451.386	3040
3453.104	3053
3454.823	3105
3456.541	3019
3458.259	2974
3459.976	2973
3461.693	2952
3463.408	2992
3465.125	3026
3466.841	2981
3468.556	2964
3470.271	3044
3471.985	2975
3473.698	2928
3475.414	2926
3477.126	2917
3478.838	2952
3480.55	2973
3482.263	2911
3483.975	2931
3485.686	2929
3487.396	2871
3489.106	2875
3490.817	2926
3492.526	2966
3494.236	2946
3495.944	2955
3497.652	2896
3499.359	2908
3501.066	2926
3502.775	2899
3504.481	2852
3506.187	2896
3507.893	2887
3509.598	2869
3511.304	2919
3513.009	2916
3514.713	2897
3516.417	2929
3518.12	2895
3519.821	2843
3521.525	2841
3523.228	2871
3524.929	2937
3526.631	2845
3528.33	2815
3530.032	2788
3531.733	2830
3533.433	2871
3535.131	2876
3536.83	2815
3538.529	2772
3540.227	2849
3541.925	2823
3543.623	2820
3545.319	2787
3547.016	2783
3548.712	2801
3550.408	2777
3552.103	2877
3553.798	2797
3555.491	2779
3557.188	2761
3558.88	2793
3560.574	2749
3562.266	2768
3563.959	2809
3565.651	2763
3567.343	2761
3569.035	2716
3570.725	2787
3572.415	2819
3574.106	2745
3575.797	2776
3577.485	2747
3579.174	2760
3580.863	2715
3582.551	2762
3584.238	2747
3585.926	2674
3587.613	2730
3589.3	2644
3590.986	2717
3592.671	2712
3594.357	2646
3596.042	2725
3597.726	2711
3599.41	2716
3601.094	2677
3602.778	2679
3604.461	2648
3606.143	2619
3607.825	2749
3609.507	2699
3611.188	2626
3612.87	2642
3614.551	2674
3616.229	2619
3617.909	2592
3619.589	2635
3621.269	2643
3622.948	2640
3624.625	2635
3626.302	2655
3627.98	2629
3629.657	2593
3631.334	2619
3633.01	2592
3634.686	2554
3636.361	2598
3638.036	2611
3639.712	2608
3641.385	2602
3643.06	2579
3644.732	2613
3646.405	2535
3648.08	2562
3649.751	2601
3651.424	2598
3653.094	2566
3654.766	2582
3656.436	2636
3658.106	2574
3659.777	2552
3661.446	2618
3663.115	2500
3664.783	2567
3666.452	2585
3668.121	2589
3669.788	2505
3671.454	2532
3673.121	2467
3674.789	2550
3676.455	2533
3678.12	2573
3679.784	2497
3681.45	2562
3683.114	2531
3684.779	2573
3686.442	2483
3688.105	2520
3689.768	2528
3691.43	2507
3693.093	2494
3694.754	2461
3696.415	2563
3698.076	2477
3699.736	2573
3701.396	2497
3703.057	2522
3704.716	2441
3706.375	2463
3708.034	2457
3709.692	2495
3711.351	2454
3713.008	2459
3714.665	2506
3716.321	2483
3717.977	2485
3719.634	2509
3721.29	2468
3722.945	2487
3724.598	2474
3726.253	2457
3727.907	2474
3729.561	2463
3731.214	2519
3732.867	2467
3734.518	2510
3736.171	2511
3737.824	2481
3739.474	2486
3741.125	2467
3742.775	2518
3744.425	2486
3746.074	2457
3747.725	2430
3749.373	2513
3751.022	2482
3752.669	2466
3754.318	2435
3755.966	2539
3757.612	2428
3759.259	2481
3760.905	2468
3762.55	2452
3764.197	2464
3765.842	2486
3767.486	2443
3769.131	2432
3770.774	2396
3772.417	2443
3774.061	2395
3775.705	2493
3777.347	2468
3778.988	2444
3780.629	2444
3782.271	2399
3783.912	2471
3785.552	2447
3787.192	2488
3788.831	2415
3790.472	2368
3792.112	2398
3793.75	2416
3795.388	2458
3797.024	2355
3798.661	2459
3800.3	2397
3801.936	2407
3803.572	2446
3805.208	2442
3806.844	2445
3808.48	2374
3810.115	2387
3811.748	2391
3813.382	2373
3815.016	2405
3816.649	2435
3818.283	2424
3819.914	2419
3821.547	2401
3823.178	2401
3824.809	2336
3826.441	2350
3828.072	2348
3829.701	2397
3831.331	2424
3832.96	2360
3834.591	2337
3836.219	2446
3837.847	2310
3839.475	2398
3841.102	2355
3842.729	2361
3844.357	2400
3845.984	2394
3847.609	2362
3849.234	2349
3850.86	2338
3852.485	2336
3854.11	2294
3855.734	2375
3857.357	2348
3858.981	2317
3860.603	2331
3862.227	2394
3863.848	2323
3865.471	2354
3867.092	2338
3868.713	2350
3870.334	2340
3871.954	2354
3873.575	2293
3875.194	2392
3876.813	2306
3878.433	2335
3880.051	2421
3881.669	2327
3883.286	2338
3884.904	2336
3886.52	2331
3888.138	2319
3889.754	2286
3891.37	2360
3892.985	2314
3894.6	2298
3896.216	2329
3897.831	2344
3899.444	2333
3901.058	2303
3902.67	2329
3904.283	2304
3905.897	2324
3907.509	2331
3909.121	2248
3910.731	2292
3912.342	2378
3913.954	2265
3915.563	2305
3917.174	2254
3918.783	2297
3920.391	2312
3922.002	2280
3923.611	2355
3925.218	2302
3926.826	2286
3928.432	2293
3930.039	2345
3931.647	2289
3933.253	2334
3934.859	2257
3936.464	2311
3938.068	2245
3939.675	2355
3941.278	2282
3942.883	2347
3944.486	2290
3946.089	2309
3947.692	2318
3949.295	2249
3950.898	2246
3952.499	2321
3954.1	2274
3955.7	2270
3957.303	2296
3958.903	2279
3960.502	2318
3962.101	2264
3963.7	2280
3965.301	2236
3966.899	2246
3968.497	2221
3970.094	2221
3971.691	2199
3973.288	2214
3974.885	2249
3976.481	2269
3978.077	2264
3979.672	2230
3981.267	2254
3982.863	2223
3984.457	2226
3986.051	2209
3987.645	2183
3989.238	2304
3990.831	2229
3992.425	2204
3994.017	2247
3995.607	2237
3997.199	2230
3998.79	2215
4000.382	2189
4001.973	2233
4003.561	2243
4005.151	2193
4006.741	2186
4008.331	2187
4009.918	2128
4011.507	2162
4013.095	2172
4014.681	2176
4016.269	2187
4017.856	2169
4019.443	2279
4021.028	2130
4022.614	2132
4024.199	2174
4025.785	2181
4027.37	2198
4028.953	2148
4030.536	2162
4032.12	2163
4033.704	2126
4035.287	2187
4036.869	2151
4038.45	2146
4040.032	2159
4041.613	2144
4043.195	2134
4044.776	2158
4046.356	2151
4047.935	2204
4049.515	2157
4051.095	2105
4052.674	2098
4054.251	2183
4055.829	2131
4057.406	2112
4058.985	2153
4060.562	2105
4062.139	2134
4063.715	2153
4065.29	2179
4066.865	2154
4068.442	2093
4070.016	2119
4071.59	2121
4073.164	2111
4074.738	2071
4076.312	2125
4077.885	2130
4079.458	2125
4081.03	2133
4082.602	2117
4084.173	2105
4085.745	2116
4087.315	2137
4088.886	2070
4090.456	2027
4092.026	2103
4093.596	2117
4095.165	2123
4096.734	2128
4098.301	2141
4099.869	2120
4101.437	2106
4103.006	2119
4104.572	2075
4106.139	2054
4107.704	2093
4109.27	2022
4110.837	2126
4112.401	2109
4113.966	2069
4115.53	2100
4117.094	2103
4118.659	2061
4120.223	2107
4121.785	2090
4123.347	2037
4124.909	2059
4126.471	2093
4128.034	2032
4129.595	2047
4131.155	2085
4132.716	2018
4134.275	2077
4135.836	2055
4137.395	2009
4138.955	2045
4140.513	2080
4142.071	2075
4143.628	2059
4145.188	1996
4146.745	2003
4148.302	2027
4149.858	2099
4151.414	2022
4152.971	1993
4154.526	2029
4156.081	2031
4157.635	2062
4159.189	2012
4160.745	2069
4162.298	2098
4163.852	2000
4165.405	2031
4166.957	2032
4168.51	2077
4170.063	1969
4171.614	2025
4173.166	2068
4174.717	2026
4176.267	2024
4177.817	2027
4179.368	1966
4180.917	1992
4182.466	1969
4184.016	2009
4185.564	1994
4187.112	2035
4188.66	2009
4190.207	2008
4191.754	1971
4193.301	1984
4194.848	2008
4196.394	2000
4197.94	2018
4199.484	1975
4201.03	1947
4202.575	1980
4204.12	1963
4205.663	2001
4207.207	2017
4208.75	1934
4210.292	1927
4211.836	2000
4213.378	1913
4214.92	1999
4216.46	1968
4218.002	1966
4219.544	1942
4221.083	1954
4222.625	1939
4224.164	1990
4225.703	2006
4227.244	1947
4228.782	1949
4230.32	1973
4231.857	1963
4233.395	1991
4234.933	1967
4236.471	1933
4238.007	1972
4239.542	2025
4241.078	1993
4242.614	1885
4244.15	1867
4245.685	1938
4247.219	1960
4248.753	1930
4250.287	1941
4251.82	1939
4253.354	1978
4254.887	1966
4256.419	1961
4257.951	1945
4259.483	1886
4261.016	1941
4262.547	1981
4264.078	1948
4265.608	1957
4267.137	1960
4268.668	1968
4270.197	1932
4271.727	1948
4273.254	1926
4274.783	1940
4276.311	1940
4277.84	2002
4279.366	1918
4280.894	1963
4282.42	1893
4283.946	1893
4285.473	1909
4286.998	1889
4288.523	1925
4290.047	1920
4291.572	1955
4293.096	1925
4294.622	1877
4296.144	1905
4297.668	1893
4299.19	1905
4300.713	1904
4302.236	1902
4303.758	1876
4305.279	1948
4306.799	1896
4308.321	1968
4309.842	1893
4311.361	1892
4312.882	1877
4314.401	1874
