400.0961	2358
402.6185	2346
405.1424	2332
407.6635	2369
410.1838	2366
412.7035	2317
415.2225	2340
417.7388	2414
420.2585	2429
422.7754	2440
425.2917	2455
427.8072	2467
430.3221	2472
432.8363	2465
435.3498	2530
437.8626	2432
440.3727	2471
442.8841	2551
445.3969	2534
447.907	2492
450.4142	2488
452.9229	2494
455.4289	2528
457.9362	2430
460.4449	2458
462.9488	2508
465.454	2522
467.9566	2480
470.4604	2555
472.9637	2507
475.4662	2477
477.966	2473
480.4671	2490
482.9656	2411
485.4633	2493
487.9645	2462
490.4608	2524
492.9566	2527
495.4536	2513
497.948	2521
500.4437	2475
502.9387	2476
505.431	2523
507.9226	2535
510.4136	2573
512.9079	2559
515.3975	2566
517.8864	2530
520.3746	2518
522.8622	2530
525.3491	2635
527.8394	2579
530.3249	2487
532.8098	2602
535.2939	2524
537.7774	2584
540.2623	2523
542.7444	2597
545.2259	2544
547.7067	2566
550.1868	2537
552.6683	2574
555.147	2609
557.6231	2615
560.1005	2616
562.5773	2573
565.0534	2660
567.5308	2591
570.0056	2617
572.4776	2594
574.951	2589
577.4237	2673
579.8978	2665
582.3671	2634
584.8378	2541
587.3079	2650
589.7773	2651
592.244	2652
594.714	2659
597.1793	2622
599.6461	2695
602.1121	2630
604.5754	2685
607.0421	2665
609.5042	2550
611.9675	2631
614.4282	2662
616.8902	2649
619.3515	2672
621.8122	2566
624.2702	2700
626.7296	2625
629.1863	2595
631.6423	2583
634.1017	2658
636.5563	2615
639.0104	2599
641.4658	2595
643.9185	2603
646.3725	2604
648.8239	2634
651.2766	2623
653.7266	2635
656.176	2607
658.6247	2691
661.0748	2570
663.5242	2719
665.9709	2717
668.417	2670
670.8624	2639
673.3092	2653
675.7533	2760
678.1968	2696
680.6395	2668
683.0817	2722
685.5251	2698
687.9659	2676
690.4061	2673
692.8456	2685
695.2844	2608
697.7226	2718
700.1621	2736
702.599	2723
705.0332	2735
707.4688	2733
709.9036	2791
712.3399	2685
714.7735	2761
717.2044	2764
719.6367	2753
722.0683	2771
724.4993	2797
726.9296	2856
729.3593	2710
731.7883	2759
734.2147	2822
736.6423	2782
739.0714	2714
741.4958	2791
743.9216	2792
746.3447	2810
748.7691	2820
751.1929	2843
753.616	2807
756.0366	2893
758.4584	2872
760.8776	2827
763.2982	2896
765.718	2870
768.1373	2931
770.5539	2859
772.9698	2940
775.3871	2851
777.8038	2872
780.2178	2838
782.6332	2918
785.0459	2823
787.458	2860
789.8714	2837
792.2842	2852
794.6943	2863
797.1038	2865
799.5127	2869
801.9209	2839
804.3324	2900
806.7393	2931
809.1456	2892
811.5513	2946
813.9562	2957
816.3625	2936
818.7663	2873
821.1693	2927
823.5718	2959
825.9735	3000
828.3746	2830
830.7771	2902
833.177	2976
835.5762	2908
837.9747	2917
840.3727	2894
842.772	2982
845.1666	2926
847.5626	3016
849.958	3044
852.3527	2994
854.7488	3008
857.1403	3045
859.5331	3031
861.9253	2976
864.3168	2927
866.7057	2984
869.098	3003
871.4876	2960
873.8746	2941
876.263	3032
878.6487	2990
881.0378	2971
883.4243	2909
885.8081	3036
888.1933	2926
890.5759	2994
892.9598	2972
895.343	2973
897.7256	2952
900.1057	3004
902.4871	2969
904.8659	3043
907.246	3010
909.6254	3003
912.0023	3034
914.3786	3127
916.7562	3057
919.1331	3092
921.5074	3126
923.8831	3220
926.2562	3122
928.6287	3235
931.0005	3155
933.3757	3241
935.7462	3258
938.1162	3259
940.4855	3313
942.8542	3222
945.2242	3200
947.5916	3297
949.9584	3333
952.3266	3471
954.6921	3585
957.0571	3774
959.4233	3870
961.787	3840
964.15	3880
966.5125	3665
968.8742	3635
971.2354	3538
973.5959	3419
975.9559	3236
978.3151	3172
980.6738	3187
983.0338	3183
985.3912	3107
987.7461	3236
990.1022	3120
992.4578	3202
994.8127	3128
997.1689	3159
999.5207	3179
1001.874	3178
1004.226	3105
1006.576	3147
1008.929	3143
1011.28	3117
1013.628	3139
1015.977	3104
1018.324	3102
1020.674	3161
1023.019	3118
1025.366	3200
1027.713	3101
1030.056	3133
1032.399	3148
1034.746	3136
1037.087	3201
1039.431	3132
1041.771	3239
1044.113	3178
1046.454	3228
1048.793	3236
1051.133	3163
1053.471	3191
1055.807	3218
1058.146	3178
1060.483	3172
1062.818	3246
1065.153	3215
1067.489	3256
1069.822	3331
1072.156	3188
1074.488	3257
1076.82	3322
1079.15	3206
1081.48	3233
1083.814	3204
1086.143	3139
1088.471	3222
1090.799	3258
1093.126	3162
1095.452	3175
1097.78	3222
1100.105	3176
1102.43	3246
1104.754	3194
1107.077	3210
1109.4	3233
1111.722	3237
1114.044	3258
1116.365	3103
1118.685	3235
1121.005	3213
1123.324	3215
1125.643	3230
1127.961	3301
1130.278	3241
1132.595	3226
1134.911	3284
1137.226	3195
1139.541	3202
1141.854	3156
1144.167	3151
1146.482	3220
1148.793	3216
1151.105	3191
1153.414	3217
1155.725	3177
1158.033	3174
1160.344	3201
1162.651	3279
1164.959	3224
1167.265	3280
1169.572	3249
1171.878	3238
1174.184	3263
1176.488	3254
1178.79	3233
1181.094	3202
1183.396	3233
1185.699	3250
1188.001	3300
1190.301	3237
1192.6	3225
1194.9	3134
1197.2	3265
1199.497	3253
1201.794	3258
1204.09	3275
1206.387	3202
1208.684	3273
1210.978	3283
1213.272	3230
1215.565	3240
1217.858	3268
1220.15	3286
1222.443	3291
1224.734	3276
1227.024	3329
1229.313	3310
1231.602	3306
1233.892	3322
1236.18	3401
1238.467	3390
1240.754	3470
1243.04	3346
1245.325	3387
1247.612	3374
1249.896	3397
1252.178	3490
1254.461	3430
1256.743	3501
1259.027	3416
1261.308	3367
1263.587	3378
1265.867	3388
1268.146	3396
1270.425	3417
1272.703	3435
1274.981	3401
1277.256	3383
1279.532	3330
1281.808	3354
1284.083	3366
1286.358	3300
1288.63	3314
1290.904	3246
1293.175	3352
1295.449	3383
1297.719	3355
1299.99	3361
1302.259	3369
1304.529	3304
1306.798	3321
1309.065	3354
1311.333	3251
1313.599	3301
1315.866	3333
1318.131	3370
1320.396	3422
1322.66	3329
1324.925	3366
1327.187	3390
1329.448	3434
1331.711	3410
1333.974	3336
1336.234	3443
1338.493	3443
1340.752	3388
1343.01	3439
1345.269	3403
1347.526	3463
1349.784	3375
1352.04	3436
1354.295	3277
1356.552	3428
1358.806	3322
1361.059	3406
1363.312	3399
1365.564	3298
1367.818	3382
1370.069	3349
1372.318	3406
1374.568	3361
1376.817	3409
1379.066	3367
1381.316	3441
1383.564	3361
1385.809	3435
1388.056	3442
1390.301	3532
1392.549	3453
1394.793	3501
1397.036	3518
1399.279	3530
1401.522	3580
1403.763	3553
1406.007	3606
1408.248	3506
1410.487	3472
1412.727	3483
1414.965	3471
1417.205	3446
1419.442	3525
1421.68	3511
1423.915	3455
1426.152	3511
1428.388	3575
1430.623	3544
1432.857	3555
1435.091	3504
1437.323	3474
1439.556	3509
1441.789	3553
1444.019	3570
1446.25	3611
1448.48	3644
1450.708	3599
1452.938	3593
1455.167	3654
1457.394	3554
1459.62	3519
1461.846	3529
1464.073	3589
1466.299	3501
1468.523	3502
1470.746	3631
1472.969	3462
1475.191	3450
1477.415	3416
1479.636	3497
1481.858	3483
1484.078	3441
1486.298	3478
1488.518	3474
1490.736	3402
1492.954	3419
1495.169	3436
1497.386	3392
1499.602	3388
1501.819	3409
1504.034	3347
1506.248	3434
1508.462	3398
1510.675	3405
1512.888	3364
1515.1	3422
1517.311	3396
1519.522	3381
1521.732	3395
1523.942	3395
1526.151	3383
1528.36	3444
1530.566	3450
1532.773	3419
1534.98	3436
1537.187	3446
1539.392	3442
1541.596	3429
1543.801	3460
1546.005	3517
1548.208	3419
1550.411	3448
1552.612	3438
1554.814	3504
1557.013	3502
1559.212	3430
1561.414	3575
1563.612	3460
1565.811	3453
1568.007	3426
1570.203	3539
1572.403	3516
1574.598	3501
1576.792	3489
1578.988	3487
1581.181	3567
1583.376	3491
1585.568	3416
1587.761	3504
1589.952	3553
1592.143	3518
1594.333	3461
1596.524	3451
1598.715	3546
1600.903	3507
1603.091	3503
1605.278	3466
1607.466	3541
1609.652	3570
1611.838	3501
1614.023	3549
1616.207	3529
1618.391	3512
1620.576	3542
1622.759	3574
1624.941	3558
1627.123	3573
1629.304	3534
1631.484	3664
1633.664	3565
1635.844	3502
1638.022	3649
1640.201	3554
1642.38	3568
1644.556	3656
1646.732	3579
1648.908	3558
1651.084	3577
1653.257	3587
1655.433	3636
1657.607	3612
1659.779	3591
1661.951	3595
1664.122	3581
1666.295	3655
1668.467	3639
1670.635	3667
1672.805	3578
1674.973	3673
1677.142	3618
1679.31	3586
1681.478	3590
1683.644	3650
1685.81	3536
1687.975	3579
1690.142	3613
1692.305	3505
1694.468	3558
1696.632	3516
1698.794	3657
1700.957	3526
1703.119	3560
1705.279	3561
1707.439	3486
1709.598	3543
1711.758	3482
1713.917	3511
1716.075	3506
1718.231	3527
1720.388	3538
1722.543	3540
1724.702	3553
1726.856	3444
1729.01	3574
1731.164	3563
1733.317	3521
1735.471	3517
1737.623	3568
1739.774	3538
1741.925	3595
1744.075	3512
1746.225	3569
1748.376	3537
1750.524	3541
1752.672	3558
1754.82	3583
1756.965	3531
1759.113	3587
1761.259	3539
1763.405	3488
1765.549	3651
1767.694	3464
1769.836	3520
1771.981	3553
1774.123	3528
1776.264	3528
1778.405	3548
1780.546	3544
1782.687	3558
1784.827	3550
1786.966	3568
1789.103	3593
1791.242	3583
1793.381	3598
1795.517	3550
1797.653	3501
1799.788	3562
1801.923	3610
1804.057	3630
1806.193	3625
1808.326	3626
1810.457	3616
1812.59	3586
1814.721	3577
1816.855	3532
1818.984	3520
1821.113	3616
1823.244	3533
1825.372	3542
1827.499	3600
1829.63	3454
1831.756	3542
1833.882	3534
1836.007	3557
1838.132	3511
1840.26	3550
1842.384	3573
1844.507	3558
1846.63	3528
1848.752	3518
1850.875	3459
1852.996	3508
1855.118	3559
1857.238	3520
1859.358	3471
1861.477	3505
1863.597	3566
1865.715	3524
1867.832	3568
1869.948	3509
1872.064	3429
1874.181	3500
1876.297	3516
1878.411	3548
1880.526	3513
1882.639	3669
1884.752	3580
1886.865	3602
1888.977	3515
1891.089	3538
1893.2	3589
1895.308	3558
1897.42	3626
1899.53	3574
1901.639	3481
1903.745	3564
1905.853	3621
1907.962	3543
1910.067	3566
1912.174	3528
1914.278	3589
1916.383	3566
1918.486	3602
1920.592	3552
1922.694	3620
1924.797	3582
1926.898	3652
1929	3590
1931.102	3590
1933.203	3537
1935.301	3618
1937.401	3686
1939.499	3632
1941.598	3571
1943.697	3637
1945.793	3637
1947.888	3600
1949.985	3551
1952.08	3601
1954.176	3661
1956.269	3626
1958.364	3529
1960.457	3572
1962.549	3638
1964.642	3545
1966.733	3566
1968.823	3543
1970.913	3610
1973.005	3597
1975.093	3540
1977.184	3558
1979.271	3585
1981.359	3505
1983.446	3595
1985.532	3518
1987.619	3507
1989.705	3478
1991.789	3590
1993.874	3560
1995.956	3635
1998.041	3601
2000.123	3484
2002.206	3494
2004.287	3482
2006.368	3577
2008.449	3614
2010.529	3488
2012.609	3607
2014.688	3624
2016.766	3535
2018.843	3636
2020.922	3545
2022.999	3499
2025.074	3605
2027.15	3592
2029.225	3571
2031.299	3583
2033.375	3578
2035.447	3603
2037.52	3567
2039.592	3515
2041.664	3591
2043.736	3563
2045.807	3531
2047.876	3649
2049.947	3564
2052.015	3605
2054.086	3544
2056.153	3585
2058.221	3539
2060.288	3563
2062.353	3493
2064.42	3586
2066.486	3633
2068.55	3599
2070.614	3511
2072.678	3560
2074.741	3569
2076.805	3542
2078.866	3579
2080.929	3463
2082.99	3613
2085.049	3629
2087.109	3569
2089.17	3636
2091.228	3659
2093.286	3586
2095.344	3594
2097.4	3517
2099.46	3620
2101.516	3599
2103.572	3514
2105.626	3592
2107.679	3617
2109.735	3638
2111.788	3561
2113.841	3625
2115.894	3518
2117.945	3560
2119.997	3587
2122.049	3627
2124.1	3495
2126.148	3588
2128.197	3566
2130.246	3519
2132.296	3541
2134.342	3528
2136.39	3452
2138.437	3546
2140.483	3566
2142.527	3538
2144.574	3639
2146.619	3514
2148.661	3560
2150.705	3527
2152.747	3613
2154.792	3506
2156.832	3542
2158.874	3543
2160.915	3525
2162.954	3621
2164.995	3534
2167.034	3586
2169.072	3515
2171.111	3534
2173.148	3522
2175.186	3631
2177.223	3522
2179.258	3513
2181.294	3547
2183.328	3558
2185.362	3565
2187.398	3595
2189.431	3453
2191.463	3468
2193.495	3562
2195.528	3513
2197.56	3608
2199.59	3456
2201.62	3498
2203.649	3456
2205.678	3520
2207.708	3470
2209.737	3446
2211.764	3576
2213.791	3542
2215.817	3426
2217.843	3512
2219.87	3540
2221.895	3500
2223.919	3419
2225.942	3518
2227.966	3457
2229.988	3570
2232.012	3520
2234.032	3529
2236.054	3493
2238.074	3553
2240.095	3471
2242.116	3498
2244.135	3554
2246.153	3474
2248.171	3521
2250.188	3487
2252.208	3421
2254.223	3536
2256.239	3528
2258.255	3509
2260.269	3521
2262.283	3556
2264.3	3538
2266.312	3432
2268.325	3474
2270.336	3571
2272.349	3560
2274.362	3467
2276.372	3542
2278.383	3496
2280.392	3520
2282.402	3477
2284.409	3528
2286.418	3532
2288.427	3521
2290.433	3509
2292.441	3532
2294.446	3472
2296.453	3521
2298.459	3491
2300.463	3533
2302.466	3486
2304.471	3424
2306.475	3510
2308.477	3472
2310.478	3441
2312.481	3493
2314.481	3455
2316.481	3455
2318.482	3452
2320.482	3590
2322.48	3545
2324.48	3466
2326.478	3441
2328.476	3438
2330.473	3491
2332.469	3450
2334.465	3476
2336.46	3432
2338.454	3535
2340.45	3531
2342.444	3499
2344.437	3531
2346.43	3453
2348.421	3474
2350.414	3439
2352.405	3446
2354.396	3397
2356.386	3517
2358.376	3417
2360.366	3505
2362.355	3433
2364.343	3514
2366.331	3372
2368.317	3501
2370.304	3464
2372.292	3472
2374.278	3523
2376.262	3486
2378.247	3443
2380.23	3426
2382.216	3438
2384.199	3444
2386.181	3428
2388.163	3463
2390.144	3374
2392.127	3468
2394.107	3366
2396.087	3426
2398.066	3395
2400.046	3431
2402.023	3463
2404.004	3370
2405.981	3423
2407.957	3422
2409.934	3433
2411.91	3395
2413.886	3405
2415.862	3396
2417.836	3414
2419.809	3430
2421.784	3436
2423.756	3388
2425.73	3401
2427.701	3427
2429.672	3377
2431.644	3417
2433.615	3434
2435.586	3397
2437.555	3452
2439.523	3451
2441.491	3395
2443.459	3428
2445.428	3362
2447.395	3417
2449.361	3448
2451.327	3362
2453.292	3347
2455.257	3411
2457.223	3454
2459.187	3448
2461.15	3444
2463.113	3317
2465.076	3378
2467.039	3459
2468.999	3439
2470.96	3395
2472.921	3354
2474.881	3371
2476.841	3403
2478.8	3375
2480.759	3405
2482.717	3423
2484.675	3479
2486.63	3385
2488.589	3389
2490.545	3383
2492.5	3369
2494.455	3357
2496.408	3357
2498.364	3414
2500.318	3387
2502.27	3381
2504.223	3423
2506.174	3431
2508.126	3347
2510.078	3361
2512.03	3340
2513.979	3437
2515.927	3345
2517.877	3462
2519.826	3382
2521.775	3321
2523.722	3353
2525.668	3382
2527.616	3337
2529.561	3380
2531.508	3360
2533.452	3328
2535.398	3331
2537.342	3324
2539.284	3346
2541.229	3416
2543.173	3389
2545.114	3365
2547.055	3350
2548.996	3398
2550.938	3381
2552.878	3420
2554.817	3411
2556.756	3410
2558.695	3374
2560.633	3405
2562.572	3331
2564.509	3386
2566.445	3397
2568.382	3353
2570.317	3435
2572.254	3348
2574.189	3320
2576.123	3262
2578.057	3393
2579.99	3338
2581.923	3359
2583.855	3362
2585.788	3398
2587.719	3344
2589.65	3400
2591.579	3344
2593.511	3340
2595.44	3399
2597.37	3433
2599.297	3380
2601.225	3410
2603.153	3375
2605.08	3435
2607.007	3439
2608.932	3404
2610.858	3360
2612.782	3404
2614.709	3373
2616.632	3361
2618.556	3494
2620.478	3407
2622.401	3336
2624.324	3448
2626.247	3394
2628.167	3395
2630.088	3503
2632.008	3435
2633.928	3425
2635.848	3280
2637.766	3402
2639.684	3422
2641.603	3380
2643.519	3464
2645.437	3402
2647.353	3460
2649.27	3431
2651.184	3426
2653.099	3342
2655.014	3381
2656.928	3405
2658.842	3317
2660.755	3334
2662.667	3444
2664.579	3413
2666.491	3262
2668.402	3354
2670.312	3429
2672.222	3431
2674.132	3342
2676.042	3354
2677.951	3381
2679.859	3328
2681.766	3360
2683.674	3374
2685.582	3341
2687.488	3298
2689.392	3418
2691.298	3427
2693.202	3339
2695.107	3309
2697.012	3398
2698.914	3290
2700.817	3513
2702.72	3318
2704.622	3431
2706.524	3384
2708.425	3340
2710.326	3358
2712.225	3306
2714.125	3333
2716.024	3347
2717.923	3403
2719.822	3371
2721.719	3361
2723.616	3436
2725.512	3375
2727.41	3298
2729.305	3313
2731.201	3325
2733.095	3425
2734.99	3282
2736.884	3350
2738.778	3373
2740.67	3385
2742.562	3301
2744.455	3288
2746.346	3346
2748.238	3290
2750.129	3295
2752.018	3353
2753.907	3300
2755.797	3298
2757.687	3333
2759.575	3376
2761.462	3259
2763.349	3417
2765.237	3311
2767.124	3340
2769.009	3360
2770.894	3326
2772.779	3346
2774.663	3285
2776.547	3360
2778.431	3322
2780.314	3295
2782.197	3323
2784.078	3314
2785.96	3351
2787.842	3371
2789.723	3292
2791.603	3328
2793.483	3312
2795.362	3355
2797.241	3343
2799.121	3266
2800.997	3262
2802.874	3340
2804.751	3336
2806.628	3332
2808.506	3334
2810.38	3262
2812.255	3298
2814.13	3299
2816.003	3308
2817.878	3292
2819.752	3341
2821.623	3358
2823.496	3369
2825.368	3334
2827.238	3318
2829.111	3296
2830.98	3371
2832.851	3335
2834.719	3376
2836.589	3356
2838.458	3448
2840.327	3318
2842.193	3313
2844.061	3322
2845.927	3353
2847.794	3311
2849.66	3320
2851.525	3304
2853.39	3394
2855.254	3376
2857.117	3389
2858.983	3368
2860.845	3477
2862.707	3439
2864.569	3432
2866.431	3481
2868.293	3414
2870.154	3513
2872.013	3517
2873.873	3596
2875.733	3584
2877.592	3499
2879.451	3571
2881.309	3661
2883.166	3665
2885.022	3619
2886.879	3677
2888.736	3601
2890.591	3690
2892.446	3663
2894.301	3649
2896.155	3704
2898.009	3602
2899.863	3705
2901.716	3736
2903.568	3710
2905.419	3700
2907.27	3652
2909.123	3650
2910.973	3645
2912.824	3706
2914.673	3754
2916.521	3673
2918.372	3841
2920.22	3745
2922.067	3759
2923.914	3869
2925.761	3911
2927.607	3872
2929.455	3936
2931.301	3993
2933.144	3990
2934.99	3911
2936.833	3973
2938.678	4043
2940.522	4021
2942.364	4135
2944.207	4071
2946.048	4179
2947.891	4181
2949.731	4197
2951.571	4170
2953.412	4206
2955.25	4155
2957.09	4123
2958.93	4090
2960.767	3962
2962.606	3978
2964.443	4043
2966.279	3994
2968.116	3820
2969.953	3866
2971.788	3870
2973.623	3831
2975.457	3792
2977.292	3884
2979.127	3724
2980.959	3694
2982.792	3626
2984.624	3718
2986.455	3713
2988.288	3685
2990.119	3612
2991.949	3588
2993.779	3644
2995.608	3607
2997.439	3541
2999.268	3515
3001.096	3509
3002.923	3497
3004.751	3499
3006.578	3503
3008.406	3474
3010.232	3356
3012.057	3402
3013.883	3401
3015.706	3377
3017.532	3337
3019.356	3302
3021.179	3382
3023.002	3239
3024.823	3242
3026.646	3285
3028.469	3273
3030.289	3288
3032.11	3160
3033.93	3255
3035.749	3225
3037.57	3232
3039.39	3198
3041.207	3213
3043.026	3220
3044.842	3225
3046.661	3153
3048.477	3231
3050.294	3219
3052.109	3170
3053.925	3259
3055.739	3133
3057.555	3244
3059.368	3195
3061.181	3260
3062.995	3146
3064.807	3172
3066.62	3194
3068.433	3204
3070.243	3141
3072.054	3155
3073.865	3195
3075.675	3147
3077.485	3242
3079.293	3182
3081.102	3176
3082.911	3145
3084.719	3222
3086.527	3179
3088.333	3147
3090.139	3127
3091.945	3077
3093.75	3162
3095.557	3094
3097.361	3119
3099.165	3176
3100.969	3140
3102.772	3193
3104.575	3195
3106.379	3133
3108.181	3135
3109.982	3085
3111.783	3076
3113.584	3123
3115.386	3040
3117.186	3163
3118.985	3021
3120.783	3094
3122.582	3123
3124.381	3054
3126.179	3060
3127.975	3068
3129.772	3117
3131.569	3147
3133.365	3034
3135.161	3072
3136.956	3110
3138.751	3158
3140.544	2989
3142.338	3056
3144.132	2983
3145.925	3091
3147.717	2984
3149.509	3023
3151.301	3042
3153.091	3107
3154.884	3056
3156.673	3052
3158.462	2992
3160.252	3041
3162.041	2974
3163.831	3031
3165.618	2979
3167.405	3090
3169.193	3136
3170.979	3020
3172.767	3064
3174.553	3060
3176.338	3068
3178.123	3034
3179.907	3018
3181.692	3074
3183.477	2984
3185.259	2997
3187.042	3018
3188.824	2974
3190.607	3053
3192.389	3048
3194.17	3016
3195.951	2966
3197.73	3002
3199.51	3006
3201.289	3052
3203.07	3004
3204.848	3043
3206.626	2976
3208.403	3007
3210.18	3028
3211.959	3057
3213.735	2976
3215.511	2971
3217.285	2969
3219.06	2886
3220.836	2977
3222.611	2981
3224.384	3043
3226.158	2953
3227.929	3058
3229.702	2985
3231.476	2980
3233.248	3031
3235.018	3058
3236.789	2948
3238.56	3094
3240.33	3027
3242.1	3036
3243.869	3022
3245.637	3088
3247.405	2996
3249.172	3043
3250.941	3028
3252.707	2987
3254.474	2981
3256.24	3061
3258.006	2967
3259.772	3068
3261.537	3035
3263.301	2968
3265.065	3059
3266.828	3010
3268.592	3025
3270.355	2983
3272.117	3020
3273.878	3061
3275.64	2970
3277.401	2981
3279.162	3067
3280.922	2957
3282.682	2942
3284.441	2953
3286.199	3014
3287.959	3022
3289.716	3025
3291.475	2978
3293.232	3015
3294.988	3006
3296.744	2979
3298.501	2972
3300.256	2994
3302.011	2998
3303.766	2949
3305.52	2993
3307.275	2923
3309.028	2979
3310.781	3037
3312.533	2921
3314.285	2950
3316.038	2959
3317.789	3022
3319.54	3012
3321.289	2973
3323.039	3022
3324.789	3052
3326.539	2996
3328.288	2969
3330.035	2979
3331.783	2982
3333.531	2995
3335.28	3045
3337.025	2913
3338.771	2994
3340.518	2903
3342.262	2959
3344.009	2951
3345.753	3004
3347.497	2948
3349.24	2981
3350.983	3000
3352.726	2947
3354.469	2952
3356.212	2941
3357.952	2928
3359.694	2986
3361.434	2920
3363.176	3006
3364.916	2953
3366.654	2934
3368.394	2979
3370.132	2912
3371.871	2928
3373.61	2853
3375.346	2881
3377.083	2904
3378.82	2978
3380.556	2947
3382.292	2930
3384.027	2935
3385.763	2882
3387.497	2907
3389.231	2940
3390.965	2901
3392.698	2906
3394.431	2874
3396.164	2952
3397.896	2885
3399.627	2944
3401.36	2832
3403.09	2890
3404.82	2894
3406.55	2886
3408.279	2941
3410.01	2910
3411.738	2816
3413.467	2939
3415.194	2843
3416.92	2927
3418.647	2911
3420.375	2903
3422.102	2866
3423.827	2802
3425.553	2996
3427.277	2807
3429.003	2870
3430.727	2874
3432.451	2838
3434.173	2835
3435.896	2821
3437.62	2833
3439.343	2863
3441.063	2898
3442.785	2807
3444.505	2809
3446.226	2826
3447.948	2839
3449.666	2756
3451.386	2787
3453.104	2769
3454.823	2862
3456.541	2878
3458.259	2813
3459.976	2763
3461.693	2789
3463.408	2837
3465.125	2786
3466.841	2700
3468.556	2727
3470.271	2736
3471.985	2751
3473.698	2809
3475.414	2685
3477.126	2852
3478.838	2765
3480.55	2763
3482.263	2712
3483.975	2783
3485.686	2778
3487.396	2721
3489.106	2769
3490.817	2725
3492.526	2747
3494.236	2634
3495.944	2681
3497.652	2737
3499.359	2748
3501.066	2719
3502.775	2666
3504.481	2702
3506.187	2697
3507.893	2713
3509.598	2702
3511.304	2715
3513.009	2704
3514.713	2695
3516.417	2653
3518.12	2708
3519.821	2644
3521.525	2671
3523.228	2688
3524.929	2740
3526.631	2723
3528.33	2636
3530.032	2659
3531.733	2682
3533.433	2635
3535.131	2693
3536.83	2716
3538.529	2749
3540.227	2710
3541.925	2667
3543.623	2665
3545.319	2715
3547.016	2661
3548.712	2587
3550.408	2592
3552.103	2534
3553.798	2677
3555.491	2647
3557.188	2571
3558.88	2649
3560.574	2646
3562.266	2655
3563.959	2647
3565.651	2602
3567.343	2701
3569.035	2624
3570.725	2572
3572.415	2609
3574.106	2646
3575.797	2611
3577.485	2580
3579.174	2627
3580.863	2554
3582.551	2585
3584.238	2613
3585.926	2622
3587.613	2563
3589.3	2600
3590.986	2545
3592.671	2586
3594.357	2564
3596.042	2550
3597.726	2545
3599.41	2586
3601.094	2524
3602.778	2539
3604.461	2611
3606.143	2585
3607.825	2511
3609.507	2618
3611.188	2516
3612.87	2550
3614.551	2463
3616.229	2537
3617.909	2559
3619.589	2550
3621.269	2479
3622.948	2453
3624.625	2524
3626.302	2481
3627.98	2453
3629.657	2470
3631.334	2491
3633.01	2487
3634.686	2592
3636.361	2476
3638.036	2424
3639.712	2416
3641.385	2509
3643.06	2512
3644.732	2418
3646.405	2417
3648.08	2444
3649.751	2469
3651.424	2473
3653.094	2503
3654.766	2499
3656.436	2385
3658.106	2454
3659.777	2460
3661.446	2455
3663.115	2468
3664.783	2506
3666.452	2487
3668.121	2444
3669.788	2401
3671.454	2474
3673.121	2513
3674.789	2447
3676.455	2398
3678.12	2476
3679.784	2413
3681.45	2435
3683.114	2370
3684.779	2425
3686.442	2455
3688.105	2415
3689.768	2428
3691.43	2497
3693.093	2402
3694.754	2405
3696.415	2376
3698.076	2397
3699.736	2368
3701.396	2395
3703.057	2425
3704.716	2436
3706.375	2345
3708.034	2379
3709.692	2410
3711.351	2417
3713.008	2352
3714.665	2406
3716.321	2384
3717.977	2344
3719.634	2459
3721.29	2361
3722.945	2385
3724.598	2373
3726.253	2405
3727.907	2365
3729.561	2382
3731.214	2337
3732.867	2335
3734.518	2337
3736.171	2447
3737.824	2427
3739.474	2397
3741.125	2334
3742.775	2410
3744.425	2386
3746.074	2399
3747.725	2390
3749.373	2340
3751.022	2318
3752.669	2402
3754.318	2341
3755.966	2324
3757.612	2369
3759.259	2339
3760.905	2350
3762.55	2375
3764.197	2352
3765.842	2373
3767.486	2347
3769.131	2339
3770.774	2315
3772.417	2259
3774.061	2313
3775.705	2284
3777.347	2329
3778.988	2350
3780.629	2266
3782.271	2408
3783.912	2294
3785.552	2305
3787.192	2256
3788.831	2335
3790.472	2301
3792.112	2327
3793.75	2363
3795.388	2289
3797.024	2299
3798.661	2253
3800.3	2333
3801.936	2301
3803.572	2299
3805.208	2256
3806.844	2232
3808.48	2273
3810.115	2331
3811.748	2268
3813.382	2321
3815.016	2310
3816.649	2299
3818.283	2299
3819.914	2234
3821.547	2295
3823.178	2322
3824.809	2196
3826.441	2267
3828.072	2225
3829.701	2279
3831.331	2259
3832.96	2249
3834.591	2283
3836.219	2245
3837.847	2305
3839.475	2234
3841.102	2240
3842.729	2198
3844.357	2222
3845.984	2244
3847.609	2233
3849.234	2250
3850.86	2271
3852.485	2234
3854.11	2208
3855.734	2240
3857.357	2271
3858.981	2208
3860.603	2254
3862.227	2265
3863.848	2171
3865.471	2230
3867.092	2269
3868.713	2221
3870.334	2239
3871.954	2189
3873.575	2211
3875.194	2233
3876.813	2178
3878.433	2261
3880.051	2201
3881.669	2230
3883.286	2213
3884.904	2183
3886.52	2267
3888.138	2192
3889.754	2149
3891.37	2210
3892.985	2240
3894.6	2142
3896.216	2195
3897.831	2167
3899.444	2189
3901.058	2147
3902.67	2217
3904.283	2206
3905.897	2187
3907.509	2214
3909.121	2217
3910.731	2160
3912.342	2209
3913.954	2134
3915.563	2183
3917.174	2191
3918.783	2205
3920.391	2254
3922.002	2159
3923.611	2181
3925.218	2176
3926.826	2144
3928.432	2145
3930.039	2150
3931.647	2134
3933.253	2112
3934.859	2172
3936.464	2198
3938.068	2248
3939.675	2203
3941.278	2190
3942.883	2239
3944.486	2211
3946.089	2191
3947.692	2209
3949.295	2204
3950.898	2189
3952.499	2140
3954.1	2215
3955.7	2160
3957.303	2136
3958.903	2138
3960.502	2200
3962.101	2143
3963.7	2111
3965.301	2180
3966.899	2124
3968.497	2156
3970.094	2143
3971.691	2169
3973.288	2102
3974.885	2121
3976.481	2144
3978.077	2127
3979.672	2164
3981.267	2100
3982.863	2144
3984.457	2096
3986.051	2106
3987.645	2137
3989.238	2114
3990.831	2151
3992.425	2105
3994.017	2060
3995.607	2135
3997.199	2050
3998.79	2089
4000.382	2119
4001.973	2080
4003.561	2084
4005.151	2085
4006.741	2066
4008.331	2078
4009.918	2053
4011.507	2142
4013.095	2048
4014.681	2046
4016.269	2072
4017.856	2041
4019.443	2104
4021.028	2069
4022.614	2056
4024.199	2118
4025.785	2056
4027.37	2101
4028.953	2046
4030.536	2046
4032.12	2099
4033.704	2072
4035.287	1996
4036.869	2044
4038.45	2039
4040.032	2125
4041.613	2009
4043.195	2037
4044.776	2023
4046.356	2003
4047.935	2115
4049.515	2067
4051.095	2084
4052.674	2001
4054.251	2012
4055.829	2006
4057.406	2005
4058.985	2057
4060.562	2038
4062.139	2007
4063.715	2010
4065.29	2063
4066.865	2013
4068.442	1990
4070.016	2001
4071.59	1989
4073.164	2025
4074.738	1997
4076.312	1982
4077.885	2044
4079.458	2014
4081.03	2061
4082.602	2011
4084.173	1979
4085.745	2023
4087.315	1979
4088.886	1965
4090.456	2022
4092.026	1965
4093.596	1999
4095.165	1969
4096.734	2007
4098.301	1990
4099.869	1999
4101.437	2007
4103.006	2010
4104.572	2009
4106.139	2009
4107.704	2027
4109.27	1945
4110.837	1968
4112.401	1960
4113.966	1931
4115.53	1957
4117.094	2004
4118.659	1956
4120.223	1898
4121.785	1951
4123.347	2014
4124.909	1911
4126.471	1955
4128.034	1966
4129.595	1966
4131.155	1975
4132.716	1987
4134.275	1950
4135.836	1950
4137.395	1976
4138.955	1983
4140.513	1936
4142.071	1948
4143.628	1950
4145.188	1959
4146.745	1888
4148.302	1924
4149.858	1979
4151.414	1903
4152.971	2033
4154.526	1867
4156.081	1940
4157.635	1926
4159.189	1923
4160.745	1898
4162.298	1906
4163.852	1862
4165.405	1942
4166.957	1934
4168.51	1863
4170.063	1908
4171.614	1882
4173.166	1955
4174.717	1904
4176.267	1872
4177.817	1950
4179.368	1901
4180.917	1898
4182.466	1916
4184.016	1838
4185.564	1896
4187.112	1884
4188.66	1909
4190.207	1900
4191.754	1885
4193.301	1932
4194.848	1859
4196.394	1860
4197.94	1914
4199.484	1872
4201.03	1847
4202.575	1896
4204.12	1859
4205.663	1870
4207.207	1893
4208.75	1854
4210.292	1809
4211.836	1876
4213.378	1856
4214.92	1852
4216.46	1799
4218.002	1866
4219.544	1852
4221.083	1844
4222.625	1869
4224.164	1908
4225.703	1871
4227.244	1845
4228.782	1874
4230.32	1791
4231.857	1809
4233.395	1863
4234.933	1807
4236.471	1825
4238.007	1878
4239.542	1845
4241.078	1833
4242.614	1833
4244.15	1853
4245.685	1846
4247.219	1812
4248.753	1870
4250.287	1808
4251.82	1839
4253.354	1802
4254.887	1872
4256.419	1879
4257.951	1821
4259.483	1776
4261.016	1841
4262.547	1876
4264.078	1819
4265.608	1742
4267.137	1815
4268.668	1871
4270.197	1853
4271.727	1785
4273.254	1801
4274.783	1800
4276.311	1810
4277.84	1803
4279.366	1829
4280.894	1844
4282.42	1793
4283.946	1779
4285.473	1812
4286.998	1802
4288.523	1825
4290.047	1794
4291.572	1791
4293.096	1805
4294.622	1741
4296.144	1840
4297.668	1808
4299.19	1781
4300.713	1804
4302.236	1807
4303.758	1770
4305.279	1762
4306.799	1807
4308.321	1788
4309.842	1773
4311.361	1782
4312.882	1782
4314.401	1776
