400.0961	4302
402.6185	4361
405.1424	4296
407.6635	4349
410.1838	4390
412.7035	4506
415.2225	4466
417.7388	4513
420.2585	4492
422.7754	4479
425.2917	4678
427.8072	4640
430.3221	4682
432.8363	4738
435.3498	4758
437.8626	4720
440.3727	4630
442.8841	4662
445.3969	4651
447.907	4693
450.4142	4724
452.9229	4662
455.4289	4615
457.9362	4713
460.4449	4656
462.9488	4571
465.454	4621
467.9566	4553
470.4604	4609
472.9637	4693
475.4662	4653
477.966	4536
480.4671	4630
482.9656	4565
485.4633	4772
487.9645	4759
490.4608	4704
492.9566	4633
495.4536	4779
497.948	4748
500.4437	4806
502.9387	4727
505.431	4790
507.9226	4698
510.4136	4796
512.9079	4755
515.3975	4779
517.8864	4819
520.3746	4773
522.8622	4699
525.3491	4751
527.8394	4860
530.3249	4763
532.8098	4805
535.2939	4804
537.7774	4825
540.2623	4758
542.7444	4825
545.2259	4685
547.7067	4766
550.1868	4923
552.6683	4836
555.147	4775
557.6231	4774
560.1005	4828
562.5773	4952
565.0534	4930
567.5308	4962
570.0056	4900
572.4776	4913
574.951	4990
577.4237	5004
579.8978	5045
582.3671	5052
584.8378	5140
587.3079	5120
589.7773	5062
592.244	5167
594.714	5069
597.1793	5018
599.6461	5050
602.1121	4943
604.5754	5009
607.0421	4989
609.5042	5055
611.9675	4955
614.4282	4923
616.8902	5043
619.3515	5015
621.8122	4951
624.2702	4929
626.7296	4877
629.1863	4851
631.6423	5056
634.1017	4942
636.5563	4967
639.0104	4905
641.4658	4897
643.9185	4995
646.3725	4888
648.8239	4911
651.2766	4970
653.7266	4899
656.176	5011
658.6247	5014
661.0748	5064
663.5242	4974
665.9709	5055
668.417	5097
670.8624	4993
673.3092	5046
675.7533	5013
678.1968	5207
680.6395	5128
683.0817	5059
685.5251	5066
687.9659	5164
690.4061	5057
692.8456	5127
695.2844	5033
697.7226	5137
700.1621	5129
702.599	5161
705.0332	5076
707.4688	5140
709.9036	5170
712.3399	5265
714.7735	5217
717.2044	5179
719.6367	5202
722.0683	5269
724.4993	5197
726.9296	5277
729.3593	5235
731.7883	5347
734.2147	5315
736.6423	5323
739.0714	5308
741.4958	5274
743.9216	5349
746.3447	5375
748.7691	5400
751.1929	5350
753.616	5421
756.0366	5498
758.4584	5345
760.8776	5445
763.2982	5442
765.718	5445
768.1373	5477
770.5539	5399
772.9698	5552
775.3871	5349
777.8038	5503
780.2178	5543
782.6332	5462
785.0459	5456
787.458	5396
789.8714	5406
792.2842	5384
794.6943	5503
797.1038	5469
799.5127	5447
801.9209	5465
804.3324	5541
806.7393	5537
809.1456	5482
811.5513	5475
813.9562	5538
816.3625	5537
818.7663	5615
821.1693	5475
823.5718	5572
825.9735	5541
828.3746	5557
830.7771	5565
833.177	5594
835.5762	5591
837.9747	5559
840.3727	5649
842.772	5559
845.1666	5652
847.5626	5680
849.958	5651
852.3527	5663
854.7488	5679
857.1403	5707
859.5331	5693
861.9253	5707
864.3168	5686
866.7057	5737
869.098	5601
871.4876	5716
873.8746	5709
876.263	5748
878.6487	5652
881.0378	5673
883.4243	5676
885.8081	5617
888.1933	5602
890.5759	5615
892.9598	5695
895.343	5568
897.7256	5751
900.1057	5654
902.4871	5637
904.8659	5689
907.246	5721
909.6254	5790
912.0023	5781
914.3786	5706
916.7562	5971
919.1331	6004
921.5074	5982
923.8831	5981
926.2562	6088
928.6287	6006
931.0005	5960
933.3757	6031
935.7462	6008
938.1162	6112
940.4855	6172
942.8542	6249
945.2242	6393
947.5916	6417
949.9584	6580
952.3266	6824
954.6921	7013
957.0571	7401
959.4233	7586
961.787	7678
964.15	7553
966.5125	7479
968.8742	7060
971.2354	6821
973.5959	6471
975.9559	6240
978.3151	6119
980.6738	6083
983.0338	5925
985.3912	5873
987.7461	5930
990.1022	5965
992.4578	5767
994.8127	5924
997.1689	5989
999.5207	5951
1001.874	6010
1004.226	5949
1006.576	5885
1008.929	6016
1011.28	5887
1013.628	5894
1015.977	5928
1018.324	6036
1020.674	5976
1023.019	5945
1025.366	6058
1027.713	5907
1030.056	5946
1032.399	6004
1034.746	5998
1037.087	6142
1039.431	6054
1041.771	6154
1044.113	6011
1046.454	5992
1048.793	6114
1051.133	6165
1053.471	6050
1055.807	6067
1058.146	6094
1060.483	6044
1062.818	6124
1065.153	6249
1067.489	6127
1069.822	6156
1072.156	6188
1074.488	6281
1076.82	6240
1079.15	6226
1081.48	6163
1083.814	6183
1086.143	6129
1088.471	6086
1090.799	6174
1093.126	6062
1095.452	5923
1097.78	6068
1100.105	5998
1102.43	6100
1104.754	6034
1107.077	6170
1109.4	5933
1111.722	6026
1114.044	6113
1116.365	5983
1118.685	6072
1121.005	6093
1123.324	5995
1125.643	6092
1127.961	6118
1130.278	6029
1132.595	6002
1134.911	5937
1137.226	6044
1139.541	5999
1141.854	6100
1144.167	6066
1146.482	5973
1148.793	5986
1151.105	5981
1153.414	6034
1155.725	6136
1158.033	6067
1160.344	6130
1162.651	6185
1164.959	6001
1167.265	6085
1169.572	6036
1171.878	6059
1174.184	6077
1176.488	6064
1178.79	6114
1181.094	6136
1183.396	6055
1185.699	5970
1188.001	6045
1190.301	6019
1192.6	6092
1194.9	5995
1197.2	6091
1199.497	6035
1201.794	6061
1204.09	6063
1206.387	6158
1208.684	6048
1210.978	6061
1213.272	6203
1215.565	6014
1217.858	6081
1220.15	6086
1222.443	6059
1224.734	6216
1227.024	6188
1229.313	6223
1231.602	6172
1233.892	6327
1236.18	6458
1238.467	6290
1240.754	6321
1243.04	6407
1245.325	6395
1247.612	6514
1249.896	6372
1252.178	6376
1254.461	6429
1256.743	6343
1259.027	6462
1261.308	6388
1263.587	6300
1265.867	6412
1268.146	6409
1270.425	6399
1272.703	6389
1274.981	6480
1277.256	6428
1279.532	6320
1281.808	6341
1284.083	6393
1286.358	6350
1288.63	6372
1290.904	6209
1293.175	6304
1295.449	6249
1297.719	6285
1299.99	6369
1302.259	6173
1304.529	6186
1306.798	6293
1309.065	6172
1311.333	6349
1313.599	6225
1315.866	6331
1318.131	6320
1320.396	6297
1322.66	6184
1324.925	6296
1327.187	6142
1329.448	6278
1331.711	6311
1333.974	6205
1336.234	6303
1338.493	6253
1340.752	6284
1343.01	6152
1345.269	6260
1347.526	6247
1349.784	6270
1352.04	6102
1354.295	6233
1356.552	6205
1358.806	6252
1361.059	6259
1363.312	6248
1365.564	6165
1367.818	6295
1370.069	6197
1372.318	6316
1374.568	6350
1376.817	6302
1379.066	6339
1381.316	6494
1383.564	6296
1385.809	6322
1388.056	6368
1390.301	6307
1392.549	6505
1394.793	6442
1397.036	6559
1399.279	6569
1401.522	6488
1403.763	6496
1406.007	6487
1408.248	6427
1410.487	6415
1412.727	6443
1414.965	6388
1417.205	6536
1419.442	6419
1421.68	6513
1423.915	6549
1426.152	6534
1428.388	6488
1430.623	6576
1432.857	6543
1435.091	6575
1437.323	6589
1439.556	6688
1441.789	6565
1444.019	6515
1446.25	6604
1448.48	6739
1450.708	6623
1452.938	6755
1455.167	6786
1457.394	6693
1459.62	6756
1461.846	6720
1464.073	6734
1466.299	6709
1468.523	6546
1470.746	6581
1472.969	6593
1475.191	6499
1477.415	6463
1479.636	6357
1481.858	6277
1484.078	6358
1486.298	6425
1488.518	6385
1490.736	6353
1492.954	6184
1495.169	6305
1497.386	6259
1499.602	6312
1501.819	6209
1504.034	6174
1506.248	6337
1508.462	6220
1510.675	6326
1512.888	6269
1515.1	6288
1517.311	6208
1519.522	6217
1521.732	6198
1523.942	6351
1526.151	6252
1528.36	6214
1530.566	6153
1532.773	6263
1534.98	6326
1537.187	6258
1539.392	6262
1541.596	6233
1543.801	6222
1546.005	6353
1548.208	6324
1550.411	6196
1552.612	6313
1554.814	6382
1557.013	6370
1559.212	6335
1561.414	6335
1563.612	6373
1565.811	6404
1568.007	6342
1570.203	6487
1572.403	6266
1574.598	6427
1576.792	6446
1578.988	6369
1581.181	6402
1583.376	6404
1585.568	6475
1587.761	6428
1589.952	6466
1592.143	6612
1594.333	6438
1596.524	6573
1598.715	6505
1600.903	6571
1603.091	6562
1605.278	6530
1607.466	6565
1609.652	6439
1611.838	6544
1614.023	6589
1616.207	6493
1618.391	6568
1620.576	6556
1622.759	6572
1624.941	6571
1627.123	6492
1629.304	6473
1631.484	6661
1633.664	6577
1635.844	6619
1638.022	6646
1640.201	6627
1642.38	6564
1644.556	6577
1646.732	6596
1648.908	6672
1651.084	6764
1653.257	6592
1655.433	6582
1657.607	6660
1659.779	6636
1661.951	6670
1664.122	6691
1666.295	6793
1668.467	6783
1670.635	6657
1672.805	6797
1674.973	6782
1677.142	6707
1679.31	6614
1681.478	6669
1683.644	6670
1685.81	6698
1687.975	6726
1690.142	6586
1692.305	6771
1694.468	6595
1696.632	6592
1698.794	6541
1700.957	6474
1703.119	6602
1705.279	6549
1707.439	6604
1709.598	6559
1711.758	6481
1713.917	6558
1716.075	6455
1718.231	6412
1720.388	6477
1722.543	6399
1724.702	6434
1726.856	6465
1729.01	6449
1731.164	6391
1733.317	6462
1735.471	6608
1737.623	6377
1739.774	6439
1741.925	6479
1744.075	6555
1746.225	6463
1748.376	6391
1750.524	6439
1752.672	6433
1754.82	6528
1756.965	6567
1759.113	6467
1761.259	6440
1763.405	6501
1765.549	6521
1767.694	6515
1769.836	6415
1771.981	6478
1774.123	6428
1776.264	6519
1778.405	6552
1780.546	6549
1782.687	6502
1784.827	6454
1786.966	6636
1789.103	6502
1791.242	6545
1793.381	6512
1795.517	6429
1797.653	6600
1799.788	6590
1801.923	6431
1804.057	6529
1806.193	6586
1808.326	6587
1810.457	6572
1812.59	6492
1814.721	6634
1816.855	6562
1818.984	6422
1821.113	6443
1823.244	6425
1825.372	6546
1827.499	6458
1829.63	6393
1831.756	6469
1833.882	6585
1836.007	6528
1838.132	6444
1840.26	6502
1842.384	6398
1844.507	6522
1846.63	6515
1848.752	6420
1850.875	6430
1852.996	6453
1855.118	6375
1857.238	6493
1859.358	6362
1861.477	6539
1863.597	6461
1865.715	6380
1867.832	6601
1869.948	6428
1872.064	6426
1874.181	6511
1876.297	6461
1878.411	6390
1880.526	6559
1882.639	6547
1884.752	6461
1886.865	6516
1888.977	6453
1891.089	6505
1893.2	6400
1895.308	6415
1897.42	6408
1899.53	6418
1901.639	6480
1903.745	6472
1905.853	6516
1907.962	6497
1910.067	6533
1912.174	6483
1914.278	6557
1916.383	6383
1918.486	6569
1920.592	6582
1922.694	6523
1924.797	6419
1926.898	6530
1929	6569
1931.102	6612
1933.203	6550
1935.301	6623
1937.401	6628
1939.499	6551
1941.598	6590
1943.697	6630
1945.793	6567
1947.888	6488
1949.985	6471
1952.08	6589
1954.176	6500
1956.269	6470
1958.364	6604
1960.457	6588
1962.549	6597
1964.642	6547
1966.733	6487
1968.823	6560
1970.913	6551
1973.005	6542
1975.093	6495
1977.184	6488
1979.271	6460
1981.359	6488
1983.446	6557
1985.532	6473
1987.619	6523
1989.705	6499
1991.789	6476
1993.874	6527
1995.956	6413
1998.041	6491
2000.123	6474
2002.206	6506
2004.287	6444
2006.368	6467
2008.449	6471
2010.529	6356
2012.609	6543
2014.688	6394
2016.766	6368
2018.843	6484
2020.922	6444
2022.999	6532
2025.074	6541
2027.15	6543
2029.225	6336
2031.299	6503
2033.375	6452
2035.447	6498
2037.52	6520
2039.592	6351
2041.664	6562
2043.736	6474
2045.807	6396
2047.876	6456
2049.947	6478
2052.015	6529
2054.086	6550
2056.153	6394
2058.221	6487
2060.288	6429
2062.353	6535
2064.42	6483
2066.486	6445
2068.55	6508
2070.614	6516
2072.678	6400
2074.741	6473
2076.805	6499
2078.866	6406
2080.929	6488
2082.99	6372
2085.049	6506
2087.109	6526
2089.17	6573
2091.228	6613
2093.286	6416
2095.344	6522
2097.4	6510
2099.46	6416
2101.516	6539
2103.572	6487
2105.626	6490
2107.679	6563
2109.735	6471
2111.788	6399
2113.841	6402
2115.894	6498
2117.945	6516
2119.997	6471
2122.049	6450
2124.1	6520
2126.148	6449
2128.197	6516
2130.246	6499
2132.296	6438
2134.342	6496
2136.39	6486
2138.437	6525
2140.483	6489
2142.527	6508
2144.574	6448
2146.619	6353
2148.661	6424
2150.705	6375
2152.747	6540
2154.792	6508
2156.832	6524
2158.874	6486
2160.915	6366
2162.954	6315
2164.995	6480
2167.034	6388
2169.072	6419
2171.111	6267
2173.148	6489
2175.186	6334
2177.223	6415
2179.258	6412
2181.294	6432
2183.328	6339
2185.362	6448
2187.398	6439
2189.431	6328
2191.463	6419
2193.495	6433
2195.528	6315
2197.56	6419
2199.59	6359
2201.62	6296
2203.649	6297
2205.678	6298
2207.708	6352
2209.737	6395
2211.764	6258
2213.791	6320
2215.817	6289
2217.843	6263
2219.87	6262
2221.895	6297
2223.919	6327
2225.942	6306
2227.966	6262
2229.988	6340
2232.012	6409
2234.032	6325
2236.054	6394
2238.074	6240
2240.095	6304
2242.116	6212
2244.135	6332
2246.153	6347
2248.171	6302
2250.188	6364
2252.208	6253
2254.223	6387
2256.239	6422
2258.255	6344
2260.269	6254
2262.283	6379
2264.3	6298
2266.312	6318
2268.325	6121
2270.336	6398
2272.349	6331
2274.362	6294
2276.372	6298
2278.383	6330
2280.392	6157
2282.402	6247
2284.409	6317
2286.418	6325
2288.427	6218
2290.433	6257
2292.441	6318
2294.446	6156
2296.453	6354
2298.459	6300
2300.463	6306
2302.466	6363
2304.471	6277
2306.475	6227
2308.477	6268
2310.478	6246
2312.481	6145
2314.481	6238
2316.481	6254
2318.482	6242
2320.482	6219
2322.48	6185
2324.48	6373
2326.478	6235
2328.476	6315
2330.473	6180
2332.469	6078
2334.465	6275
2336.46	6156
2338.454	6248
2340.45	6210
2342.444	6058
2344.437	6168
2346.43	6218
2348.421	6155
2350.414	6214
2352.405	6244
2354.396	6140
2356.386	6134
2358.376	6212
2360.366	6090
2362.355	6187
2364.343	6222
2366.331	6193
2368.317	6156
2370.304	6173
2372.292	6172
2374.278	6036
2376.262	6162
2378.247	6059
2380.23	6017
2382.216	6040
2384.199	6095
2386.181	6025
2388.163	6160
2390.144	6113
2392.127	6112
2394.107	6095
2396.087	6097
2398.066	6035
2400.046	6160
2402.023	6055
2404.004	6061
2405.981	6107
2407.957	6081
2409.934	6092
2411.91	5961
2413.886	6013
2415.862	6158
2417.836	6009
2419.809	5995
2421.784	6035
2423.756	6143
2425.73	6061
2427.701	6068
2429.672	6060
2431.644	6075
2433.615	6045
2435.586	6099
2437.555	5933
2439.523	6126
2441.491	5991
2443.459	6005
2445.428	6068
2447.395	5994
2449.361	6202
2451.327	6020
2453.292	5981
2455.257	6082
2457.223	6053
2459.187	6098
2461.15	5987
2463.113	5966
2465.076	6009
2467.039	6061
2468.999	5987
2470.96	5923
2472.921	5970
2474.881	5989
2476.841	5916
2478.8	5901
2480.759	5970
2482.717	6139
2484.675	5889
2486.63	5895
2488.589	6020
2490.545	5980
2492.5	5910
2494.455	6052
2496.408	5938
2498.364	5978
2500.318	6012
2502.27	5977
2504.223	5900
2506.174	6032
2508.126	5984
2510.078	5995
2512.03	6009
2513.979	6009
2515.927	5863
2517.877	5934
2519.826	5946
2521.775	5972
2523.722	5918
2525.668	5836
2527.616	5973
2529.561	5808
2531.508	5893
2533.452	5875
2535.398	5912
2537.342	5901
2539.284	5924
2541.229	6023
2543.173	6064
2545.114	5891
2547.055	5935
2548.996	5859
2550.938	5979
2552.878	5933
2554.817	5825
2556.756	5842
2558.695	5982
2560.633	5902
2562.572	5854
2564.509	5911
2566.445	5871
2568.382	5937
2570.317	5871
2572.254	5947
2574.189	5944
2576.123	5841
2578.057	5826
2579.99	5919
2581.923	5864
2583.855	5955
2585.788	6046
2587.719	5924
2589.65	5986
2591.579	5908
2593.511	5960
2595.44	6012
2597.37	5891
2599.297	6044
2601.225	5889
2603.153	5856
2605.08	5836
2607.007	5947
2608.932	5818
2610.858	5976
2612.782	5844
2614.709	5935
2616.632	5904
2618.556	5915
2620.478	5906
2622.401	6021
2624.324	5951
2626.247	5922
2628.167	5903
2630.088	5984
2632.008	5943
2633.928	5971
2635.848	5939
2637.766	6011
2639.684	5858
2641.603	5949
2643.519	5933
2645.437	5984
2647.353	5935
2649.27	5793
2651.184	5862
2653.099	5889
2655.014	5928
2656.928	5949
2658.842	5844
2660.755	5831
2662.667	5900
2664.579	5992
2666.491	5912
2668.402	5864
2670.312	5982
2672.222	5893
2674.132	5910
2676.042	5895
2677.951	5816
2679.859	5841
2681.766	5915
2683.674	5886
2685.582	5814
2687.488	5762
2689.392	5816
2691.298	5787
2693.202	5781
2695.107	5809
2697.012	5928
2698.914	5889
2700.817	5704
2702.72	5864
2704.622	5952
2706.524	5849
2708.425	5758
2710.326	5820
2712.225	5715
2714.125	5771
2716.024	5883
2717.923	5898
2719.822	5897
2721.719	5754
2723.616	5718
2725.512	5858
2727.41	5806
2729.305	5730
2731.201	5678
2733.095	5781
2734.99	5836
2736.884	5837
2738.778	5905
2740.67	5755
2742.562	5703
2744.455	5774
2746.346	5750
2748.238	5776
2750.129	5774
2752.018	5765
2753.907	5748
2755.797	5802
2757.687	5700
2759.575	5775
2761.462	5714
2763.349	5674
2765.237	5738
2767.124	5720
2769.009	5630
2770.894	5727
2772.779	5739
2774.663	5730
2776.547	5667
2778.431	5709
2780.314	5792
2782.197	5701
2784.078	5677
2785.96	5677
2787.842	5775
2789.723	5733
2791.603	5744
2793.483	5827
2795.362	5656
2797.241	5816
2799.121	5681
2800.997	5702
2802.874	5738
2804.751	5549
2806.628	5775
2808.506	5683
2810.38	5750
2812.255	5703
2814.13	5699
2816.003	5816
2817.878	5617
2819.752	5609
2821.623	5733
2823.496	5648
2825.368	5768
2827.238	5649
2829.111	5753
2830.98	5635
2832.851	5646
2834.719	5742
2836.589	5713
2838.458	5689
2840.327	5782
2842.193	5759
2844.061	5825
2845.927	5739
2847.794	5716
2849.66	5651
2851.525	5885
2853.39	5738
2855.254	5824
2857.117	5851
2858.983	5757
2860.845	5911
2862.707	5877
2864.569	5984
2866.431	5950
2868.293	5871
2870.154	6049
2872.013	6010
2873.873	6167
2875.733	6161
2877.592	6123
2879.451	6280
2881.309	6326
2883.166	6265
2885.022	6440
2886.879	6505
2888.736	6500
2890.591	6351
2892.446	6436
2894.301	6461
2896.155	6581
2898.009	6424
2899.863	6302
2901.716	6333
2903.568	6385
2905.419	6369
2907.27	6336
2909.123	6282
2910.973	6413
2912.824	6442
2914.673	6274
2916.521	6467
2918.372	6625
2920.22	6581
2922.067	6667
2923.914	6583
2925.761	6876
2927.607	6917
2929.455	6893
2931.301	6971
2933.144	6983
2934.99	7037
2936.833	7251
2938.678	7244
2940.522	7277
2942.364	7403
2944.207	7379
2946.048	7570
2947.891	7456
2949.731	7378
2951.571	7483
2953.412	7390
2955.25	7305
2957.09	7172
2958.93	7167
2960.767	7216
2962.606	7087
2964.443	7157
2966.279	7027
2968.116	6855
2969.953	6932
2971.788	6674
2973.623	6716
2975.457	6819
2977.292	6724
2979.127	6593
2980.959	6570
2982.792	6580
2984.624	6383
2986.455	6474
2988.288	6360
2990.119	6350
2991.949	6311
2993.779	6242
2995.608	6230
2997.439	6182
2999.268	6126
3001.096	6230
3002.923	6107
3004.751	5948
3006.578	5889
3008.406	5836
3010.232	5896
3012.057	5794
3013.883	5727
3015.706	5745
3017.532	5697
3019.356	5764
3021.179	5570
3023.002	5510
3024.823	5593
3026.646	5520
3028.469	5507
3030.289	5490
3032.11	5512
3033.93	5530
3035.749	5543
3037.57	5522
3039.39	5455
3041.207	5524
3043.026	5385
3044.842	5458
3046.661	5454
3048.477	5375
3050.294	5400
3052.109	5530
3053.925	5462
3055.739	5419
3057.555	5569
3059.368	5356
3061.181	5369
3062.995	5407
3064.807	5478
3066.62	5406
3068.433	5392
3070.243	5383
3072.054	5380
3073.865	5346
3075.675	5393
3077.485	5340
3079.293	5325
3081.102	5353
3082.911	5273
3084.719	5314
3086.527	5257
3088.333	5239
3090.139	5347
3091.945	5234
3093.75	5231
3095.557	5280
3097.361	5317
3099.165	5352
3100.969	5261
3102.772	5252
3104.575	5266
3106.379	5207
3108.181	5241
3109.982	5338
3111.783	5203
3113.584	5294
3115.386	5230
3117.186	5189
3118.985	5148
3120.783	5209
3122.582	5203
3124.381	5110
3126.179	5167
3127.975	5144
3129.772	5092
3131.569	5154
3133.365	5018
3135.161	5159
3136.956	5152
3138.751	5081
3140.544	5207
3142.338	5125
3144.132	5183
3145.925	5062
3147.717	5182
3149.509	5154
3151.301	5121
3153.091	5049
3154.884	5091
3156.673	5043
3158.462	5082
3160.252	5087
3162.041	5109
3163.831	5041
3165.618	5152
3167.405	5086
3169.193	5144
3170.979	5109
3172.767	5103
3174.553	5085
3176.338	5069
3178.123	5022
3179.907	5117
3181.692	5133
3183.477	5086
3185.259	5055
3187.042	5065
3188.824	5056
3190.607	5023
3192.389	5134
3194.17	5093
3195.951	5076
3197.73	5068
3199.51	5136
3201.289	5045
3203.07	5106
3204.848	5082
3206.626	5030
3208.403	5077
3210.18	5088
3211.959	5008
3213.735	5024
3215.511	5095
3217.285	5051
3219.06	4988
3220.836	5062
3222.611	5002
3224.384	4990
3226.158	5036
3227.929	4947
3229.702	5024
3231.476	4985
3233.248	5062
3235.018	4954
3236.789	5000
3238.56	5055
3240.33	5041
3242.1	5081
3243.869	5049
3245.637	5119
3247.405	5002
3249.172	5060
3250.941	5029
3252.707	5017
3254.474	5056
3256.24	4990
3258.006	4962
3259.772	5054
3261.537	5031
3263.301	5069
3265.065	4978
3266.828	4993
3268.592	5109
3270.355	4957
3272.117	5053
3273.878	5032
3275.64	5047
3277.401	5044
3279.162	4964
3280.922	5024
3282.682	5066
3284.441	5009
3286.199	4899
3287.959	5134
3289.716	5006
3291.475	5017
3293.232	5036
3294.988	5082
3296.744	5059
3298.501	4994
3300.256	5071
3302.011	5085
3303.766	4969
3305.52	5015
3307.275	5029
3309.028	5084
3310.781	5070
3312.533	5086
3314.285	5073
3316.038	4997
3317.789	5072
3319.54	5047
3321.289	5017
3323.039	5082
3324.789	5049
3326.539	5070
3328.288	4982
3330.035	5064
3331.783	4985
3333.531	5088
3335.28	4971
3337.025	5007
3338.771	5015
3340.518	4963
3342.262	4975
3344.009	5037
3345.753	4929
3347.497	4944
3349.24	4911
3350.983	4943
3352.726	4948
3354.469	4928
3356.212	5016
3357.952	4897
3359.694	4814
3361.434	4943
3363.176	4937
3364.916	4954
3366.654	4941
3368.394	4860
3370.132	4890
3371.871	4807
3373.61	4857
3375.346	4886
3377.083	4908
3378.82	4883
3380.556	4912
3382.292	4921
3384.027	4897
3385.763	4846
3387.497	4880
3389.231	4857
3390.965	4834
3392.698	4917
3394.431	4925
3396.164	4813
3397.896	4833
3399.627	4916
3401.36	4850
3403.09	4881
3404.82	4867
3406.55	4788
3408.279	4793
3410.01	4761
3411.738	4746
3413.467	4813
3415.194	4735
3416.92	4758
3418.647	4801
3420.375	4782
3422.102	4804
3423.827	4746
3425.553	4721
3427.277	4767
3429.003	4813
3430.727	4673
3432.451	4836
3434.173	4664
3435.896	4765
3437.62	4656
3439.343	4621
3441.063	4730
3442.785	4809
3444.505	4725
3446.226	4606
3447.948	4687
3449.666	4701
3451.386	4646
3453.104	4699
3454.823	4665
3456.541	4663
3458.259	4556
3459.976	4550
3461.693	4578
3463.408	4751
3465.125	4616
3466.841	4552
3468.556	4647
3470.271	4576
3471.985	4436
3473.698	4579
3475.414	4517
3477.126	4600
3478.838	4508
3480.55	4473
3482.263	4488
3483.975	4536
3485.686	4588
3487.396	4513
3489.106	4537
3490.817	4486
3492.526	4524
3494.236	4415
3495.944	4558
3497.652	4513
3499.359	4487
3501.066	4435
3502.775	4395
3504.481	4336
3506.187	4466
3507.893	4439
3509.598	4385
3511.304	4516
3513.009	4300
3514.713	4354
3516.417	4337
3518.12	4337
3519.821	4374
3521.525	4311
3523.228	4478
3524.929	4429
3526.631	4385
3528.33	4333
3530.032	4398
3531.733	4315
3533.433	4436
3535.131	4338
3536.83	4354
3538.529	4378
3540.227	4281
3541.925	4342
3543.623	4259
3545.319	4361
3547.016	4233
3548.712	4259
3550.408	4340
3552.103	4302
3553.798	4285
3555.491	4256
3557.188	4199
3558.88	4316
3560.574	4159
3562.266	4301
3563.959	4304
3565.651	4175
3567.343	4388
3569.035	4138
3570.725	4340
3572.415	4176
3574.106	4201
3575.797	4091
3577.485	4207
3579.174	4251
3580.863	4214
3582.551	4240
3584.238	4225
3585.926	4170
3587.613	4153
3589.3	4200
3590.986	4183
3592.671	4121
3594.357	4157
3596.042	4118
3597.726	4064
3599.41	4134
3601.094	4163
3602.778	4205
3604.461	4027
3606.143	4091
3607.825	4150
3609.507	4074
3611.188	4132
3612.87	4097
3614.551	4036
3616.229	4053
3617.909	4093
3619.589	4034
3621.269	4031
3622.948	4012
3624.625	3991
3626.302	3982
3627.98	3973
3629.657	3913
3631.334	3998
3633.01	4043
3634.686	3957
3636.361	4055
3638.036	3953
3639.712	3966
3641.385	3978
3643.06	4001
3644.732	3902
3646.405	3965
3648.08	3826
3649.751	3935
3651.424	3872
3653.094	3847
3654.766	3945
3656.436	3900
3658.106	3947
3659.777	3988
3661.446	3962
3663.115	3885
3664.783	3913
3666.452	3961
3668.121	3920
3669.788	3886
3671.454	3856
3673.121	3842
3674.789	3821
3676.455	3903
3678.12	3863
3679.784	3839
3681.45	3777
3683.114	3851
3684.779	3856
3686.442	3779
3688.105	3845
3689.768	3760
3691.43	3768
3693.093	3851
3694.754	3828
3696.415	3842
3698.076	3859
3699.736	3813
3701.396	3813
3703.057	3797
3704.716	3839
3706.375	3811
3708.034	3832
3709.692	3720
3711.351	3833
3713.008	3818
3714.665	3779
3716.321	3804
3717.977	3810
3719.634	3753
3721.29	3735
3722.945	3791
3724.598	3728
3726.253	3812
3727.907	3762
3729.561	3742
3731.214	3692
3732.867	3764
3734.518	3711
3736.171	3707
3737.824	3682
3739.474	3735
3741.125	3796
3742.775	3663
3744.425	3712
3746.074	3646
3747.725	3671
3749.373	3752
3751.022	3696
3752.669	3774
3754.318	3594
3755.966	3686
3757.612	3639
3759.259	3651
3760.905	3650
3762.55	3664
3764.197	3701
3765.842	3671
3767.486	3733
3769.131	3630
3770.774	3633
3772.417	3705
3774.061	3661
3775.705	3617
3777.347	3652
3778.988	3680
3780.629	3658
3782.271	3632
3783.912	3656
3785.552	3584
3787.192	3655
3788.831	3586
3790.472	3571
3792.112	3527
3793.75	3639
3795.388	3609
3797.024	3617
3798.661	3569
3800.3	3647
3801.936	3629
3803.572	3539
3805.208	3523
3806.844	3592
3808.48	3576
3810.115	3567
3811.748	3548
3813.382	3589
3815.016	3594
3816.649	3506
3818.283	3604
3819.914	3535
3821.547	3570
3823.178	3594
3824.809	3528
3826.441	3555
3828.072	3594
3829.701	3489
3831.331	3547
3832.96	3574
3834.591	3492
3836.219	3561
3837.847	3562
3839.475	3506
3841.102	3496
3842.729	3547
3844.357	3457
3845.984	3547
3847.609	3485
3849.234	3404
3850.86	3499
3852.485	3434
3854.11	3399
3855.734	3546
3857.357	3495
3858.981	3482
3860.603	3393
3862.227	3459
3863.848	3473
3865.471	3522
3867.092	3386
3868.713	3457
3870.334	3496
3871.954	3462
3873.575	3414
3875.194	3450
3876.813	3405
3878.433	3404
3880.051	3410
3881.669	3419
3883.286	3519
3884.904	3496
3886.52	3401
3888.138	3421
3889.754	3417
3891.37	3451
3892.985	3427
3894.6	3430
3896.216	3422
3897.831	3423
3899.444	3387
3901.058	3391
3902.67	3367
3904.283	3373
3905.897	3423
3907.509	3388
3909.121	3406
3910.731	3367
3912.342	3354
3913.954	3435
3915.563	3358
3917.174	3419
3918.783	3349
3920.391	3384
3922.002	3313
3923.611	3446
3925.218	3364
3926.826	3317
3928.432	3358
3930.039	3351
3931.647	3343
3933.253	3337
3934.859	3371
3936.464	3311
3938.068	3265
3939.675	3346
3941.278	3442
3942.883	3390
3944.486	3378
3946.089	3320
3947.692	3355
3949.295	3260
3950.898	3353
3952.499	3362
3954.1	3333
3955.7	3336
3957.303	3295
3958.903	3322
3960.502	3321
3962.101	3286
3963.7	3299
3965.301	3276
3966.899	3310
3968.497	3364
3970.094	3319
3971.691	3213
3973.288	3306
3974.885	3275
3976.481	3208
3978.077	3217
3979.672	3340
3981.267	3305
3982.863	3251
3984.457	3235
3986.051	3204
3987.645	3287
3989.238	3311
3990.831	3248
3992.425	3173
3994.017	3187
3995.607	3247
3997.199	3148
3998.79	3226
4000.382	3178
4001.973	3143
4003.561	3180
4005.151	3236
4006.741	3211
4008.331	3160
4009.918	3189
4011.507	3110
4013.095	3154
4014.681	3260
4016.269	3109
4017.856	3187
4019.443	3125
4021.028	3127
4022.614	3106
4024.199	3138
4025.785	3170
4027.37	3161
4028.953	3078
4030.536	3077
4032.12	3183
4033.704	3121
4035.287	3131
4036.869	3130
4038.45	3185
4040.032	3142
4041.613	3129
4043.195	3043
4044.776	3057
4046.356	3084
4047.935	3066
4049.515	3070
4051.095	3086
4052.674	3094
4054.251	3036
4055.829	3072
4057.406	3038
4058.985	2981
4060.562	3024
4062.139	3095
4063.715	3038
4065.29	2982
4066.865	3060
4068.442	3054
4070.016	3063
4071.59	2943
4073.164	3015
4074.738	3028
4076.312	3036
4077.885	3044
4079.458	2967
4081.03	3041
4082.602	2948
4084.173	2952
4085.745	3050
4087.315	3008
4088.886	3076
4090.456	3016
4092.026	3067
4093.596	3039
4095.165	3061
4096.734	2970
4098.301	2984
4099.869	2997
4101.437	2986
4103.006	2978
4104.572	2950
4106.139	2988
4107.704	2977
4109.27	2944
4110.837	3022
4112.401	2981
4113.966	2974
4115.53	2973
4117.094	2976
4118.659	2968
4120.223	2915
4121.785	2946
4123.347	2941
4124.909	2963
4126.471	2912
4128.034	2977
4129.595	2983
4131.155	2940
4132.716	2923
4134.275	2853
4135.836	2945
4137.395	2809
4138.955	2907
4140.513	2891
4142.071	2923
4143.628	2859
4145.188	2830
4146.745	2915
4148.302	2885
4149.858	2854
4151.414	2902
4152.971	2878
4154.526	2891
4156.081	2911
4157.635	2851
4159.189	2827
4160.745	2852
4162.298	2852
4163.852	2791
4165.405	2817
4166.957	2837
4168.51	2829
4170.063	2910
4171.614	2783
4173.166	2786
4174.717	2882
4176.267	2852
4177.817	2814
4179.368	2895
4180.917	2775
4182.466	2902
4184.016	2775
4185.564	2784
4187.112	2780
4188.66	2817
4190.207	2727
4191.754	2831
4193.301	2780
4194.848	2817
4196.394	2742
4197.94	2815
4199.484	2769
4201.03	2751
4202.575	2778
4204.12	2779
4205.663	2780
4207.207	2756
4208.75	2740
4210.292	2789
4211.836	2792
4213.378	2782
4214.92	2799
4216.46	2796
4218.002	2705
4219.544	2752
4221.083	2733
4222.625	2776
4224.164	2774
4225.703	2747
4227.244	2744
4228.782	2712
4230.32	2705
4231.857	2740
4233.395	2737
4234.933	2750
4236.471	2706
4238.007	2686
4239.542	2685
4241.078	2754
4242.614	2741
4244.15	2657
4245.685	2709
4247.219	2652
4248.753	2662
4250.287	2680
4251.82	2674
4253.354	2667
4254.887	2698
4256.419	2667
4257.951	2643
4259.483	2710
4261.016	2687
4262.547	2684
4264.078	2721
4265.608	2616
4267.137	2677
4268.668	2700
4270.197	2676
4271.727	2645
4273.254	2654
4274.783	2704
4276.311	2621
4277.84	2693
4279.366	2659
4280.894	2686
4282.42	2662
4283.946	2704
4285.473	2591
4286.998	2599
4288.523	2609
4290.047	2739
4291.572	2628
4293.096	2558
4294.622	2583
4296.144	2649
4297.668	2573
4299.19	2648
4300.713	2617
4302.236	2626
4303.758	2620
4305.279	2548
4306.799	2648
4308.321	2576
4309.842	2600
4311.361	2560
4312.882	2572
4314.401	2525
