400.0961	3395
402.6185	3509
405.1424	3377
407.6635	3401
410.1838	3456
412.7035	3355
415.2225	3447
417.7388	3424
420.2585	3486
422.7754	3581
425.2917	3520
427.8072	3569
430.3221	3638
432.8363	3694
435.3498	3575
437.8626	3606
440.3727	3585
442.8841	3693
445.3969	3586
447.907	3635
450.4142	3620
452.9229	3601
455.4289	3630
457.9362	3647
460.4449	3630
462.9488	3587
465.454	3537
467.9566	3579
470.4604	3573
472.9637	3597
475.4662	3514
477.966	3619
480.4671	3637
482.9656	3614
485.4633	3623
487.9645	3594
490.4608	3629
492.9566	3610
495.4536	3718
497.948	3618
500.4437	3655
502.9387	3632
505.431	3648
507.9226	3672
510.4136	3653
512.9079	3719
515.3975	3667
517.8864	3715
520.3746	3782
522.8622	3741
525.3491	3727
527.8394	3639
530.3249	3674
532.8098	3746
535.2939	3692
537.7774	3674
540.2623	3739
542.7444	3705
545.2259	3710
547.7067	3719
550.1868	3809
552.6683	3735
555.147	3749
557.6231	3717
560.1005	3727
562.5773	3723
565.0534	3786
567.5308	3778
570.0056	3812
572.4776	3782
574.951	3855
577.4237	3847
579.8978	3839
582.3671	3900
584.8378	3870
587.3079	3894
589.7773	3960
592.244	3921
594.714	3945
597.1793	3891
599.6461	3842
602.1121	3860
604.5754	3816
607.0421	3841
609.5042	3820
611.9675	3761
614.4282	3754
616.8902	3905
619.3515	3867
621.8122	3745
624.2702	3787
626.7296	3837
629.1863	3840
631.6423	3866
634.1017	3763
636.5563	3888
639.0104	3716
641.4658	3827
643.9185	3774
646.3725	3841
648.8239	3865
651.2766	3783
653.7266	3829
656.176	3870
658.6247	3948
661.0748	3878
663.5242	3894
665.9709	3921
668.417	3849
670.8624	3896
673.3092	3890
675.7533	3971
678.1968	3983
680.6395	3921
683.0817	3907
685.5251	3966
687.9659	3928
690.4061	4024
692.8456	3847
695.2844	3945
697.7226	3970
700.1621	3961
702.599	3907
705.0332	3991
707.4688	4048
709.9036	3950
712.3399	4065
714.7735	4015
717.2044	3909
719.6367	4023
722.0683	4047
724.4993	4013
726.9296	4069
729.3593	4165
731.7883	4042
734.2147	4057
736.6423	4048
739.0714	4154
741.4958	4083
743.9216	4215
746.3447	4178
748.7691	4204
751.1929	4126
753.616	4190
756.0366	4175
758.4584	4253
760.8776	4121
763.2982	4184
765.718	4214
768.1373	4245
770.5539	4241
772.9698	4238
775.3871	4200
777.8038	4144
780.2178	4265
782.6332	4257
785.0459	4161
787.458	4221
789.8714	4226
792.2842	4234
794.6943	4172
797.1038	4293
799.5127	4264
801.9209	4245
804.3324	4269
806.7393	4182
809.1456	4192
811.5513	4361
813.9562	4353
816.3625	4290
818.7663	4214
821.1693	4355
823.5718	4271
825.9735	4309
828.3746	4234
830.7771	4303
833.177	4285
835.5762	4298
837.9747	4311
840.3727	4264
842.772	4300
845.1666	4407
847.5626	4449
849.958	4396
852.3527	4562
854.7488	4478
857.1403	4381
859.5331	4482
861.9253	4502
864.3168	4512
866.7057	4435
869.098	4326
871.4876	4442
873.8746	4395
876.263	4443
878.6487	4357
881.0378	4363
883.4243	4407
885.8081	4386
888.1933	4387
890.5759	4401
892.9598	4389
895.343	4414
897.7256	4401
900.1057	4379
902.4871	4437
904.8659	4383
907.246	4395
909.6254	4504
912.0023	4424
914.3786	4562
916.7562	4610
919.1331	4700
921.5074	4658
923.8831	4703
926.2562	4700
928.6287	4825
931.0005	4683
933.3757	4755
935.7462	4732
938.1162	4691
940.4855	4744
942.8542	4760
945.2242	4719
947.5916	4771
949.9584	4870
952.3266	4980
954.6921	5049
957.0571	5337
959.4233	5530
961.787	5532
964.15	5492
966.5125	5361
968.8742	5212
971.2354	4952
973.5959	4844
975.9559	4787
978.3151	4640
980.6738	4631
983.0338	4568
985.3912	4556
987.7461	4658
990.1022	4514
992.4578	4480
994.8127	4641
997.1689	4542
999.5207	4581
1001.874	4661
1004.226	4684
1006.576	4620
1008.929	4654
1011.28	4632
1013.628	4516
1015.977	4442
1018.324	4515
1020.674	4514
1023.019	4517
1025.366	4583
1027.713	4587
1030.056	4620
1032.399	4576
1034.746	4597
1037.087	4756
1039.431	4593
1041.771	4597
1044.113	4606
1046.454	4656
1048.793	4589
1051.133	4672
1053.471	4575
1055.807	4730
1058.146	4663
1060.483	4679
1062.818	4667
1065.153	4665
1067.489	4711
1069.822	4672
1072.156	4795
1074.488	4666
1076.82	4709
1079.15	4650
1081.48	4651
1083.814	4630
1086.143	4649
1088.471	4711
1090.799	4647
1093.126	4653
1095.452	4579
1097.78	4668
1100.105	4616
1102.43	4669
1104.754	4622
1107.077	4624
1109.4	4723
1111.722	4641
1114.044	4635
1116.365	4714
1118.685	4650
1121.005	4787
1123.324	4623
1125.643	4721
1127.961	4653
1130.278	4651
1132.595	4660
1134.911	4724
1137.226	4615
1139.541	4646
1141.854	4696
1144.167	4573
1146.482	4735
1148.793	4593
1151.105	4681
1153.414	4609
1155.725	4645
1158.033	4676
1160.344	4617
1162.651	4570
1164.959	4667
1167.265	4639
1169.572	4666
1171.878	4672
1174.184	4659
1176.488	4713
1178.79	4678
1181.094	4753
1183.396	4754
1185.699	4631
1188.001	4715
1190.301	4696
1192.6	4696
1194.9	4649
1197.2	4739
1199.497	4672
1201.794	4715
1204.09	4720
1206.387	4735
1208.684	4669
1210.978	4741
1213.272	4758
1215.565	4753
1217.858	4723
1220.15	4755
1222.443	4782
1224.734	4738
1227.024	4775
1229.313	4763
1231.602	4838
1233.892	4768
1236.18	4853
1238.467	4841
1240.754	4898
1243.04	4836
1245.325	4921
1247.612	4953
1249.896	4941
1252.178	4911
1254.461	4945
1256.743	4952
1259.027	4924
1261.308	4954
1263.587	4911
1265.867	4995
1268.146	4959
1270.425	4897
1272.703	4825
1274.981	4972
1277.256	4868
1279.532	4848
1281.808	4893
1284.083	4891
1286.358	4835
1288.63	4824
1290.904	4774
1293.175	4808
1295.449	4894
1297.719	4860
1299.99	4837
1302.259	4884
1304.529	4907
1306.798	4844
1309.065	4856
1311.333	4825
1313.599	4753
1315.866	4860
1318.131	4885
1320.396	4886
1322.66	4800
1324.925	4860
1327.187	4894
1329.448	4954
1331.711	4936
1333.974	4905
1336.234	4825
1338.493	4899
1340.752	4875
1343.01	4857
1345.269	4827
1347.526	4769
1349.784	4855
1352.04	4873
1354.295	4910
1356.552	4842
1358.806	4841
1361.059	4844
1363.312	4806
1365.564	4918
1367.818	4864
1370.069	4933
1372.318	4928
1374.568	4851
1376.817	4924
1379.066	4936
1381.316	4933
1383.564	4847
1385.809	4941
1388.056	4919
1390.301	5040
1392.549	5028
1394.793	5058
1397.036	5171
1399.279	5201
1401.522	5103
1403.763	5105
1406.007	5150
1408.248	5079
1410.487	5032
1412.727	5153
1414.965	5121
1417.205	5058
1419.442	5084
1421.68	5143
1423.915	5113
1426.152	5084
1428.388	5015
1430.623	5092
1432.857	5052
1435.091	5063
1437.323	5019
1439.556	5150
1441.789	5112
1444.019	5160
1446.25	5186
1448.48	5181
1450.708	5220
1452.938	5209
1455.167	5259
1457.394	5272
1459.62	5211
1461.846	5184
1464.073	5265
1466.299	5158
1468.523	5043
1470.746	5127
1472.969	5012
1475.191	4996
1477.415	5071
1479.636	4996
1481.858	4771
1484.078	4950
1486.298	4862
1488.518	4915
1490.736	4879
1492.954	4901
1495.169	4836
1497.386	4819
1499.602	4798
1501.819	4825
1504.034	4797
1506.248	4879
1508.462	4889
1510.675	4722
1512.888	4691
1515.1	4742
1517.311	4855
1519.522	4894
1521.732	4812
1523.942	4851
1526.151	4827
1528.36	4847
1530.566	4718
1532.773	4785
1534.98	4920
1537.187	4834
1539.392	4854
1541.596	4803
1543.801	4882
1546.005	4924
1548.208	4826
1550.411	4874
1552.612	4847
1554.814	4947
1557.013	4843
1559.212	5027
1561.414	4925
1563.612	4939
1565.811	4989
1568.007	4979
1570.203	4932
1572.403	4921
1574.598	4965
1576.792	4988
1578.988	4941
1581.181	4989
1583.376	4973
1585.568	4834
1587.761	5040
1589.952	4974
1592.143	4969
1594.333	4974
1596.524	5029
1598.715	4994
1600.903	4973
1603.091	4974
1605.278	5080
1607.466	4984
1609.652	4952
1611.838	4965
1614.023	4996
1616.207	5017
1618.391	5064
1620.576	5081
1622.759	5113
1624.941	4958
1627.123	5021
1629.304	5104
1631.484	5003
1633.664	5076
1635.844	5168
1638.022	5150
1640.201	5011
1642.38	5111
1644.556	5160
1646.732	5088
1648.908	5220
1651.084	5176
1653.257	5199
1655.433	5141
1657.607	5128
1659.779	5259
1661.951	5121
1664.122	5263
1666.295	5180
1668.467	5247
1670.635	5184
1672.805	5241
1674.973	5146
1677.142	5115
1679.31	5235
1681.478	5184
1683.644	5143
1685.81	5201
1687.975	5139
1690.142	5092
1692.305	5136
1694.468	5092
1696.632	5069
1698.794	5091
1700.957	5070
1703.119	4980
1705.279	5029
1707.439	5054
1709.598	5022
1711.758	5030
1713.917	4961
1716.075	5025
1718.231	4994
1720.388	4874
1722.543	4989
1724.702	4914
1726.856	4993
1729.01	5006
1731.164	4973
1733.317	4872
1735.471	4999
1737.623	4952
1739.774	5098
1741.925	4985
1744.075	5017
1746.225	4916
1748.376	4963
1750.524	5023
1752.672	5010
1754.82	5077
1756.965	5022
1759.113	5049
1761.259	4907
1763.405	4970
1765.549	5098
1767.694	5030
1769.836	4987
1771.981	4976
1774.123	4998
1776.264	5004
1778.405	5151
1780.546	5031
1782.687	5045
1784.827	4987
1786.966	5051
1789.103	5070
1791.242	5093
1793.381	5019
1795.517	5037
1797.653	5052
1799.788	5015
1801.923	5066
1804.057	5040
1806.193	5011
1808.326	5055
1810.457	4988
1812.59	5026
1814.721	5074
1816.855	5032
1818.984	4962
1821.113	4985
1823.244	4924
1825.372	5065
1827.499	4957
1829.63	5033
1831.756	4977
1833.882	5081
1836.007	5070
1838.132	4977
1840.26	5056
1842.384	5014
1844.507	4988
1846.63	5068
1848.752	4954
1850.875	4984
1852.996	4965
1855.118	4971
1857.238	5069
1859.358	4962
1861.477	4960
1863.597	4918
1865.715	4926
1867.832	4898
1869.948	5130
1872.064	4997
1874.181	4983
1876.297	4906
1878.411	4943
1880.526	4936
1882.639	5000
1884.752	5034
1886.865	4999
1888.977	5013
1891.089	4996
1893.2	5092
1895.308	4980
1897.42	5050
1899.53	4999
1901.639	5142
1903.745	5107
1905.853	5041
1907.962	5052
1910.067	4998
1912.174	5022
1914.278	4942
1916.383	5108
1918.486	5129
1920.592	5038
1922.694	4934
1924.797	5111
1926.898	5007
1929	5206
1931.102	5037
1933.203	5115
1935.301	5032
1937.401	5106
1939.499	5119
1941.598	5103
1943.697	4996
1945.793	5022
1947.888	5077
1949.985	4991
1952.08	5059
1954.176	5069
1956.269	5120
1958.364	5047
1960.457	5039
1962.549	5053
1964.642	5041
1966.733	5075
1968.823	5128
1970.913	5042
1973.005	4999
1975.093	5122
1977.184	5017
1979.271	5050
1981.359	5081
1983.446	5065
1985.532	5079
1987.619	5079
1989.705	5031
1991.789	5038
1993.874	5000
1995.956	5046
1998.041	5087
2000.123	4978
2002.206	5078
2004.287	5016
2006.368	4987
2008.449	5080
2010.529	5057
2012.609	5065
2014.688	5012
2016.766	5089
2018.843	5160
2020.922	4953
2022.999	5073
2025.074	4981
2027.15	4944
2029.225	5009
2031.299	5112
2033.375	5026
2035.447	5079
2037.52	5014
2039.592	4952
2041.664	5076
2043.736	5110
2045.807	5036
2047.876	5063
2049.947	5124
2052.015	4974
2054.086	4995
2056.153	5017
2058.221	4990
2060.288	4947
2062.353	4958
2064.42	5125
2066.486	4989
2068.55	4984
2070.614	5067
2072.678	5035
2074.741	5040
2076.805	5042
2078.866	5065
2080.929	5003
2082.99	5002
2085.049	5054
2087.109	4908
2089.17	5020
2091.228	4969
2093.286	5143
2095.344	5047
2097.4	5094
2099.46	5109
2101.516	5030
2103.572	4954
2105.626	5064
2107.679	4982
2109.735	5041
2111.788	5003
2113.841	5021
2115.894	5047
2117.945	5110
2119.997	5097
2122.049	5045
2124.1	5023
2126.148	5051
2128.197	5003
2130.246	5120
2132.296	4998
2134.342	5026
2136.39	5011
2138.437	5026
2140.483	5047
2142.527	4984
2144.574	5113
2146.619	5064
2148.661	5035
2150.705	4962
2152.747	4982
2154.792	4971
2156.832	4926
2158.874	5104
2160.915	5038
2162.954	5026
2164.995	4991
2167.034	4947
2169.072	4964
2171.111	4937
2173.148	4921
2175.186	4920
2177.223	4889
2179.258	4933
2181.294	5030
2183.328	4991
2185.362	4943
2187.398	4981
2189.431	4956
2191.463	4914
2193.495	4983
2195.528	4995
2197.56	4926
2199.59	5001
2201.62	4881
2203.649	5046
2205.678	5007
2207.708	4863
2209.737	4906
2211.764	4969
2213.791	4892
2215.817	4812
2217.843	4927
2219.87	4892
2221.895	4867
2223.919	4878
2225.942	4837
2227.966	5013
2229.988	4893
2232.012	4854
2234.032	4924
2236.054	4905
2238.074	4921
2240.095	4957
2242.116	4863
2244.135	4959
2246.153	4951
2248.171	4959
2250.188	4878
2252.208	4934
2254.223	4932
2256.239	4907
2258.255	4958
2260.269	4966
2262.283	4825
2264.3	4906
2266.312	4953
2268.325	4848
2270.336	4918
2272.349	4873
2274.362	4914
2276.372	4957
2278.383	4899
2280.392	4949
2282.402	4895
2284.409	4898
2286.418	4892
2288.427	4930
2290.433	4821
2292.441	4824
2294.446	4831
2296.453	4853
2298.459	4879
2300.463	4945
2302.466	4956
2304.471	4822
2306.475	4798
2308.477	4839
2310.478	4906
2312.481	4825
2314.481	4826
2316.481	4818
2318.482	4796
2320.482	4902
2322.48	4917
2324.48	4885
2326.478	4919
2328.476	4840
2330.473	4796
2332.469	4925
2334.465	4881
2336.46	4810
2338.454	4724
2340.45	4884
2342.444	4861
2344.437	4764
2346.43	4866
2348.421	4840
2350.414	4868
2352.405	4780
2354.396	4881
2356.386	4851
2358.376	4811
2360.366	4824
2362.355	4805
2364.343	4770
2366.331	4844
2368.317	4806
2370.304	4782
2372.292	4810
2374.278	4655
2376.262	4793
2378.247	4758
2380.23	4736
2382.216	4770
2384.199	4796
2386.181	4763
2388.163	4672
2390.144	4778
2392.127	4687
2394.107	4736
2396.087	4740
2398.066	4738
2400.046	4803
2402.023	4656
2404.004	4645
2405.981	4727
2407.957	4756
2409.934	4800
2411.91	4711
2413.886	4831
2415.862	4815
2417.836	4722
2419.809	4733
2421.784	4785
2423.756	4787
2425.73	4757
2427.701	4706
2429.672	4801
2431.644	4690
2433.615	4749
2435.586	4644
2437.555	4785
2439.523	4783
2441.491	4701
2443.459	4724
2445.428	4736
2447.395	4626
2449.361	4634
2451.327	4726
2453.292	4682
2455.257	4698
2457.223	4626
2459.187	4710
2461.15	4718
2463.113	4636
2465.076	4686
2467.039	4647
2468.999	4671
2470.96	4568
2472.921	4671
2474.881	4700
2476.841	4673
2478.8	4715
2480.759	4679
2482.717	4669
2484.675	4817
2486.63	4687
2488.589	4674
2490.545	4721
2492.5	4708
2494.455	4691
2496.408	4686
2498.364	4654
2500.318	4693
2502.27	4555
2504.223	4631
2506.174	4776
2508.126	4680
2510.078	4669
2512.03	4648
2513.979	4548
2515.927	4661
2517.877	4718
2519.826	4578
2521.775	4516
2523.722	4546
2525.668	4568
2527.616	4573
2529.561	4596
2531.508	4618
2533.452	4668
2535.398	4652
2537.342	4574
2539.284	4666
2541.229	4746
2543.173	4575
2545.114	4522
2547.055	4682
2548.996	4591
2550.938	4695
2552.878	4558
2554.817	4627
2556.756	4702
2558.695	4588
2560.633	4588
2562.572	4600
2564.509	4635
2566.445	4597
2568.382	4633
2570.317	4647
2572.254	4585
2574.189	4720
2576.123	4615
2578.057	4631
2579.99	4546
2581.923	4636
2583.855	4626
2585.788	4615
2587.719	4688
2589.65	4654
2591.579	4583
2593.511	4598
2595.44	4611
2597.37	4593
2599.297	4677
2601.225	4604
2603.153	4623
2605.08	4608
2607.007	4630
2608.932	4636
2610.858	4560
2612.782	4590
2614.709	4724
2616.632	4586
2618.556	4606
2620.478	4656
2622.401	4555
2624.324	4612
2626.247	4597
2628.167	4589
2630.088	4691
2632.008	4720
2633.928	4655
2635.848	4629
2637.766	4714
2639.684	4666
2641.603	4661
2643.519	4605
2645.437	4671
2647.353	4646
2649.27	4657
2651.184	4606
2653.099	4625
2655.014	4618
2656.928	4667
2658.842	4646
2660.755	4720
2662.667	4658
2664.579	4629
2666.491	4707
2668.402	4513
2670.312	4564
2672.222	4658
2674.132	4658
2676.042	4530
2677.951	4539
2679.859	4662
2681.766	4531
2683.674	4617
2685.582	4506
2687.488	4602
2689.392	4609
2691.298	4630
2693.202	4615
2695.107	4581
2697.012	4594
2698.914	4632
2700.817	4631
2702.72	4647
2704.622	4523
2706.524	4645
2708.425	4502
2710.326	4549
2712.225	4512
2714.125	4511
2716.024	4630
2717.923	4574
2719.822	4572
2721.719	4548
2723.616	4565
2725.512	4643
2727.41	4542
2729.305	4612
2731.201	4531
2733.095	4623
2734.99	4623
2736.884	4487
2738.778	4590
2740.67	4593
2742.562	4625
2744.455	4574
2746.346	4574
2748.238	4674
2750.129	4502
2752.018	4521
2753.907	4626
2755.797	4621
2757.687	4612
2759.575	4487
2761.462	4622
2763.349	4489
2765.237	4596
2767.124	4531
2769.009	4508
2770.894	4539
2772.779	4538
2774.663	4626
2776.547	4479
2778.431	4542
2780.314	4530
2782.197	4539
2784.078	4467
2785.96	4503
2787.842	4603
2789.723	4551
2791.603	4481
2793.483	4552
2795.362	4560
2797.241	4463
2799.121	4494
2800.997	4497
2802.874	4481
2804.751	4432
2806.628	4535
2808.506	4510
2810.38	4532
2812.255	4497
2814.13	4536
2816.003	4524
2817.878	4420
2819.752	4491
2821.623	4589
2823.496	4439
2825.368	4534
2827.238	4568
2829.111	4519
2830.98	4449
2832.851	4522
2834.719	4490
2836.589	4633
2838.458	4562
2840.327	4547
2842.193	4577
2844.061	4569
2845.927	4528
2847.794	4607
2849.66	4522
2851.525	4564
2853.39	4608
2855.254	4816
2857.117	4668
2858.983	4617
2860.845	4690
2862.707	4777
2864.569	4748
2866.431	4739
2868.293	4783
2870.154	4802
2872.013	4929
2873.873	4948
2875.733	5016
2877.592	4978
2879.451	5058
2881.309	5030
2883.166	5138
2885.022	5231
2886.879	5387
2888.736	5228
2890.591	5246
2892.446	5237
2894.301	5337
2896.155	5291
2898.009	5270
2899.863	5180
2901.716	5220
2903.568	5304
2905.419	5253
2907.27	5168
2909.123	5076
2910.973	5240
2912.824	5413
2914.673	5271
2916.521	5306
2918.372	5316
2920.22	5442
2922.067	5404
2923.914	5423
2925.761	5502
2927.607	5570
2929.455	5627
2931.301	5647
2933.144	5729
2934.99	5735
2936.833	5795
2938.678	5722
2940.522	5824
2942.364	5992
2944.207	5991
2946.048	6125
2947.891	6211
2949.731	6230
2951.571	6077
2953.412	6121
2955.25	6102
2957.09	6126
2958.93	6020
2960.767	5853
2962.606	5858
2964.443	5797
2966.279	5807
2968.116	5707
2969.953	5517
2971.788	5566
2973.623	5523
2975.457	5418
2977.292	5282
2979.127	5350
2980.959	5301
2982.792	5275
2984.624	5204
2986.455	5197
2988.288	5169
2990.119	5057
2991.949	4913
2993.779	5008
2995.608	5012
2997.439	5024
2999.268	4851
3001.096	4932
3002.923	4810
3004.751	4837
3006.578	4809
3008.406	4794
3010.232	4580
3012.057	4597
3013.883	4640
3015.706	4557
3017.532	4575
3019.356	4559
3021.179	4442
3023.002	4500
3024.823	4508
3026.646	4451
3028.469	4422
3030.289	4402
3032.11	4414
3033.93	4301
3035.749	4326
3037.57	4385
3039.39	4346
3041.207	4301
3043.026	4339
3044.842	4381
3046.661	4322
3048.477	4305
3050.294	4331
3052.109	4333
3053.925	4359
3055.739	4329
3057.555	4306
3059.368	4293
3061.181	4322
3062.995	4340
3064.807	4204
3066.62	4285
3068.433	4337
3070.243	4370
3072.054	4334
3073.865	4311
3075.675	4298
3077.485	4316
3079.293	4334
3081.102	4273
3082.911	4194
3084.719	4199
3086.527	4249
3088.333	4310
3090.139	4293
3091.945	4168
3093.75	4262
3095.557	4225
3097.361	4209
3099.165	4211
3100.969	4337
3102.772	4236
3104.575	4197
3106.379	4184
3108.181	4160
3109.982	4208
3111.783	4176
3113.584	4149
3115.386	4147
3117.186	4154
3118.985	4240
3120.783	4141
3122.582	4102
3124.381	4171
3126.179	4191
3127.975	4190
3129.772	4184
3131.569	4184
3133.365	4177
3135.161	4184
3136.956	4163
3138.751	4144
3140.544	4145
3142.338	4073
3144.132	4033
3145.925	4084
3147.717	4190
3149.509	4030
3151.301	4073
3153.091	4024
3154.884	4064
3156.673	4067
3158.462	4082
3160.252	4064
3162.041	4085
3163.831	4108
3165.618	4020
3167.405	4127
3169.193	4122
3170.979	4096
3172.767	4092
3174.553	4037
3176.338	4054
3178.123	4048
3179.907	4136
3181.692	4051
3183.477	4099
3185.259	4032
3187.042	4106
3188.824	4075
3190.607	4106
3192.389	3974
3194.17	4102
3195.951	4054
3197.73	4137
3199.51	4047
3201.289	4038
3203.07	4056
3204.848	4006
3206.626	3983
3208.403	4004
3210.18	4028
3211.959	4067
3213.735	4097
3215.511	4078
3217.285	3993
3219.06	4121
3220.836	4023
3222.611	4058
3224.384	3968
3226.158	4051
3227.929	4029
3229.702	4056
3231.476	4089
3233.248	4021
3235.018	4031
3236.789	4038
3238.56	4091
3240.33	3997
3242.1	4119
3243.869	4006
3245.637	4069
3247.405	3991
3249.172	4056
3250.941	4141
3252.707	3974
3254.474	4018
3256.24	4021
3258.006	4014
3259.772	4119
3261.537	4072
3263.301	4055
3265.065	4021
3266.828	4071
3268.592	3972
3270.355	4090
3272.117	3999
3273.878	4030
3275.64	4136
3277.401	4118
3279.162	4003
3280.922	4092
3282.682	4070
3284.441	3996
3286.199	3975
3287.959	3984
3289.716	3983
3291.475	4068
3293.232	4009
3294.988	3933
3296.744	4102
3298.501	4089
3300.256	4029
3302.011	4032
3303.766	4046
3305.52	4034
3307.275	4128
3309.028	4003
3310.781	4092
3312.533	4045
3314.285	4048
3316.038	3953
3317.789	4061
3319.54	4017
3321.289	3947
3323.039	4082
3324.789	4034
3326.539	3957
3328.288	3996
3330.035	4072
3331.783	3963
3333.531	4028
3335.28	4030
3337.025	4026
3338.771	3974
3340.518	4008
3342.262	3999
3344.009	4011
3345.753	3870
3347.497	4056
3349.24	4004
3350.983	3849
3352.726	3931
3354.469	3951
3356.212	3941
3357.952	3923
3359.694	3978
3361.434	3895
3363.176	3864
3364.916	3945
3366.654	3895
3368.394	3941
3370.132	3926
3371.871	3884
3373.61	3950
3375.346	3902
3377.083	3875
3378.82	3851
3380.556	3839
3382.292	3833
3384.027	3876
3385.763	3916
3387.497	3869
3389.231	3837
3390.965	3872
3392.698	3932
3394.431	3849
3396.164	3894
3397.896	3887
3399.627	3902
3401.36	3789
3403.09	3888
3404.82	3804
3406.55	3867
3408.279	3848
3410.01	3860
3411.738	3909
3413.467	3877
3415.194	3758
3416.92	3948
3418.647	3793
3420.375	3791
3422.102	3846
3423.827	3870
3425.553	3809
3427.277	3788
3429.003	3772
3430.727	3836
3432.451	3730
3434.173	3869
3435.896	3743
3437.62	3809
3439.343	3796
3441.063	3752
3442.785	3751
3444.505	3709
3446.226	3775
3447.948	3715
3449.666	3697
3451.386	3708
3453.104	3799
3454.823	3752
3456.541	3702
3458.259	3728
3459.976	3651
3461.693	3712
3463.408	3679
3465.125	3673
3466.841	3654
3468.556	3705
3470.271	3675
3471.985	3683
3473.698	3653
3475.414	3677
3477.126	3675
3478.838	3529
3480.55	3699
3482.263	3515
3483.975	3651
3485.686	3605
3487.396	3711
3489.106	3642
3490.817	3595
3492.526	3576
3494.236	3566
3495.944	3658
3497.652	3555
3499.359	3584
3501.066	3617
3502.775	3561
3504.481	3648
3506.187	3610
3507.893	3601
3509.598	3499
3511.304	3606
3513.009	3557
3514.713	3490
3516.417	3515
3518.12	3525
3519.821	3520
3521.525	3554
3523.228	3458
3524.929	3466
3526.631	3497
3528.33	3484
3530.032	3427
3531.733	3517
3533.433	3497
3535.131	3501
3536.83	3451
3538.529	3475
3540.227	3446
3541.925	3463
3543.623	3478
3545.319	3418
3547.016	3373
3548.712	3446
3550.408	3442
3552.103	3389
3553.798	3389
3555.491	3414
3557.188	3472
3558.88	3389
3560.574	3445
3562.266	3452
3563.959	3520
3565.651	3374
3567.343	3472
3569.035	3364
3570.725	3423
3572.415	3468
3574.106	3339
3575.797	3384
3577.485	3437
3579.174	3282
3580.863	3314
3582.551	3324
3584.238	3344
3585.926	3356
3587.613	3298
3589.3	3346
3590.986	3386
3592.671	3208
3594.357	3351
3596.042	3291
3597.726	3302
3599.41	3292
3601.094	3282
3602.778	3261
3604.461	3249
3606.143	3259
3607.825	3241
3609.507	3195
3611.188	3291
3612.87	3214
3614.551	3266
3616.229	3202
3617.909	3297
3619.589	3283
3621.269	3288
3622.948	3230
3624.625	3185
3626.302	3325
3627.98	3247
3629.657	3225
3631.334	3238
3633.01	3211
3634.686	3160
3636.361	3200
3638.036	3202
3639.712	3099
3641.385	3188
3643.06	3139
3644.732	3095
3646.405	3183
3648.08	3140
3649.751	3165
3651.424	3141
3653.094	3186
3654.766	3081
3656.436	3183
3658.106	3048
3659.777	3068
3661.446	3126
3663.115	3105
3664.783	3095
3666.452	3105
3668.121	3131
3669.788	3130
3671.454	3132
3673.121	3057
3674.789	3071
3676.455	3126
3678.12	3010
3679.784	3064
3681.45	3048
3683.114	3085
3684.779	3141
3686.442	3121
3688.105	3036
3689.768	3064
3691.43	3073
3693.093	3115
3694.754	2999
3696.415	3041
3698.076	3046
3699.736	3022
3701.396	3024
3703.057	3011
3704.716	3065
3706.375	3054
3708.034	3031
3709.692	3022
3711.351	3047
3713.008	3150
3714.665	3097
3716.321	3016
3717.977	3070
3719.634	3047
3721.29	3053
3722.945	3118
3724.598	3053
3726.253	2981
3727.907	3032
3729.561	2980
3731.214	3032
3732.867	3031
3734.518	3022
3736.171	3024
3737.824	2981
3739.474	3053
3741.125	3077
3742.775	2959
3744.425	2983
3746.074	3057
3747.725	3040
3749.373	2994
3751.022	2951
3752.669	2930
3754.318	2978
3755.966	2879
3757.612	2989
3759.259	3001
3760.905	2980
3762.55	2932
3764.197	3045
3765.842	2972
3767.486	2917
3769.131	2937
3770.774	2980
3772.417	2970
3774.061	2952
3775.705	2962
3777.347	2958
3778.988	2925
3780.629	2948
3782.271	2873
3783.912	2917
3785.552	2920
3787.192	2895
3788.831	2970
3790.472	2870
3792.112	2994
3793.75	2835
3795.388	2985
3797.024	2962
3798.661	2835
3800.3	2881
3801.936	2916
3803.572	2932
3805.208	2908
3806.844	2888
3808.48	2877
3810.115	2858
3811.748	2861
3813.382	2854
3815.016	2877
3816.649	2877
3818.283	2836
3819.914	2866
3821.547	2893
3823.178	2850
3824.809	2854
3826.441	2849
3828.072	2873
3829.701	2886
3831.331	2903
3832.96	2925
3834.591	2909
3836.219	2800
3837.847	2806
3839.475	2830
3841.102	2844
3842.729	2816
3844.357	2837
3845.984	2811
3847.609	2835
3849.234	2823
3850.86	2850
3852.485	2846
3854.11	2815
3855.734	2794
3857.357	2812
3858.981	2806
3860.603	2805
3862.227	2837
3863.848	2809
3865.471	2774
3867.092	2770
3868.713	2801
3870.334	2773
3871.954	2792
3873.575	2807
3875.194	2779
3876.813	2798
3878.433	2819
3880.051	2793
3881.669	2789
3883.286	2806
3884.904	2681
3886.52	2800
3888.138	2790
3889.754	2741
3891.37	2761
3892.985	2673
3894.6	2788
3896.216	2805
3897.831	2739
3899.444	2712
3901.058	2788
3902.67	2755
3904.283	2733
3905.897	2675
3907.509	2733
3909.121	2630
3910.731	2743
3912.342	2697
3913.954	2705
3915.563	2745
3917.174	2735
3918.783	2756
3920.391	2745
3922.002	2658
3923.611	2705
3925.218	2714
3926.826	2670
3928.432	2738
3930.039	2716
3931.647	2739
3933.253	2651
3934.859	2749
3936.464	2700
3938.068	2672
3939.675	2723
3941.278	2651
3942.883	2737
3944.486	2697
3946.089	2714
3947.692	2695
3949.295	2626
3950.898	2768
3952.499	2764
3954.1	2697
3955.7	2637
3957.303	2704
3958.903	2639
3960.502	2669
3962.101	2626
3963.7	2727
3965.301	2628
3966.899	2660
3968.497	2663
3970.094	2559
3971.691	2644
3973.288	2613
3974.885	2703
3976.481	2626
3978.077	2608
3979.672	2689
3981.267	2618
3982.863	2669
3984.457	2699
3986.051	2593
3987.645	2552
3989.238	2604
3990.831	2594
3992.425	2623
3994.017	2720
3995.607	2690
3997.199	2543
3998.79	2616
4000.382	2626
4001.973	2619
4003.561	2576
4005.151	2529
4006.741	2539
4008.331	2629
4009.918	2619
4011.507	2530
4013.095	2624
4014.681	2518
4016.269	2604
4017.856	2478
4019.443	2566
4021.028	2503
4022.614	2575
4024.199	2561
4025.785	2534
4027.37	2589
4028.953	2549
4030.536	2676
4032.12	2544
4033.704	2536
4035.287	2606
4036.869	2588
4038.45	2490
4040.032	2537
4041.613	2531
4043.195	2573
4044.776	2471
4046.356	2497
4047.935	2548
4049.515	2485
4051.095	2474
4052.674	2567
4054.251	2489
4055.829	2494
4057.406	2535
4058.985	2490
4060.562	2464
4062.139	2487
4063.715	2495
4065.29	2453
4066.865	2470
4068.442	2456
4070.016	2500
4071.59	2460
4073.164	2480
4074.738	2442
4076.312	2496
4077.885	2448
4079.458	2472
4081.03	2498
4082.602	2472
4084.173	2416
4085.745	2438
4087.315	2426
4088.886	2425
4090.456	2467
4092.026	2496
4093.596	2461
4095.165	2417
4096.734	2412
4098.301	2472
4099.869	2457
4101.437	2479
4103.006	2424
4104.572	2408
4106.139	2437
4107.704	2389
4109.27	2385
4110.837	2428
4112.401	2420
4113.966	2414
4115.53	2371
4117.094	2435
4118.659	2401
4120.223	2421
4121.785	2393
4123.347	2391
4124.909	2407
4126.471	2445
4128.034	2413
4129.595	2444
4131.155	2422
4132.716	2349
4134.275	2375
4135.836	2446
4137.395	2384
4138.955	2339
4140.513	2313
4142.071	2397
4143.628	2334
4145.188	2391
4146.745	2301
4148.302	2287
4149.858	2301
4151.414	2335
4152.971	2360
4154.526	2344
4156.081	2405
4157.635	2379
4159.189	2370
4160.745	2379
4162.298	2286
4163.852	2378
4165.405	2345
4166.957	2299
4168.51	2349
4170.063	2325
4171.614	2328
4173.166	2298
4174.717	2227
4176.267	2364
4177.817	2255
4179.368	2342
4180.917	2361
4182.466	2384
4184.016	2333
4185.564	2271
4187.112	2294
4188.66	2203
4190.207	2322
4191.754	2281
4193.301	2286
4194.848	2282
4196.394	2247
4197.94	2282
4199.484	2276
4201.03	2295
4202.575	2317
4204.12	2283
4205.663	2253
4207.207	2261
4208.75	2266
4210.292	2243
4211.836	2212
4213.378	2223
4214.92	2271
4216.46	2245
4218.002	2302
4219.544	2253
4221.083	2261
4222.625	2261
4224.164	2243
4225.703	2254
4227.244	2238
4228.782	2184
4230.32	2277
4231.857	2192
4233.395	2228
4234.933	2256
4236.471	2255
4238.007	2262
4239.542	2237
4241.078	2259
4242.614	2222
4244.15	2225
4245.685	2180
4247.219	2147
4248.753	2204
4250.287	2204
4251.82	2233
4253.354	2187
4254.887	2281
4256.419	2176
4257.951	2234
4259.483	2215
4261.016	2204
4262.547	2244
4264.078	2208
4265.608	2134
4267.137	2232
4268.668	2245
4270.197	2173
4271.727	2171
4273.254	2150
4274.783	2227
4276.311	2119
4277.84	2201
4279.366	2194
4280.894	2224
4282.42	2187
4283.946	2108
4285.473	2150
4286.998	2133
4288.523	2165
4290.047	2113
4291.572	2226
4293.096	2188
4294.622	2146
4296.144	2120
4297.668	2125
4299.19	2199
4300.713	2192
4302.236	2132
4303.758	2138
4305.279	2111
4306.799	2178
4308.321	2099
4309.842	2156
4311.361	2125
4312.882	2107
4314.401	2124
