400.0961	2397
402.6185	2420
405.1424	2444
407.6635	2386
410.1838	2452
412.7035	2401
415.2225	2414
417.7388	2479
420.2585	2499
422.7754	2572
425.2917	2573
427.8072	2620
430.3221	2675
432.8363	2624
435.3498	2616
437.8626	2631
440.3727	2647
442.8841	2616
445.3969	2572
447.907	2627
450.4142	2532
452.9229	2582
455.4289	2577
457.9362	2563
460.4449	2542
462.9488	2528
465.454	2543
467.9566	2534
470.4604	2483
472.9637	2498
475.4662	2485
477.966	2497
480.4671	2426
482.9656	2506
485.4633	2552
487.9645	2516
490.4608	2568
492.9566	2596
495.4536	2475
497.948	2557
500.4437	2600
502.9387	2502
505.431	2561
507.9226	2553
510.4136	2547
512.9079	2512
515.3975	2592
517.8864	2585
520.3746	2475
522.8622	2570
525.3491	2615
527.8394	2542
530.3249	2600
532.8098	2638
535.2939	2626
537.7774	2573
540.2623	2611
542.7444	2587
545.2259	2607
547.7067	2626
550.1868	2639
552.6683	2581
555.147	2637
557.6231	2633
560.1005	2615
562.5773	2584
565.0534	2551
567.5308	2663
570.0056	2602
572.4776	2689
574.951	2668
577.4237	2690
579.8978	2695
582.3671	2747
584.8378	2817
587.3079	2794
589.7773	2697
592.244	2775
594.714	2701
597.1793	2767
599.6461	2776
602.1121	2738
604.5754	2716
607.0421	2699
609.5042	2678
611.9675	2753
614.4282	2700
616.8902	2615
619.3515	2689
621.8122	2650
624.2702	2692
626.7296	2639
629.1863	2615
631.6423	2579
634.1017	2586
636.5563	2590
639.0104	2579
641.4658	2646
643.9185	2561
646.3725	2546
648.8239	2677
651.2766	2640
653.7266	2701
656.176	2706
658.6247	2618
661.0748	2645
663.5242	2670
665.9709	2659
668.417	2706
670.8624	2708
673.3092	2703
675.7533	2656
678.1968	2671
680.6395	2662
683.0817	2640
685.5251	2735
687.9659	2761
690.4061	2737
692.8456	2714
695.2844	2720
697.7226	2747
700.1621	2764
702.599	2747
705.0332	2690
707.4688	2672
709.9036	2776
712.3399	2739
714.7735	2743
717.2044	2733
719.6367	2770
722.0683	2781
724.4993	2785
726.9296	2774
729.3593	2829
731.7883	2860
734.2147	2811
736.6423	2797
739.0714	2865
741.4958	2875
743.9216	2835
746.3447	2817
748.7691	2832
751.1929	2837
753.616	2887
756.0366	2800
758.4584	2923
760.8776	2881
763.2982	2913
765.718	2860
768.1373	2906
770.5539	2907
772.9698	3021
775.3871	2840
777.8038	2890
780.2178	2823
782.6332	2930
785.0459	2820
787.458	2891
789.8714	2892
792.2842	2869
794.6943	2915
797.1038	2848
799.5127	2863
801.9209	2899
804.3324	2882
806.7393	2896
809.1456	2912
811.5513	2922
813.9562	2989
816.3625	3008
818.7663	3007
821.1693	2903
823.5718	2924
825.9735	2972
828.3746	2889
830.7771	2955
833.177	2899
835.5762	2986
837.9747	3026
840.3727	2947
842.772	3020
845.1666	2968
847.5626	3034
849.958	2967
852.3527	3145
854.7488	3057
857.1403	3106
859.5331	3028
861.9253	3045
864.3168	3022
866.7057	3039
869.098	3057
871.4876	3037
873.8746	3064
876.263	3025
878.6487	3041
881.0378	3002
883.4243	2970
885.8081	3015
888.1933	2988
890.5759	2999
892.9598	2972
895.343	3027
897.7256	3068
900.1057	2955
902.4871	3034
904.8659	3082
907.246	3107
909.6254	3091
912.0023	3104
914.3786	3121
916.7562	3133
919.1331	3223
921.5074	3203
923.8831	3243
926.2562	3228
928.6287	3304
931.0005	3280
933.3757	3280
935.7462	3395
938.1162	3351
940.4855	3409
942.8542	3485
945.2242	3497
947.5916	3573
949.9584	3689
952.3266	3898
954.6921	4072
957.0571	4339
959.4233	4592
961.787	4698
964.15	4551
966.5125	4383
968.8742	4105
971.2354	3956
973.5959	3674
975.9559	3505
978.3151	3313
980.6738	3311
983.0338	3221
985.3912	3251
987.7461	3174
990.1022	3188
992.4578	3129
994.8127	3096
997.1689	3164
999.5207	3164
1001.874	3239
1004.226	3133
1006.576	3214
1008.929	3267
1011.28	3177
1013.628	3122
1015.977	3156
1018.324	3133
1020.674	3177
1023.019	3100
1025.366	3225
1027.713	3275
1030.056	3278
1032.399	3261
1034.746	3274
1037.087	3235
1039.431	3226
1041.771	3263
1044.113	3280
1046.454	3274
1048.793	3239
1051.133	3222
1053.471	3237
1055.807	3320
1058.146	3257
1060.483	3357
1062.818	3331
1065.153	3321
1067.489	3359
1069.822	3427
1072.156	3384
1074.488	3359
1076.82	3364
1079.15	3467
1081.48	3317
1083.814	3340
1086.143	3320
1088.471	3156
1090.799	3209
1093.126	3234
1095.452	3285
1097.78	3246
1100.105	3246
1102.43	3279
1104.754	3216
1107.077	3231
1109.4	3279
1111.722	3203
1114.044	3227
1116.365	3291
1118.685	3183
1121.005	3278
1123.324	3233
1125.643	3250
1127.961	3179
1130.278	3239
1132.595	3230
1134.911	3218
1137.226	3213
1139.541	3150
1141.854	3167
1144.167	3243
1146.482	3110
1148.793	3210
1151.105	3250
1153.414	3252
1155.725	3221
1158.033	3169
1160.344	3300
1162.651	3230
1164.959	3205
1167.265	3276
1169.572	3258
1171.878	3217
1174.184	3297
1176.488	3157
1178.79	3366
1181.094	3297
1183.396	3278
1185.699	3171
1188.001	3123
1190.301	3236
1192.6	3196
1194.9	3115
1197.2	3202
1199.497	3175
1201.794	3262
1204.09	3230
1206.387	3268
1208.684	3195
1210.978	3214
1213.272	3213
1215.565	3222
1217.858	3245
1220.15	3270
1222.443	3247
1224.734	3300
1227.024	3278
1229.313	3271
1231.602	3365
1233.892	3285
1236.18	3323
1238.467	3338
1240.754	3428
1243.04	3436
1245.325	3453
1247.612	3424
1249.896	3392
1252.178	3413
1254.461	3362
1256.743	3361
1259.027	3495
1261.308	3345
1263.587	3447
1265.867	3456
1268.146	3392
1270.425	3358
1272.703	3412
1274.981	3425
1277.256	3411
1279.532	3431
1281.808	3498
1284.083	3366
1286.358	3391
1288.63	3391
1290.904	3381
1293.175	3400
1295.449	3327
1297.719	3326
1299.99	3332
1302.259	3326
1304.529	3342
1306.798	3326
1309.065	3385
1311.333	3332
1313.599	3336
1315.866	3329
1318.131	3270
1320.396	3340
1322.66	3413
1324.925	3306
1327.187	3291
1329.448	3381
1331.711	3357
1333.974	3445
1336.234	3269
1338.493	3317
1340.752	3372
1343.01	3286
1345.269	3271
1347.526	3365
1349.784	3359
1352.04	3331
1354.295	3343
1356.552	3268
1358.806	3301
1361.059	3333
1363.312	3312
1365.564	3342
1367.818	3387
1370.069	3334
1372.318	3352
1374.568	3415
1376.817	3350
1379.066	3384
1381.316	3303
1383.564	3373
1385.809	3436
1388.056	3432
1390.301	3346
1392.549	3398
1394.793	3488
1397.036	3358
1399.279	3586
1401.522	3479
1403.763	3517
1406.007	3460
1408.248	3457
1410.487	3569
1412.727	3561
1414.965	3495
1417.205	3515
1419.442	3440
1421.68	3507
1423.915	3378
1426.152	3508
1428.388	3509
1430.623	3511
1432.857	3527
1435.091	3450
1437.323	3497
1439.556	3466
1441.789	3515
1444.019	3616
1446.25	3604
1448.48	3608
1450.708	3582
1452.938	3579
1455.167	3613
1457.394	3686
1459.62	3644
1461.846	3583
1464.073	3583
1466.299	3583
1468.523	3466
1470.746	3516
1472.969	3511
1475.191	3478
1477.415	3469
1479.636	3416
1481.858	3401
1484.078	3412
1486.298	3280
1488.518	3324
1490.736	3414
1492.954	3351
1495.169	3322
1497.386	3275
1499.602	3371
1501.819	3301
1504.034	3255
1506.248	3234
1508.462	3389
1510.675	3266
1512.888	3339
1515.1	3350
1517.311	3281
1519.522	3368
1521.732	3284
1523.942	3359
1526.151	3236
1528.36	3306
1530.566	3308
1532.773	3383
1534.98	3289
1537.187	3298
1539.392	3245
1541.596	3294
1543.801	3338
1546.005	3265
1548.208	3309
1550.411	3418
1552.612	3353
1554.814	3319
1557.013	3337
1559.212	3401
1561.414	3356
1563.612	3359
1565.811	3344
1568.007	3419
1570.203	3395
1572.403	3357
1574.598	3462
1576.792	3354
1578.988	3326
1581.181	3420
1583.376	3382
1585.568	3412
1587.761	3426
1589.952	3454
1592.143	3424
1594.333	3329
1596.524	3485
1598.715	3489
1600.903	3490
1603.091	3404
1605.278	3446
1607.466	3564
1609.652	3418
1611.838	3449
1614.023	3488
1616.207	3431
1618.391	3484
1620.576	3517
1622.759	3553
1624.941	3524
1627.123	3512
1629.304	3451
1631.484	3455
1633.664	3565
1635.844	3535
1638.022	3598
1640.201	3517
1642.38	3582
1644.556	3570
1646.732	3598
1648.908	3541
1651.084	3532
1653.257	3572
1655.433	3612
1657.607	3614
1659.779	3593
1661.951	3560
1664.122	3665
1666.295	3639
1668.467	3587
1670.635	3629
1672.805	3625
1674.973	3618
1677.142	3599
1679.31	3592
1681.478	3623
1683.644	3595
1685.81	3626
1687.975	3561
1690.142	3572
1692.305	3548
1694.468	3586
1696.632	3541
1698.794	3560
1700.957	3549
1703.119	3485
1705.279	3549
1707.439	3454
1709.598	3483
1711.758	3389
1713.917	3577
1716.075	3422
1718.231	3408
1720.388	3392
1722.543	3432
1724.702	3489
1726.856	3344
1729.01	3360
1731.164	3380
1733.317	3378
1735.471	3412
1737.623	3443
1739.774	3357
1741.925	3524
1744.075	3407
1746.225	3464
1748.376	3439
1750.524	3385
1752.672	3446
1754.82	3450
1756.965	3483
1759.113	3488
1761.259	3405
1763.405	3433
1765.549	3469
1767.694	3429
1769.836	3417
1771.981	3433
1774.123	3461
1776.264	3442
1778.405	3398
1780.546	3476
1782.687	3439
1784.827	3396
1786.966	3468
1789.103	3434
1791.242	3490
1793.381	3517
1795.517	3516
1797.653	3462
1799.788	3377
1801.923	3487
1804.057	3477
1806.193	3432
1808.326	3451
1810.457	3405
1812.59	3447
1814.721	3492
1816.855	3444
1818.984	3504
1821.113	3529
1823.244	3499
1825.372	3484
1827.499	3492
1829.63	3432
1831.756	3515
1833.882	3499
1836.007	3464
1838.132	3488
1840.26	3468
1842.384	3436
1844.507	3454
1846.63	3460
1848.752	3436
1850.875	3515
1852.996	3464
1855.118	3347
1857.238	3490
1859.358	3331
1861.477	3401
1863.597	3424
1865.715	3408
1867.832	3527
1869.948	3357
1872.064	3426
1874.181	3398
1876.297	3388
1878.411	3511
1880.526	3414
1882.639	3449
1884.752	3425
1886.865	3471
1888.977	3427
1891.089	3435
1893.2	3328
1895.308	3466
1897.42	3349
1899.53	3446
1901.639	3508
1903.745	3528
1905.853	3467
1907.962	3489
1910.067	3536
1912.174	3495
1914.278	3489
1916.383	3462
1918.486	3449
1920.592	3492
1922.694	3612
1924.797	3514
1926.898	3437
1929	3532
1931.102	3500
1933.203	3539
1935.301	3522
1937.401	3432
1939.499	3575
1941.598	3549
1943.697	3530
1945.793	3558
1947.888	3515
1949.985	3522
1952.08	3528
1954.176	3455
1956.269	3466
1958.364	3481
1960.457	3507
1962.549	3534
1964.642	3523
1966.733	3497
1968.823	3591
1970.913	3479
1973.005	3533
1975.093	3460
1977.184	3507
1979.271	3549
1981.359	3515
1983.446	3449
1985.532	3559
1987.619	3435
1989.705	3467
1991.789	3442
1993.874	3511
1995.956	3531
1998.041	3550
2000.123	3421
2002.206	3511
2004.287	3438
2006.368	3605
2008.449	3499
2010.529	3517
2012.609	3547
2014.688	3513
2016.766	3514
2018.843	3537
2020.922	3489
2022.999	3419
2025.074	3516
2027.15	3517
2029.225	3459
2031.299	3422
2033.375	3496
2035.447	3440
2037.52	3411
2039.592	3471
2041.664	3500
2043.736	3495
2045.807	3481
2047.876	3537
2049.947	3488
2052.015	3436
2054.086	3539
2056.153	3465
2058.221	3468
2060.288	3543
2062.353	3562
2064.42	3476
2066.486	3465
2068.55	3579
2070.614	3476
2072.678	3566
2074.741	3463
2076.805	3595
2078.866	3473
2080.929	3460
2082.99	3510
2085.049	3505
2087.109	3530
2089.17	3506
2091.228	3569
2093.286	3576
2095.344	3550
2097.4	3456
2099.46	3473
2101.516	3538
2103.572	3496
2105.626	3511
2107.679	3585
2109.735	3577
2111.788	3451
2113.841	3545
2115.894	3481
2117.945	3477
2119.997	3567
2122.049	3446
2124.1	3552
2126.148	3476
2128.197	3570
2130.246	3563
2132.296	3474
2134.342	3564
2136.39	3513
2138.437	3479
2140.483	3569
2142.527	3460
2144.574	3506
2146.619	3522
2148.661	3575
2150.705	3427
2152.747	3460
2154.792	3520
2156.832	3503
2158.874	3546
2160.915	3500
2162.954	3579
2164.995	3454
2167.034	3525
2169.072	3498
2171.111	3463
2173.148	3480
2175.186	3522
2177.223	3475
2179.258	3428
2181.294	3506
2183.328	3468
2185.362	3531
2187.398	3481
2189.431	3411
2191.463	3439
2193.495	3468
2195.528	3480
2197.56	3415
2199.59	3470
2201.62	3417
2203.649	3456
2205.678	3544
2207.708	3437
2209.737	3535
2211.764	3419
2213.791	3435
2215.817	3430
2217.843	3407
2219.87	3372
2221.895	3456
2223.919	3427
2225.942	3551
2227.966	3503
2229.988	3449
2232.012	3393
2234.032	3397
2236.054	3456
2238.074	3457
2240.095	3467
2242.116	3502
2244.135	3443
2246.153	3422
2248.171	3453
2250.188	3425
2252.208	3431
2254.223	3407
2256.239	3380
2258.255	3498
2260.269	3388
2262.283	3501
2264.3	3430
2266.312	3375
2268.325	3430
2270.336	3397
2272.349	3513
2274.362	3385
2276.372	3423
2278.383	3483
2280.392	3407
2282.402	3470
2284.409	3484
2286.418	3473
2288.427	3532
2290.433	3406
2292.441	3490
2294.446	3330
2296.453	3408
2298.459	3374
2300.463	3445
2302.466	3423
2304.471	3414
2306.475	3440
2308.477	3441
2310.478	3400
2312.481	3417
2314.481	3388
2316.481	3383
2318.482	3368
2320.482	3420
2322.48	3417
2324.48	3394
2326.478	3388
2328.476	3432
2330.473	3431
2332.469	3429
2334.465	3398
2336.46	3496
2338.454	3397
2340.45	3302
2342.444	3466
2344.437	3440
2346.43	3411
2348.421	3392
2350.414	3356
2352.405	3347
2354.396	3412
2356.386	3469
2358.376	3345
2360.366	3407
2362.355	3369
2364.343	3379
2366.331	3371
2368.317	3359
2370.304	3327
2372.292	3393
2374.278	3345
2376.262	3449
2378.247	3351
2380.23	3391
2382.216	3410
2384.199	3381
2386.181	3326
2388.163	3314
2390.144	3340
2392.127	3393
2394.107	3431
2396.087	3244
2398.066	3338
2400.046	3349
2402.023	3350
2404.004	3329
2405.981	3403
2407.957	3316
2409.934	3383
2411.91	3322
2413.886	3391
2415.862	3331
2417.836	3414
2419.809	3330
2421.784	3387
2423.756	3335
2425.73	3341
2427.701	3422
2429.672	3457
2431.644	3321
2433.615	3405
2435.586	3409
2437.555	3284
2439.523	3291
2441.491	3354
2443.459	3355
2445.428	3293
2447.395	3347
2449.361	3363
2451.327	3331
2453.292	3245
2455.257	3331
2457.223	3378
2459.187	3324
2461.15	3425
2463.113	3302
2465.076	3346
2467.039	3287
2468.999	3408
2470.96	3389
2472.921	3238
2474.881	3352
2476.841	3300
2478.8	3250
2480.759	3300
2482.717	3318
2484.675	3393
2486.63	3309
2488.589	3311
2490.545	3241
2492.5	3278
2494.455	3332
2496.408	3375
2498.364	3280
2500.318	3322
2502.27	3299
2504.223	3340
2506.174	3304
2508.126	3306
2510.078	3235
2512.03	3310
2513.979	3238
2515.927	3316
2517.877	3351
2519.826	3323
2521.775	3275
2523.722	3360
2525.668	3261
2527.616	3298
2529.561	3271
2531.508	3280
2533.452	3308
2535.398	3259
2537.342	3292
2539.284	3250
2541.229	3345
2543.173	3290
2545.114	3278
2547.055	3376
2548.996	3375
2550.938	3320
2552.878	3355
2554.817	3348
2556.756	3350
2558.695	3327
2560.633	3311
2562.572	3197
2564.509	3308
2566.445	3237
2568.382	3316
2570.317	3376
2572.254	3304
2574.189	3287
2576.123	3272
2578.057	3303
2579.99	3265
2581.923	3264
2583.855	3309
2585.788	3335
2587.719	3328
2589.65	3384
2591.579	3292
2593.511	3293
2595.44	3269
2597.37	3270
2599.297	3305
2601.225	3279
2603.153	3292
2605.08	3353
2607.007	3280
2608.932	3343
2610.858	3269
2612.782	3295
2614.709	3264
2616.632	3288
2618.556	3236
2620.478	3311
2622.401	3249
2624.324	3376
2626.247	3358
2628.167	3339
2630.088	3321
2632.008	3338
2633.928	3297
2635.848	3329
2637.766	3272
2639.684	3320
2641.603	3300
2643.519	3363
2645.437	3345
2647.353	3351
2649.27	3368
2651.184	3401
2653.099	3292
2655.014	3269
2656.928	3317
2658.842	3363
2660.755	3325
2662.667	3318
2664.579	3361
2666.491	3300
2668.402	3275
2670.312	3350
2672.222	3334
2674.132	3281
2676.042	3279
2677.951	3327
2679.859	3381
2681.766	3285
2683.674	3347
2685.582	3343
2687.488	3301
2689.392	3277
2691.298	3313
2693.202	3307
2695.107	3296
2697.012	3259
2698.914	3276
2700.817	3223
2702.72	3279
2704.622	3306
2706.524	3222
2708.425	3233
2710.326	3311
2712.225	3352
2714.125	3252
2716.024	3297
2717.923	3244
2719.822	3245
2721.719	3318
2723.616	3273
2725.512	3253
2727.41	3251
2729.305	3236
2731.201	3216
2733.095	3280
2734.99	3332
2736.884	3282
2738.778	3297
2740.67	3239
2742.562	3249
2744.455	3295
2746.346	3338
2748.238	3302
2750.129	3330
2752.018	3194
2753.907	3295
2755.797	3330
2757.687	3309
2759.575	3266
2761.462	3289
2763.349	3232
2765.237	3333
2767.124	3319
2769.009	3259
2770.894	3252
2772.779	3306
2774.663	3212
2776.547	3284
2778.431	3327
2780.314	3254
2782.197	3290
2784.078	3301
2785.96	3302
2787.842	3227
2789.723	3309
2791.603	3207
2793.483	3257
2795.362	3273
2797.241	3287
2799.121	3290
2800.997	3219
2802.874	3275
2804.751	3253
2806.628	3276
2808.506	3289
2810.38	3257
2812.255	3289
2814.13	3232
2816.003	3225
2817.878	3186
2819.752	3238
2821.623	3326
2823.496	3237
2825.368	3352
2827.238	3233
2829.111	3224
2830.98	3254
2832.851	3294
2834.719	3301
2836.589	3369
2838.458	3328
2840.327	3349
2842.193	3250
2844.061	3326
2845.927	3265
2847.794	3327
2849.66	3261
2851.525	3315
2853.39	3324
2855.254	3377
2857.117	3341
2858.983	3379
2860.845	3414
2862.707	3370
2864.569	3484
2866.431	3399
2868.293	3494
2870.154	3512
2872.013	3537
2873.873	3630
2875.733	3600
2877.592	3651
2879.451	3728
2881.309	3732
2883.166	3748
2885.022	3857
2886.879	3759
2888.736	3860
2890.591	3802
2892.446	3756
2894.301	3705
2896.155	3818
2898.009	3831
2899.863	3755
2901.716	3727
2903.568	3826
2905.419	3779
2907.27	3785
2909.123	3830
2910.973	3808
2912.824	3820
2914.673	3897
2916.521	3871
2918.372	3938
2920.22	4094
2922.067	4028
2923.914	4140
2925.761	4172
2927.607	4282
2929.455	4268
2931.301	4408
2933.144	4290
2934.99	4431
2936.833	4449
2938.678	4446
2940.522	4484
2942.364	4555
2944.207	4630
2946.048	4621
2947.891	4675
2949.731	4553
2951.571	4668
2953.412	4632
2955.25	4500
2957.09	4526
2958.93	4491
2960.767	4312
2962.606	4368
2964.443	4226
2966.279	4342
2968.116	4193
2969.953	4145
2971.788	4089
2973.623	4058
2975.457	4060
2977.292	3955
2979.127	3990
2980.959	3937
2982.792	3916
2984.624	4041
2986.455	3878
2988.288	3928
2990.119	3834
2991.949	3777
2993.779	3840
2995.608	3767
2997.439	3773
2999.268	3682
3001.096	3645
3002.923	3641
3004.751	3639
3006.578	3552
3008.406	3559
3010.232	3452
3012.057	3443
3013.883	3472
3015.706	3477
3017.532	3395
3019.356	3317
3021.179	3315
3023.002	3377
3024.823	3285
3026.646	3347
3028.469	3242
3030.289	3293
3032.11	3233
3033.93	3264
3035.749	3279
3037.57	3216
3039.39	3257
3041.207	3134
3043.026	3244
3044.842	3244
3046.661	3167
3048.477	3221
3050.294	3163
3052.109	3135
3053.925	3203
3055.739	3201
3057.555	3202
3059.368	3174
3061.181	3161
3062.995	3283
3064.807	3213
3066.62	3121
3068.433	3178
3070.243	3136
3072.054	3167
3073.865	3180
3075.675	3189
3077.485	3199
3079.293	3232
3081.102	3091
3082.911	3163
3084.719	3085
3086.527	3216
3088.333	3189
3090.139	3111
3091.945	3114
3093.75	3179
3095.557	3155
3097.361	3089
3099.165	3076
3100.969	3121
3102.772	3085
3104.575	3030
3106.379	3133
3108.181	3037
3109.982	3138
3111.783	3084
3113.584	3158
3115.386	3026
3117.186	2992
3118.985	3076
3120.783	3066
3122.582	3147
3124.381	3031
3126.179	3012
3127.975	3102
3129.772	3113
3131.569	3059
3133.365	3066
3135.161	3009
3136.956	3062
3138.751	3018
3140.544	2997
3142.338	2999
3144.132	2975
3145.925	3057
3147.717	2987
3149.509	2978
3151.301	3029
3153.091	2991
3154.884	2980
3156.673	3066
3158.462	3029
3160.252	3097
3162.041	3044
3163.831	3061
3165.618	3009
3167.405	3024
3169.193	3126
3170.979	2991
3172.767	2960
3174.553	3023
3176.338	3064
3178.123	3052
3179.907	3048
3181.692	2952
3183.477	3070
3185.259	2971
3187.042	3045
3188.824	2982
3190.607	3039
3192.389	3041
3194.17	3027
3195.951	2973
3197.73	3086
3199.51	3066
3201.289	3027
3203.07	3028
3204.848	2991
3206.626	2974
3208.403	3155
3210.18	3030
3211.959	2955
3213.735	2983
3215.511	3086
3217.285	2953
3219.06	3054
3220.836	3018
3222.611	3022
3224.384	3049
3226.158	3050
3227.929	3029
3229.702	3137
3231.476	3025
3233.248	3099
3235.018	3021
3236.789	3091
3238.56	3055
3240.33	2998
3242.1	3038
3243.869	3078
3245.637	3061
3247.405	3081
3249.172	3056
3250.941	3037
3252.707	3008
3254.474	3085
3256.24	3129
3258.006	3072
3259.772	3078
3261.537	3091
3263.301	2983
3265.065	3068
3266.828	3079
3268.592	3074
3270.355	3065
3272.117	3025
3273.878	3093
3275.64	3084
3277.401	3049
3279.162	3089
3280.922	3068
3282.682	3081
3284.441	3075
3286.199	3028
3287.959	3096
3289.716	3150
3291.475	3142
3293.232	3085
3294.988	3126
3296.744	3100
3298.501	3074
3300.256	3026
3302.011	3101
3303.766	3080
3305.52	3065
3307.275	3073
3309.028	3048
3310.781	3090
3312.533	3013
3314.285	3106
3316.038	3012
3317.789	3040
3319.54	3030
3321.289	3116
3323.039	3086
3324.789	3118
3326.539	3102
3328.288	3073
3330.035	3042
3331.783	3068
3333.531	3074
3335.28	3024
3337.025	3079
3338.771	3060
3340.518	3022
3342.262	3016
3344.009	3064
3345.753	2980
3347.497	2965
3349.24	3050
3350.983	3025
3352.726	3025
3354.469	3055
3356.212	3023
3357.952	2956
3359.694	3013
3361.434	3033
3363.176	3041
3364.916	2988
3366.654	2994
3368.394	3001
3370.132	3011
3371.871	3005
3373.61	2940
3375.346	3017
3377.083	2963
3378.82	3004
3380.556	2976
3382.292	3012
3384.027	2936
3385.763	2976
3387.497	3006
3389.231	2927
3390.965	2917
3392.698	2962
3394.431	2935
3396.164	2892
3397.896	3029
3399.627	2974
3401.36	2956
3403.09	2973
3404.82	3001
3406.55	2925
3408.279	2927
3410.01	3023
3411.738	2957
3413.467	2921
3415.194	2933
3416.92	3004
3418.647	2964
3420.375	2928
3422.102	2946
3423.827	2910
3425.553	2888
3427.277	2965
3429.003	2941
3430.727	2897
3432.451	2966
3434.173	2897
3435.896	2892
3437.62	2815
3439.343	2897
3441.063	2958
3442.785	2883
3444.505	2820
3446.226	2829
3447.948	2867
3449.666	2815
3451.386	2906
3453.104	2890
3454.823	2822
3456.541	2871
3458.259	2836
3459.976	2787
3461.693	2830
3463.408	2863
3465.125	2861
3466.841	2861
3468.556	2903
3470.271	2830
3471.985	2764
3473.698	2737
3475.414	2818
3477.126	2712
3478.838	2816
3480.55	2757
3482.263	2776
3483.975	2743
3485.686	2794
3487.396	2682
3489.106	2767
3490.817	2842
3492.526	2819
3494.236	2691
3495.944	2745
3497.652	2789
3499.359	2714
3501.066	2752
3502.775	2736
3504.481	2740
3506.187	2756
3507.893	2753
3509.598	2725
3511.304	2688
3513.009	2712
3514.713	2722
3516.417	2743
3518.12	2689
3519.821	2687
3521.525	2749
3523.228	2745
3524.929	2683
3526.631	2693
3528.33	2686
3530.032	2665
3531.733	2701
3533.433	2666
3535.131	2663
3536.83	2680
3538.529	2676
3540.227	2678
3541.925	2632
3543.623	2654
3545.319	2657
3547.016	2637
3548.712	2612
3550.408	2725
3552.103	2585
3553.798	2657
3555.491	2665
3557.188	2633
3558.88	2634
3560.574	2629
3562.266	2617
3563.959	2623
3565.651	2629
3567.343	2635
3569.035	2619
3570.725	2580
3572.415	2612
3574.106	2602
3575.797	2594
3577.485	2593
3579.174	2531
3580.863	2592
3582.551	2608
3584.238	2592
3585.926	2582
3587.613	2502
3589.3	2565
3590.986	2563
3592.671	2586
3594.357	2550
3596.042	2539
3597.726	2592
3599.41	2555
3601.094	2472
3602.778	2531
3604.461	2439
3606.143	2480
3607.825	2609
3609.507	2472
3611.188	2558
3612.87	2528
3614.551	2486
3616.229	2492
3617.909	2423
3619.589	2519
3621.269	2519
3622.948	2467
3624.625	2553
3626.302	2440
3627.98	2432
3629.657	2454
3631.334	2474
3633.01	2475
3634.686	2416
3636.361	2485
3638.036	2477
3639.712	2450
3641.385	2448
3643.06	2430
3644.732	2417
3646.405	2424
3648.08	2389
3649.751	2452
3651.424	2468
3653.094	2361
3654.766	2405
3656.436	2393
3658.106	2385
3659.777	2434
3661.446	2421
3663.115	2346
3664.783	2461
3666.452	2359
3668.121	2378
3669.788	2440
3671.454	2370
3673.121	2397
3674.789	2396
3676.455	2390
3678.12	2342
3679.784	2398
3681.45	2333
3683.114	2380
3684.779	2405
3686.442	2345
3688.105	2385
3689.768	2307
3691.43	2429
3693.093	2367
3694.754	2323
3696.415	2298
3698.076	2354
3699.736	2342
3701.396	2314
3703.057	2335
3704.716	2333
3706.375	2353
3708.034	2391
3709.692	2307
3711.351	2375
3713.008	2327
3714.665	2324
3716.321	2265
3717.977	2359
3719.634	2302
3721.29	2333
3722.945	2396
3724.598	2371
3726.253	2348
3727.907	2297
3729.561	2290
3731.214	2366
3732.867	2291
3734.518	2301
3736.171	2356
3737.824	2264
3739.474	2314
3741.125	2267
3742.775	2301
3744.425	2247
3746.074	2289
3747.725	2275
3749.373	2284
3751.022	2304
3752.669	2284
3754.318	2270
3755.966	2284
3757.612	2250
3759.259	2296
3760.905	2288
3762.55	2320
3764.197	2266
3765.842	2343
3767.486	2282
3769.131	2260
3770.774	2285
3772.417	2243
3774.061	2288
3775.705	2253
3777.347	2250
3778.988	2228
3780.629	2229
3782.271	2234
3783.912	2187
3785.552	2271
3787.192	2281
3788.831	2237
3790.472	2251
3792.112	2276
3793.75	2243
3795.388	2225
3797.024	2215
3798.661	2241
3800.3	2187
3801.936	2198
3803.572	2211
3805.208	2201
3806.844	2209
3808.48	2169
3810.115	2209
3811.748	2241
3813.382	2172
3815.016	2181
3816.649	2200
3818.283	2222
3819.914	2273
3821.547	2200
3823.178	2121
3824.809	2234
3826.441	2193
3828.072	2219
3829.701	2202
3831.331	2181
3832.96	2210
3834.591	2179
3836.219	2218
3837.847	2163
3839.475	2208
3841.102	2140
3842.729	2131
3844.357	2173
3845.984	2180
3847.609	2190
3849.234	2165
3850.86	2162
3852.485	2168
3854.11	2151
3855.734	2145
3857.357	2216
3858.981	2167
3860.603	2157
3862.227	2171
3863.848	2140
3865.471	2175
3867.092	2214
3868.713	2120
3870.334	2168
3871.954	2121
3873.575	2138
3875.194	2155
3876.813	2182
3878.433	2159
3880.051	2125
3881.669	2221
3883.286	2132
3884.904	2099
3886.52	2104
3888.138	2146
3889.754	2126
3891.37	2157
3892.985	2155
3894.6	2139
3896.216	2139
3897.831	2142
3899.444	2129
3901.058	2113
3902.67	2168
3904.283	2103
3905.897	2114
3907.509	2037
3909.121	2143
3910.731	2125
3912.342	2191
3913.954	2140
3915.563	2126
3917.174	2124
3918.783	2078
3920.391	2113
3922.002	2097
3923.611	2063
3925.218	2146
3926.826	2163
3928.432	2154
3930.039	2134
3931.647	2077
3933.253	2097
3934.859	2090
3936.464	2098
3938.068	2104
3939.675	2105
3941.278	2075
3942.883	2070
3944.486	2021
3946.089	2157
3947.692	2073
3949.295	2102
3950.898	2060
3952.499	2089
3954.1	2095
3955.7	2108
3957.303	2092
3958.903	2067
3960.502	2082
3962.101	2026
3963.7	2105
3965.301	2127
3966.899	2045
3968.497	2101
3970.094	2103
3971.691	2042
3973.288	2083
3974.885	2060
3976.481	2035
3978.077	2098
3979.672	2083
3981.267	2072
3982.863	2055
3984.457	2031
3986.051	2029
3987.645	2045
3989.238	2069
3990.831	2098
3992.425	1996
3994.017	2057
3995.607	2043
3997.199	2025
3998.79	2055
4000.382	2035
4001.973	2053
4003.561	2042
4005.151	1994
4006.741	2067
4008.331	1965
4009.918	2030
4011.507	2025
4013.095	2040
4014.681	2030
4016.269	1989
4017.856	2047
4019.443	1937
4021.028	1971
4022.614	2025
4024.199	1983
4025.785	2004
4027.37	2006
4028.953	2012
4030.536	1964
4032.12	1967
4033.704	1950
4035.287	1947
4036.869	2023
4038.45	1946
4040.032	2002
4041.613	1961
4043.195	1955
4044.776	1943
4046.356	2017
4047.935	1991
4049.515	1909
4051.095	1918
4052.674	1957
4054.251	1924
4055.829	1945
4057.406	2024
4058.985	1949
4060.562	1961
4062.139	1960
4063.715	1952
4065.29	1959
4066.865	1937
4068.442	1986
4070.016	1989
4071.59	2002
4073.164	1982
4074.738	1925
4076.312	1988
4077.885	1957
4079.458	1931
4081.03	1959
4082.602	1892
4084.173	1936
4085.745	1928
4087.315	1963
4088.886	1913
4090.456	1964
4092.026	1899
4093.596	1886
4095.165	1910
4096.734	1931
4098.301	1873
4099.869	1929
4101.437	1872
4103.006	1942
4104.572	1924
4106.139	1913
4107.704	1909
4109.27	1922
4110.837	1894
4112.401	1878
4113.966	1871
4115.53	1872
4117.094	1864
4118.659	1878
4120.223	1915
4121.785	1862
4123.347	1917
4124.909	1922
4126.471	1902
4128.034	1863
4129.595	1851
4131.155	1846
4132.716	1926
4134.275	1890
4135.836	1892
4137.395	1873
4138.955	1888
4140.513	1876
4142.071	1841
4143.628	1839
4145.188	1869
4146.745	1842
4148.302	1797
4149.858	1826
4151.414	1840
4152.971	1854
4154.526	1864
4156.081	1834
4157.635	1855
4159.189	1850
4160.745	1845
4162.298	1860
4163.852	1848
4165.405	1815
4166.957	1930
4168.51	1800
4170.063	1794
4171.614	1878
4173.166	1847
4174.717	1852
4176.267	1849
4177.817	1821
4179.368	1782
4180.917	1822
4182.466	1799
4184.016	1782
4185.564	1832
4187.112	1759
4188.66	1784
4190.207	1840
4191.754	1826
4193.301	1783
4194.848	1827
4196.394	1781
4197.94	1744
4199.484	1752
4201.03	1810
4202.575	1831
4204.12	1795
4205.663	1837
4207.207	1761
4208.75	1784
4210.292	1760
4211.836	1818
4213.378	1774
4214.92	1771
4216.46	1757
4218.002	1843
4219.544	1785
4221.083	1846
4222.625	1798
4224.164	1746
4225.703	1792
4227.244	1742
4228.782	1785
4230.32	1752
4231.857	1825
4233.395	1783
4234.933	1842
4236.471	1776
4238.007	1770
4239.542	1795
4241.078	1773
4242.614	1716
4244.15	1713
4245.685	1769
4247.219	1764
4248.753	1783
4250.287	1747
4251.82	1768
4253.354	1765
4254.887	1733
4256.419	1744
4257.951	1757
4259.483	1744
4261.016	1758
4262.547	1758
4264.078	1741
4265.608	1707
4267.137	1759
4268.668	1759
4270.197	1731
4271.727	1793
4273.254	1742
4274.783	1717
4276.311	1708
4277.84	1724
4279.366	1748
4280.894	1745
4282.42	1754
4283.946	1710
4285.473	1778
4286.998	1742
4288.523	1765
4290.047	1746
4291.572	1670
4293.096	1744
4294.622	1736
4296.144	1766
4297.668	1759
4299.19	1718
4300.713	1736
4302.236	1788
4303.758	1695
4305.279	1706
4306.799	1656
4308.321	1720
4309.842	1706
4311.361	1694
4312.882	1640
4314.401	1702
