400.0961	3582
402.6185	3684
405.1424	3658
407.6635	3629
410.1838	3618
412.7035	3733
415.2225	3679
417.7388	3792
420.2585	3866
422.7754	3790
425.2917	3871
427.8072	3857
430.3221	3872
432.8363	3874
435.3498	3986
437.8626	3899
440.3727	3883
442.8841	3882
445.3969	3897
447.907	3830
450.4142	3861
452.9229	3895
455.4289	3908
457.9362	3915
460.4449	3928
462.9488	3844
465.454	3801
467.9566	3762
470.4604	3880
472.9637	3936
475.4662	3780
477.966	3832
480.4671	3859
482.9656	3852
485.4633	3860
487.9645	3969
490.4608	3902
492.9566	3824
495.4536	3913
497.948	3880
500.4437	3888
502.9387	3985
505.431	3933
507.9226	3939
510.4136	4068
512.9079	3918
515.3975	3960
517.8864	3898
520.3746	3967
522.8622	4035
525.3491	3961
527.8394	4000
530.3249	4035
532.8098	4020
535.2939	3967
537.7774	3997
540.2623	3998
542.7444	4070
545.2259	3979
547.7067	4056
550.1868	4062
552.6683	4006
555.147	3960
557.6231	4174
560.1005	4088
562.5773	3986
565.0534	4080
567.5308	4081
570.0056	4130
572.4776	4137
574.951	4094
577.4237	4220
579.8978	4154
582.3671	4158
584.8378	4233
587.3079	4293
589.7773	4214
592.244	4241
594.714	4195
597.1793	4129
599.6461	4127
602.1121	4135
604.5754	4138
607.0421	4116
609.5042	4178
611.9675	4105
614.4282	4165
616.8902	4077
619.3515	4107
621.8122	4179
624.2702	4049
626.7296	4127
629.1863	3967
631.6423	4121
634.1017	3976
636.5563	4078
639.0104	4023
641.4658	4102
643.9185	4136
646.3725	4134
648.8239	4147
651.2766	4112
653.7266	4154
656.176	4144
658.6247	4095
661.0748	4210
663.5242	4201
665.9709	4153
668.417	4268
670.8624	4264
673.3092	4200
675.7533	4181
678.1968	4134
680.6395	4293
683.0817	4293
685.5251	4262
687.9659	4219
690.4061	4299
692.8456	4274
695.2844	4234
697.7226	4236
700.1621	4222
702.599	4214
705.0332	4320
707.4688	4286
709.9036	4303
712.3399	4287
714.7735	4362
717.2044	4390
719.6367	4257
722.0683	4412
724.4993	4478
726.9296	4424
729.3593	4361
731.7883	4418
734.2147	4418
736.6423	4404
739.0714	4423
741.4958	4481
743.9216	4421
746.3447	4400
748.7691	4482
751.1929	4454
753.616	4468
756.0366	4561
758.4584	4530
760.8776	4513
763.2982	4504
765.718	4562
768.1373	4554
770.5539	4450
772.9698	4569
775.3871	4494
777.8038	4469
780.2178	4563
782.6332	4564
785.0459	4519
787.458	4563
789.8714	4551
792.2842	4562
794.6943	4479
797.1038	4602
799.5127	4503
801.9209	4625
804.3324	4516
806.7393	4608
809.1456	4570
811.5513	4614
813.9562	4668
816.3625	4643
818.7663	4689
821.1693	4615
823.5718	4700
825.9735	4636
828.3746	4591
830.7771	4578
833.177	4645
835.5762	4727
837.9747	4549
840.3727	4585
842.772	4663
845.1666	4747
847.5626	4764
849.958	4827
852.3527	4804
854.7488	4804
857.1403	4776
859.5331	4828
861.9253	4783
864.3168	4735
866.7057	4782
869.098	4761
871.4876	4742
873.8746	4702
876.263	4758
878.6487	4689
881.0378	4729
883.4243	4663
885.8081	4781
888.1933	4697
890.5759	4763
892.9598	4735
895.343	4806
897.7256	4806
900.1057	4623
902.4871	4677
904.8659	4680
907.246	4759
909.6254	4783
912.0023	4828
914.3786	4816
916.7562	4845
919.1331	4975
921.5074	4993
923.8831	5017
926.2562	5057
928.6287	4973
931.0005	4963
933.3757	4948
935.7462	5121
938.1162	5092
940.4855	5164
942.8542	5290
945.2242	5270
947.5916	5388
949.9584	5570
952.3266	5752
954.6921	6072
957.0571	6346
959.4233	6770
961.787	6599
964.15	6678
966.5125	6330
968.8742	6125
971.2354	5746
973.5959	5584
975.9559	5361
978.3151	5268
980.6738	5037
983.0338	4899
985.3912	4962
987.7461	4974
990.1022	4880
992.4578	4869
994.8127	4892
997.1689	4869
999.5207	4887
1001.874	4947
1004.226	4949
1006.576	4953
1008.929	4906
1011.28	4876
1013.628	4956
1015.977	4916
1018.324	4935
1020.674	4969
1023.019	4991
1025.366	5039
1027.713	4990
1030.056	5033
1032.399	5029
1034.746	5081
1037.087	4948
1039.431	5062
1041.771	5114
1044.113	5001
1046.454	5016
1048.793	5038
1051.133	5041
1053.471	5110
1055.807	5022
1058.146	5020
1060.483	5089
1062.818	5202
1065.153	5169
1067.489	5201
1069.822	5188
1072.156	5245
1074.488	5191
1076.82	5319
1079.15	5100
1081.48	5139
1083.814	5093
1086.143	5067
1088.471	5098
1090.799	5024
1093.126	5095
1095.452	5043
1097.78	4953
1100.105	4998
1102.43	5034
1104.754	5065
1107.077	5046
1109.4	5056
1111.722	5052
1114.044	5000
1116.365	5076
1118.685	5037
1121.005	4982
1123.324	5059
1125.643	4958
1127.961	5000
1130.278	5065
1132.595	5046
1134.911	4980
1137.226	5073
1139.541	5003
1141.854	5072
1144.167	5033
1146.482	5031
1148.793	5056
1151.105	4981
1153.414	5055
1155.725	5005
1158.033	5042
1160.344	5007
1162.651	5156
1164.959	4978
1167.265	5110
1169.572	5040
1171.878	5075
1174.184	4975
1176.488	5128
1178.79	5049
1181.094	5092
1183.396	5140
1185.699	4987
1188.001	5016
1190.301	5003
1192.6	5032
1194.9	5100
1197.2	5104
1199.497	5016
1201.794	5021
1204.09	5061
1206.387	4975
1208.684	4985
1210.978	5044
1213.272	5059
1215.565	4971
1217.858	5076
1220.15	5076
1222.443	5083
1224.734	5083
1227.024	5143
1229.313	5198
1231.602	5174
1233.892	5211
1236.18	5256
1238.467	5291
1240.754	5224
1243.04	5358
1245.325	5266
1247.612	5396
1249.896	5327
1252.178	5350
1254.461	5354
1256.743	5312
1259.027	5307
1261.308	5280
1263.587	5341
1265.867	5312
1268.146	5402
1270.425	5392
1272.703	5245
1274.981	5391
1277.256	5405
1279.532	5349
1281.808	5270
1284.083	5279
1286.358	5255
1288.63	5313
1290.904	5222
1293.175	5205
1295.449	5280
1297.719	5200
1299.99	5154
1302.259	5226
1304.529	5120
1306.798	5126
1309.065	5271
1311.333	5245
1313.599	5131
1315.866	5227
1318.131	5252
1320.396	5230
1322.66	5209
1324.925	5280
1327.187	5173
1329.448	5305
1331.711	5236
1333.974	5207
1336.234	5156
1338.493	5222
1340.752	5239
1343.01	5314
1345.269	5317
1347.526	5207
1349.784	5297
1352.04	5191
1354.295	5198
1356.552	5214
1358.806	5171
1361.059	5101
1363.312	5126
1365.564	5259
1367.818	5170
1370.069	5292
1372.318	5156
1374.568	5254
1376.817	5301
1379.066	5226
1381.316	5207
1383.564	5254
1385.809	5289
1388.056	5329
1390.301	5316
1392.549	5291
1394.793	5307
1397.036	5372
1399.279	5402
1401.522	5441
1403.763	5265
1406.007	5400
1408.248	5317
1410.487	5436
1412.727	5385
1414.965	5357
1417.205	5418
1419.442	5401
1421.68	5325
1423.915	5449
1426.152	5361
1428.388	5442
1430.623	5307
1432.857	5411
1435.091	5374
1437.323	5439
1439.556	5502
1441.789	5458
1444.019	5537
1446.25	5539
1448.48	5514
1450.708	5510
1452.938	5562
1455.167	5503
1457.394	5529
1459.62	5529
1461.846	5594
1464.073	5537
1466.299	5693
1468.523	5493
1470.746	5328
1472.969	5272
1475.191	5355
1477.415	5438
1479.636	5350
1481.858	5323
1484.078	5153
1486.298	5234
1488.518	5282
1490.736	5271
1492.954	5299
1495.169	5262
1497.386	5222
1499.602	5168
1501.819	5271
1504.034	5231
1506.248	5174
1508.462	5234
1510.675	5110
1512.888	5075
1515.1	5153
1517.311	5280
1519.522	5225
1521.732	5031
1523.942	5255
1526.151	5246
1528.36	5097
1530.566	5163
1532.773	5278
1534.98	5118
1537.187	5246
1539.392	5320
1541.596	5223
1543.801	5199
1546.005	5282
1548.208	5339
1550.411	5241
1552.612	5290
1554.814	5217
1557.013	5290
1559.212	5245
1561.414	5306
1563.612	5312
1565.811	5374
1568.007	5363
1570.203	5357
1572.403	5310
1574.598	5178
1576.792	5318
1578.988	5347
1581.181	5374
1583.376	5371
1585.568	5300
1587.761	5293
1589.952	5371
1592.143	5435
1594.333	5327
1596.524	5343
1598.715	5362
1600.903	5385
1603.091	5436
1605.278	5358
1607.466	5410
1609.652	5391
1611.838	5487
1614.023	5577
1616.207	5398
1618.391	5482
1620.576	5397
1622.759	5519
1624.941	5399
1627.123	5373
1629.304	5500
1631.484	5440
1633.664	5498
1635.844	5468
1638.022	5497
1640.201	5458
1642.38	5545
1644.556	5496
1646.732	5562
1648.908	5537
1651.084	5591
1653.257	5605
1655.433	5656
1657.607	5552
1659.779	5612
1661.951	5581
1664.122	5563
1666.295	5741
1668.467	5589
1670.635	5542
1672.805	5673
1674.973	5549
1677.142	5593
1679.31	5662
1681.478	5559
1683.644	5638
1685.81	5530
1687.975	5482
1690.142	5601
1692.305	5508
1694.468	5481
1696.632	5357
1698.794	5454
1700.957	5354
1703.119	5492
1705.279	5395
1707.439	5414
1709.598	5404
1711.758	5341
1713.917	5348
1716.075	5415
1718.231	5384
1720.388	5313
1722.543	5311
1724.702	5385
1726.856	5360
1729.01	5332
1731.164	5330
1733.317	5302
1735.471	5434
1737.623	5398
1739.774	5397
1741.925	5354
1744.075	5420
1746.225	5354
1748.376	5357
1750.524	5357
1752.672	5445
1754.82	5344
1756.965	5363
1759.113	5390
1761.259	5388
1763.405	5471
1765.549	5330
1767.694	5324
1769.836	5340
1771.981	5438
1774.123	5280
1776.264	5460
1778.405	5433
1780.546	5392
1782.687	5367
1784.827	5335
1786.966	5413
1789.103	5436
1791.242	5394
1793.381	5448
1795.517	5451
1797.653	5337
1799.788	5430
1801.923	5334
1804.057	5526
1806.193	5439
1808.326	5401
1810.457	5457
1812.59	5429
1814.721	5483
1816.855	5503
1818.984	5357
1821.113	5515
1823.244	5339
1825.372	5474
1827.499	5351
1829.63	5330
1831.756	5449
1833.882	5405
1836.007	5423
1838.132	5382
1840.26	5435
1842.384	5351
1844.507	5409
1846.63	5494
1848.752	5378
1850.875	5391
1852.996	5312
1855.118	5274
1857.238	5397
1859.358	5345
1861.477	5354
1863.597	5317
1865.715	5464
1867.832	5417
1869.948	5445
1872.064	5311
1874.181	5372
1876.297	5333
1878.411	5281
1880.526	5382
1882.639	5400
1884.752	5343
1886.865	5438
1888.977	5434
1891.089	5536
1893.2	5365
1895.308	5362
1897.42	5393
1899.53	5375
1901.639	5429
1903.745	5416
1905.853	5439
1907.962	5408
1910.067	5404
1912.174	5402
1914.278	5433
1916.383	5377
1918.486	5490
1920.592	5432
1922.694	5339
1924.797	5442
1926.898	5356
1929	5564
1931.102	5452
1933.203	5451
1935.301	5539
1937.401	5447
1939.499	5485
1941.598	5654
1943.697	5487
1945.793	5439
1947.888	5564
1949.985	5523
1952.08	5492
1954.176	5388
1956.269	5476
1958.364	5473
1960.457	5560
1962.549	5442
1964.642	5478
1966.733	5474
1968.823	5466
1970.913	5545
1973.005	5455
1975.093	5493
1977.184	5458
1979.271	5590
1981.359	5506
1983.446	5391
1985.532	5423
1987.619	5410
1989.705	5480
1991.789	5385
1993.874	5443
1995.956	5422
1998.041	5409
2000.123	5452
2002.206	5474
2004.287	5402
2006.368	5284
2008.449	5444
2010.529	5499
2012.609	5355
2014.688	5440
2016.766	5341
2018.843	5493
2020.922	5382
2022.999	5269
2025.074	5381
2027.15	5317
2029.225	5465
2031.299	5386
2033.375	5466
2035.447	5461
2037.52	5475
2039.592	5436
2041.664	5360
2043.736	5440
2045.807	5364
2047.876	5385
2049.947	5376
2052.015	5413
2054.086	5496
2056.153	5476
2058.221	5395
2060.288	5330
2062.353	5447
2064.42	5324
2066.486	5448
2068.55	5409
2070.614	5524
2072.678	5525
2074.741	5475
2076.805	5414
2078.866	5510
2080.929	5412
2082.99	5463
2085.049	5367
2087.109	5421
2089.17	5498
2091.228	5437
2093.286	5353
2095.344	5534
2097.4	5397
2099.46	5455
2101.516	5432
2103.572	5371
2105.626	5335
2107.679	5475
2109.735	5435
2111.788	5374
2113.841	5305
2115.894	5446
2117.945	5477
2119.997	5387
2122.049	5462
2124.1	5398
2126.148	5421
2128.197	5380
2130.246	5377
2132.296	5420
2134.342	5421
2136.39	5356
2138.437	5450
2140.483	5506
2142.527	5304
2144.574	5368
2146.619	5433
2148.661	5408
2150.705	5343
2152.747	5470
2154.792	5431
2156.832	5372
2158.874	5345
2160.915	5281
2162.954	5511
2164.995	5362
2167.034	5398
2169.072	5268
2171.111	5384
2173.148	5403
2175.186	5311
2177.223	5408
2179.258	5332
2181.294	5317
2183.328	5311
2185.362	5280
2187.398	5398
2189.431	5326
2191.463	5384
2193.495	5363
2195.528	5364
2197.56	5312
2199.59	5309
2201.62	5280
2203.649	5295
2205.678	5346
2207.708	5300
2209.737	5289
2211.764	5259
2213.791	5232
2215.817	5362
2217.843	5306
2219.87	5356
2221.895	5217
2223.919	5199
2225.942	5272
2227.966	5367
2229.988	5252
2232.012	5210
2234.032	5289
2236.054	5327
2238.074	5215
2240.095	5228
2242.116	5175
2244.135	5221
2246.153	5199
2248.171	5253
2250.188	5201
2252.208	5338
2254.223	5273
2256.239	5343
2258.255	5323
2260.269	5387
2262.283	5271
2264.3	5355
2266.312	5292
2268.325	5395
2270.336	5295
2272.349	5393
2274.362	5389
2276.372	5258
2278.383	5372
2280.392	5312
2282.402	5325
2284.409	5432
2286.418	5334
2288.427	5252
2290.433	5299
2292.441	5346
2294.446	5240
2296.453	5163
2298.459	5261
2300.463	5361
2302.466	5341
2304.471	5216
2306.475	5387
2308.477	5287
2310.478	5170
2312.481	5282
2314.481	5195
2316.481	5222
2318.482	5258
2320.482	5367
2322.48	5306
2324.48	5187
2326.478	5169
2328.476	5246
2330.473	5255
2332.469	5188
2334.465	5189
2336.46	5173
2338.454	5280
2340.45	5175
2342.444	5281
2344.437	5229
2346.43	5217
2348.421	5148
2350.414	5199
2352.405	5170
2354.396	5164
2356.386	5180
2358.376	5199
2360.366	5139
2362.355	5147
2364.343	5054
2366.331	5204
2368.317	5157
2370.304	5189
2372.292	5207
2374.278	5162
2376.262	5200
2378.247	5195
2380.23	5143
2382.216	5138
2384.199	5094
2386.181	5267
2388.163	5123
2390.144	5098
2392.127	5210
2394.107	5091
2396.087	5174
2398.066	5074
2400.046	5188
2402.023	5195
2404.004	5121
2405.981	5137
2407.957	5208
2409.934	5159
2411.91	5061
2413.886	5161
2415.862	5053
2417.836	5114
2419.809	5167
2421.784	5129
2423.756	5011
2425.73	4954
2427.701	5051
2429.672	5219
2431.644	5053
2433.615	5102
2435.586	5033
2437.555	5117
2439.523	5137
2441.491	5025
2443.459	5037
2445.428	5044
2447.395	5106
2449.361	5107
2451.327	5114
2453.292	5098
2455.257	5041
2457.223	5185
2459.187	5014
2461.15	5064
2463.113	5088
2465.076	5053
2467.039	5138
2468.999	5142
2470.96	5058
2472.921	5053
2474.881	5054
2476.841	5063
2478.8	5088
2480.759	5037
2482.717	5128
2484.675	4992
2486.63	5080
2488.589	5073
2490.545	5096
2492.5	5066
2494.455	5051
2496.408	5048
2498.364	5022
2500.318	5024
2502.27	4980
2504.223	5066
2506.174	5107
2508.126	5061
2510.078	4906
2512.03	5040
2513.979	5061
2515.927	4892
2517.877	4946
2519.826	4975
2521.775	4970
2523.722	5066
2525.668	4953
2527.616	4936
2529.561	4946
2531.508	5037
2533.452	5017
2535.398	4946
2537.342	4914
2539.284	4981
2541.229	5065
2543.173	4986
2545.114	5071
2547.055	5030
2548.996	5055
2550.938	4996
2552.878	5039
2554.817	5016
2556.756	4976
2558.695	4974
2560.633	5038
2562.572	4856
2564.509	4924
2566.445	4984
2568.382	4974
2570.317	4911
2572.254	4997
2574.189	5072
2576.123	4896
2578.057	4971
2579.99	5022
2581.923	5056
2583.855	4846
2585.788	4999
2587.719	5032
2589.65	5064
2591.579	5027
2593.511	4934
2595.44	4961
2597.37	4994
2599.297	5078
2601.225	5085
2603.153	4888
2605.08	5029
2607.007	4978
2608.932	5041
2610.858	4986
2612.782	5041
2614.709	5084
2616.632	4869
2618.556	4987
2620.478	5083
2622.401	4984
2624.324	4969
2626.247	5006
2628.167	4993
2630.088	4999
2632.008	5017
2633.928	5117
2635.848	5058
2637.766	4954
2639.684	5005
2641.603	5119
2643.519	5016
2645.437	5016
2647.353	4962
2649.27	4939
2651.184	5014
2653.099	4978
2655.014	4992
2656.928	5019
2658.842	5053
2660.755	5143
2662.667	5055
2664.579	4919
2666.491	5000
2668.402	5057
2670.312	5005
2672.222	5026
2674.132	5068
2676.042	4948
2677.951	4957
2679.859	5031
2681.766	5001
2683.674	4911
2685.582	4969
2687.488	4969
2689.392	4980
2691.298	4871
2693.202	5000
2695.107	4929
2697.012	4998
2698.914	5060
2700.817	4868
2702.72	4930
2704.622	4975
2706.524	4795
2708.425	4978
2710.326	4941
2712.225	4887
2714.125	4833
2716.024	4924
2717.923	4937
2719.822	4925
2721.719	4938
2723.616	4995
2725.512	4921
2727.41	4940
2729.305	4962
2731.201	4870
2733.095	4950
2734.99	4970
2736.884	4918
2738.778	4931
2740.67	4926
2742.562	4901
2744.455	4833
2746.346	4852
2748.238	4924
2750.129	4871
2752.018	4872
2753.907	4944
2755.797	4863
2757.687	4947
2759.575	4885
2761.462	4843
2763.349	4866
2765.237	4848
2767.124	4924
2769.009	4872
2770.894	4978
2772.779	4877
2774.663	4926
2776.547	4891
2778.431	4962
2780.314	4872
2782.197	4866
2784.078	4917
2785.96	4814
2787.842	4911
2789.723	4891
2791.603	4811
2793.483	4795
2795.362	4864
2797.241	4788
2799.121	4892
2800.997	4843
2802.874	4869
2804.751	4906
2806.628	4896
2808.506	4806
2810.38	4729
2812.255	4701
2814.13	4898
2816.003	4824
2817.878	4798
2819.752	4747
2821.623	4890
2823.496	4854
2825.368	4796
2827.238	4755
2829.111	4798
2830.98	4921
2832.851	4853
2834.719	4875
2836.589	4837
2838.458	4848
2840.327	4873
2842.193	4874
2844.061	4842
2845.927	4882
2847.794	4927
2849.66	4866
2851.525	4899
2853.39	4850
2855.254	4875
2857.117	4844
2858.983	4971
2860.845	4930
2862.707	5062
2864.569	5033
2866.431	4990
2868.293	5000
2870.154	5232
2872.013	5125
2873.873	5212
2875.733	5267
2877.592	5192
2879.451	5307
2881.309	5387
2883.166	5498
2885.022	5586
2886.879	5487
2888.736	5464
2890.591	5509
2892.446	5499
2894.301	5358
2896.155	5538
2898.009	5431
2899.863	5316
2901.716	5429
2903.568	5382
2905.419	5373
2907.27	5411
2909.123	5485
2910.973	5354
2912.824	5577
2914.673	5622
2916.521	5604
2918.372	5690
2920.22	5697
2922.067	5586
2923.914	5744
2925.761	5829
2927.607	5877
2929.455	5968
2931.301	6014
2933.144	6029
2934.99	6022
2936.833	6133
2938.678	6318
2940.522	6149
2942.364	6303
2944.207	6400
2946.048	6349
2947.891	6486
2949.731	6498
2951.571	6488
2953.412	6383
2955.25	6156
2957.09	6145
2958.93	6188
2960.767	6107
2962.606	6049
2964.443	5972
2966.279	5937
2968.116	5803
2969.953	5718
2971.788	5804
2973.623	5640
2975.457	5661
2977.292	5699
2979.127	5644
2980.959	5596
2982.792	5606
2984.624	5457
2986.455	5494
2988.288	5494
2990.119	5431
2991.949	5471
2993.779	5352
2995.608	5390
2997.439	5321
2999.268	5315
3001.096	5138
3002.923	5222
3004.751	5085
3006.578	5150
3008.406	5079
3010.232	5019
3012.057	4946
3013.883	4933
3015.706	4834
3017.532	4837
3019.356	4764
3021.179	4741
3023.002	4847
3024.823	4777
3026.646	4730
3028.469	4683
3030.289	4705
3032.11	4715
3033.93	4737
3035.749	4725
3037.57	4606
3039.39	4615
3041.207	4662
3043.026	4728
3044.842	4643
3046.661	4660
3048.477	4592
3050.294	4611
3052.109	4683
3053.925	4643
3055.739	4647
3057.555	4618
3059.368	4675
3061.181	4592
3062.995	4591
3064.807	4572
3066.62	4703
3068.433	4642
3070.243	4623
3072.054	4598
3073.865	4619
3075.675	4600
3077.485	4557
3079.293	4644
3081.102	4596
3082.911	4660
3084.719	4553
3086.527	4518
3088.333	4569
3090.139	4604
3091.945	4507
3093.75	4565
3095.557	4516
3097.361	4372
3099.165	4551
3100.969	4459
3102.772	4511
3104.575	4510
3106.379	4395
3108.181	4524
3109.982	4419
3111.783	4418
3113.584	4505
3115.386	4460
3117.186	4478
3118.985	4610
3120.783	4412
3122.582	4412
3124.381	4459
3126.179	4508
3127.975	4460
3129.772	4457
3131.569	4580
3133.365	4485
3135.161	4436
3136.956	4436
3138.751	4426
3140.544	4358
3142.338	4448
3144.132	4411
3145.925	4428
3147.717	4414
3149.509	4379
3151.301	4407
3153.091	4369
3154.884	4423
3156.673	4500
3158.462	4368
3160.252	4458
3162.041	4399
3163.831	4321
3165.618	4426
3167.405	4360
3169.193	4385
3170.979	4308
3172.767	4378
3174.553	4370
3176.338	4387
3178.123	4302
3179.907	4333
3181.692	4370
3183.477	4396
3185.259	4390
3187.042	4259
3188.824	4274
3190.607	4319
3192.389	4353
3194.17	4345
3195.951	4288
3197.73	4312
3199.51	4323
3201.289	4308
3203.07	4361
3204.848	4396
3206.626	4261
3208.403	4262
3210.18	4374
3211.959	4390
3213.735	4315
3215.511	4340
3217.285	4331
3219.06	4275
3220.836	4409
3222.611	4395
3224.384	4358
3226.158	4370
3227.929	4355
3229.702	4378
3231.476	4299
3233.248	4282
3235.018	4332
3236.789	4302
3238.56	4386
3240.33	4340
3242.1	4328
3243.869	4319
3245.637	4292
3247.405	4249
3249.172	4362
3250.941	4404
3252.707	4356
3254.474	4370
3256.24	4289
3258.006	4283
3259.772	4307
3261.537	4266
3263.301	4375
3265.065	4377
3266.828	4339
3268.592	4231
3270.355	4302
3272.117	4427
3273.878	4297
3275.64	4328
3277.401	4272
3279.162	4349
3280.922	4298
3282.682	4348
3284.441	4379
3286.199	4329
3287.959	4399
3289.716	4259
3291.475	4446
3293.232	4320
3294.988	4502
3296.744	4296
3298.501	4343
3300.256	4343
3302.011	4352
3303.766	4347
3305.52	4355
3307.275	4319
3309.028	4365
3310.781	4366
3312.533	4451
3314.285	4306
3316.038	4440
3317.789	4375
3319.54	4305
3321.289	4334
3323.039	4472
3324.789	4210
3326.539	4307
3328.288	4292
3330.035	4339
3331.783	4274
3333.531	4387
3335.28	4334
3337.025	4367
3338.771	4260
3340.518	4349
3342.262	4386
3344.009	4292
3345.753	4304
3347.497	4313
3349.24	4263
3350.983	4331
3352.726	4320
3354.469	4275
3356.212	4233
3357.952	4257
3359.694	4229
3361.434	4306
3363.176	4204
3364.916	4338
3366.654	4272
3368.394	4235
3370.132	4151
3371.871	4209
3373.61	4315
3375.346	4237
3377.083	4199
3378.82	4234
3380.556	4120
3382.292	4096
3384.027	4217
3385.763	4218
3387.497	4233
3389.231	4248
3390.965	4213
3392.698	4158
3394.431	4182
3396.164	4189
3397.896	4169
3399.627	4235
3401.36	4190
3403.09	4214
3404.82	4205
3406.55	4193
3408.279	4210
3410.01	4182
3411.738	4164
3413.467	4160
3415.194	4147
3416.92	4147
3418.647	4114
3420.375	4078
3422.102	4143
3423.827	4155
3425.553	4073
3427.277	4177
3429.003	4107
3430.727	4108
3432.451	4183
3434.173	4079
3435.896	4150
3437.62	4150
3439.343	4124
3441.063	4065
3442.785	4102
3444.505	3964
3446.226	4027
3447.948	4164
3449.666	4071
3451.386	4077
3453.104	3993
3454.823	4069
3456.541	4065
3458.259	4062
3459.976	3966
3461.693	4066
3463.408	3941
3465.125	3970
3466.841	3928
3468.556	3990
3470.271	4067
3471.985	4051
3473.698	3999
3475.414	3993
3477.126	3959
3478.838	3960
3480.55	3927
3482.263	3867
3483.975	3955
3485.686	3958
3487.396	3962
3489.106	3899
3490.817	3888
3492.526	3918
3494.236	3841
3495.944	3986
3497.652	3903
3499.359	3937
3501.066	3859
3502.775	3914
3504.481	3899
3506.187	3823
3507.893	3921
3509.598	3816
3511.304	3769
3513.009	3828
3514.713	3937
3516.417	3841
3518.12	3778
3519.821	3885
3521.525	3762
3523.228	3855
3524.929	3846
3526.631	3807
3528.33	3741
3530.032	3770
3531.733	3766
3533.433	3758
3535.131	3763
3536.83	3812
3538.529	3781
3540.227	3779
3541.925	3734
3543.623	3874
3545.319	3727
3547.016	3784
3548.712	3653
3550.408	3689
3552.103	3686
3553.798	3722
3555.491	3715
3557.188	3763
3558.88	3754
3560.574	3782
3562.266	3674
3563.959	3691
3565.651	3705
3567.343	3788
3569.035	3707
3570.725	3739
3572.415	3663
3574.106	3739
3575.797	3605
3577.485	3644
3579.174	3613
3580.863	3623
3582.551	3695
3584.238	3634
3585.926	3602
3587.613	3664
3589.3	3726
3590.986	3690
3592.671	3529
3594.357	3585
3596.042	3569
3597.726	3661
3599.41	3524
3601.094	3547
3602.778	3572
3604.461	3589
3606.143	3534
3607.825	3590
3609.507	3469
3611.188	3557
3612.87	3559
3614.551	3511
3616.229	3573
3617.909	3504
3619.589	3510
3621.269	3449
3622.948	3491
3624.625	3534
3626.302	3478
3627.98	3489
3629.657	3454
3631.334	3515
3633.01	3470
3634.686	3457
3636.361	3439
3638.036	3488
3639.712	3452
3641.385	3404
3643.06	3473
3644.732	3467
3646.405	3431
3648.08	3394
3649.751	3453
3651.424	3440
3653.094	3421
3654.766	3406
3656.436	3340
3658.106	3405
3659.777	3327
3661.446	3422
3663.115	3296
3664.783	3363
3666.452	3452
3668.121	3329
3669.788	3419
3671.454	3390
3673.121	3339
3674.789	3357
3676.455	3314
3678.12	3361
3679.784	3373
3681.45	3374
3683.114	3283
3684.779	3309
3686.442	3428
3688.105	3321
3689.768	3353
3691.43	3307
3693.093	3362
3694.754	3325
3696.415	3258
3698.076	3286
3699.736	3327
3701.396	3248
3703.057	3283
3704.716	3242
3706.375	3347
3708.034	3375
3709.692	3230
3711.351	3268
3713.008	3300
3714.665	3231
3716.321	3308
3717.977	3243
3719.634	3190
3721.29	3337
3722.945	3238
3724.598	3318
3726.253	3264
3727.907	3329
3729.561	3263
3731.214	3269
3732.867	3204
3734.518	3215
3736.171	3319
3737.824	3270
3739.474	3223
3741.125	3131
3742.775	3344
3744.425	3285
3746.074	3213
3747.725	3187
3749.373	3209
3751.022	3124
3752.669	3232
3754.318	3213
3755.966	3226
3757.612	3202
3759.259	3188
3760.905	3249
3762.55	3190
3764.197	3202
3765.842	3159
3767.486	3192
3769.131	3162
3770.774	3231
3772.417	3174
3774.061	3156
3775.705	3112
3777.347	3146
3778.988	3152
3780.629	3166
3782.271	3153
3783.912	3105
3785.552	3199
3787.192	3095
3788.831	3123
3790.472	3115
3792.112	3156
3793.75	3156
3795.388	3153
3797.024	3093
3798.661	3095
3800.3	3136
3801.936	3156
3803.572	3138
3805.208	3149
3806.844	3181
3808.48	3067
3810.115	3045
3811.748	3181
3813.382	3097
3815.016	3090
3816.649	3117
3818.283	3128
3819.914	3139
3821.547	3025
3823.178	3100
3824.809	3022
3826.441	3112
3828.072	3065
3829.701	3090
3831.331	3150
3832.96	3090
3834.591	3059
3836.219	3143
3837.847	3106
3839.475	3040
3841.102	3050
3842.729	3116
3844.357	3009
3845.984	3020
3847.609	3008
3849.234	3052
3850.86	3066
3852.485	2989
3854.11	3002
3855.734	3055
3857.357	3010
3858.981	3018
3860.603	2979
3862.227	2962
3863.848	2993
3865.471	3054
3867.092	3006
3868.713	3049
3870.334	2982
3871.954	3015
3873.575	2986
3875.194	3025
3876.813	2967
3878.433	3006
3880.051	2988
3881.669	2971
3883.286	3001
3884.904	3021
3886.52	2916
3888.138	2961
3889.754	2954
3891.37	2956
3892.985	3015
3894.6	3081
3896.216	2995
3897.831	2985
3899.444	2931
3901.058	2942
3902.67	2934
3904.283	2949
3905.897	3016
3907.509	2956
3909.121	2941
3910.731	2951
3912.342	3019
3913.954	2932
3915.563	2909
3917.174	2897
3918.783	2975
3920.391	2966
3922.002	2966
3923.611	2898
3925.218	2909
3926.826	2960
3928.432	2954
3930.039	3002
3931.647	2979
3933.253	2872
3934.859	2844
3936.464	2937
3938.068	2903
3939.675	2925
3941.278	2948
3942.883	2970
3944.486	2819
3946.089	2863
3947.692	2912
3949.295	2932
3950.898	2923
3952.499	2895
3954.1	2911
3955.7	2877
3957.303	2940
3958.903	2844
3960.502	2910
3962.101	2868
3963.7	2857
3965.301	2937
3966.899	2881
3968.497	2882
3970.094	2920
3971.691	2877
3973.288	2845
3974.885	2868
3976.481	2807
3978.077	2860
3979.672	2792
3981.267	2789
3982.863	2845
3984.457	2837
3986.051	2816
3987.645	2812
3989.238	2869
3990.831	2819
3992.425	2834
3994.017	2833
3995.607	2815
3997.199	2786
3998.79	2810
4000.382	2825
4001.973	2761
4003.561	2797
4005.151	2779
4006.741	2796
4008.331	2729
4009.918	2732
4011.507	2780
4013.095	2781
4014.681	2732
4016.269	2752
4017.856	2747
4019.443	2794
4021.028	2819
4022.614	2735
4024.199	2819
4025.785	2775
4027.37	2760
4028.953	2771
4030.536	2746
4032.12	2815
4033.704	2754
4035.287	2747
4036.869	2738
4038.45	2688
4040.032	2710
4041.613	2703
4043.195	2729
4044.776	2699
4046.356	2719
4047.935	2750
4049.515	2661
4051.095	2731
4052.674	2725
4054.251	2660
4055.829	2756
4057.406	2709
4058.985	2692
4060.562	2709
4062.139	2707
4063.715	2652
4065.29	2665
4066.865	2680
4068.442	2678
4070.016	2635
4071.59	2766
4073.164	2680
4074.738	2663
4076.312	2724
4077.885	2694
4079.458	2621
4081.03	2632
4082.602	2581
4084.173	2627
4085.745	2675
4087.315	2630
4088.886	2621
4090.456	2647
4092.026	2613
4093.596	2596
4095.165	2634
4096.734	2619
4098.301	2605
4099.869	2626
4101.437	2661
4103.006	2666
4104.572	2578
4106.139	2666
4107.704	2653
4109.27	2632
4110.837	2584
4112.401	2592
4113.966	2595
4115.53	2567
4117.094	2617
4118.659	2610
4120.223	2563
4121.785	2516
4123.347	2567
4124.909	2565
4126.471	2536
4128.034	2567
4129.595	2576
4131.155	2585
4132.716	2565
4134.275	2553
4135.836	2561
4137.395	2596
4138.955	2574
4140.513	2573
4142.071	2541
4143.628	2558
4145.188	2592
4146.745	2552
4148.302	2574
4149.858	2569
4151.414	2526
4152.971	2582
4154.526	2519
4156.081	2547
4157.635	2480
4159.189	2540
4160.745	2470
4162.298	2516
4163.852	2459
4165.405	2513
4166.957	2488
4168.51	2532
4170.063	2512
4171.614	2483
4173.166	2433
4174.717	2547
4176.267	2437
4177.817	2495
4179.368	2459
4180.917	2446
4182.466	2482
4184.016	2431
4185.564	2379
4187.112	2504
4188.66	2503
4190.207	2462
4191.754	2451
4193.301	2423
4194.848	2498
4196.394	2486
4197.94	2388
4199.484	2454
4201.03	2425
4202.575	2442
4204.12	2419
4205.663	2402
4207.207	2447
4208.75	2454
4210.292	2383
4211.836	2434
4213.378	2370
4214.92	2468
4216.46	2500
4218.002	2466
4219.544	2396
4221.083	2433
4222.625	2368
4224.164	2398
4225.703	2437
4227.244	2443
4228.782	2416
4230.32	2464
4231.857	2389
4233.395	2367
4234.933	2415
4236.471	2410
4238.007	2372
4239.542	2389
4241.078	2397
4242.614	2398
4244.15	2357
4245.685	2377
4247.219	2417
4248.753	2387
4250.287	2399
4251.82	2413
4253.354	2330
4254.887	2347
4256.419	2403
4257.951	2367
4259.483	2395
4261.016	2368
4262.547	2385
4264.078	2378
4265.608	2362
4267.137	2386
4268.668	2456
4270.197	2408
4271.727	2346
4273.254	2316
4274.783	2360
4276.311	2382
4277.84	2320
4279.366	2319
4280.894	2372
4282.42	2331
4283.946	2359
4285.473	2341
4286.998	2333
4288.523	2379
4290.047	2292
4291.572	2276
4293.096	2257
4294.622	2370
4296.144	2310
4297.668	2317
4299.19	2285
4300.713	2308
4302.236	2300
4303.758	2312
4305.279	2316
4306.799	2323
4308.321	2255
4309.842	2320
4311.361	2287
4312.882	2280
4314.401	2273
