400.0961	3737
402.6185	3804
405.1424	3702
407.6635	3808
410.1838	3764
412.7035	3859
415.2225	3867
417.7388	3878
420.2585	3833
422.7754	3873
425.2917	3873
427.8072	3987
430.3221	4023
432.8363	3996
435.3498	3982
437.8626	4070
440.3727	4082
442.8841	4019
445.3969	4117
447.907	4002
450.4142	4021
452.9229	3992
455.4289	4086
457.9362	4011
460.4449	4001
462.9488	4023
465.454	4098
467.9566	4048
470.4604	3985
472.9637	4083
475.4662	3979
477.966	4050
480.4671	3985
482.9656	4062
485.4633	3994
487.9645	4098
490.4608	4111
492.9566	4045
495.4536	4115
497.948	4195
500.4437	4092
502.9387	4088
505.431	4188
507.9226	4132
510.4136	4054
512.9079	4147
515.3975	4124
517.8864	4244
520.3746	4160
522.8622	4094
525.3491	4184
527.8394	4119
530.3249	4181
532.8098	4250
535.2939	4197
537.7774	4173
540.2623	4121
542.7444	4138
545.2259	4123
547.7067	4202
550.1868	4232
552.6683	4238
555.147	4270
557.6231	4182
560.1005	4212
562.5773	4204
565.0534	4205
567.5308	4231
570.0056	4305
572.4776	4388
574.951	4354
577.4237	4369
579.8978	4225
582.3671	4333
584.8378	4275
587.3079	4359
589.7773	4389
592.244	4435
594.714	4283
597.1793	4416
599.6461	4292
602.1121	4269
604.5754	4230
607.0421	4246
609.5042	4370
611.9675	4333
614.4282	4300
616.8902	4471
619.3515	4318
621.8122	4274
624.2702	4317
626.7296	4269
629.1863	4276
631.6423	4365
634.1017	4313
636.5563	4313
639.0104	4384
641.4658	4367
643.9185	4288
646.3725	4303
648.8239	4315
651.2766	4377
653.7266	4350
656.176	4442
658.6247	4366
661.0748	4360
663.5242	4324
665.9709	4392
668.417	4464
670.8624	4375
673.3092	4479
675.7533	4384
678.1968	4486
680.6395	4439
683.0817	4402
685.5251	4501
687.9659	4419
690.4061	4496
692.8456	4514
695.2844	4473
697.7226	4558
700.1621	4521
702.599	4545
705.0332	4513
707.4688	4578
709.9036	4511
712.3399	4584
714.7735	4530
717.2044	4571
719.6367	4579
722.0683	4599
724.4993	4619
726.9296	4488
729.3593	4569
731.7883	4658
734.2147	4615
736.6423	4631
739.0714	4703
741.4958	4679
743.9216	4629
746.3447	4657
748.7691	4661
751.1929	4697
753.616	4674
756.0366	4762
758.4584	4678
760.8776	4801
763.2982	4833
765.718	4806
768.1373	4739
770.5539	4756
772.9698	4750
775.3871	4733
777.8038	4776
780.2178	4684
782.6332	4792
785.0459	4807
787.458	4763
789.8714	4766
792.2842	4775
794.6943	4690
797.1038	4823
799.5127	4815
801.9209	4743
804.3324	4770
806.7393	4813
809.1456	4890
811.5513	4908
813.9562	4729
816.3625	4938
818.7663	4804
821.1693	4807
823.5718	4804
825.9735	4762
828.3746	4788
830.7771	4859
833.177	4863
835.5762	4853
837.9747	4936
840.3727	4848
842.772	4963
845.1666	4913
847.5626	4861
849.958	4872
852.3527	4988
854.7488	4825
857.1403	5006
859.5331	4944
861.9253	5013
864.3168	4869
866.7057	4925
869.098	4869
871.4876	5045
873.8746	4955
876.263	4873
878.6487	4897
881.0378	4889
883.4243	4985
885.8081	4904
888.1933	4866
890.5759	4921
892.9598	4984
895.343	4904
897.7256	4910
900.1057	4925
902.4871	4983
904.8659	4892
907.246	5021
909.6254	4988
912.0023	4957
914.3786	5070
916.7562	5092
919.1331	5128
921.5074	5218
923.8831	5078
926.2562	5166
928.6287	5186
931.0005	5109
933.3757	5308
935.7462	5161
938.1162	5172
940.4855	5213
942.8542	5293
945.2242	5312
947.5916	5291
949.9584	5326
952.3266	5487
954.6921	5653
957.0571	5841
959.4233	5979
961.787	6030
964.15	5955
966.5125	5974
968.8742	5608
971.2354	5692
973.5959	5468
975.9559	5391
978.3151	5293
980.6738	5132
983.0338	5170
985.3912	5115
987.7461	5219
990.1022	5103
992.4578	5056
994.8127	5077
997.1689	5076
999.5207	5023
1001.874	5115
1004.226	5073
1006.576	5078
1008.929	5142
1011.28	5146
1013.628	5138
1015.977	5167
1018.324	5163
1020.674	5125
1023.019	5295
1025.366	5196
1027.713	5225
1030.056	5104
1032.399	5271
1034.746	5360
1037.087	5238
1039.431	5168
1041.771	5233
1044.113	5219
1046.454	5213
1048.793	5178
1051.133	5277
1053.471	5210
1055.807	5248
1058.146	5226
1060.483	5240
1062.818	5237
1065.153	5262
1067.489	5194
1069.822	5255
1072.156	5362
1074.488	5320
1076.82	5281
1079.15	5247
1081.48	5225
1083.814	5335
1086.143	5244
1088.471	5264
1090.799	5193
1093.126	5161
1095.452	5283
1097.78	5258
1100.105	5239
1102.43	5226
1104.754	5230
1107.077	5313
1109.4	5164
1111.722	5259
1114.044	5243
1116.365	5278
1118.685	5355
1121.005	5320
1123.324	5252
1125.643	5253
1127.961	5297
1130.278	5386
1132.595	5308
1134.911	5166
1137.226	5192
1139.541	5341
1141.854	5309
1144.167	5351
1146.482	5241
1148.793	5244
1151.105	5322
1153.414	5307
1155.725	5351
1158.033	5224
1160.344	5237
1162.651	5262
1164.959	5257
1167.265	5312
1169.572	5374
1171.878	5254
1174.184	5304
1176.488	5282
1178.79	5260
1181.094	5346
1183.396	5234
1185.699	5317
1188.001	5256
1190.301	5276
1192.6	5374
1194.9	5271
1197.2	5378
1199.497	5320
1201.794	5333
1204.09	5288
1206.387	5345
1208.684	5422
1210.978	5245
1213.272	5378
1215.565	5351
1217.858	5267
1220.15	5368
1222.443	5236
1224.734	5352
1227.024	5363
1229.313	5426
1231.602	5461
1233.892	5399
1236.18	5460
1238.467	5443
1240.754	5479
1243.04	5477
1245.325	5502
1247.612	5462
1249.896	5449
1252.178	5568
1254.461	5375
1256.743	5454
1259.027	5417
1261.308	5523
1263.587	5468
1265.867	5430
1268.146	5550
1270.425	5591
1272.703	5472
1274.981	5632
1277.256	5586
1279.532	5422
1281.808	5494
1284.083	5401
1286.358	5533
1288.63	5415
1290.904	5403
1293.175	5438
1295.449	5416
1297.719	5408
1299.99	5390
1302.259	5481
1304.529	5333
1306.798	5468
1309.065	5462
1311.333	5474
1313.599	5361
1315.866	5409
1318.131	5479
1320.396	5345
1322.66	5445
1324.925	5417
1327.187	5378
1329.448	5499
1331.711	5553
1333.974	5478
1336.234	5531
1338.493	5549
1340.752	5481
1343.01	5428
1345.269	5440
1347.526	5428
1349.784	5358
1352.04	5534
1354.295	5449
1356.552	5452
1358.806	5434
1361.059	5520
1363.312	5413
1365.564	5476
1367.818	5487
1370.069	5426
1372.318	5444
1374.568	5468
1376.817	5462
1379.066	5430
1381.316	5548
1383.564	5633
1385.809	5501
1388.056	5451
1390.301	5584
1392.549	5598
1394.793	5584
1397.036	5690
1399.279	5647
1401.522	5686
1403.763	5570
1406.007	5690
1408.248	5618
1410.487	5586
1412.727	5632
1414.965	5649
1417.205	5680
1419.442	5613
1421.68	5608
1423.915	5647
1426.152	5649
1428.388	5652
1430.623	5638
1432.857	5656
1435.091	5677
1437.323	5735
1439.556	5642
1441.789	5774
1444.019	5646
1446.25	5708
1448.48	5705
1450.708	5622
1452.938	5736
1455.167	5887
1457.394	5762
1459.62	5700
1461.846	5800
1464.073	5645
1466.299	5738
1468.523	5738
1470.746	5572
1472.969	5548
1475.191	5640
1477.415	5635
1479.636	5541
1481.858	5523
1484.078	5526
1486.298	5521
1488.518	5552
1490.736	5549
1492.954	5377
1495.169	5432
1497.386	5489
1499.602	5450
1501.819	5607
1504.034	5465
1506.248	5579
1508.462	5465
1510.675	5517
1512.888	5462
1515.1	5364
1517.311	5661
1519.522	5584
1521.732	5591
1523.942	5539
1526.151	5461
1528.36	5514
1530.566	5489
1532.773	5567
1534.98	5627
1537.187	5578
1539.392	5615
1541.596	5618
1543.801	5514
1546.005	5544
1548.208	5553
1550.411	5548
1552.612	5479
1554.814	5533
1557.013	5546
1559.212	5595
1561.414	5512
1563.612	5602
1565.811	5542
1568.007	5585
1570.203	5635
1572.403	5473
1574.598	5713
1576.792	5581
1578.988	5621
1581.181	5674
1583.376	5575
1585.568	5661
1587.761	5707
1589.952	5655
1592.143	5669
1594.333	5752
1596.524	5705
1598.715	5569
1600.903	5631
1603.091	5797
1605.278	5517
1607.466	5736
1609.652	5614
1611.838	5665
1614.023	5739
1616.207	5701
1618.391	5798
1620.576	5686
1622.759	5734
1624.941	5618
1627.123	5614
1629.304	5763
1631.484	5748
1633.664	5795
1635.844	5772
1638.022	5875
1640.201	5690
1642.38	5761
1644.556	5764
1646.732	5762
1648.908	5724
1651.084	5813
1653.257	5776
1655.433	5845
1657.607	5674
1659.779	5757
1661.951	5757
1664.122	5805
1666.295	5820
1668.467	5957
1670.635	5845
1672.805	5782
1674.973	5743
1677.142	5748
1679.31	5691
1681.478	5668
1683.644	5803
1685.81	5798
1687.975	5851
1690.142	5788
1692.305	5746
1694.468	5823
1696.632	5719
1698.794	5679
1700.957	5669
1703.119	5838
1705.279	5663
1707.439	5662
1709.598	5680
1711.758	5744
1713.917	5719
1716.075	5720
1718.231	5859
1720.388	5717
1722.543	5683
1724.702	5716
1726.856	5722
1729.01	5596
1731.164	5668
1733.317	5659
1735.471	5760
1737.623	5743
1739.774	5797
1741.925	5669
1744.075	5799
1746.225	5656
1748.376	5723
1750.524	5613
1752.672	5720
1754.82	5722
1756.965	5738
1759.113	5680
1761.259	5676
1763.405	5831
1765.549	5631
1767.694	5698
1769.836	5725
1771.981	5699
1774.123	5759
1776.264	5708
1778.405	5802
1780.546	5840
1782.687	5659
1784.827	5823
1786.966	5757
1789.103	5769
1791.242	5764
1793.381	5734
1795.517	5764
1797.653	5694
1799.788	5720
1801.923	5847
1804.057	5842
1806.193	5723
1808.326	5734
1810.457	5773
1812.59	5616
1814.721	5772
1816.855	5689
1818.984	5722
1821.113	5858
1823.244	5765
1825.372	5751
1827.499	5737
1829.63	5745
1831.756	5787
1833.882	5814
1836.007	5743
1838.132	5604
1840.26	5774
1842.384	5693
1844.507	5693
1846.63	5716
1848.752	5842
1850.875	5585
1852.996	5664
1855.118	5646
1857.238	5663
1859.358	5728
1861.477	5696
1863.597	5702
1865.715	5665
1867.832	5894
1869.948	5625
1872.064	5650
1874.181	5676
1876.297	5675
1878.411	5692
1880.526	5806
1882.639	5790
1884.752	5717
1886.865	5689
1888.977	5802
1891.089	5787
1893.2	5722
1895.308	5681
1897.42	5776
1899.53	5658
1901.639	5659
1903.745	5740
1905.853	5721
1907.962	5906
1910.067	5761
1912.174	5693
1914.278	5851
1916.383	5753
1918.486	5784
1920.592	5834
1922.694	5884
1924.797	5759
1926.898	5822
1929	5883
1931.102	5795
1933.203	5746
1935.301	5785
1937.401	5776
1939.499	5849
1941.598	5744
1943.697	5858
1945.793	5889
1947.888	5643
1949.985	5844
1952.08	5882
1954.176	5802
1956.269	5715
1958.364	5686
1960.457	5776
1962.549	5832
1964.642	5850
1966.733	5865
1968.823	5799
1970.913	5746
1973.005	5763
1975.093	5832
1977.184	5738
1979.271	5824
1981.359	5756
1983.446	5814
1985.532	5672
1987.619	5774
1989.705	5679
1991.789	5627
1993.874	5674
1995.956	5717
1998.041	5822
2000.123	5711
2002.206	5741
2004.287	5802
2006.368	5762
2008.449	5689
2010.529	5738
2012.609	5681
2014.688	5682
2016.766	5748
2018.843	5743
2020.922	5801
2022.999	5732
2025.074	5677
2027.15	5669
2029.225	5733
2031.299	5792
2033.375	5820
2035.447	5746
2037.52	5675
2039.592	5751
2041.664	5741
2043.736	5700
2045.807	5657
2047.876	5641
2049.947	5741
2052.015	5796
2054.086	5672
2056.153	5842
2058.221	5819
2060.288	5747
2062.353	5781
2064.42	5719
2066.486	5775
2068.55	5800
2070.614	5675
2072.678	5820
2074.741	5737
2076.805	5742
2078.866	5801
2080.929	5808
2082.99	5861
2085.049	5788
2087.109	5801
2089.17	5791
2091.228	5679
2093.286	5730
2095.344	5782
2097.4	5762
2099.46	5744
2101.516	5756
2103.572	5720
2105.626	5751
2107.679	5812
2109.735	5781
2111.788	5691
2113.841	5688
2115.894	5719
2117.945	5766
2119.997	5733
2122.049	5784
2124.1	5741
2126.148	5826
2128.197	5726
2130.246	5746
2132.296	5761
2134.342	5858
2136.39	5707
2138.437	5750
2140.483	5726
2142.527	5715
2144.574	5764
2146.619	5732
2148.661	5639
2150.705	5570
2152.747	5779
2154.792	5671
2156.832	5700
2158.874	5741
2160.915	5764
2162.954	5746
2164.995	5551
2167.034	5677
2169.072	5733
2171.111	5641
2173.148	5810
2175.186	5750
2177.223	5679
2179.258	5693
2181.294	5695
2183.328	5649
2185.362	5644
2187.398	5505
2189.431	5656
2191.463	5656
2193.495	5637
2195.528	5664
2197.56	5692
2199.59	5565
2201.62	5565
2203.649	5622
2205.678	5621
2207.708	5712
2209.737	5594
2211.764	5724
2213.791	5579
2215.817	5626
2217.843	5569
2219.87	5623
2221.895	5661
2223.919	5572
2225.942	5588
2227.966	5557
2229.988	5594
2232.012	5585
2234.032	5632
2236.054	5594
2238.074	5511
2240.095	5514
2242.116	5551
2244.135	5627
2246.153	5582
2248.171	5614
2250.188	5644
2252.208	5559
2254.223	5492
2256.239	5581
2258.255	5509
2260.269	5689
2262.283	5604
2264.3	5471
2266.312	5649
2268.325	5724
2270.336	5535
2272.349	5666
2274.362	5563
2276.372	5586
2278.383	5661
2280.392	5502
2282.402	5637
2284.409	5567
2286.418	5510
2288.427	5538
2290.433	5528
2292.441	5573
2294.446	5638
2296.453	5580
2298.459	5579
2300.463	5551
2302.466	5488
2304.471	5566
2306.475	5516
2308.477	5568
2310.478	5644
2312.481	5582
2314.481	5523
2316.481	5531
2318.482	5556
2320.482	5590
2322.48	5546
2324.48	5482
2326.478	5477
2328.476	5518
2330.473	5506
2332.469	5370
2334.465	5488
2336.46	5456
2338.454	5535
2340.45	5553
2342.444	5508
2344.437	5446
2346.43	5520
2348.421	5354
2350.414	5391
2352.405	5426
2354.396	5484
2356.386	5507
2358.376	5413
2360.366	5460
2362.355	5383
2364.343	5497
2366.331	5475
2368.317	5527
2370.304	5447
2372.292	5402
2374.278	5422
2376.262	5500
2378.247	5495
2380.23	5514
2382.216	5426
2384.199	5444
2386.181	5400
2388.163	5367
2390.144	5359
2392.127	5482
2394.107	5334
2396.087	5306
2398.066	5422
2400.046	5519
2402.023	5342
2404.004	5387
2405.981	5422
2407.957	5287
2409.934	5437
2411.91	5437
2413.886	5338
2415.862	5396
2417.836	5472
2419.809	5422
2421.784	5462
2423.756	5306
2425.73	5211
2427.701	5386
2429.672	5341
2431.644	5372
2433.615	5401
2435.586	5370
2437.555	5361
2439.523	5523
2441.491	5346
2443.459	5444
2445.428	5259
2447.395	5284
2449.361	5423
2451.327	5328
2453.292	5277
2455.257	5297
2457.223	5434
2459.187	5314
2461.15	5342
2463.113	5285
2465.076	5425
2467.039	5386
2468.999	5353
2470.96	5275
2472.921	5352
2474.881	5303
2476.841	5227
2478.8	5346
2480.759	5412
2482.717	5331
2484.675	5368
2486.63	5360
2488.589	5237
2490.545	5329
2492.5	5274
2494.455	5320
2496.408	5280
2498.364	5306
2500.318	5245
2502.27	5238
2504.223	5263
2506.174	5310
2508.126	5363
2510.078	5253
2512.03	5294
2513.979	5339
2515.927	5333
2517.877	5301
2519.826	5314
2521.775	5266
2523.722	5246
2525.668	5344
2527.616	5206
2529.561	5303
2531.508	5338
2533.452	5298
2535.398	5245
2537.342	5261
2539.284	5325
2541.229	5332
2543.173	5309
2545.114	5232
2547.055	5253
2548.996	5298
2550.938	5166
2552.878	5372
2554.817	5256
2556.756	5201
2558.695	5365
2560.633	5291
2562.572	5228
2564.509	5269
2566.445	5249
2568.382	5334
2570.317	5231
2572.254	5204
2574.189	5296
2576.123	5198
2578.057	5300
2579.99	5249
2581.923	5315
2583.855	5219
2585.788	5236
2587.719	5210
2589.65	5219
2591.579	5241
2593.511	5183
2595.44	5282
2597.37	5275
2599.297	5314
2601.225	5166
2603.153	5311
2605.08	5220
2607.007	5285
2608.932	5254
2610.858	5298
2612.782	5279
2614.709	5297
2616.632	5240
2618.556	5258
2620.478	5358
2622.401	5353
2624.324	5188
2626.247	5205
2628.167	5397
2630.088	5362
2632.008	5261
2633.928	5272
2635.848	5187
2637.766	5403
2639.684	5329
2641.603	5336
2643.519	5270
2645.437	5327
2647.353	5266
2649.27	5223
2651.184	5336
2653.099	5242
2655.014	5289
2656.928	5310
2658.842	5252
2660.755	5271
2662.667	5319
2664.579	5234
2666.491	5180
2668.402	5231
2670.312	5299
2672.222	5277
2674.132	5351
2676.042	5298
2677.951	5189
2679.859	5330
2681.766	5220
2683.674	5214
2685.582	5170
2687.488	5210
2689.392	5076
2691.298	5297
2693.202	5245
2695.107	5028
2697.012	5233
2698.914	5235
2700.817	5260
2702.72	5091
2704.622	5231
2706.524	5298
2708.425	5096
2710.326	5194
2712.225	5138
2714.125	5121
2716.024	5123
2717.923	5143
2719.822	5188
2721.719	5218
2723.616	5218
2725.512	5180
2727.41	5082
2729.305	5117
2731.201	5134
2733.095	5118
2734.99	5119
2736.884	5109
2738.778	5132
2740.67	5125
2742.562	5179
2744.455	5147
2746.346	5054
2748.238	5136
2750.129	5191
2752.018	5116
2753.907	5107
2755.797	5155
2757.687	5151
2759.575	5123
2761.462	5151
2763.349	5131
2765.237	5098
2767.124	5080
2769.009	5196
2770.894	5122
2772.779	5064
2774.663	5193
2776.547	5198
2778.431	5099
2780.314	5054
2782.197	5166
2784.078	5140
2785.96	4988
2787.842	5085
2789.723	5122
2791.603	5094
2793.483	5095
2795.362	5060
2797.241	5104
2799.121	5097
2800.997	5129
2802.874	5063
2804.751	5047
2806.628	5044
2808.506	5060
2810.38	5105
2812.255	5191
2814.13	5117
2816.003	5099
2817.878	5074
2819.752	5036
2821.623	5147
2823.496	4986
2825.368	5055
2827.238	5034
2829.111	5074
2830.98	5047
2832.851	5063
2834.719	5011
2836.589	5133
2838.458	5082
2840.327	5103
2842.193	5035
2844.061	5074
2845.927	5125
2847.794	5140
2849.66	5068
2851.525	5100
2853.39	5159
2855.254	5128
2857.117	5126
2858.983	5121
2860.845	5200
2862.707	5220
2864.569	5197
2866.431	5163
2868.293	5202
2870.154	5359
2872.013	5268
2873.873	5217
2875.733	5228
2877.592	5280
2879.451	5274
2881.309	5232
2883.166	5510
2885.022	5376
2886.879	5428
2888.736	5444
2890.591	5399
2892.446	5483
2894.301	5512
2896.155	5426
2898.009	5469
2899.863	5517
2901.716	5399
2903.568	5469
2905.419	5525
2907.27	5394
2909.123	5423
2910.973	5388
2912.824	5384
2914.673	5438
2916.521	5382
2918.372	5517
2920.22	5590
2922.067	5535
2923.914	5520
2925.761	5630
2927.607	5558
2929.455	5592
2931.301	5579
2933.144	5737
2934.99	5686
2936.833	5672
2938.678	5818
2940.522	5784
2942.364	5890
2944.207	5759
2946.048	5951
2947.891	5920
2949.731	6007
2951.571	5961
2953.412	5979
2955.25	5911
2957.09	5870
2958.93	5779
2960.767	5786
2962.606	5829
2964.443	5745
2966.279	5734
2968.116	5651
2969.953	5619
2971.788	5653
2973.623	5461
2975.457	5468
2977.292	5367
2979.127	5386
2980.959	5483
2982.792	5336
2984.624	5244
2986.455	5291
2988.288	5319
2990.119	5357
2991.949	5260
2993.779	5204
2995.608	5224
2997.439	5146
2999.268	5141
3001.096	5127
3002.923	5043
3004.751	5057
3006.578	5124
3008.406	5047
3010.232	4953
3012.057	4995
3013.883	4985
3015.706	4930
3017.532	4875
3019.356	4938
3021.179	4920
3023.002	4928
3024.823	4811
3026.646	4850
3028.469	4808
3030.289	4842
3032.11	4793
3033.93	4869
3035.749	4791
3037.57	4882
3039.39	4886
3041.207	4793
3043.026	4749
3044.842	4808
3046.661	4684
3048.477	4775
3050.294	4756
3052.109	4811
3053.925	4722
3055.739	4707
3057.555	4742
3059.368	4792
3061.181	4771
3062.995	4772
3064.807	4735
3066.62	4741
3068.433	4779
3070.243	4701
3072.054	4683
3073.865	4744
3075.675	4782
3077.485	4762
3079.293	4711
3081.102	4729
3082.911	4714
3084.719	4699
3086.527	4741
3088.333	4644
3090.139	4674
3091.945	4707
3093.75	4677
3095.557	4627
3097.361	4705
3099.165	4675
3100.969	4600
3102.772	4644
3104.575	4631
3106.379	4594
3108.181	4594
3109.982	4671
3111.783	4612
3113.584	4613
3115.386	4581
3117.186	4571
3118.985	4513
3120.783	4587
3122.582	4655
3124.381	4576
3126.179	4586
3127.975	4504
3129.772	4542
3131.569	4618
3133.365	4554
3135.161	4589
3136.956	4645
3138.751	4622
3140.544	4464
3142.338	4536
3144.132	4494
3145.925	4524
3147.717	4524
3149.509	4563
3151.301	4558
3153.091	4495
3154.884	4504
3156.673	4476
3158.462	4449
3160.252	4515
3162.041	4513
3163.831	4506
3165.618	4486
3167.405	4527
3169.193	4488
3170.979	4454
3172.767	4455
3174.553	4515
3176.338	4465
3178.123	4490
3179.907	4517
3181.692	4470
3183.477	4446
3185.259	4384
3187.042	4468
3188.824	4457
3190.607	4409
3192.389	4443
3194.17	4526
3195.951	4546
3197.73	4357
3199.51	4424
3201.289	4447
3203.07	4428
3204.848	4424
3206.626	4474
3208.403	4301
3210.18	4509
3211.959	4414
3213.735	4409
3215.511	4415
3217.285	4378
3219.06	4412
3220.836	4405
3222.611	4436
3224.384	4386
3226.158	4418
3227.929	4353
3229.702	4381
3231.476	4414
3233.248	4419
3235.018	4425
3236.789	4409
3238.56	4403
3240.33	4395
3242.1	4412
3243.869	4328
3245.637	4448
3247.405	4419
3249.172	4439
3250.941	4487
3252.707	4370
3254.474	4438
3256.24	4382
3258.006	4341
3259.772	4405
3261.537	4412
3263.301	4445
3265.065	4402
3266.828	4313
3268.592	4328
3270.355	4424
3272.117	4405
3273.878	4271
3275.64	4416
3277.401	4357
3279.162	4404
3280.922	4338
3282.682	4322
3284.441	4384
3286.199	4339
3287.959	4333
3289.716	4381
3291.475	4404
3293.232	4411
3294.988	4527
3296.744	4407
3298.501	4351
3300.256	4349
3302.011	4405
3303.766	4324
3305.52	4294
3307.275	4405
3309.028	4328
3310.781	4414
3312.533	4318
3314.285	4352
3316.038	4366
3317.789	4394
3319.54	4334
3321.289	4347
3323.039	4350
3324.789	4316
3326.539	4388
3328.288	4272
3330.035	4350
3331.783	4370
3333.531	4376
3335.28	4266
3337.025	4345
3338.771	4204
3340.518	4292
3342.262	4277
3344.009	4256
3345.753	4320
3347.497	4278
3349.24	4336
3350.983	4279
3352.726	4366
3354.469	4200
3356.212	4301
3357.952	4206
3359.694	4347
3361.434	4274
3363.176	4331
3364.916	4374
3366.654	4277
3368.394	4285
3370.132	4284
3371.871	4142
3373.61	4173
3375.346	4175
3377.083	4163
3378.82	4189
3380.556	4293
3382.292	4236
3384.027	4261
3385.763	4128
3387.497	4161
3389.231	4185
3390.965	4303
3392.698	4102
3394.431	4139
3396.164	4210
3397.896	4275
3399.627	4220
3401.36	4164
3403.09	4242
3404.82	4186
3406.55	4207
3408.279	4182
3410.01	4184
3411.738	4224
3413.467	4093
3415.194	4230
3416.92	4157
3418.647	4120
3420.375	4070
3422.102	4228
3423.827	4143
3425.553	4190
3427.277	4121
3429.003	4179
3430.727	4162
3432.451	4182
3434.173	4085
3435.896	4061
3437.62	4160
3439.343	4051
3441.063	4005
3442.785	4080
3444.505	4078
3446.226	4082
3447.948	4087
3449.666	4112
3451.386	4098
3453.104	3973
3454.823	4097
3456.541	4013
3458.259	4033
3459.976	4098
3461.693	4047
3463.408	3976
3465.125	3959
3466.841	3991
3468.556	3992
3470.271	3979
3471.985	3967
3473.698	3997
3475.414	3943
3477.126	4022
3478.838	3994
3480.55	3987
3482.263	3985
3483.975	4003
3485.686	4079
3487.396	3950
3489.106	4000
3490.817	4003
3492.526	3954
3494.236	3925
3495.944	3931
3497.652	3949
3499.359	3913
3501.066	3958
3502.775	3910
3504.481	3883
3506.187	3945
3507.893	3912
3509.598	3861
3511.304	3893
3513.009	3913
3514.713	3870
3516.417	3840
3518.12	3848
3519.821	3861
3521.525	3839
3523.228	3898
3524.929	3921
3526.631	3891
3528.33	3838
3530.032	3853
3531.733	3892
3533.433	3873
3535.131	3831
3536.83	3838
3538.529	3804
3540.227	3796
3541.925	3877
3543.623	3852
3545.319	3757
3547.016	3830
3548.712	3837
3550.408	3906
3552.103	3809
3553.798	3853
3555.491	3813
3557.188	3722
3558.88	3780
3560.574	3804
3562.266	3728
3563.959	3841
3565.651	3769
3567.343	3739
3569.035	3840
3570.725	3758
3572.415	3820
3574.106	3756
3575.797	3771
3577.485	3767
3579.174	3735
3580.863	3774
3582.551	3772
3584.238	3756
3585.926	3708
3587.613	3726
3589.3	3659
3590.986	3644
3592.671	3661
3594.357	3636
3596.042	3721
3597.726	3701
3599.41	3624
3601.094	3672
3602.778	3762
3604.461	3665
3606.143	3665
3607.825	3642
3609.507	3605
3611.188	3647
3612.87	3704
3614.551	3673
3616.229	3607
3617.909	3667
3619.589	3581
3621.269	3697
3622.948	3595
3624.625	3663
3626.302	3626
3627.98	3590
3629.657	3560
3631.334	3686
3633.01	3566
3634.686	3669
3636.361	3472
3638.036	3521
3639.712	3575
3641.385	3556
3643.06	3583
3644.732	3589
3646.405	3492
3648.08	3526
3649.751	3505
3651.424	3522
3653.094	3618
3654.766	3559
3656.436	3531
3658.106	3529
3659.777	3559
3661.446	3524
3663.115	3526
3664.783	3500
3666.452	3398
3668.121	3600
3669.788	3478
3671.454	3443
3673.121	3549
3674.789	3536
3676.455	3527
3678.12	3496
3679.784	3469
3681.45	3504
3683.114	3441
3684.779	3440
3686.442	3493
3688.105	3419
3689.768	3448
3691.43	3497
3693.093	3403
3694.754	3434
3696.415	3503
3698.076	3482
3699.736	3468
3701.396	3406
3703.057	3441
3704.716	3422
3706.375	3353
3708.034	3493
3709.692	3459
3711.351	3382
3713.008	3460
3714.665	3390
3716.321	3433
3717.977	3338
3719.634	3429
3721.29	3383
3722.945	3428
3724.598	3425
3726.253	3402
3727.907	3504
3729.561	3382
3731.214	3364
3732.867	3334
3734.518	3351
3736.171	3424
3737.824	3312
3739.474	3317
3741.125	3448
3742.775	3392
3744.425	3348
3746.074	3309
3747.725	3358
3749.373	3360
3751.022	3213
3752.669	3345
3754.318	3303
3755.966	3393
3757.612	3288
3759.259	3314
3760.905	3350
3762.55	3391
3764.197	3347
3765.842	3245
3767.486	3329
3769.131	3310
3770.774	3320
3772.417	3344
3774.061	3239
3775.705	3283
3777.347	3305
3778.988	3328
3780.629	3261
3782.271	3266
3783.912	3310
3785.552	3375
3787.192	3331
3788.831	3346
3790.472	3327
3792.112	3214
3793.75	3286
3795.388	3268
3797.024	3236
3798.661	3218
3800.3	3329
3801.936	3270
3803.572	3250
3805.208	3225
3806.844	3199
3808.48	3269
3810.115	3265
3811.748	3208
3813.382	3259
3815.016	3281
3816.649	3172
3818.283	3250
3819.914	3236
3821.547	3189
3823.178	3135
3824.809	3252
3826.441	3167
3828.072	3244
3829.701	3137
3831.331	3179
3832.96	3232
3834.591	3211
3836.219	3204
3837.847	3188
3839.475	3240
3841.102	3191
3842.729	3192
3844.357	3212
3845.984	3198
3847.609	3191
3849.234	3152
3850.86	3202
3852.485	3114
3854.11	3144
3855.734	3258
3857.357	3187
3858.981	3137
3860.603	3166
3862.227	3126
3863.848	3173
3865.471	3110
3867.092	3179
3868.713	3126
3870.334	3120
3871.954	3144
3873.575	3175
3875.194	3103
3876.813	3091
3878.433	3156
3880.051	3172
3881.669	3098
3883.286	3107
3884.904	3047
3886.52	3112
3888.138	3106
3889.754	3090
3891.37	3143
3892.985	3110
3894.6	3080
3896.216	3113
3897.831	3051
3899.444	3117
3901.058	3086
3902.67	3084
3904.283	3057
3905.897	3044
3907.509	3054
3909.121	3114
3910.731	3028
3912.342	3067
3913.954	3059
3915.563	3063
3917.174	2967
3918.783	3109
3920.391	3014
3922.002	3045
3923.611	3075
3925.218	3049
3926.826	3076
3928.432	3036
3930.039	3047
3931.647	3014
3933.253	3015
3934.859	3079
3936.464	3068
3938.068	3087
3939.675	2977
3941.278	2985
3942.883	3068
3944.486	3053
3946.089	2984
3947.692	3043
3949.295	3054
3950.898	3052
3952.499	3006
3954.1	2993
3955.7	3038
3957.303	3036
3958.903	2995
3960.502	2972
3962.101	2942
3963.7	3006
3965.301	2950
3966.899	2972
3968.497	3063
3970.094	2989
3971.691	2974
3973.288	2959
3974.885	2955
3976.481	2965
3978.077	2927
3979.672	2960
3981.267	2959
3982.863	2973
3984.457	2921
3986.051	2927
3987.645	2903
3989.238	2894
3990.831	2955
3992.425	2905
3994.017	2989
3995.607	2882
3997.199	2886
3998.79	2893
4000.382	2889
4001.973	2890
4003.561	2899
4005.151	2885
4006.741	2971
4008.331	2879
4009.918	2886
4011.507	2831
4013.095	2847
4014.681	2894
4016.269	2835
4017.856	2807
4019.443	2851
4021.028	2878
4022.614	2830
4024.199	2858
4025.785	2915
4027.37	2834
4028.953	2880
4030.536	2859
4032.12	2755
4033.704	2840
4035.287	2831
4036.869	2772
4038.45	2862
4040.032	2759
4041.613	2847
4043.195	2834
4044.776	2785
4046.356	2792
4047.935	2817
4049.515	2774
4051.095	2784
4052.674	2751
4054.251	2737
4055.829	2808
4057.406	2809
4058.985	2787
4060.562	2844
4062.139	2795
4063.715	2744
4065.29	2799
4066.865	2743
4068.442	2778
4070.016	2772
4071.59	2791
4073.164	2765
4074.738	2731
4076.312	2731
4077.885	2741
4079.458	2800
4081.03	2746
4082.602	2762
4084.173	2804
4085.745	2737
4087.315	2705
4088.886	2709
4090.456	2800
4092.026	2691
4093.596	2659
4095.165	2805
4096.734	2713
4098.301	2745
4099.869	2701
4101.437	2710
4103.006	2763
4104.572	2750
4106.139	2749
4107.704	2718
4109.27	2676
4110.837	2790
4112.401	2671
4113.966	2674
4115.53	2681
4117.094	2617
4118.659	2696
4120.223	2732
4121.785	2645
4123.347	2674
4124.909	2701
4126.471	2687
4128.034	2715
4129.595	2704
4131.155	2660
4132.716	2645
4134.275	2698
4135.836	2727
4137.395	2623
4138.955	2622
4140.513	2620
4142.071	2682
4143.628	2604
4145.188	2699
4146.745	2618
4148.302	2680
4149.858	2577
4151.414	2676
4152.971	2599
4154.526	2617
4156.081	2629
4157.635	2647
4159.189	2647
4160.745	2581
4162.298	2606
4163.852	2584
4165.405	2672
4166.957	2586
4168.51	2542
4170.063	2586
4171.614	2611
4173.166	2654
4174.717	2568
4176.267	2586
4177.817	2579
4179.368	2564
4180.917	2591
4182.466	2561
4184.016	2565
4185.564	2521
4187.112	2559
4188.66	2540
4190.207	2513
4191.754	2640
4193.301	2554
4194.848	2581
4196.394	2496
4197.94	2534
4199.484	2583
4201.03	2510
4202.575	2565
4204.12	2484
4205.663	2578
4207.207	2555
4208.75	2548
4210.292	2559
4211.836	2556
4213.378	2530
4214.92	2559
4216.46	2553
4218.002	2496
4219.544	2521
4221.083	2498
4222.625	2531
4224.164	2503
4225.703	2505
4227.244	2515
4228.782	2467
4230.32	2475
4231.857	2482
4233.395	2492
4234.933	2529
4236.471	2450
4238.007	2459
4239.542	2568
4241.078	2517
4242.614	2434
4244.15	2475
4245.685	2537
4247.219	2479
4248.753	2499
4250.287	2384
4251.82	2509
4253.354	2496
4254.887	2457
4256.419	2417
4257.951	2443
4259.483	2424
4261.016	2512
4262.547	2499
4264.078	2491
4265.608	2438
4267.137	2441
4268.668	2398
4270.197	2410
4271.727	2419
4273.254	2468
4274.783	2413
4276.311	2399
4277.84	2438
4279.366	2421
4280.894	2443
4282.42	2455
4283.946	2416
4285.473	2470
4286.998	2378
4288.523	2392
4290.047	2420
4291.572	2437
4293.096	2410
4294.622	2437
4296.144	2385
4297.668	2464
4299.19	2390
4300.713	2399
4302.236	2393
4303.758	2400
4305.279	2338
4306.799	2366
4308.321	2353
4309.842	2354
4311.361	2363
4312.882	2318
4314.401	2353
