400.0961	2646
402.6185	2660
405.1424	2608
407.6635	2639
410.1838	2617
412.7035	2618
415.2225	2690
417.7388	2663
420.2585	2704
422.7754	2794
425.2917	2782
427.8072	2832
430.3221	2828
432.8363	2819
435.3498	2852
437.8626	2867
440.3727	2933
442.8841	2830
445.3969	2794
447.907	2830
450.4142	2798
452.9229	2837
455.4289	2796
457.9362	2833
460.4449	2758
462.9488	2780
465.454	2895
467.9566	2800
470.4604	2777
472.9637	2774
475.4662	2822
477.966	2893
480.4671	2768
482.9656	2810
485.4633	2744
487.9645	2848
490.4608	2816
492.9566	2828
495.4536	2843
497.948	2763
500.4437	2876
502.9387	2751
505.431	2818
507.9226	2793
510.4136	2881
512.9079	2860
515.3975	2769
517.8864	2848
520.3746	2852
522.8622	2890
525.3491	2884
527.8394	2874
530.3249	2852
532.8098	2866
535.2939	2854
537.7774	2850
540.2623	2830
542.7444	2854
545.2259	2875
547.7067	2914
550.1868	2860
552.6683	2888
555.147	2909
557.6231	2839
560.1005	2924
562.5773	2907
565.0534	2957
567.5308	2978
570.0056	2940
572.4776	2943
574.951	2922
577.4237	3090
579.8978	3011
582.3671	3083
584.8378	3070
587.3079	3082
589.7773	3013
592.244	3037
594.714	3042
597.1793	3123
599.6461	3046
602.1121	2929
604.5754	2996
607.0421	2964
609.5042	3004
611.9675	2999
614.4282	2999
616.8902	2895
619.3515	3011
621.8122	2937
624.2702	3040
626.7296	2974
629.1863	3016
631.6423	2912
634.1017	2896
636.5563	2921
639.0104	3020
641.4658	2933
643.9185	2989
646.3725	2939
648.8239	3041
651.2766	2982
653.7266	3021
656.176	3023
658.6247	3046
661.0748	2985
663.5242	2968
665.9709	2951
668.417	3079
670.8624	3056
673.3092	2979
675.7533	3024
678.1968	3037
680.6395	3005
683.0817	2940
685.5251	3063
687.9659	3054
690.4061	3078
692.8456	3015
695.2844	3083
697.7226	3052
700.1621	3033
702.599	3130
705.0332	3050
707.4688	3019
709.9036	3073
712.3399	3157
714.7735	3061
717.2044	3087
719.6367	3117
722.0683	3158
724.4993	3065
726.9296	3179
729.3593	3148
731.7883	3207
734.2147	3177
736.6423	3178
739.0714	3133
741.4958	3118
743.9216	3125
746.3447	3247
748.7691	3240
751.1929	3244
753.616	3288
756.0366	3185
758.4584	3224
760.8776	3217
763.2982	3259
765.718	3236
768.1373	3288
770.5539	3228
772.9698	3254
775.3871	3308
777.8038	3311
780.2178	3229
782.6332	3283
785.0459	3287
787.458	3252
789.8714	3292
792.2842	3282
794.6943	3276
797.1038	3300
799.5127	3175
801.9209	3190
804.3324	3240
806.7393	3363
809.1456	3243
811.5513	3338
813.9562	3343
816.3625	3353
818.7663	3279
821.1693	3263
823.5718	3238
825.9735	3346
828.3746	3334
830.7771	3263
833.177	3366
835.5762	3390
837.9747	3332
840.3727	3329
842.772	3325
845.1666	3308
847.5626	3373
849.958	3451
852.3527	3372
854.7488	3506
857.1403	3402
859.5331	3423
861.9253	3423
864.3168	3398
866.7057	3448
869.098	3422
871.4876	3386
873.8746	3457
876.263	3417
878.6487	3400
881.0378	3402
883.4243	3399
885.8081	3388
888.1933	3344
890.5759	3451
892.9598	3318
895.343	3336
897.7256	3372
900.1057	3305
902.4871	3372
904.8659	3424
907.246	3374
909.6254	3390
912.0023	3449
914.3786	3477
916.7562	3531
919.1331	3571
921.5074	3510
923.8831	3563
926.2562	3576
928.6287	3633
931.0005	3596
933.3757	3562
935.7462	3644
938.1162	3590
940.4855	3761
942.8542	3681
945.2242	3733
947.5916	3817
949.9584	3933
952.3266	4038
954.6921	4199
957.0571	4371
959.4233	4700
961.787	4652
964.15	4625
966.5125	4531
968.8742	4261
971.2354	4023
973.5959	3914
975.9559	3790
978.3151	3685
980.6738	3526
983.0338	3549
985.3912	3611
987.7461	3537
990.1022	3521
992.4578	3566
994.8127	3522
997.1689	3603
999.5207	3555
1001.874	3520
1004.226	3604
1006.576	3488
1008.929	3504
1011.28	3522
1013.628	3590
1015.977	3541
1018.324	3579
1020.674	3572
1023.019	3558
1025.366	3586
1027.713	3601
1030.056	3536
1032.399	3565
1034.746	3612
1037.087	3624
1039.431	3597
1041.771	3629
1044.113	3638
1046.454	3592
1048.793	3692
1051.133	3571
1053.471	3604
1055.807	3738
1058.146	3690
1060.483	3691
1062.818	3653
1065.153	3661
1067.489	3608
1069.822	3820
1072.156	3701
1074.488	3672
1076.82	3789
1079.15	3684
1081.48	3715
1083.814	3703
1086.143	3640
1088.471	3592
1090.799	3637
1093.126	3608
1095.452	3626
1097.78	3627
1100.105	3612
1102.43	3590
1104.754	3701
1107.077	3687
1109.4	3562
1111.722	3551
1114.044	3589
1116.365	3623
1118.685	3579
1121.005	3631
1123.324	3618
1125.643	3611
1127.961	3642
1130.278	3632
1132.595	3571
1134.911	3607
1137.226	3589
1139.541	3548
1141.854	3637
1144.167	3600
1146.482	3518
1148.793	3632
1151.105	3654
1153.414	3646
1155.725	3641
1158.033	3600
1160.344	3582
1162.651	3594
1164.959	3640
1167.265	3539
1169.572	3612
1171.878	3596
1174.184	3668
1176.488	3640
1178.79	3656
1181.094	3556
1183.396	3736
1185.699	3655
1188.001	3628
1190.301	3592
1192.6	3622
1194.9	3642
1197.2	3655
1199.497	3701
1201.794	3657
1204.09	3597
1206.387	3662
1208.684	3694
1210.978	3589
1213.272	3568
1215.565	3607
1217.858	3667
1220.15	3666
1222.443	3680
1224.734	3733
1227.024	3713
1229.313	3704
1231.602	3756
1233.892	3781
1236.18	3758
1238.467	3747
1240.754	3698
1243.04	3771
1245.325	3808
1247.612	3829
1249.896	3914
1252.178	3764
1254.461	3817
1256.743	3859
1259.027	3818
1261.308	3847
1263.587	3813
1265.867	3797
1268.146	3752
1270.425	3800
1272.703	3853
1274.981	3918
1277.256	3805
1279.532	3753
1281.808	3806
1284.083	3801
1286.358	3732
1288.63	3776
1290.904	3734
1293.175	3806
1295.449	3793
1297.719	3754
1299.99	3745
1302.259	3740
1304.529	3739
1306.798	3770
1309.065	3836
1311.333	3768
1313.599	3662
1315.866	3719
1318.131	3763
1320.396	3789
1322.66	3760
1324.925	3739
1327.187	3733
1329.448	3737
1331.711	3803
1333.974	3751
1336.234	3730
1338.493	3774
1340.752	3825
1343.01	3732
1345.269	3724
1347.526	3805
1349.784	3761
1352.04	3733
1354.295	3701
1356.552	3676
1358.806	3681
1361.059	3829
1363.312	3716
1365.564	3780
1367.818	3789
1370.069	3796
1372.318	3828
1374.568	3796
1376.817	3762
1379.066	3730
1381.316	3703
1383.564	3727
1385.809	3788
1388.056	3794
1390.301	3811
1392.549	3790
1394.793	3889
1397.036	3902
1399.279	3865
1401.522	3918
1403.763	3851
1406.007	3827
1408.248	3829
1410.487	3740
1412.727	3896
1414.965	3775
1417.205	3856
1419.442	3937
1421.68	3874
1423.915	3901
1426.152	3846
1428.388	3827
1430.623	3953
1432.857	3923
1435.091	3965
1437.323	3982
1439.556	3825
1441.789	3954
1444.019	3951
1446.25	3928
1448.48	3928
1450.708	4021
1452.938	3932
1455.167	3966
1457.394	4046
1459.62	4001
1461.846	3970
1464.073	3899
1466.299	3934
1468.523	3799
1470.746	3936
1472.969	3872
1475.191	3943
1477.415	3841
1479.636	3832
1481.858	3761
1484.078	3794
1486.298	3758
1488.518	3775
1490.736	3755
1492.954	3763
1495.169	3812
1497.386	3780
1499.602	3821
1501.819	3836
1504.034	3770
1506.248	3763
1508.462	3749
1510.675	3722
1512.888	3761
1515.1	3689
1517.311	3694
1519.522	3721
1521.732	3741
1523.942	3790
1526.151	3807
1528.36	3796
1530.566	3801
1532.773	3716
1534.98	3763
1537.187	3740
1539.392	3677
1541.596	3738
1543.801	3864
1546.005	3744
1548.208	3851
1550.411	3755
1552.612	3760
1554.814	3799
1557.013	3832
1559.212	3813
1561.414	3861
1563.612	3937
1565.811	3766
1568.007	3851
1570.203	3855
1572.403	3846
1574.598	3847
1576.792	3742
1578.988	3845
1581.181	3919
1583.376	3922
1585.568	3800
1587.761	3881
1589.952	3837
1592.143	3913
1594.333	3906
1596.524	3972
1598.715	3840
1600.903	3863
1603.091	3855
1605.278	3925
1607.466	3880
1609.652	3862
1611.838	3928
1614.023	4006
1616.207	4013
1618.391	3943
1620.576	3884
1622.759	3960
1624.941	3961
1627.123	3884
1629.304	3881
1631.484	3911
1633.664	3968
1635.844	3945
1638.022	3998
1640.201	3970
1642.38	3892
1644.556	3915
1646.732	3930
1648.908	3970
1651.084	3997
1653.257	3923
1655.433	4030
1657.607	3913
1659.779	4081
1661.951	3980
1664.122	4039
1666.295	4091
1668.467	4093
1670.635	4050
1672.805	3949
1674.973	3943
1677.142	4060
1679.31	4019
1681.478	4035
1683.644	3989
1685.81	4014
1687.975	4072
1690.142	3950
1692.305	3970
1694.468	4069
1696.632	4052
1698.794	4011
1700.957	3923
1703.119	4009
1705.279	3954
1707.439	3887
1709.598	3909
1711.758	3950
1713.917	3885
1716.075	3907
1718.231	3815
1720.388	3905
1722.543	3906
1724.702	3910
1726.856	3899
1729.01	3808
1731.164	3900
1733.317	3817
1735.471	3941
1737.623	3893
1739.774	3895
1741.925	3889
1744.075	3847
1746.225	3912
1748.376	3977
1750.524	3919
1752.672	3929
1754.82	3874
1756.965	3853
1759.113	3879
1761.259	3888
1763.405	3867
1765.549	3928
1767.694	3938
1769.836	3919
1771.981	3922
1774.123	3938
1776.264	3860
1778.405	3887
1780.546	3976
1782.687	3901
1784.827	3881
1786.966	3959
1789.103	3973
1791.242	3905
1793.381	4016
1795.517	3921
1797.653	3938
1799.788	4019
1801.923	3967
1804.057	3997
1806.193	3866
1808.326	3903
1810.457	3959
1812.59	3876
1814.721	3971
1816.855	3945
1818.984	3894
1821.113	3830
1823.244	3875
1825.372	3927
1827.499	3925
1829.63	3920
1831.756	3892
1833.882	3992
1836.007	3885
1838.132	3895
1840.26	3800
1842.384	3912
1844.507	3908
1846.63	3854
1848.752	3824
1850.875	3893
1852.996	3918
1855.118	3877
1857.238	3908
1859.358	3937
1861.477	3859
1863.597	3950
1865.715	3854
1867.832	3942
1869.948	3916
1872.064	3918
1874.181	3912
1876.297	3925
1878.411	3842
1880.526	3977
1882.639	3993
1884.752	3892
1886.865	3919
1888.977	3859
1891.089	3915
1893.2	3949
1895.308	3839
1897.42	3961
1899.53	3890
1901.639	3918
1903.745	3949
1905.853	3957
1907.962	3829
1910.067	3963
1912.174	3984
1914.278	3917
1916.383	4013
1918.486	4058
1920.592	4014
1922.694	3989
1924.797	3945
1926.898	3965
1929	3968
1931.102	3903
1933.203	3972
1935.301	3968
1937.401	3999
1939.499	4031
1941.598	3954
1943.697	3968
1945.793	4034
1947.888	3969
1949.985	3913
1952.08	4039
1954.176	3965
1956.269	3970
1958.364	3924
1960.457	3988
1962.549	3993
1964.642	3966
1966.733	3914
1968.823	4027
1970.913	3883
1973.005	3981
1975.093	4013
1977.184	3887
1979.271	3953
1981.359	3929
1983.446	3954
1985.532	3947
1987.619	3976
1989.705	3939
1991.789	3933
1993.874	3872
1995.956	3958
1998.041	3905
2000.123	3897
2002.206	3892
2004.287	3997
2006.368	3994
2008.449	3863
2010.529	3934
2012.609	3968
2014.688	3933
2016.766	3931
2018.843	3970
2020.922	3965
2022.999	3925
2025.074	3910
2027.15	3979
2029.225	3942
2031.299	3984
2033.375	3988
2035.447	3869
2037.52	3989
2039.592	3906
2041.664	3939
2043.736	3923
2045.807	3961
2047.876	3988
2049.947	3948
2052.015	3936
2054.086	3983
2056.153	3930
2058.221	4081
2060.288	3889
2062.353	3966
2064.42	3958
2066.486	3995
2068.55	3904
2070.614	4058
2072.678	3897
2074.741	3969
2076.805	3937
2078.866	3982
2080.929	3947
2082.99	3979
2085.049	4013
2087.109	3971
2089.17	3924
2091.228	3912
2093.286	3912
2095.344	3958
2097.4	3922
2099.46	3933
2101.516	3965
2103.572	3971
2105.626	3893
2107.679	3939
2109.735	3934
2111.788	3888
2113.841	3993
2115.894	3879
2117.945	3963
2119.997	3939
2122.049	3957
2124.1	3907
2126.148	3963
2128.197	3945
2130.246	3963
2132.296	3960
2134.342	3937
2136.39	3958
2138.437	3974
2140.483	3978
2142.527	3922
2144.574	3875
2146.619	3979
2148.661	3916
2150.705	3932
2152.747	3945
2154.792	3913
2156.832	3956
2158.874	4013
2160.915	4008
2162.954	3885
2164.995	3878
2167.034	3938
2169.072	3914
2171.111	3901
2173.148	3897
2175.186	3978
2177.223	3749
2179.258	3877
2181.294	3950
2183.328	3960
2185.362	3808
2187.398	3963
2189.431	3921
2191.463	3966
2193.495	3937
2195.528	3887
2197.56	3970
2199.59	3911
2201.62	3853
2203.649	3942
2205.678	3865
2207.708	3847
2209.737	3814
2211.764	3877
2213.791	3904
2215.817	3780
2217.843	3920
2219.87	3867
2221.895	3878
2223.919	3888
2225.942	3808
2227.966	3836
2229.988	3888
2232.012	3798
2234.032	3901
2236.054	3911
2238.074	3877
2240.095	3840
2242.116	3842
2244.135	3817
2246.153	3880
2248.171	3918
2250.188	3888
2252.208	3882
2254.223	3862
2256.239	3912
2258.255	3914
2260.269	3849
2262.283	3927
2264.3	3936
2266.312	3818
2268.325	3876
2270.336	3860
2272.349	3884
2274.362	3903
2276.372	3897
2278.383	3810
2280.392	3755
2282.402	3887
2284.409	3879
2286.418	3830
2288.427	3918
2290.433	3913
2292.441	3756
2294.446	3862
2296.453	3882
2298.459	3838
2300.463	3854
2302.466	3794
2304.471	3858
2306.475	3894
2308.477	3804
2310.478	3904
2312.481	3899
2314.481	3756
2316.481	3860
2318.482	3908
2320.482	3810
2322.48	3829
2324.48	3778
2326.478	3813
2328.476	3817
2330.473	3848
2332.469	3839
2334.465	3940
2336.46	3838
2338.454	3822
2340.45	3881
2342.444	3836
2344.437	3852
2346.43	3745
2348.421	3820
2350.414	3788
2352.405	3804
2354.396	3884
2356.386	3758
2358.376	3802
2360.366	3804
2362.355	3775
2364.343	3811
2366.331	3857
2368.317	3750
2370.304	3839
2372.292	3841
2374.278	3769
2376.262	3854
2378.247	3773
2380.23	3882
2382.216	3699
2384.199	3801
2386.181	3786
2388.163	3791
2390.144	3776
2392.127	3787
2394.107	3721
2396.087	3758
2398.066	3739
2400.046	3772
2402.023	3790
2404.004	3795
2405.981	3809
2407.957	3737
2409.934	3720
2411.91	3745
2413.886	3794
2415.862	3796
2417.836	3714
2419.809	3787
2421.784	3731
2423.756	3787
2425.73	3787
2427.701	3794
2429.672	3831
2431.644	3734
2433.615	3693
2435.586	3640
2437.555	3775
2439.523	3756
2441.491	3815
2443.459	3695
2445.428	3757
2447.395	3714
2449.361	3751
2451.327	3764
2453.292	3700
2455.257	3683
2457.223	3826
2459.187	3674
2461.15	3718
2463.113	3752
2465.076	3802
2467.039	3733
2468.999	3674
2470.96	3712
2472.921	3733
2474.881	3686
2476.841	3701
2478.8	3757
2480.759	3780
2482.717	3833
2484.675	3713
2486.63	3737
2488.589	3660
2490.545	3688
2492.5	3696
2494.455	3788
2496.408	3689
2498.364	3690
2500.318	3756
2502.27	3689
2504.223	3726
2506.174	3784
2508.126	3664
2510.078	3716
2512.03	3758
2513.979	3688
2515.927	3694
2517.877	3614
2519.826	3665
2521.775	3656
2523.722	3627
2525.668	3681
2527.616	3692
2529.561	3604
2531.508	3703
2533.452	3688
2535.398	3677
2537.342	3676
2539.284	3652
2541.229	3629
2543.173	3727
2545.114	3734
2547.055	3756
2548.996	3627
2550.938	3680
2552.878	3722
2554.817	3708
2556.756	3680
2558.695	3647
2560.633	3722
2562.572	3724
2564.509	3741
2566.445	3782
2568.382	3679
2570.317	3734
2572.254	3601
2574.189	3722
2576.123	3673
2578.057	3728
2579.99	3649
2581.923	3622
2583.855	3709
2585.788	3681
2587.719	3623
2589.65	3638
2591.579	3703
2593.511	3734
2595.44	3613
2597.37	3686
2599.297	3727
2601.225	3782
2603.153	3711
2605.08	3808
2607.007	3794
2608.932	3643
2610.858	3702
2612.782	3763
2614.709	3704
2616.632	3716
2618.556	3725
2620.478	3731
2622.401	3725
2624.324	3741
2626.247	3703
2628.167	3707
2630.088	3717
2632.008	3744
2633.928	3668
2635.848	3747
2637.766	3754
2639.684	3775
2641.603	3690
2643.519	3734
2645.437	3783
2647.353	3781
2649.27	3729
2651.184	3783
2653.099	3649
2655.014	3721
2656.928	3678
2658.842	3722
2660.755	3720
2662.667	3764
2664.579	3809
2666.491	3752
2668.402	3619
2670.312	3683
2672.222	3686
2674.132	3702
2676.042	3732
2677.951	3646
2679.859	3750
2681.766	3657
2683.674	3725
2685.582	3712
2687.488	3688
2689.392	3713
2691.298	3629
2693.202	3755
2695.107	3776
2697.012	3662
2698.914	3685
2700.817	3610
2702.72	3668
2704.622	3677
2706.524	3668
2708.425	3615
2710.326	3665
2712.225	3686
2714.125	3601
2716.024	3653
2717.923	3690
2719.822	3767
2721.719	3606
2723.616	3687
2725.512	3641
2727.41	3537
2729.305	3679
2731.201	3663
2733.095	3655
2734.99	3652
2736.884	3658
2738.778	3720
2740.67	3621
2742.562	3621
2744.455	3714
2746.346	3682
2748.238	3648
2750.129	3675
2752.018	3663
2753.907	3643
2755.797	3650
2757.687	3619
2759.575	3650
2761.462	3619
2763.349	3575
2765.237	3719
2767.124	3663
2769.009	3695
2770.894	3601
2772.779	3618
2774.663	3644
2776.547	3631
2778.431	3539
2780.314	3563
2782.197	3665
2784.078	3574
2785.96	3703
2787.842	3671
2789.723	3660
2791.603	3699
2793.483	3627
2795.362	3611
2797.241	3681
2799.121	3673
2800.997	3585
2802.874	3630
2804.751	3555
2806.628	3647
2808.506	3653
2810.38	3610
2812.255	3647
2814.13	3555
2816.003	3581
2817.878	3652
2819.752	3611
2821.623	3661
2823.496	3614
2825.368	3737
2827.238	3649
2829.111	3615
2830.98	3635
2832.851	3712
2834.719	3628
2836.589	3654
2838.458	3702
2840.327	3666
2842.193	3736
2844.061	3680
2845.927	3685
2847.794	3685
2849.66	3653
2851.525	3697
2853.39	3641
2855.254	3762
2857.117	3719
2858.983	3780
2860.845	3738
2862.707	3787
2864.569	3865
2866.431	3868
2868.293	3717
2870.154	3890
2872.013	3971
2873.873	3913
2875.733	3924
2877.592	3917
2879.451	4054
2881.309	3991
2883.166	3988
2885.022	4085
2886.879	4134
2888.736	4108
2890.591	4133
2892.446	4207
2894.301	4196
2896.155	4076
2898.009	4141
2899.863	4088
2901.716	4178
2903.568	4078
2905.419	4100
2907.27	4132
2909.123	4129
2910.973	4048
2912.824	4235
2914.673	4126
2916.521	4126
2918.372	4151
2920.22	4250
2922.067	4307
2923.914	4360
2925.761	4316
2927.607	4358
2929.455	4417
2931.301	4485
2933.144	4453
2934.99	4503
2936.833	4441
2938.678	4567
2940.522	4623
2942.364	4716
2944.207	4764
2946.048	4704
2947.891	4852
2949.731	4743
2951.571	4804
2953.412	4793
2955.25	4769
2957.09	4733
2958.93	4716
2960.767	4715
2962.606	4642
2964.443	4626
2966.279	4582
2968.116	4528
2969.953	4422
2971.788	4389
2973.623	4363
2975.457	4233
2977.292	4293
2979.127	4239
2980.959	4216
2982.792	4189
2984.624	4131
2986.455	4199
2988.288	4110
2990.119	4170
2991.949	3998
2993.779	3957
2995.608	4121
2997.439	3903
2999.268	3988
3001.096	3834
3002.923	3975
3004.751	3889
3006.578	3883
3008.406	3880
3010.232	3761
3012.057	3772
3013.883	3762
3015.706	3782
3017.532	3699
3019.356	3642
3021.179	3642
3023.002	3637
3024.823	3553
3026.646	3598
3028.469	3614
3030.289	3498
3032.11	3448
3033.93	3564
3035.749	3576
3037.57	3508
3039.39	3531
3041.207	3491
3043.026	3511
3044.842	3456
3046.661	3457
3048.477	3485
3050.294	3442
3052.109	3454
3053.925	3430
3055.739	3452
3057.555	3558
3059.368	3494
3061.181	3480
3062.995	3527
3064.807	3539
3066.62	3448
3068.433	3565
3070.243	3475
3072.054	3518
3073.865	3393
3075.675	3486
3077.485	3432
3079.293	3488
3081.102	3449
3082.911	3452
3084.719	3444
3086.527	3453
3088.333	3496
3090.139	3474
3091.945	3438
3093.75	3457
3095.557	3378
3097.361	3455
3099.165	3451
3100.969	3452
3102.772	3444
3104.575	3429
3106.379	3428
3108.181	3368
3109.982	3369
3111.783	3414
3113.584	3408
3115.386	3372
3117.186	3342
3118.985	3341
3120.783	3382
3122.582	3355
3124.381	3325
3126.179	3322
3127.975	3341
3129.772	3384
3131.569	3330
3133.365	3353
3135.161	3381
3136.956	3383
3138.751	3395
3140.544	3237
3142.338	3355
3144.132	3314
3145.925	3323
3147.717	3370
3149.509	3339
3151.301	3321
3153.091	3313
3154.884	3330
3156.673	3287
3158.462	3313
3160.252	3375
3162.041	3275
3163.831	3328
3165.618	3386
3167.405	3287
3169.193	3304
3170.979	3351
3172.767	3273
3174.553	3334
3176.338	3319
3178.123	3378
3179.907	3371
3181.692	3329
3183.477	3331
3185.259	3359
3187.042	3340
3188.824	3281
3190.607	3350
3192.389	3320
3194.17	3323
3195.951	3328
3197.73	3273
3199.51	3298
3201.289	3283
3203.07	3281
3204.848	3336
3206.626	3287
3208.403	3350
3210.18	3209
3211.959	3296
3213.735	3250
3215.511	3293
3217.285	3298
3219.06	3259
3220.836	3383
3222.611	3343
3224.384	3269
3226.158	3305
3227.929	3265
3229.702	3317
3231.476	3269
3233.248	3315
3235.018	3294
3236.789	3362
3238.56	3219
3240.33	3265
3242.1	3301
3243.869	3297
3245.637	3310
3247.405	3298
3249.172	3291
3250.941	3345
3252.707	3307
3254.474	3321
3256.24	3302
3258.006	3251
3259.772	3307
3261.537	3270
3263.301	3346
3265.065	3310
3266.828	3287
3268.592	3290
3270.355	3253
3272.117	3318
3273.878	3362
3275.64	3280
3277.401	3255
3279.162	3348
3280.922	3286
3282.682	3305
3284.441	3315
3286.199	3294
3287.959	3339
3289.716	3257
3291.475	3382
3293.232	3393
3294.988	3293
3296.744	3290
3298.501	3273
3300.256	3322
3302.011	3240
3303.766	3308
3305.52	3309
3307.275	3346
3309.028	3348
3310.781	3328
3312.533	3335
3314.285	3321
3316.038	3351
3317.789	3284
3319.54	3313
3321.289	3440
3323.039	3305
3324.789	3353
3326.539	3346
3328.288	3263
3330.035	3255
3331.783	3301
3333.531	3311
3335.28	3299
3337.025	3294
3338.771	3231
3340.518	3208
3342.262	3272
3344.009	3337
3345.753	3300
3347.497	3273
3349.24	3274
3350.983	3306
3352.726	3272
3354.469	3250
3356.212	3270
3357.952	3229
3359.694	3269
3361.434	3217
3363.176	3253
3364.916	3249
3366.654	3223
3368.394	3269
3370.132	3244
3371.871	3226
3373.61	3275
3375.346	3178
3377.083	3205
3378.82	3193
3380.556	3283
3382.292	3201
3384.027	3130
3385.763	3199
3387.497	3216
3389.231	3195
3390.965	3186
3392.698	3181
3394.431	3179
3396.164	3232
3397.896	3163
3399.627	3265
3401.36	3185
3403.09	3175
3404.82	3153
3406.55	3165
3408.279	3232
3410.01	3219
3411.738	3128
3413.467	3191
3415.194	3238
3416.92	3151
3418.647	3214
3420.375	3207
3422.102	3126
3423.827	3099
3425.553	3171
3427.277	3127
3429.003	3121
3430.727	3170
3432.451	3213
3434.173	3166
3435.896	3205
3437.62	3118
3439.343	3164
3441.063	3170
3442.785	3134
3444.505	3059
3446.226	3120
3447.948	3161
3449.666	3134
3451.386	3093
3453.104	3095
3454.823	3053
3456.541	3093
3458.259	3075
3459.976	3119
3461.693	3090
3463.408	3157
3465.125	3083
3466.841	3063
3468.556	3035
3470.271	3054
3471.985	3103
3473.698	3104
3475.414	3100
3477.126	3002
3478.838	3041
3480.55	2969
3482.263	3009
3483.975	3051
3485.686	3066
3487.396	2966
3489.106	3053
3490.817	3023
3492.526	2985
3494.236	2999
3495.944	3064
3497.652	2981
3499.359	3015
3501.066	3002
3502.775	3001
3504.481	3006
3506.187	2967
3507.893	2948
3509.598	3014
3511.304	2969
3513.009	2916
3514.713	2930
3516.417	3016
3518.12	3042
3519.821	3001
3521.525	2974
3523.228	2975
3524.929	2982
3526.631	2969
3528.33	2963
3530.032	2893
3531.733	2978
3533.433	2960
3535.131	2985
3536.83	2913
3538.529	2985
3540.227	2931
3541.925	2921
3543.623	2952
3545.319	2911
3547.016	2840
3548.712	2881
3550.408	2948
3552.103	2861
3553.798	2954
3555.491	2904
3557.188	2899
3558.88	2864
3560.574	2892
3562.266	2883
3563.959	2901
3565.651	2831
3567.343	2927
3569.035	2924
3570.725	2926
3572.415	2825
3574.106	2861
3575.797	2885
3577.485	2805
3579.174	2834
3580.863	2879
3582.551	2845
3584.238	2858
3585.926	2929
3587.613	2801
3589.3	2800
3590.986	2836
3592.671	2814
3594.357	2830
3596.042	2821
3597.726	2823
3599.41	2754
3601.094	2857
3602.778	2679
3604.461	2777
3606.143	2781
3607.825	2807
3609.507	2748
3611.188	2779
3612.87	2673
3614.551	2770
3616.229	2736
3617.909	2768
3619.589	2710
3621.269	2776
3622.948	2791
3624.625	2763
3626.302	2739
3627.98	2726
3629.657	2769
3631.334	2711
3633.01	2719
3634.686	2721
3636.361	2663
3638.036	2794
3639.712	2688
3641.385	2682
3643.06	2680
3644.732	2651
3646.405	2740
3648.08	2674
3649.751	2714
3651.424	2658
3653.094	2651
3654.766	2666
3656.436	2764
3658.106	2577
3659.777	2621
3661.446	2680
3663.115	2724
3664.783	2689
3666.452	2647
3668.121	2605
3669.788	2617
3671.454	2613
3673.121	2643
3674.789	2737
3676.455	2621
3678.12	2607
3679.784	2674
3681.45	2642
3683.114	2625
3684.779	2608
3686.442	2638
3688.105	2687
3689.768	2597
3691.43	2605
3693.093	2611
3694.754	2699
3696.415	2631
3698.076	2636
3699.736	2606
3701.396	2612
3703.057	2612
3704.716	2680
3706.375	2673
3708.034	2617
3709.692	2589
3711.351	2617
3713.008	2614
3714.665	2603
3716.321	2564
3717.977	2615
3719.634	2644
3721.29	2563
3722.945	2603
3724.598	2555
3726.253	2599
3727.907	2622
3729.561	2600
3731.214	2526
3732.867	2586
3734.518	2586
3736.171	2645
3737.824	2605
3739.474	2638
3741.125	2531
3742.775	2608
3744.425	2528
3746.074	2561
3747.725	2479
3749.373	2593
3751.022	2547
3752.669	2559
3754.318	2586
3755.966	2537
3757.612	2582
3759.259	2535
3760.905	2518
3762.55	2495
3764.197	2545
3765.842	2469
3767.486	2497
3769.131	2602
3770.774	2506
3772.417	2549
3774.061	2541
3775.705	2546
3777.347	2452
3778.988	2550
3780.629	2478
3782.271	2494
3783.912	2551
3785.552	2563
3787.192	2527
3788.831	2533
3790.472	2502
3792.112	2538
3793.75	2481
3795.388	2514
3797.024	2541
3798.661	2500
3800.3	2447
3801.936	2503
3803.572	2469
3805.208	2485
3806.844	2562
3808.48	2469
3810.115	2442
3811.748	2457
3813.382	2522
3815.016	2485
3816.649	2461
3818.283	2491
3819.914	2514
3821.547	2408
3823.178	2441
3824.809	2480
3826.441	2484
3828.072	2465
3829.701	2440
3831.331	2415
3832.96	2483
3834.591	2408
3836.219	2468
3837.847	2380
3839.475	2441
3841.102	2455
3842.729	2426
3844.357	2445
3845.984	2525
3847.609	2417
3849.234	2448
3850.86	2424
3852.485	2458
3854.11	2496
3855.734	2509
3857.357	2448
3858.981	2416
3860.603	2427
3862.227	2431
3863.848	2409
3865.471	2403
3867.092	2408
3868.713	2399
3870.334	2444
3871.954	2402
3873.575	2362
3875.194	2394
3876.813	2415
3878.433	2391
3880.051	2449
3881.669	2357
3883.286	2464
3884.904	2442
3886.52	2396
3888.138	2434
3889.754	2422
3891.37	2392
3892.985	2400
3894.6	2325
3896.216	2396
3897.831	2392
3899.444	2413
3901.058	2342
3902.67	2392
3904.283	2345
3905.897	2392
3907.509	2417
3909.121	2348
3910.731	2384
3912.342	2381
3913.954	2307
3915.563	2401
3917.174	2409
3918.783	2381
3920.391	2469
3922.002	2365
3923.611	2377
3925.218	2352
3926.826	2348
3928.432	2361
3930.039	2370
3931.647	2411
3933.253	2394
3934.859	2380
3936.464	2404
3938.068	2370
3939.675	2393
3941.278	2326
3942.883	2390
3944.486	2386
3946.089	2332
3947.692	2379
3949.295	2377
3950.898	2351
3952.499	2345
3954.1	2309
3955.7	2396
3957.303	2374
3958.903	2358
3960.502	2287
3962.101	2283
3963.7	2352
3965.301	2359
3966.899	2333
3968.497	2336
3970.094	2337
3971.691	2351
3973.288	2330
3974.885	2323
3976.481	2310
3978.077	2295
3979.672	2310
3981.267	2348
3982.863	2341
3984.457	2324
3986.051	2363
3987.645	2330
3989.238	2292
3990.831	2363
3992.425	2293
3994.017	2277
3995.607	2379
3997.199	2290
3998.79	2236
4000.382	2269
4001.973	2313
4003.561	2302
4005.151	2264
4006.741	2311
4008.331	2278
4009.918	2278
4011.507	2284
4013.095	2347
4014.681	2223
4016.269	2294
4017.856	2233
4019.443	2282
4021.028	2258
4022.614	2252
4024.199	2278
4025.785	2244
4027.37	2240
4028.953	2249
4030.536	2315
4032.12	2241
4033.704	2292
4035.287	2205
4036.869	2296
4038.45	2176
4040.032	2193
4041.613	2250
4043.195	2224
4044.776	2286
4046.356	2215
4047.935	2216
4049.515	2212
4051.095	2191
4052.674	2189
4054.251	2183
4055.829	2194
4057.406	2190
4058.985	2209
4060.562	2228
4062.139	2160
4063.715	2264
4065.29	2272
4066.865	2180
4068.442	2207
4070.016	2181
4071.59	2189
4073.164	2198
4074.738	2215
4076.312	2193
4077.885	2165
4079.458	2211
4081.03	2235
4082.602	2150
4084.173	2189
4085.745	2192
4087.315	2167
4088.886	2117
4090.456	2170
4092.026	2168
4093.596	2150
4095.165	2145
4096.734	2194
4098.301	2153
4099.869	2159
4101.437	2173
4103.006	2111
4104.572	2209
4106.139	2238
4107.704	2146
4109.27	2188
4110.837	2134
4112.401	2090
4113.966	2094
4115.53	2227
4117.094	2144
4118.659	2097
4120.223	2133
4121.785	2192
4123.347	2127
4124.909	2135
4126.471	2106
4128.034	2161
4129.595	2144
4131.155	2083
4132.716	2147
4134.275	2186
4135.836	2116
4137.395	2137
4138.955	2148
4140.513	2113
4142.071	2114
4143.628	2112
4145.188	2151
4146.745	2119
4148.302	2083
4149.858	2062
4151.414	2122
4152.971	2137
4154.526	2124
4156.081	2106
4157.635	2125
4159.189	2126
4160.745	2060
4162.298	2101
4163.852	2089
4165.405	2132
4166.957	2105
4168.51	2120
4170.063	2009
4171.614	2085
4173.166	2114
4174.717	2086
4176.267	2064
4177.817	2040
4179.368	2059
4180.917	2105
4182.466	2101
4184.016	2042
4185.564	2056
4187.112	2042
4188.66	2130
4190.207	2116
4191.754	2055
4193.301	2073
4194.848	2054
4196.394	2071
4197.94	2112
4199.484	2077
4201.03	2058
4202.575	2040
4204.12	2004
4205.663	2019
4207.207	2052
4208.75	2038
4210.292	2038
4211.836	2043
4213.378	2040
4214.92	2032
4216.46	1990
4218.002	1996
4219.544	2006
4221.083	2062
4222.625	2049
4224.164	2039
4225.703	2041
4227.244	2055
4228.782	1978
4230.32	1983
4231.857	2007
4233.395	2086
4234.933	2075
4236.471	2028
4238.007	2041
4239.542	1989
4241.078	2029
4242.614	2022
4244.15	2030
4245.685	2020
4247.219	1998
4248.753	2024
4250.287	2038
4251.82	1986
4253.354	1978
4254.887	2013
4256.419	2005
4257.951	1989
4259.483	2092
4261.016	2026
4262.547	2034
4264.078	2053
4265.608	1976
4267.137	1973
4268.668	2055
4270.197	1973
4271.727	2010
4273.254	2047
4274.783	2019
4276.311	1935
4277.84	1983
4279.366	1949
4280.894	2015
4282.42	1943
4283.946	1980
4285.473	1917
4286.998	1936
4288.523	1972
4290.047	1971
4291.572	1983
4293.096	1968
4294.622	1958
4296.144	1958
4297.668	1965
4299.19	2003
4300.713	1981
4302.236	1978
4303.758	1953
4305.279	1976
4306.799	2000
4308.321	1985
4309.842	2024
4311.361	1979
4312.882	1990
4314.401	1967
