400.0961	3144
402.6185	3212
405.1424	3195
407.6635	3138
410.1838	3291
412.7035	3190
415.2225	3291
417.7388	3274
420.2585	3283
422.7754	3299
425.2917	3339
427.8072	3399
430.3221	3402
432.8363	3399
435.3498	3408
437.8626	3379
440.3727	3367
442.8841	3417
445.3969	3451
447.907	3437
450.4142	3366
452.9229	3335
455.4289	3444
457.9362	3317
460.4449	3321
462.9488	3347
465.454	3413
467.9566	3403
470.4604	3380
472.9637	3350
475.4662	3411
477.966	3332
480.4671	3351
482.9656	3327
485.4633	3370
487.9645	3422
490.4608	3399
492.9566	3434
495.4536	3459
497.948	3381
500.4437	3433
502.9387	3414
505.431	3458
507.9226	3503
510.4136	3393
512.9079	3441
515.3975	3422
517.8864	3484
520.3746	3438
522.8622	3503
525.3491	3492
527.8394	3458
530.3249	3457
532.8098	3436
535.2939	3451
537.7774	3461
540.2623	3510
542.7444	3447
545.2259	3420
547.7067	3471
550.1868	3488
552.6683	3503
555.147	3499
557.6231	3455
560.1005	3498
562.5773	3466
565.0534	3566
567.5308	3607
570.0056	3597
572.4776	3698
574.951	3641
577.4237	3632
579.8978	3589
582.3671	3607
584.8378	3705
587.3079	3671
589.7773	3614
592.244	3688
594.714	3660
597.1793	3637
599.6461	3602
602.1121	3569
604.5754	3500
607.0421	3626
609.5042	3619
611.9675	3674
614.4282	3617
616.8902	3611
619.3515	3612
621.8122	3560
624.2702	3574
626.7296	3632
629.1863	3506
631.6423	3576
634.1017	3661
636.5563	3589
639.0104	3518
641.4658	3496
643.9185	3546
646.3725	3583
648.8239	3602
651.2766	3522
653.7266	3650
656.176	3667
658.6247	3602
661.0748	3619
663.5242	3626
665.9709	3607
668.417	3568
670.8624	3683
673.3092	3695
675.7533	3676
678.1968	3630
680.6395	3643
683.0817	3687
685.5251	3742
687.9659	3734
690.4061	3682
692.8456	3684
695.2844	3757
697.7226	3660
700.1621	3664
702.599	3626
705.0332	3672
707.4688	3706
709.9036	3734
712.3399	3785
714.7735	3708
717.2044	3724
719.6367	3905
722.0683	3738
724.4993	3767
726.9296	3803
729.3593	3762
731.7883	3855
734.2147	3813
736.6423	3815
739.0714	3853
741.4958	3829
743.9216	3812
746.3447	3940
748.7691	3883
751.1929	3843
753.616	3881
756.0366	3949
758.4584	3873
760.8776	3939
763.2982	3985
765.718	3948
768.1373	3939
770.5539	3915
772.9698	3966
775.3871	3997
777.8038	3934
780.2178	3974
782.6332	3945
785.0459	3959
787.458	3981
789.8714	3855
792.2842	3934
794.6943	3912
797.1038	3999
799.5127	3999
801.9209	3984
804.3324	3857
806.7393	3970
809.1456	4010
811.5513	3974
813.9562	3943
816.3625	4008
818.7663	3975
821.1693	3946
823.5718	4034
825.9735	4015
828.3746	4033
830.7771	4062
833.177	4033
835.5762	3912
837.9747	3991
840.3727	4043
842.772	4025
845.1666	4119
847.5626	4000
849.958	4106
852.3527	4125
854.7488	4125
857.1403	4170
859.5331	4129
861.9253	4113
864.3168	4123
866.7057	4148
869.098	4122
871.4876	4162
873.8746	4131
876.263	4118
878.6487	4061
881.0378	4113
883.4243	4036
885.8081	4042
888.1933	4166
890.5759	4096
892.9598	4020
895.343	4102
897.7256	4095
900.1057	4128
902.4871	4152
904.8659	4155
907.246	4134
909.6254	4116
912.0023	4090
914.3786	4216
916.7562	4297
919.1331	4238
921.5074	4438
923.8831	4304
926.2562	4319
928.6287	4302
931.0005	4340
933.3757	4294
935.7462	4418
938.1162	4388
940.4855	4451
942.8542	4460
945.2242	4490
947.5916	4622
949.9584	4843
952.3266	4907
954.6921	5095
957.0571	5272
959.4233	5552
961.787	5755
964.15	5454
966.5125	5428
968.8742	5132
971.2354	4956
973.5959	4692
975.9559	4540
978.3151	4422
980.6738	4448
983.0338	4353
985.3912	4254
987.7461	4223
990.1022	4234
992.4578	4327
994.8127	4267
997.1689	4264
999.5207	4283
1001.874	4233
1004.226	4357
1006.576	4318
1008.929	4354
1011.28	4336
1013.628	4286
1015.977	4310
1018.324	4289
1020.674	4299
1023.019	4273
1025.366	4257
1027.713	4378
1030.056	4342
1032.399	4314
1034.746	4422
1037.087	4409
1039.431	4278
1041.771	4394
1044.113	4360
1046.454	4396
1048.793	4463
1051.133	4421
1053.471	4335
1055.807	4385
1058.146	4448
1060.483	4413
1062.818	4337
1065.153	4481
1067.489	4586
1069.822	4512
1072.156	4345
1074.488	4522
1076.82	4520
1079.15	4545
1081.48	4460
1083.814	4424
1086.143	4404
1088.471	4340
1090.799	4316
1093.126	4373
1095.452	4394
1097.78	4369
1100.105	4392
1102.43	4280
1104.754	4459
1107.077	4400
1109.4	4349
1111.722	4379
1114.044	4349
1116.365	4385
1118.685	4335
1121.005	4337
1123.324	4293
1125.643	4452
1127.961	4393
1130.278	4410
1132.595	4352
1134.911	4384
1137.226	4344
1139.541	4349
1141.854	4347
1144.167	4310
1146.482	4391
1148.793	4452
1151.105	4373
1153.414	4442
1155.725	4442
1158.033	4341
1160.344	4336
1162.651	4351
1164.959	4363
1167.265	4346
1169.572	4423
1171.878	4389
1174.184	4417
1176.488	4369
1178.79	4502
1181.094	4415
1183.396	4490
1185.699	4298
1188.001	4365
1190.301	4298
1192.6	4378
1194.9	4432
1197.2	4336
1199.497	4368
1201.794	4352
1204.09	4502
1206.387	4404
1208.684	4461
1210.978	4383
1213.272	4416
1215.565	4431
1217.858	4368
1220.15	4420
1222.443	4455
1224.734	4479
1227.024	4513
1229.313	4431
1231.602	4466
1233.892	4532
1236.18	4485
1238.467	4585
1240.754	4584
1243.04	4560
1245.325	4502
1247.612	4567
1249.896	4585
1252.178	4635
1254.461	4588
1256.743	4630
1259.027	4578
1261.308	4602
1263.587	4517
1265.867	4622
1268.146	4557
1270.425	4629
1272.703	4569
1274.981	4607
1277.256	4567
1279.532	4592
1281.808	4591
1284.083	4459
1286.358	4498
1288.63	4586
1290.904	4529
1293.175	4469
1295.449	4537
1297.719	4556
1299.99	4522
1302.259	4538
1304.529	4636
1306.798	4525
1309.065	4497
1311.333	4535
1313.599	4436
1315.866	4524
1318.131	4499
1320.396	4479
1322.66	4472
1324.925	4545
1327.187	4534
1329.448	4518
1331.711	4532
1333.974	4516
1336.234	4514
1338.493	4534
1340.752	4509
1343.01	4601
1345.269	4601
1347.526	4490
1349.784	4662
1352.04	4547
1354.295	4559
1356.552	4560
1358.806	4496
1361.059	4479
1363.312	4503
1365.564	4426
1367.818	4520
1370.069	4559
1372.318	4604
1374.568	4602
1376.817	4587
1379.066	4584
1381.316	4604
1383.564	4605
1385.809	4586
1388.056	4546
1390.301	4566
1392.549	4635
1394.793	4726
1397.036	4579
1399.279	4664
1401.522	4683
1403.763	4631
1406.007	4697
1408.248	4694
1410.487	4568
1412.727	4733
1414.965	4623
1417.205	4742
1419.442	4709
1421.68	4718
1423.915	4644
1426.152	4770
1428.388	4726
1430.623	4665
1432.857	4646
1435.091	4730
1437.323	4703
1439.556	4690
1441.789	4790
1444.019	4782
1446.25	4740
1448.48	4763
1450.708	4852
1452.938	4765
1455.167	4748
1457.394	4822
1459.62	4826
1461.846	4707
1464.073	4807
1466.299	4758
1468.523	4672
1470.746	4761
1472.969	4759
1475.191	4695
1477.415	4613
1479.636	4620
1481.858	4681
1484.078	4599
1486.298	4677
1488.518	4527
1490.736	4655
1492.954	4603
1495.169	4629
1497.386	4529
1499.602	4531
1501.819	4626
1504.034	4570
1506.248	4602
1508.462	4520
1510.675	4502
1512.888	4531
1515.1	4420
1517.311	4521
1519.522	4489
1521.732	4490
1523.942	4529
1526.151	4515
1528.36	4543
1530.566	4618
1532.773	4502
1534.98	4601
1537.187	4544
1539.392	4670
1541.596	4576
1543.801	4568
1546.005	4528
1548.208	4614
1550.411	4696
1552.612	4545
1554.814	4693
1557.013	4503
1559.212	4600
1561.414	4641
1563.612	4659
1565.811	4715
1568.007	4614
1570.203	4682
1572.403	4591
1574.598	4706
1576.792	4684
1578.988	4682
1581.181	4665
1583.376	4622
1585.568	4649
1587.761	4684
1589.952	4710
1592.143	4742
1594.333	4683
1596.524	4705
1598.715	4666
1600.903	4707
1603.091	4786
1605.278	4748
1607.466	4697
1609.652	4722
1611.838	4710
1614.023	4766
1616.207	4728
1618.391	4722
1620.576	4787
1622.759	4770
1624.941	4861
1627.123	4656
1629.304	4770
1631.484	4822
1633.664	4691
1635.844	4721
1638.022	4756
1640.201	4833
1642.38	4911
1644.556	4814
1646.732	4798
1648.908	4824
1651.084	4802
1653.257	4867
1655.433	4916
1657.607	4830
1659.779	4917
1661.951	4832
1664.122	4831
1666.295	4870
1668.467	4906
1670.635	4930
1672.805	4867
1674.973	4851
1677.142	4872
1679.31	4975
1681.478	4855
1683.644	4877
1685.81	4845
1687.975	4864
1690.142	4760
1692.305	4817
1694.468	4784
1696.632	4804
1698.794	4879
1700.957	4727
1703.119	4805
1705.279	4702
1707.439	4810
1709.598	4697
1711.758	4779
1713.917	4742
1716.075	4734
1718.231	4687
1720.388	4757
1722.543	4702
1724.702	4699
1726.856	4736
1729.01	4752
1731.164	4704
1733.317	4749
1735.471	4726
1737.623	4629
1739.774	4759
1741.925	4700
1744.075	4701
1746.225	4630
1748.376	4671
1750.524	4741
1752.672	4710
1754.82	4780
1756.965	4709
1759.113	4724
1761.259	4711
1763.405	4762
1765.549	4744
1767.694	4697
1769.836	4783
1771.981	4797
1774.123	4757
1776.264	4722
1778.405	4709
1780.546	4864
1782.687	4661
1784.827	4676
1786.966	4817
1789.103	4758
1791.242	4820
1793.381	4842
1795.517	4802
1797.653	4730
1799.788	4925
1801.923	4688
1804.057	4703
1806.193	4709
1808.326	4667
1810.457	4837
1812.59	4735
1814.721	4810
1816.855	4729
1818.984	4820
1821.113	4742
1823.244	4741
1825.372	4769
1827.499	4766
1829.63	4693
1831.756	4710
1833.882	4828
1836.007	4726
1838.132	4690
1840.26	4748
1842.384	4790
1844.507	4710
1846.63	4717
1848.752	4681
1850.875	4679
1852.996	4761
1855.118	4779
1857.238	4726
1859.358	4835
1861.477	4696
1863.597	4646
1865.715	4692
1867.832	4778
1869.948	4742
1872.064	4779
1874.181	4770
1876.297	4780
1878.411	4854
1880.526	4750
1882.639	4697
1884.752	4761
1886.865	4773
1888.977	4736
1891.089	4882
1893.2	4727
1895.308	4710
1897.42	4824
1899.53	4815
1901.639	4819
1903.745	4840
1905.853	4839
1907.962	4761
1910.067	4845
1912.174	4727
1914.278	4795
1916.383	4811
1918.486	4905
1920.592	4808
1922.694	4839
1924.797	4819
1926.898	4920
1929	4911
1931.102	4880
1933.203	4764
1935.301	4773
1937.401	4823
1939.499	4833
1941.598	4819
1943.697	4894
1945.793	4808
1947.888	4870
1949.985	4779
1952.08	4839
1954.176	4887
1956.269	4830
1958.364	4889
1960.457	4865
1962.549	4855
1964.642	4700
1966.733	4855
1968.823	4816
1970.913	4789
1973.005	4752
1975.093	4908
1977.184	4840
1979.271	4848
1981.359	4813
1983.446	4787
1985.532	4821
1987.619	4892
1989.705	4791
1991.789	4779
1993.874	4825
1995.956	4879
1998.041	4839
2000.123	4744
2002.206	4790
2004.287	4774
2006.368	4948
2008.449	4755
2010.529	4773
2012.609	4790
2014.688	4737
2016.766	4911
2018.843	4740
2020.922	4684
2022.999	4780
2025.074	4820
2027.15	4834
2029.225	4790
2031.299	4824
2033.375	4808
2035.447	4926
2037.52	4725
2039.592	4731
2041.664	4914
2043.736	4780
2045.807	4750
2047.876	4807
2049.947	4772
2052.015	4787
2054.086	4887
2056.153	4786
2058.221	4806
2060.288	4897
2062.353	4805
2064.42	4822
2066.486	4731
2068.55	4810
2070.614	4746
2072.678	4824
2074.741	4732
2076.805	4693
2078.866	4874
2080.929	4816
2082.99	4833
2085.049	4868
2087.109	4788
2089.17	4778
2091.228	4797
2093.286	4853
2095.344	4786
2097.4	4895
2099.46	4799
2101.516	4868
2103.572	4723
2105.626	4763
2107.679	4791
2109.735	4857
2111.788	4813
2113.841	4873
2115.894	4813
2117.945	4758
2119.997	4709
2122.049	4748
2124.1	4806
2126.148	4715
2128.197	4790
2130.246	4869
2132.296	4774
2134.342	4824
2136.39	4743
2138.437	4776
2140.483	4866
2142.527	4816
2144.574	4782
2146.619	4770
2148.661	4751
2150.705	4754
2152.747	4754
2154.792	4777
2156.832	4814
2158.874	4786
2160.915	4758
2162.954	4695
2164.995	4753
2167.034	4787
2169.072	4800
2171.111	4846
2173.148	4811
2175.186	4695
2177.223	4735
2179.258	4733
2181.294	4837
2183.328	4692
2185.362	4782
2187.398	4689
2189.431	4629
2191.463	4771
2193.495	4803
2195.528	4801
2197.56	4731
2199.59	4687
2201.62	4598
2203.649	4817
2205.678	4709
2207.708	4759
2209.737	4754
2211.764	4776
2213.791	4554
2215.817	4687
2217.843	4771
2219.87	4736
2221.895	4649
2223.919	4709
2225.942	4759
2227.966	4740
2229.988	4746
2232.012	4686
2234.032	4665
2236.054	4781
2238.074	4709
2240.095	4731
2242.116	4720
2244.135	4707
2246.153	4736
2248.171	4715
2250.188	4713
2252.208	4723
2254.223	4776
2256.239	4739
2258.255	4718
2260.269	4743
2262.283	4777
2264.3	4648
2266.312	4749
2268.325	4737
2270.336	4687
2272.349	4748
2274.362	4711
2276.372	4630
2278.383	4762
2280.392	4634
2282.402	4678
2284.409	4751
2286.418	4682
2288.427	4653
2290.433	4719
2292.441	4701
2294.446	4636
2296.453	4698
2298.459	4745
2300.463	4725
2302.466	4668
2304.471	4654
2306.475	4683
2308.477	4722
2310.478	4653
2312.481	4770
2314.481	4651
2316.481	4753
2318.482	4688
2320.482	4670
2322.48	4648
2324.48	4635
2326.478	4649
2328.476	4592
2330.473	4704
2332.469	4625
2334.465	4636
2336.46	4602
2338.454	4669
2340.45	4686
2342.444	4616
2344.437	4611
2346.43	4738
2348.421	4658
2350.414	4575
2352.405	4556
2354.396	4693
2356.386	4638
2358.376	4651
2360.366	4677
2362.355	4691
2364.343	4619
2366.331	4670
2368.317	4635
2370.304	4556
2372.292	4500
2374.278	4548
2376.262	4707
2378.247	4571
2380.23	4570
2382.216	4659
2384.199	4584
2386.181	4629
2388.163	4630
2390.144	4544
2392.127	4639
2394.107	4576
2396.087	4568
2398.066	4594
2400.046	4637
2402.023	4596
2404.004	4555
2405.981	4568
2407.957	4598
2409.934	4562
2411.91	4569
2413.886	4575
2415.862	4549
2417.836	4582
2419.809	4635
2421.784	4548
2423.756	4570
2425.73	4530
2427.701	4544
2429.672	4624
2431.644	4597
2433.615	4550
2435.586	4617
2437.555	4582
2439.523	4579
2441.491	4488
2443.459	4602
2445.428	4607
2447.395	4511
2449.361	4571
2451.327	4623
2453.292	4552
2455.257	4563
2457.223	4542
2459.187	4566
2461.15	4498
2463.113	4561
2465.076	4578
2467.039	4546
2468.999	4456
2470.96	4512
2472.921	4517
2474.881	4573
2476.841	4580
2478.8	4555
2480.759	4560
2482.717	4511
2484.675	4505
2486.63	4570
2488.589	4530
2490.545	4516
2492.5	4466
2494.455	4512
2496.408	4558
2498.364	4522
2500.318	4533
2502.27	4489
2504.223	4508
2506.174	4575
2508.126	4579
2510.078	4466
2512.03	4431
2513.979	4565
2515.927	4493
2517.877	4568
2519.826	4521
2521.775	4496
2523.722	4492
2525.668	4601
2527.616	4443
2529.561	4553
2531.508	4572
2533.452	4432
2535.398	4540
2537.342	4471
2539.284	4507
2541.229	4481
2543.173	4465
2545.114	4541
2547.055	4530
2548.996	4506
2550.938	4487
2552.878	4643
2554.817	4545
2556.756	4533
2558.695	4494
2560.633	4470
2562.572	4506
2564.509	4511
2566.445	4488
2568.382	4623
2570.317	4524
2572.254	4514
2574.189	4507
2576.123	4448
2578.057	4520
2579.99	4566
2581.923	4555
2583.855	4492
2585.788	4546
2587.719	4405
2589.65	4510
2591.579	4497
2593.511	4503
2595.44	4562
2597.37	4561
2599.297	4527
2601.225	4489
2603.153	4488
2605.08	4400
2607.007	4575
2608.932	4544
2610.858	4446
2612.782	4480
2614.709	4523
2616.632	4461
2618.556	4527
2620.478	4502
2622.401	4538
2624.324	4553
2626.247	4502
2628.167	4521
2630.088	4573
2632.008	4480
2633.928	4571
2635.848	4504
2637.766	4525
2639.684	4483
2641.603	4553
2643.519	4578
2645.437	4534
2647.353	4541
2649.27	4498
2651.184	4556
2653.099	4543
2655.014	4484
2656.928	4527
2658.842	4513
2660.755	4534
2662.667	4608
2664.579	4411
2666.491	4518
2668.402	4541
2670.312	4468
2672.222	4564
2674.132	4503
2676.042	4568
2677.951	4530
2679.859	4466
2681.766	4471
2683.674	4496
2685.582	4511
2687.488	4468
2689.392	4457
2691.298	4484
2693.202	4479
2695.107	4525
2697.012	4487
2698.914	4471
2700.817	4479
2702.72	4561
2704.622	4406
2706.524	4484
2708.425	4419
2710.326	4426
2712.225	4446
2714.125	4385
2716.024	4409
2717.923	4455
2719.822	4445
2721.719	4446
2723.616	4463
2725.512	4452
2727.41	4472
2729.305	4471
2731.201	4418
2733.095	4520
2734.99	4559
2736.884	4442
2738.778	4519
2740.67	4493
2742.562	4394
2744.455	4488
2746.346	4474
2748.238	4422
2750.129	4476
2752.018	4396
2753.907	4422
2755.797	4409
2757.687	4405
2759.575	4518
2761.462	4457
2763.349	4435
2765.237	4481
2767.124	4498
2769.009	4419
2770.894	4454
2772.779	4513
2774.663	4483
2776.547	4519
2778.431	4398
2780.314	4485
2782.197	4508
2784.078	4395
2785.96	4480
2787.842	4427
2789.723	4436
2791.603	4446
2793.483	4381
2795.362	4589
2797.241	4452
2799.121	4360
2800.997	4373
2802.874	4375
2804.751	4500
2806.628	4341
2808.506	4374
2810.38	4482
2812.255	4438
2814.13	4488
2816.003	4433
2817.878	4467
2819.752	4463
2821.623	4480
2823.496	4358
2825.368	4408
2827.238	4372
2829.111	4487
2830.98	4503
2832.851	4420
2834.719	4498
2836.589	4423
2838.458	4294
2840.327	4440
2842.193	4380
2844.061	4576
2845.927	4428
2847.794	4393
2849.66	4540
2851.525	4444
2853.39	4484
2855.254	4554
2857.117	4542
2858.983	4475
2860.845	4550
2862.707	4577
2864.569	4677
2866.431	4502
2868.293	4674
2870.154	4559
2872.013	4814
2873.873	4697
2875.733	4729
2877.592	4643
2879.451	4743
2881.309	4822
2883.166	4808
2885.022	4906
2886.879	4893
2888.736	4825
2890.591	4964
2892.446	4887
2894.301	4865
2896.155	4842
2898.009	4777
2899.863	4917
2901.716	4791
2903.568	4889
2905.419	4852
2907.27	4835
2909.123	4913
2910.973	4763
2912.824	4961
2914.673	4945
2916.521	5011
2918.372	4947
2920.22	4990
2922.067	5043
2923.914	5196
2925.761	5170
2927.607	5268
2929.455	5165
2931.301	5237
2933.144	5277
2934.99	5271
2936.833	5467
2938.678	5456
2940.522	5427
2942.364	5472
2944.207	5489
2946.048	5597
2947.891	5607
2949.731	5499
2951.571	5532
2953.412	5564
2955.25	5549
2957.09	5416
2958.93	5267
2960.767	5425
2962.606	5276
2964.443	5215
2966.279	5293
2968.116	5196
2969.953	5133
2971.788	5130
2973.623	5061
2975.457	5060
2977.292	5004
2979.127	5012
2980.959	5011
2982.792	4913
2984.624	4952
2986.455	4956
2988.288	4927
2990.119	4995
2991.949	4919
2993.779	4853
2995.608	4781
2997.439	4772
2999.268	4727
3001.096	4651
3002.923	4623
3004.751	4692
3006.578	4649
3008.406	4585
3010.232	4632
3012.057	4586
3013.883	4585
3015.706	4539
3017.532	4489
3019.356	4420
3021.179	4484
3023.002	4521
3024.823	4396
3026.646	4445
3028.469	4352
3030.289	4398
3032.11	4309
3033.93	4449
3035.749	4281
3037.57	4347
3039.39	4328
3041.207	4352
3043.026	4411
3044.842	4282
3046.661	4280
3048.477	4405
3050.294	4224
3052.109	4319
3053.925	4338
3055.739	4181
3057.555	4288
3059.368	4361
3061.181	4278
3062.995	4312
3064.807	4379
3066.62	4208
3068.433	4380
3070.243	4244
3072.054	4326
3073.865	4346
3075.675	4374
3077.485	4292
3079.293	4211
3081.102	4302
3082.911	4269
3084.719	4247
3086.527	4228
3088.333	4231
3090.139	4231
3091.945	4148
3093.75	4223
3095.557	4275
3097.361	4205
3099.165	4241
3100.969	4149
3102.772	4178
3104.575	4161
3106.379	4169
3108.181	4220
3109.982	4170
3111.783	4221
3113.584	4185
3115.386	4196
3117.186	4209
3118.985	4263
3120.783	4168
3122.582	4168
3124.381	4115
3126.179	4109
3127.975	4107
3129.772	4165
3131.569	4161
3133.365	4187
3135.161	4183
3136.956	4123
3138.751	4172
3140.544	4111
3142.338	4158
3144.132	4213
3145.925	4195
3147.717	4243
3149.509	4154
3151.301	4124
3153.091	4107
3154.884	4125
3156.673	4192
3158.462	4236
3160.252	4106
3162.041	4180
3163.831	4151
3165.618	4021
3167.405	4199
3169.193	4065
3170.979	4137
3172.767	4078
3174.553	4058
3176.338	4122
3178.123	4150
3179.907	4135
3181.692	4099
3183.477	4138
3185.259	4055
3187.042	4079
3188.824	4113
3190.607	4078
3192.389	4150
3194.17	4121
3195.951	4163
3197.73	4080
3199.51	4119
3201.289	4075
3203.07	4107
3204.848	4136
3206.626	4047
3208.403	4119
3210.18	4062
3211.959	4176
3213.735	4122
3215.511	4102
3217.285	4099
3219.06	4128
3220.836	4115
3222.611	4016
3224.384	4079
3226.158	4107
3227.929	4103
3229.702	4150
3231.476	4055
3233.248	4083
3235.018	4119
3236.789	4152
3238.56	4119
3240.33	4218
3242.1	4087
3243.869	4114
3245.637	4239
3247.405	4098
3249.172	4178
3250.941	4181
3252.707	4132
3254.474	4109
3256.24	4188
3258.006	4155
3259.772	4094
3261.537	4208
3263.301	4108
3265.065	4150
3266.828	4140
3268.592	4124
3270.355	4226
3272.117	4137
3273.878	4148
3275.64	4110
3277.401	4062
3279.162	4068
3280.922	4144
3282.682	4124
3284.441	4123
3286.199	4140
3287.959	4208
3289.716	4162
3291.475	4208
3293.232	4146
3294.988	4127
3296.744	4228
3298.501	4107
3300.256	4090
3302.011	4190
3303.766	4149
3305.52	4134
3307.275	4133
3309.028	4240
3310.781	4210
3312.533	4168
3314.285	4252
3316.038	4231
3317.789	4167
3319.54	4179
3321.289	4174
3323.039	4163
3324.789	4193
3326.539	4048
3328.288	4165
3330.035	4226
3331.783	4062
3333.531	4162
3335.28	4209
3337.025	4124
3338.771	4168
3340.518	4126
3342.262	4266
3344.009	4115
3345.753	4165
3347.497	4138
3349.24	4144
3350.983	4085
3352.726	4065
3354.469	4075
3356.212	4105
3357.952	4039
3359.694	4135
3361.434	4240
3363.176	4154
3364.916	4124
3366.654	4190
3368.394	4184
3370.132	4052
3371.871	4099
3373.61	4118
3375.346	4185
3377.083	4061
3378.82	4103
3380.556	4149
3382.292	4112
3384.027	4088
3385.763	4070
3387.497	4081
3389.231	4114
3390.965	4122
3392.698	4121
3394.431	4030
3396.164	4055
3397.896	4141
3399.627	4054
3401.36	4143
3403.09	4086
3404.82	4096
3406.55	4059
3408.279	4095
3410.01	4066
3411.738	4071
3413.467	4073
3415.194	4086
3416.92	3970
3418.647	4090
3420.375	4035
3422.102	4096
3423.827	3956
3425.553	4121
3427.277	3983
3429.003	3987
3430.727	4005
3432.451	3994
3434.173	4050
3435.896	3944
3437.62	3995
3439.343	4046
3441.063	4064
3442.785	3951
3444.505	4024
3446.226	3950
3447.948	4009
3449.666	4044
3451.386	3958
3453.104	3997
3454.823	4031
3456.541	3997
3458.259	3984
3459.976	3976
3461.693	3919
3463.408	4019
3465.125	3953
3466.841	4005
3468.556	3968
3470.271	3965
3471.985	3928
3473.698	3946
3475.414	3954
3477.126	3875
3478.838	4004
3480.55	3864
3482.263	3937
3483.975	3903
3485.686	4024
3487.396	3891
3489.106	3957
3490.817	3914
3492.526	3931
3494.236	3933
3495.944	3866
3497.652	3948
3499.359	3867
3501.066	3926
3502.775	3830
3504.481	3871
3506.187	3848
3507.893	3890
3509.598	3810
3511.304	3857
3513.009	3840
3514.713	3917
3516.417	3871
3518.12	3848
3519.821	3808
3521.525	3889
3523.228	3815
3524.929	3872
3526.631	3855
3528.33	3776
3530.032	3819
3531.733	3871
3533.433	3916
3535.131	3903
3536.83	3869
3538.529	3794
3540.227	3794
3541.925	3865
3543.623	3800
3545.319	3794
3547.016	3766
3548.712	3850
3550.408	3773
3552.103	3906
3553.798	3801
3555.491	3798
3557.188	3826
3558.88	3806
3560.574	3692
3562.266	3819
3563.959	3731
3565.651	3783
3567.343	3827
3569.035	3731
3570.725	3805
3572.415	3728
3574.106	3759
3575.797	3786
3577.485	3850
3579.174	3770
3580.863	3784
3582.551	3844
3584.238	3911
3585.926	3731
3587.613	3793
3589.3	3709
3590.986	3795
3592.671	3700
3594.357	3682
3596.042	3751
3597.726	3777
3599.41	3763
3601.094	3765
3602.778	3703
3604.461	3712
3606.143	3642
3607.825	3647
3609.507	3586
3611.188	3780
3612.87	3675
3614.551	3755
3616.229	3722
3617.909	3608
3619.589	3694
3621.269	3763
3622.948	3660
3624.625	3646
3626.302	3691
3627.98	3603
3629.657	3660
3631.334	3718
3633.01	3707
3634.686	3709
3636.361	3662
3638.036	3652
3639.712	3578
3641.385	3711
3643.06	3657
3644.732	3596
3646.405	3670
3648.08	3717
3649.751	3576
3651.424	3546
3653.094	3600
3654.766	3615
3656.436	3723
3658.106	3653
3659.777	3569
3661.446	3645
3663.115	3613
3664.783	3607
3666.452	3483
3668.121	3627
3669.788	3652
3671.454	3634
3673.121	3564
3674.789	3594
3676.455	3608
3678.12	3597
3679.784	3624
3681.45	3601
3683.114	3600
3684.779	3499
3686.442	3576
3688.105	3574
3689.768	3550
3691.43	3575
3693.093	3526
3694.754	3639
3696.415	3627
3698.076	3631
3699.736	3575
3701.396	3576
3703.057	3567
3704.716	3558
3706.375	3560
3708.034	3578
3709.692	3576
3711.351	3598
3713.008	3542
3714.665	3606
3716.321	3592
3717.977	3558
3719.634	3622
3721.29	3621
3722.945	3543
3724.598	3592
3726.253	3582
3727.907	3580
3729.561	3568
3731.214	3530
3732.867	3556
3734.518	3603
3736.171	3564
3737.824	3521
3739.474	3475
3741.125	3630
3742.775	3530
3744.425	3534
3746.074	3648
3747.725	3535
3749.373	3546
3751.022	3554
3752.669	3509
3754.318	3520
3755.966	3547
3757.612	3493
3759.259	3569
3760.905	3461
3762.55	3517
3764.197	3536
3765.842	3476
3767.486	3513
3769.131	3534
3770.774	3492
3772.417	3511
3774.061	3640
3775.705	3547
3777.347	3465
3778.988	3545
3780.629	3537
3782.271	3424
3783.912	3531
3785.552	3586
3787.192	3510
3788.831	3585
3790.472	3534
3792.112	3572
3793.75	3441
3795.388	3488
3797.024	3445
3798.661	3468
3800.3	3511
3801.936	3483
3803.572	3513
3805.208	3508
3806.844	3476
3808.48	3523
3810.115	3530
3811.748	3500
3813.382	3477
3815.016	3506
3816.649	3509
3818.283	3458
3819.914	3432
3821.547	3500
3823.178	3406
3824.809	3513
3826.441	3505
3828.072	3559
3829.701	3452
3831.331	3449
3832.96	3498
3834.591	3512
3836.219	3446
3837.847	3497
3839.475	3414
3841.102	3558
3842.729	3479
3844.357	3450
3845.984	3480
3847.609	3512
3849.234	3447
3850.86	3449
3852.485	3479
3854.11	3404
3855.734	3425
3857.357	3472
3858.981	3484
3860.603	3583
3862.227	3497
3863.848	3499
3865.471	3535
3867.092	3427
3868.713	3398
3870.334	3458
3871.954	3498
3873.575	3405
3875.194	3480
3876.813	3494
3878.433	3422
3880.051	3459
3881.669	3419
3883.286	3480
3884.904	3422
3886.52	3500
3888.138	3512
3889.754	3463
3891.37	3519
3892.985	3541
3894.6	3507
3896.216	3462
3897.831	3477
3899.444	3475
3901.058	3554
3902.67	3490
3904.283	3450
3905.897	3509
3907.509	3478
3909.121	3389
3910.731	3450
3912.342	3461
3913.954	3466
3915.563	3447
3917.174	3446
3918.783	3454
3920.391	3513
3922.002	3516
3923.611	3417
3925.218	3450
3926.826	3505
3928.432	3437
3930.039	3513
3931.647	3439
3933.253	3395
3934.859	3455
3936.464	3334
3938.068	3407
3939.675	3495
3941.278	3384
3942.883	3393
3944.486	3514
3946.089	3512
3947.692	3411
3949.295	3412
3950.898	3508
3952.499	3459
3954.1	3473
3955.7	3416
3957.303	3437
3958.903	3400
3960.502	3431
3962.101	3389
3963.7	3416
3965.301	3442
3966.899	3502
3968.497	3480
3970.094	3456
3971.691	3420
3973.288	3492
3974.885	3477
3976.481	3382
3978.077	3438
3979.672	3440
3981.267	3374
3982.863	3441
3984.457	3455
3986.051	3395
3987.645	3373
3989.238	3440
3990.831	3421
3992.425	3397
3994.017	3408
3995.607	3430
3997.199	3399
3998.79	3397
4000.382	3433
4001.973	3320
4003.561	3459
4005.151	3359
4006.741	3307
4008.331	3359
4009.918	3402
4011.507	3395
4013.095	3334
4014.681	3328
4016.269	3338
4017.856	3411
4019.443	3291
4021.028	3331
4022.614	3321
4024.199	3361
4025.785	3322
4027.37	3328
4028.953	3380
4030.536	3424
4032.12	3360
4033.704	3333
4035.287	3346
4036.869	3356
4038.45	3425
4040.032	3352
4041.613	3384
4043.195	3362
4044.776	3356
4046.356	3374
4047.935	3373
4049.515	3366
4051.095	3329
4052.674	3358
4054.251	3398
4055.829	3350
4057.406	3357
4058.985	3339
4060.562	3312
4062.139	3319
4063.715	3319
4065.29	3370
4066.865	3333
4068.442	3361
4070.016	3317
4071.59	3300
4073.164	3325
4074.738	3400
4076.312	3340
4077.885	3278
4079.458	3332
4081.03	3381
4082.602	3340
4084.173	3376
4085.745	3363
4087.315	3394
4088.886	3378
4090.456	3312
4092.026	3337
4093.596	3346
4095.165	3337
4096.734	3265
4098.301	3284
4099.869	3335
4101.437	3292
4103.006	3281
4104.572	3314
4106.139	3301
4107.704	3318
4109.27	3311
4110.837	3308
4112.401	3360
4113.966	3393
4115.53	3341
4117.094	3320
4118.659	3410
4120.223	3328
4121.785	3309
4123.347	3311
4124.909	3242
4126.471	3308
4128.034	3389
4129.595	3243
4131.155	3257
4132.716	3354
4134.275	3223
4135.836	3372
4137.395	3361
4138.955	3294
4140.513	3339
4142.071	3315
4143.628	3315
4145.188	3293
4146.745	3269
4148.302	3260
4149.858	3218
4151.414	3302
4152.971	3298
4154.526	3352
4156.081	3302
4157.635	3317
4159.189	3212
4160.745	3277
4162.298	3204
4163.852	3226
4165.405	3273
4166.957	3235
4168.51	3262
4170.063	3242
4171.614	3245
4173.166	3310
4174.717	3304
4176.267	3306
4177.817	3345
4179.368	3289
4180.917	3294
4182.466	3240
4184.016	3279
4185.564	3308
4187.112	3354
4188.66	3305
4190.207	3321
4191.754	3213
4193.301	3210
4194.848	3230
4196.394	3320
4197.94	3267
4199.484	3293
4201.03	3244
4202.575	3304
4204.12	3272
4205.663	3348
4207.207	3151
4208.75	3234
4210.292	3249
4211.836	3341
4213.378	3352
4214.92	3196
4216.46	3238
4218.002	3241
4219.544	3184
4221.083	3250
4222.625	3294
4224.164	3403
4225.703	3198
4227.244	3313
4228.782	3274
4230.32	3279
4231.857	3266
4233.395	3228
4234.933	3267
4236.471	3234
4238.007	3308
4239.542	3356
4241.078	3252
4242.614	3296
4244.15	3292
4245.685	3290
4247.219	3207
4248.753	3254
4250.287	3265
4251.82	3290
4253.354	3227
4254.887	3321
4256.419	3266
4257.951	3270
4259.483	3280
4261.016	3340
4262.547	3285
4264.078	3310
4265.608	3209
4267.137	3316
4268.668	3284
4270.197	3295
4271.727	3189
4273.254	3263
4274.783	3244
4276.311	3332
4277.84	3207
4279.366	3290
4280.894	3170
4282.42	3217
4283.946	3264
4285.473	3276
4286.998	3314
4288.523	3218
4290.047	3228
4291.572	3280
4293.096	3275
4294.622	3205
4296.144	3290
4297.668	3213
4299.19	3292
4300.713	3244
4302.236	3318
4303.758	3223
4305.279	3200
4306.799	3219
4308.321	3275
4309.842	3263
4311.361	3188
4312.882	3259
4314.401	3205
