400.0961	2358
402.6185	2365
405.1424	2325
407.6635	2425
410.1838	2401
412.7035	2396
415.2225	2368
417.7388	2424
420.2585	2444
422.7754	2516
425.2917	2500
427.8072	2545
430.3221	2564
432.8363	2614
435.3498	2551
437.8626	2576
440.3727	2570
442.8841	2517
445.3969	2467
447.907	2529
450.4142	2565
452.9229	2470
455.4289	2586
457.9362	2561
460.4449	2563
462.9488	2551
465.454	2513
467.9566	2424
470.4604	2493
472.9637	2487
475.4662	2538
477.966	2469
480.4671	2490
482.9656	2445
485.4633	2422
487.9645	2447
490.4608	2544
492.9566	2535
495.4536	2472
497.948	2537
500.4437	2466
502.9387	2484
505.431	2541
507.9226	2470
510.4136	2552
512.9079	2507
515.3975	2543
517.8864	2531
520.3746	2497
522.8622	2561
525.3491	2517
527.8394	2473
530.3249	2492
532.8098	2581
535.2939	2564
537.7774	2541
540.2623	2430
542.7444	2594
545.2259	2523
547.7067	2524
550.1868	2547
552.6683	2572
555.147	2570
557.6231	2564
560.1005	2615
562.5773	2574
565.0534	2550
567.5308	2620
570.0056	2615
572.4776	2604
574.951	2627
577.4237	2661
579.8978	2654
582.3671	2701
584.8378	2688
587.3079	2698
589.7773	2742
592.244	2639
594.714	2707
597.1793	2654
599.6461	2663
602.1121	2654
604.5754	2612
607.0421	2615
609.5042	2623
611.9675	2679
614.4282	2642
616.8902	2633
619.3515	2680
621.8122	2670
624.2702	2554
626.7296	2558
629.1863	2549
631.6423	2549
634.1017	2581
636.5563	2601
639.0104	2633
641.4658	2578
643.9185	2603
646.3725	2577
648.8239	2572
651.2766	2537
653.7266	2662
656.176	2609
658.6247	2537
661.0748	2594
663.5242	2618
665.9709	2598
668.417	2632
670.8624	2599
673.3092	2679
675.7533	2657
678.1968	2654
680.6395	2598
683.0817	2647
685.5251	2663
687.9659	2665
690.4061	2665
692.8456	2691
695.2844	2737
697.7226	2656
700.1621	2685
702.599	2700
705.0332	2690
707.4688	2688
709.9036	2637
712.3399	2704
714.7735	2770
717.2044	2699
719.6367	2768
722.0683	2756
724.4993	2608
726.9296	2657
729.3593	2789
731.7883	2718
734.2147	2771
736.6423	2828
739.0714	2770
741.4958	2751
743.9216	2816
746.3447	2756
748.7691	2755
751.1929	2753
753.616	2790
756.0366	2829
758.4584	2814
760.8776	2771
763.2982	2754
765.718	2812
768.1373	2785
770.5539	2798
772.9698	2806
775.3871	2909
777.8038	2863
780.2178	2916
782.6332	2766
785.0459	2845
787.458	2815
789.8714	2868
792.2842	2801
794.6943	2809
797.1038	2866
799.5127	2817
801.9209	2780
804.3324	2809
806.7393	2822
809.1456	2884
811.5513	2857
813.9562	2908
816.3625	2942
818.7663	2893
821.1693	2919
823.5718	2999
825.9735	2842
828.3746	2844
830.7771	2872
833.177	2876
835.5762	2910
837.9747	2956
840.3727	2995
842.772	2855
845.1666	2956
847.5626	2972
849.958	2955
852.3527	2969
854.7488	2897
857.1403	2907
859.5331	3004
861.9253	2968
864.3168	2995
866.7057	2978
869.098	2948
871.4876	2992
873.8746	3014
876.263	3000
878.6487	2996
881.0378	2957
883.4243	3020
885.8081	2975
888.1933	2965
890.5759	2931
892.9598	2967
895.343	2920
897.7256	2941
900.1057	2902
902.4871	2973
904.8659	2973
907.246	2946
909.6254	3004
912.0023	3049
914.3786	3055
916.7562	3084
919.1331	3134
921.5074	3126
923.8831	3111
926.2562	3146
928.6287	3186
931.0005	3146
933.3757	3192
935.7462	3252
938.1162	3302
940.4855	3280
942.8542	3328
945.2242	3410
947.5916	3552
949.9584	3721
952.3266	3784
954.6921	4083
957.0571	4249
959.4233	4495
961.787	4563
964.15	4487
966.5125	4295
968.8742	4057
971.2354	3714
973.5959	3575
975.9559	3499
978.3151	3269
980.6738	3156
983.0338	3135
985.3912	3157
987.7461	3052
990.1022	3176
992.4578	3082
994.8127	3063
997.1689	3117
999.5207	3115
1001.874	3083
1004.226	3148
1006.576	3045
1008.929	3106
1011.28	3138
1013.628	3108
1015.977	3168
1018.324	3097
1020.674	3163
1023.019	3143
1025.366	3240
1027.713	3110
1030.056	3124
1032.399	3210
1034.746	3115
1037.087	3133
1039.431	3163
1041.771	3227
1044.113	3220
1046.454	3201
1048.793	3230
1051.133	3270
1053.471	3177
1055.807	3211
1058.146	3157
1060.483	3235
1062.818	3272
1065.153	3315
1067.489	3233
1069.822	3356
1072.156	3317
1074.488	3224
1076.82	3285
1079.15	3270
1081.48	3270
1083.814	3222
1086.143	3317
1088.471	3214
1090.799	3207
1093.126	3151
1095.452	3265
1097.78	3177
1100.105	3225
1102.43	3148
1104.754	3125
1107.077	3104
1109.4	3154
1111.722	3169
1114.044	3177
1116.365	3124
1118.685	3175
1121.005	3184
1123.324	3170
1125.643	3129
1127.961	3189
1130.278	3265
1132.595	3169
1134.911	3158
1137.226	3136
1139.541	3118
1141.854	3175
1144.167	3137
1146.482	3223
1148.793	3136
1151.105	3186
1153.414	3223
1155.725	3067
1158.033	3125
1160.344	3172
1162.651	3094
1164.959	3140
1167.265	3189
1169.572	3188
1171.878	3167
1174.184	3172
1176.488	3117
1178.79	3122
1181.094	3128
1183.396	3193
1185.699	3131
1188.001	3183
1190.301	3123
1192.6	3204
1194.9	3141
1197.2	3159
1199.497	3155
1201.794	3190
1204.09	3073
1206.387	3230
1208.684	3158
1210.978	3124
1213.272	3179
1215.565	3132
1217.858	3177
1220.15	3100
1222.443	3177
1224.734	3209
1227.024	3221
1229.313	3167
1231.602	3276
1233.892	3294
1236.18	3267
1238.467	3286
1240.754	3271
1243.04	3230
1245.325	3288
1247.612	3375
1249.896	3404
1252.178	3265
1254.461	3280
1256.743	3353
1259.027	3329
1261.308	3346
1263.587	3325
1265.867	3363
1268.146	3388
1270.425	3417
1272.703	3383
1274.981	3267
1277.256	3366
1279.532	3297
1281.808	3300
1284.083	3308
1286.358	3355
1288.63	3277
1290.904	3240
1293.175	3238
1295.449	3281
1297.719	3319
1299.99	3356
1302.259	3303
1304.529	3274
1306.798	3257
1309.065	3232
1311.333	3224
1313.599	3254
1315.866	3251
1318.131	3229
1320.396	3235
1322.66	3264
1324.925	3313
1327.187	3324
1329.448	3308
1331.711	3312
1333.974	3254
1336.234	3308
1338.493	3198
1340.752	3297
1343.01	3258
1345.269	3271
1347.526	3334
1349.784	3252
1352.04	3189
1354.295	3305
1356.552	3213
1358.806	3307
1361.059	3228
1363.312	3248
1365.564	3265
1367.818	3322
1370.069	3333
1372.318	3263
1374.568	3306
1376.817	3320
1379.066	3288
1381.316	3293
1383.564	3383
1385.809	3356
1388.056	3373
1390.301	3317
1392.549	3355
1394.793	3397
1397.036	3319
1399.279	3357
1401.522	3408
1403.763	3531
1406.007	3435
1408.248	3433
1410.487	3373
1412.727	3433
1414.965	3422
1417.205	3441
1419.442	3442
1421.68	3420
1423.915	3464
1426.152	3420
1428.388	3412
1430.623	3402
1432.857	3425
1435.091	3420
1437.323	3450
1439.556	3422
1441.789	3506
1444.019	3389
1446.25	3556
1448.48	3538
1450.708	3446
1452.938	3546
1455.167	3502
1457.394	3514
1459.62	3524
1461.846	3488
1464.073	3435
1466.299	3499
1468.523	3424
1470.746	3456
1472.969	3515
1475.191	3459
1477.415	3398
1479.636	3368
1481.858	3254
1484.078	3315
1486.298	3265
1488.518	3305
1490.736	3281
1492.954	3342
1495.169	3262
1497.386	3329
1499.602	3269
1501.819	3297
1504.034	3264
1506.248	3344
1508.462	3231
1510.675	3297
1512.888	3195
1515.1	3301
1517.311	3225
1519.522	3248
1521.732	3231
1523.942	3303
1526.151	3311
1528.36	3232
1530.566	3255
1532.773	3323
1534.98	3284
1537.187	3326
1539.392	3284
1541.596	3382
1543.801	3265
1546.005	3226
1548.208	3261
1550.411	3312
1552.612	3277
1554.814	3301
1557.013	3312
1559.212	3324
1561.414	3322
1563.612	3261
1565.811	3359
1568.007	3354
1570.203	3409
1572.403	3279
1574.598	3316
1576.792	3270
1578.988	3375
1581.181	3343
1583.376	3380
1585.568	3337
1587.761	3489
1589.952	3481
1592.143	3402
1594.333	3386
1596.524	3287
1598.715	3374
1600.903	3397
1603.091	3350
1605.278	3412
1607.466	3364
1609.652	3498
1611.838	3328
1614.023	3467
1616.207	3479
1618.391	3325
1620.576	3481
1622.759	3401
1624.941	3500
1627.123	3462
1629.304	3399
1631.484	3469
1633.664	3436
1635.844	3515
1638.022	3472
1640.201	3479
1642.38	3442
1644.556	3464
1646.732	3493
1648.908	3443
1651.084	3476
1653.257	3515
1655.433	3536
1657.607	3542
1659.779	3454
1661.951	3477
1664.122	3495
1666.295	3575
1668.467	3534
1670.635	3622
1672.805	3487
1674.973	3499
1677.142	3489
1679.31	3533
1681.478	3484
1683.644	3567
1685.81	3468
1687.975	3477
1690.142	3527
1692.305	3487
1694.468	3550
1696.632	3475
1698.794	3391
1700.957	3415
1703.119	3498
1705.279	3390
1707.439	3426
1709.598	3363
1711.758	3420
1713.917	3428
1716.075	3406
1718.231	3388
1720.388	3436
1722.543	3389
1724.702	3435
1726.856	3363
1729.01	3353
1731.164	3326
1733.317	3369
1735.471	3339
1737.623	3393
1739.774	3366
1741.925	3386
1744.075	3400
1746.225	3384
1748.376	3365
1750.524	3434
1752.672	3337
1754.82	3376
1756.965	3383
1759.113	3346
1761.259	3419
1763.405	3445
1765.549	3404
1767.694	3432
1769.836	3413
1771.981	3382
1774.123	3380
1776.264	3381
1778.405	3454
1780.546	3426
1782.687	3406
1784.827	3407
1786.966	3396
1789.103	3437
1791.242	3454
1793.381	3385
1795.517	3409
1797.653	3412
1799.788	3405
1801.923	3377
1804.057	3397
1806.193	3419
1808.326	3430
1810.457	3482
1812.59	3412
1814.721	3427
1816.855	3450
1818.984	3456
1821.113	3436
1823.244	3424
1825.372	3449
1827.499	3431
1829.63	3406
1831.756	3381
1833.882	3392
1836.007	3443
1838.132	3374
1840.26	3418
1842.384	3402
1844.507	3398
1846.63	3369
1848.752	3310
1850.875	3322
1852.996	3358
1855.118	3362
1857.238	3393
1859.358	3414
1861.477	3317
1863.597	3368
1865.715	3312
1867.832	3427
1869.948	3399
1872.064	3396
1874.181	3401
1876.297	3308
1878.411	3403
1880.526	3306
1882.639	3405
1884.752	3331
1886.865	3412
1888.977	3438
1891.089	3441
1893.2	3414
1895.308	3489
1897.42	3420
1899.53	3429
1901.639	3425
1903.745	3484
1905.853	3527
1907.962	3420
1910.067	3459
1912.174	3449
1914.278	3458
1916.383	3448
1918.486	3377
1920.592	3445
1922.694	3482
1924.797	3427
1926.898	3485
1929	3437
1931.102	3463
1933.203	3470
1935.301	3442
1937.401	3493
1939.499	3452
1941.598	3482
1943.697	3413
1945.793	3603
1947.888	3454
1949.985	3472
1952.08	3494
1954.176	3473
1956.269	3488
1958.364	3449
1960.457	3421
1962.549	3485
1964.642	3415
1966.733	3441
1968.823	3487
1970.913	3490
1973.005	3467
1975.093	3461
1977.184	3452
1979.271	3407
1981.359	3418
1983.446	3455
1985.532	3425
1987.619	3489
1989.705	3440
1991.789	3415
1993.874	3411
1995.956	3369
1998.041	3484
2000.123	3385
2002.206	3440
2004.287	3427
2006.368	3471
2008.449	3408
2010.529	3386
2012.609	3463
2014.688	3469
2016.766	3454
2018.843	3412
2020.922	3467
2022.999	3489
2025.074	3355
2027.15	3408
2029.225	3410
2031.299	3437
2033.375	3423
2035.447	3390
2037.52	3481
2039.592	3437
2041.664	3465
2043.736	3435
2045.807	3462
2047.876	3485
2049.947	3429
2052.015	3414
2054.086	3458
2056.153	3405
2058.221	3439
2060.288	3401
2062.353	3430
2064.42	3391
2066.486	3478
2068.55	3510
2070.614	3469
2072.678	3466
2074.741	3469
2076.805	3435
2078.866	3422
2080.929	3433
2082.99	3486
2085.049	3428
2087.109	3403
2089.17	3388
2091.228	3434
2093.286	3403
2095.344	3483
2097.4	3454
2099.46	3383
2101.516	3492
2103.572	3457
2105.626	3493
2107.679	3478
2109.735	3540
2111.788	3458
2113.841	3512
2115.894	3472
2117.945	3476
2119.997	3412
2122.049	3322
2124.1	3447
2126.148	3458
2128.197	3448
2130.246	3433
2132.296	3359
2134.342	3523
2136.39	3525
2138.437	3419
2140.483	3398
2142.527	3436
2144.574	3484
2146.619	3424
2148.661	3478
2150.705	3450
2152.747	3407
2154.792	3325
2156.832	3495
2158.874	3483
2160.915	3457
2162.954	3461
2164.995	3451
2167.034	3393
2169.072	3419
2171.111	3446
2173.148	3429
2175.186	3415
2177.223	3438
2179.258	3465
2181.294	3480
2183.328	3485
2185.362	3399
2187.398	3392
2189.431	3420
2191.463	3363
2193.495	3385
2195.528	3333
2197.56	3475
2199.59	3354
2201.62	3441
2203.649	3409
2205.678	3402
2207.708	3351
2209.737	3429
2211.764	3377
2213.791	3397
2215.817	3361
2217.843	3401
2219.87	3415
2221.895	3447
2223.919	3362
2225.942	3357
2227.966	3403
2229.988	3396
2232.012	3375
2234.032	3402
2236.054	3422
2238.074	3400
2240.095	3424
2242.116	3464
2244.135	3407
2246.153	3403
2248.171	3344
2250.188	3373
2252.208	3376
2254.223	3428
2256.239	3319
2258.255	3352
2260.269	3349
2262.283	3375
2264.3	3369
2266.312	3348
2268.325	3414
2270.336	3404
2272.349	3407
2274.362	3398
2276.372	3321
2278.383	3363
2280.392	3360
2282.402	3407
2284.409	3375
2286.418	3441
2288.427	3335
2290.433	3363
2292.441	3416
2294.446	3404
2296.453	3378
2298.459	3273
2300.463	3381
2302.466	3359
2304.471	3341
2306.475	3327
2308.477	3328
2310.478	3363
2312.481	3426
2314.481	3392
2316.481	3355
2318.482	3377
2320.482	3378
2322.48	3320
2324.48	3269
2326.478	3406
2328.476	3314
2330.473	3349
2332.469	3269
2334.465	3342
2336.46	3359
2338.454	3350
2340.45	3446
2342.444	3375
2344.437	3328
2346.43	3302
2348.421	3329
2350.414	3303
2352.405	3285
2354.396	3291
2356.386	3317
2358.376	3196
2360.366	3272
2362.355	3341
2364.343	3372
2366.331	3352
2368.317	3339
2370.304	3236
2372.292	3352
2374.278	3355
2376.262	3323
2378.247	3401
2380.23	3267
2382.216	3380
2384.199	3270
2386.181	3343
2388.163	3311
2390.144	3281
2392.127	3343
2394.107	3265
2396.087	3303
2398.066	3240
2400.046	3319
2402.023	3334
2404.004	3258
2405.981	3310
2407.957	3394
2409.934	3212
2411.91	3245
2413.886	3179
2415.862	3348
2417.836	3322
2419.809	3339
2421.784	3332
2423.756	3297
2425.73	3291
2427.701	3294
2429.672	3231
2431.644	3323
2433.615	3259
2435.586	3320
2437.555	3300
2439.523	3278
2441.491	3221
2443.459	3269
2445.428	3321
2447.395	3259
2449.361	3246
2451.327	3284
2453.292	3360
2455.257	3310
2457.223	3298
2459.187	3381
2461.15	3250
2463.113	3305
2465.076	3181
2467.039	3254
2468.999	3228
2470.96	3268
2472.921	3215
2474.881	3290
2476.841	3267
2478.8	3217
2480.759	3322
2482.717	3250
2484.675	3253
2486.63	3209
2488.589	3232
2490.545	3315
2492.5	3243
2494.455	3294
2496.408	3316
2498.364	3276
2500.318	3245
2502.27	3238
2504.223	3269
2506.174	3347
2508.126	3172
2510.078	3260
2512.03	3249
2513.979	3307
2515.927	3225
2517.877	3188
2519.826	3195
2521.775	3286
2523.722	3179
2525.668	3214
2527.616	3245
2529.561	3206
2531.508	3270
2533.452	3292
2535.398	3322
2537.342	3211
2539.284	3240
2541.229	3263
2543.173	3239
2545.114	3255
2547.055	3236
2548.996	3220
2550.938	3233
2552.878	3229
2554.817	3248
2556.756	3237
2558.695	3278
2560.633	3234
2562.572	3218
2564.509	3258
2566.445	3225
2568.382	3256
2570.317	3182
2572.254	3189
2574.189	3240
2576.123	3237
2578.057	3228
2579.99	3223
2581.923	3184
2583.855	3238
2585.788	3248
2587.719	3260
2589.65	3282
2591.579	3228
2593.511	3255
2595.44	3385
2597.37	3229
2599.297	3209
2601.225	3298
2603.153	3287
2605.08	3264
2607.007	3179
2608.932	3193
2610.858	3307
2612.782	3267
2614.709	3306
2616.632	3296
2618.556	3282
2620.478	3205
2622.401	3261
2624.324	3389
2626.247	3182
2628.167	3282
2630.088	3271
2632.008	3297
2633.928	3270
2635.848	3271
2637.766	3163
2639.684	3290
2641.603	3159
2643.519	3285
2645.437	3254
2647.353	3244
2649.27	3246
2651.184	3257
2653.099	3240
2655.014	3277
2656.928	3262
2658.842	3261
2660.755	3285
2662.667	3385
2664.579	3207
2666.491	3345
2668.402	3308
2670.312	3219
2672.222	3216
2674.132	3294
2676.042	3285
2677.951	3322
2679.859	3193
2681.766	3280
2683.674	3223
2685.582	3300
2687.488	3296
2689.392	3214
2691.298	3237
2693.202	3263
2695.107	3266
2697.012	3222
2698.914	3190
2700.817	3228
2702.72	3231
2704.622	3227
2706.524	3298
2708.425	3182
2710.326	3227
2712.225	3200
2714.125	3215
2716.024	3204
2717.923	3198
2719.822	3159
2721.719	3210
2723.616	3234
2725.512	3263
2727.41	3283
2729.305	3298
2731.201	3261
2733.095	3288
2734.99	3252
2736.884	3183
2738.778	3233
2740.67	3222
2742.562	3230
2744.455	3172
2746.346	3195
2748.238	3186
2750.129	3207
2752.018	3206
2753.907	3298
2755.797	3277
2757.687	3207
2759.575	3230
2761.462	3202
2763.349	3204
2765.237	3242
2767.124	3275
2769.009	3320
2770.894	3215
2772.779	3209
2774.663	3245
2776.547	3297
2778.431	3256
2780.314	3241
2782.197	3269
2784.078	3201
2785.96	3174
2787.842	3207
2789.723	3211
2791.603	3214
2793.483	3211
2795.362	3186
2797.241	3212
2799.121	3181
2800.997	3137
2802.874	3254
2804.751	3251
2806.628	3158
2808.506	3167
2810.38	3181
2812.255	3243
2814.13	3226
2816.003	3201
2817.878	3199
2819.752	3156
2821.623	3157
2823.496	3241
2825.368	3239
2827.238	3232
2829.111	3222
2830.98	3239
2832.851	3173
2834.719	3265
2836.589	3204
2838.458	3198
2840.327	3212
2842.193	3201
2844.061	3291
2845.927	3243
2847.794	3188
2849.66	3221
2851.525	3246
2853.39	3243
2855.254	3301
2857.117	3315
2858.983	3337
2860.845	3287
2862.707	3285
2864.569	3412
2866.431	3358
2868.293	3386
2870.154	3472
2872.013	3365
2873.873	3451
2875.733	3577
2877.592	3613
2879.451	3598
2881.309	3571
2883.166	3619
2885.022	3710
2886.879	3730
2888.736	3626
2890.591	3658
2892.446	3692
2894.301	3698
2896.155	3640
2898.009	3636
2899.863	3706
2901.716	3638
2903.568	3698
2905.419	3667
2907.27	3665
2909.123	3630
2910.973	3735
2912.824	3717
2914.673	3749
2916.521	3844
2918.372	3812
2920.22	3820
2922.067	3959
2923.914	3928
2925.761	3966
2927.607	4025
2929.455	4018
2931.301	4134
2933.144	4111
2934.99	4226
2936.833	4218
2938.678	4187
2940.522	4242
2942.364	4354
2944.207	4337
2946.048	4338
2947.891	4445
2949.731	4399
2951.571	4397
2953.412	4513
2955.25	4302
2957.09	4207
2958.93	4220
2960.767	4217
2962.606	4161
2964.443	4126
2966.279	4011
2968.116	3993
2969.953	3967
2971.788	3982
2973.623	3833
2975.457	3851
2977.292	3863
2979.127	3820
2980.959	3826
2982.792	3915
2984.624	3753
2986.455	3784
2988.288	3718
2990.119	3782
2991.949	3660
2993.779	3645
2995.608	3662
2997.439	3633
2999.268	3685
3001.096	3668
3002.923	3556
3004.751	3473
3006.578	3509
3008.406	3431
3010.232	3424
3012.057	3391
3013.883	3360
3015.706	3324
3017.532	3248
3019.356	3299
3021.179	3220
3023.002	3295
3024.823	3231
3026.646	3125
3028.469	3247
3030.289	3233
3032.11	3285
3033.93	3199
3035.749	3153
3037.57	3048
3039.39	3143
3041.207	3126
3043.026	3125
3044.842	3185
3046.661	3095
3048.477	3162
3050.294	3161
3052.109	3167
3053.925	3092
3055.739	3062
3057.555	3161
3059.368	3128
3061.181	3150
3062.995	3185
3064.807	3099
3066.62	3071
3068.433	3076
3070.243	3109
3072.054	3134
3073.865	3140
3075.675	3062
3077.485	3126
3079.293	3090
3081.102	3111
3082.911	3147
3084.719	3140
3086.527	3082
3088.333	3064
3090.139	3111
3091.945	3074
3093.75	3087
3095.557	2966
3097.361	3076
3099.165	3100
3100.969	3009
3102.772	3008
3104.575	3003
3106.379	3058
3108.181	3077
3109.982	3035
3111.783	3010
3113.584	3057
3115.386	3024
3117.186	3028
3118.985	3046
3120.783	3064
3122.582	2989
3124.381	3015
3126.179	2958
3127.975	3030
3129.772	2998
3131.569	3044
3133.365	2989
3135.161	3017
3136.956	3014
3138.751	2947
3140.544	3048
3142.338	3013
3144.132	2935
3145.925	2941
3147.717	3014
3149.509	3018
3151.301	3042
3153.091	2924
3154.884	2999
3156.673	2943
3158.462	2955
3160.252	3003
3162.041	2968
3163.831	3018
3165.618	2975
3167.405	2980
3169.193	2969
3170.979	2943
3172.767	3052
3174.553	2992
3176.338	2939
3178.123	3042
3179.907	2937
3181.692	3015
3183.477	2952
3185.259	2975
3187.042	2959
3188.824	2991
3190.607	3009
3192.389	2974
3194.17	2969
3195.951	3011
3197.73	2938
3199.51	3014
3201.289	2966
3203.07	3041
3204.848	2983
3206.626	3011
3208.403	3005
3210.18	2888
3211.959	2990
3213.735	2949
3215.511	2997
3217.285	2988
3219.06	2908
3220.836	2969
3222.611	2952
3224.384	2975
3226.158	3028
3227.929	2984
3229.702	2963
3231.476	2900
3233.248	2961
3235.018	3007
3236.789	3024
3238.56	3033
3240.33	2980
3242.1	3035
3243.869	3034
3245.637	3007
3247.405	2973
3249.172	2996
3250.941	2993
3252.707	2949
3254.474	3011
3256.24	2993
3258.006	2950
3259.772	3011
3261.537	3046
3263.301	3043
3265.065	3018
3266.828	3019
3268.592	2994
3270.355	3061
3272.117	3041
3273.878	2997
3275.64	2926
3277.401	2970
3279.162	3074
3280.922	2999
3282.682	3037
3284.441	3013
3286.199	3051
3287.959	3001
3289.716	2969
3291.475	2955
3293.232	3032
3294.988	3084
3296.744	3061
3298.501	3007
3300.256	3044
3302.011	2971
3303.766	2988
3305.52	3019
3307.275	2988
3309.028	3008
3310.781	3018
3312.533	3055
3314.285	3053
3316.038	3036
3317.789	3061
3319.54	3010
3321.289	3008
3323.039	2989
3324.789	3069
3326.539	2998
3328.288	2945
3330.035	2982
3331.783	3017
3333.531	3023
3335.28	2990
3337.025	3025
3338.771	3038
3340.518	2946
3342.262	2929
3344.009	3022
3345.753	2998
3347.497	2984
3349.24	2978
3350.983	2942
3352.726	3001
3354.469	2969
3356.212	2937
3357.952	2967
3359.694	2989
3361.434	2952
3363.176	2953
3364.916	2950
3366.654	2952
3368.394	3005
3370.132	2967
3371.871	2973
3373.61	2919
3375.346	2898
3377.083	2929
3378.82	2978
3380.556	2872
3382.292	2903
3384.027	2872
3385.763	2928
3387.497	2873
3389.231	2928
3390.965	2871
3392.698	2920
3394.431	2914
3396.164	2849
3397.896	2890
3399.627	2894
3401.36	2850
3403.09	2927
3404.82	2898
3406.55	2932
3408.279	2949
3410.01	2929
3411.738	2892
3413.467	2813
3415.194	2833
3416.92	2865
3418.647	2887
3420.375	2852
3422.102	2820
3423.827	2918
3425.553	2927
3427.277	2838
3429.003	2817
3430.727	2822
3432.451	2908
3434.173	2847
3435.896	2797
3437.62	2871
3439.343	2842
3441.063	2864
3442.785	2780
3444.505	2836
3446.226	2773
3447.948	2859
3449.666	2858
3451.386	2886
3453.104	2783
3454.823	2829
3456.541	2827
3458.259	2776
3459.976	2801
3461.693	2785
3463.408	2774
3465.125	2827
3466.841	2747
3468.556	2712
3470.271	2782
3471.985	2762
3473.698	2767
3475.414	2830
3477.126	2760
3478.838	2756
3480.55	2668
3482.263	2741
3483.975	2668
3485.686	2752
3487.396	2730
3489.106	2694
3490.817	2731
3492.526	2701
3494.236	2645
3495.944	2713
3497.652	2667
3499.359	2665
3501.066	2719
3502.775	2672
3504.481	2721
3506.187	2710
3507.893	2649
3509.598	2703
3511.304	2713
3513.009	2622
3514.713	2676
3516.417	2615
3518.12	2655
3519.821	2708
3521.525	2662
3523.228	2638
3524.929	2606
3526.631	2573
3528.33	2623
3530.032	2642
3531.733	2658
3533.433	2656
3535.131	2690
3536.83	2643
3538.529	2637
3540.227	2671
3541.925	2610
3543.623	2592
3545.319	2647
3547.016	2635
3548.712	2588
3550.408	2563
3552.103	2658
3553.798	2620
3555.491	2624
3557.188	2574
3558.88	2598
3560.574	2636
3562.266	2563
3563.959	2593
3565.651	2588
3567.343	2587
3569.035	2521
3570.725	2603
3572.415	2561
3574.106	2571
3575.797	2596
3577.485	2545
3579.174	2529
3580.863	2583
3582.551	2559
3584.238	2524
3585.926	2571
3587.613	2531
3589.3	2565
3590.986	2499
3592.671	2512
3594.357	2492
3596.042	2502
3597.726	2478
3599.41	2517
3601.094	2557
3602.778	2526
3604.461	2504
3606.143	2425
3607.825	2545
3609.507	2456
3611.188	2461
3612.87	2426
3614.551	2441
3616.229	2427
3617.909	2461
3619.589	2474
3621.269	2477
3622.948	2427
3624.625	2436
3626.302	2443
3627.98	2440
3629.657	2403
3631.334	2431
3633.01	2422
3634.686	2375
3636.361	2417
3638.036	2445
3639.712	2453
3641.385	2495
3643.06	2433
3644.732	2415
3646.405	2391
3648.08	2346
3649.751	2332
3651.424	2360
3653.094	2382
3654.766	2362
3656.436	2330
3658.106	2348
3659.777	2406
3661.446	2328
3663.115	2309
3664.783	2354
3666.452	2315
3668.121	2369
3669.788	2317
3671.454	2346
3673.121	2371
3674.789	2398
3676.455	2352
3678.12	2350
3679.784	2308
3681.45	2336
3683.114	2363
3684.779	2366
3686.442	2376
3688.105	2367
3689.768	2277
3691.43	2363
3693.093	2303
3694.754	2320
3696.415	2394
3698.076	2281
3699.736	2384
3701.396	2312
3703.057	2333
3704.716	2319
3706.375	2354
3708.034	2327
3709.692	2329
3711.351	2286
3713.008	2348
3714.665	2288
3716.321	2292
3717.977	2274
3719.634	2329
3721.29	2261
3722.945	2325
3724.598	2251
3726.253	2338
3727.907	2282
3729.561	2289
3731.214	2226
3732.867	2307
3734.518	2291
3736.171	2374
3737.824	2312
3739.474	2259
3741.125	2269
3742.775	2235
3744.425	2231
3746.074	2296
3747.725	2324
3749.373	2260
3751.022	2277
3752.669	2224
3754.318	2240
3755.966	2284
3757.612	2196
3759.259	2278
3760.905	2265
3762.55	2251
3764.197	2278
3765.842	2249
3767.486	2193
3769.131	2254
3770.774	2236
3772.417	2257
3774.061	2242
3775.705	2196
3777.347	2263
3778.988	2225
3780.629	2225
3782.271	2196
3783.912	2262
3785.552	2178
3787.192	2215
3788.831	2200
3790.472	2202
3792.112	2194
3793.75	2205
3795.388	2193
3797.024	2198
3798.661	2195
3800.3	2214
3801.936	2211
3803.572	2240
3805.208	2152
3806.844	2212
3808.48	2235
3810.115	2179
3811.748	2216
3813.382	2173
3815.016	2234
3816.649	2171
3818.283	2212
3819.914	2205
3821.547	2158
3823.178	2147
3824.809	2163
3826.441	2163
3828.072	2171
3829.701	2147
3831.331	2194
3832.96	2142
3834.591	2116
3836.219	2195
3837.847	2121
3839.475	2178
3841.102	2082
3842.729	2163
3844.357	2141
3845.984	2193
3847.609	2159
3849.234	2119
3850.86	2140
3852.485	2085
3854.11	2092
3855.734	2138
3857.357	2146
3858.981	2207
3860.603	2124
3862.227	2138
3863.848	2124
3865.471	2172
3867.092	2174
3868.713	2129
3870.334	2137
3871.954	2108
3873.575	2139
3875.194	2158
3876.813	2064
3878.433	2114
3880.051	2039
3881.669	2121
3883.286	2106
3884.904	2114
3886.52	2146
3888.138	2101
3889.754	2052
3891.37	2126
3892.985	2131
3894.6	2076
3896.216	2124
3897.831	2107
3899.444	2148
3901.058	2065
3902.67	2076
3904.283	2095
3905.897	2047
3907.509	2132
3909.121	2090
3910.731	2073
3912.342	2138
3913.954	2083
3915.563	2093
3917.174	2081
3918.783	2046
3920.391	2140
3922.002	2117
3923.611	2120
3925.218	2107
3926.826	2096
3928.432	2098
3930.039	2128
3931.647	2079
3933.253	2120
3934.859	2105
3936.464	2074
3938.068	2075
3939.675	2091
3941.278	2068
3942.883	2127
3944.486	2079
3946.089	2059
3947.692	2080
3949.295	2102
3950.898	2050
3952.499	2044
3954.1	2092
3955.7	2089
3957.303	2068
3958.903	2037
3960.502	2049
3962.101	2068
3963.7	2093
3965.301	2022
3966.899	2063
3968.497	2078
3970.094	2076
3971.691	2008
3973.288	2065
3974.885	2073
3976.481	2028
3978.077	2025
3979.672	2003
3981.267	2017
3982.863	2019
3984.457	2014
3986.051	2083
3987.645	2064
3989.238	1981
3990.831	2046
3992.425	1993
3994.017	1966
3995.607	2022
3997.199	1970
3998.79	1986
4000.382	1974
4001.973	1960
4003.561	2056
4005.151	2006
4006.741	1980
4008.331	1922
4009.918	2025
4011.507	1980
4013.095	1967
4014.681	1955
4016.269	1990
4017.856	1974
4019.443	1978
4021.028	1926
4022.614	1986
4024.199	2010
4025.785	1959
4027.37	2030
4028.953	1903
4030.536	1918
4032.12	1964
4033.704	1967
4035.287	1959
4036.869	1929
4038.45	2000
4040.032	1985
4041.613	1949
4043.195	1950
4044.776	1983
4046.356	1977
4047.935	1929
4049.515	1972
4051.095	1943
4052.674	1951
4054.251	1938
4055.829	1920
4057.406	1924
4058.985	1903
4060.562	1916
4062.139	1940
4063.715	1961
4065.29	1936
4066.865	1999
4068.442	1909
4070.016	1861
4071.59	1919
4073.164	1942
4074.738	1941
4076.312	1888
4077.885	1894
4079.458	1956
4081.03	1916
4082.602	1903
4084.173	1941
4085.745	1939
4087.315	1917
4088.886	1915
4090.456	1918
4092.026	1942
4093.596	1893
4095.165	1884
4096.734	1845
4098.301	1894
4099.869	1886
4101.437	1894
4103.006	1887
4104.572	1898
4106.139	1907
4107.704	1934
4109.27	1878
4110.837	1859
4112.401	1892
4113.966	1866
4115.53	1927
4117.094	1864
4118.659	1915
4120.223	1883
4121.785	1881
4123.347	1910
4124.909	1905
4126.471	1887
4128.034	1916
4129.595	1825
4131.155	1827
4132.716	1889
4134.275	1885
4135.836	1898
4137.395	1816
4138.955	1798
4140.513	1825
4142.071	1906
4143.628	1841
4145.188	1838
4146.745	1822
4148.302	1841
4149.858	1852
4151.414	1824
4152.971	1843
4154.526	1822
4156.081	1814
4157.635	1821
4159.189	1832
4160.745	1790
4162.298	1816
4163.852	1804
4165.405	1793
4166.957	1806
4168.51	1839
4170.063	1838
4171.614	1812
4173.166	1822
4174.717	1818
4176.267	1775
4177.817	1809
4179.368	1794
4180.917	1790
4182.466	1778
4184.016	1819
4185.564	1818
4187.112	1819
4188.66	1796
4190.207	1719
4191.754	1788
4193.301	1825
4194.848	1771
4196.394	1811
4197.94	1775
4199.484	1794
4201.03	1813
4202.575	1782
4204.12	1762
4205.663	1763
4207.207	1784
4208.75	1790
4210.292	1794
4211.836	1773
4213.378	1776
4214.92	1773
4216.46	1754
4218.002	1752
4219.544	1703
4221.083	1751
4222.625	1718
4224.164	1807
4225.703	1792
4227.244	1754
4228.782	1831
4230.32	1775
4231.857	1743
4233.395	1736
4234.933	1762
4236.471	1746
4238.007	1730
4239.542	1760
4241.078	1757
4242.614	1803
4244.15	1783
4245.685	1713
4247.219	1728
4248.753	1731
4250.287	1742
4251.82	1716
4253.354	1748
4254.887	1735
4256.419	1710
4257.951	1752
4259.483	1733
4261.016	1712
4262.547	1739
4264.078	1746
4265.608	1769
4267.137	1737
4268.668	1754
4270.197	1737
4271.727	1732
4273.254	1784
4274.783	1725
4276.311	1752
4277.84	1790
4279.366	1712
4280.894	1734
4282.42	1725
4283.946	1755
4285.473	1727
4286.998	1732
4288.523	1696
4290.047	1668
4291.572	1695
4293.096	1724
4294.622	1666
4296.144	1659
4297.668	1712
4299.19	1692
4300.713	1715
4302.236	1695
4303.758	1730
4305.279	1687
4306.799	1685
4308.321	1667
4309.842	1708
4311.361	1681
4312.882	1674
4314.401	1733
