400.0961	2712
402.6185	2744
405.1424	2714
407.6635	2805
410.1838	2785
412.7035	2816
415.2225	2852
417.7388	2878
420.2585	2915
422.7754	2924
425.2917	2950
427.8072	2963
430.3221	3053
432.8363	3033
435.3498	3037
437.8626	2989
440.3727	2966
442.8841	3020
445.3969	2950
447.907	2973
450.4142	2999
452.9229	2954
455.4289	2957
457.9362	2880
460.4449	3017
462.9488	2901
465.454	3004
467.9566	2909
470.4604	3005
472.9637	2881
475.4662	2957
477.966	2953
480.4671	2991
482.9656	2921
485.4633	2942
487.9645	2923
490.4608	2959
492.9566	2950
495.4536	2901
497.948	2947
500.4437	2980
502.9387	2964
505.431	3046
507.9226	3035
510.4136	3034
512.9079	2919
515.3975	2969
517.8864	3019
520.3746	2995
522.8622	2994
525.3491	3009
527.8394	3103
530.3249	3023
532.8098	3030
535.2939	3007
537.7774	2952
540.2623	3062
542.7444	3064
545.2259	3116
547.7067	3035
550.1868	3107
552.6683	3009
555.147	3031
557.6231	3076
560.1005	2981
562.5773	3039
565.0534	3030
567.5308	3131
570.0056	3004
572.4776	3068
574.951	3127
577.4237	3123
579.8978	3216
582.3671	3245
584.8378	3192
587.3079	3262
589.7773	3186
592.244	3143
594.714	3198
597.1793	3157
599.6461	3170
602.1121	3148
604.5754	3111
607.0421	3067
609.5042	3174
611.9675	3163
614.4282	3170
616.8902	3135
619.3515	3105
621.8122	3162
624.2702	3163
626.7296	3182
629.1863	3065
631.6423	3061
634.1017	3053
636.5563	3140
639.0104	3105
641.4658	3093
643.9185	3054
646.3725	3005
648.8239	3034
651.2766	3072
653.7266	3143
656.176	3118
658.6247	3228
661.0748	3151
663.5242	3151
665.9709	3178
668.417	3131
670.8624	3089
673.3092	3169
675.7533	3128
678.1968	3145
680.6395	3183
683.0817	3214
685.5251	3172
687.9659	3191
690.4061	3213
692.8456	3224
695.2844	3209
697.7226	3262
700.1621	3190
702.599	3207
705.0332	3265
707.4688	3155
709.9036	3216
712.3399	3236
714.7735	3198
717.2044	3225
719.6367	3308
722.0683	3277
724.4993	3303
726.9296	3320
729.3593	3280
731.7883	3217
734.2147	3215
736.6423	3312
739.0714	3323
741.4958	3317
743.9216	3338
746.3447	3402
748.7691	3320
751.1929	3394
753.616	3381
756.0366	3342
758.4584	3478
760.8776	3374
763.2982	3435
765.718	3434
768.1373	3360
770.5539	3439
772.9698	3386
775.3871	3391
777.8038	3426
780.2178	3438
782.6332	3400
785.0459	3437
787.458	3367
789.8714	3446
792.2842	3440
794.6943	3341
797.1038	3362
799.5127	3460
801.9209	3384
804.3324	3310
806.7393	3432
809.1456	3388
811.5513	3595
813.9562	3425
816.3625	3444
818.7663	3441
821.1693	3465
823.5718	3510
825.9735	3421
828.3746	3487
830.7771	3402
833.177	3449
835.5762	3455
837.9747	3496
840.3727	3419
842.772	3471
845.1666	3523
847.5626	3576
849.958	3614
852.3527	3608
854.7488	3541
857.1403	3601
859.5331	3600
861.9253	3634
864.3168	3631
866.7057	3544
869.098	3563
871.4876	3566
873.8746	3621
876.263	3613
878.6487	3550
881.0378	3559
883.4243	3574
885.8081	3544
888.1933	3516
890.5759	3627
892.9598	3605
895.343	3525
897.7256	3556
900.1057	3505
902.4871	3617
904.8659	3581
907.246	3507
909.6254	3593
912.0023	3651
914.3786	3579
916.7562	3706
919.1331	3723
921.5074	3693
923.8831	3835
926.2562	3811
928.6287	3846
931.0005	3857
933.3757	3853
935.7462	3821
938.1162	3891
940.4855	3922
942.8542	3968
945.2242	4079
947.5916	4169
949.9584	4205
952.3266	4385
954.6921	4673
957.0571	4841
959.4233	5113
961.787	5147
964.15	5173
966.5125	5014
968.8742	4688
971.2354	4401
973.5959	4188
975.9559	4027
978.3151	3863
980.6738	3815
983.0338	3725
985.3912	3740
987.7461	3724
990.1022	3748
992.4578	3711
994.8127	3716
997.1689	3726
999.5207	3698
1001.874	3762
1004.226	3775
1006.576	3774
1008.929	3731
1011.28	3793
1013.628	3749
1015.977	3685
1018.324	3694
1020.674	3727
1023.019	3820
1025.366	3767
1027.713	3827
1030.056	3762
1032.399	3880
1034.746	3772
1037.087	3883
1039.431	3740
1041.771	3850
1044.113	3775
1046.454	3797
1048.793	3837
1051.133	3830
1053.471	3788
1055.807	3854
1058.146	3836
1060.483	3801
1062.818	3784
1065.153	3864
1067.489	3956
1069.822	3928
1072.156	3939
1074.488	3932
1076.82	3925
1079.15	3929
1081.48	3936
1083.814	3822
1086.143	3863
1088.471	3874
1090.799	3859
1093.126	3739
1095.452	3822
1097.78	3803
1100.105	3841
1102.43	3878
1104.754	3787
1107.077	3825
1109.4	3798
1111.722	3755
1114.044	3806
1116.365	3804
1118.685	3641
1121.005	3772
1123.324	3847
1125.643	3780
1127.961	3797
1130.278	3892
1132.595	3750
1134.911	3780
1137.226	3688
1139.541	3745
1141.854	3762
1144.167	3855
1146.482	3857
1148.793	3744
1151.105	3773
1153.414	3835
1155.725	3762
1158.033	3851
1160.344	3842
1162.651	3938
1164.959	3809
1167.265	3799
1169.572	3780
1171.878	3759
1174.184	3879
1176.488	3829
1178.79	3864
1181.094	3789
1183.396	3818
1185.699	3846
1188.001	3827
1190.301	3732
1192.6	3706
1194.9	3764
1197.2	3834
1199.497	3779
1201.794	3841
1204.09	3777
1206.387	3794
1208.684	3861
1210.978	3845
1213.272	3813
1215.565	3784
1217.858	3884
1220.15	3854
1222.443	3877
1224.734	3801
1227.024	3821
1229.313	3894
1231.602	3954
1233.892	3956
1236.18	3952
1238.467	3978
1240.754	3964
1243.04	4022
1245.325	3979
1247.612	4048
1249.896	4067
1252.178	4057
1254.461	4052
1256.743	3979
1259.027	3993
1261.308	4005
1263.587	4011
1265.867	4135
1268.146	4038
1270.425	4090
1272.703	4046
1274.981	4054
1277.256	3984
1279.532	3987
1281.808	4003
1284.083	3972
1286.358	4002
1288.63	3952
1290.904	4076
1293.175	3938
1295.449	3952
1297.719	3934
1299.99	3908
1302.259	3950
1304.529	3930
1306.798	3984
1309.065	3874
1311.333	3955
1313.599	3984
1315.866	3934
1318.131	3887
1320.396	3974
1322.66	3886
1324.925	4033
1327.187	3980
1329.448	3983
1331.711	4031
1333.974	3963
1336.234	3915
1338.493	3983
1340.752	4028
1343.01	3987
1345.269	3912
1347.526	3988
1349.784	3913
1352.04	3956
1354.295	3919
1356.552	3960
1358.806	3963
1361.059	3937
1363.312	3918
1365.564	3939
1367.818	4004
1370.069	3947
1372.318	3942
1374.568	3925
1376.817	4005
1379.066	3903
1381.316	4003
1383.564	4077
1385.809	4044
1388.056	4104
1390.301	4030
1392.549	4068
1394.793	4028
1397.036	4114
1399.279	4174
1401.522	4155
1403.763	4149
1406.007	4163
1408.248	4166
1410.487	4130
1412.727	4088
1414.965	4141
1417.205	4018
1419.442	4215
1421.68	4107
1423.915	4153
1426.152	4129
1428.388	4117
1430.623	4225
1432.857	4113
1435.091	4162
1437.323	4190
1439.556	4203
1441.789	4203
1444.019	4191
1446.25	4161
1448.48	4210
1450.708	4234
1452.938	4312
1455.167	4186
1457.394	4263
1459.62	4268
1461.846	4148
1464.073	4143
1466.299	4229
1468.523	4197
1470.746	4239
1472.969	4140
1475.191	4099
1477.415	4123
1479.636	4093
1481.858	4046
1484.078	4038
1486.298	3973
1488.518	3980
1490.736	4017
1492.954	4041
1495.169	3969
1497.386	4010
1499.602	3989
1501.819	3958
1504.034	4036
1506.248	3941
1508.462	4035
1510.675	4026
1512.888	3974
1515.1	4044
1517.311	4024
1519.522	3927
1521.732	3944
1523.942	3988
1526.151	3969
1528.36	4031
1530.566	3967
1532.773	3956
1534.98	4049
1537.187	3950
1539.392	3961
1541.596	4006
1543.801	3944
1546.005	3931
1548.208	4010
1550.411	4003
1552.612	3985
1554.814	4040
1557.013	4048
1559.212	3980
1561.414	4061
1563.612	3966
1565.811	4040
1568.007	4052
1570.203	4113
1572.403	4023
1574.598	4189
1576.792	4084
1578.988	4162
1581.181	4106
1583.376	4126
1585.568	4065
1587.761	4122
1589.952	4138
1592.143	4073
1594.333	4165
1596.524	4108
1598.715	4066
1600.903	4107
1603.091	4213
1605.278	4032
1607.466	4115
1609.652	4133
1611.838	4170
1614.023	4156
1616.207	4188
1618.391	4108
1620.576	4105
1622.759	4167
1624.941	4180
1627.123	4192
1629.304	4139
1631.484	4159
1633.664	4218
1635.844	4125
1638.022	4158
1640.201	4184
1642.38	4244
1644.556	4157
1646.732	4253
1648.908	4248
1651.084	4257
1653.257	4199
1655.433	4272
1657.607	4230
1659.779	4393
1661.951	4154
1664.122	4267
1666.295	4237
1668.467	4348
1670.635	4256
1672.805	4244
1674.973	4201
1677.142	4325
1679.31	4338
1681.478	4275
1683.644	4312
1685.81	4256
1687.975	4383
1690.142	4258
1692.305	4215
1694.468	4223
1696.632	4172
1698.794	4121
1700.957	4207
1703.119	4139
1705.279	4037
1707.439	4111
1709.598	4128
1711.758	4121
1713.917	4141
1716.075	4137
1718.231	4205
1720.388	4068
1722.543	4111
1724.702	4079
1726.856	4100
1729.01	4071
1731.164	4116
1733.317	4069
1735.471	4094
1737.623	4056
1739.774	4103
1741.925	4187
1744.075	4065
1746.225	4058
1748.376	4086
1750.524	4112
1752.672	4151
1754.82	4138
1756.965	4094
1759.113	4123
1761.259	4114
1763.405	4085
1765.549	4184
1767.694	4150
1769.836	4185
1771.981	4118
1774.123	4099
1776.264	4180
1778.405	4081
1780.546	4165
1782.687	4127
1784.827	4146
1786.966	4152
1789.103	4098
1791.242	4197
1793.381	4124
1795.517	4184
1797.653	4131
1799.788	4081
1801.923	4152
1804.057	4046
1806.193	4157
1808.326	4170
1810.457	4102
1812.59	4057
1814.721	4133
1816.855	4127
1818.984	4168
1821.113	4089
1823.244	4099
1825.372	4169
1827.499	4127
1829.63	4220
1831.756	4069
1833.882	4144
1836.007	4186
1838.132	4148
1840.26	4136
1842.384	4105
1844.507	4195
1846.63	4131
1848.752	4109
1850.875	4132
1852.996	4111
1855.118	4084
1857.238	4162
1859.358	4145
1861.477	4036
1863.597	4169
1865.715	4122
1867.832	4065
1869.948	4196
1872.064	4133
1874.181	4153
1876.297	4005
1878.411	4009
1880.526	4108
1882.639	4042
1884.752	4094
1886.865	4111
1888.977	4180
1891.089	4108
1893.2	4094
1895.308	4153
1897.42	4077
1899.53	4104
1901.639	4184
1903.745	4098
1905.853	4248
1907.962	4160
1910.067	4148
1912.174	4123
1914.278	4078
1916.383	4204
1918.486	4194
1920.592	4066
1922.694	4136
1924.797	4191
1926.898	4115
1929	4137
1931.102	4180
1933.203	4151
1935.301	4145
1937.401	4112
1939.499	4208
1941.598	4189
1943.697	4259
1945.793	4126
1947.888	4156
1949.985	4036
1952.08	4189
1954.176	4237
1956.269	4116
1958.364	4271
1960.457	4167
1962.549	4173
1964.642	4135
1966.733	4120
1968.823	4133
1970.913	4124
1973.005	4243
1975.093	4127
1977.184	4182
1979.271	4196
1981.359	4139
1983.446	4069
1985.532	4245
1987.619	4205
1989.705	4194
1991.789	4108
1993.874	4081
1995.956	4114
1998.041	4085
2000.123	4035
2002.206	4085
2004.287	4129
2006.368	4114
2008.449	4147
2010.529	4147
2012.609	4143
2014.688	4165
2016.766	4116
2018.843	4152
2020.922	4095
2022.999	4088
2025.074	4100
2027.15	4124
2029.225	4157
2031.299	4112
2033.375	4183
2035.447	4182
2037.52	4140
2039.592	4256
2041.664	4117
2043.736	4148
2045.807	4072
2047.876	4052
2049.947	4077
2052.015	4146
2054.086	4083
2056.153	4131
2058.221	4132
2060.288	4237
2062.353	4099
2064.42	4131
2066.486	4121
2068.55	4077
2070.614	4065
2072.678	4088
2074.741	4126
2076.805	4035
2078.866	4150
2080.929	4107
2082.99	4060
2085.049	4100
2087.109	4153
2089.17	4170
2091.228	4175
2093.286	4196
2095.344	4247
2097.4	4107
2099.46	4137
2101.516	4111
2103.572	4094
2105.626	4220
2107.679	4175
2109.735	4068
2111.788	4067
2113.841	4167
2115.894	4091
2117.945	4204
2119.997	4045
2122.049	4196
2124.1	4119
2126.148	4163
2128.197	4126
2130.246	4110
2132.296	4090
2134.342	4094
2136.39	4175
2138.437	4163
2140.483	4101
2142.527	4128
2144.574	4137
2146.619	4102
2148.661	4096
2150.705	4173
2152.747	4052
2154.792	4083
2156.832	4126
2158.874	4057
2160.915	4180
2162.954	4121
2164.995	4085
2167.034	4137
2169.072	4060
2171.111	4113
2173.148	4133
2175.186	4031
2177.223	4139
2179.258	4001
2181.294	4185
2183.328	4171
2185.362	4121
2187.398	4104
2189.431	4114
2191.463	4101
2193.495	4155
2195.528	4045
2197.56	4046
2199.59	4141
2201.62	4036
2203.649	4019
2205.678	4120
2207.708	3981
2209.737	4067
2211.764	3969
2213.791	4029
2215.817	4070
2217.843	3994
2219.87	4068
2221.895	3972
2223.919	3996
2225.942	4124
2227.966	4059
2229.988	4013
2232.012	3947
2234.032	4080
2236.054	4114
2238.074	4091
2240.095	4124
2242.116	4067
2244.135	3997
2246.153	4037
2248.171	4030
2250.188	4005
2252.208	4031
2254.223	4053
2256.239	4126
2258.255	4048
2260.269	4014
2262.283	4046
2264.3	4146
2266.312	4092
2268.325	4077
2270.336	4013
2272.349	4109
2274.362	4053
2276.372	3994
2278.383	4151
2280.392	3970
2282.402	4025
2284.409	4084
2286.418	4014
2288.427	4126
2290.433	4038
2292.441	4016
2294.446	4059
2296.453	4116
2298.459	4011
2300.463	4009
2302.466	4005
2304.471	4028
2306.475	4081
2308.477	4030
2310.478	4110
2312.481	4059
2314.481	4055
2316.481	3987
2318.482	4044
2320.482	4023
2322.48	4012
2324.48	4002
2326.478	3991
2328.476	3992
2330.473	4004
2332.469	4007
2334.465	4056
2336.46	4004
2338.454	4021
2340.45	4049
2342.444	3996
2344.437	4013
2346.43	3996
2348.421	4072
2350.414	3968
2352.405	4040
2354.396	3993
2356.386	3929
2358.376	3937
2360.366	4034
2362.355	3976
2364.343	3907
2366.331	4002
2368.317	3956
2370.304	3940
2372.292	4038
2374.278	3983
2376.262	4043
2378.247	3958
2380.23	4072
2382.216	3935
2384.199	3842
2386.181	3860
2388.163	3946
2390.144	3881
2392.127	3967
2394.107	3936
2396.087	3905
2398.066	3975
2400.046	4092
2402.023	3905
2404.004	3921
2405.981	3976
2407.957	3989
2409.934	3922
2411.91	3955
2413.886	4021
2415.862	3898
2417.836	3942
2419.809	3923
2421.784	3830
2423.756	3958
2425.73	3971
2427.701	3930
2429.672	4001
2431.644	3868
2433.615	3860
2435.586	3949
2437.555	3934
2439.523	3886
2441.491	3913
2443.459	3917
2445.428	3928
2447.395	3963
2449.361	4009
2451.327	3852
2453.292	3863
2455.257	3945
2457.223	3987
2459.187	3929
2461.15	3942
2463.113	3925
2465.076	3959
2467.039	3927
2468.999	3862
2470.96	3922
2472.921	3865
2474.881	3998
2476.841	3932
2478.8	3952
2480.759	3906
2482.717	3920
2484.675	3971
2486.63	3825
2488.589	3896
2490.545	3825
2492.5	3901
2494.455	3788
2496.408	3940
2498.364	3875
2500.318	3910
2502.27	3914
2504.223	3918
2506.174	3856
2508.126	3896
2510.078	3790
2512.03	3888
2513.979	3890
2515.927	3835
2517.877	3919
2519.826	3847
2521.775	3852
2523.722	3834
2525.668	3910
2527.616	3837
2529.561	3899
2531.508	3835
2533.452	3918
2535.398	3931
2537.342	3854
2539.284	3938
2541.229	3894
2543.173	3789
2545.114	3909
2547.055	3878
2548.996	3854
2550.938	3828
2552.878	3921
2554.817	3826
2556.756	3902
2558.695	3803
2560.633	3822
2562.572	3870
2564.509	3907
2566.445	3863
2568.382	3859
2570.317	3828
2572.254	3919
2574.189	3910
2576.123	3974
2578.057	3736
2579.99	3799
2581.923	3939
2583.855	3833
2585.788	3927
2587.719	3842
2589.65	3950
2591.579	3936
2593.511	3853
2595.44	3848
2597.37	3826
2599.297	3890
2601.225	3961
2603.153	3830
2605.08	3892
2607.007	3893
2608.932	3890
2610.858	3879
2612.782	3821
2614.709	3849
2616.632	3871
2618.556	3823
2620.478	3925
2622.401	3861
2624.324	3927
2626.247	3848
2628.167	3880
2630.088	3904
2632.008	3896
2633.928	3871
2635.848	3886
2637.766	3798
2639.684	3850
2641.603	3937
2643.519	3904
2645.437	3848
2647.353	3865
2649.27	3836
2651.184	3927
2653.099	3926
2655.014	3780
2656.928	3862
2658.842	3914
2660.755	3720
2662.667	3873
2664.579	3866
2666.491	3939
2668.402	3967
2670.312	3853
2672.222	3904
2674.132	3888
2676.042	3849
2677.951	3882
2679.859	3913
2681.766	3795
2683.674	3800
2685.582	3827
2687.488	3816
2689.392	3858
2691.298	3713
2693.202	3838
2695.107	3911
2697.012	3862
2698.914	3915
2700.817	3736
2702.72	3838
2704.622	3835
2706.524	3864
2708.425	3844
2710.326	3811
2712.225	3752
2714.125	3758
2716.024	3842
2717.923	3851
2719.822	3850
2721.719	3831
2723.616	3694
2725.512	3887
2727.41	3821
2729.305	3777
2731.201	3844
2733.095	3880
2734.99	3817
2736.884	3837
2738.778	3795
2740.67	3826
2742.562	3794
2744.455	3839
2746.346	3867
2748.238	3841
2750.129	3839
2752.018	3792
2753.907	3752
2755.797	3791
2757.687	3801
2759.575	3818
2761.462	3784
2763.349	3817
2765.237	3759
2767.124	3754
2769.009	3752
2770.894	3804
2772.779	3824
2774.663	3860
2776.547	3843
2778.431	3780
2780.314	3842
2782.197	3815
2784.078	3838
2785.96	3776
2787.842	3812
2789.723	3793
2791.603	3858
2793.483	3709
2795.362	3852
2797.241	3875
2799.121	3873
2800.997	3775
2802.874	3806
2804.751	3777
2806.628	3807
2808.506	3747
2810.38	3724
2812.255	3844
2814.13	3695
2816.003	3936
2817.878	3699
2819.752	3683
2821.623	3796
2823.496	3774
2825.368	3741
2827.238	3782
2829.111	3837
2830.98	3780
2832.851	3701
2834.719	3820
2836.589	3872
2838.458	3773
2840.327	3820
2842.193	3798
2844.061	3825
2845.927	3862
2847.794	3836
2849.66	3881
2851.525	3856
2853.39	3907
2855.254	3894
2857.117	3886
2858.983	3827
2860.845	3966
2862.707	3924
2864.569	3943
2866.431	4027
2868.293	4049
2870.154	3993
2872.013	4063
2873.873	4183
2875.733	4162
2877.592	4163
2879.451	4223
2881.309	4196
2883.166	4295
2885.022	4332
2886.879	4344
2888.736	4274
2890.591	4360
2892.446	4320
2894.301	4350
2896.155	4342
2898.009	4295
2899.863	4347
2901.716	4333
2903.568	4301
2905.419	4313
2907.27	4319
2909.123	4325
2910.973	4436
2912.824	4411
2914.673	4504
2916.521	4411
2918.372	4555
2920.22	4529
2922.067	4565
2923.914	4536
2925.761	4698
2927.607	4627
2929.455	4654
2931.301	4859
2933.144	4832
2934.99	4727
2936.833	4924
2938.678	4825
2940.522	5009
2942.364	4934
2944.207	5031
2946.048	5129
2947.891	5051
2949.731	5103
2951.571	5075
2953.412	5070
2955.25	4975
2957.09	4988
2958.93	4889
2960.767	4920
2962.606	4734
2964.443	4876
2966.279	4718
2968.116	4732
2969.953	4690
2971.788	4652
2973.623	4506
2975.457	4537
2977.292	4404
2979.127	4461
2980.959	4382
2982.792	4390
2984.624	4316
2986.455	4370
2988.288	4308
2990.119	4426
2991.949	4308
2993.779	4337
2995.608	4217
2997.439	4198
2999.268	4226
3001.096	4082
3002.923	4133
3004.751	4070
3006.578	4103
3008.406	3998
3010.232	3954
3012.057	3922
3013.883	3956
3015.706	3863
3017.532	3878
3019.356	3780
3021.179	3792
3023.002	3852
3024.823	3703
3026.646	3803
3028.469	3735
3030.289	3785
3032.11	3747
3033.93	3743
3035.749	3710
3037.57	3696
3039.39	3736
3041.207	3793
3043.026	3714
3044.842	3731
3046.661	3701
3048.477	3700
3050.294	3590
3052.109	3713
3053.925	3667
3055.739	3595
3057.555	3763
3059.368	3661
3061.181	3659
3062.995	3644
3064.807	3676
3066.62	3649
3068.433	3760
3070.243	3662
3072.054	3670
3073.865	3769
3075.675	3680
3077.485	3603
3079.293	3619
3081.102	3664
3082.911	3635
3084.719	3672
3086.527	3610
3088.333	3564
3090.139	3573
3091.945	3578
3093.75	3539
3095.557	3588
3097.361	3583
3099.165	3600
3100.969	3508
3102.772	3533
3104.575	3526
3106.379	3558
3108.181	3558
3109.982	3544
3111.783	3572
3113.584	3544
3115.386	3574
3117.186	3595
3118.985	3574
3120.783	3490
3122.582	3515
3124.381	3473
3126.179	3465
3127.975	3480
3129.772	3542
3131.569	3564
3133.365	3531
3135.161	3538
3136.956	3478
3138.751	3510
3140.544	3404
3142.338	3515
3144.132	3450
3145.925	3458
3147.717	3503
3149.509	3475
3151.301	3445
3153.091	3542
3154.884	3521
3156.673	3554
3158.462	3414
3160.252	3480
3162.041	3455
3163.831	3515
3165.618	3448
3167.405	3443
3169.193	3425
3170.979	3531
3172.767	3450
3174.553	3519
3176.338	3558
3178.123	3515
3179.907	3496
3181.692	3466
3183.477	3414
3185.259	3500
3187.042	3455
3188.824	3484
3190.607	3525
3192.389	3507
3194.17	3436
3195.951	3512
3197.73	3456
3199.51	3407
3201.289	3523
3203.07	3437
3204.848	3462
3206.626	3415
3208.403	3528
3210.18	3419
3211.959	3462
3213.735	3424
3215.511	3357
3217.285	3491
3219.06	3470
3220.836	3480
3222.611	3481
3224.384	3524
3226.158	3419
3227.929	3482
3229.702	3470
3231.476	3470
3233.248	3487
3235.018	3500
3236.789	3438
3238.56	3453
3240.33	3492
3242.1	3512
3243.869	3539
3245.637	3410
3247.405	3448
3249.172	3553
3250.941	3502
3252.707	3368
3254.474	3444
3256.24	3489
3258.006	3398
3259.772	3504
3261.537	3436
3263.301	3509
3265.065	3396
3266.828	3443
3268.592	3468
3270.355	3527
3272.117	3499
3273.878	3544
3275.64	3497
3277.401	3512
3279.162	3477
3280.922	3459
3282.682	3478
3284.441	3490
3286.199	3491
3287.959	3489
3289.716	3535
3291.475	3452
3293.232	3470
3294.988	3525
3296.744	3464
3298.501	3409
3300.256	3405
3302.011	3538
3303.766	3501
3305.52	3456
3307.275	3444
3309.028	3520
3310.781	3573
3312.533	3416
3314.285	3524
3316.038	3463
3317.789	3424
3319.54	3473
3321.289	3401
3323.039	3469
3324.789	3462
3326.539	3493
3328.288	3451
3330.035	3508
3331.783	3532
3333.531	3467
3335.28	3462
3337.025	3448
3338.771	3536
3340.518	3461
3342.262	3511
3344.009	3482
3345.753	3414
3347.497	3462
3349.24	3425
3350.983	3370
3352.726	3300
3354.469	3376
3356.212	3394
3357.952	3421
3359.694	3427
3361.434	3401
3363.176	3349
3364.916	3420
3366.654	3382
3368.394	3398
3370.132	3379
3371.871	3355
3373.61	3393
3375.346	3465
3377.083	3394
3378.82	3364
3380.556	3465
3382.292	3384
3384.027	3410
3385.763	3409
3387.497	3379
3389.231	3348
3390.965	3407
3392.698	3336
3394.431	3323
3396.164	3349
3397.896	3404
3399.627	3356
3401.36	3318
3403.09	3318
3404.82	3297
3406.55	3306
3408.279	3280
3410.01	3361
3411.738	3260
3413.467	3306
3415.194	3322
3416.92	3304
3418.647	3291
3420.375	3295
3422.102	3316
3423.827	3248
3425.553	3387
3427.277	3330
3429.003	3301
3430.727	3273
3432.451	3274
3434.173	3293
3435.896	3287
3437.62	3246
3439.343	3266
3441.063	3323
3442.785	3291
3444.505	3341
3446.226	3267
3447.948	3300
3449.666	3270
3451.386	3267
3453.104	3219
3454.823	3232
3456.541	3225
3458.259	3251
3459.976	3192
3461.693	3273
3463.408	3198
3465.125	3223
3466.841	3233
3468.556	3198
3470.271	3215
3471.985	3009
3473.698	3257
3475.414	3238
3477.126	3117
3478.838	3126
3480.55	3186
3482.263	3216
3483.975	3185
3485.686	3197
3487.396	3159
3489.106	3139
3490.817	3161
3492.526	3115
3494.236	3107
3495.944	3171
3497.652	3172
3499.359	3100
3501.066	3119
3502.775	3108
3504.481	3095
3506.187	3115
3507.893	3083
3509.598	3068
3511.304	3133
3513.009	3069
3514.713	3009
3516.417	3077
3518.12	3081
3519.821	3070
3521.525	3105
3523.228	3056
3524.929	3079
3526.631	3080
3528.33	2971
3530.032	3005
3531.733	3043
3533.433	3016
3535.131	3046
3536.83	2999
3538.529	3015
3540.227	3018
3541.925	3037
3543.623	2982
3545.319	3022
3547.016	3024
3548.712	2990
3550.408	2986
3552.103	2913
3553.798	3008
3555.491	2999
3557.188	2929
3558.88	2933
3560.574	2997
3562.266	2948
3563.959	3003
3565.651	2972
3567.343	3005
3569.035	3008
3570.725	2979
3572.415	2981
3574.106	2940
3575.797	3002
3577.485	2946
3579.174	2944
3580.863	3013
3582.551	2941
3584.238	2975
3585.926	2916
3587.613	2925
3589.3	2907
3590.986	2956
3592.671	2862
3594.357	2970
3596.042	2888
3597.726	2831
3599.41	2860
3601.094	2846
3602.778	2875
3604.461	2820
3606.143	2822
3607.825	2804
3609.507	2833
3611.188	2845
3612.87	2870
3614.551	2801
3616.229	2862
3617.909	2825
3619.589	2824
3621.269	2829
3622.948	2857
3624.625	2882
3626.302	2798
3627.98	2732
3629.657	2865
3631.334	2766
3633.01	2785
3634.686	2844
3636.361	2762
3638.036	2749
3639.712	2820
3641.385	2783
3643.06	2749
3644.732	2779
3646.405	2717
3648.08	2759
3649.751	2788
3651.424	2753
3653.094	2718
3654.766	2773
3656.436	2721
3658.106	2767
3659.777	2706
3661.446	2763
3663.115	2707
3664.783	2710
3666.452	2777
3668.121	2676
3669.788	2744
3671.454	2713
3673.121	2787
3674.789	2770
3676.455	2651
3678.12	2740
3679.784	2739
3681.45	2687
3683.114	2707
3684.779	2620
3686.442	2688
3688.105	2636
3689.768	2622
3691.43	2738
3693.093	2698
3694.754	2681
3696.415	2713
3698.076	2706
3699.736	2636
3701.396	2684
3703.057	2669
3704.716	2623
3706.375	2586
3708.034	2680
3709.692	2705
3711.351	2649
3713.008	2627
3714.665	2708
3716.321	2630
3717.977	2660
3719.634	2691
3721.29	2649
3722.945	2670
3724.598	2709
3726.253	2613
3727.907	2592
3729.561	2640
3731.214	2684
3732.867	2671
3734.518	2619
3736.171	2635
3737.824	2634
3739.474	2563
3741.125	2597
3742.775	2655
3744.425	2647
3746.074	2657
3747.725	2623
3749.373	2713
3751.022	2683
3752.669	2630
3754.318	2630
3755.966	2618
3757.612	2628
3759.259	2607
3760.905	2597
3762.55	2586
3764.197	2611
3765.842	2567
3767.486	2658
3769.131	2542
3770.774	2548
3772.417	2615
3774.061	2547
3775.705	2585
3777.347	2605
3778.988	2615
3780.629	2570
3782.271	2591
3783.912	2596
3785.552	2562
3787.192	2602
3788.831	2601
3790.472	2598
3792.112	2552
3793.75	2572
3795.388	2577
3797.024	2548
3798.661	2588
3800.3	2615
3801.936	2563
3803.572	2543
3805.208	2526
3806.844	2527
3808.48	2540
3810.115	2529
3811.748	2536
3813.382	2547
3815.016	2528
3816.649	2499
3818.283	2560
3819.914	2518
3821.547	2594
3823.178	2540
3824.809	2538
3826.441	2489
3828.072	2496
3829.701	2540
3831.331	2435
3832.96	2553
3834.591	2538
3836.219	2501
3837.847	2458
3839.475	2471
3841.102	2479
3842.729	2463
3844.357	2536
3845.984	2434
3847.609	2513
3849.234	2528
3850.86	2427
3852.485	2472
3854.11	2393
3855.734	2478
3857.357	2455
3858.981	2482
3860.603	2442
3862.227	2509
3863.848	2481
3865.471	2423
3867.092	2439
3868.713	2435
3870.334	2467
3871.954	2460
3873.575	2375
3875.194	2422
3876.813	2413
3878.433	2400
3880.051	2444
3881.669	2447
3883.286	2490
3884.904	2411
3886.52	2397
3888.138	2464
3889.754	2458
3891.37	2433
3892.985	2423
3894.6	2450
3896.216	2469
3897.831	2421
3899.444	2408
3901.058	2481
3902.67	2503
3904.283	2399
3905.897	2450
3907.509	2427
3909.121	2380
3910.731	2411
3912.342	2409
3913.954	2391
3915.563	2419
3917.174	2439
3918.783	2429
3920.391	2391
3922.002	2373
3923.611	2389
3925.218	2387
3926.826	2377
3928.432	2427
3930.039	2411
3931.647	2422
3933.253	2454
3934.859	2374
3936.464	2380
3938.068	2396
3939.675	2403
3941.278	2312
3942.883	2430
3944.486	2311
3946.089	2400
3947.692	2401
3949.295	2377
3950.898	2312
3952.499	2433
3954.1	2340
3955.7	2370
3957.303	2368
3958.903	2361
3960.502	2366
3962.101	2326
3963.7	2394
3965.301	2340
3966.899	2397
3968.497	2357
3970.094	2346
3971.691	2299
3973.288	2325
3974.885	2357
3976.481	2339
3978.077	2299
3979.672	2293
3981.267	2324
3982.863	2363
3984.457	2330
3986.051	2354
3987.645	2301
3989.238	2387
3990.831	2295
3992.425	2238
3994.017	2296
3995.607	2315
3997.199	2280
3998.79	2373
4000.382	2363
4001.973	2278
4003.561	2328
4005.151	2283
4006.741	2287
4008.331	2300
4009.918	2237
4011.507	2327
4013.095	2317
4014.681	2269
4016.269	2318
4017.856	2313
4019.443	2294
4021.028	2248
4022.614	2290
4024.199	2245
4025.785	2353
4027.37	2266
4028.953	2269
4030.536	2268
4032.12	2288
4033.704	2293
4035.287	2253
4036.869	2274
4038.45	2247
4040.032	2237
4041.613	2236
4043.195	2270
4044.776	2223
4046.356	2252
4047.935	2232
4049.515	2207
4051.095	2189
4052.674	2228
4054.251	2248
4055.829	2270
4057.406	2250
4058.985	2205
4060.562	2211
4062.139	2196
4063.715	2188
4065.29	2212
4066.865	2216
4068.442	2180
4070.016	2253
4071.59	2198
4073.164	2221
4074.738	2207
4076.312	2169
4077.885	2162
4079.458	2236
4081.03	2159
4082.602	2205
4084.173	2215
4085.745	2192
4087.315	2193
4088.886	2162
4090.456	2203
4092.026	2213
4093.596	2187
4095.165	2164
4096.734	2161
4098.301	2186
4099.869	2215
4101.437	2277
4103.006	2203
4104.572	2178
4106.139	2258
4107.704	2142
4109.27	2207
4110.837	2186
4112.401	2155
4113.966	2129
4115.53	2133
4117.094	2154
4118.659	2157
4120.223	2122
4121.785	2124
4123.347	2098
4124.909	2117
4126.471	2131
4128.034	2150
4129.595	2140
4131.155	2132
4132.716	2094
4134.275	2128
4135.836	2152
4137.395	2121
4138.955	2094
4140.513	2129
4142.071	2090
4143.628	2133
4145.188	2158
4146.745	2119
4148.302	2083
4149.858	2100
4151.414	2150
4152.971	2124
4154.526	2111
4156.081	2129
4157.635	2078
4159.189	2076
4160.745	2065
4162.298	2129
4163.852	2039
4165.405	2098
4166.957	2003
4168.51	2084
4170.063	2104
4171.614	2060
4173.166	2071
4174.717	2096
4176.267	2103
4177.817	2167
4179.368	2027
4180.917	2047
4182.466	2047
4184.016	2072
4185.564	2094
4187.112	2075
4188.66	2063
4190.207	2061
4191.754	2074
4193.301	2020
4194.848	2041
4196.394	2065
4197.94	2053
4199.484	2021
4201.03	2027
4202.575	2018
4204.12	2028
4205.663	2028
4207.207	2047
4208.75	2055
4210.292	2028
4211.836	1997
4213.378	2021
4214.92	2001
4216.46	2043
4218.002	2016
4219.544	2046
4221.083	2059
4222.625	2032
4224.164	2031
4225.703	2003
4227.244	2040
4228.782	2015
4230.32	2017
4231.857	2018
4233.395	2027
4234.933	1997
4236.471	2011
4238.007	2045
4239.542	2023
4241.078	2055
4242.614	2001
4244.15	2039
4245.685	2064
4247.219	1991
4248.753	2006
4250.287	2045
4251.82	2009
4253.354	1957
4254.887	2008
4256.419	1944
4257.951	2018
4259.483	2026
4261.016	1986
4262.547	1974
4264.078	1971
4265.608	2007
4267.137	1998
4268.668	1947
4270.197	1945
4271.727	1959
4273.254	1984
4274.783	2005
4276.311	1962
4277.84	1989
4279.366	1997
4280.894	1933
4282.42	1977
4283.946	1964
4285.473	1943
4286.998	1918
4288.523	1924
4290.047	1960
4291.572	1975
4293.096	1960
4294.622	1954
4296.144	1950
4297.668	1940
4299.19	1966
4300.713	1906
4302.236	1927
4303.758	1908
4305.279	1925
4306.799	1931
4308.321	1937
4309.842	1912
4311.361	1910
4312.882	1911
4314.401	1967
