400.0961	2537
402.6185	2567
405.1424	2574
407.6635	2589
410.1838	2576
412.7035	2626
415.2225	2651
417.7388	2615
420.2585	2680
422.7754	2737
425.2917	2768
427.8072	2739
430.3221	2816
432.8363	2843
435.3498	2779
437.8626	2776
440.3727	2808
442.8841	2779
445.3969	2768
447.907	2795
450.4142	2791
452.9229	2798
455.4289	2695
457.9362	2763
460.4449	2728
462.9488	2694
465.454	2684
467.9566	2699
470.4604	2787
472.9637	2605
475.4662	2731
477.966	2727
480.4671	2723
482.9656	2744
485.4633	2713
487.9645	2767
490.4608	2694
492.9566	2765
495.4536	2773
497.948	2751
500.4437	2700
502.9387	2728
505.431	2769
507.9226	2778
510.4136	2731
512.9079	2742
515.3975	2781
517.8864	2719
520.3746	2822
522.8622	2768
525.3491	2787
527.8394	2786
530.3249	2776
532.8098	2833
535.2939	2782
537.7774	2819
540.2623	2827
542.7444	2845
545.2259	2795
547.7067	2749
550.1868	2778
552.6683	2812
555.147	2820
557.6231	2804
560.1005	2785
562.5773	2837
565.0534	2877
567.5308	2905
570.0056	2902
572.4776	2892
574.951	2973
577.4237	2923
579.8978	2939
582.3671	2943
584.8378	2913
587.3079	2944
589.7773	3009
592.244	2956
594.714	3010
597.1793	2901
599.6461	2961
602.1121	2938
604.5754	2927
607.0421	2909
609.5042	2937
611.9675	2902
614.4282	2880
616.8902	2945
619.3515	2958
621.8122	2861
624.2702	2874
626.7296	2909
629.1863	2879
631.6423	2873
634.1017	2793
636.5563	2871
639.0104	2821
641.4658	2820
643.9185	2894
646.3725	2814
648.8239	2858
651.2766	2916
653.7266	2867
656.176	2901
658.6247	2851
661.0748	2863
663.5242	2884
665.9709	2893
668.417	2893
670.8624	2939
673.3092	2945
675.7533	2928
678.1968	2937
680.6395	3028
683.0817	2994
685.5251	2929
687.9659	2976
690.4061	2981
692.8456	2923
695.2844	2955
697.7226	2934
700.1621	2957
702.599	2946
705.0332	2923
707.4688	2919
709.9036	2950
712.3399	3002
714.7735	2999
717.2044	2975
719.6367	3037
722.0683	2967
724.4993	3005
726.9296	2971
729.3593	3028
731.7883	3038
734.2147	3092
736.6423	3005
739.0714	3095
741.4958	3081
743.9216	3133
746.3447	3033
748.7691	3164
751.1929	3165
753.616	3111
756.0366	3111
758.4584	3091
760.8776	3098
763.2982	3125
765.718	3119
768.1373	3120
770.5539	3154
772.9698	3172
775.3871	3139
777.8038	3092
780.2178	3098
782.6332	3121
785.0459	3188
787.458	3123
789.8714	3128
792.2842	3170
794.6943	3109
797.1038	3114
799.5127	3140
801.9209	3199
804.3324	3094
806.7393	3192
809.1456	3177
811.5513	3211
813.9562	3237
816.3625	3181
818.7663	3120
821.1693	3246
823.5718	3241
825.9735	3123
828.3746	3134
830.7771	3189
833.177	3198
835.5762	3234
837.9747	3169
840.3727	3298
842.772	3277
845.1666	3259
847.5626	3263
849.958	3262
852.3527	3310
854.7488	3405
857.1403	3272
859.5331	3255
861.9253	3333
864.3168	3314
866.7057	3302
869.098	3324
871.4876	3271
873.8746	3219
876.263	3297
878.6487	3236
881.0378	3271
883.4243	3264
885.8081	3275
888.1933	3322
890.5759	3300
892.9598	3255
895.343	3262
897.7256	3292
900.1057	3262
902.4871	3280
904.8659	3287
907.246	3340
909.6254	3388
912.0023	3357
914.3786	3338
916.7562	3395
919.1331	3475
921.5074	3525
923.8831	3518
926.2562	3490
928.6287	3513
931.0005	3465
933.3757	3582
935.7462	3490
938.1162	3637
940.4855	3584
942.8542	3633
945.2242	3743
947.5916	3720
949.9584	3949
952.3266	4035
954.6921	4371
957.0571	4538
959.4233	4798
961.787	4844
964.15	4769
966.5125	4585
968.8742	4387
971.2354	4068
973.5959	3832
975.9559	3696
978.3151	3569
980.6738	3515
983.0338	3470
985.3912	3415
987.7461	3482
990.1022	3354
992.4578	3418
994.8127	3454
997.1689	3531
999.5207	3404
1001.874	3469
1004.226	3464
1006.576	3408
1008.929	3456
1011.28	3445
1013.628	3451
1015.977	3475
1018.324	3440
1020.674	3495
1023.019	3459
1025.366	3493
1027.713	3475
1030.056	3423
1032.399	3502
1034.746	3582
1037.087	3447
1039.431	3576
1041.771	3528
1044.113	3495
1046.454	3452
1048.793	3562
1051.133	3463
1053.471	3548
1055.807	3551
1058.146	3563
1060.483	3620
1062.818	3601
1065.153	3617
1067.489	3636
1069.822	3655
1072.156	3608
1074.488	3571
1076.82	3632
1079.15	3563
1081.48	3655
1083.814	3535
1086.143	3584
1088.471	3548
1090.799	3461
1093.126	3532
1095.452	3506
1097.78	3484
1100.105	3522
1102.43	3548
1104.754	3437
1107.077	3565
1109.4	3505
1111.722	3546
1114.044	3430
1116.365	3517
1118.685	3567
1121.005	3529
1123.324	3484
1125.643	3494
1127.961	3494
1130.278	3447
1132.595	3520
1134.911	3452
1137.226	3518
1139.541	3463
1141.854	3464
1144.167	3481
1146.482	3505
1148.793	3499
1151.105	3462
1153.414	3467
1155.725	3470
1158.033	3424
1160.344	3543
1162.651	3539
1164.959	3474
1167.265	3492
1169.572	3577
1171.878	3520
1174.184	3471
1176.488	3555
1178.79	3458
1181.094	3549
1183.396	3572
1185.699	3469
1188.001	3552
1190.301	3447
1192.6	3552
1194.9	3526
1197.2	3461
1199.497	3447
1201.794	3498
1204.09	3532
1206.387	3462
1208.684	3605
1210.978	3557
1213.272	3553
1215.565	3451
1217.858	3577
1220.15	3524
1222.443	3481
1224.734	3662
1227.024	3581
1229.313	3574
1231.602	3606
1233.892	3603
1236.18	3589
1238.467	3657
1240.754	3758
1243.04	3741
1245.325	3690
1247.612	3768
1249.896	3746
1252.178	3713
1254.461	3674
1256.743	3686
1259.027	3741
1261.308	3731
1263.587	3650
1265.867	3680
1268.146	3747
1270.425	3720
1272.703	3721
1274.981	3708
1277.256	3785
1279.532	3754
1281.808	3719
1284.083	3769
1286.358	3655
1288.63	3576
1290.904	3608
1293.175	3658
1295.449	3631
1297.719	3661
1299.99	3595
1302.259	3644
1304.529	3600
1306.798	3614
1309.065	3568
1311.333	3656
1313.599	3752
1315.866	3643
1318.131	3567
1320.396	3589
1322.66	3579
1324.925	3633
1327.187	3597
1329.448	3643
1331.711	3597
1333.974	3595
1336.234	3615
1338.493	3669
1340.752	3640
1343.01	3562
1345.269	3664
1347.526	3618
1349.784	3603
1352.04	3626
1354.295	3626
1356.552	3534
1358.806	3703
1361.059	3611
1363.312	3550
1365.564	3590
1367.818	3666
1370.069	3697
1372.318	3677
1374.568	3627
1376.817	3584
1379.066	3580
1381.316	3621
1383.564	3723
1385.809	3655
1388.056	3631
1390.301	3650
1392.549	3667
1394.793	3740
1397.036	3832
1399.279	3778
1401.522	3759
1403.763	3815
1406.007	3747
1408.248	3767
1410.487	3723
1412.727	3797
1414.965	3739
1417.205	3786
1419.442	3772
1421.68	3715
1423.915	3770
1426.152	3737
1428.388	3786
1430.623	3778
1432.857	3780
1435.091	3805
1437.323	3753
1439.556	3855
1441.789	3914
1444.019	3889
1446.25	3867
1448.48	3864
1450.708	3861
1452.938	3890
1455.167	3941
1457.394	3978
1459.62	3918
1461.846	3855
1464.073	3927
1466.299	3870
1468.523	3808
1470.746	3811
1472.969	3784
1475.191	3784
1477.415	3707
1479.636	3762
1481.858	3731
1484.078	3628
1486.298	3655
1488.518	3590
1490.736	3636
1492.954	3597
1495.169	3529
1497.386	3716
1499.602	3639
1501.819	3648
1504.034	3569
1506.248	3600
1508.462	3609
1510.675	3586
1512.888	3547
1515.1	3537
1517.311	3660
1519.522	3541
1521.732	3608
1523.942	3601
1526.151	3584
1528.36	3548
1530.566	3568
1532.773	3587
1534.98	3673
1537.187	3557
1539.392	3541
1541.596	3660
1543.801	3589
1546.005	3534
1548.208	3559
1550.411	3625
1552.612	3678
1554.814	3674
1557.013	3602
1559.212	3734
1561.414	3607
1563.612	3623
1565.811	3732
1568.007	3684
1570.203	3704
1572.403	3701
1574.598	3677
1576.792	3784
1578.988	3705
1581.181	3696
1583.376	3746
1585.568	3757
1587.761	3810
1589.952	3798
1592.143	3683
1594.333	3651
1596.524	3826
1598.715	3693
1600.903	3742
1603.091	3812
1605.278	3732
1607.466	3734
1609.652	3758
1611.838	3702
1614.023	3797
1616.207	3658
1618.391	3726
1620.576	3707
1622.759	3749
1624.941	3877
1627.123	3837
1629.304	3808
1631.484	3822
1633.664	3826
1635.844	3800
1638.022	3805
1640.201	3897
1642.38	3872
1644.556	3840
1646.732	3750
1648.908	3875
1651.084	3941
1653.257	3820
1655.433	3923
1657.607	3841
1659.779	3836
1661.951	3823
1664.122	3876
1666.295	3881
1668.467	3920
1670.635	3901
1672.805	3964
1674.973	3897
1677.142	3955
1679.31	3862
1681.478	3851
1683.644	3870
1685.81	3931
1687.975	3888
1690.142	3838
1692.305	3815
1694.468	3873
1696.632	3761
1698.794	3770
1700.957	3751
1703.119	3832
1705.279	3831
1707.439	3718
1709.598	3806
1711.758	3736
1713.917	3695
1716.075	3742
1718.231	3785
1720.388	3735
1722.543	3740
1724.702	3671
1726.856	3705
1729.01	3683
1731.164	3640
1733.317	3682
1735.471	3689
1737.623	3761
1739.774	3743
1741.925	3687
1744.075	3788
1746.225	3743
1748.376	3670
1750.524	3785
1752.672	3725
1754.82	3718
1756.965	3761
1759.113	3700
1761.259	3749
1763.405	3708
1765.549	3704
1767.694	3757
1769.836	3796
1771.981	3739
1774.123	3803
1776.264	3656
1778.405	3821
1780.546	3813
1782.687	3643
1784.827	3753
1786.966	3771
1789.103	3720
1791.242	3779
1793.381	3815
1795.517	3780
1797.653	3723
1799.788	3839
1801.923	3703
1804.057	3796
1806.193	3827
1808.326	3785
1810.457	3732
1812.59	3755
1814.721	3675
1816.855	3715
1818.984	3756
1821.113	3713
1823.244	3771
1825.372	3671
1827.499	3693
1829.63	3739
1831.756	3722
1833.882	3711
1836.007	3732
1838.132	3738
1840.26	3695
1842.384	3740
1844.507	3707
1846.63	3632
1848.752	3751
1850.875	3679
1852.996	3677
1855.118	3718
1857.238	3705
1859.358	3697
1861.477	3697
1863.597	3654
1865.715	3736
1867.832	3796
1869.948	3801
1872.064	3726
1874.181	3659
1876.297	3687
1878.411	3757
1880.526	3679
1882.639	3728
1884.752	3723
1886.865	3733
1888.977	3774
1891.089	3769
1893.2	3790
1895.308	3709
1897.42	3756
1899.53	3685
1901.639	3762
1903.745	3773
1905.853	3776
1907.962	3655
1910.067	3719
1912.174	3796
1914.278	3842
1916.383	3747
1918.486	3795
1920.592	3759
1922.694	3697
1924.797	3796
1926.898	3877
1929	3792
1931.102	3764
1933.203	3785
1935.301	3678
1937.401	3706
1939.499	3802
1941.598	3801
1943.697	3847
1945.793	3753
1947.888	3741
1949.985	3763
1952.08	3755
1954.176	3820
1956.269	3764
1958.364	3772
1960.457	3777
1962.549	3804
1964.642	3759
1966.733	3834
1968.823	3779
1970.913	3752
1973.005	3733
1975.093	3836
1977.184	3733
1979.271	3785
1981.359	3724
1983.446	3808
1985.532	3745
1987.619	3741
1989.705	3850
1991.789	3748
1993.874	3727
1995.956	3720
1998.041	3812
2000.123	3724
2002.206	3772
2004.287	3790
2006.368	3794
2008.449	3748
2010.529	3815
2012.609	3749
2014.688	3699
2016.766	3760
2018.843	3758
2020.922	3755
2022.999	3797
2025.074	3758
2027.15	3780
2029.225	3781
2031.299	3836
2033.375	3744
2035.447	3702
2037.52	3693
2039.592	3703
2041.664	3635
2043.736	3684
2045.807	3780
2047.876	3752
2049.947	3807
2052.015	3803
2054.086	3808
2056.153	3758
2058.221	3744
2060.288	3739
2062.353	3795
2064.42	3769
2066.486	3825
2068.55	3757
2070.614	3826
2072.678	3749
2074.741	3776
2076.805	3728
2078.866	3721
2080.929	3789
2082.99	3721
2085.049	3709
2087.109	3759
2089.17	3793
2091.228	3751
2093.286	3710
2095.344	3804
2097.4	3784
2099.46	3736
2101.516	3751
2103.572	3739
2105.626	3666
2107.679	3769
2109.735	3801
2111.788	3674
2113.841	3659
2115.894	3794
2117.945	3792
2119.997	3782
2122.049	3825
2124.1	3828
2126.148	3723
2128.197	3829
2130.246	3725
2132.296	3653
2134.342	3835
2136.39	3773
2138.437	3811
2140.483	3733
2142.527	3716
2144.574	3751
2146.619	3848
2148.661	3743
2150.705	3718
2152.747	3850
2154.792	3680
2156.832	3668
2158.874	3793
2160.915	3752
2162.954	3696
2164.995	3634
2167.034	3737
2169.072	3654
2171.111	3694
2173.148	3692
2175.186	3684
2177.223	3702
2179.258	3696
2181.294	3701
2183.328	3653
2185.362	3776
2187.398	3566
2189.431	3704
2191.463	3704
2193.495	3713
2195.528	3665
2197.56	3703
2199.59	3641
2201.62	3634
2203.649	3610
2205.678	3695
2207.708	3692
2209.737	3702
2211.764	3707
2213.791	3675
2215.817	3649
2217.843	3597
2219.87	3658
2221.895	3625
2223.919	3589
2225.942	3694
2227.966	3643
2229.988	3644
2232.012	3660
2234.032	3633
2236.054	3740
2238.074	3687
2240.095	3702
2242.116	3666
2244.135	3773
2246.153	3668
2248.171	3627
2250.188	3617
2252.208	3673
2254.223	3688
2256.239	3722
2258.255	3671
2260.269	3652
2262.283	3650
2264.3	3636
2266.312	3617
2268.325	3710
2270.336	3659
2272.349	3575
2274.362	3624
2276.372	3670
2278.383	3664
2280.392	3654
2282.402	3661
2284.409	3605
2286.418	3563
2288.427	3759
2290.433	3695
2292.441	3652
2294.446	3641
2296.453	3665
2298.459	3645
2300.463	3680
2302.466	3645
2304.471	3750
2306.475	3638
2308.477	3640
2310.478	3710
2312.481	3704
2314.481	3669
2316.481	3650
2318.482	3637
2320.482	3632
2322.48	3565
2324.48	3553
2326.478	3576
2328.476	3642
2330.473	3584
2332.469	3662
2334.465	3729
2336.46	3631
2338.454	3618
2340.45	3677
2342.444	3626
2344.437	3546
2346.43	3625
2348.421	3651
2350.414	3548
2352.405	3570
2354.396	3679
2356.386	3665
2358.376	3620
2360.366	3613
2362.355	3590
2364.343	3603
2366.331	3528
2368.317	3694
2370.304	3591
2372.292	3676
2374.278	3573
2376.262	3625
2378.247	3621
2380.23	3598
2382.216	3558
2384.199	3598
2386.181	3625
2388.163	3602
2390.144	3678
2392.127	3623
2394.107	3535
2396.087	3504
2398.066	3532
2400.046	3581
2402.023	3535
2404.004	3550
2405.981	3552
2407.957	3621
2409.934	3603
2411.91	3532
2413.886	3574
2415.862	3516
2417.836	3527
2419.809	3567
2421.784	3534
2423.756	3518
2425.73	3571
2427.701	3560
2429.672	3596
2431.644	3543
2433.615	3491
2435.586	3529
2437.555	3567
2439.523	3567
2441.491	3576
2443.459	3594
2445.428	3608
2447.395	3528
2449.361	3592
2451.327	3544
2453.292	3501
2455.257	3620
2457.223	3579
2459.187	3527
2461.15	3564
2463.113	3513
2465.076	3508
2467.039	3560
2468.999	3551
2470.96	3508
2472.921	3641
2474.881	3530
2476.841	3527
2478.8	3488
2480.759	3578
2482.717	3473
2484.675	3531
2486.63	3537
2488.589	3507
2490.545	3566
2492.5	3513
2494.455	3483
2496.408	3570
2498.364	3483
2500.318	3488
2502.27	3450
2504.223	3518
2506.174	3525
2508.126	3558
2510.078	3469
2512.03	3489
2513.979	3542
2515.927	3453
2517.877	3475
2519.826	3535
2521.775	3466
2523.722	3470
2525.668	3469
2527.616	3604
2529.561	3506
2531.508	3486
2533.452	3460
2535.398	3566
2537.342	3506
2539.284	3489
2541.229	3552
2543.173	3452
2545.114	3493
2547.055	3505
2548.996	3492
2550.938	3482
2552.878	3518
2554.817	3479
2556.756	3511
2558.695	3438
2560.633	3454
2562.572	3469
2564.509	3530
2566.445	3561
2568.382	3533
2570.317	3596
2572.254	3512
2574.189	3496
2576.123	3471
2578.057	3467
2579.99	3485
2581.923	3487
2583.855	3425
2585.788	3501
2587.719	3526
2589.65	3473
2591.579	3482
2593.511	3541
2595.44	3475
2597.37	3527
2599.297	3455
2601.225	3525
2603.153	3453
2605.08	3502
2607.007	3468
2608.932	3458
2610.858	3536
2612.782	3507
2614.709	3547
2616.632	3466
2618.556	3499
2620.478	3528
2622.401	3607
2624.324	3511
2626.247	3564
2628.167	3499
2630.088	3525
2632.008	3487
2633.928	3470
2635.848	3612
2637.766	3445
2639.684	3535
2641.603	3534
2643.519	3482
2645.437	3500
2647.353	3615
2649.27	3478
2651.184	3540
2653.099	3507
2655.014	3573
2656.928	3467
2658.842	3534
2660.755	3492
2662.667	3551
2664.579	3523
2666.491	3590
2668.402	3443
2670.312	3530
2672.222	3526
2674.132	3496
2676.042	3484
2677.951	3522
2679.859	3487
2681.766	3473
2683.674	3527
2685.582	3476
2687.488	3451
2689.392	3446
2691.298	3498
2693.202	3500
2695.107	3425
2697.012	3440
2698.914	3444
2700.817	3486
2702.72	3544
2704.622	3483
2706.524	3517
2708.425	3489
2710.326	3519
2712.225	3478
2714.125	3407
2716.024	3506
2717.923	3426
2719.822	3483
2721.719	3398
2723.616	3404
2725.512	3482
2727.41	3439
2729.305	3443
2731.201	3480
2733.095	3390
2734.99	3518
2736.884	3488
2738.778	3395
2740.67	3517
2742.562	3483
2744.455	3510
2746.346	3524
2748.238	3350
2750.129	3427
2752.018	3361
2753.907	3431
2755.797	3548
2757.687	3427
2759.575	3428
2761.462	3459
2763.349	3392
2765.237	3551
2767.124	3542
2769.009	3412
2770.894	3515
2772.779	3454
2774.663	3421
2776.547	3461
2778.431	3473
2780.314	3494
2782.197	3436
2784.078	3486
2785.96	3469
2787.842	3525
2789.723	3392
2791.603	3499
2793.483	3449
2795.362	3466
2797.241	3432
2799.121	3483
2800.997	3444
2802.874	3418
2804.751	3370
2806.628	3369
2808.506	3446
2810.38	3385
2812.255	3349
2814.13	3474
2816.003	3454
2817.878	3506
2819.752	3429
2821.623	3424
2823.496	3354
2825.368	3461
2827.238	3426
2829.111	3423
2830.98	3458
2832.851	3447
2834.719	3428
2836.589	3430
2838.458	3437
2840.327	3419
2842.193	3412
2844.061	3477
2845.927	3468
2847.794	3503
2849.66	3397
2851.525	3515
2853.39	3570
2855.254	3559
2857.117	3547
2858.983	3552
2860.845	3647
2862.707	3582
2864.569	3643
2866.431	3647
2868.293	3666
2870.154	3713
2872.013	3727
2873.873	3698
2875.733	3788
2877.592	3806
2879.451	3900
2881.309	3911
2883.166	3896
2885.022	3933
2886.879	3907
2888.736	3925
2890.591	3981
2892.446	3967
2894.301	3992
2896.155	3987
2898.009	4041
2899.863	3903
2901.716	3967
2903.568	3929
2905.419	3904
2907.27	3946
2909.123	3995
2910.973	4073
2912.824	4040
2914.673	4039
2916.521	4044
2918.372	4146
2920.22	4126
2922.067	4152
2923.914	4256
2925.761	4314
2927.607	4315
2929.455	4376
2931.301	4500
2933.144	4443
2934.99	4427
2936.833	4554
2938.678	4539
2940.522	4599
2942.364	4605
2944.207	4650
2946.048	4649
2947.891	4819
2949.731	4684
2951.571	4664
2953.412	4719
2955.25	4647
2957.09	4619
2958.93	4606
2960.767	4587
2962.606	4479
2964.443	4417
2966.279	4451
2968.116	4304
2969.953	4270
2971.788	4257
2973.623	4192
2975.457	4115
2977.292	4207
2979.127	4110
2980.959	4070
2982.792	4119
2984.624	4002
2986.455	4041
2988.288	4038
2990.119	3985
2991.949	4047
2993.779	3954
2995.608	3873
2997.439	3838
2999.268	3873
3001.096	3769
3002.923	3824
3004.751	3701
3006.578	3658
3008.406	3727
3010.232	3541
3012.057	3584
3013.883	3563
3015.706	3508
3017.532	3526
3019.356	3486
3021.179	3500
3023.002	3424
3024.823	3457
3026.646	3452
3028.469	3338
3030.289	3397
3032.11	3319
3033.93	3419
3035.749	3338
3037.57	3306
3039.39	3285
3041.207	3331
3043.026	3289
3044.842	3348
3046.661	3289
3048.477	3311
3050.294	3293
3052.109	3306
3053.925	3274
3055.739	3304
3057.555	3299
3059.368	3288
3061.181	3313
3062.995	3317
3064.807	3310
3066.62	3314
3068.433	3391
3070.243	3344
3072.054	3327
3073.865	3281
3075.675	3344
3077.485	3243
3079.293	3315
3081.102	3252
3082.911	3273
3084.719	3179
3086.527	3335
3088.333	3220
3090.139	3261
3091.945	3180
3093.75	3242
3095.557	3251
3097.361	3241
3099.165	3231
3100.969	3240
3102.772	3176
3104.575	3183
3106.379	3152
3108.181	3156
3109.982	3152
3111.783	3194
3113.584	3182
3115.386	3151
3117.186	3179
3118.985	3201
3120.783	3258
3122.582	3203
3124.381	3148
3126.179	3157
3127.975	3198
3129.772	3137
3131.569	3195
3133.365	3177
3135.161	3117
3136.956	3209
3138.751	3185
3140.544	3072
3142.338	3146
3144.132	3116
3145.925	3168
3147.717	3158
3149.509	3201
3151.301	3150
3153.091	3142
3154.884	3137
3156.673	3123
3158.462	3135
3160.252	3101
3162.041	3127
3163.831	3105
3165.618	3170
3167.405	3150
3169.193	3119
3170.979	3194
3172.767	3106
3174.553	3121
3176.338	3098
3178.123	3169
3179.907	3041
3181.692	3129
3183.477	3164
3185.259	3191
3187.042	3157
3188.824	3118
3190.607	3089
3192.389	3132
3194.17	3113
3195.951	3106
3197.73	3070
3199.51	3094
3201.289	3134
3203.07	3128
3204.848	3145
3206.626	3096
3208.403	3144
3210.18	3083
3211.959	3170
3213.735	3117
3215.511	3044
3217.285	3104
3219.06	3069
3220.836	3170
3222.611	3098
3224.384	3165
3226.158	3150
3227.929	3098
3229.702	3083
3231.476	3097
3233.248	3118
3235.018	3136
3236.789	3142
3238.56	3121
3240.33	3084
3242.1	3163
3243.869	3138
3245.637	3138
3247.405	3111
3249.172	3137
3250.941	3099
3252.707	3173
3254.474	3166
3256.24	3129
3258.006	3137
3259.772	3097
3261.537	3088
3263.301	3166
3265.065	3154
3266.828	3185
3268.592	3198
3270.355	3187
3272.117	3081
3273.878	3185
3275.64	3169
3277.401	3055
3279.162	3174
3280.922	3161
3282.682	3136
3284.441	3149
3286.199	3132
3287.959	3207
3289.716	3167
3291.475	3199
3293.232	3173
3294.988	3173
3296.744	3176
3298.501	3167
3300.256	3080
3302.011	3119
3303.766	3195
3305.52	3134
3307.275	3132
3309.028	3151
3310.781	3129
3312.533	3181
3314.285	3152
3316.038	3162
3317.789	3170
3319.54	3181
3321.289	3237
3323.039	3133
3324.789	3120
3326.539	3124
3328.288	3211
3330.035	3178
3331.783	3154
3333.531	3130
3335.28	3194
3337.025	3113
3338.771	3156
3340.518	3147
3342.262	3164
3344.009	3122
3345.753	3109
3347.497	3160
3349.24	3099
3350.983	3131
3352.726	3131
3354.469	3130
3356.212	2979
3357.952	3131
3359.694	3013
3361.434	3100
3363.176	3140
3364.916	3090
3366.654	3042
3368.394	3183
3370.132	3116
3371.871	3119
3373.61	3015
3375.346	3039
3377.083	3076
3378.82	3062
3380.556	3039
3382.292	3063
3384.027	3085
3385.763	3099
3387.497	3028
3389.231	3000
3390.965	3070
3392.698	2985
3394.431	2980
3396.164	3078
3397.896	2974
3399.627	2956
3401.36	3038
3403.09	3051
3404.82	3065
3406.55	2979
3408.279	2991
3410.01	3047
3411.738	2930
3413.467	3024
3415.194	3014
3416.92	3032
3418.647	2952
3420.375	3004
3422.102	3070
3423.827	3014
3425.553	2991
3427.277	2964
3429.003	2987
3430.727	2954
3432.451	2944
3434.173	2951
3435.896	2961
3437.62	2978
3439.343	2966
3441.063	3023
3442.785	2954
3444.505	3036
3446.226	2946
3447.948	2954
3449.666	2959
3451.386	2938
3453.104	2986
3454.823	2919
3456.541	2969
3458.259	2957
3459.976	2917
3461.693	2946
3463.408	2950
3465.125	2888
3466.841	2870
3468.556	2881
3470.271	2896
3471.985	2889
3473.698	2865
3475.414	2939
3477.126	2859
3478.838	2821
3480.55	2875
3482.263	2857
3483.975	2836
3485.686	2906
3487.396	2854
3489.106	2810
3490.817	2879
3492.526	2889
3494.236	2791
3495.944	2843
3497.652	2826
3499.359	2823
3501.066	2816
3502.775	2824
3504.481	2813
3506.187	2757
3507.893	2809
3509.598	2791
3511.304	2744
3513.009	2763
3514.713	2844
3516.417	2796
3518.12	2720
3519.821	2721
3521.525	2774
3523.228	2732
3524.929	2699
3526.631	2748
3528.33	2742
3530.032	2747
3531.733	2758
3533.433	2667
3535.131	2761
3536.83	2683
3538.529	2757
3540.227	2755
3541.925	2739
3543.623	2698
3545.319	2732
3547.016	2753
3548.712	2747
3550.408	2720
3552.103	2717
3553.798	2687
3555.491	2746
3557.188	2726
3558.88	2692
3560.574	2728
3562.266	2681
3563.959	2649
3565.651	2712
3567.343	2586
3569.035	2650
3570.725	2709
3572.415	2663
3574.106	2685
3575.797	2664
3577.485	2649
3579.174	2692
3580.863	2686
3582.551	2624
3584.238	2668
3585.926	2600
3587.613	2646
3589.3	2668
3590.986	2602
3592.671	2592
3594.357	2618
3596.042	2660
3597.726	2609
3599.41	2626
3601.094	2615
3602.778	2543
3604.461	2628
3606.143	2617
3607.825	2600
3609.507	2544
3611.188	2640
3612.87	2576
3614.551	2567
3616.229	2580
3617.909	2541
3619.589	2552
3621.269	2554
3622.948	2470
3624.625	2583
3626.302	2565
3627.98	2541
3629.657	2505
3631.334	2573
3633.01	2547
3634.686	2539
3636.361	2470
3638.036	2513
3639.712	2525
3641.385	2497
3643.06	2441
3644.732	2474
3646.405	2524
3648.08	2567
3649.751	2531
3651.424	2501
3653.094	2492
3654.766	2530
3656.436	2422
3658.106	2544
3659.777	2485
3661.446	2517
3663.115	2438
3664.783	2425
3666.452	2486
3668.121	2439
3669.788	2438
3671.454	2484
3673.121	2479
3674.789	2422
3676.455	2402
3678.12	2469
3679.784	2475
3681.45	2375
3683.114	2438
3684.779	2387
3686.442	2432
3688.105	2442
3689.768	2418
3691.43	2371
3693.093	2371
3694.754	2476
3696.415	2476
3698.076	2373
3699.736	2440
3701.396	2343
3703.057	2408
3704.716	2420
3706.375	2446
3708.034	2387
3709.692	2395
3711.351	2358
3713.008	2420
3714.665	2402
3716.321	2388
3717.977	2398
3719.634	2362
3721.29	2401
3722.945	2377
3724.598	2396
3726.253	2347
3727.907	2375
3729.561	2368
3731.214	2387
3732.867	2348
3734.518	2363
3736.171	2355
3737.824	2359
3739.474	2330
3741.125	2382
3742.775	2387
3744.425	2421
3746.074	2301
3747.725	2371
3749.373	2364
3751.022	2337
3752.669	2358
3754.318	2378
3755.966	2307
3757.612	2339
3759.259	2349
3760.905	2305
3762.55	2342
3764.197	2316
3765.842	2336
3767.486	2330
3769.131	2322
3770.774	2263
3772.417	2274
3774.061	2359
3775.705	2266
3777.347	2291
3778.988	2347
3780.629	2338
3782.271	2302
3783.912	2310
3785.552	2333
3787.192	2325
3788.831	2290
3790.472	2345
3792.112	2294
3793.75	2313
3795.388	2323
3797.024	2253
3798.661	2304
3800.3	2297
3801.936	2214
3803.572	2328
3805.208	2247
3806.844	2329
3808.48	2287
3810.115	2295
3811.748	2320
3813.382	2326
3815.016	2297
3816.649	2231
3818.283	2283
3819.914	2264
3821.547	2223
3823.178	2254
3824.809	2272
3826.441	2261
3828.072	2262
3829.701	2180
3831.331	2296
3832.96	2249
3834.591	2266
3836.219	2233
3837.847	2227
3839.475	2305
3841.102	2314
3842.729	2248
3844.357	2211
3845.984	2194
3847.609	2217
3849.234	2208
3850.86	2234
3852.485	2165
3854.11	2253
3855.734	2223
3857.357	2229
3858.981	2196
3860.603	2201
3862.227	2241
3863.848	2220
3865.471	2262
3867.092	2219
3868.713	2214
3870.334	2204
3871.954	2269
3873.575	2246
3875.194	2195
3876.813	2232
3878.433	2199
3880.051	2234
3881.669	2139
3883.286	2247
3884.904	2192
3886.52	2202
3888.138	2172
3889.754	2206
3891.37	2234
3892.985	2185
3894.6	2267
3896.216	2181
3897.831	2179
3899.444	2135
3901.058	2204
3902.67	2169
3904.283	2155
3905.897	2228
3907.509	2164
3909.121	2224
3910.731	2189
3912.342	2191
3913.954	2113
3915.563	2193
3917.174	2174
3918.783	2171
3920.391	2155
3922.002	2170
3923.611	2244
3925.218	2155
3926.826	2175
3928.432	2146
3930.039	2159
3931.647	2165
3933.253	2171
3934.859	2130
3936.464	2171
3938.068	2132
3939.675	2167
3941.278	2209
3942.883	2200
3944.486	2187
3946.089	2172
3947.692	2114
3949.295	2137
3950.898	2129
3952.499	2177
3954.1	2093
3955.7	2134
3957.303	2145
3958.903	2149
3960.502	2140
3962.101	2130
3963.7	2146
3965.301	2086
3966.899	2105
3968.497	2201
3970.094	2208
3971.691	2072
3973.288	2118
3974.885	2188
3976.481	2133
3978.077	2094
3979.672	2144
3981.267	2109
3982.863	2056
3984.457	2091
3986.051	2080
3987.645	2117
3989.238	2063
3990.831	2096
3992.425	2074
3994.017	2099
3995.607	2016
3997.199	2075
3998.79	2060
4000.382	2072
4001.973	2075
4003.561	1988
4005.151	2076
4006.741	2028
4008.331	2045
4009.918	2079
4011.507	2129
4013.095	2028
4014.681	2022
4016.269	2036
4017.856	2104
4019.443	2095
4021.028	2023
4022.614	2007
4024.199	2016
4025.785	1965
4027.37	2039
4028.953	2078
4030.536	1985
4032.12	2001
4033.704	2068
4035.287	1995
4036.869	2048
4038.45	1985
4040.032	2014
4041.613	2001
4043.195	2049
4044.776	2015
4046.356	1990
4047.935	1974
4049.515	2041
4051.095	2008
4052.674	2046
4054.251	2042
4055.829	2016
4057.406	2001
4058.985	1995
4060.562	2065
4062.139	2020
4063.715	2003
4065.29	2041
4066.865	2034
4068.442	2011
4070.016	1981
4071.59	2000
4073.164	2015
4074.738	2050
4076.312	1977
4077.885	1953
4079.458	2001
4081.03	1964
4082.602	1959
4084.173	2011
4085.745	1947
4087.315	1983
4088.886	2026
4090.456	1992
4092.026	1947
4093.596	1942
4095.165	1956
4096.734	1981
4098.301	2009
4099.869	2010
4101.437	1965
4103.006	1951
4104.572	1919
4106.139	1968
4107.704	2033
4109.27	1970
4110.837	1972
4112.401	1985
4113.966	1912
4115.53	1931
4117.094	1943
4118.659	1962
4120.223	1946
4121.785	1948
4123.347	1906
4124.909	1979
4126.471	1904
4128.034	1973
4129.595	1949
4131.155	1981
4132.716	1922
4134.275	1913
4135.836	1868
4137.395	1892
4138.955	1886
4140.513	1909
4142.071	1927
4143.628	1874
4145.188	1877
4146.745	1926
4148.302	1962
4149.858	1881
4151.414	1897
4152.971	1963
4154.526	1886
4156.081	1853
4157.635	1897
4159.189	1916
4160.745	1892
4162.298	1903
4163.852	1917
4165.405	1880
4166.957	1898
4168.51	1919
4170.063	1858
4171.614	1888
4173.166	1933
4174.717	1934
4176.267	1902
4177.817	1871
4179.368	1880
4180.917	1877
4182.466	1882
4184.016	1895
4185.564	1840
4187.112	1846
4188.66	1896
4190.207	1818
4191.754	1837
4193.301	1843
4194.848	1828
4196.394	1841
4197.94	1861
4199.484	1793
4201.03	1821
4202.575	1890
4204.12	1831
4205.663	1857
4207.207	1854
4208.75	1910
4210.292	1907
4211.836	1868
4213.378	1838
4214.92	1821
4216.46	1841
4218.002	1879
4219.544	1838
4221.083	1822
4222.625	1842
4224.164	1866
4225.703	1817
4227.244	1848
4228.782	1825
4230.32	1833
4231.857	1782
4233.395	1813
4234.933	1811
4236.471	1877
4238.007	1858
4239.542	1797
4241.078	1806
4242.614	1861
4244.15	1790
4245.685	1807
4247.219	1851
4248.753	1772
4250.287	1758
4251.82	1825
4253.354	1789
4254.887	1807
4256.419	1801
4257.951	1823
4259.483	1778
4261.016	1799
4262.547	1799
4264.078	1788
4265.608	1820
4267.137	1812
4268.668	1854
4270.197	1813
4271.727	1766
4273.254	1773
4274.783	1762
4276.311	1780
4277.84	1773
4279.366	1844
4280.894	1802
4282.42	1758
4283.946	1791
4285.473	1807
4286.998	1771
4288.523	1810
4290.047	1728
4291.572	1756
4293.096	1759
4294.622	1805
4296.144	1753
4297.668	1752
4299.19	1757
4300.713	1743
4302.236	1781
4303.758	1792
4305.279	1777
4306.799	1799
4308.321	1757
4309.842	1728
4311.361	1780
4312.882	1775
4314.401	1738
