400.0961	2368
402.6185	2311
405.1424	2276
407.6635	2305
410.1838	2367
412.7035	2321
415.2225	2374
417.7388	2371
420.2585	2420
422.7754	2442
425.2917	2457
427.8072	2480
430.3221	2462
432.8363	2497
435.3498	2499
437.8626	2501
440.3727	2450
442.8841	2480
445.3969	2459
447.907	2465
450.4142	2476
452.9229	2489
455.4289	2404
457.9362	2419
460.4449	2399
462.9488	2429
465.454	2402
467.9566	2405
470.4604	2407
472.9637	2501
475.4662	2405
477.966	2429
480.4671	2413
482.9656	2436
485.4633	2442
487.9645	2435
490.4608	2457
492.9566	2410
495.4536	2423
497.948	2399
500.4437	2438
502.9387	2413
505.431	2428
507.9226	2414
510.4136	2530
512.9079	2523
515.3975	2467
517.8864	2420
520.3746	2449
522.8622	2423
525.3491	2514
527.8394	2560
530.3249	2444
532.8098	2426
535.2939	2505
537.7774	2491
540.2623	2480
542.7444	2481
545.2259	2519
547.7067	2507
550.1868	2561
552.6683	2450
555.147	2489
557.6231	2526
560.1005	2504
562.5773	2531
565.0534	2548
567.5308	2566
570.0056	2561
572.4776	2563
574.951	2613
577.4237	2584
579.8978	2671
582.3671	2612
584.8378	2603
587.3079	2627
589.7773	2674
592.244	2709
594.714	2646
597.1793	2643
599.6461	2604
602.1121	2546
604.5754	2613
607.0421	2548
609.5042	2546
611.9675	2659
614.4282	2605
616.8902	2619
619.3515	2613
621.8122	2609
624.2702	2552
626.7296	2478
629.1863	2606
631.6423	2522
634.1017	2539
636.5563	2549
639.0104	2530
641.4658	2620
643.9185	2515
646.3725	2572
648.8239	2588
651.2766	2561
653.7266	2537
656.176	2610
658.6247	2539
661.0748	2574
663.5242	2543
665.9709	2527
668.417	2575
670.8624	2585
673.3092	2593
675.7533	2558
678.1968	2580
680.6395	2562
683.0817	2641
685.5251	2611
687.9659	2626
690.4061	2637
692.8456	2651
695.2844	2640
697.7226	2624
700.1621	2708
702.599	2584
705.0332	2629
707.4688	2667
709.9036	2681
712.3399	2679
714.7735	2584
717.2044	2689
719.6367	2712
722.0683	2697
724.4993	2704
726.9296	2704
729.3593	2616
731.7883	2757
734.2147	2707
736.6423	2725
739.0714	2711
741.4958	2714
743.9216	2662
746.3447	2682
748.7691	2739
751.1929	2712
753.616	2724
756.0366	2722
758.4584	2733
760.8776	2807
763.2982	2724
765.718	2772
768.1373	2765
770.5539	2749
772.9698	2779
775.3871	2781
777.8038	2815
780.2178	2861
782.6332	2776
785.0459	2784
787.458	2854
789.8714	2780
792.2842	2809
794.6943	2790
797.1038	2790
799.5127	2724
801.9209	2865
804.3324	2802
806.7393	2813
809.1456	2780
811.5513	2788
813.9562	2844
816.3625	2805
818.7663	2835
821.1693	2843
823.5718	2782
825.9735	2765
828.3746	2814
830.7771	2825
833.177	2808
835.5762	2780
837.9747	2784
840.3727	2928
842.772	2892
845.1666	2874
847.5626	2901
849.958	2949
852.3527	2899
854.7488	2917
857.1403	2940
859.5331	2900
861.9253	2914
864.3168	2906
866.7057	2871
869.098	2909
871.4876	2911
873.8746	2907
876.263	2923
878.6487	2854
881.0378	2930
883.4243	2889
885.8081	2874
888.1933	2894
890.5759	2940
892.9598	2885
895.343	2979
897.7256	2947
900.1057	2890
902.4871	2879
904.8659	2899
907.246	2968
909.6254	3002
912.0023	3080
914.3786	3026
916.7562	3070
919.1331	3038
921.5074	3140
923.8831	3110
926.2562	3157
928.6287	3135
931.0005	3168
933.3757	3188
935.7462	3186
938.1162	3121
940.4855	3217
942.8542	3256
945.2242	3286
947.5916	3448
949.9584	3483
952.3266	3600
954.6921	3859
957.0571	4082
959.4233	4191
961.787	4264
964.15	4334
966.5125	4102
968.8742	3801
971.2354	3638
973.5959	3456
975.9559	3310
978.3151	3214
980.6738	3168
983.0338	3049
985.3912	3163
987.7461	3013
990.1022	2984
992.4578	3074
994.8127	3010
997.1689	3054
999.5207	3048
1001.874	3076
1004.226	3077
1006.576	3105
1008.929	3101
1011.28	2987
1013.628	3006
1015.977	3073
1018.324	2988
1020.674	3160
1023.019	3067
1025.366	3007
1027.713	3137
1030.056	3070
1032.399	3120
1034.746	3100
1037.087	3088
1039.431	3139
1041.771	3202
1044.113	3071
1046.454	3115
1048.793	3194
1051.133	3207
1053.471	3096
1055.807	3129
1058.146	3161
1060.483	3123
1062.818	3153
1065.153	3179
1067.489	3178
1069.822	3187
1072.156	3216
1074.488	3247
1076.82	3179
1079.15	3214
1081.48	3218
1083.814	3141
1086.143	3134
1088.471	3156
1090.799	3193
1093.126	3113
1095.452	3124
1097.78	3140
1100.105	3041
1102.43	2994
1104.754	3117
1107.077	3021
1109.4	3062
1111.722	3191
1114.044	3066
1116.365	3021
1118.685	3035
1121.005	3055
1123.324	3124
1125.643	3097
1127.961	3030
1130.278	3081
1132.595	3076
1134.911	3082
1137.226	3076
1139.541	3045
1141.854	3014
1144.167	3026
1146.482	3127
1148.793	3099
1151.105	3135
1153.414	3057
1155.725	3076
1158.033	3050
1160.344	3081
1162.651	3061
1164.959	3087
1167.265	3112
1169.572	3050
1171.878	3074
1174.184	3104
1176.488	3039
1178.79	3076
1181.094	3115
1183.396	3126
1185.699	3093
1188.001	3102
1190.301	3143
1192.6	3105
1194.9	3101
1197.2	3065
1199.497	3087
1201.794	3091
1204.09	3106
1206.387	3109
1208.684	3113
1210.978	3109
1213.272	3077
1215.565	3043
1217.858	3082
1220.15	3137
1222.443	3169
1224.734	3136
1227.024	3106
1229.313	3141
1231.602	3222
1233.892	3150
1236.18	3231
1238.467	3266
1240.754	3334
1243.04	3218
1245.325	3285
1247.612	3297
1249.896	3217
1252.178	3245
1254.461	3336
1256.743	3258
1259.027	3231
1261.308	3265
1263.587	3312
1265.867	3264
1268.146	3310
1270.425	3264
1272.703	3365
1274.981	3354
1277.256	3226
1279.532	3275
1281.808	3193
1284.083	3207
1286.358	3219
1288.63	3289
1290.904	3192
1293.175	3254
1295.449	3252
1297.719	3234
1299.99	3232
1302.259	3223
1304.529	3181
1306.798	3220
1309.065	3190
1311.333	3190
1313.599	3207
1315.866	3170
1318.131	3245
1320.396	3222
1322.66	3229
1324.925	3259
1327.187	3215
1329.448	3268
1331.711	3293
1333.974	3298
1336.234	3170
1338.493	3254
1340.752	3197
1343.01	3256
1345.269	3217
1347.526	3235
1349.784	3204
1352.04	3175
1354.295	3203
1356.552	3190
1358.806	3222
1361.059	3283
1363.312	3223
1365.564	3200
1367.818	3259
1370.069	3144
1372.318	3216
1374.568	3266
1376.817	3252
1379.066	3168
1381.316	3282
1383.564	3261
1385.809	3294
1388.056	3271
1390.301	3313
1392.549	3279
1394.793	3314
1397.036	3381
1399.279	3312
1401.522	3293
1403.763	3348
1406.007	3397
1408.248	3411
1410.487	3398
1412.727	3430
1414.965	3369
1417.205	3399
1419.442	3337
1421.68	3378
1423.915	3411
1426.152	3357
1428.388	3379
1430.623	3319
1432.857	3458
1435.091	3408
1437.323	3361
1439.556	3403
1441.789	3358
1444.019	3375
1446.25	3382
1448.48	3495
1450.708	3454
1452.938	3489
1455.167	3466
1457.394	3360
1459.62	3427
1461.846	3397
1464.073	3458
1466.299	3407
1468.523	3386
1470.746	3430
1472.969	3408
1475.191	3356
1477.415	3269
1479.636	3306
1481.858	3275
1484.078	3306
1486.298	3154
1488.518	3221
1490.736	3302
1492.954	3307
1495.169	3235
1497.386	3248
1499.602	3228
1501.819	3127
1504.034	3230
1506.248	3137
1508.462	3201
1510.675	3196
1512.888	3191
1515.1	3208
1517.311	3190
1519.522	3154
1521.732	3218
1523.942	3207
1526.151	3260
1528.36	3239
1530.566	3208
1532.773	3250
1534.98	3212
1537.187	3207
1539.392	3206
1541.596	3168
1543.801	3288
1546.005	3258
1548.208	3203
1550.411	3233
1552.612	3290
1554.814	3306
1557.013	3307
1559.212	3307
1561.414	3286
1563.612	3258
1565.811	3250
1568.007	3339
1570.203	3335
1572.403	3221
1574.598	3383
1576.792	3355
1578.988	3336
1581.181	3320
1583.376	3359
1585.568	3298
1587.761	3279
1589.952	3219
1592.143	3309
1594.333	3315
1596.524	3377
1598.715	3368
1600.903	3326
1603.091	3318
1605.278	3303
1607.466	3297
1609.652	3361
1611.838	3389
1614.023	3327
1616.207	3325
1618.391	3324
1620.576	3384
1622.759	3405
1624.941	3377
1627.123	3335
1629.304	3370
1631.484	3300
1633.664	3400
1635.844	3463
1638.022	3454
1640.201	3336
1642.38	3409
1644.556	3457
1646.732	3379
1648.908	3396
1651.084	3427
1653.257	3424
1655.433	3367
1657.607	3481
1659.779	3453
1661.951	3509
1664.122	3461
1666.295	3566
1668.467	3462
1670.635	3572
1672.805	3417
1674.973	3510
1677.142	3386
1679.31	3489
1681.478	3490
1683.644	3404
1685.81	3421
1687.975	3473
1690.142	3421
1692.305	3478
1694.468	3379
1696.632	3459
1698.794	3406
1700.957	3368
1703.119	3441
1705.279	3378
1707.439	3344
1709.598	3376
1711.758	3386
1713.917	3299
1716.075	3340
1718.231	3365
1720.388	3307
1722.543	3392
1724.702	3353
1726.856	3305
1729.01	3346
1731.164	3286
1733.317	3295
1735.471	3311
1737.623	3332
1739.774	3298
1741.925	3343
1744.075	3309
1746.225	3324
1748.376	3341
1750.524	3258
1752.672	3345
1754.82	3368
1756.965	3369
1759.113	3290
1761.259	3310
1763.405	3407
1765.549	3389
1767.694	3337
1769.836	3420
1771.981	3379
1774.123	3350
1776.264	3395
1778.405	3400
1780.546	3403
1782.687	3331
1784.827	3302
1786.966	3364
1789.103	3374
1791.242	3326
1793.381	3382
1795.517	3411
1797.653	3417
1799.788	3333
1801.923	3333
1804.057	3343
1806.193	3330
1808.326	3335
1810.457	3268
1812.59	3393
1814.721	3398
1816.855	3397
1818.984	3384
1821.113	3364
1823.244	3318
1825.372	3389
1827.499	3324
1829.63	3386
1831.756	3333
1833.882	3325
1836.007	3341
1838.132	3279
1840.26	3331
1842.384	3272
1844.507	3294
1846.63	3334
1848.752	3317
1850.875	3294
1852.996	3409
1855.118	3338
1857.238	3288
1859.358	3369
1861.477	3394
1863.597	3340
1865.715	3365
1867.832	3279
1869.948	3320
1872.064	3343
1874.181	3345
1876.297	3294
1878.411	3361
1880.526	3365
1882.639	3338
1884.752	3389
1886.865	3430
1888.977	3402
1891.089	3365
1893.2	3390
1895.308	3352
1897.42	3398
1899.53	3334
1901.639	3361
1903.745	3387
1905.853	3376
1907.962	3441
1910.067	3358
1912.174	3431
1914.278	3418
1916.383	3259
1918.486	3392
1920.592	3430
1922.694	3372
1924.797	3309
1926.898	3409
1929	3400
1931.102	3339
1933.203	3407
1935.301	3402
1937.401	3379
1939.499	3445
1941.598	3433
1943.697	3484
1945.793	3411
1947.888	3450
1949.985	3400
1952.08	3315
1954.176	3384
1956.269	3328
1958.364	3421
1960.457	3302
1962.549	3429
1964.642	3412
1966.733	3430
1968.823	3310
1970.913	3401
1973.005	3315
1975.093	3405
1977.184	3362
1979.271	3398
1981.359	3341
1983.446	3406
1985.532	3428
1987.619	3338
1989.705	3400
1991.789	3369
1993.874	3370
1995.956	3408
1998.041	3297
2000.123	3331
2002.206	3363
2004.287	3320
2006.368	3413
2008.449	3394
2010.529	3349
2012.609	3407
2014.688	3415
2016.766	3458
2018.843	3295
2020.922	3312
2022.999	3333
2025.074	3404
2027.15	3363
2029.225	3413
2031.299	3293
2033.375	3399
2035.447	3404
2037.52	3371
2039.592	3400
2041.664	3328
2043.736	3363
2045.807	3333
2047.876	3344
2049.947	3313
2052.015	3383
2054.086	3322
2056.153	3474
2058.221	3385
2060.288	3410
2062.353	3395
2064.42	3340
2066.486	3394
2068.55	3421
2070.614	3350
2072.678	3418
2074.741	3385
2076.805	3471
2078.866	3407
2080.929	3406
2082.99	3383
2085.049	3439
2087.109	3408
2089.17	3291
2091.228	3342
2093.286	3466
2095.344	3343
2097.4	3372
2099.46	3408
2101.516	3416
2103.572	3352
2105.626	3387
2107.679	3457
2109.735	3436
2111.788	3446
2113.841	3406
2115.894	3387
2117.945	3502
2119.997	3358
2122.049	3347
2124.1	3388
2126.148	3413
2128.197	3332
2130.246	3348
2132.296	3331
2134.342	3265
2136.39	3449
2138.437	3393
2140.483	3430
2142.527	3378
2144.574	3379
2146.619	3354
2148.661	3378
2150.705	3356
2152.747	3423
2154.792	3347
2156.832	3280
2158.874	3292
2160.915	3346
2162.954	3397
2164.995	3317
2167.034	3377
2169.072	3329
2171.111	3407
2173.148	3364
2175.186	3363
2177.223	3321
2179.258	3346
2181.294	3378
2183.328	3299
2185.362	3353
2187.398	3361
2189.431	3297
2191.463	3386
2193.495	3342
2195.528	3293
2197.56	3397
2199.59	3289
2201.62	3298
2203.649	3371
2205.678	3301
2207.708	3303
2209.737	3322
2211.764	3336
2213.791	3416
2215.817	3340
2217.843	3355
2219.87	3313
2221.895	3315
2223.919	3348
2225.942	3401
2227.966	3323
2229.988	3194
2232.012	3283
2234.032	3343
2236.054	3233
2238.074	3339
2240.095	3303
2242.116	3318
2244.135	3301
2246.153	3385
2248.171	3348
2250.188	3362
2252.208	3286
2254.223	3333
2256.239	3391
2258.255	3310
2260.269	3344
2262.283	3365
2264.3	3283
2266.312	3313
2268.325	3326
2270.336	3324
2272.349	3375
2274.362	3266
2276.372	3317
2278.383	3295
2280.392	3345
2282.402	3290
2284.409	3342
2286.418	3289
2288.427	3380
2290.433	3317
2292.441	3352
2294.446	3269
2296.453	3340
2298.459	3322
2300.463	3344
2302.466	3359
2304.471	3299
2306.475	3298
2308.477	3352
2310.478	3337
2312.481	3244
2314.481	3280
2316.481	3325
2318.482	3304
2320.482	3257
2322.48	3271
2324.48	3276
2326.478	3266
2328.476	3314
2330.473	3269
2332.469	3284
2334.465	3291
2336.46	3256
2338.454	3359
2340.45	3289
2342.444	3306
2344.437	3256
2346.43	3267
2348.421	3278
2350.414	3252
2352.405	3341
2354.396	3297
2356.386	3323
2358.376	3274
2360.366	3244
2362.355	3254
2364.343	3286
2366.331	3256
2368.317	3294
2370.304	3206
2372.292	3236
2374.278	3311
2376.262	3318
2378.247	3268
2380.23	3245
2382.216	3250
2384.199	3208
2386.181	3278
2388.163	3197
2390.144	3207
2392.127	3298
2394.107	3215
2396.087	3216
2398.066	3294
2400.046	3187
2402.023	3196
2404.004	3183
2405.981	3150
2407.957	3242
2409.934	3140
2411.91	3244
2413.886	3273
2415.862	3284
2417.836	3222
2419.809	3270
2421.784	3228
2423.756	3216
2425.73	3315
2427.701	3244
2429.672	3218
2431.644	3228
2433.615	3215
2435.586	3211
2437.555	3180
2439.523	3260
2441.491	3219
2443.459	3267
2445.428	3257
2447.395	3248
2449.361	3222
2451.327	3172
2453.292	3246
2455.257	3249
2457.223	3151
2459.187	3247
2461.15	3186
2463.113	3255
2465.076	3215
2467.039	3208
2468.999	3183
2470.96	3184
2472.921	3237
2474.881	3185
2476.841	3195
2478.8	3221
2480.759	3144
2482.717	3206
2484.675	3258
2486.63	3195
2488.589	3198
2490.545	3155
2492.5	3150
2494.455	3262
2496.408	3152
2498.364	3254
2500.318	3182
2502.27	3183
2504.223	3169
2506.174	3205
2508.126	3198
2510.078	3107
2512.03	3181
2513.979	3265
2515.927	3170
2517.877	3165
2519.826	3236
2521.775	3250
2523.722	3166
2525.668	3220
2527.616	3150
2529.561	3178
2531.508	3114
2533.452	3160
2535.398	3170
2537.342	3197
2539.284	3169
2541.229	3154
2543.173	3103
2545.114	3200
2547.055	3192
2548.996	3155
2550.938	3205
2552.878	3161
2554.817	3160
2556.756	3130
2558.695	3228
2560.633	3114
2562.572	3129
2564.509	3200
2566.445	3094
2568.382	3204
2570.317	3178
2572.254	3128
2574.189	3159
2576.123	3157
2578.057	3178
2579.99	3178
2581.923	3125
2583.855	3294
2585.788	3191
2587.719	3263
2589.65	3181
2591.579	3207
2593.511	3142
2595.44	3176
2597.37	3129
2599.297	3215
2601.225	3211
2603.153	3148
2605.08	3120
2607.007	3211
2608.932	3151
2610.858	3206
2612.782	3158
2614.709	3117
2616.632	3125
2618.556	3249
2620.478	3183
2622.401	3228
2624.324	3226
2626.247	3154
2628.167	3267
2630.088	3230
2632.008	3248
2633.928	3181
2635.848	3223
2637.766	3309
2639.684	3202
2641.603	3179
2643.519	3197
2645.437	3151
2647.353	3201
2649.27	3152
2651.184	3260
2653.099	3221
2655.014	3189
2656.928	3311
2658.842	3200
2660.755	3151
2662.667	3286
2664.579	3144
2666.491	3235
2668.402	3191
2670.312	3134
2672.222	3180
2674.132	3112
2676.042	3212
2677.951	3106
2679.859	3124
2681.766	3136
2683.674	3206
2685.582	3101
2687.488	3195
2689.392	3216
2691.298	3160
2693.202	3192
2695.107	3146
2697.012	3151
2698.914	3148
2700.817	3203
2702.72	3161
2704.622	3147
2706.524	3156
2708.425	3199
2710.326	3087
2712.225	3190
2714.125	3197
2716.024	3209
2717.923	3101
2719.822	3176
2721.719	3168
2723.616	3275
2725.512	3184
2727.41	3133
2729.305	3140
2731.201	3055
2733.095	3124
2734.99	3155
2736.884	3133
2738.778	3162
2740.67	3164
2742.562	3171
2744.455	3128
2746.346	3223
2748.238	3199
2750.129	3199
2752.018	3077
2753.907	3137
2755.797	3133
2757.687	3176
2759.575	3083
2761.462	3108
2763.349	3179
2765.237	3114
2767.124	3158
2769.009	3157
2770.894	3179
2772.779	3161
2774.663	3235
2776.547	3130
2778.431	3144
2780.314	3142
2782.197	3127
2784.078	3139
2785.96	3167
2787.842	3167
2789.723	3169
2791.603	3145
2793.483	3091
2795.362	3054
2797.241	3139
2799.121	3084
2800.997	3149
2802.874	3075
2804.751	3111
2806.628	3099
2808.506	3110
2810.38	3119
2812.255	3091
2814.13	3132
2816.003	3150
2817.878	3175
2819.752	3199
2821.623	3146
2823.496	3186
2825.368	3150
2827.238	3141
2829.111	3177
2830.98	3179
2832.851	3123
2834.719	3145
2836.589	3143
2838.458	3171
2840.327	3199
2842.193	3231
2844.061	3146
2845.927	3226
2847.794	3222
2849.66	3145
2851.525	3245
2853.39	3246
2855.254	3279
2857.117	3234
2858.983	3244
2860.845	3283
2862.707	3277
2864.569	3295
2866.431	3265
2868.293	3271
2870.154	3376
2872.013	3342
2873.873	3372
2875.733	3397
2877.592	3396
2879.451	3456
2881.309	3547
2883.166	3533
2885.022	3569
2886.879	3580
2888.736	3559
2890.591	3601
2892.446	3563
2894.301	3619
2896.155	3523
2898.009	3573
2899.863	3646
2901.716	3534
2903.568	3563
2905.419	3644
2907.27	3608
2909.123	3713
2910.973	3590
2912.824	3685
2914.673	3692
2916.521	3795
2918.372	3740
2920.22	3809
2922.067	3696
2923.914	3811
2925.761	3795
2927.607	3900
2929.455	3885
2931.301	4001
2933.144	3981
2934.99	4049
2936.833	4072
2938.678	4106
2940.522	4178
2942.364	4210
2944.207	4192
2946.048	4213
2947.891	4265
2949.731	4265
2951.571	4243
2953.412	4300
2955.25	4166
2957.09	4169
2958.93	4086
2960.767	4154
2962.606	4079
2964.443	3966
2966.279	3948
2968.116	3894
2969.953	3904
2971.788	3879
2973.623	3832
2975.457	3765
2977.292	3808
2979.127	3705
2980.959	3649
2982.792	3629
2984.624	3611
2986.455	3581
2988.288	3604
2990.119	3585
2991.949	3544
2993.779	3613
2995.608	3582
2997.439	3519
2999.268	3558
3001.096	3347
3002.923	3400
3004.751	3401
3006.578	3418
3008.406	3301
3010.232	3304
3012.057	3339
3013.883	3198
3015.706	3185
3017.532	3189
3019.356	3149
3021.179	3202
3023.002	3239
3024.823	3141
3026.646	3098
3028.469	3089
3030.289	3103
3032.11	3077
3033.93	3064
3035.749	3097
3037.57	3082
3039.39	3045
3041.207	3031
3043.026	3078
3044.842	3104
3046.661	3084
3048.477	3096
3050.294	3091
3052.109	3063
3053.925	3078
3055.739	3076
3057.555	3057
3059.368	3000
3061.181	3073
3062.995	3009
3064.807	3110
3066.62	2981
3068.433	3063
3070.243	3058
3072.054	2946
3073.865	3068
3075.675	3022
3077.485	3066
3079.293	2972
3081.102	3084
3082.911	2992
3084.719	3029
3086.527	2985
3088.333	3006
3090.139	3005
3091.945	2972
3093.75	2996
3095.557	2989
3097.361	2982
3099.165	3001
3100.969	2984
3102.772	2990
3104.575	2991
3106.379	3029
3108.181	3014
3109.982	2867
3111.783	2940
3113.584	2938
3115.386	2976
3117.186	2995
3118.985	2989
3120.783	2975
3122.582	2987
3124.381	2936
3126.179	2960
3127.975	2876
3129.772	2924
3131.569	2918
3133.365	2948
3135.161	2871
3136.956	2972
3138.751	2926
3140.544	2856
3142.338	2957
3144.132	2886
3145.925	2894
3147.717	2897
3149.509	2913
3151.301	2895
3153.091	2862
3154.884	2901
3156.673	2997
3158.462	2885
3160.252	2940
3162.041	2930
3163.831	2854
3165.618	2877
3167.405	2947
3169.193	2916
3170.979	2874
3172.767	2960
3174.553	2895
3176.338	2884
3178.123	2882
3179.907	2894
3181.692	2853
3183.477	2859
3185.259	2908
3187.042	2892
3188.824	2870
3190.607	2866
3192.389	2888
3194.17	2925
3195.951	2877
3197.73	2914
3199.51	2934
3201.289	2825
3203.07	2981
3204.848	2896
3206.626	2919
3208.403	2848
3210.18	2875
3211.959	2848
3213.735	2887
3215.511	2922
3217.285	2879
3219.06	2884
3220.836	2865
3222.611	2920
3224.384	2960
3226.158	2940
3227.929	2892
3229.702	2912
3231.476	2893
3233.248	2900
3235.018	2865
3236.789	2883
3238.56	2916
3240.33	2910
3242.1	2860
3243.869	2906
3245.637	2914
3247.405	2927
3249.172	2978
3250.941	2909
3252.707	2843
3254.474	2865
3256.24	2939
3258.006	2936
3259.772	2943
3261.537	2913
3263.301	2892
3265.065	2862
3266.828	2941
3268.592	2909
3270.355	2822
3272.117	2897
3273.878	2938
3275.64	2954
3277.401	3006
3279.162	2932
3280.922	2952
3282.682	2887
3284.441	2922
3286.199	2932
3287.959	2992
3289.716	2939
3291.475	2942
3293.232	2981
3294.988	2901
3296.744	2832
3298.501	2904
3300.256	2966
3302.011	3016
3303.766	2913
3305.52	2880
3307.275	2915
3309.028	2894
3310.781	2883
3312.533	2923
3314.285	2941
3316.038	2876
3317.789	2998
3319.54	2931
3321.289	2893
3323.039	2918
3324.789	2986
3326.539	2853
3328.288	2908
3330.035	2940
3331.783	2913
3333.531	2929
3335.28	2879
3337.025	2839
3338.771	2917
3340.518	2912
3342.262	2937
3344.009	2861
3345.753	2874
3347.497	2909
3349.24	2853
3350.983	2904
3352.726	2923
3354.469	2913
3356.212	2899
3357.952	2890
3359.694	2885
3361.434	2841
3363.176	2861
3364.916	2857
3366.654	2932
3368.394	2862
3370.132	2808
3371.871	2786
3373.61	2805
3375.346	2826
3377.083	2883
3378.82	2833
3380.556	2800
3382.292	2828
3384.027	2865
3385.763	2815
3387.497	2847
3389.231	2795
3390.965	2853
3392.698	2776
3394.431	2853
3396.164	2813
3397.896	2879
3399.627	2800
3401.36	2761
3403.09	2825
3404.82	2818
3406.55	2861
3408.279	2752
3410.01	2738
3411.738	2757
3413.467	2795
3415.194	2775
3416.92	2865
3418.647	2759
3420.375	2792
3422.102	2732
3423.827	2773
3425.553	2725
3427.277	2792
3429.003	2786
3430.727	2745
3432.451	2763
3434.173	2731
3435.896	2699
3437.62	2771
3439.343	2731
3441.063	2771
3442.785	2725
3444.505	2714
3446.226	2765
3447.948	2739
3449.666	2744
3451.386	2677
3453.104	2740
3454.823	2690
3456.541	2699
3458.259	2711
3459.976	2673
3461.693	2746
3463.408	2724
3465.125	2793
3466.841	2679
3468.556	2709
3470.271	2727
3471.985	2670
3473.698	2696
3475.414	2727
3477.126	2717
3478.838	2649
3480.55	2665
3482.263	2719
3483.975	2625
3485.686	2655
3487.396	2628
3489.106	2640
3490.817	2634
3492.526	2649
3494.236	2653
3495.944	2669
3497.652	2607
3499.359	2697
3501.066	2599
3502.775	2600
3504.481	2641
3506.187	2662
3507.893	2655
3509.598	2618
3511.304	2577
3513.009	2528
3514.713	2618
3516.417	2587
3518.12	2608
3519.821	2558
3521.525	2554
3523.228	2600
3524.929	2542
3526.631	2632
3528.33	2501
3530.032	2554
3531.733	2627
3533.433	2558
3535.131	2516
3536.83	2603
3538.529	2542
3540.227	2526
3541.925	2522
3543.623	2513
3545.319	2521
3547.016	2539
3548.712	2610
3550.408	2570
3552.103	2535
3553.798	2565
3555.491	2514
3557.188	2527
3558.88	2477
3560.574	2539
3562.266	2528
3563.959	2536
3565.651	2536
3567.343	2542
3569.035	2494
3570.725	2501
3572.415	2501
3574.106	2504
3575.797	2581
3577.485	2520
3579.174	2487
3580.863	2478
3582.551	2492
3584.238	2517
3585.926	2417
3587.613	2491
3589.3	2517
3590.986	2501
3592.671	2456
3594.357	2425
3596.042	2470
3597.726	2497
3599.41	2424
3601.094	2457
3602.778	2414
3604.461	2375
3606.143	2447
3607.825	2415
3609.507	2354
3611.188	2476
3612.87	2435
3614.551	2373
3616.229	2436
3617.909	2347
3619.589	2381
3621.269	2404
3622.948	2425
3624.625	2416
3626.302	2363
3627.98	2369
3629.657	2353
3631.334	2335
3633.01	2360
3634.686	2350
3636.361	2351
3638.036	2366
3639.712	2370
3641.385	2327
3643.06	2388
3644.732	2363
3646.405	2327
3648.08	2277
3649.751	2296
3651.424	2341
3653.094	2401
3654.766	2304
3656.436	2275
3658.106	2373
3659.777	2300
3661.446	2333
3663.115	2277
3664.783	2274
3666.452	2319
3668.121	2312
3669.788	2272
3671.454	2283
3673.121	2293
3674.789	2329
3676.455	2286
3678.12	2257
3679.784	2316
3681.45	2291
3683.114	2248
3684.779	2281
3686.442	2276
3688.105	2257
3689.768	2255
3691.43	2328
3693.093	2303
3694.754	2285
3696.415	2217
3698.076	2275
3699.736	2251
3701.396	2263
3703.057	2209
3704.716	2297
3706.375	2224
3708.034	2297
3709.692	2259
3711.351	2216
3713.008	2193
3714.665	2309
3716.321	2250
3717.977	2313
3719.634	2239
3721.29	2252
3722.945	2269
3724.598	2252
3726.253	2249
3727.907	2193
3729.561	2278
3731.214	2252
3732.867	2287
3734.518	2204
3736.171	2252
3737.824	2306
3739.474	2276
3741.125	2230
3742.775	2213
3744.425	2203
3746.074	2228
3747.725	2178
3749.373	2274
3751.022	2241
3752.669	2246
3754.318	2199
3755.966	2237
3757.612	2209
3759.259	2219
3760.905	2253
3762.55	2165
3764.197	2176
3765.842	2233
3767.486	2214
3769.131	2202
3770.774	2178
3772.417	2187
3774.061	2158
3775.705	2248
3777.347	2249
3778.988	2153
3780.629	2212
3782.271	2188
3783.912	2141
3785.552	2234
3787.192	2159
3788.831	2193
3790.472	2165
3792.112	2134
3793.75	2239
3795.388	2171
3797.024	2151
3798.661	2159
3800.3	2148
3801.936	2170
3803.572	2116
3805.208	2189
3806.844	2192
3808.48	2179
3810.115	2071
3811.748	2175
3813.382	2096
3815.016	2138
3816.649	2120
3818.283	2118
3819.914	2105
3821.547	2070
3823.178	2192
3824.809	2138
3826.441	2171
3828.072	2158
3829.701	2115
3831.331	2137
3832.96	2108
3834.591	2118
3836.219	2148
3837.847	2155
3839.475	2072
3841.102	2136
3842.729	2102
3844.357	2135
3845.984	2089
3847.609	2093
3849.234	2078
3850.86	2066
3852.485	2069
3854.11	2053
3855.734	2092
3857.357	2140
3858.981	2126
3860.603	2093
3862.227	2112
3863.848	2153
3865.471	2163
3867.092	2035
3868.713	2082
3870.334	2061
3871.954	2082
3873.575	2088
3875.194	2125
3876.813	2064
3878.433	2094
3880.051	2069
3881.669	2087
3883.286	2050
3884.904	2078
3886.52	2031
3888.138	2031
3889.754	2065
3891.37	2087
3892.985	2027
3894.6	2040
3896.216	2071
3897.831	2075
3899.444	2093
3901.058	2040
3902.67	2045
3904.283	2131
3905.897	2069
3907.509	2057
3909.121	2073
3910.731	2032
3912.342	2054
3913.954	2003
3915.563	2004
3917.174	2099
3918.783	2104
3920.391	2039
3922.002	2082
3923.611	1979
3925.218	2033
3926.826	2058
3928.432	2040
3930.039	2043
3931.647	2003
3933.253	2090
3934.859	2005
3936.464	2066
3938.068	2081
3939.675	2043
3941.278	2059
3942.883	1966
3944.486	2062
3946.089	1991
3947.692	1986
3949.295	2035
3950.898	2030
3952.499	2002
3954.1	2022
3955.7	1978
3957.303	2022
3958.903	2041
3960.502	2003
3962.101	1976
3963.7	1993
3965.301	1980
3966.899	2037
3968.497	2009
3970.094	2034
3971.691	1986
3973.288	2020
3974.885	1973
3976.481	2004
3978.077	1991
3979.672	1988
3981.267	1987
3982.863	2015
3984.457	2056
3986.051	1969
3987.645	2011
3989.238	1991
3990.831	2025
3992.425	1981
3994.017	1979
3995.607	1938
3997.199	2004
3998.79	1992
4000.382	1966
4001.973	1948
4003.561	1977
4005.151	1953
4006.741	1975
4008.331	1996
4009.918	1958
4011.507	1883
4013.095	1932
4014.681	1953
4016.269	1955
4017.856	1949
4019.443	1942
4021.028	1929
4022.614	1939
4024.199	1949
4025.785	1867
4027.37	1937
4028.953	1959
4030.536	1934
4032.12	1936
4033.704	1893
4035.287	1964
4036.869	1879
4038.45	1932
4040.032	1965
4041.613	1885
4043.195	1923
4044.776	1885
4046.356	1928
4047.935	1891
4049.515	1915
4051.095	1875
4052.674	1899
4054.251	1888
4055.829	1927
4057.406	1929
4058.985	1866
4060.562	1871
4062.139	1921
4063.715	1857
4065.29	1867
4066.865	1870
4068.442	1899
4070.016	1866
4071.59	1913
4073.164	1800
4074.738	1866
4076.312	1899
4077.885	1848
4079.458	1893
4081.03	1860
4082.602	1941
4084.173	1869
4085.745	1880
4087.315	1896
4088.886	1820
4090.456	1865
4092.026	1872
4093.596	1870
4095.165	1821
4096.734	1903
4098.301	1868
4099.869	1863
4101.437	1893
4103.006	1879
4104.572	1838
4106.139	1841
4107.704	1866
4109.27	1838
4110.837	1837
4112.401	1812
4113.966	1860
4115.53	1849
4117.094	1873
4118.659	1858
4120.223	1835
4121.785	1844
4123.347	1839
4124.909	1820
4126.471	1844
4128.034	1870
4129.595	1858
4131.155	1842
4132.716	1790
4134.275	1844
4135.836	1844
4137.395	1817
4138.955	1759
4140.513	1788
4142.071	1796
4143.628	1818
4145.188	1846
4146.745	1800
4148.302	1747
4149.858	1804
4151.414	1801
4152.971	1841
4154.526	1808
4156.081	1793
4157.635	1776
4159.189	1816
4160.745	1774
4162.298	1786
4163.852	1793
4165.405	1756
4166.957	1814
4168.51	1766
4170.063	1752
4171.614	1725
4173.166	1789
4174.717	1745
4176.267	1772
4177.817	1742
4179.368	1789
4180.917	1777
4182.466	1707
4184.016	1771
4185.564	1697
4187.112	1704
4188.66	1777
4190.207	1748
4191.754	1784
4193.301	1758
4194.848	1688
4196.394	1731
4197.94	1727
4199.484	1704
4201.03	1765
4202.575	1757
4204.12	1730
4205.663	1765
4207.207	1745
4208.75	1711
4210.292	1789
4211.836	1751
4213.378	1752
4214.92	1721
4216.46	1746
4218.002	1751
4219.544	1700
4221.083	1726
4222.625	1707
4224.164	1698
4225.703	1719
4227.244	1713
4228.782	1677
4230.32	1737
4231.857	1734
4233.395	1707
4234.933	1776
4236.471	1683
4238.007	1657
4239.542	1681
4241.078	1669
4242.614	1692
4244.15	1683
4245.685	1711
4247.219	1660
4248.753	1717
4250.287	1723
4251.82	1670
4253.354	1698
4254.887	1695
4256.419	1707
4257.951	1669
4259.483	1684
4261.016	1714
4262.547	1658
4264.078	1683
4265.608	1695
4267.137	1704
4268.668	1673
4270.197	1727
4271.727	1722
4273.254	1687
4274.783	1716
4276.311	1690
4277.84	1694
4279.366	1715
4280.894	1663
4282.42	1692
4283.946	1708
4285.473	1660
4286.998	1683
4288.523	1691
4290.047	1713
4291.572	1713
4293.096	1639
4294.622	1700
4296.144	1664
4297.668	1598
4299.19	1674
4300.713	1713
4302.236	1669
4303.758	1662
4305.279	1660
4306.799	1707
4308.321	1669
4309.842	1652
4311.361	1656
4312.882	1659
4314.401	1651
