400.0961	2380
402.6185	2309
405.1424	2271
407.6635	2383
410.1838	2309
412.7035	2340
415.2225	2383
417.7388	2404
420.2585	2368
422.7754	2452
425.2917	2444
427.8072	2492
430.3221	2540
432.8363	2502
435.3498	2503
437.8626	2532
440.3727	2466
442.8841	2497
445.3969	2503
447.907	2487
450.4142	2448
452.9229	2451
455.4289	2467
457.9362	2419
460.4449	2493
462.9488	2471
465.454	2439
467.9566	2510
470.4604	2498
472.9637	2434
475.4662	2501
477.966	2411
480.4671	2447
482.9656	2415
485.4633	2398
487.9645	2437
490.4608	2445
492.9566	2492
495.4536	2469
497.948	2440
500.4437	2470
502.9387	2489
505.431	2476
507.9226	2487
510.4136	2489
512.9079	2459
515.3975	2472
517.8864	2483
520.3746	2539
522.8622	2526
525.3491	2535
527.8394	2479
530.3249	2485
532.8098	2481
535.2939	2460
537.7774	2485
540.2623	2470
542.7444	2534
545.2259	2511
547.7067	2573
550.1868	2561
552.6683	2483
555.147	2548
557.6231	2539
560.1005	2563
562.5773	2537
565.0534	2531
567.5308	2574
570.0056	2506
572.4776	2556
574.951	2600
577.4237	2648
579.8978	2653
582.3671	2642
584.8378	2687
587.3079	2674
589.7773	2628
592.244	2659
594.714	2604
597.1793	2617
599.6461	2626
602.1121	2632
604.5754	2594
607.0421	2672
609.5042	2548
611.9675	2628
614.4282	2627
616.8902	2565
619.3515	2592
621.8122	2556
624.2702	2568
626.7296	2587
629.1863	2563
631.6423	2570
634.1017	2520
636.5563	2580
639.0104	2549
641.4658	2502
643.9185	2602
646.3725	2563
648.8239	2609
651.2766	2598
653.7266	2537
656.176	2543
658.6247	2594
661.0748	2583
663.5242	2631
665.9709	2549
668.417	2640
670.8624	2554
673.3092	2649
675.7533	2622
678.1968	2557
680.6395	2565
683.0817	2626
685.5251	2612
687.9659	2719
690.4061	2647
692.8456	2598
695.2844	2647
697.7226	2601
700.1621	2674
702.599	2683
705.0332	2665
707.4688	2671
709.9036	2731
712.3399	2697
714.7735	2664
717.2044	2695
719.6367	2762
722.0683	2688
724.4993	2727
726.9296	2671
729.3593	2720
731.7883	2713
734.2147	2701
736.6423	2750
739.0714	2741
741.4958	2777
743.9216	2725
746.3447	2747
748.7691	2828
751.1929	2847
753.616	2766
756.0366	2837
758.4584	2795
760.8776	2783
763.2982	2748
765.718	2879
768.1373	2804
770.5539	2812
772.9698	2839
775.3871	2866
777.8038	2840
780.2178	2853
782.6332	2797
785.0459	2790
787.458	2776
789.8714	2793
792.2842	2764
794.6943	2769
797.1038	2830
799.5127	2791
801.9209	2831
804.3324	2814
806.7393	2819
809.1456	2854
811.5513	2875
813.9562	2854
816.3625	2859
818.7663	2905
821.1693	2799
823.5718	2887
825.9735	2827
828.3746	2813
830.7771	2828
833.177	2857
835.5762	2811
837.9747	2919
840.3727	2922
842.772	2885
845.1666	2852
847.5626	2926
849.958	2924
852.3527	2957
854.7488	2903
857.1403	2932
859.5331	3011
861.9253	2981
864.3168	2927
866.7057	2892
869.098	2967
871.4876	3046
873.8746	2944
876.263	2903
878.6487	2945
881.0378	3018
883.4243	2925
885.8081	2903
888.1933	2873
890.5759	2888
892.9598	2964
895.343	2985
897.7256	2936
900.1057	2932
902.4871	2943
904.8659	2873
907.246	2980
909.6254	3020
912.0023	2974
914.3786	3067
916.7562	3089
919.1331	2992
921.5074	3015
923.8831	3068
926.2562	3105
928.6287	3094
931.0005	3069
933.3757	3044
935.7462	3128
938.1162	3143
940.4855	3212
942.8542	3284
945.2242	3393
947.5916	3447
949.9584	3536
952.3266	3738
954.6921	3879
957.0571	4142
959.4233	4304
961.787	4376
964.15	4245
966.5125	4116
968.8742	3934
971.2354	3668
973.5959	3494
975.9559	3261
978.3151	3142
980.6738	3139
983.0338	3113
985.3912	2983
987.7461	3140
990.1022	3035
992.4578	3046
994.8127	3065
997.1689	3060
999.5207	3054
1001.874	3059
1004.226	3050
1006.576	3108
1008.929	3070
1011.28	3030
1013.628	3109
1015.977	3070
1018.324	3095
1020.674	3048
1023.019	3117
1025.366	3100
1027.713	3140
1030.056	3170
1032.399	3168
1034.746	3102
1037.087	3129
1039.431	3128
1041.771	3130
1044.113	3121
1046.454	3198
1048.793	3171
1051.133	3080
1053.471	3169
1055.807	3121
1058.146	3177
1060.483	3132
1062.818	3156
1065.153	3291
1067.489	3205
1069.822	3256
1072.156	3275
1074.488	3245
1076.82	3269
1079.15	3193
1081.48	3210
1083.814	3129
1086.143	3254
1088.471	3156
1090.799	3173
1093.126	3135
1095.452	3124
1097.78	3176
1100.105	3096
1102.43	3173
1104.754	3120
1107.077	3160
1109.4	3207
1111.722	3135
1114.044	3149
1116.365	3165
1118.685	3088
1121.005	3171
1123.324	3074
1125.643	3111
1127.961	3119
1130.278	3128
1132.595	3136
1134.911	3098
1137.226	3150
1139.541	3061
1141.854	3149
1144.167	3103
1146.482	3039
1148.793	3130
1151.105	3093
1153.414	3136
1155.725	3110
1158.033	3050
1160.344	3126
1162.651	3122
1164.959	3174
1167.265	3088
1169.572	3068
1171.878	3115
1174.184	3159
1176.488	3131
1178.79	3160
1181.094	3058
1183.396	3114
1185.699	3080
1188.001	3077
1190.301	3137
1192.6	3167
1194.9	3128
1197.2	3133
1199.497	3112
1201.794	3137
1204.09	3124
1206.387	3192
1208.684	3118
1210.978	3167
1213.272	3165
1215.565	3104
1217.858	3103
1220.15	3116
1222.443	3166
1224.734	3196
1227.024	3216
1229.313	3134
1231.602	3210
1233.892	3205
1236.18	3249
1238.467	3310
1240.754	3239
1243.04	3265
1245.325	3335
1247.612	3239
1249.896	3310
1252.178	3248
1254.461	3280
1256.743	3298
1259.027	3293
1261.308	3297
1263.587	3329
1265.867	3238
1268.146	3268
1270.425	3300
1272.703	3293
1274.981	3325
1277.256	3318
1279.532	3211
1281.808	3314
1284.083	3319
1286.358	3260
1288.63	3247
1290.904	3241
1293.175	3186
1295.449	3184
1297.719	3166
1299.99	3286
1302.259	3282
1304.529	3266
1306.798	3202
1309.065	3192
1311.333	3191
1313.599	3225
1315.866	3260
1318.131	3188
1320.396	3218
1322.66	3228
1324.925	3169
1327.187	3289
1329.448	3195
1331.711	3297
1333.974	3167
1336.234	3208
1338.493	3244
1340.752	3276
1343.01	3152
1345.269	3291
1347.526	3192
1349.784	3164
1352.04	3222
1354.295	3252
1356.552	3253
1358.806	3237
1361.059	3210
1363.312	3267
1365.564	3234
1367.818	3217
1370.069	3209
1372.318	3206
1374.568	3233
1376.817	3270
1379.066	3297
1381.316	3216
1383.564	3273
1385.809	3271
1388.056	3270
1390.301	3249
1392.549	3343
1394.793	3361
1397.036	3315
1399.279	3316
1401.522	3317
1403.763	3309
1406.007	3311
1408.248	3310
1410.487	3335
1412.727	3251
1414.965	3350
1417.205	3341
1419.442	3271
1421.68	3342
1423.915	3402
1426.152	3342
1428.388	3402
1430.623	3382
1432.857	3409
1435.091	3357
1437.323	3345
1439.556	3374
1441.789	3395
1444.019	3372
1446.25	3460
1448.48	3445
1450.708	3474
1452.938	3413
1455.167	3530
1457.394	3462
1459.62	3495
1461.846	3397
1464.073	3431
1466.299	3422
1468.523	3413
1470.746	3453
1472.969	3317
1475.191	3378
1477.415	3301
1479.636	3176
1481.858	3396
1484.078	3304
1486.298	3232
1488.518	3248
1490.736	3298
1492.954	3246
1495.169	3197
1497.386	3172
1499.602	3243
1501.819	3205
1504.034	3287
1506.248	3210
1508.462	3231
1510.675	3190
1512.888	3198
1515.1	3221
1517.311	3237
1519.522	3270
1521.732	3311
1523.942	3256
1526.151	3265
1528.36	3332
1530.566	3243
1532.773	3242
1534.98	3258
1537.187	3263
1539.392	3299
1541.596	3211
1543.801	3211
1546.005	3302
1548.208	3201
1550.411	3279
1552.612	3325
1554.814	3300
1557.013	3257
1559.212	3295
1561.414	3268
1563.612	3256
1565.811	3327
1568.007	3322
1570.203	3280
1572.403	3325
1574.598	3271
1576.792	3315
1578.988	3353
1581.181	3372
1583.376	3344
1585.568	3302
1587.761	3340
1589.952	3370
1592.143	3324
1594.333	3374
1596.524	3308
1598.715	3363
1600.903	3386
1603.091	3323
1605.278	3374
1607.466	3355
1609.652	3386
1611.838	3382
1614.023	3366
1616.207	3345
1618.391	3373
1620.576	3367
1622.759	3301
1624.941	3401
1627.123	3343
1629.304	3467
1631.484	3389
1633.664	3505
1635.844	3396
1638.022	3406
1640.201	3415
1642.38	3495
1644.556	3505
1646.732	3479
1648.908	3502
1651.084	3455
1653.257	3486
1655.433	3464
1657.607	3362
1659.779	3556
1661.951	3415
1664.122	3476
1666.295	3450
1668.467	3544
1670.635	3474
1672.805	3534
1674.973	3451
1677.142	3470
1679.31	3494
1681.478	3523
1683.644	3598
1685.81	3508
1687.975	3497
1690.142	3514
1692.305	3409
1694.468	3443
1696.632	3464
1698.794	3487
1700.957	3414
1703.119	3436
1705.279	3368
1707.439	3315
1709.598	3406
1711.758	3365
1713.917	3353
1716.075	3360
1718.231	3331
1720.388	3328
1722.543	3251
1724.702	3286
1726.856	3362
1729.01	3383
1731.164	3340
1733.317	3338
1735.471	3349
1737.623	3294
1739.774	3336
1741.925	3359
1744.075	3362
1746.225	3281
1748.376	3357
1750.524	3447
1752.672	3373
1754.82	3384
1756.965	3328
1759.113	3325
1761.259	3356
1763.405	3442
1765.549	3360
1767.694	3391
1769.836	3424
1771.981	3378
1774.123	3327
1776.264	3370
1778.405	3398
1780.546	3336
1782.687	3427
1784.827	3409
1786.966	3396
1789.103	3349
1791.242	3397
1793.381	3407
1795.517	3374
1797.653	3369
1799.788	3324
1801.923	3413
1804.057	3367
1806.193	3367
1808.326	3406
1810.457	3363
1812.59	3353
1814.721	3475
1816.855	3457
1818.984	3419
1821.113	3333
1823.244	3387
1825.372	3388
1827.499	3358
1829.63	3394
1831.756	3346
1833.882	3396
1836.007	3323
1838.132	3451
1840.26	3422
1842.384	3349
1844.507	3323
1846.63	3410
1848.752	3316
1850.875	3342
1852.996	3441
1855.118	3353
1857.238	3441
1859.358	3322
1861.477	3456
1863.597	3394
1865.715	3414
1867.832	3401
1869.948	3421
1872.064	3377
1874.181	3312
1876.297	3330
1878.411	3390
1880.526	3341
1882.639	3365
1884.752	3333
1886.865	3383
1888.977	3344
1891.089	3393
1893.2	3412
1895.308	3310
1897.42	3328
1899.53	3423
1901.639	3398
1903.745	3382
1905.853	3357
1907.962	3342
1910.067	3373
1912.174	3427
1914.278	3367
1916.383	3387
1918.486	3402
1920.592	3388
1922.694	3485
1924.797	3440
1926.898	3436
1929	3382
1931.102	3477
1933.203	3448
1935.301	3406
1937.401	3491
1939.499	3492
1941.598	3406
1943.697	3402
1945.793	3344
1947.888	3474
1949.985	3439
1952.08	3443
1954.176	3493
1956.269	3469
1958.364	3417
1960.457	3460
1962.549	3373
1964.642	3398
1966.733	3487
1968.823	3451
1970.913	3365
1973.005	3376
1975.093	3451
1977.184	3396
1979.271	3433
1981.359	3437
1983.446	3438
1985.532	3489
1987.619	3416
1989.705	3407
1991.789	3499
1993.874	3510
1995.956	3401
1998.041	3384
2000.123	3331
2002.206	3520
2004.287	3455
2006.368	3398
2008.449	3340
2010.529	3450
2012.609	3462
2014.688	3420
2016.766	3424
2018.843	3411
2020.922	3435
2022.999	3394
2025.074	3330
2027.15	3358
2029.225	3416
2031.299	3341
2033.375	3414
2035.447	3382
2037.52	3382
2039.592	3433
2041.664	3383
2043.736	3382
2045.807	3369
2047.876	3320
2049.947	3483
2052.015	3467
2054.086	3436
2056.153	3395
2058.221	3404
2060.288	3396
2062.353	3421
2064.42	3443
2066.486	3416
2068.55	3486
2070.614	3431
2072.678	3421
2074.741	3470
2076.805	3430
2078.866	3476
2080.929	3456
2082.99	3460
2085.049	3465
2087.109	3438
2089.17	3450
2091.228	3503
2093.286	3465
2095.344	3511
2097.4	3429
2099.46	3424
2101.516	3454
2103.572	3367
2105.626	3356
2107.679	3430
2109.735	3415
2111.788	3372
2113.841	3460
2115.894	3521
2117.945	3524
2119.997	3507
2122.049	3426
2124.1	3470
2126.148	3440
2128.197	3449
2130.246	3470
2132.296	3415
2134.342	3456
2136.39	3448
2138.437	3443
2140.483	3516
2142.527	3444
2144.574	3406
2146.619	3439
2148.661	3440
2150.705	3465
2152.747	3369
2154.792	3370
2156.832	3422
2158.874	3481
2160.915	3369
2162.954	3497
2164.995	3369
2167.034	3389
2169.072	3365
2171.111	3408
2173.148	3378
2175.186	3438
2177.223	3395
2179.258	3448
2181.294	3413
2183.328	3356
2185.362	3469
2187.398	3363
2189.431	3371
2191.463	3383
2193.495	3338
2195.528	3333
2197.56	3424
2199.59	3426
2201.62	3394
2203.649	3440
2205.678	3335
2207.708	3352
2209.737	3358
2211.764	3386
2213.791	3363
2215.817	3343
2217.843	3369
2219.87	3397
2221.895	3415
2223.919	3387
2225.942	3434
2227.966	3358
2229.988	3385
2232.012	3384
2234.032	3359
2236.054	3346
2238.074	3293
2240.095	3365
2242.116	3371
2244.135	3355
2246.153	3356
2248.171	3361
2250.188	3333
2252.208	3295
2254.223	3440
2256.239	3356
2258.255	3440
2260.269	3341
2262.283	3352
2264.3	3276
2266.312	3432
2268.325	3521
2270.336	3320
2272.349	3319
2274.362	3368
2276.372	3379
2278.383	3357
2280.392	3358
2282.402	3420
2284.409	3432
2286.418	3387
2288.427	3294
2290.433	3397
2292.441	3347
2294.446	3425
2296.453	3360
2298.459	3355
2300.463	3422
2302.466	3335
2304.471	3340
2306.475	3427
2308.477	3384
2310.478	3358
2312.481	3383
2314.481	3431
2316.481	3380
2318.482	3369
2320.482	3378
2322.48	3382
2324.48	3295
2326.478	3323
2328.476	3363
2330.473	3378
2332.469	3323
2334.465	3350
2336.46	3360
2338.454	3337
2340.45	3338
2342.444	3375
2344.437	3391
2346.43	3335
2348.421	3306
2350.414	3353
2352.405	3271
2354.396	3276
2356.386	3320
2358.376	3325
2360.366	3374
2362.355	3261
2364.343	3239
2366.331	3356
2368.317	3334
2370.304	3263
2372.292	3344
2374.278	3311
2376.262	3358
2378.247	3313
2380.23	3363
2382.216	3295
2384.199	3275
2386.181	3392
2388.163	3221
2390.144	3279
2392.127	3263
2394.107	3280
2396.087	3361
2398.066	3300
2400.046	3379
2402.023	3215
2404.004	3266
2405.981	3214
2407.957	3293
2409.934	3263
2411.91	3245
2413.886	3320
2415.862	3295
2417.836	3284
2419.809	3277
2421.784	3249
2423.756	3296
2425.73	3299
2427.701	3267
2429.672	3289
2431.644	3278
2433.615	3387
2435.586	3327
2437.555	3330
2439.523	3330
2441.491	3339
2443.459	3318
2445.428	3225
2447.395	3206
2449.361	3267
2451.327	3187
2453.292	3309
2455.257	3339
2457.223	3266
2459.187	3244
2461.15	3298
2463.113	3235
2465.076	3293
2467.039	3200
2468.999	3241
2470.96	3273
2472.921	3231
2474.881	3216
2476.841	3227
2478.8	3227
2480.759	3257
2482.717	3252
2484.675	3289
2486.63	3209
2488.589	3291
2490.545	3211
2492.5	3185
2494.455	3271
2496.408	3233
2498.364	3234
2500.318	3276
2502.27	3235
2504.223	3255
2506.174	3151
2508.126	3241
2510.078	3209
2512.03	3247
2513.979	3311
2515.927	3183
2517.877	3261
2519.826	3251
2521.775	3276
2523.722	3238
2525.668	3289
2527.616	3270
2529.561	3219
2531.508	3173
2533.452	3250
2535.398	3275
2537.342	3165
2539.284	3147
2541.229	3230
2543.173	3253
2545.114	3205
2547.055	3259
2548.996	3272
2550.938	3227
2552.878	3202
2554.817	3276
2556.756	3222
2558.695	3260
2560.633	3235
2562.572	3215
2564.509	3227
2566.445	3233
2568.382	3220
2570.317	3216
2572.254	3227
2574.189	3229
2576.123	3215
2578.057	3225
2579.99	3231
2581.923	3248
2583.855	3187
2585.788	3251
2587.719	3254
2589.65	3218
2591.579	3258
2593.511	3207
2595.44	3251
2597.37	3223
2599.297	3226
2601.225	3273
2603.153	3126
2605.08	3287
2607.007	3253
2608.932	3263
2610.858	3259
2612.782	3259
2614.709	3159
2616.632	3284
2618.556	3185
2620.478	3289
2622.401	3268
2624.324	3235
2626.247	3284
2628.167	3153
2630.088	3235
2632.008	3225
2633.928	3173
2635.848	3241
2637.766	3299
2639.684	3154
2641.603	3279
2643.519	3235
2645.437	3360
2647.353	3234
2649.27	3231
2651.184	3341
2653.099	3207
2655.014	3259
2656.928	3213
2658.842	3280
2660.755	3209
2662.667	3282
2664.579	3308
2666.491	3202
2668.402	3233
2670.312	3364
2672.222	3262
2674.132	3230
2676.042	3222
2677.951	3211
2679.859	3244
2681.766	3229
2683.674	3282
2685.582	3293
2687.488	3229
2689.392	3253
2691.298	3269
2693.202	3241
2695.107	3184
2697.012	3155
2698.914	3235
2700.817	3196
2702.72	3144
2704.622	3214
2706.524	3174
2708.425	3149
2710.326	3234
2712.225	3266
2714.125	3222
2716.024	3182
2717.923	3303
2719.822	3192
2721.719	3164
2723.616	3185
2725.512	3234
2727.41	3250
2729.305	3225
2731.201	3203
2733.095	3215
2734.99	3160
2736.884	3293
2738.778	3240
2740.67	3212
2742.562	3191
2744.455	3182
2746.346	3200
2748.238	3229
2750.129	3252
2752.018	3230
2753.907	3252
2755.797	3242
2757.687	3168
2759.575	3156
2761.462	3185
2763.349	3160
2765.237	3214
2767.124	3138
2769.009	3162
2770.894	3213
2772.779	3206
2774.663	3224
2776.547	3220
2778.431	3129
2780.314	3213
2782.197	3191
2784.078	3217
2785.96	3193
2787.842	3213
2789.723	3207
2791.603	3139
2793.483	3206
2795.362	3251
2797.241	3244
2799.121	3185
2800.997	3156
2802.874	3199
2804.751	3179
2806.628	3161
2808.506	3213
2810.38	3197
2812.255	3171
2814.13	3154
2816.003	3212
2817.878	3231
2819.752	3182
2821.623	3210
2823.496	3233
2825.368	3199
2827.238	3162
2829.111	3208
2830.98	3170
2832.851	3153
2834.719	3192
2836.589	3169
2838.458	3149
2840.327	3158
2842.193	3239
2844.061	3242
2845.927	3202
2847.794	3192
2849.66	3215
2851.525	3262
2853.39	3221
2855.254	3274
2857.117	3238
2858.983	3270
2860.845	3225
2862.707	3302
2864.569	3333
2866.431	3248
2868.293	3286
2870.154	3377
2872.013	3417
2873.873	3411
2875.733	3542
2877.592	3422
2879.451	3546
2881.309	3513
2883.166	3634
2885.022	3668
2886.879	3499
2888.736	3581
2890.591	3612
2892.446	3674
2894.301	3622
2896.155	3611
2898.009	3672
2899.863	3549
2901.716	3611
2903.568	3644
2905.419	3618
2907.27	3603
2909.123	3601
2910.973	3629
2912.824	3643
2914.673	3639
2916.521	3778
2918.372	3693
2920.22	3818
2922.067	3753
2923.914	3830
2925.761	3915
2927.607	3898
2929.455	3908
2931.301	3896
2933.144	4006
2934.99	4096
2936.833	4103
2938.678	4048
2940.522	4153
2942.364	4141
2944.207	4286
2946.048	4338
2947.891	4295
2949.731	4308
2951.571	4210
2953.412	4211
2955.25	4207
2957.09	4203
2958.93	4119
2960.767	4098
2962.606	4066
2964.443	4015
2966.279	4068
2968.116	4020
2969.953	3889
2971.788	3887
2973.623	3844
2975.457	3839
2977.292	3761
2979.127	3752
2980.959	3846
2982.792	3699
2984.624	3663
2986.455	3626
2988.288	3769
2990.119	3630
2991.949	3572
2993.779	3624
2995.608	3571
2997.439	3616
2999.268	3421
3001.096	3472
3002.923	3416
3004.751	3472
3006.578	3416
3008.406	3384
3010.232	3378
3012.057	3278
3013.883	3209
3015.706	3238
3017.532	3286
3019.356	3210
3021.179	3199
3023.002	3178
3024.823	3142
3026.646	3194
3028.469	3126
3030.289	3224
3032.11	3090
3033.93	3093
3035.749	3097
3037.57	3106
3039.39	3077
3041.207	3115
3043.026	3150
3044.842	3052
3046.661	3046
3048.477	3105
3050.294	3042
3052.109	3126
3053.925	3090
3055.739	3132
3057.555	3079
3059.368	3077
3061.181	3074
3062.995	3050
3064.807	3128
3066.62	3023
3068.433	3094
3070.243	3007
3072.054	3025
3073.865	3095
3075.675	3129
3077.485	3040
3079.293	3033
3081.102	3034
3082.911	2999
3084.719	3012
3086.527	3018
3088.333	3024
3090.139	3074
3091.945	3061
3093.75	2976
3095.557	2975
3097.361	2993
3099.165	3075
3100.969	3022
3102.772	2954
3104.575	3026
3106.379	3014
3108.181	3040
3109.982	2977
3111.783	2931
3113.584	3026
3115.386	3002
3117.186	2923
3118.985	3008
3120.783	2956
3122.582	3000
3124.381	2949
3126.179	3003
3127.975	3020
3129.772	2974
3131.569	2945
3133.365	2975
3135.161	2927
3136.956	2916
3138.751	2962
3140.544	2941
3142.338	2922
3144.132	2958
3145.925	2991
3147.717	2950
3149.509	2884
3151.301	2955
3153.091	2960
3154.884	2985
3156.673	2937
3158.462	2948
3160.252	2960
3162.041	2997
3163.831	2948
3165.618	2938
3167.405	2943
3169.193	2981
3170.979	2969
3172.767	2908
3174.553	2916
3176.338	2963
3178.123	2889
3179.907	2948
3181.692	2951
3183.477	2905
3185.259	2942
3187.042	2848
3188.824	2909
3190.607	2948
3192.389	2950
3194.17	2814
3195.951	3017
3197.73	2908
3199.51	2923
3201.289	2898
3203.07	2916
3204.848	2917
3206.626	2922
3208.403	2974
3210.18	2962
3211.959	2961
3213.735	2912
3215.511	2921
3217.285	2957
3219.06	3012
3220.836	2866
3222.611	2951
3224.384	2921
3226.158	2967
3227.929	2940
3229.702	2993
3231.476	2973
3233.248	2961
3235.018	2962
3236.789	3007
3238.56	2902
3240.33	2979
3242.1	2988
3243.869	2915
3245.637	2975
3247.405	2970
3249.172	2926
3250.941	2938
3252.707	2899
3254.474	2994
3256.24	2956
3258.006	2938
3259.772	2906
3261.537	2907
3263.301	2914
3265.065	2921
3266.828	2919
3268.592	2934
3270.355	2907
3272.117	2914
3273.878	2882
3275.64	2946
3277.401	3011
3279.162	2913
3280.922	2948
3282.682	2998
3284.441	2959
3286.199	2945
3287.959	2962
3289.716	2934
3291.475	2984
3293.232	3067
3294.988	2924
3296.744	2917
3298.501	2968
3300.256	2970
3302.011	3001
3303.766	2951
3305.52	2979
3307.275	2907
3309.028	2923
3310.781	2935
3312.533	2942
3314.285	2922
3316.038	2886
3317.789	3002
3319.54	3003
3321.289	2962
3323.039	2925
3324.789	2994
3326.539	2854
3328.288	2897
3330.035	2968
3331.783	2923
3333.531	3028
3335.28	2953
3337.025	2940
3338.771	2947
3340.518	2939
3342.262	2929
3344.009	2986
3345.753	2978
3347.497	2915
3349.24	2968
3350.983	2961
3352.726	2960
3354.469	2883
3356.212	2880
3357.952	2911
3359.694	2986
3361.434	2838
3363.176	2941
3364.916	2913
3366.654	2902
3368.394	2874
3370.132	2856
3371.871	2941
3373.61	2875
3375.346	2830
3377.083	2901
3378.82	2933
3380.556	2880
3382.292	2832
3384.027	2891
3385.763	2808
3387.497	2869
3389.231	2884
3390.965	2859
3392.698	2849
3394.431	2882
3396.164	2851
3397.896	2840
3399.627	2822
3401.36	2865
3403.09	2849
3404.82	2833
3406.55	2909
3408.279	2853
3410.01	2841
3411.738	2897
3413.467	2786
3415.194	2926
3416.92	2819
3418.647	2848
3420.375	2892
3422.102	2841
3423.827	2841
3425.553	2903
3427.277	2849
3429.003	2780
3430.727	2850
3432.451	2763
3434.173	2789
3435.896	2810
3437.62	2805
3439.343	2766
3441.063	2788
3442.785	2773
3444.505	2772
3446.226	2841
3447.948	2787
3449.666	2761
3451.386	2711
3453.104	2788
3454.823	2754
3456.541	2805
3458.259	2746
3459.976	2758
3461.693	2703
3463.408	2721
3465.125	2732
3466.841	2690
3468.556	2678
3470.271	2776
3471.985	2658
3473.698	2727
3475.414	2770
3477.126	2716
3478.838	2695
3480.55	2712
3482.263	2773
3483.975	2708
3485.686	2701
3487.396	2755
3489.106	2695
3490.817	2668
3492.526	2768
3494.236	2736
3495.944	2632
3497.652	2625
3499.359	2708
3501.066	2699
3502.775	2624
3504.481	2652
3506.187	2629
3507.893	2654
3509.598	2587
3511.304	2650
3513.009	2628
3514.713	2630
3516.417	2640
3518.12	2617
3519.821	2616
3521.525	2661
3523.228	2586
3524.929	2678
3526.631	2589
3528.33	2543
3530.032	2573
3531.733	2629
3533.433	2625
3535.131	2553
3536.83	2690
3538.529	2579
3540.227	2595
3541.925	2619
3543.623	2540
3545.319	2604
3547.016	2609
3548.712	2673
3550.408	2541
3552.103	2666
3553.798	2572
3555.491	2542
3557.188	2569
3558.88	2542
3560.574	2553
3562.266	2526
3563.959	2561
3565.651	2555
3567.343	2544
3569.035	2584
3570.725	2572
3572.415	2506
3574.106	2530
3575.797	2579
3577.485	2525
3579.174	2490
3580.863	2519
3582.551	2570
3584.238	2501
3585.926	2510
3587.613	2538
3589.3	2605
3590.986	2499
3592.671	2538
3594.357	2514
3596.042	2519
3597.726	2485
3599.41	2505
3601.094	2507
3602.778	2463
3604.461	2513
3606.143	2480
3607.825	2425
3609.507	2451
3611.188	2487
3612.87	2447
3614.551	2453
3616.229	2448
3617.909	2403
3619.589	2454
3621.269	2471
3622.948	2427
3624.625	2440
3626.302	2471
3627.98	2367
3629.657	2441
3631.334	2359
3633.01	2372
3634.686	2378
3636.361	2356
3638.036	2382
3639.712	2443
3641.385	2473
3643.06	2466
3644.732	2404
3646.405	2407
3648.08	2333
3649.751	2358
3651.424	2351
3653.094	2433
3654.766	2390
3656.436	2319
3658.106	2368
3659.777	2351
3661.446	2413
3663.115	2336
3664.783	2370
3666.452	2387
3668.121	2342
3669.788	2317
3671.454	2314
3673.121	2337
3674.789	2344
3676.455	2296
3678.12	2331
3679.784	2387
3681.45	2327
3683.114	2297
3684.779	2287
3686.442	2324
3688.105	2382
3689.768	2316
3691.43	2366
3693.093	2309
3694.754	2326
3696.415	2236
3698.076	2319
3699.736	2291
3701.396	2315
3703.057	2395
3704.716	2288
3706.375	2320
3708.034	2270
3709.692	2263
3711.351	2278
3713.008	2250
3714.665	2321
3716.321	2340
3717.977	2261
3719.634	2267
3721.29	2311
3722.945	2296
3724.598	2246
3726.253	2327
3727.907	2310
3729.561	2251
3731.214	2285
3732.867	2294
3734.518	2273
3736.171	2320
3737.824	2260
3739.474	2346
3741.125	2279
3742.775	2282
3744.425	2304
3746.074	2241
3747.725	2234
3749.373	2235
3751.022	2341
3752.669	2205
3754.318	2286
3755.966	2271
3757.612	2223
3759.259	2219
3760.905	2245
3762.55	2279
3764.197	2262
3765.842	2237
3767.486	2268
3769.131	2250
3770.774	2203
3772.417	2252
3774.061	2258
3775.705	2223
3777.347	2287
3778.988	2222
3780.629	2159
3782.271	2242
3783.912	2225
3785.552	2222
3787.192	2198
3788.831	2173
3790.472	2198
3792.112	2244
3793.75	2206
3795.388	2169
3797.024	2219
3798.661	2206
3800.3	2219
3801.936	2214
3803.572	2192
3805.208	2228
3806.844	2278
3808.48	2177
3810.115	2150
3811.748	2190
3813.382	2131
3815.016	2181
3816.649	2149
3818.283	2200
3819.914	2221
3821.547	2187
3823.178	2190
3824.809	2092
3826.441	2162
3828.072	2202
3829.701	2168
3831.331	2144
3832.96	2100
3834.591	2149
3836.219	2146
3837.847	2161
3839.475	2192
3841.102	2128
3842.729	2147
3844.357	2208
3845.984	2084
3847.609	2158
3849.234	2146
3850.86	2136
3852.485	2102
3854.11	2165
3855.734	2072
3857.357	2132
3858.981	2120
3860.603	2121
3862.227	2116
3863.848	2142
3865.471	2094
3867.092	2141
3868.713	2143
3870.334	2123
3871.954	2132
3873.575	2119
3875.194	2130
3876.813	2051
3878.433	2090
3880.051	2112
3881.669	2105
3883.286	2155
3884.904	2066
3886.52	2105
3888.138	2094
3889.754	2168
3891.37	2131
3892.985	2061
3894.6	2119
3896.216	2087
3897.831	2082
3899.444	2081
3901.058	2095
3902.67	2109
3904.283	2095
3905.897	2085
3907.509	2080
3909.121	2088
3910.731	2064
3912.342	2132
3913.954	2062
3915.563	2140
3917.174	2078
3918.783	2127
3920.391	2100
3922.002	2080
3923.611	2079
3925.218	2095
3926.826	2075
3928.432	2066
3930.039	2122
3931.647	2093
3933.253	2071
3934.859	2104
3936.464	2162
3938.068	2074
3939.675	2064
3941.278	2062
3942.883	2059
3944.486	2062
3946.089	2145
3947.692	2049
3949.295	2069
3950.898	2053
3952.499	2024
3954.1	2037
3955.7	2022
3957.303	2057
3958.903	2074
3960.502	2060
3962.101	2044
3963.7	2013
3965.301	2053
3966.899	2036
3968.497	2058
3970.094	2019
3971.691	1997
3973.288	2102
3974.885	2026
3976.481	2078
3978.077	2065
3979.672	2014
3981.267	2059
3982.863	2012
3984.457	2003
3986.051	1998
3987.645	2014
3989.238	2033
3990.831	1979
3992.425	2021
3994.017	2028
3995.607	2007
3997.199	2002
3998.79	1948
4000.382	1991
4001.973	1946
4003.561	1985
4005.151	2010
4006.741	1970
4008.331	1978
4009.918	1992
4011.507	1954
4013.095	1951
4014.681	1981
4016.269	1973
4017.856	1946
4019.443	1991
4021.028	1966
4022.614	1949
4024.199	1990
4025.785	2001
4027.37	1924
4028.953	1952
4030.536	1962
4032.12	1969
4033.704	1946
4035.287	1945
4036.869	2012
4038.45	1954
4040.032	1935
4041.613	1930
4043.195	1905
4044.776	1960
4046.356	1910
4047.935	1916
4049.515	1940
4051.095	1937
4052.674	1917
4054.251	1911
4055.829	1927
4057.406	1907
4058.985	1918
4060.562	1962
4062.139	1924
4063.715	1913
4065.29	1887
4066.865	1933
4068.442	1911
4070.016	1913
4071.59	1875
4073.164	1904
4074.738	1922
4076.312	1973
4077.885	1920
4079.458	1917
4081.03	1924
4082.602	1867
4084.173	1921
4085.745	1921
4087.315	1941
4088.886	1917
4090.456	1919
4092.026	1876
4093.596	1868
4095.165	1874
4096.734	1921
4098.301	1871
4099.869	1886
4101.437	1946
4103.006	1856
4104.572	1885
4106.139	1938
4107.704	1923
4109.27	1891
4110.837	1864
4112.401	1884
4113.966	1875
4115.53	1879
4117.094	1865
4118.659	1849
4120.223	1851
4121.785	1861
4123.347	1814
4124.909	1835
4126.471	1855
4128.034	1845
4129.595	1877
4131.155	1904
4132.716	1830
4134.275	1852
4135.836	1862
4137.395	1831
4138.955	1798
4140.513	1853
4142.071	1867
4143.628	1858
4145.188	1894
4146.745	1850
4148.302	1854
4149.858	1843
4151.414	1841
4152.971	1805
4154.526	1816
4156.081	1843
4157.635	1878
4159.189	1871
4160.745	1813
4162.298	1776
4163.852	1838
4165.405	1782
4166.957	1859
4168.51	1844
4170.063	1816
4171.614	1777
4173.166	1786
4174.717	1741
4176.267	1748
4177.817	1788
4179.368	1840
4180.917	1782
4182.466	1781
4184.016	1782
4185.564	1768
4187.112	1778
4188.66	1750
4190.207	1792
4191.754	1724
4193.301	1795
4194.848	1761
4196.394	1793
4197.94	1790
4199.484	1791
4201.03	1793
4202.575	1802
4204.12	1791
4205.663	1815
4207.207	1772
4208.75	1731
4210.292	1784
4211.836	1818
4213.378	1756
4214.92	1766
4216.46	1795
4218.002	1732
4219.544	1768
4221.083	1740
4222.625	1765
4224.164	1753
4225.703	1806
4227.244	1770
4228.782	1745
4230.32	1761
4231.857	1767
4233.395	1738
4234.933	1726
4236.471	1759
4238.007	1730
4239.542	1708
4241.078	1729
4242.614	1767
4244.15	1746
4245.685	1755
4247.219	1743
4248.753	1729
4250.287	1748
4251.82	1719
4253.354	1756
4254.887	1745
4256.419	1741
4257.951	1754
4259.483	1721
4261.016	1749
4262.547	1738
4264.078	1765
4265.608	1744
4267.137	1693
4268.668	1746
4270.197	1742
4271.727	1696
4273.254	1711
4274.783	1733
4276.311	1765
4277.84	1744
4279.366	1750
4280.894	1752
4282.42	1749
4283.946	1703
4285.473	1733
4286.998	1714
4288.523	1717
4290.047	1765
4291.572	1723
4293.096	1643
4294.622	1674
4296.144	1648
4297.668	1722
4299.19	1745
4300.713	1684
4302.236	1684
4303.758	1699
4305.279	1686
4306.799	1681
4308.321	1684
4309.842	1705
4311.361	1687
4312.882	1687
4314.401	1689
