400.0961	3626
402.6185	3532
405.1424	3597
407.6635	3664
410.1838	3620
412.7035	3602
415.2225	3624
417.7388	3686
420.2585	3751
422.7754	3726
425.2917	3776
427.8072	3867
430.3221	3941
432.8363	3891
435.3498	3808
437.8626	3850
440.3727	3858
442.8841	3904
445.3969	3816
447.907	3875
450.4142	3849
452.9229	3844
455.4289	3843
457.9362	3881
460.4449	3805
462.9488	3804
465.454	3796
467.9566	3793
470.4604	3811
472.9637	3782
475.4662	3891
477.966	3787
480.4671	3754
482.9656	3801
485.4633	3783
487.9645	3815
490.4608	3848
492.9566	3873
495.4536	3867
497.948	3876
500.4437	3919
502.9387	3861
505.431	3832
507.9226	3932
510.4136	3881
512.9079	3814
515.3975	3905
517.8864	4017
520.3746	3874
522.8622	3920
525.3491	3876
527.8394	3949
530.3249	3995
532.8098	3935
535.2939	3906
537.7774	3956
540.2623	3925
542.7444	3918
545.2259	3895
547.7067	3962
550.1868	3932
552.6683	3970
555.147	3890
557.6231	3929
560.1005	3926
562.5773	4001
565.0534	3986
567.5308	4071
570.0056	4016
572.4776	4020
574.951	4081
577.4237	4150
579.8978	4053
582.3671	4078
584.8378	4150
587.3079	4132
589.7773	4162
592.244	4105
594.714	4127
597.1793	4107
599.6461	4015
602.1121	4114
604.5754	4106
607.0421	4093
609.5042	4123
611.9675	4072
614.4282	4092
616.8902	4090
619.3515	4079
621.8122	3983
624.2702	4116
626.7296	3937
629.1863	4021
631.6423	4082
634.1017	3979
636.5563	4063
639.0104	3966
641.4658	4114
643.9185	4015
646.3725	4047
648.8239	4114
651.2766	4069
653.7266	4032
656.176	4064
658.6247	4059
661.0748	4075
663.5242	4163
665.9709	4132
668.417	4122
670.8624	4155
673.3092	4113
675.7533	4146
678.1968	4092
680.6395	4130
683.0817	4211
685.5251	4301
687.9659	4165
690.4061	4266
692.8456	4182
695.2844	4091
697.7226	4158
700.1621	4245
702.599	4222
705.0332	4174
707.4688	4203
709.9036	4217
712.3399	4265
714.7735	4262
717.2044	4284
719.6367	4323
722.0683	4279
724.4993	4342
726.9296	4312
729.3593	4319
731.7883	4377
734.2147	4224
736.6423	4305
739.0714	4382
741.4958	4337
743.9216	4462
746.3447	4410
748.7691	4334
751.1929	4453
753.616	4465
756.0366	4407
758.4584	4473
760.8776	4457
763.2982	4457
765.718	4440
768.1373	4479
770.5539	4492
772.9698	4505
775.3871	4574
777.8038	4438
780.2178	4431
782.6332	4453
785.0459	4475
787.458	4481
789.8714	4456
792.2842	4446
794.6943	4523
797.1038	4475
799.5127	4486
801.9209	4493
804.3324	4554
806.7393	4543
809.1456	4498
811.5513	4550
813.9562	4487
816.3625	4531
818.7663	4548
821.1693	4683
823.5718	4540
825.9735	4599
828.3746	4474
830.7771	4481
833.177	4549
835.5762	4583
837.9747	4508
840.3727	4639
842.772	4575
845.1666	4594
847.5626	4564
849.958	4640
852.3527	4616
854.7488	4649
857.1403	4681
859.5331	4750
861.9253	4776
864.3168	4710
866.7057	4649
869.098	4630
871.4876	4737
873.8746	4669
876.263	4659
878.6487	4703
881.0378	4681
883.4243	4680
885.8081	4654
888.1933	4587
890.5759	4674
892.9598	4716
895.343	4703
897.7256	4604
900.1057	4611
902.4871	4690
904.8659	4667
907.246	4759
909.6254	4741
912.0023	4714
914.3786	4685
916.7562	4866
919.1331	4925
921.5074	5020
923.8831	5036
926.2562	4948
928.6287	4976
931.0005	4899
933.3757	4964
935.7462	5061
938.1162	4918
940.4855	5101
942.8542	5118
945.2242	5091
947.5916	5237
949.9584	5384
952.3266	5588
954.6921	5739
957.0571	6034
959.4233	6163
961.787	6196
964.15	6108
966.5125	5835
968.8742	5808
971.2354	5557
973.5959	5342
975.9559	5096
978.3151	4979
980.6738	4969
983.0338	4877
985.3912	4817
987.7461	4789
990.1022	4824
992.4578	4717
994.8127	4830
997.1689	4851
999.5207	4823
1001.874	4858
1004.226	4933
1006.576	4933
1008.929	4837
1011.28	4942
1013.628	4838
1015.977	4867
1018.324	4822
1020.674	4830
1023.019	4923
1025.366	4903
1027.713	4923
1030.056	4935
1032.399	4971
1034.746	4927
1037.087	4993
1039.431	5025
1041.771	4958
1044.113	4955
1046.454	4935
1048.793	4899
1051.133	5017
1053.471	4872
1055.807	4982
1058.146	4963
1060.483	4972
1062.818	4992
1065.153	5084
1067.489	4995
1069.822	5034
1072.156	5086
1074.488	5094
1076.82	4989
1079.15	4978
1081.48	4980
1083.814	4997
1086.143	5005
1088.471	4995
1090.799	4901
1093.126	4957
1095.452	4947
1097.78	4878
1100.105	4996
1102.43	4982
1104.754	4793
1107.077	4976
1109.4	4963
1111.722	4921
1114.044	5028
1116.365	4909
1118.685	4961
1121.005	4955
1123.324	4929
1125.643	4931
1127.961	4969
1130.278	5005
1132.595	4901
1134.911	4986
1137.226	4953
1139.541	4988
1141.854	4863
1144.167	4972
1146.482	4910
1148.793	4962
1151.105	4914
1153.414	4970
1155.725	4915
1158.033	4960
1160.344	4909
1162.651	4897
1164.959	4868
1167.265	4970
1169.572	4933
1171.878	4998
1174.184	4963
1176.488	5116
1178.79	5025
1181.094	4885
1183.396	5022
1185.699	4986
1188.001	4997
1190.301	4979
1192.6	5037
1194.9	5034
1197.2	4959
1199.497	5007
1201.794	5038
1204.09	4955
1206.387	4997
1208.684	5009
1210.978	4992
1213.272	5080
1215.565	5093
1217.858	5063
1220.15	4989
1222.443	5030
1224.734	5108
1227.024	4965
1229.313	5038
1231.602	5066
1233.892	5178
1236.18	5117
1238.467	5171
1240.754	5162
1243.04	5178
1245.325	5173
1247.612	5304
1249.896	5199
1252.178	5256
1254.461	5265
1256.743	5225
1259.027	5263
1261.308	5205
1263.587	5295
1265.867	5221
1268.146	5259
1270.425	5205
1272.703	5246
1274.981	5261
1277.256	5136
1279.532	5113
1281.808	5131
1284.083	5138
1286.358	5236
1288.63	5207
1290.904	5091
1293.175	5183
1295.449	5110
1297.719	5163
1299.99	5128
1302.259	5022
1304.529	5090
1306.798	5053
1309.065	5237
1311.333	5078
1313.599	5240
1315.866	5129
1318.131	5158
1320.396	5131
1322.66	5102
1324.925	5110
1327.187	5090
1329.448	5118
1331.711	5128
1333.974	5162
1336.234	5155
1338.493	5199
1340.752	5219
1343.01	5029
1345.269	5171
1347.526	5169
1349.784	5220
1352.04	4991
1354.295	5103
1356.552	5196
1358.806	5079
1361.059	5088
1363.312	5094
1365.564	5115
1367.818	5115
1370.069	5224
1372.318	5135
1374.568	5075
1376.817	5223
1379.066	5184
1381.316	5133
1383.564	5154
1385.809	5160
1388.056	5338
1390.301	5160
1392.549	5294
1394.793	5391
1397.036	5375
1399.279	5348
1401.522	5362
1403.763	5338
1406.007	5345
1408.248	5322
1410.487	5379
1412.727	5263
1414.965	5389
1417.205	5288
1419.442	5323
1421.68	5378
1423.915	5337
1426.152	5394
1428.388	5362
1430.623	5369
1432.857	5243
1435.091	5348
1437.323	5406
1439.556	5440
1441.789	5442
1444.019	5418
1446.25	5405
1448.48	5455
1450.708	5437
1452.938	5491
1455.167	5445
1457.394	5665
1459.62	5509
1461.846	5497
1464.073	5490
1466.299	5481
1468.523	5421
1470.746	5366
1472.969	5303
1475.191	5198
1477.415	5284
1479.636	5092
1481.858	5227
1484.078	5199
1486.298	5185
1488.518	5185
1490.736	5096
1492.954	5198
1495.169	5173
1497.386	5210
1499.602	5275
1501.819	5132
1504.034	5140
1506.248	5153
1508.462	5185
1510.675	5006
1512.888	5123
1515.1	5043
1517.311	5159
1519.522	5141
1521.732	5011
1523.942	5160
1526.151	5101
1528.36	5108
1530.566	5125
1532.773	5123
1534.98	5193
1537.187	5162
1539.392	5181
1541.596	5149
1543.801	5122
1546.005	5202
1548.208	5111
1550.411	5240
1552.612	5102
1554.814	5160
1557.013	5107
1559.212	5167
1561.414	5282
1563.612	5215
1565.811	5257
1568.007	5258
1570.203	5167
1572.403	5347
1574.598	5272
1576.792	5213
1578.988	5233
1581.181	5246
1583.376	5239
1585.568	5309
1587.761	5298
1589.952	5270
1592.143	5191
1594.333	5283
1596.524	5266
1598.715	5274
1600.903	5427
1603.091	5317
1605.278	5331
1607.466	5340
1609.652	5317
1611.838	5315
1614.023	5427
1616.207	5418
1618.391	5286
1620.576	5326
1622.759	5290
1624.941	5235
1627.123	5348
1629.304	5372
1631.484	5394
1633.664	5343
1635.844	5436
1638.022	5397
1640.201	5354
1642.38	5403
1644.556	5396
1646.732	5370
1648.908	5323
1651.084	5489
1653.257	5437
1655.433	5395
1657.607	5397
1659.779	5566
1661.951	5425
1664.122	5377
1666.295	5523
1668.467	5472
1670.635	5428
1672.805	5434
1674.973	5454
1677.142	5491
1679.31	5350
1681.478	5407
1683.644	5339
1685.81	5511
1687.975	5403
1690.142	5468
1692.305	5411
1694.468	5438
1696.632	5329
1698.794	5383
1700.957	5401
1703.119	5401
1705.279	5231
1707.439	5297
1709.598	5322
1711.758	5282
1713.917	5312
1716.075	5270
1718.231	5362
1720.388	5334
1722.543	5281
1724.702	5201
1726.856	5287
1729.01	5258
1731.164	5271
1733.317	5276
1735.471	5256
1737.623	5316
1739.774	5332
1741.925	5313
1744.075	5283
1746.225	5370
1748.376	5311
1750.524	5342
1752.672	5277
1754.82	5271
1756.965	5445
1759.113	5258
1761.259	5306
1763.405	5296
1765.549	5269
1767.694	5339
1769.836	5337
1771.981	5308
1774.123	5293
1776.264	5364
1778.405	5359
1780.546	5379
1782.687	5390
1784.827	5320
1786.966	5260
1789.103	5356
1791.242	5379
1793.381	5264
1795.517	5253
1797.653	5296
1799.788	5468
1801.923	5385
1804.057	5472
1806.193	5312
1808.326	5431
1810.457	5254
1812.59	5377
1814.721	5356
1816.855	5354
1818.984	5342
1821.113	5303
1823.244	5359
1825.372	5377
1827.499	5306
1829.63	5208
1831.756	5232
1833.882	5297
1836.007	5414
1838.132	5206
1840.26	5271
1842.384	5278
1844.507	5312
1846.63	5247
1848.752	5258
1850.875	5284
1852.996	5341
1855.118	5417
1857.238	5297
1859.358	5325
1861.477	5222
1863.597	5297
1865.715	5282
1867.832	5203
1869.948	5255
1872.064	5190
1874.181	5265
1876.297	5259
1878.411	5219
1880.526	5286
1882.639	5337
1884.752	5251
1886.865	5266
1888.977	5274
1891.089	5406
1893.2	5365
1895.308	5255
1897.42	5303
1899.53	5350
1901.639	5350
1903.745	5315
1905.853	5419
1907.962	5270
1910.067	5357
1912.174	5338
1914.278	5353
1916.383	5371
1918.486	5350
1920.592	5305
1922.694	5272
1924.797	5430
1926.898	5393
1929	5422
1931.102	5408
1933.203	5416
1935.301	5468
1937.401	5319
1939.499	5370
1941.598	5335
1943.697	5484
1945.793	5388
1947.888	5429
1949.985	5344
1952.08	5409
1954.176	5440
1956.269	5391
1958.364	5326
1960.457	5342
1962.549	5331
1964.642	5345
1966.733	5412
1968.823	5355
1970.913	5334
1973.005	5300
1975.093	5342
1977.184	5342
1979.271	5324
1981.359	5333
1983.446	5367
1985.532	5341
1987.619	5385
1989.705	5249
1991.789	5272
1993.874	5313
1995.956	5347
1998.041	5408
2000.123	5329
2002.206	5289
2004.287	5420
2006.368	5279
2008.449	5296
2010.529	5283
2012.609	5368
2014.688	5219
2016.766	5296
2018.843	5289
2020.922	5363
2022.999	5256
2025.074	5227
2027.15	5340
2029.225	5235
2031.299	5286
2033.375	5198
2035.447	5287
2037.52	5257
2039.592	5373
2041.664	5291
2043.736	5364
2045.807	5296
2047.876	5240
2049.947	5291
2052.015	5357
2054.086	5268
2056.153	5330
2058.221	5312
2060.288	5322
2062.353	5382
2064.42	5398
2066.486	5306
2068.55	5331
2070.614	5292
2072.678	5286
2074.741	5340
2076.805	5367
2078.866	5302
2080.929	5250
2082.99	5216
2085.049	5315
2087.109	5309
2089.17	5293
2091.228	5291
2093.286	5400
2095.344	5389
2097.4	5268
2099.46	5337
2101.516	5354
2103.572	5284
2105.626	5382
2107.679	5296
2109.735	5327
2111.788	5329
2113.841	5254
2115.894	5300
2117.945	5363
2119.997	5265
2122.049	5388
2124.1	5338
2126.148	5339
2128.197	5341
2130.246	5399
2132.296	5287
2134.342	5392
2136.39	5271
2138.437	5252
2140.483	5321
2142.527	5380
2144.574	5289
2146.619	5271
2148.661	5272
2150.705	5312
2152.747	5401
2154.792	5368
2156.832	5320
2158.874	5249
2160.915	5275
2162.954	5318
2164.995	5331
2167.034	5285
2169.072	5262
2171.111	5242
2173.148	5348
2175.186	5303
2177.223	5268
2179.258	5233
2181.294	5281
2183.328	5218
2185.362	5316
2187.398	5215
2189.431	5233
2191.463	5193
2193.495	5131
2195.528	5172
2197.56	5140
2199.59	5182
2201.62	5143
2203.649	5166
2205.678	5082
2207.708	5211
2209.737	5142
2211.764	5251
2213.791	5190
2215.817	5299
2217.843	5154
2219.87	5178
2221.895	5158
2223.919	5276
2225.942	5124
2227.966	5176
2229.988	5123
2232.012	5100
2234.032	5174
2236.054	5130
2238.074	5096
2240.095	5216
2242.116	5343
2244.135	5162
2246.153	5128
2248.171	5186
2250.188	5170
2252.208	5157
2254.223	5141
2256.239	5154
2258.255	5123
2260.269	5083
2262.283	5267
2264.3	5119
2266.312	5305
2268.325	5200
2270.336	5176
2272.349	5174
2274.362	5117
2276.372	5120
2278.383	5172
2280.392	5154
2282.402	5220
2284.409	5131
2286.418	5043
2288.427	5121
2290.433	5095
2292.441	5199
2294.446	5137
2296.453	5197
2298.459	5189
2300.463	5250
2302.466	5112
2304.471	5152
2306.475	5164
2308.477	5131
2310.478	5050
2312.481	5140
2314.481	5122
2316.481	5100
2318.482	5095
2320.482	5199
2322.48	5062
2324.48	5115
2326.478	5169
2328.476	5198
2330.473	5161
2332.469	5013
2334.465	5210
2336.46	5072
2338.454	5104
2340.45	5145
2342.444	5114
2344.437	5108
2346.43	5016
2348.421	5068
2350.414	5066
2352.405	5173
2354.396	5033
2356.386	5101
2358.376	5072
2360.366	5064
2362.355	5093
2364.343	5108
2366.331	5061
2368.317	5016
2370.304	5020
2372.292	5110
2374.278	5049
2376.262	5025
2378.247	5057
2380.23	4985
2382.216	4980
2384.199	4992
2386.181	5020
2388.163	5005
2390.144	4964
2392.127	4944
2394.107	5011
2396.087	5008
2398.066	4990
2400.046	4969
2402.023	4934
2404.004	4952
2405.981	5012
2407.957	5009
2409.934	5087
2411.91	5071
2413.886	4999
2415.862	4966
2417.836	4953
2419.809	5028
2421.784	4987
2423.756	4894
2425.73	4954
2427.701	4891
2429.672	5001
2431.644	5052
2433.615	5080
2435.586	4960
2437.555	5024
2439.523	5021
2441.491	4976
2443.459	4961
2445.428	4941
2447.395	4962
2449.361	4925
2451.327	4884
2453.292	4920
2455.257	4959
2457.223	4917
2459.187	4972
2461.15	4963
2463.113	4942
2465.076	4945
2467.039	4908
2468.999	4905
2470.96	4882
2472.921	4895
2474.881	4962
2476.841	4848
2478.8	4861
2480.759	4919
2482.717	4894
2484.675	4907
2486.63	4899
2488.589	4975
2490.545	4904
2492.5	4879
2494.455	5030
2496.408	4858
2498.364	4918
2500.318	4909
2502.27	4910
2504.223	4934
2506.174	4981
2508.126	4864
2510.078	4893
2512.03	4981
2513.979	4806
2515.927	4885
2517.877	4878
2519.826	4785
2521.775	4884
2523.722	4932
2525.668	4916
2527.616	4809
2529.561	4896
2531.508	4891
2533.452	4844
2535.398	4840
2537.342	4884
2539.284	4859
2541.229	4866
2543.173	4830
2545.114	4884
2547.055	4956
2548.996	4822
2550.938	4875
2552.878	4862
2554.817	4824
2556.756	4827
2558.695	4878
2560.633	4871
2562.572	4860
2564.509	4910
2566.445	4811
2568.382	4898
2570.317	4772
2572.254	4802
2574.189	4848
2576.123	4859
2578.057	4876
2579.99	4882
2581.923	4868
2583.855	4945
2585.788	4969
2587.719	4850
2589.65	4784
2591.579	4958
2593.511	4830
2595.44	4849
2597.37	4845
2599.297	4995
2601.225	4905
2603.153	4871
2605.08	4898
2607.007	4862
2608.932	4727
2610.858	4861
2612.782	4816
2614.709	4918
2616.632	4887
2618.556	4863
2620.478	4787
2622.401	4794
2624.324	4887
2626.247	4857
2628.167	4863
2630.088	4848
2632.008	4889
2633.928	4805
2635.848	4912
2637.766	4860
2639.684	4838
2641.603	4880
2643.519	4828
2645.437	4933
2647.353	4910
2649.27	4805
2651.184	4860
2653.099	4950
2655.014	4851
2656.928	4898
2658.842	4824
2660.755	4864
2662.667	4784
2664.579	4923
2666.491	4935
2668.402	4818
2670.312	4889
2672.222	4795
2674.132	4788
2676.042	4895
2677.951	4819
2679.859	4809
2681.766	4836
2683.674	4866
2685.582	4801
2687.488	4788
2689.392	4797
2691.298	4888
2693.202	4759
2695.107	4861
2697.012	4828
2698.914	4834
2700.817	4707
2702.72	4728
2704.622	4855
2706.524	4816
2708.425	4822
2710.326	4783
2712.225	4851
2714.125	4747
2716.024	4769
2717.923	4794
2719.822	4727
2721.719	4746
2723.616	4718
2725.512	4876
2727.41	4790
2729.305	4838
2731.201	4865
2733.095	4657
2734.99	4783
2736.884	4839
2738.778	4812
2740.67	4726
2742.562	4753
2744.455	4767
2746.346	4665
2748.238	4810
2750.129	4692
2752.018	4779
2753.907	4751
2755.797	4773
2757.687	4815
2759.575	4715
2761.462	4678
2763.349	4728
2765.237	4714
2767.124	4719
2769.009	4740
2770.894	4733
2772.779	4869
2774.663	4734
2776.547	4759
2778.431	4800
2780.314	4713
2782.197	4768
2784.078	4823
2785.96	4813
2787.842	4718
2789.723	4690
2791.603	4816
2793.483	4718
2795.362	4721
2797.241	4689
2799.121	4713
2800.997	4766
2802.874	4765
2804.751	4716
2806.628	4755
2808.506	4753
2810.38	4659
2812.255	4645
2814.13	4718
2816.003	4643
2817.878	4714
2819.752	4735
2821.623	4645
2823.496	4679
2825.368	4772
2827.238	4764
2829.111	4692
2830.98	4730
2832.851	4674
2834.719	4736
2836.589	4721
2838.458	4721
2840.327	4703
2842.193	4756
2844.061	4765
2845.927	4775
2847.794	4779
2849.66	4897
2851.525	4873
2853.39	4858
2855.254	4853
2857.117	4831
2858.983	4845
2860.845	4907
2862.707	4925
2864.569	4906
2866.431	4943
2868.293	5061
2870.154	5007
2872.013	5003
2873.873	5083
2875.733	5097
2877.592	5197
2879.451	5279
2881.309	5263
2883.166	5258
2885.022	5341
2886.879	5248
2888.736	5490
2890.591	5322
2892.446	5429
2894.301	5473
2896.155	5451
2898.009	5352
2899.863	5369
2901.716	5332
2903.568	5357
2905.419	5240
2907.27	5328
2909.123	5462
2910.973	5319
2912.824	5497
2914.673	5442
2916.521	5438
2918.372	5423
2920.22	5509
2922.067	5554
2923.914	5656
2925.761	5741
2927.607	5709
2929.455	5789
2931.301	5880
2933.144	5839
2934.99	5905
2936.833	5920
2938.678	5996
2940.522	6084
2942.364	6228
2944.207	6286
2946.048	6293
2947.891	6329
2949.731	6373
2951.571	6332
2953.412	6194
2955.25	6179
2957.09	6096
2958.93	6012
2960.767	5997
2962.606	5994
2964.443	5988
2966.279	5834
2968.116	5811
2969.953	5761
2971.788	5616
2973.623	5597
2975.457	5525
2977.292	5496
2979.127	5579
2980.959	5404
2982.792	5363
2984.624	5387
2986.455	5382
2988.288	5295
2990.119	5294
2991.949	5303
2993.779	5185
2995.608	5207
2997.439	5241
2999.268	5141
3001.096	5004
3002.923	5001
3004.751	4931
3006.578	4873
3008.406	4892
3010.232	4863
3012.057	4877
3013.883	4763
3015.706	4766
3017.532	4734
3019.356	4657
3021.179	4720
3023.002	4701
3024.823	4647
3026.646	4605
3028.469	4624
3030.289	4575
3032.11	4587
3033.93	4611
3035.749	4545
3037.57	4531
3039.39	4576
3041.207	4501
3043.026	4518
3044.842	4536
3046.661	4460
3048.477	4474
3050.294	4496
3052.109	4495
3053.925	4539
3055.739	4590
3057.555	4550
3059.368	4455
3061.181	4502
3062.995	4592
3064.807	4497
3066.62	4516
3068.433	4468
3070.243	4512
3072.054	4505
3073.865	4424
3075.675	4494
3077.485	4459
3079.293	4480
3081.102	4424
3082.911	4493
3084.719	4386
3086.527	4374
3088.333	4417
3090.139	4381
3091.945	4369
3093.75	4443
3095.557	4373
3097.361	4366
3099.165	4370
3100.969	4375
3102.772	4294
3104.575	4364
3106.379	4378
3108.181	4409
3109.982	4417
3111.783	4321
3113.584	4308
3115.386	4385
3117.186	4336
3118.985	4390
3120.783	4317
3122.582	4282
3124.381	4305
3126.179	4268
3127.975	4269
3129.772	4299
3131.569	4282
3133.365	4214
3135.161	4301
3136.956	4231
3138.751	4263
3140.544	4282
3142.338	4323
3144.132	4411
3145.925	4236
3147.717	4314
3149.509	4300
3151.301	4217
3153.091	4201
3154.884	4174
3156.673	4274
3158.462	4282
3160.252	4278
3162.041	4130
3163.831	4217
3165.618	4115
3167.405	4252
3169.193	4247
3170.979	4178
3172.767	4181
3174.553	4187
3176.338	4186
3178.123	4282
3179.907	4247
3181.692	4250
3183.477	4212
3185.259	4232
3187.042	4241
3188.824	4228
3190.607	4192
3192.389	4241
3194.17	4173
3195.951	4287
3197.73	4213
3199.51	4200
3201.289	4204
3203.07	4135
3204.848	4247
3206.626	4226
3208.403	4293
3210.18	4166
3211.959	4167
3213.735	4198
3215.511	4196
3217.285	4141
3219.06	4168
3220.836	4260
3222.611	4234
3224.384	4163
3226.158	4274
3227.929	4228
3229.702	4135
3231.476	4212
3233.248	4215
3235.018	4214
3236.789	4272
3238.56	4275
3240.33	4267
3242.1	4241
3243.869	4142
3245.637	4221
3247.405	4054
3249.172	4259
3250.941	4171
3252.707	4178
3254.474	4127
3256.24	4300
3258.006	4125
3259.772	4203
3261.537	4213
3263.301	4210
3265.065	4151
3266.828	4113
3268.592	4273
3270.355	4116
3272.117	4136
3273.878	4276
3275.64	4259
3277.401	4186
3279.162	4209
3280.922	4192
3282.682	4133
3284.441	4169
3286.199	4216
3287.959	4164
3289.716	4121
3291.475	4154
3293.232	4181
3294.988	4225
3296.744	4145
3298.501	4156
3300.256	4088
3302.011	4239
3303.766	4223
3305.52	4250
3307.275	4207
3309.028	4300
3310.781	4159
3312.533	4178
3314.285	4242
3316.038	4224
3317.789	4210
3319.54	4138
3321.289	4210
3323.039	4235
3324.789	4171
3326.539	4153
3328.288	4195
3330.035	4205
3331.783	4199
3333.531	4198
3335.28	4129
3337.025	4097
3338.771	4158
3340.518	4174
3342.262	4105
3344.009	4201
3345.753	4148
3347.497	4126
3349.24	4117
3350.983	4186
3352.726	4141
3354.469	4184
3356.212	4048
3357.952	4101
3359.694	4088
3361.434	4147
3363.176	4121
3364.916	4004
3366.654	4069
3368.394	4056
3370.132	4134
3371.871	4129
3373.61	4036
3375.346	4007
3377.083	4072
3378.82	4084
3380.556	4128
3382.292	4101
3384.027	4068
3385.763	4110
3387.497	4085
3389.231	4019
3390.965	4022
3392.698	3977
3394.431	4002
3396.164	3998
3397.896	3956
3399.627	3906
3401.36	4031
3403.09	4043
3404.82	4096
3406.55	4073
3408.279	4017
3410.01	4007
3411.738	4000
3413.467	4045
3415.194	3971
3416.92	3973
3418.647	3930
3420.375	3959
3422.102	3989
3423.827	3944
3425.553	3917
3427.277	4009
3429.003	3984
3430.727	3940
3432.451	3981
3434.173	3883
3435.896	3992
3437.62	3898
3439.343	3870
3441.063	3925
3442.785	3933
3444.505	3903
3446.226	3987
3447.948	3961
3449.666	3902
3451.386	3943
3453.104	3893
3454.823	3869
3456.541	3870
3458.259	3867
3459.976	3903
3461.693	3835
3463.408	3880
3465.125	3874
3466.841	3807
3468.556	3779
3470.271	3838
3471.985	3890
3473.698	3754
3475.414	3761
3477.126	3753
3478.838	3824
3480.55	3824
3482.263	3775
3483.975	3799
3485.686	3762
3487.396	3691
3489.106	3805
3490.817	3730
3492.526	3720
3494.236	3726
3495.944	3797
3497.652	3828
3499.359	3758
3501.066	3698
3502.775	3695
3504.481	3674
3506.187	3747
3507.893	3687
3509.598	3660
3511.304	3756
3513.009	3591
3514.713	3773
3516.417	3687
3518.12	3658
3519.821	3654
3521.525	3553
3523.228	3687
3524.929	3671
3526.631	3591
3528.33	3538
3530.032	3689
3531.733	3645
3533.433	3638
3535.131	3614
3536.83	3601
3538.529	3585
3540.227	3636
3541.925	3560
3543.623	3663
3545.319	3590
3547.016	3606
3548.712	3597
3550.408	3546
3552.103	3594
3553.798	3624
3555.491	3538
3557.188	3515
3558.88	3482
3560.574	3526
3562.266	3597
3563.959	3583
3565.651	3554
3567.343	3487
3569.035	3564
3570.725	3565
3572.415	3534
3574.106	3570
3575.797	3475
3577.485	3523
3579.174	3514
3580.863	3366
3582.551	3526
3584.238	3516
3585.926	3478
3587.613	3508
3589.3	3493
3590.986	3516
3592.671	3409
3594.357	3525
3596.042	3488
3597.726	3411
3599.41	3422
3601.094	3432
3602.778	3428
3604.461	3423
3606.143	3430
3607.825	3391
3609.507	3407
3611.188	3466
3612.87	3407
3614.551	3410
3616.229	3374
3617.909	3367
3619.589	3312
3621.269	3419
3622.948	3357
3624.625	3339
3626.302	3430
3627.98	3405
3629.657	3376
3631.334	3343
3633.01	3390
3634.686	3385
3636.361	3230
3638.036	3313
3639.712	3333
3641.385	3329
3643.06	3290
3644.732	3321
3646.405	3266
3648.08	3305
3649.751	3248
3651.424	3241
3653.094	3304
3654.766	3265
3656.436	3255
3658.106	3196
3659.777	3259
3661.446	3278
3663.115	3292
3664.783	3227
3666.452	3225
3668.121	3263
3669.788	3183
3671.454	3156
3673.121	3154
3674.789	3337
3676.455	3163
3678.12	3169
3679.784	3206
3681.45	3232
3683.114	3238
3684.779	3233
3686.442	3275
3688.105	3155
3689.768	3224
3691.43	3174
3693.093	3184
3694.754	3245
3696.415	3163
3698.076	3218
3699.736	3125
3701.396	3167
3703.057	3208
3704.716	3217
3706.375	3078
3708.034	3210
3709.692	3178
3711.351	3122
3713.008	3244
3714.665	3163
3716.321	3117
3717.977	3136
3719.634	3126
3721.29	3133
3722.945	3189
3724.598	3137
3726.253	3180
3727.907	3145
3729.561	3137
3731.214	3111
3732.867	3139
3734.518	3000
3736.171	3142
3737.824	3108
3739.474	3097
3741.125	3081
3742.775	3174
3744.425	3140
3746.074	3061
3747.725	3125
3749.373	3106
3751.022	3128
3752.669	3094
3754.318	3066
3755.966	3146
3757.612	3064
3759.259	3065
3760.905	3105
3762.55	3059
3764.197	3035
3765.842	3067
3767.486	3077
3769.131	3094
3770.774	3079
3772.417	3077
3774.061	3023
3775.705	3061
3777.347	3067
3778.988	3073
3780.629	3028
3782.271	3042
3783.912	3018
3785.552	2978
3787.192	3027
3788.831	3005
3790.472	2994
3792.112	3014
3793.75	2947
3795.388	2984
3797.024	2968
3798.661	3079
3800.3	2949
3801.936	3100
3803.572	3075
3805.208	2991
3806.844	2995
3808.48	3074
3810.115	2990
3811.748	3033
3813.382	3002
3815.016	2918
3816.649	2926
3818.283	2987
3819.914	2918
3821.547	2950
3823.178	2897
3824.809	2946
3826.441	2925
3828.072	2951
3829.701	2987
3831.331	2900
3832.96	2962
3834.591	2911
3836.219	2843
3837.847	2885
3839.475	2973
3841.102	2904
3842.729	2965
3844.357	2880
3845.984	2945
3847.609	2926
3849.234	2922
3850.86	3000
3852.485	2864
3854.11	2956
3855.734	2945
3857.357	2953
3858.981	2870
3860.603	2886
3862.227	2931
3863.848	2884
3865.471	2867
3867.092	2818
3868.713	2871
3870.334	2868
3871.954	2854
3873.575	2896
3875.194	2925
3876.813	2797
3878.433	2969
3880.051	2834
3881.669	2851
3883.286	2854
3884.904	2855
3886.52	2838
3888.138	2830
3889.754	2863
3891.37	2907
3892.985	2828
3894.6	2827
3896.216	2878
3897.831	2894
3899.444	2850
3901.058	2783
3902.67	2783
3904.283	2870
3905.897	2874
3907.509	2879
3909.121	2864
3910.731	2827
3912.342	2875
3913.954	2850
3915.563	2755
3917.174	2802
3918.783	2819
3920.391	2855
3922.002	2784
3923.611	2752
3925.218	2708
3926.826	2722
3928.432	2857
3930.039	2857
3931.647	2847
3933.253	2800
3934.859	2812
3936.464	2831
3938.068	2784
3939.675	2790
3941.278	2806
3942.883	2791
3944.486	2780
3946.089	2770
3947.692	2785
3949.295	2876
3950.898	2680
3952.499	2748
3954.1	2757
3955.7	2765
3957.303	2717
3958.903	2797
3960.502	2727
3962.101	2805
3963.7	2804
3965.301	2730
3966.899	2691
3968.497	2721
3970.094	2701
3971.691	2765
3973.288	2749
3974.885	2835
3976.481	2623
3978.077	2620
3979.672	2783
3981.267	2725
3982.863	2733
3984.457	2743
3986.051	2683
3987.645	2702
3989.238	2627
3990.831	2774
3992.425	2707
3994.017	2730
3995.607	2685
3997.199	2671
3998.79	2656
4000.382	2659
4001.973	2721
4003.561	2606
4005.151	2618
4006.741	2699
4008.331	2632
4009.918	2655
4011.507	2677
4013.095	2646
4014.681	2682
4016.269	2657
4017.856	2686
4019.443	2669
4021.028	2645
4022.614	2659
4024.199	2602
4025.785	2626
4027.37	2596
4028.953	2585
4030.536	2626
4032.12	2608
4033.704	2670
4035.287	2546
4036.869	2625
4038.45	2608
4040.032	2584
4041.613	2672
4043.195	2622
4044.776	2541
4046.356	2605
4047.935	2608
4049.515	2667
4051.095	2568
4052.674	2598
4054.251	2610
4055.829	2606
4057.406	2552
4058.985	2538
4060.562	2562
4062.139	2578
4063.715	2637
4065.29	2544
4066.865	2576
4068.442	2512
4070.016	2588
4071.59	2530
4073.164	2509
4074.738	2548
4076.312	2565
4077.885	2583
4079.458	2553
4081.03	2569
4082.602	2524
4084.173	2503
4085.745	2470
4087.315	2526
4088.886	2491
4090.456	2506
4092.026	2489
4093.596	2548
4095.165	2545
4096.734	2520
4098.301	2466
4099.869	2530
4101.437	2503
4103.006	2563
4104.572	2525
4106.139	2491
4107.704	2446
4109.27	2487
4110.837	2465
4112.401	2545
4113.966	2457
4115.53	2476
4117.094	2523
4118.659	2496
4120.223	2450
4121.785	2426
4123.347	2450
4124.909	2475
4126.471	2511
4128.034	2481
4129.595	2534
4131.155	2479
4132.716	2451
4134.275	2462
4135.836	2466
4137.395	2433
4138.955	2386
4140.513	2469
4142.071	2431
4143.628	2494
4145.188	2457
4146.745	2401
4148.302	2369
4149.858	2361
4151.414	2425
4152.971	2418
4154.526	2463
4156.081	2399
4157.635	2427
4159.189	2440
4160.745	2418
4162.298	2385
4163.852	2410
4165.405	2289
4166.957	2353
4168.51	2375
4170.063	2427
4171.614	2385
4173.166	2386
4174.717	2403
4176.267	2334
4177.817	2382
4179.368	2357
4180.917	2365
4182.466	2384
4184.016	2380
4185.564	2414
4187.112	2304
4188.66	2355
4190.207	2376
4191.754	2365
4193.301	2347
4194.848	2379
4196.394	2297
4197.94	2280
4199.484	2324
4201.03	2328
4202.575	2412
4204.12	2351
4205.663	2279
4207.207	2318
4208.75	2361
4210.292	2335
4211.836	2343
4213.378	2294
4214.92	2322
4216.46	2347
4218.002	2333
4219.544	2290
4221.083	2323
4222.625	2277
4224.164	2283
4225.703	2319
4227.244	2281
4228.782	2366
4230.32	2345
4231.857	2260
4233.395	2307
4234.933	2266
4236.471	2290
4238.007	2322
4239.542	2314
4241.078	2299
4242.614	2325
4244.15	2306
4245.685	2315
4247.219	2305
4248.753	2298
4250.287	2267
4251.82	2292
4253.354	2316
4254.887	2284
4256.419	2315
4257.951	2335
4259.483	2260
4261.016	2266
4262.547	2297
4264.078	2331
4265.608	2267
4267.137	2257
4268.668	2283
4270.197	2227
4271.727	2274
4273.254	2246
4274.783	2157
4276.311	2275
4277.84	2210
4279.366	2257
4280.894	2221
4282.42	2263
4283.946	2229
4285.473	2221
4286.998	2236
4288.523	2224
4290.047	2179
4291.572	2181
4293.096	2219
4294.622	2190
4296.144	2196
4297.668	2231
4299.19	2263
4300.713	2238
4302.236	2250
4303.758	2182
4305.279	2212
4306.799	2193
4308.321	2206
4309.842	2265
4311.361	2202
4312.882	2225
4314.401	2201
