400.0961	2505
402.6185	2481
405.1424	2520
407.6635	2515
410.1838	2564
412.7035	2546
415.2225	2533
417.7388	2583
420.2585	2636
422.7754	2617
425.2917	2597
427.8072	2630
430.3221	2678
432.8363	2755
435.3498	2747
437.8626	2746
440.3727	2727
442.8841	2759
445.3969	2682
447.907	2668
450.4142	2656
452.9229	2707
455.4289	2681
457.9362	2692
460.4449	2655
462.9488	2689
465.454	2609
467.9566	2726
470.4604	2627
472.9637	2649
475.4662	2650
477.966	2660
480.4671	2635
482.9656	2719
485.4633	2730
487.9645	2719
490.4608	2722
492.9566	2790
495.4536	2662
497.948	2662
500.4437	2761
502.9387	2691
505.431	2746
507.9226	2756
510.4136	2725
512.9079	2736
515.3975	2696
517.8864	2708
520.3746	2729
522.8622	2696
525.3491	2719
527.8394	2721
530.3249	2738
532.8098	2782
535.2939	2749
537.7774	2780
540.2623	2810
542.7444	2767
545.2259	2742
547.7067	2707
550.1868	2732
552.6683	2718
555.147	2772
557.6231	2757
560.1005	2775
562.5773	2798
565.0534	2806
567.5308	2817
570.0056	2808
572.4776	2809
574.951	2776
577.4237	2805
579.8978	2921
582.3671	2921
584.8378	2855
587.3079	2806
589.7773	2870
592.244	2879
594.714	2896
597.1793	2875
599.6461	2887
602.1121	2852
604.5754	2795
607.0421	2858
609.5042	2751
611.9675	2902
614.4282	2783
616.8902	2821
619.3515	2775
621.8122	2844
624.2702	2811
626.7296	2795
629.1863	2842
631.6423	2807
634.1017	2837
636.5563	2813
639.0104	2828
641.4658	2837
643.9185	2845
646.3725	2847
648.8239	2849
651.2766	2935
653.7266	2793
656.176	2871
658.6247	2835
661.0748	2893
663.5242	2883
665.9709	2886
668.417	2905
670.8624	2861
673.3092	2847
675.7533	2829
678.1968	2885
680.6395	2864
683.0817	2928
685.5251	2888
687.9659	2871
690.4061	2990
692.8456	2921
695.2844	2913
697.7226	2940
700.1621	2849
702.599	2881
705.0332	2948
707.4688	2973
709.9036	2934
712.3399	2929
714.7735	2983
717.2044	2939
719.6367	3010
722.0683	2926
724.4993	2989
726.9296	2998
729.3593	3012
731.7883	2987
734.2147	3061
736.6423	3002
739.0714	3019
741.4958	3066
743.9216	2994
746.3447	3019
748.7691	3060
751.1929	2971
753.616	3101
756.0366	3118
758.4584	3129
760.8776	3068
763.2982	3069
765.718	3026
768.1373	3111
770.5539	3149
772.9698	3124
775.3871	3185
777.8038	3145
780.2178	3121
782.6332	3114
785.0459	3145
787.458	3118
789.8714	3120
792.2842	3166
794.6943	3100
797.1038	3099
799.5127	3045
801.9209	3133
804.3324	3126
806.7393	3073
809.1456	3085
811.5513	3124
813.9562	3171
816.3625	3197
818.7663	3210
821.1693	3096
823.5718	3157
825.9735	3146
828.3746	3181
830.7771	3106
833.177	3213
835.5762	3162
837.9747	3147
840.3727	3182
842.772	3183
845.1666	3238
847.5626	3247
849.958	3235
852.3527	3192
854.7488	3282
857.1403	3264
859.5331	3232
861.9253	3175
864.3168	3280
866.7057	3247
869.098	3238
871.4876	3183
873.8746	3172
876.263	3205
878.6487	3204
881.0378	3276
883.4243	3184
885.8081	3266
888.1933	3198
890.5759	3185
892.9598	3146
895.343	3214
897.7256	3134
900.1057	3161
902.4871	3134
904.8659	3235
907.246	3274
909.6254	3333
912.0023	3303
914.3786	3314
916.7562	3398
919.1331	3476
921.5074	3465
923.8831	3401
926.2562	3481
928.6287	3465
931.0005	3404
933.3757	3361
935.7462	3368
938.1162	3432
940.4855	3430
942.8542	3514
945.2242	3382
947.5916	3560
949.9584	3643
952.3266	3739
954.6921	3841
957.0571	4077
959.4233	4068
961.787	4269
964.15	4175
966.5125	4068
968.8742	3954
971.2354	3769
973.5959	3590
975.9559	3470
978.3151	3460
980.6738	3377
983.0338	3360
985.3912	3325
987.7461	3360
990.1022	3368
992.4578	3291
994.8127	3299
997.1689	3405
999.5207	3300
1001.874	3360
1004.226	3406
1006.576	3382
1008.929	3404
1011.28	3347
1013.628	3315
1015.977	3368
1018.324	3359
1020.674	3316
1023.019	3385
1025.366	3405
1027.713	3324
1030.056	3414
1032.399	3384
1034.746	3508
1037.087	3437
1039.431	3364
1041.771	3475
1044.113	3394
1046.454	3432
1048.793	3400
1051.133	3446
1053.471	3450
1055.807	3400
1058.146	3409
1060.483	3485
1062.818	3471
1065.153	3488
1067.489	3422
1069.822	3488
1072.156	3547
1074.488	3585
1076.82	3537
1079.15	3500
1081.48	3479
1083.814	3405
1086.143	3459
1088.471	3426
1090.799	3425
1093.126	3440
1095.452	3390
1097.78	3379
1100.105	3386
1102.43	3429
1104.754	3430
1107.077	3370
1109.4	3439
1111.722	3407
1114.044	3469
1116.365	3476
1118.685	3447
1121.005	3422
1123.324	3478
1125.643	3505
1127.961	3492
1130.278	3508
1132.595	3454
1134.911	3496
1137.226	3420
1139.541	3472
1141.854	3389
1144.167	3421
1146.482	3368
1148.793	3440
1151.105	3433
1153.414	3454
1155.725	3399
1158.033	3415
1160.344	3387
1162.651	3366
1164.959	3440
1167.265	3524
1169.572	3524
1171.878	3450
1174.184	3390
1176.488	3425
1178.79	3474
1181.094	3447
1183.396	3441
1185.699	3453
1188.001	3416
1190.301	3522
1192.6	3516
1194.9	3414
1197.2	3441
1199.497	3480
1201.794	3448
1204.09	3399
1206.387	3504
1208.684	3449
1210.978	3467
1213.272	3480
1215.565	3396
1217.858	3478
1220.15	3481
1222.443	3493
1224.734	3512
1227.024	3504
1229.313	3489
1231.602	3540
1233.892	3564
1236.18	3550
1238.467	3578
1240.754	3640
1243.04	3535
1245.325	3597
1247.612	3589
1249.896	3622
1252.178	3586
1254.461	3640
1256.743	3557
1259.027	3559
1261.308	3650
1263.587	3570
1265.867	3615
1268.146	3592
1270.425	3653
1272.703	3510
1274.981	3590
1277.256	3601
1279.532	3623
1281.808	3704
1284.083	3632
1286.358	3613
1288.63	3547
1290.904	3555
1293.175	3572
1295.449	3499
1297.719	3532
1299.99	3557
1302.259	3497
1304.529	3539
1306.798	3629
1309.065	3561
1311.333	3499
1313.599	3527
1315.866	3559
1318.131	3564
1320.396	3581
1322.66	3593
1324.925	3562
1327.187	3530
1329.448	3593
1331.711	3628
1333.974	3671
1336.234	3641
1338.493	3611
1340.752	3571
1343.01	3564
1345.269	3610
1347.526	3569
1349.784	3577
1352.04	3590
1354.295	3586
1356.552	3601
1358.806	3568
1361.059	3595
1363.312	3582
1365.564	3538
1367.818	3577
1370.069	3614
1372.318	3667
1374.568	3571
1376.817	3515
1379.066	3652
1381.316	3628
1383.564	3648
1385.809	3593
1388.056	3585
1390.301	3644
1392.549	3567
1394.793	3692
1397.036	3770
1399.279	3794
1401.522	3760
1403.763	3763
1406.007	3752
1408.248	3739
1410.487	3695
1412.727	3677
1414.965	3682
1417.205	3712
1419.442	3641
1421.68	3690
1423.915	3693
1426.152	3710
1428.388	3732
1430.623	3660
1432.857	3719
1435.091	3739
1437.323	3744
1439.556	3779
1441.789	3810
1444.019	3833
1446.25	3778
1448.48	3796
1450.708	3714
1452.938	3796
1455.167	3866
1457.394	3847
1459.62	3712
1461.846	3812
1464.073	3811
1466.299	3794
1468.523	3726
1470.746	3712
1472.969	3683
1475.191	3784
1477.415	3780
1479.636	3737
1481.858	3614
1484.078	3575
1486.298	3639
1488.518	3657
1490.736	3632
1492.954	3655
1495.169	3637
1497.386	3628
1499.602	3634
1501.819	3542
1504.034	3657
1506.248	3578
1508.462	3675
1510.675	3580
1512.888	3549
1515.1	3627
1517.311	3557
1519.522	3585
1521.732	3603
1523.942	3652
1526.151	3650
1528.36	3603
1530.566	3668
1532.773	3648
1534.98	3634
1537.187	3622
1539.392	3683
1541.596	3632
1543.801	3542
1546.005	3675
1548.208	3631
1550.411	3709
1552.612	3662
1554.814	3687
1557.013	3645
1559.212	3635
1561.414	3700
1563.612	3703
1565.811	3626
1568.007	3655
1570.203	3743
1572.403	3789
1574.598	3699
1576.792	3742
1578.988	3761
1581.181	3618
1583.376	3774
1585.568	3705
1587.761	3681
1589.952	3684
1592.143	3750
1594.333	3729
1596.524	3810
1598.715	3762
1600.903	3718
1603.091	3794
1605.278	3737
1607.466	3706
1609.652	3805
1611.838	3685
1614.023	3798
1616.207	3824
1618.391	3685
1620.576	3768
1622.759	3802
1624.941	3832
1627.123	3692
1629.304	3786
1631.484	3793
1633.664	3793
1635.844	3855
1638.022	3814
1640.201	3821
1642.38	3842
1644.556	3786
1646.732	3834
1648.908	3832
1651.084	3881
1653.257	3807
1655.433	3802
1657.607	3790
1659.779	3918
1661.951	3799
1664.122	3837
1666.295	3922
1668.467	3874
1670.635	3910
1672.805	3907
1674.973	3873
1677.142	3875
1679.31	3880
1681.478	3791
1683.644	3888
1685.81	3926
1687.975	3762
1690.142	3799
1692.305	3880
1694.468	3859
1696.632	3856
1698.794	3869
1700.957	3773
1703.119	3800
1705.279	3745
1707.439	3793
1709.598	3794
1711.758	3786
1713.917	3768
1716.075	3741
1718.231	3820
1720.388	3739
1722.543	3795
1724.702	3788
1726.856	3722
1729.01	3807
1731.164	3749
1733.317	3735
1735.471	3794
1737.623	3753
1739.774	3739
1741.925	3840
1744.075	3766
1746.225	3798
1748.376	3759
1750.524	3761
1752.672	3748
1754.82	3761
1756.965	3755
1759.113	3822
1761.259	3704
1763.405	3850
1765.549	3813
1767.694	3787
1769.836	3801
1771.981	3815
1774.123	3771
1776.264	3749
1778.405	3894
1780.546	3855
1782.687	3897
1784.827	3795
1786.966	3822
1789.103	3848
1791.242	3796
1793.381	3750
1795.517	3747
1797.653	3805
1799.788	3828
1801.923	3845
1804.057	3786
1806.193	3794
1808.326	3775
1810.457	3741
1812.59	3834
1814.721	3873
1816.855	3816
1818.984	3771
1821.113	3772
1823.244	3717
1825.372	3839
1827.499	3797
1829.63	3878
1831.756	3777
1833.882	3825
1836.007	3857
1838.132	3818
1840.26	3820
1842.384	3824
1844.507	3796
1846.63	3817
1848.752	3751
1850.875	3790
1852.996	3853
1855.118	3781
1857.238	3816
1859.358	3755
1861.477	3775
1863.597	3803
1865.715	3804
1867.832	3834
1869.948	3760
1872.064	3711
1874.181	3808
1876.297	3779
1878.411	3864
1880.526	3811
1882.639	3786
1884.752	3684
1886.865	3811
1888.977	3856
1891.089	3799
1893.2	3821
1895.308	3756
1897.42	3757
1899.53	3883
1901.639	3931
1903.745	3829
1905.853	3838
1907.962	3827
1910.067	3837
1912.174	3860
1914.278	3828
1916.383	3982
1918.486	3911
1920.592	3886
1922.694	3858
1924.797	3896
1926.898	3911
1929	3869
1931.102	3840
1933.203	3812
1935.301	3858
1937.401	3881
1939.499	3828
1941.598	3881
1943.697	3850
1945.793	3916
1947.888	3921
1949.985	3958
1952.08	3839
1954.176	3857
1956.269	3841
1958.364	3890
1960.457	3839
1962.549	3807
1964.642	3824
1966.733	3850
1968.823	3875
1970.913	3766
1973.005	3769
1975.093	3846
1977.184	3891
1979.271	3855
1981.359	3913
1983.446	3827
1985.532	3922
1987.619	3869
1989.705	3890
1991.789	3828
1993.874	3813
1995.956	3804
1998.041	3810
2000.123	3920
2002.206	3822
2004.287	3838
2006.368	3717
2008.449	3839
2010.529	3770
2012.609	3829
2014.688	3856
2016.766	3730
2018.843	3786
2020.922	3831
2022.999	3811
2025.074	3817
2027.15	3854
2029.225	3780
2031.299	3851
2033.375	3913
2035.447	3762
2037.52	3823
2039.592	3917
2041.664	3845
2043.736	3884
2045.807	3802
2047.876	3806
2049.947	3746
2052.015	3852
2054.086	3797
2056.153	3791
2058.221	3815
2060.288	3860
2062.353	3887
2064.42	3870
2066.486	3863
2068.55	3849
2070.614	3835
2072.678	3874
2074.741	3813
2076.805	3815
2078.866	3779
2080.929	3754
2082.99	3855
2085.049	3842
2087.109	3800
2089.17	3870
2091.228	3919
2093.286	3850
2095.344	3850
2097.4	3903
2099.46	3827
2101.516	3873
2103.572	3889
2105.626	3873
2107.679	3888
2109.735	3834
2111.788	3911
2113.841	3841
2115.894	3816
2117.945	3875
2119.997	3829
2122.049	3813
2124.1	3880
2126.148	3871
2128.197	3711
2130.246	3853
2132.296	3797
2134.342	3867
2136.39	3859
2138.437	3888
2140.483	3883
2142.527	3872
2144.574	3773
2146.619	3837
2148.661	3821
2150.705	3787
2152.747	3769
2154.792	3791
2156.832	3816
2158.874	3783
2160.915	3856
2162.954	3876
2164.995	3853
2167.034	3788
2169.072	3832
2171.111	3835
2173.148	3762
2175.186	3805
2177.223	3747
2179.258	3779
2181.294	3718
2183.328	3788
2185.362	3764
2187.398	3753
2189.431	3779
2191.463	3738
2193.495	3792
2195.528	3818
2197.56	3797
2199.59	3790
2201.62	3757
2203.649	3766
2205.678	3710
2207.708	3768
2209.737	3814
2211.764	3841
2213.791	3767
2215.817	3732
2217.843	3748
2219.87	3703
2221.895	3840
2223.919	3728
2225.942	3743
2227.966	3687
2229.988	3737
2232.012	3803
2234.032	3765
2236.054	3872
2238.074	3735
2240.095	3796
2242.116	3754
2244.135	3771
2246.153	3721
2248.171	3767
2250.188	3775
2252.208	3803
2254.223	3735
2256.239	3841
2258.255	3795
2260.269	3742
2262.283	3670
2264.3	3780
2266.312	3666
2268.325	3751
2270.336	3782
2272.349	3769
2274.362	3778
2276.372	3743
2278.383	3733
2280.392	3748
2282.402	3745
2284.409	3758
2286.418	3861
2288.427	3730
2290.433	3789
2292.441	3813
2294.446	3691
2296.453	3743
2298.459	3809
2300.463	3705
2302.466	3747
2304.471	3801
2306.475	3777
2308.477	3674
2310.478	3732
2312.481	3760
2314.481	3727
2316.481	3717
2318.482	3780
2320.482	3794
2322.48	3700
2324.48	3817
2326.478	3722
2328.476	3730
2330.473	3753
2332.469	3766
2334.465	3689
2336.46	3745
2338.454	3726
2340.45	3742
2342.444	3770
2344.437	3683
2346.43	3689
2348.421	3733
2350.414	3680
2352.405	3705
2354.396	3701
2356.386	3733
2358.376	3672
2360.366	3704
2362.355	3709
2364.343	3744
2366.331	3638
2368.317	3717
2370.304	3738
2372.292	3717
2374.278	3705
2376.262	3718
2378.247	3700
2380.23	3696
2382.216	3672
2384.199	3630
2386.181	3648
2388.163	3775
2390.144	3742
2392.127	3688
2394.107	3669
2396.087	3630
2398.066	3673
2400.046	3645
2402.023	3714
2404.004	3710
2405.981	3709
2407.957	3767
2409.934	3580
2411.91	3659
2413.886	3730
2415.862	3691
2417.836	3702
2419.809	3677
2421.784	3606
2423.756	3640
2425.73	3650
2427.701	3649
2429.672	3683
2431.644	3742
2433.615	3755
2435.586	3650
2437.555	3685
2439.523	3686
2441.491	3659
2443.459	3642
2445.428	3625
2447.395	3605
2449.361	3675
2451.327	3574
2453.292	3614
2455.257	3633
2457.223	3641
2459.187	3625
2461.15	3670
2463.113	3659
2465.076	3621
2467.039	3621
2468.999	3667
2470.96	3643
2472.921	3630
2474.881	3726
2476.841	3675
2478.8	3689
2480.759	3650
2482.717	3620
2484.675	3566
2486.63	3590
2488.589	3647
2490.545	3656
2492.5	3641
2494.455	3612
2496.408	3584
2498.364	3674
2500.318	3697
2502.27	3627
2504.223	3587
2506.174	3588
2508.126	3593
2510.078	3708
2512.03	3605
2513.979	3613
2515.927	3552
2517.877	3591
2519.826	3562
2521.775	3611
2523.722	3515
2525.668	3579
2527.616	3605
2529.561	3610
2531.508	3561
2533.452	3572
2535.398	3556
2537.342	3644
2539.284	3625
2541.229	3650
2543.173	3558
2545.114	3656
2547.055	3651
2548.996	3557
2550.938	3603
2552.878	3607
2554.817	3539
2556.756	3614
2558.695	3573
2560.633	3603
2562.572	3590
2564.509	3665
2566.445	3528
2568.382	3532
2570.317	3611
2572.254	3522
2574.189	3531
2576.123	3563
2578.057	3603
2579.99	3580
2581.923	3694
2583.855	3584
2585.788	3623
2587.719	3621
2589.65	3665
2591.579	3623
2593.511	3654
2595.44	3649
2597.37	3535
2599.297	3659
2601.225	3596
2603.153	3594
2605.08	3651
2607.007	3558
2608.932	3667
2610.858	3621
2612.782	3686
2614.709	3599
2616.632	3645
2618.556	3634
2620.478	3691
2622.401	3574
2624.324	3699
2626.247	3606
2628.167	3641
2630.088	3630
2632.008	3681
2633.928	3611
2635.848	3578
2637.766	3581
2639.684	3652
2641.603	3688
2643.519	3695
2645.437	3589
2647.353	3608
2649.27	3540
2651.184	3608
2653.099	3623
2655.014	3638
2656.928	3534
2658.842	3688
2660.755	3610
2662.667	3532
2664.579	3644
2666.491	3575
2668.402	3651
2670.312	3644
2672.222	3609
2674.132	3618
2676.042	3563
2677.951	3615
2679.859	3607
2681.766	3554
2683.674	3573
2685.582	3567
2687.488	3574
2689.392	3612
2691.298	3654
2693.202	3586
2695.107	3626
2697.012	3584
2698.914	3579
2700.817	3587
2702.72	3677
2704.622	3509
2706.524	3573
2708.425	3594
2710.326	3678
2712.225	3526
2714.125	3591
2716.024	3621
2717.923	3547
2719.822	3610
2721.719	3622
2723.616	3514
2725.512	3569
2727.41	3669
2729.305	3539
2731.201	3564
2733.095	3589
2734.99	3526
2736.884	3528
2738.778	3560
2740.67	3562
2742.562	3608
2744.455	3579
2746.346	3585
2748.238	3535
2750.129	3532
2752.018	3584
2753.907	3567
2755.797	3498
2757.687	3600
2759.575	3541
2761.462	3575
2763.349	3605
2765.237	3613
2767.124	3543
2769.009	3613
2770.894	3538
2772.779	3530
2774.663	3578
2776.547	3539
2778.431	3588
2780.314	3530
2782.197	3573
2784.078	3617
2785.96	3536
2787.842	3547
2789.723	3527
2791.603	3600
2793.483	3523
2795.362	3549
2797.241	3514
2799.121	3526
2800.997	3567
2802.874	3495
2804.751	3601
2806.628	3519
2808.506	3428
2810.38	3521
2812.255	3554
2814.13	3557
2816.003	3562
2817.878	3529
2819.752	3498
2821.623	3552
2823.496	3517
2825.368	3576
2827.238	3551
2829.111	3556
2830.98	3652
2832.851	3646
2834.719	3560
2836.589	3545
2838.458	3622
2840.327	3534
2842.193	3632
2844.061	3549
2845.927	3635
2847.794	3620
2849.66	3646
2851.525	3629
2853.39	3683
2855.254	3693
2857.117	3692
2858.983	3689
2860.845	3764
2862.707	3739
2864.569	3798
2866.431	3742
2868.293	3711
2870.154	3759
2872.013	3716
2873.873	3734
2875.733	3848
2877.592	3773
2879.451	3806
2881.309	3891
2883.166	3958
2885.022	3976
2886.879	4002
2888.736	4026
2890.591	4081
2892.446	4079
2894.301	4019
2896.155	4062
2898.009	4022
2899.863	4058
2901.716	3987
2903.568	4001
2905.419	3928
2907.27	3983
2909.123	3956
2910.973	4002
2912.824	3987
2914.673	3911
2916.521	3995
2918.372	4097
2920.22	4104
2922.067	4035
2923.914	4147
2925.761	4095
2927.607	4107
2929.455	4134
2931.301	4203
2933.144	4195
2934.99	4103
2936.833	4184
2938.678	4328
2940.522	4322
2942.364	4327
2944.207	4345
2946.048	4409
2947.891	4462
2949.731	4495
2951.571	4580
2953.412	4556
2955.25	4480
2957.09	4493
2958.93	4390
2960.767	4450
2962.606	4481
2964.443	4496
2966.279	4498
2968.116	4291
2969.953	4204
2971.788	4240
2973.623	4172
2975.457	4073
2977.292	4026
2979.127	4017
2980.959	3954
2982.792	4002
2984.624	3901
2986.455	3969
2988.288	3856
2990.119	3850
2991.949	3852
2993.779	3737
2995.608	3729
2997.439	3805
2999.268	3697
3001.096	3650
3002.923	3776
3004.751	3639
3006.578	3609
3008.406	3591
3010.232	3619
3012.057	3644
3013.883	3541
3015.706	3560
3017.532	3584
3019.356	3515
3021.179	3531
3023.002	3522
3024.823	3475
3026.646	3535
3028.469	3489
3030.289	3428
3032.11	3500
3033.93	3446
3035.749	3460
3037.57	3353
3039.39	3381
3041.207	3366
3043.026	3480
3044.842	3378
3046.661	3428
3048.477	3490
3050.294	3422
3052.109	3440
3053.925	3402
3055.739	3429
3057.555	3476
3059.368	3501
3061.181	3405
3062.995	3368
3064.807	3339
3066.62	3341
3068.433	3490
3070.243	3412
3072.054	3425
3073.865	3461
3075.675	3345
3077.485	3357
3079.293	3365
3081.102	3373
3082.911	3356
3084.719	3329
3086.527	3337
3088.333	3350
3090.139	3416
3091.945	3326
3093.75	3388
3095.557	3299
3097.361	3346
3099.165	3342
3100.969	3346
3102.772	3307
3104.575	3321
3106.379	3310
3108.181	3325
3109.982	3325
3111.783	3263
3113.584	3320
3115.386	3301
3117.186	3294
3118.985	3367
3120.783	3324
3122.582	3313
3124.381	3338
3126.179	3250
3127.975	3325
3129.772	3342
3131.569	3337
3133.365	3267
3135.161	3294
3136.956	3219
3138.751	3285
3140.544	3268
3142.338	3158
3144.132	3210
3145.925	3313
3147.717	3254
3149.509	3195
3151.301	3335
3153.091	3250
3154.884	3275
3156.673	3252
3158.462	3267
3160.252	3215
3162.041	3253
3163.831	3172
3165.618	3321
3167.405	3247
3169.193	3244
3170.979	3242
3172.767	3231
3174.553	3283
3176.338	3180
3178.123	3279
3179.907	3227
3181.692	3226
3183.477	3231
3185.259	3187
3187.042	3319
3188.824	3207
3190.607	3224
3192.389	3236
3194.17	3195
3195.951	3294
3197.73	3172
3199.51	3225
3201.289	3195
3203.07	3196
3204.848	3209
3206.626	3256
3208.403	3176
3210.18	3254
3211.959	3211
3213.735	3186
3215.511	3232
3217.285	3163
3219.06	3254
3220.836	3161
3222.611	3247
3224.384	3191
3226.158	3198
3227.929	3291
3229.702	3171
3231.476	3236
3233.248	3207
3235.018	3252
3236.789	3257
3238.56	3185
3240.33	3181
3242.1	3225
3243.869	3218
3245.637	3197
3247.405	3247
3249.172	3178
3250.941	3288
3252.707	3184
3254.474	3225
3256.24	3258
3258.006	3137
3259.772	3167
3261.537	3254
3263.301	3193
3265.065	3229
3266.828	3157
3268.592	3221
3270.355	3220
3272.117	3200
3273.878	3215
3275.64	3273
3277.401	3228
3279.162	3195
3280.922	3225
3282.682	3169
3284.441	3160
3286.199	3256
3287.959	3184
3289.716	3177
3291.475	3181
3293.232	3290
3294.988	3215
3296.744	3244
3298.501	3236
3300.256	3245
3302.011	3204
3303.766	3146
3305.52	3170
3307.275	3231
3309.028	3241
3310.781	3243
3312.533	3193
3314.285	3188
3316.038	3138
3317.789	3174
3319.54	3174
3321.289	3205
3323.039	3148
3324.789	3207
3326.539	3186
3328.288	3133
3330.035	3210
3331.783	3156
3333.531	3175
3335.28	3214
3337.025	3196
3338.771	3198
3340.518	3160
3342.262	3205
3344.009	3162
3345.753	3116
3347.497	3185
3349.24	3113
3350.983	3081
3352.726	3219
3354.469	3220
3356.212	3112
3357.952	3190
3359.694	3205
3361.434	3170
3363.176	3163
3364.916	3136
3366.654	3107
3368.394	3165
3370.132	3147
3371.871	3136
3373.61	3170
3375.346	3154
3377.083	3140
3378.82	3142
3380.556	3093
3382.292	3090
3384.027	3130
3385.763	3133
3387.497	3093
3389.231	3143
3390.965	3162
3392.698	3087
3394.431	3101
3396.164	3127
3397.896	3091
3399.627	3055
3401.36	3039
3403.09	3080
3404.82	3075
3406.55	3057
3408.279	3106
3410.01	3098
3411.738	3091
3413.467	3052
3415.194	3115
3416.92	3086
3418.647	3060
3420.375	3004
3422.102	3139
3423.827	3083
3425.553	3024
3427.277	3063
3429.003	3103
3430.727	2980
3432.451	2969
3434.173	3052
3435.896	2963
3437.62	3090
3439.343	3019
3441.063	3106
3442.785	3046
3444.505	3044
3446.226	3050
3447.948	2958
3449.666	3013
3451.386	3003
3453.104	2957
3454.823	3035
3456.541	2992
3458.259	2961
3459.976	2977
3461.693	3012
3463.408	2965
3465.125	3041
3466.841	2928
3468.556	2942
3470.271	2976
3471.985	2970
3473.698	2953
3475.414	3006
3477.126	2914
3478.838	2935
3480.55	2976
3482.263	2949
3483.975	2869
3485.686	2897
3487.396	2914
3489.106	2943
3490.817	2934
3492.526	2981
3494.236	2934
3495.944	2920
3497.652	2904
3499.359	2967
3501.066	2881
3502.775	2856
3504.481	2840
3506.187	2800
3507.893	2966
3509.598	2900
3511.304	2966
3513.009	2901
3514.713	2891
3516.417	2865
3518.12	2839
3519.821	2947
3521.525	2867
3523.228	2856
3524.929	2871
3526.631	2858
3528.33	2872
3530.032	2875
3531.733	2803
3533.433	2848
3535.131	2863
3536.83	2875
3538.529	2818
3540.227	2840
3541.925	2788
3543.623	2849
3545.319	2854
3547.016	2846
3548.712	2784
3550.408	2854
3552.103	2776
3553.798	2858
3555.491	2818
3557.188	2766
3558.88	2824
3560.574	2771
3562.266	2784
3563.959	2723
3565.651	2755
3567.343	2721
3569.035	2777
3570.725	2850
3572.415	2813
3574.106	2812
3575.797	2814
3577.485	2766
3579.174	2748
3580.863	2848
3582.551	2759
3584.238	2744
3585.926	2746
3587.613	2741
3589.3	2778
3590.986	2735
3592.671	2719
3594.357	2675
3596.042	2750
3597.726	2723
3599.41	2661
3601.094	2661
3602.778	2706
3604.461	2745
3606.143	2747
3607.825	2702
3609.507	2648
3611.188	2632
3612.87	2654
3614.551	2755
3616.229	2723
3617.909	2711
3619.589	2662
3621.269	2696
3622.948	2646
3624.625	2693
3626.302	2704
3627.98	2686
3629.657	2660
3631.334	2674
3633.01	2662
3634.686	2669
3636.361	2589
3638.036	2669
3639.712	2584
3641.385	2644
3643.06	2610
3644.732	2658
3646.405	2573
3648.08	2537
3649.751	2670
3651.424	2590
3653.094	2594
3654.766	2567
3656.436	2600
3658.106	2620
3659.777	2594
3661.446	2624
3663.115	2549
3664.783	2599
3666.452	2551
3668.121	2614
3669.788	2592
3671.454	2606
3673.121	2583
3674.789	2514
3676.455	2516
3678.12	2570
3679.784	2564
3681.45	2552
3683.114	2602
3684.779	2589
3686.442	2523
3688.105	2611
3689.768	2586
3691.43	2596
3693.093	2581
3694.754	2504
3696.415	2593
3698.076	2589
3699.736	2563
3701.396	2577
3703.057	2553
3704.716	2457
3706.375	2600
3708.034	2572
3709.692	2553
3711.351	2517
3713.008	2523
3714.665	2507
3716.321	2582
3717.977	2493
3719.634	2546
3721.29	2550
3722.945	2553
3724.598	2474
3726.253	2541
3727.907	2543
3729.561	2487
3731.214	2458
3732.867	2527
3734.518	2447
3736.171	2497
3737.824	2512
3739.474	2515
3741.125	2490
3742.775	2500
3744.425	2536
3746.074	2548
3747.725	2470
3749.373	2557
3751.022	2512
3752.669	2460
3754.318	2509
3755.966	2508
3757.612	2475
3759.259	2533
3760.905	2444
3762.55	2495
3764.197	2504
3765.842	2537
3767.486	2519
3769.131	2480
3770.774	2544
3772.417	2467
3774.061	2474
3775.705	2446
3777.347	2449
3778.988	2491
3780.629	2449
3782.271	2455
3783.912	2439
3785.552	2424
3787.192	2464
3788.831	2486
3790.472	2453
3792.112	2467
3793.75	2485
3795.388	2447
3797.024	2446
3798.661	2385
3800.3	2515
3801.936	2456
3803.572	2487
3805.208	2477
3806.844	2448
3808.48	2361
3810.115	2409
3811.748	2470
3813.382	2417
3815.016	2415
3816.649	2435
3818.283	2407
3819.914	2396
3821.547	2484
3823.178	2350
3824.809	2448
3826.441	2399
3828.072	2424
3829.701	2389
3831.331	2404
3832.96	2445
3834.591	2430
3836.219	2445
3837.847	2400
3839.475	2346
3841.102	2386
3842.729	2359
3844.357	2391
3845.984	2359
3847.609	2397
3849.234	2442
3850.86	2371
3852.485	2364
3854.11	2348
3855.734	2355
3857.357	2305
3858.981	2369
3860.603	2379
3862.227	2337
3863.848	2417
3865.471	2418
3867.092	2338
3868.713	2392
3870.334	2305
3871.954	2328
3873.575	2365
3875.194	2309
3876.813	2386
3878.433	2386
3880.051	2291
3881.669	2367
3883.286	2320
3884.904	2365
3886.52	2388
3888.138	2359
3889.754	2296
3891.37	2316
3892.985	2318
3894.6	2339
3896.216	2293
3897.831	2319
3899.444	2350
3901.058	2324
3902.67	2307
3904.283	2302
3905.897	2303
3907.509	2379
3909.121	2294
3910.731	2280
3912.342	2332
3913.954	2373
3915.563	2365
3917.174	2329
3918.783	2356
3920.391	2242
3922.002	2305
3923.611	2301
3925.218	2386
3926.826	2302
3928.432	2315
3930.039	2299
3931.647	2297
3933.253	2341
3934.859	2299
3936.464	2226
3938.068	2269
3939.675	2325
3941.278	2298
3942.883	2247
3944.486	2293
3946.089	2304
3947.692	2291
3949.295	2286
3950.898	2228
3952.499	2323
3954.1	2244
3955.7	2281
3957.303	2299
3958.903	2260
3960.502	2222
3962.101	2265
3963.7	2265
3965.301	2315
3966.899	2223
3968.497	2264
3970.094	2267
3971.691	2296
3973.288	2232
3974.885	2200
3976.481	2276
3978.077	2250
3979.672	2280
3981.267	2230
3982.863	2185
3984.457	2310
3986.051	2248
3987.645	2239
3989.238	2210
3990.831	2248
3992.425	2194
3994.017	2199
3995.607	2236
3997.199	2260
3998.79	2247
4000.382	2168
4001.973	2176
4003.561	2168
4005.151	2170
4006.741	2234
4008.331	2171
4009.918	2194
4011.507	2216
4013.095	2206
4014.681	2261
4016.269	2139
4017.856	2187
4019.443	2155
4021.028	2132
4022.614	2199
4024.199	2181
4025.785	2187
4027.37	2130
4028.953	2094
4030.536	2225
4032.12	2100
4033.704	2146
4035.287	2120
4036.869	2208
4038.45	2147
4040.032	2122
4041.613	2132
4043.195	2155
4044.776	2189
4046.356	2135
4047.935	2162
4049.515	2143
4051.095	2131
4052.674	2109
4054.251	2147
4055.829	2152
4057.406	2140
4058.985	2161
4060.562	2138
4062.139	2062
4063.715	2100
4065.29	2117
4066.865	2128
4068.442	2127
4070.016	2135
4071.59	2083
4073.164	2089
4074.738	2113
4076.312	2103
4077.885	2140
4079.458	2177
4081.03	2160
4082.602	2132
4084.173	2155
4085.745	2096
4087.315	2136
4088.886	2114
4090.456	2101
4092.026	2178
4093.596	2073
4095.165	2098
4096.734	2120
4098.301	2129
4099.869	2089
4101.437	2118
4103.006	2096
4104.572	2124
4106.139	2118
4107.704	2101
4109.27	2069
4110.837	2110
4112.401	2051
4113.966	2099
4115.53	2061
4117.094	2061
4118.659	2074
4120.223	2036
4121.785	2108
4123.347	2074
4124.909	2066
4126.471	2106
4128.034	2078
4129.595	2008
4131.155	2050
4132.716	2061
4134.275	2056
4135.836	2045
4137.395	1988
4138.955	2074
4140.513	2141
4142.071	2049
4143.628	2041
4145.188	2054
4146.745	2078
4148.302	2044
4149.858	2021
4151.414	2008
4152.971	2017
4154.526	2069
4156.081	1995
4157.635	2047
4159.189	1996
4160.745	2074
4162.298	2031
4163.852	2026
4165.405	2036
4166.957	1946
4168.51	2007
4170.063	1976
4171.614	1985
4173.166	2066
4174.717	2005
4176.267	1991
4177.817	2029
4179.368	1980
4180.917	1919
4182.466	2009
4184.016	1966
4185.564	2011
4187.112	2028
4188.66	1925
4190.207	1917
4191.754	1954
4193.301	1966
4194.848	1942
4196.394	1989
4197.94	1971
4199.484	2002
4201.03	1918
4202.575	1988
4204.12	1926
4205.663	1967
4207.207	1992
4208.75	1996
4210.292	1948
4211.836	1974
4213.378	1953
4214.92	1928
4216.46	1934
4218.002	1967
4219.544	2002
4221.083	1929
4222.625	1933
4224.164	1913
4225.703	1903
4227.244	1875
4228.782	1931
4230.32	1907
4231.857	1915
4233.395	1908
4234.933	1921
4236.471	1939
4238.007	1957
4239.542	1931
4241.078	1912
4242.614	1973
4244.15	1924
4245.685	1945
4247.219	1911
4248.753	1923
4250.287	1931
4251.82	1916
4253.354	1927
4254.887	1941
4256.419	1900
4257.951	1941
4259.483	1929
4261.016	1917
4262.547	1904
4264.078	1905
4265.608	1905
4267.137	1964
4268.668	1888
4270.197	1929
4271.727	1949
4273.254	1909
4274.783	1931
4276.311	1881
4277.84	1908
4279.366	1929
4280.894	1921
4282.42	1897
4283.946	1914
4285.473	1893
4286.998	1899
4288.523	1900
4290.047	1889
4291.572	1933
4293.096	1865
4294.622	1884
4296.144	1897
4297.668	1852
4299.19	1878
4300.713	1852
4302.236	1850
4303.758	1924
4305.279	1869
4306.799	1870
4308.321	1822
4309.842	1840
4311.361	1814
4312.882	1845
4314.401	1849
