400.0961	2120
402.6185	2137
405.1424	2111
407.6635	2191
410.1838	2128
412.7035	2145
415.2225	2217
417.7388	2249
420.2585	2210
422.7754	2234
425.2917	2221
427.8072	2198
430.3221	2266
432.8363	2273
435.3498	2222
437.8626	2246
440.3727	2254
442.8841	2251
445.3969	2338
447.907	2239
450.4142	2294
452.9229	2235
455.4289	2223
457.9362	2204
460.4449	2286
462.9488	2227
465.454	2248
467.9566	2215
470.4604	2178
472.9637	2239
475.4662	2238
477.966	2255
480.4671	2252
482.9656	2228
485.4633	2299
487.9645	2268
490.4608	2306
492.9566	2287
495.4536	2318
497.948	2348
500.4437	2304
502.9387	2313
505.431	2304
507.9226	2264
510.4136	2281
512.9079	2324
515.3975	2328
517.8864	2322
520.3746	2339
522.8622	2322
525.3491	2313
527.8394	2310
530.3249	2278
532.8098	2302
535.2939	2326
537.7774	2317
540.2623	2282
542.7444	2321
545.2259	2342
547.7067	2361
550.1868	2314
552.6683	2257
555.147	2384
557.6231	2364
560.1005	2386
562.5773	2292
565.0534	2334
567.5308	2367
570.0056	2420
572.4776	2354
574.951	2355
577.4237	2358
579.8978	2375
582.3671	2395
584.8378	2420
587.3079	2408
589.7773	2428
592.244	2464
594.714	2469
597.1793	2417
599.6461	2443
602.1121	2431
604.5754	2387
607.0421	2412
609.5042	2392
611.9675	2395
614.4282	2399
616.8902	2428
619.3515	2404
621.8122	2347
624.2702	2414
626.7296	2381
629.1863	2335
631.6423	2411
634.1017	2380
636.5563	2387
639.0104	2405
641.4658	2364
643.9185	2381
646.3725	2341
648.8239	2382
651.2766	2408
653.7266	2486
656.176	2436
658.6247	2467
661.0748	2418
663.5242	2386
665.9709	2413
668.417	2480
670.8624	2445
673.3092	2450
675.7533	2497
678.1968	2393
680.6395	2427
683.0817	2427
685.5251	2397
687.9659	2426
690.4061	2480
692.8456	2418
695.2844	2455
697.7226	2445
700.1621	2517
702.599	2496
705.0332	2512
707.4688	2538
709.9036	2474
712.3399	2496
714.7735	2553
717.2044	2463
719.6367	2524
722.0683	2562
724.4993	2579
726.9296	2603
729.3593	2573
731.7883	2551
734.2147	2562
736.6423	2539
739.0714	2575
741.4958	2540
743.9216	2601
746.3447	2573
748.7691	2574
751.1929	2629
753.616	2653
756.0366	2569
758.4584	2556
760.8776	2621
763.2982	2598
765.718	2628
768.1373	2659
770.5539	2633
772.9698	2605
775.3871	2606
777.8038	2616
780.2178	2603
782.6332	2548
785.0459	2675
787.458	2654
789.8714	2666
792.2842	2604
794.6943	2618
797.1038	2600
799.5127	2672
801.9209	2631
804.3324	2628
806.7393	2588
809.1456	2653
811.5513	2675
813.9562	2650
816.3625	2670
818.7663	2593
821.1693	2637
823.5718	2628
825.9735	2660
828.3746	2595
830.7771	2725
833.177	2667
835.5762	2693
837.9747	2697
840.3727	2624
842.772	2718
845.1666	2749
847.5626	2710
849.958	2708
852.3527	2766
854.7488	2690
857.1403	2747
859.5331	2783
861.9253	2699
864.3168	2710
866.7057	2652
869.098	2710
871.4876	2684
873.8746	2790
876.263	2735
878.6487	2646
881.0378	2724
883.4243	2751
885.8081	2714
888.1933	2739
890.5759	2713
892.9598	2738
895.343	2681
897.7256	2738
900.1057	2675
902.4871	2747
904.8659	2704
907.246	2693
909.6254	2713
912.0023	2737
914.3786	2709
916.7562	2777
919.1331	2809
921.5074	2840
923.8831	2923
926.2562	2920
928.6287	2830
931.0005	2898
933.3757	2833
935.7462	2956
938.1162	2893
940.4855	2924
942.8542	2894
945.2242	2860
947.5916	2946
949.9584	3040
952.3266	3048
954.6921	3134
957.0571	3178
959.4233	3239
961.787	3323
964.15	3227
966.5125	3251
968.8742	3116
971.2354	3076
973.5959	3010
975.9559	2946
978.3151	2899
980.6738	2793
983.0338	2832
985.3912	2878
987.7461	2899
990.1022	2795
992.4578	2828
994.8127	2762
997.1689	2793
999.5207	2910
1001.874	2790
1004.226	2830
1006.576	2731
1008.929	2805
1011.28	2874
1013.628	2774
1015.977	2847
1018.324	2889
1020.674	2897
1023.019	2875
1025.366	2863
1027.713	2863
1030.056	2867
1032.399	2829
1034.746	2831
1037.087	2850
1039.431	2841
1041.771	2833
1044.113	2866
1046.454	2841
1048.793	2894
1051.133	2815
1053.471	2877
1055.807	2853
1058.146	2883
1060.483	2849
1062.818	2852
1065.153	2881
1067.489	2881
1069.822	2882
1072.156	2933
1074.488	2984
1076.82	2855
1079.15	2924
1081.48	2899
1083.814	2876
1086.143	2838
1088.471	2857
1090.799	2931
1093.126	2854
1095.452	2917
1097.78	2889
1100.105	2923
1102.43	2871
1104.754	2894
1107.077	2936
1109.4	2891
1111.722	2919
1114.044	2873
1116.365	2951
1118.685	2915
1121.005	2948
1123.324	2782
1125.643	2877
1127.961	2929
1130.278	2922
1132.595	2911
1134.911	2909
1137.226	2859
1139.541	2852
1141.854	2948
1144.167	2861
1146.482	2871
1148.793	2884
1151.105	2871
1153.414	2912
1155.725	2878
1158.033	2892
1160.344	2821
1162.651	2857
1164.959	2854
1167.265	2868
1169.572	2930
1171.878	2874
1174.184	2913
1176.488	2904
1178.79	2966
1181.094	2821
1183.396	2939
1185.699	2899
1188.001	2958
1190.301	2926
1192.6	2850
1194.9	2890
1197.2	2934
1199.497	2864
1201.794	2905
1204.09	2930
1206.387	2914
1208.684	2932
1210.978	2943
1213.272	2984
1215.565	2992
1217.858	2863
1220.15	2905
1222.443	2999
1224.734	2955
1227.024	2894
1229.313	2961
1231.602	2928
1233.892	2918
1236.18	3000
1238.467	2996
1240.754	3065
1243.04	3016
1245.325	3009
1247.612	3022
1249.896	3070
1252.178	3036
1254.461	3123
1256.743	3054
1259.027	3037
1261.308	3063
1263.587	3033
1265.867	3106
1268.146	3037
1270.425	3101
1272.703	3028
1274.981	3027
1277.256	3052
1279.532	3039
1281.808	3061
1284.083	3084
1286.358	2972
1288.63	3046
1290.904	2979
1293.175	3028
1295.449	2954
1297.719	3014
1299.99	2957
1302.259	2940
1304.529	2968
1306.798	3034
1309.065	3013
1311.333	3001
1313.599	2980
1315.866	2994
1318.131	2981
1320.396	3070
1322.66	2970
1324.925	3055
1327.187	3015
1329.448	3007
1331.711	3041
1333.974	2984
1336.234	3102
1338.493	3003
1340.752	3046
1343.01	2987
1345.269	2978
1347.526	3002
1349.784	2953
1352.04	3058
1354.295	3029
1356.552	3039
1358.806	3103
1361.059	3007
1363.312	3057
1365.564	3023
1367.818	3016
1370.069	3060
1372.318	3032
1374.568	3009
1376.817	3032
1379.066	3015
1381.316	2961
1383.564	3031
1385.809	3073
1388.056	3059
1390.301	3088
1392.549	3090
1394.793	3153
1397.036	3076
1399.279	3130
1401.522	3185
1403.763	3098
1406.007	3143
1408.248	3187
1410.487	3188
1412.727	3117
1414.965	3098
1417.205	3172
1419.442	3188
1421.68	3101
1423.915	3135
1426.152	3187
1428.388	3083
1430.623	3150
1432.857	3224
1435.091	3221
1437.323	3077
1439.556	3143
1441.789	3101
1444.019	3231
1446.25	3177
1448.48	3174
1450.708	3150
1452.938	3167
1455.167	3249
1457.394	3208
1459.62	3177
1461.846	3227
1464.073	3155
1466.299	3269
1468.523	3169
1470.746	3174
1472.969	3109
1475.191	3125
1477.415	3051
1479.636	3103
1481.858	3054
1484.078	3090
1486.298	3069
1488.518	3143
1490.736	3058
1492.954	3050
1495.169	2979
1497.386	2966
1499.602	3036
1501.819	3064
1504.034	3013
1506.248	3055
1508.462	2993
1510.675	2950
1512.888	2987
1515.1	3000
1517.311	2996
1519.522	2969
1521.732	2990
1523.942	3095
1526.151	2998
1528.36	3042
1530.566	3007
1532.773	3045
1534.98	2983
1537.187	3031
1539.392	3113
1541.596	3087
1543.801	3035
1546.005	3031
1548.208	3003
1550.411	3014
1552.612	3109
1554.814	3068
1557.013	3064
1559.212	3034
1561.414	3096
1563.612	3072
1565.811	3094
1568.007	3102
1570.203	3071
1572.403	3055
1574.598	3069
1576.792	3150
1578.988	3036
1581.181	3129
1583.376	3102
1585.568	3083
1587.761	3096
1589.952	3164
1592.143	3111
1594.333	3099
1596.524	3070
1598.715	3151
1600.903	3171
1603.091	3153
1605.278	3160
1607.466	3180
1609.652	3152
1611.838	3176
1614.023	3209
1616.207	3181
1618.391	3230
1620.576	3075
1622.759	3162
1624.941	3147
1627.123	3182
1629.304	3099
1631.484	3204
1633.664	3212
1635.844	3190
1638.022	3135
1640.201	3209
1642.38	3172
1644.556	3213
1646.732	3245
1648.908	3205
1651.084	3197
1653.257	3129
1655.433	3115
1657.607	3152
1659.779	3197
1661.951	3223
1664.122	3219
1666.295	3266
1668.467	3209
1670.635	3200
1672.805	3278
1674.973	3179
1677.142	3241
1679.31	3202
1681.478	3173
1683.644	3140
1685.81	3218
1687.975	3206
1690.142	3123
1692.305	3177
1694.468	3176
1696.632	3249
1698.794	3263
1700.957	3108
1703.119	3174
1705.279	3077
1707.439	3113
1709.598	3168
1711.758	3095
1713.917	3122
1716.075	3115
1718.231	3122
1720.388	3070
1722.543	3123
1724.702	3144
1726.856	3102
1729.01	3133
1731.164	3144
1733.317	3136
1735.471	3068
1737.623	3218
1739.774	3140
1741.925	3111
1744.075	3238
1746.225	3139
1748.376	3085
1750.524	3012
1752.672	3108
1754.82	3148
1756.965	3093
1759.113	3097
1761.259	3106
1763.405	3108
1765.549	3105
1767.694	3130
1769.836	3148
1771.981	3160
1774.123	3105
1776.264	3160
1778.405	3184
1780.546	3102
1782.687	3157
1784.827	3112
1786.966	3205
1789.103	3173
1791.242	3116
1793.381	3080
1795.517	3186
1797.653	3208
1799.788	3229
1801.923	3172
1804.057	3161
1806.193	3224
1808.326	3111
1810.457	3111
1812.59	3182
1814.721	3166
1816.855	3128
1818.984	3168
1821.113	3189
1823.244	3146
1825.372	3218
1827.499	3087
1829.63	3091
1831.756	3167
1833.882	3144
1836.007	3150
1838.132	3173
1840.26	3182
1842.384	3194
1844.507	3166
1846.63	3238
1848.752	3115
1850.875	3137
1852.996	3142
1855.118	3133
1857.238	3132
1859.358	3160
1861.477	3137
1863.597	3168
1865.715	3149
1867.832	3126
1869.948	3192
1872.064	3157
1874.181	3222
1876.297	3115
1878.411	3123
1880.526	3134
1882.639	3172
1884.752	3134
1886.865	3062
1888.977	3154
1891.089	3163
1893.2	3158
1895.308	3147
1897.42	3145
1899.53	3100
1901.639	3149
1903.745	3212
1905.853	3164
1907.962	3225
1910.067	3201
1912.174	3224
1914.278	3233
1916.383	3117
1918.486	3180
1920.592	3288
1922.694	3152
1924.797	3268
1926.898	3168
1929	3351
1931.102	3227
1933.203	3153
1935.301	3196
1937.401	3184
1939.499	3227
1941.598	3217
1943.697	3153
1945.793	3165
1947.888	3188
1949.985	3296
1952.08	3097
1954.176	3188
1956.269	3197
1958.364	3198
1960.457	3173
1962.549	3249
1964.642	3224
1966.733	3147
1968.823	3171
1970.913	3230
1973.005	3178
1975.093	3253
1977.184	3184
1979.271	3174
1981.359	3163
1983.446	3210
1985.532	3158
1987.619	3202
1989.705	3169
1991.789	3188
1993.874	3138
1995.956	3251
1998.041	3186
2000.123	3076
2002.206	3232
2004.287	3208
2006.368	3179
2008.449	3158
2010.529	3093
2012.609	3244
2014.688	3215
2016.766	3211
2018.843	3234
2020.922	3139
2022.999	3175
2025.074	3223
2027.15	3235
2029.225	3163
2031.299	3208
2033.375	3204
2035.447	3266
2037.52	3143
2039.592	3191
2041.664	3091
2043.736	3164
2045.807	3120
2047.876	3222
2049.947	3213
2052.015	3167
2054.086	3120
2056.153	3237
2058.221	3152
2060.288	3186
2062.353	3188
2064.42	3206
2066.486	3176
2068.55	3208
2070.614	3159
2072.678	3208
2074.741	3143
2076.805	3177
2078.866	3119
2080.929	3202
2082.99	3147
2085.049	3280
2087.109	3244
2089.17	3142
2091.228	3172
2093.286	3169
2095.344	3209
2097.4	3236
2099.46	3152
2101.516	3179
2103.572	3224
2105.626	3116
2107.679	3170
2109.735	3254
2111.788	3202
2113.841	3225
2115.894	3150
2117.945	3205
2119.997	3190
2122.049	3224
2124.1	3265
2126.148	3246
2128.197	3242
2130.246	3164
2132.296	3226
2134.342	3153
2136.39	3210
2138.437	3144
2140.483	3213
2142.527	3145
2144.574	3213
2146.619	3151
2148.661	3145
2150.705	3163
2152.747	3191
2154.792	3161
2156.832	3185
2158.874	3184
2160.915	3160
2162.954	3208
2164.995	3149
2167.034	3167
2169.072	3097
2171.111	3102
2173.148	3185
2175.186	3173
2177.223	3146
2179.258	3134
2181.294	3096
2183.328	3109
2185.362	3198
2187.398	3158
2189.431	3212
2191.463	3124
2193.495	3093
2195.528	3138
2197.56	3092
2199.59	3167
2201.62	3120
2203.649	3172
2205.678	3230
2207.708	3121
2209.737	3181
2211.764	3103
2213.791	3124
2215.817	3055
2217.843	3223
2219.87	3167
2221.895	3147
2223.919	3148
2225.942	3084
2227.966	3103
2229.988	3155
2232.012	3127
2234.032	3173
2236.054	3076
2238.074	3078
2240.095	3031
2242.116	3087
2244.135	3166
2246.153	3063
2248.171	3095
2250.188	3099
2252.208	3113
2254.223	3143
2256.239	3108
2258.255	3206
2260.269	3154
2262.283	3126
2264.3	3049
2266.312	3088
2268.325	3100
2270.336	3149
2272.349	3135
2274.362	3093
2276.372	3166
2278.383	3112
2280.392	3113
2282.402	3158
2284.409	3175
2286.418	3095
2288.427	3100
2290.433	3058
2292.441	3121
2294.446	3096
2296.453	3133
2298.459	3063
2300.463	3111
2302.466	3121
2304.471	3113
2306.475	3131
2308.477	3112
2310.478	3150
2312.481	3195
2314.481	3112
2316.481	3112
2318.482	3131
2320.482	3125
2322.48	3146
2324.48	3140
2326.478	2997
2328.476	3073
2330.473	3104
2332.469	3039
2334.465	3066
2336.46	3099
2338.454	3110
2340.45	3112
2342.444	3101
2344.437	3095
2346.43	3106
2348.421	3126
2350.414	3091
2352.405	3126
2354.396	3086
2356.386	3085
2358.376	3099
2360.366	3020
2362.355	3085
2364.343	3094
2366.331	3092
2368.317	3080
2370.304	3090
2372.292	3117
2374.278	3062
2376.262	3080
2378.247	3062
2380.23	3075
2382.216	3057
2384.199	3077
2386.181	3008
2388.163	3024
2390.144	3089
2392.127	3049
2394.107	3022
2396.087	3051
2398.066	3025
2400.046	3056
2402.023	3074
2404.004	3043
2405.981	3053
2407.957	3061
2409.934	3079
2411.91	3063
2413.886	3071
2415.862	3016
2417.836	3059
2419.809	3055
2421.784	2994
2423.756	3015
2425.73	3056
2427.701	3013
2429.672	3030
2431.644	2991
2433.615	3069
2435.586	3082
2437.555	3016
2439.523	2994
2441.491	2978
2443.459	3038
2445.428	3035
2447.395	2934
2449.361	3050
2451.327	3104
2453.292	3081
2455.257	3056
2457.223	2979
2459.187	3041
2461.15	3021
2463.113	3052
2465.076	3006
2467.039	3035
2468.999	3057
2470.96	3007
2472.921	3074
2474.881	2991
2476.841	3055
2478.8	2958
2480.759	3020
2482.717	3022
2484.675	3041
2486.63	3040
2488.589	3076
2490.545	2966
2492.5	2968
2494.455	2971
2496.408	3019
2498.364	3005
2500.318	2986
2502.27	3005
2504.223	3079
2506.174	2942
2508.126	2972
2510.078	2953
2512.03	3015
2513.979	2989
2515.927	2967
2517.877	3010
2519.826	3034
2521.775	3030
2523.722	3002
2525.668	2959
2527.616	2973
2529.561	2944
2531.508	3026
2533.452	2996
2535.398	3010
2537.342	2970
2539.284	2988
2541.229	2997
2543.173	2984
2545.114	3013
2547.055	3006
2548.996	3047
2550.938	2922
2552.878	3012
2554.817	2998
2556.756	2953
2558.695	2950
2560.633	2924
2562.572	2951
2564.509	2964
2566.445	3080
2568.382	2995
2570.317	2930
2572.254	2950
2574.189	2999
2576.123	3061
2578.057	2998
2579.99	2985
2581.923	2994
2583.855	2951
2585.788	3085
2587.719	2932
2589.65	3022
2591.579	2959
2593.511	3039
2595.44	3029
2597.37	2941
2599.297	2911
2601.225	2989
2603.153	3003
2605.08	3020
2607.007	3035
2608.932	3023
2610.858	2972
2612.782	2924
2614.709	3034
2616.632	2953
2618.556	3026
2620.478	3072
2622.401	3012
2624.324	2983
2626.247	2960
2628.167	3007
2630.088	2983
2632.008	2926
2633.928	2988
2635.848	3018
2637.766	3128
2639.684	3022
2641.603	2959
2643.519	3025
2645.437	3017
2647.353	3002
2649.27	2982
2651.184	3003
2653.099	3068
2655.014	3035
2656.928	2981
2658.842	2946
2660.755	2995
2662.667	3022
2664.579	3006
2666.491	3070
2668.402	3093
2670.312	2985
2672.222	2998
2674.132	3026
2676.042	3082
2677.951	2948
2679.859	3052
2681.766	3034
2683.674	3015
2685.582	3013
2687.488	3028
2689.392	3029
2691.298	2988
2693.202	2912
2695.107	2983
2697.012	2986
2698.914	2941
2700.817	2910
2702.72	2980
2704.622	2949
2706.524	3025
2708.425	2953
2710.326	2969
2712.225	2971
2714.125	2953
2716.024	2977
2717.923	2982
2719.822	2941
2721.719	2970
2723.616	2913
2725.512	2954
2727.41	2995
2729.305	2978
2731.201	2986
2733.095	2996
2734.99	3005
2736.884	2954
2738.778	2972
2740.67	2953
2742.562	2921
2744.455	2955
2746.346	2972
2748.238	2892
2750.129	3004
2752.018	2972
2753.907	2931
2755.797	3048
2757.687	2922
2759.575	2970
2761.462	2962
2763.349	2968
2765.237	2954
2767.124	2983
2769.009	2888
2770.894	2986
2772.779	2899
2774.663	2929
2776.547	2903
2778.431	3047
2780.314	2959
2782.197	2892
2784.078	2969
2785.96	2950
2787.842	2888
2789.723	2907
2791.603	2913
2793.483	2919
2795.362	2944
2797.241	2938
2799.121	2885
2800.997	3000
2802.874	2920
2804.751	2883
2806.628	3012
2808.506	2908
2810.38	3004
2812.255	2935
2814.13	2976
2816.003	2975
2817.878	2925
2819.752	2964
2821.623	2925
2823.496	2999
2825.368	2939
2827.238	2957
2829.111	2969
2830.98	2953
2832.851	2952
2834.719	2961
2836.589	2918
2838.458	2975
2840.327	2857
2842.193	2986
2844.061	2968
2845.927	2985
2847.794	3010
2849.66	3025
2851.525	2972
2853.39	3053
2855.254	3015
2857.117	3047
2858.983	3030
2860.845	2996
2862.707	3067
2864.569	3129
2866.431	3099
2868.293	3154
2870.154	3120
2872.013	3089
2873.873	3180
2875.733	3114
2877.592	3243
2879.451	3266
2881.309	3281
2883.166	3205
2885.022	3263
2886.879	3301
2888.736	3230
2890.591	3288
2892.446	3218
2894.301	3360
2896.155	3378
2898.009	3340
2899.863	3361
2901.716	3372
2903.568	3262
2905.419	3354
2907.27	3302
2909.123	3307
2910.973	3263
2912.824	3221
2914.673	3268
2916.521	3262
2918.372	3283
2920.22	3472
2922.067	3370
2923.914	3393
2925.761	3406
2927.607	3498
2929.455	3457
2931.301	3548
2933.144	3489
2934.99	3474
2936.833	3538
2938.678	3527
2940.522	3521
2942.364	3677
2944.207	3695
2946.048	3773
2947.891	3711
2949.731	3741
2951.571	3738
2953.412	3755
2955.25	3658
2957.09	3636
2958.93	3638
2960.767	3610
2962.606	3612
2964.443	3664
2966.279	3621
2968.116	3580
2969.953	3435
2971.788	3439
2973.623	3450
2975.457	3417
2977.292	3301
2979.127	3304
2980.959	3300
2982.792	3305
2984.624	3243
2986.455	3313
2988.288	3236
2990.119	3267
2991.949	3261
2993.779	3182
2995.608	3176
2997.439	3198
2999.268	3107
3001.096	3082
3002.923	3036
3004.751	3057
3006.578	3051
3008.406	3015
3010.232	2999
3012.057	2994
3013.883	2993
3015.706	2975
3017.532	2846
3019.356	2893
3021.179	2873
3023.002	2881
3024.823	2898
3026.646	2918
3028.469	2851
3030.289	2905
3032.11	2833
3033.93	2871
3035.749	2787
3037.57	2893
3039.39	2859
3041.207	2825
3043.026	2817
3044.842	2856
3046.661	2730
3048.477	2819
3050.294	2824
3052.109	2830
3053.925	2751
3055.739	2876
3057.555	2853
3059.368	2757
3061.181	2841
3062.995	2820
3064.807	2793
3066.62	2784
3068.433	2761
3070.243	2742
3072.054	2811
3073.865	2836
3075.675	2764
3077.485	2862
3079.293	2775
3081.102	2757
3082.911	2745
3084.719	2748
3086.527	2825
3088.333	2744
3090.139	2757
3091.945	2716
3093.75	2741
3095.557	2772
3097.361	2706
3099.165	2746
3100.969	2713
3102.772	2758
3104.575	2759
3106.379	2730
3108.181	2780
3109.982	2770
3111.783	2670
3113.584	2744
3115.386	2694
3117.186	2704
3118.985	2744
3120.783	2730
3122.582	2759
3124.381	2650
3126.179	2666
3127.975	2690
3129.772	2713
3131.569	2713
3133.365	2724
3135.161	2680
3136.956	2729
3138.751	2676
3140.544	2667
3142.338	2683
3144.132	2785
3145.925	2692
3147.717	2727
3149.509	2639
3151.301	2718
3153.091	2713
3154.884	2646
3156.673	2641
3158.462	2646
3160.252	2645
3162.041	2640
3163.831	2627
3165.618	2622
3167.405	2668
3169.193	2631
3170.979	2647
3172.767	2664
3174.553	2702
3176.338	2672
3178.123	2679
3179.907	2651
3181.692	2702
3183.477	2648
3185.259	2639
3187.042	2636
3188.824	2654
3190.607	2613
3192.389	2628
3194.17	2633
3195.951	2692
3197.73	2633
3199.51	2686
3201.289	2659
3203.07	2624
3204.848	2605
3206.626	2572
3208.403	2609
3210.18	2602
3211.959	2597
3213.735	2644
3215.511	2656
3217.285	2649
3219.06	2704
3220.836	2621
3222.611	2651
3224.384	2632
3226.158	2638
3227.929	2593
3229.702	2626
3231.476	2573
3233.248	2628
3235.018	2666
3236.789	2635
3238.56	2622
3240.33	2579
3242.1	2672
3243.869	2628
3245.637	2641
3247.405	2626
3249.172	2683
3250.941	2652
3252.707	2602
3254.474	2695
3256.24	2649
3258.006	2580
3259.772	2666
3261.537	2623
3263.301	2679
3265.065	2639
3266.828	2647
3268.592	2630
3270.355	2648
3272.117	2633
3273.878	2589
3275.64	2671
3277.401	2661
3279.162	2685
3280.922	2613
3282.682	2657
3284.441	2653
3286.199	2674
3287.959	2616
3289.716	2594
3291.475	2669
3293.232	2640
3294.988	2623
3296.744	2669
3298.501	2649
3300.256	2626
3302.011	2652
3303.766	2602
3305.52	2595
3307.275	2646
3309.028	2678
3310.781	2580
3312.533	2665
3314.285	2601
3316.038	2598
3317.789	2667
3319.54	2692
3321.289	2658
3323.039	2626
3324.789	2626
3326.539	2666
3328.288	2593
3330.035	2615
3331.783	2652
3333.531	2675
3335.28	2609
3337.025	2632
3338.771	2638
3340.518	2611
3342.262	2588
3344.009	2604
3345.753	2582
3347.497	2615
3349.24	2589
3350.983	2603
3352.726	2594
3354.469	2557
3356.212	2554
3357.952	2609
3359.694	2618
3361.434	2564
3363.176	2564
3364.916	2607
3366.654	2592
3368.394	2535
3370.132	2531
3371.871	2602
3373.61	2578
3375.346	2584
3377.083	2587
3378.82	2570
3380.556	2592
3382.292	2561
3384.027	2603
3385.763	2579
3387.497	2562
3389.231	2522
3390.965	2543
3392.698	2566
3394.431	2505
3396.164	2557
3397.896	2526
3399.627	2593
3401.36	2544
3403.09	2543
3404.82	2530
3406.55	2532
3408.279	2541
3410.01	2521
3411.738	2490
3413.467	2461
3415.194	2494
3416.92	2565
3418.647	2488
3420.375	2527
3422.102	2447
3423.827	2499
3425.553	2536
3427.277	2529
3429.003	2506
3430.727	2485
3432.451	2427
3434.173	2475
3435.896	2455
3437.62	2512
3439.343	2516
3441.063	2484
3442.785	2516
3444.505	2515
3446.226	2428
3447.948	2516
3449.666	2482
3451.386	2436
3453.104	2518
3454.823	2488
3456.541	2467
3458.259	2378
3459.976	2463
3461.693	2467
3463.408	2434
3465.125	2418
3466.841	2371
3468.556	2443
3470.271	2416
3471.985	2468
3473.698	2465
3475.414	2468
3477.126	2401
3478.838	2390
3480.55	2381
3482.263	2433
3483.975	2439
3485.686	2379
3487.396	2383
3489.106	2403
3490.817	2437
3492.526	2403
3494.236	2449
3495.944	2353
3497.652	2389
3499.359	2376
3501.066	2437
3502.775	2391
3504.481	2389
3506.187	2439
3507.893	2373
3509.598	2328
3511.304	2322
3513.009	2342
3514.713	2400
3516.417	2309
3518.12	2370
3519.821	2384
3521.525	2377
3523.228	2382
3524.929	2356
3526.631	2287
3528.33	2313
3530.032	2331
3531.733	2383
3533.433	2327
3535.131	2312
3536.83	2402
3538.529	2353
3540.227	2307
3541.925	2322
3543.623	2340
3545.319	2320
3547.016	2335
3548.712	2292
3550.408	2328
3552.103	2318
3553.798	2293
3555.491	2334
3557.188	2344
3558.88	2337
3560.574	2270
3562.266	2305
3563.959	2334
3565.651	2266
3567.343	2319
3569.035	2314
3570.725	2362
3572.415	2316
3574.106	2317
3575.797	2321
3577.485	2219
3579.174	2323
3580.863	2223
3582.551	2238
3584.238	2214
3585.926	2270
3587.613	2301
3589.3	2286
3590.986	2236
3592.671	2253
3594.357	2346
3596.042	2264
3597.726	2240
3599.41	2294
3601.094	2244
3602.778	2338
3604.461	2182
3606.143	2228
3607.825	2261
3609.507	2231
3611.188	2260
3612.87	2214
3614.551	2335
3616.229	2192
3617.909	2187
3619.589	2217
3621.269	2243
3622.948	2211
3624.625	2194
3626.302	2246
3627.98	2213
3629.657	2219
3631.334	2194
3633.01	2132
3634.686	2191
3636.361	2183
3638.036	2143
3639.712	2193
3641.385	2208
3643.06	2183
3644.732	2147
3646.405	2178
3648.08	2217
3649.751	2184
3651.424	2209
3653.094	2168
3654.766	2173
3656.436	2157
3658.106	2141
3659.777	2209
3661.446	2191
3663.115	2139
3664.783	2142
3666.452	2175
3668.121	2181
3669.788	2153
3671.454	2162
3673.121	2155
3674.789	2186
3676.455	2099
3678.12	2149
3679.784	2103
3681.45	2140
3683.114	2092
3684.779	2158
3686.442	2111
3688.105	2087
3689.768	2114
3691.43	2204
3693.093	2135
3694.754	2063
3696.415	2106
3698.076	2144
3699.736	2114
3701.396	2051
3703.057	2096
3704.716	2161
3706.375	2062
3708.034	2152
3709.692	2141
3711.351	2132
3713.008	2128
3714.665	2128
3716.321	2106
3717.977	2073
3719.634	2139
3721.29	2079
3722.945	2129
3724.598	2143
3726.253	2115
3727.907	2115
3729.561	2049
3731.214	2098
3732.867	2037
3734.518	2137
3736.171	2103
3737.824	2077
3739.474	2063
3741.125	2074
3742.775	2086
3744.425	2067
3746.074	2042
3747.725	2072
3749.373	2097
3751.022	2096
3752.669	2040
3754.318	2082
3755.966	2086
3757.612	2063
3759.259	2084
3760.905	2050
3762.55	2043
3764.197	2050
3765.842	2035
3767.486	2043
3769.131	2061
3770.774	2081
3772.417	2027
3774.061	2039
3775.705	2079
3777.347	2082
3778.988	2017
3780.629	2076
3782.271	2093
3783.912	2019
3785.552	2027
3787.192	2049
3788.831	2034
3790.472	2019
3792.112	2035
3793.75	2009
3795.388	2013
3797.024	2047
3798.661	2046
3800.3	2060
3801.936	2020
3803.572	2034
3805.208	2067
3806.844	2026
3808.48	2035
3810.115	2034
3811.748	2050
3813.382	1968
3815.016	2049
3816.649	2025
3818.283	1971
3819.914	1976
3821.547	2006
3823.178	1984
3824.809	1982
3826.441	2037
3828.072	1917
3829.701	2035
3831.331	1988
3832.96	1986
3834.591	1982
3836.219	2020
3837.847	2007
3839.475	1913
3841.102	1978
3842.729	2052
3844.357	1990
3845.984	1949
3847.609	1970
3849.234	1964
3850.86	1959
3852.485	1973
3854.11	1916
3855.734	1971
3857.357	1947
3858.981	2002
3860.603	1976
3862.227	1951
3863.848	1987
3865.471	2028
3867.092	1982
3868.713	1949
3870.334	1895
3871.954	1920
3873.575	1967
3875.194	1957
3876.813	1930
3878.433	1952
3880.051	1976
3881.669	1958
3883.286	1977
3884.904	1932
3886.52	1957
3888.138	1971
3889.754	1938
3891.37	1927
3892.985	1944
3894.6	1955
3896.216	1916
3897.831	1958
3899.444	1954
3901.058	1924
3902.67	1930
3904.283	1875
3905.897	1942
3907.509	1926
3909.121	1924
3910.731	1895
3912.342	1921
3913.954	1973
3915.563	1962
3917.174	1950
3918.783	1889
3920.391	1863
3922.002	1954
3923.611	1931
3925.218	1946
3926.826	1918
3928.432	1967
3930.039	1914
3931.647	1936
3933.253	1895
3934.859	1928
3936.464	1898
3938.068	1867
3939.675	1923
3941.278	1938
3942.883	1934
3944.486	1932
3946.089	1945
3947.692	1943
3949.295	1909
3950.898	1862
3952.499	1925
3954.1	1883
3955.7	1892
3957.303	1832
3958.903	1904
3960.502	1846
3962.101	1842
3963.7	1913
3965.301	1911
3966.899	1849
3968.497	1850
3970.094	1930
3971.691	1826
3973.288	1878
3974.885	1871
3976.481	1877
3978.077	1876
3979.672	1867
3981.267	1864
3982.863	1913
3984.457	1829
3986.051	1884
3987.645	1818
3989.238	1840
3990.831	1890
3992.425	1854
3994.017	1896
3995.607	1867
3997.199	1904
3998.79	1789
4000.382	1852
4001.973	1848
4003.561	1831
4005.151	1800
4006.741	1858
4008.331	1849
4009.918	1793
4011.507	1809
4013.095	1812
4014.681	1862
4016.269	1776
4017.856	1817
4019.443	1835
4021.028	1848
4022.614	1819
4024.199	1760
4025.785	1825
4027.37	1801
4028.953	1768
4030.536	1780
4032.12	1813
4033.704	1816
4035.287	1794
4036.869	1806
4038.45	1803
4040.032	1812
4041.613	1790
4043.195	1845
4044.776	1794
4046.356	1793
4047.935	1829
4049.515	1811
4051.095	1796
4052.674	1740
4054.251	1815
4055.829	1764
4057.406	1756
4058.985	1759
4060.562	1790
4062.139	1803
4063.715	1773
4065.29	1808
4066.865	1825
4068.442	1779
4070.016	1815
4071.59	1782
4073.164	1742
4074.738	1754
4076.312	1775
4077.885	1776
4079.458	1785
4081.03	1785
4082.602	1772
4084.173	1764
4085.745	1769
4087.315	1716
4088.886	1718
4090.456	1805
4092.026	1735
4093.596	1743
4095.165	1777
4096.734	1732
4098.301	1749
4099.869	1743
4101.437	1777
4103.006	1789
4104.572	1743
4106.139	1781
4107.704	1757
4109.27	1738
4110.837	1736
4112.401	1715
4113.966	1661
4115.53	1729
4117.094	1695
4118.659	1676
4120.223	1737
4121.785	1713
4123.347	1719
4124.909	1704
4126.471	1729
4128.034	1743
4129.595	1714
4131.155	1711
4132.716	1758
4134.275	1718
4135.836	1701
4137.395	1753
4138.955	1714
4140.513	1747
4142.071	1722
4143.628	1682
4145.188	1672
4146.745	1657
4148.302	1715
4149.858	1659
4151.414	1690
4152.971	1683
4154.526	1709
4156.081	1716
4157.635	1644
4159.189	1676
4160.745	1679
4162.298	1670
4163.852	1654
4165.405	1696
4166.957	1627
4168.51	1615
4170.063	1671
4171.614	1710
4173.166	1658
4174.717	1690
4176.267	1685
4177.817	1684
4179.368	1613
4180.917	1625
4182.466	1669
4184.016	1668
4185.564	1645
4187.112	1615
4188.66	1632
4190.207	1672
4191.754	1601
4193.301	1676
4194.848	1653
4196.394	1617
4197.94	1635
4199.484	1675
4201.03	1684
4202.575	1606
4204.12	1671
4205.663	1659
4207.207	1629
4208.75	1663
4210.292	1635
4211.836	1603
4213.378	1657
4214.92	1619
4216.46	1609
4218.002	1656
4219.544	1596
4221.083	1603
4222.625	1566
4224.164	1575
4225.703	1661
4227.244	1587
4228.782	1631
4230.32	1620
4231.857	1607
4233.395	1593
4234.933	1579
4236.471	1616
4238.007	1679
4239.542	1591
4241.078	1619
4242.614	1543
4244.15	1602
4245.685	1604
4247.219	1639
4248.753	1614
4250.287	1610
4251.82	1604
4253.354	1590
4254.887	1600
4256.419	1612
4257.951	1578
4259.483	1613
4261.016	1593
4262.547	1611
4264.078	1580
4265.608	1598
4267.137	1550
4268.668	1624
4270.197	1611
4271.727	1619
4273.254	1604
4274.783	1558
4276.311	1593
4277.84	1588
4279.366	1595
4280.894	1604
4282.42	1590
4283.946	1606
4285.473	1592
4286.998	1563
4288.523	1607
4290.047	1582
4291.572	1528
4293.096	1621
4294.622	1600
4296.144	1594
4297.668	1595
4299.19	1601
4300.713	1550
4302.236	1537
4303.758	1592
4305.279	1643
4306.799	1556
4308.321	1540
4309.842	1614
4311.361	1584
4312.882	1508
4314.401	1578
