400.0961	4388
402.6185	4335
405.1424	4373
407.6635	4384
410.1838	4553
412.7035	4462
415.2225	4397
417.7388	4465
420.2585	4516
422.7754	4479
425.2917	4582
427.8072	4591
430.3221	4577
432.8363	4672
435.3498	4656
437.8626	4655
440.3727	4737
442.8841	4657
445.3969	4621
447.907	4657
450.4142	4681
452.9229	4667
455.4289	4688
457.9362	4688
460.4449	4651
462.9488	4680
465.454	4715
467.9566	4641
470.4604	4644
472.9637	4618
475.4662	4682
477.966	4623
480.4671	4667
482.9656	4700
485.4633	4791
487.9645	4630
490.4608	4762
492.9566	4699
495.4536	4857
497.948	4808
500.4437	4738
502.9387	4903
505.431	4720
507.9226	4806
510.4136	4774
512.9079	4867
515.3975	4874
517.8864	4846
520.3746	4783
522.8622	4815
525.3491	4852
527.8394	4764
530.3249	4900
532.8098	4871
535.2939	4830
537.7774	4885
540.2623	4849
542.7444	4777
545.2259	4867
547.7067	4887
550.1868	4888
552.6683	4716
555.147	4906
557.6231	4904
560.1005	4878
562.5773	4950
565.0534	4861
567.5308	4868
570.0056	4875
572.4776	4911
574.951	5019
577.4237	4926
579.8978	5029
582.3671	4988
584.8378	5021
587.3079	5165
589.7773	5121
592.244	5098
594.714	5046
597.1793	5120
599.6461	5094
602.1121	4998
604.5754	5049
607.0421	5102
609.5042	5063
611.9675	5006
614.4282	5056
616.8902	4955
619.3515	5129
621.8122	5068
624.2702	4975
626.7296	4983
629.1863	4973
631.6423	4958
634.1017	4986
636.5563	4941
639.0104	4947
641.4658	4995
643.9185	5071
646.3725	4984
648.8239	5063
651.2766	5123
653.7266	5090
656.176	5114
658.6247	5166
661.0748	5028
663.5242	5112
665.9709	5060
668.417	4952
670.8624	5130
673.3092	5196
675.7533	5128
678.1968	5159
680.6395	5164
683.0817	5145
685.5251	5180
687.9659	5141
690.4061	5226
692.8456	5270
695.2844	5251
697.7226	5209
700.1621	5271
702.599	5320
705.0332	5281
707.4688	5262
709.9036	5299
712.3399	5362
714.7735	5287
717.2044	5291
719.6367	5272
722.0683	5315
724.4993	5390
726.9296	5302
729.3593	5389
731.7883	5338
734.2147	5258
736.6423	5278
739.0714	5416
741.4958	5344
743.9216	5453
746.3447	5444
748.7691	5523
751.1929	5443
753.616	5396
756.0366	5494
758.4584	5440
760.8776	5551
763.2982	5542
765.718	5515
768.1373	5514
770.5539	5586
772.9698	5552
775.3871	5550
777.8038	5547
780.2178	5604
782.6332	5545
785.0459	5478
787.458	5637
789.8714	5508
792.2842	5607
794.6943	5670
797.1038	5611
799.5127	5541
801.9209	5546
804.3324	5657
806.7393	5651
809.1456	5572
811.5513	5595
813.9562	5656
816.3625	5733
818.7663	5703
821.1693	5699
823.5718	5624
825.9735	5524
828.3746	5706
830.7771	5612
833.177	5668
835.5762	5664
837.9747	5626
840.3727	5750
842.772	5765
845.1666	5821
847.5626	5692
849.958	5687
852.3527	5692
854.7488	5802
857.1403	5853
859.5331	5759
861.9253	5699
864.3168	5772
866.7057	5707
869.098	5786
871.4876	5748
873.8746	5743
876.263	5639
878.6487	5716
881.0378	5701
883.4243	5614
885.8081	5676
888.1933	5768
890.5759	5654
892.9598	5682
895.343	5752
897.7256	5687
900.1057	5639
902.4871	5761
904.8659	5817
907.246	5804
909.6254	5867
912.0023	5823
914.3786	5960
916.7562	5967
919.1331	6073
921.5074	5932
923.8831	6055
926.2562	6088
928.6287	6042
931.0005	6073
933.3757	6083
935.7462	6152
938.1162	6070
940.4855	6250
942.8542	5972
945.2242	6196
947.5916	6329
949.9584	6359
952.3266	6665
954.6921	6715
957.0571	6876
959.4233	7074
961.787	7270
964.15	7159
966.5125	7016
968.8742	6694
971.2354	6470
973.5959	6311
975.9559	6162
978.3151	6147
980.6738	5971
983.0338	5950
985.3912	6098
987.7461	5985
990.1022	5932
992.4578	5936
994.8127	5963
997.1689	6015
999.5207	6021
1001.874	6076
1004.226	6065
1006.576	5999
1008.929	5993
1011.28	6069
1013.628	5976
1015.977	6027
1018.324	6035
1020.674	5944
1023.019	5969
1025.366	5997
1027.713	5985
1030.056	5926
1032.399	5942
1034.746	6107
1037.087	6054
1039.431	6110
1041.771	6010
1044.113	6105
1046.454	6051
1048.793	6151
1051.133	6181
1053.471	6146
1055.807	6142
1058.146	6171
1060.483	6131
1062.818	6074
1065.153	6172
1067.489	6141
1069.822	6224
1072.156	6170
1074.488	6151
1076.82	6263
1079.15	6167
1081.48	6119
1083.814	6123
1086.143	6007
1088.471	6046
1090.799	6115
1093.126	6052
1095.452	6164
1097.78	6155
1100.105	6268
1102.43	6143
1104.754	6100
1107.077	6051
1109.4	6245
1111.722	6069
1114.044	6027
1116.365	6204
1118.685	6201
1121.005	6118
1123.324	6212
1125.643	6140
1127.961	6187
1130.278	6204
1132.595	6205
1134.911	6155
1137.226	6126
1139.541	5933
1141.854	6223
1144.167	6107
1146.482	6120
1148.793	6114
1151.105	6125
1153.414	6069
1155.725	6154
1158.033	6302
1160.344	6096
1162.651	6173
1164.959	6157
1167.265	6224
1169.572	6145
1171.878	6241
1174.184	6171
1176.488	6196
1178.79	6166
1181.094	6184
1183.396	6142
1185.699	6117
1188.001	6139
1190.301	6272
1192.6	6249
1194.9	6161
1197.2	6028
1199.497	6191
1201.794	6258
1204.09	6054
1206.387	6219
1208.684	6101
1210.978	6288
1213.272	6163
1215.565	6142
1217.858	6305
1220.15	6193
1222.443	6169
1224.734	6195
1227.024	6171
1229.313	6228
1231.602	6354
1233.892	6317
1236.18	6288
1238.467	6250
1240.754	6441
1243.04	6374
1245.325	6462
1247.612	6524
1249.896	6549
1252.178	6354
1254.461	6482
1256.743	6440
1259.027	6401
1261.308	6490
1263.587	6413
1265.867	6432
1268.146	6529
1270.425	6476
1272.703	6494
1274.981	6461
1277.256	6515
1279.532	6429
1281.808	6419
1284.083	6382
1286.358	6364
1288.63	6322
1290.904	6404
1293.175	6289
1295.449	6494
1297.719	6372
1299.99	6275
1302.259	6356
1304.529	6463
1306.798	6330
1309.065	6342
1311.333	6445
1313.599	6339
1315.866	6308
1318.131	6370
1320.396	6312
1322.66	6219
1324.925	6305
1327.187	6266
1329.448	6354
1331.711	6292
1333.974	6424
1336.234	6369
1338.493	6344
1340.752	6434
1343.01	6451
1345.269	6471
1347.526	6403
1349.784	6299
1352.04	6355
1354.295	6284
1356.552	6499
1358.806	6347
1361.059	6307
1363.312	6332
1365.564	6418
1367.818	6471
1370.069	6438
1372.318	6376
1374.568	6495
1376.817	6426
1379.066	6427
1381.316	6451
1383.564	6475
1385.809	6374
1388.056	6540
1390.301	6494
1392.549	6645
1394.793	6645
1397.036	6690
1399.279	6561
1401.522	6665
1403.763	6509
1406.007	6673
1408.248	6597
1410.487	6633
1412.727	6548
1414.965	6639
1417.205	6692
1419.442	6538
1421.68	6421
1423.915	6606
1426.152	6672
1428.388	6549
1430.623	6581
1432.857	6611
1435.091	6716
1437.323	6660
1439.556	6567
1441.789	6623
1444.019	6670
1446.25	6776
1448.48	6678
1450.708	6840
1452.938	6754
1455.167	6844
1457.394	6922
1459.62	6591
1461.846	6836
1464.073	6605
1466.299	6716
1468.523	6614
1470.746	6634
1472.969	6490
1475.191	6676
1477.415	6518
1479.636	6585
1481.858	6423
1484.078	6423
1486.298	6504
1488.518	6494
1490.736	6458
1492.954	6291
1495.169	6417
1497.386	6409
1499.602	6338
1501.819	6281
1504.034	6368
1506.248	6434
1508.462	6379
1510.675	6388
1512.888	6413
1515.1	6326
1517.311	6365
1519.522	6325
1521.732	6387
1523.942	6390
1526.151	6391
1528.36	6347
1530.566	6339
1532.773	6316
1534.98	6399
1537.187	6347
1539.392	6522
1541.596	6489
1543.801	6432
1546.005	6375
1548.208	6436
1550.411	6450
1552.612	6642
1554.814	6562
1557.013	6401
1559.212	6576
1561.414	6491
1563.612	6531
1565.811	6622
1568.007	6470
1570.203	6562
1572.403	6472
1574.598	6519
1576.792	6617
1578.988	6561
1581.181	6539
1583.376	6503
1585.568	6601
1587.761	6692
1589.952	6640
1592.143	6653
1594.333	6566
1596.524	6564
1598.715	6636
1600.903	6583
1603.091	6605
1605.278	6668
1607.466	6610
1609.652	6587
1611.838	6619
1614.023	6602
1616.207	6668
1618.391	6525
1620.576	6559
1622.759	6620
1624.941	6575
1627.123	6707
1629.304	6685
1631.484	6726
1633.664	6664
1635.844	6597
1638.022	6674
1640.201	6681
1642.38	6760
1644.556	6715
1646.732	6750
1648.908	6696
1651.084	6693
1653.257	6738
1655.433	6659
1657.607	6641
1659.779	6781
1661.951	6809
1664.122	6913
1666.295	6712
1668.467	6783
1670.635	6766
1672.805	6823
1674.973	6765
1677.142	6733
1679.31	6781
1681.478	6820
1683.644	6726
1685.81	6652
1687.975	6809
1690.142	6776
1692.305	6731
1694.468	6721
1696.632	6710
1698.794	6613
1700.957	6634
1703.119	6661
1705.279	6669
1707.439	6596
1709.598	6675
1711.758	6548
1713.917	6613
1716.075	6731
1718.231	6643
1720.388	6531
1722.543	6567
1724.702	6610
1726.856	6542
1729.01	6545
1731.164	6545
1733.317	6567
1735.471	6574
1737.623	6607
1739.774	6516
1741.925	6571
1744.075	6642
1746.225	6537
1748.376	6577
1750.524	6590
1752.672	6585
1754.82	6592
1756.965	6535
1759.113	6480
1761.259	6599
1763.405	6776
1765.549	6613
1767.694	6654
1769.836	6581
1771.981	6695
1774.123	6584
1776.264	6651
1778.405	6711
1780.546	6712
1782.687	6708
1784.827	6650
1786.966	6569
1789.103	6601
1791.242	6729
1793.381	6718
1795.517	6668
1797.653	6656
1799.788	6631
1801.923	6691
1804.057	6666
1806.193	6609
1808.326	6619
1810.457	6672
1812.59	6711
1814.721	6587
1816.855	6697
1818.984	6616
1821.113	6587
1823.244	6592
1825.372	6604
1827.499	6540
1829.63	6663
1831.756	6614
1833.882	6555
1836.007	6676
1838.132	6564
1840.26	6652
1842.384	6652
1844.507	6629
1846.63	6736
1848.752	6677
1850.875	6582
1852.996	6514
1855.118	6472
1857.238	6473
1859.358	6552
1861.477	6382
1863.597	6566
1865.715	6543
1867.832	6693
1869.948	6608
1872.064	6598
1874.181	6685
1876.297	6486
1878.411	6623
1880.526	6594
1882.639	6714
1884.752	6669
1886.865	6545
1888.977	6695
1891.089	6687
1893.2	6607
1895.308	6601
1897.42	6643
1899.53	6602
1901.639	6671
1903.745	6619
1905.853	6581
1907.962	6554
1910.067	6579
1912.174	6699
1914.278	6683
1916.383	6722
1918.486	6772
1920.592	6569
1922.694	6658
1924.797	6719
1926.898	6671
1929	6720
1931.102	6749
1933.203	6611
1935.301	6703
1937.401	6598
1939.499	6643
1941.598	6740
1943.697	6772
1945.793	6714
1947.888	6767
1949.985	6777
1952.08	6774
1954.176	6745
1956.269	6702
1958.364	6562
1960.457	6820
1962.549	6721
1964.642	6693
1966.733	6713
1968.823	6668
1970.913	6626
1973.005	6730
1975.093	6726
1977.184	6595
1979.271	6674
1981.359	6692
1983.446	6720
1985.532	6666
1987.619	6644
1989.705	6615
1991.789	6598
1993.874	6672
1995.956	6602
1998.041	6612
2000.123	6695
2002.206	6690
2004.287	6797
2006.368	6605
2008.449	6690
2010.529	6615
2012.609	6533
2014.688	6641
2016.766	6731
2018.843	6729
2020.922	6663
2022.999	6555
2025.074	6583
2027.15	6684
2029.225	6627
2031.299	6588
2033.375	6625
2035.447	6663
2037.52	6633
2039.592	6649
2041.664	6639
2043.736	6682
2045.807	6700
2047.876	6708
2049.947	6533
2052.015	6777
2054.086	6712
2056.153	6572
2058.221	6561
2060.288	6648
2062.353	6751
2064.42	6565
2066.486	6648
2068.55	6622
2070.614	6714
2072.678	6780
2074.741	6554
2076.805	6719
2078.866	6640
2080.929	6715
2082.99	6720
2085.049	6709
2087.109	6654
2089.17	6646
2091.228	6642
2093.286	6608
2095.344	6715
2097.4	6712
2099.46	6674
2101.516	6684
2103.572	6640
2105.626	6639
2107.679	6581
2109.735	6654
2111.788	6659
2113.841	6747
2115.894	6735
2117.945	6705
2119.997	6760
2122.049	6562
2124.1	6669
2126.148	6741
2128.197	6608
2130.246	6651
2132.296	6588
2134.342	6656
2136.39	6667
2138.437	6565
2140.483	6613
2142.527	6683
2144.574	6594
2146.619	6640
2148.661	6543
2150.705	6609
2152.747	6608
2154.792	6651
2156.832	6603
2158.874	6611
2160.915	6634
2162.954	6691
2164.995	6664
2167.034	6721
2169.072	6524
2171.111	6584
2173.148	6614
2175.186	6561
2177.223	6674
2179.258	6538
2181.294	6603
2183.328	6550
2185.362	6564
2187.398	6602
2189.431	6572
2191.463	6511
2193.495	6582
2195.528	6524
2197.56	6624
2199.59	6523
2201.62	6596
2203.649	6580
2205.678	6497
2207.708	6516
2209.737	6507
2211.764	6572
2213.791	6560
2215.817	6431
2217.843	6510
2219.87	6532
2221.895	6514
2223.919	6471
2225.942	6466
2227.966	6530
2229.988	6424
2232.012	6506
2234.032	6617
2236.054	6549
2238.074	6529
2240.095	6460
2242.116	6415
2244.135	6521
2246.153	6418
2248.171	6416
2250.188	6437
2252.208	6522
2254.223	6514
2256.239	6503
2258.255	6540
2260.269	6547
2262.283	6478
2264.3	6507
2266.312	6485
2268.325	6544
2270.336	6555
2272.349	6593
2274.362	6543
2276.372	6432
2278.383	6471
2280.392	6456
2282.402	6578
2284.409	6566
2286.418	6437
2288.427	6554
2290.433	6478
2292.441	6654
2294.446	6361
2296.453	6432
2298.459	6364
2300.463	6529
2302.466	6452
2304.471	6502
2306.475	6504
2308.477	6594
2310.478	6430
2312.481	6482
2314.481	6461
2316.481	6417
2318.482	6385
2320.482	6334
2322.48	6420
2324.48	6491
2326.478	6365
2328.476	6495
2330.473	6437
2332.469	6332
2334.465	6531
2336.46	6315
2338.454	6413
2340.45	6293
2342.444	6401
2344.437	6371
2346.43	6570
2348.421	6445
2350.414	6370
2352.405	6416
2354.396	6331
2356.386	6321
2358.376	6407
2360.366	6292
2362.355	6306
2364.343	6345
2366.331	6238
2368.317	6436
2370.304	6197
2372.292	6291
2374.278	6295
2376.262	6308
2378.247	6306
2380.23	6301
2382.216	6341
2384.199	6314
2386.181	6319
2388.163	6285
2390.144	6301
2392.127	6250
2394.107	6237
2396.087	6247
2398.066	6127
2400.046	6187
2402.023	6159
2404.004	6247
2405.981	6201
2407.957	6258
2409.934	6247
2411.91	6203
2413.886	6254
2415.862	6253
2417.836	6194
2419.809	6229
2421.784	6235
2423.756	6204
2425.73	6267
2427.701	6165
2429.672	6329
2431.644	6174
2433.615	6235
2435.586	6153
2437.555	6191
2439.523	6197
2441.491	6220
2443.459	6121
2445.428	6284
2447.395	6121
2449.361	6152
2451.327	6256
2453.292	6166
2455.257	6169
2457.223	6107
2459.187	6044
2461.15	6222
2463.113	6127
2465.076	6185
2467.039	6255
2468.999	6081
2470.96	6155
2472.921	6181
2474.881	6173
2476.841	6098
2478.8	6096
2480.759	6140
2482.717	6085
2484.675	6223
2486.63	6037
2488.589	6146
2490.545	6065
2492.5	6099
2494.455	6204
2496.408	6105
2498.364	6087
2500.318	6185
2502.27	6006
2504.223	6075
2506.174	6058
2508.126	6025
2510.078	5952
2512.03	6030
2513.979	6053
2515.927	6098
2517.877	5977
2519.826	6064
2521.775	6140
2523.722	6082
2525.668	6042
2527.616	6152
2529.561	6132
2531.508	6108
2533.452	6051
2535.398	6061
2537.342	6011
2539.284	6102
2541.229	6022
2543.173	6126
2545.114	6167
2547.055	6054
2548.996	6040
2550.938	6017
2552.878	6028
2554.817	6089
2556.756	6075
2558.695	5962
2560.633	6062
2562.572	5995
2564.509	5956
2566.445	5966
2568.382	6038
2570.317	6026
2572.254	6071
2574.189	6050
2576.123	6090
2578.057	6053
2579.99	6008
2581.923	5972
2583.855	6063
2585.788	6045
2587.719	6022
2589.65	6028
2591.579	6031
2593.511	6051
2595.44	6177
2597.37	5952
2599.297	6084
2601.225	5987
2603.153	6036
2605.08	6033
2607.007	5905
2608.932	6090
2610.858	6056
2612.782	6062
2614.709	5991
2616.632	6049
2618.556	6050
2620.478	6053
2622.401	5881
2624.324	6049
2626.247	6038
2628.167	6153
2630.088	6025
2632.008	6082
2633.928	6016
2635.848	6069
2637.766	5897
2639.684	6111
2641.603	6037
2643.519	6071
2645.437	6055
2647.353	6089
2649.27	5941
2651.184	6036
2653.099	6005
2655.014	6019
2656.928	6002
2658.842	6082
2660.755	6155
2662.667	6027
2664.579	5934
2666.491	6026
2668.402	5978
2670.312	6014
2672.222	6039
2674.132	6009
2676.042	5952
2677.951	6039
2679.859	5956
2681.766	5995
2683.674	6062
2685.582	5981
2687.488	6030
2689.392	5828
2691.298	6011
2693.202	5940
2695.107	5899
2697.012	5974
2698.914	5977
2700.817	5908
2702.72	5916
2704.622	5882
2706.524	5899
2708.425	5879
2710.326	5800
2712.225	5889
2714.125	5898
2716.024	5997
2717.923	5807
2719.822	5873
2721.719	5847
2723.616	5987
2725.512	5869
2727.41	5846
2729.305	5963
2731.201	5836
2733.095	5882
2734.99	5846
2736.884	5934
2738.778	5874
2740.67	5896
2742.562	5854
2744.455	5917
2746.346	5826
2748.238	5900
2750.129	5741
2752.018	5930
2753.907	5851
2755.797	5808
2757.687	5984
2759.575	5888
2761.462	5796
2763.349	5837
2765.237	5804
2767.124	5892
2769.009	5894
2770.894	5885
2772.779	5788
2774.663	5756
2776.547	5771
2778.431	5821
2780.314	5764
2782.197	5885
2784.078	5950
2785.96	5808
2787.842	5822
2789.723	5808
2791.603	5849
2793.483	5737
2795.362	5797
2797.241	5793
2799.121	5853
2800.997	5818
2802.874	5802
2804.751	5821
2806.628	5851
2808.506	5799
2810.38	5690
2812.255	5782
2814.13	5803
2816.003	5776
2817.878	5699
2819.752	5752
2821.623	5764
2823.496	5837
2825.368	5770
2827.238	5820
2829.111	5724
2830.98	5759
2832.851	5800
2834.719	5751
2836.589	5791
2838.458	5716
2840.327	5894
2842.193	5810
2844.061	5752
2845.927	5783
2847.794	5736
2849.66	5871
2851.525	5906
2853.39	5921
2855.254	5986
2857.117	5844
2858.983	5795
2860.845	5860
2862.707	5734
2864.569	5956
2866.431	5997
2868.293	5954
2870.154	6022
2872.013	6118
2873.873	5983
2875.733	6153
2877.592	6070
2879.451	6151
2881.309	6255
2883.166	6117
2885.022	6336
2886.879	6380
2888.736	6366
2890.591	6410
2892.446	6265
2894.301	6304
2896.155	6378
2898.009	6342
2899.863	6355
2901.716	6328
2903.568	6216
2905.419	6276
2907.27	6277
2909.123	6198
2910.973	6208
2912.824	6283
2914.673	6378
2916.521	6429
2918.372	6383
2920.22	6441
2922.067	6540
2923.914	6466
2925.761	6594
2927.607	6582
2929.455	6717
2931.301	6560
2933.144	6826
2934.99	6752
2936.833	6927
2938.678	6801
2940.522	6794
2942.364	6935
2944.207	6950
2946.048	7110
2947.891	7135
2949.731	7102
2951.571	7111
2953.412	6971
2955.25	6863
2957.09	6823
2958.93	6815
2960.767	6820
2962.606	6623
2964.443	6740
2966.279	6569
2968.116	6589
2969.953	6543
2971.788	6403
2973.623	6320
2975.457	6399
2977.292	6307
2979.127	6258
2980.959	6366
2982.792	6102
2984.624	6184
2986.455	6224
2988.288	6209
2990.119	6111
2991.949	6048
2993.779	6029
2995.608	6021
2997.439	6087
2999.268	5933
3001.096	5988
3002.923	5899
3004.751	5940
3006.578	5882
3008.406	5672
3010.232	5737
3012.057	5727
3013.883	5614
3015.706	5597
3017.532	5627
3019.356	5642
3021.179	5576
3023.002	5576
3024.823	5552
3026.646	5534
3028.469	5441
3030.289	5489
3032.11	5506
3033.93	5505
3035.749	5384
3037.57	5482
3039.39	5429
3041.207	5451
3043.026	5355
3044.842	5436
3046.661	5417
3048.477	5527
3050.294	5366
3052.109	5390
3053.925	5373
3055.739	5322
3057.555	5488
3059.368	5298
3061.181	5362
3062.995	5380
3064.807	5481
3066.62	5443
3068.433	5463
3070.243	5400
3072.054	5369
3073.865	5446
3075.675	5330
3077.485	5330
3079.293	5357
3081.102	5275
3082.911	5288
3084.719	5278
3086.527	5382
3088.333	5199
3090.139	5295
3091.945	5197
3093.75	5282
3095.557	5251
3097.361	5236
3099.165	5235
3100.969	5330
3102.772	5286
3104.575	5239
3106.379	5193
3108.181	5195
3109.982	5221
3111.783	5200
3113.584	5151
3115.386	5123
3117.186	5233
3118.985	5215
3120.783	5091
3122.582	5117
3124.381	5129
3126.179	5217
3127.975	5085
3129.772	5108
3131.569	5095
3133.365	5115
3135.161	5177
3136.956	5251
3138.751	5103
3140.544	5030
3142.338	5136
3144.132	5155
3145.925	5044
3147.717	5112
3149.509	5072
3151.301	5033
3153.091	5093
3154.884	4969
3156.673	5053
3158.462	5094
3160.252	5047
3162.041	5018
3163.831	5074
3165.618	5004
3167.405	5076
3169.193	5107
3170.979	5087
3172.767	5069
3174.553	5072
3176.338	4946
3178.123	5022
3179.907	5056
3181.692	4989
3183.477	5092
3185.259	5041
3187.042	4922
3188.824	5043
3190.607	5015
3192.389	4932
3194.17	5072
3195.951	4954
3197.73	4931
3199.51	5020
3201.289	4984
3203.07	5100
3204.848	5080
3206.626	4979
3208.403	5011
3210.18	4992
3211.959	4966
3213.735	5064
3215.511	5125
3217.285	4931
3219.06	5023
3220.836	4902
3222.611	4979
3224.384	5049
3226.158	5092
3227.929	5081
3229.702	4954
3231.476	4966
3233.248	4893
3235.018	4992
3236.789	4976
3238.56	4927
3240.33	4983
3242.1	5084
3243.869	4999
3245.637	4946
3247.405	4876
3249.172	4988
3250.941	5007
3252.707	4962
3254.474	4947
3256.24	4925
3258.006	4978
3259.772	4911
3261.537	4926
3263.301	5026
3265.065	5002
3266.828	4864
3268.592	5005
3270.355	4994
3272.117	4969
3273.878	4924
3275.64	4949
3277.401	5070
3279.162	5070
3280.922	4890
3282.682	4993
3284.441	4932
3286.199	4839
3287.959	4964
3289.716	4919
3291.475	4948
3293.232	4969
3294.988	4947
3296.744	4977
3298.501	5010
3300.256	4978
3302.011	4886
3303.766	4953
3305.52	5040
3307.275	4858
3309.028	4897
3310.781	4940
3312.533	4904
3314.285	4912
3316.038	4993
3317.789	4961
3319.54	4923
3321.289	5028
3323.039	4948
3324.789	4972
3326.539	4917
3328.288	4904
3330.035	4935
3331.783	4969
3333.531	4935
3335.28	4936
3337.025	4896
3338.771	4927
3340.518	4888
3342.262	4869
3344.009	4841
3345.753	4951
3347.497	4882
3349.24	4878
3350.983	4745
3352.726	4804
3354.469	4888
3356.212	4940
3357.952	4797
3359.694	4778
3361.434	4880
3363.176	4722
3364.916	4867
3366.654	4838
3368.394	4805
3370.132	4679
3371.871	4799
3373.61	4846
3375.346	4690
3377.083	4738
3378.82	4785
3380.556	4724
3382.292	4869
3384.027	4760
3385.763	4806
3387.497	4844
3389.231	4798
3390.965	4780
3392.698	4739
3394.431	4617
3396.164	4743
3397.896	4704
3399.627	4672
3401.36	4623
3403.09	4695
3404.82	4695
3406.55	4657
3408.279	4635
3410.01	4705
3411.738	4730
3413.467	4674
3415.194	4711
3416.92	4658
3418.647	4681
3420.375	4720
3422.102	4623
3423.827	4773
3425.553	4782
3427.277	4699
3429.003	4747
3430.727	4624
3432.451	4633
3434.173	4668
3435.896	4686
3437.62	4575
3439.343	4660
3441.063	4610
3442.785	4687
3444.505	4554
3446.226	4518
3447.948	4659
3449.666	4503
3451.386	4559
3453.104	4584
3454.823	4582
3456.541	4506
3458.259	4473
3459.976	4665
3461.693	4537
3463.408	4496
3465.125	4500
3466.841	4516
3468.556	4479
3470.271	4472
3471.985	4526
3473.698	4503
3475.414	4507
3477.126	4555
3478.838	4529
3480.55	4464
3482.263	4462
3483.975	4505
3485.686	4398
3487.396	4502
3489.106	4455
3490.817	4470
3492.526	4442
3494.236	4460
3495.944	4458
3497.652	4407
3499.359	4470
3501.066	4392
3502.775	4324
3504.481	4341
3506.187	4354
3507.893	4418
3509.598	4373
3511.304	4324
3513.009	4392
3514.713	4414
3516.417	4366
3518.12	4354
3519.821	4361
3521.525	4327
3523.228	4344
3524.929	4306
3526.631	4309
3528.33	4260
3530.032	4191
3531.733	4327
3533.433	4339
3535.131	4345
3536.83	4291
3538.529	4240
3540.227	4389
3541.925	4262
3543.623	4390
3545.319	4252
3547.016	4331
3548.712	4245
3550.408	4174
3552.103	4265
3553.798	4137
3555.491	4245
3557.188	4327
3558.88	4309
3560.574	4151
3562.266	4240
3563.959	4191
3565.651	4264
3567.343	4213
3569.035	4180
3570.725	4181
3572.415	4141
3574.106	4213
3575.797	4192
3577.485	4241
3579.174	4263
3580.863	4247
3582.551	4166
3584.238	4159
3585.926	4208
3587.613	4182
3589.3	4097
3590.986	4153
3592.671	4064
3594.357	4179
3596.042	4096
3597.726	4064
3599.41	4084
3601.094	4132
3602.778	4124
3604.461	4100
3606.143	4065
3607.825	4128
3609.507	4035
3611.188	4050
3612.87	4084
3614.551	4056
3616.229	4086
3617.909	4095
3619.589	4012
3621.269	3997
3622.948	4116
3624.625	4032
3626.302	4008
3627.98	4014
3629.657	4019
3631.334	4012
3633.01	3947
3634.686	3987
3636.361	3948
3638.036	3990
3639.712	4007
3641.385	3935
3643.06	3958
3644.732	3913
3646.405	3984
3648.08	3930
3649.751	3919
3651.424	4002
3653.094	3888
3654.766	3960
3656.436	3962
3658.106	3891
3659.777	3969
3661.446	3884
3663.115	3945
3664.783	3927
3666.452	3905
3668.121	3901
3669.788	3893
3671.454	3841
3673.121	3852
3674.789	3838
3676.455	3897
3678.12	3858
3679.784	3920
3681.45	3826
3683.114	3890
3684.779	3894
3686.442	3871
3688.105	3891
3689.768	3777
3691.43	3833
3693.093	3901
3694.754	3778
3696.415	3901
3698.076	3896
3699.736	3883
3701.396	3789
3703.057	3876
3704.716	3830
3706.375	3812
3708.034	3799
3709.692	3778
3711.351	3837
3713.008	3767
3714.665	3801
3716.321	3759
3717.977	3788
3719.634	3804
3721.29	3846
3722.945	3792
3724.598	3772
3726.253	3788
3727.907	3831
3729.561	3738
3731.214	3774
3732.867	3767
3734.518	3835
3736.171	3748
3737.824	3729
3739.474	3779
3741.125	3764
3742.775	3669
3744.425	3755
3746.074	3717
3747.725	3764
3749.373	3656
3751.022	3689
3752.669	3675
3754.318	3772
3755.966	3734
3757.612	3684
3759.259	3751
3760.905	3735
3762.55	3749
3764.197	3678
3765.842	3742
3767.486	3691
3769.131	3704
3770.774	3706
3772.417	3695
3774.061	3753
3775.705	3697
3777.347	3687
3778.988	3688
3780.629	3673
3782.271	3664
3783.912	3680
3785.552	3651
3787.192	3623
3788.831	3631
3790.472	3629
3792.112	3624
3793.75	3660
3795.388	3605
3797.024	3627
3798.661	3589
3800.3	3628
3801.936	3638
3803.572	3619
3805.208	3625
3806.844	3614
3808.48	3536
3810.115	3631
3811.748	3539
3813.382	3611
3815.016	3645
3816.649	3589
3818.283	3562
3819.914	3575
3821.547	3577
3823.178	3564
3824.809	3532
3826.441	3548
3828.072	3562
3829.701	3605
3831.331	3556
3832.96	3618
3834.591	3497
3836.219	3498
3837.847	3534
3839.475	3547
3841.102	3475
3842.729	3486
3844.357	3476
3845.984	3501
3847.609	3414
3849.234	3439
3850.86	3520
3852.485	3510
3854.11	3542
3855.734	3425
3857.357	3456
3858.981	3423
3860.603	3489
3862.227	3485
3863.848	3450
3865.471	3472
3867.092	3562
3868.713	3465
3870.334	3470
3871.954	3462
3873.575	3494
3875.194	3488
3876.813	3481
3878.433	3417
3880.051	3475
3881.669	3436
3883.286	3399
3884.904	3534
3886.52	3410
3888.138	3439
3889.754	3372
3891.37	3457
3892.985	3394
3894.6	3397
3896.216	3445
3897.831	3460
3899.444	3377
3901.058	3427
3902.67	3416
3904.283	3364
3905.897	3364
3907.509	3415
3909.121	3380
3910.731	3409
3912.342	3344
3913.954	3435
3915.563	3358
3917.174	3329
3918.783	3478
3920.391	3306
3922.002	3355
3923.611	3384
3925.218	3353
3926.826	3392
3928.432	3403
3930.039	3384
3931.647	3375
3933.253	3358
3934.859	3294
3936.464	3383
3938.068	3339
3939.675	3433
3941.278	3314
3942.883	3414
3944.486	3368
3946.089	3330
3947.692	3257
3949.295	3276
3950.898	3290
3952.499	3279
3954.1	3337
3955.7	3261
3957.303	3335
3958.903	3270
3960.502	3369
3962.101	3289
3963.7	3294
3965.301	3322
3966.899	3357
3968.497	3274
3970.094	3260
3971.691	3369
3973.288	3327
3974.885	3379
3976.481	3208
3978.077	3258
3979.672	3264
3981.267	3250
3982.863	3274
3984.457	3195
3986.051	3243
3987.645	3263
3989.238	3255
3990.831	3295
3992.425	3217
3994.017	3276
3995.607	3170
3997.199	3212
3998.79	3165
4000.382	3218
4001.973	3206
4003.561	3209
4005.151	3155
4006.741	3084
4008.331	3150
4009.918	3149
4011.507	3169
4013.095	3259
4014.681	3231
4016.269	3213
4017.856	3140
4019.443	3266
4021.028	3189
4022.614	3086
4024.199	3213
4025.785	3157
4027.37	3141
4028.953	3101
4030.536	3114
4032.12	3132
4033.704	3040
4035.287	3131
4036.869	3090
4038.45	3088
4040.032	3145
4041.613	3142
4043.195	3146
4044.776	3133
4046.356	3094
4047.935	3036
4049.515	3100
4051.095	3054
4052.674	3118
4054.251	3049
4055.829	3083
4057.406	3080
4058.985	3013
4060.562	3153
4062.139	3084
4063.715	3119
4065.29	3070
4066.865	3062
4068.442	3047
4070.016	3018
4071.59	3067
4073.164	3029
4074.738	3024
4076.312	3046
4077.885	3082
4079.458	3039
4081.03	3019
4082.602	3018
4084.173	3048
4085.745	3044
4087.315	2960
4088.886	3054
4090.456	2989
4092.026	2972
4093.596	2916
4095.165	3087
4096.734	2966
4098.301	3025
4099.869	3015
4101.437	3035
4103.006	3028
4104.572	3021
4106.139	2977
4107.704	2975
4109.27	3028
4110.837	2937
4112.401	3003
4113.966	2991
4115.53	2999
4117.094	3017
4118.659	3010
4120.223	2924
4121.785	3035
4123.347	2944
4124.909	2908
4126.471	2874
4128.034	2931
4129.595	2936
4131.155	2982
4132.716	2905
4134.275	2964
4135.836	2911
4137.395	2845
4138.955	2871
4140.513	2875
4142.071	2884
4143.628	2945
4145.188	2909
4146.745	2836
4148.302	2961
4149.858	2888
4151.414	2829
4152.971	2899
4154.526	2987
4156.081	2789
4157.635	2851
4159.189	2844
4160.745	2844
4162.298	2892
4163.852	2861
4165.405	2817
4166.957	2868
4168.51	2788
4170.063	2882
4171.614	2825
4173.166	2839
4174.717	2773
4176.267	2802
4177.817	2830
4179.368	2802
4180.917	2791
4182.466	2834
4184.016	2712
4185.564	2849
4187.112	2807
4188.66	2771
4190.207	2793
4191.754	2812
4193.301	2733
4194.848	2771
4196.394	2778
4197.94	2813
4199.484	2792
4201.03	2771
4202.575	2764
4204.12	2770
4205.663	2781
4207.207	2763
4208.75	2744
4210.292	2755
4211.836	2730
4213.378	2746
4214.92	2824
4216.46	2694
4218.002	2732
4219.544	2667
4221.083	2748
4222.625	2706
4224.164	2744
4225.703	2687
4227.244	2739
4228.782	2691
4230.32	2674
4231.857	2652
4233.395	2688
4234.933	2718
4236.471	2710
4238.007	2682
4239.542	2746
4241.078	2676
4242.614	2697
4244.15	2709
4245.685	2658
4247.219	2694
4248.753	2703
4250.287	2728
4251.82	2752
4253.354	2666
4254.887	2720
4256.419	2706
4257.951	2671
4259.483	2672
4261.016	2652
4262.547	2642
4264.078	2644
4265.608	2694
4267.137	2665
4268.668	2661
4270.197	2677
4271.727	2641
4273.254	2714
4274.783	2649
4276.311	2684
4277.84	2690
4279.366	2646
4280.894	2564
4282.42	2618
4283.946	2633
4285.473	2615
4286.998	2635
4288.523	2644
4290.047	2660
4291.572	2667
4293.096	2676
4294.622	2651
4296.144	2606
4297.668	2563
4299.19	2660
4300.713	2713
4302.236	2607
4303.758	2661
4305.279	2630
4306.799	2592
4308.321	2659
4309.842	2618
4311.361	2624
4312.882	2638
4314.401	2552
