400.0961	2538
402.6185	2605
405.1424	2603
407.6635	2685
410.1838	2613
412.7035	2546
415.2225	2700
417.7388	2665
420.2585	2786
422.7754	2682
425.2917	2749
427.8072	2879
430.3221	2821
432.8363	2872
435.3498	2851
437.8626	2871
440.3727	2820
442.8841	2812
445.3969	2826
447.907	2794
450.4142	2849
452.9229	2784
455.4289	2766
457.9362	2785
460.4449	2709
462.9488	2759
465.454	2756
467.9566	2705
470.4604	2716
472.9637	2732
475.4662	2805
477.966	2699
480.4671	2696
482.9656	2708
485.4633	2750
487.9645	2734
490.4608	2765
492.9566	2709
495.4536	2718
497.948	2735
500.4437	2739
502.9387	2753
505.431	2773
507.9226	2748
510.4136	2736
512.9079	2818
515.3975	2771
517.8864	2725
520.3746	2756
522.8622	2759
525.3491	2827
527.8394	2784
530.3249	2769
532.8098	2835
535.2939	2772
537.7774	2870
540.2623	2798
542.7444	2764
545.2259	2839
547.7067	2739
550.1868	2806
552.6683	2729
555.147	2790
557.6231	2723
560.1005	2792
562.5773	2835
565.0534	2883
567.5308	2892
570.0056	2905
572.4776	2882
574.951	2938
577.4237	2969
579.8978	2978
582.3671	3035
584.8378	2989
587.3079	2960
589.7773	3033
592.244	2948
594.714	3027
597.1793	2986
599.6461	2946
602.1121	2945
604.5754	2932
607.0421	2993
609.5042	2965
611.9675	2959
614.4282	2987
616.8902	2868
619.3515	2920
621.8122	2834
624.2702	2906
626.7296	2896
629.1863	2883
631.6423	2772
634.1017	2918
636.5563	2800
639.0104	2857
641.4658	2812
643.9185	2866
646.3725	2880
648.8239	2921
651.2766	2831
653.7266	2913
656.176	2867
658.6247	2864
661.0748	2908
663.5242	2896
665.9709	2917
668.417	2952
670.8624	2855
673.3092	2937
675.7533	2910
678.1968	2936
680.6395	2906
683.0817	2921
685.5251	2980
687.9659	2947
690.4061	2982
692.8456	2947
695.2844	2944
697.7226	2924
700.1621	2958
702.599	3032
705.0332	3004
707.4688	2905
709.9036	2908
712.3399	2943
714.7735	2942
717.2044	2963
719.6367	3069
722.0683	3012
724.4993	3048
726.9296	2959
729.3593	2971
731.7883	2954
734.2147	3004
736.6423	3072
739.0714	2987
741.4958	2963
743.9216	3080
746.3447	3108
748.7691	3061
751.1929	3094
753.616	3110
756.0366	3161
758.4584	3120
760.8776	3130
763.2982	3104
765.718	3123
768.1373	3178
770.5539	3166
772.9698	3151
775.3871	3109
777.8038	3088
780.2178	3139
782.6332	3122
785.0459	3104
787.458	3201
789.8714	3123
792.2842	3121
794.6943	3104
797.1038	3189
799.5127	3148
801.9209	3181
804.3324	3205
806.7393	3176
809.1456	3146
811.5513	3201
813.9562	3220
816.3625	3193
818.7663	3209
821.1693	3173
823.5718	3160
825.9735	3209
828.3746	3244
830.7771	3180
833.177	3196
835.5762	3206
837.9747	3225
840.3727	3214
842.772	3173
845.1666	3252
847.5626	3249
849.958	3289
852.3527	3285
854.7488	3353
857.1403	3361
859.5331	3390
861.9253	3370
864.3168	3426
866.7057	3236
869.098	3197
871.4876	3300
873.8746	3284
876.263	3299
878.6487	3249
881.0378	3245
883.4243	3306
885.8081	3293
888.1933	3343
890.5759	3312
892.9598	3303
895.343	3298
897.7256	3234
900.1057	3235
902.4871	3296
904.8659	3333
907.246	3344
909.6254	3353
912.0023	3415
914.3786	3324
916.7562	3473
919.1331	3469
921.5074	3498
923.8831	3497
926.2562	3525
928.6287	3648
931.0005	3485
933.3757	3528
935.7462	3583
938.1162	3581
940.4855	3671
942.8542	3798
945.2242	3814
947.5916	3916
949.9584	4104
952.3266	4279
954.6921	4651
957.0571	4966
959.4233	5204
961.787	5371
964.15	5200
966.5125	5021
968.8742	4674
971.2354	4314
973.5959	4064
975.9559	3843
978.3151	3664
980.6738	3543
983.0338	3499
985.3912	3476
987.7461	3493
990.1022	3477
992.4578	3428
994.8127	3387
997.1689	3435
999.5207	3451
1001.874	3484
1004.226	3513
1006.576	3451
1008.929	3432
1011.28	3474
1013.628	3437
1015.977	3433
1018.324	3488
1020.674	3487
1023.019	3383
1025.366	3493
1027.713	3567
1030.056	3504
1032.399	3525
1034.746	3496
1037.087	3542
1039.431	3555
1041.771	3534
1044.113	3499
1046.454	3476
1048.793	3494
1051.133	3525
1053.471	3545
1055.807	3522
1058.146	3529
1060.483	3567
1062.818	3591
1065.153	3688
1067.489	3600
1069.822	3711
1072.156	3772
1074.488	3650
1076.82	3726
1079.15	3694
1081.48	3624
1083.814	3577
1086.143	3576
1088.471	3573
1090.799	3602
1093.126	3505
1095.452	3502
1097.78	3506
1100.105	3449
1102.43	3473
1104.754	3409
1107.077	3543
1109.4	3437
1111.722	3454
1114.044	3526
1116.365	3463
1118.685	3498
1121.005	3513
1123.324	3469
1125.643	3418
1127.961	3486
1130.278	3463
1132.595	3430
1134.911	3435
1137.226	3543
1139.541	3401
1141.854	3369
1144.167	3464
1146.482	3501
1148.793	3397
1151.105	3439
1153.414	3439
1155.725	3534
1158.033	3472
1160.344	3481
1162.651	3519
1164.959	3416
1167.265	3548
1169.572	3420
1171.878	3443
1174.184	3442
1176.488	3554
1178.79	3476
1181.094	3544
1183.396	3526
1185.699	3590
1188.001	3507
1190.301	3468
1192.6	3476
1194.9	3454
1197.2	3455
1199.497	3469
1201.794	3512
1204.09	3438
1206.387	3451
1208.684	3483
1210.978	3508
1213.272	3469
1215.565	3470
1217.858	3551
1220.15	3490
1222.443	3475
1224.734	3602
1227.024	3611
1229.313	3466
1231.602	3662
1233.892	3593
1236.18	3648
1238.467	3629
1240.754	3728
1243.04	3655
1245.325	3700
1247.612	3705
1249.896	3631
1252.178	3690
1254.461	3717
1256.743	3647
1259.027	3721
1261.308	3678
1263.587	3699
1265.867	3758
1268.146	3784
1270.425	3687
1272.703	3728
1274.981	3675
1277.256	3724
1279.532	3690
1281.808	3642
1284.083	3687
1286.358	3587
1288.63	3675
1290.904	3665
1293.175	3590
1295.449	3512
1297.719	3571
1299.99	3562
1302.259	3591
1304.529	3548
1306.798	3579
1309.065	3560
1311.333	3533
1313.599	3581
1315.866	3584
1318.131	3603
1320.396	3582
1322.66	3581
1324.925	3613
1327.187	3648
1329.448	3611
1331.711	3512
1333.974	3615
1336.234	3594
1338.493	3615
1340.752	3571
1343.01	3597
1345.269	3521
1347.526	3588
1349.784	3618
1352.04	3576
1354.295	3558
1356.552	3549
1358.806	3576
1361.059	3575
1363.312	3651
1365.564	3612
1367.818	3592
1370.069	3562
1372.318	3550
1374.568	3565
1376.817	3658
1379.066	3735
1381.316	3622
1383.564	3633
1385.809	3710
1388.056	3634
1390.301	3673
1392.549	3600
1394.793	3795
1397.036	3686
1399.279	3660
1401.522	3732
1403.763	3763
1406.007	3722
1408.248	3630
1410.487	3773
1412.727	3709
1414.965	3721
1417.205	3708
1419.442	3722
1421.68	3797
1423.915	3718
1426.152	3821
1428.388	3750
1430.623	3704
1432.857	3793
1435.091	3723
1437.323	3801
1439.556	3801
1441.789	3812
1444.019	3870
1446.25	3859
1448.48	3793
1450.708	3811
1452.938	3856
1455.167	3923
1457.394	3990
1459.62	3837
1461.846	3887
1464.073	3858
1466.299	3784
1468.523	3814
1470.746	3785
1472.969	3783
1475.191	3765
1477.415	3674
1479.636	3793
1481.858	3637
1484.078	3586
1486.298	3621
1488.518	3561
1490.736	3620
1492.954	3622
1495.169	3619
1497.386	3577
1499.602	3555
1501.819	3494
1504.034	3537
1506.248	3539
1508.462	3556
1510.675	3565
1512.888	3553
1515.1	3567
1517.311	3582
1519.522	3585
1521.732	3558
1523.942	3525
1526.151	3523
1528.36	3499
1530.566	3609
1532.773	3553
1534.98	3596
1537.187	3547
1539.392	3624
1541.596	3650
1543.801	3585
1546.005	3608
1548.208	3636
1550.411	3644
1552.612	3574
1554.814	3531
1557.013	3560
1559.212	3638
1561.414	3625
1563.612	3746
1565.811	3676
1568.007	3629
1570.203	3684
1572.403	3661
1574.598	3680
1576.792	3712
1578.988	3689
1581.181	3595
1583.376	3645
1585.568	3655
1587.761	3679
1589.952	3610
1592.143	3676
1594.333	3664
1596.524	3694
1598.715	3767
1600.903	3707
1603.091	3801
1605.278	3668
1607.466	3694
1609.652	3774
1611.838	3749
1614.023	3724
1616.207	3621
1618.391	3726
1620.576	3753
1622.759	3853
1624.941	3756
1627.123	3721
1629.304	3784
1631.484	3779
1633.664	3841
1635.844	3859
1638.022	3828
1640.201	3816
1642.38	3808
1644.556	3912
1646.732	3860
1648.908	3748
1651.084	3834
1653.257	3780
1655.433	3854
1657.607	3844
1659.779	3883
1661.951	3942
1664.122	3838
1666.295	3938
1668.467	3852
1670.635	3861
1672.805	3836
1674.973	3787
1677.142	3904
1679.31	3899
1681.478	3872
1683.644	3878
1685.81	3785
1687.975	3795
1690.142	3842
1692.305	3798
1694.468	3810
1696.632	3850
1698.794	3792
1700.957	3849
1703.119	3759
1705.279	3711
1707.439	3749
1709.598	3719
1711.758	3728
1713.917	3743
1716.075	3701
1718.231	3749
1720.388	3599
1722.543	3728
1724.702	3648
1726.856	3669
1729.01	3694
1731.164	3604
1733.317	3713
1735.471	3695
1737.623	3665
1739.774	3663
1741.925	3732
1744.075	3727
1746.225	3742
1748.376	3619
1750.524	3715
1752.672	3688
1754.82	3767
1756.965	3713
1759.113	3751
1761.259	3746
1763.405	3755
1765.549	3655
1767.694	3671
1769.836	3748
1771.981	3756
1774.123	3681
1776.264	3690
1778.405	3649
1780.546	3784
1782.687	3704
1784.827	3803
1786.966	3681
1789.103	3778
1791.242	3758
1793.381	3684
1795.517	3734
1797.653	3763
1799.788	3665
1801.923	3737
1804.057	3643
1806.193	3695
1808.326	3696
1810.457	3735
1812.59	3714
1814.721	3784
1816.855	3721
1818.984	3697
1821.113	3782
1823.244	3788
1825.372	3699
1827.499	3794
1829.63	3745
1831.756	3742
1833.882	3793
1836.007	3769
1838.132	3731
1840.26	3704
1842.384	3688
1844.507	3752
1846.63	3735
1848.752	3680
1850.875	3731
1852.996	3719
1855.118	3750
1857.238	3760
1859.358	3779
1861.477	3702
1863.597	3740
1865.715	3686
1867.832	3663
1869.948	3734
1872.064	3744
1874.181	3701
1876.297	3692
1878.411	3716
1880.526	3671
1882.639	3781
1884.752	3724
1886.865	3703
1888.977	3695
1891.089	3809
1893.2	3728
1895.308	3610
1897.42	3758
1899.53	3760
1901.639	3693
1903.745	3650
1905.853	3742
1907.962	3748
1910.067	3700
1912.174	3712
1914.278	3741
1916.383	3796
1918.486	3753
1920.592	3790
1922.694	3801
1924.797	3800
1926.898	3788
1929	3778
1931.102	3761
1933.203	3859
1935.301	3707
1937.401	3846
1939.499	3757
1941.598	3838
1943.697	3804
1945.793	3804
1947.888	3789
1949.985	3798
1952.08	3769
1954.176	3769
1956.269	3735
1958.364	3802
1960.457	3739
1962.549	3758
1964.642	3802
1966.733	3788
1968.823	3784
1970.913	3781
1973.005	3790
1975.093	3740
1977.184	3707
1979.271	3763
1981.359	3724
1983.446	3708
1985.532	3752
1987.619	3765
1989.705	3723
1991.789	3682
1993.874	3766
1995.956	3699
1998.041	3789
2000.123	3635
2002.206	3705
2004.287	3772
2006.368	3773
2008.449	3788
2010.529	3739
2012.609	3777
2014.688	3686
2016.766	3759
2018.843	3698
2020.922	3796
2022.999	3748
2025.074	3718
2027.15	3750
2029.225	3668
2031.299	3738
2033.375	3719
2035.447	3753
2037.52	3750
2039.592	3732
2041.664	3736
2043.736	3741
2045.807	3721
2047.876	3748
2049.947	3849
2052.015	3821
2054.086	3793
2056.153	3742
2058.221	3783
2060.288	3716
2062.353	3735
2064.42	3747
2066.486	3786
2068.55	3742
2070.614	3721
2072.678	3785
2074.741	3760
2076.805	3791
2078.866	3758
2080.929	3783
2082.99	3838
2085.049	3725
2087.109	3736
2089.17	3740
2091.228	3817
2093.286	3777
2095.344	3764
2097.4	3724
2099.46	3797
2101.516	3724
2103.572	3773
2105.626	3846
2107.679	3805
2109.735	3812
2111.788	3760
2113.841	3791
2115.894	3798
2117.945	3762
2119.997	3671
2122.049	3753
2124.1	3762
2126.148	3753
2128.197	3775
2130.246	3678
2132.296	3746
2134.342	3813
2136.39	3764
2138.437	3809
2140.483	3748
2142.527	3829
2144.574	3705
2146.619	3748
2148.661	3817
2150.705	3753
2152.747	3730
2154.792	3767
2156.832	3723
2158.874	3831
2160.915	3648
2162.954	3798
2164.995	3733
2167.034	3792
2169.072	3645
2171.111	3663
2173.148	3741
2175.186	3699
2177.223	3708
2179.258	3699
2181.294	3741
2183.328	3726
2185.362	3760
2187.398	3635
2189.431	3682
2191.463	3728
2193.495	3724
2195.528	3718
2197.56	3681
2199.59	3739
2201.62	3645
2203.649	3675
2205.678	3741
2207.708	3671
2209.737	3653
2211.764	3679
2213.791	3751
2215.817	3725
2217.843	3649
2219.87	3711
2221.895	3638
2223.919	3671
2225.942	3693
2227.966	3652
2229.988	3766
2232.012	3633
2234.032	3762
2236.054	3714
2238.074	3635
2240.095	3651
2242.116	3739
2244.135	3706
2246.153	3685
2248.171	3586
2250.188	3651
2252.208	3652
2254.223	3672
2256.239	3658
2258.255	3771
2260.269	3610
2262.283	3683
2264.3	3602
2266.312	3621
2268.325	3691
2270.336	3575
2272.349	3690
2274.362	3694
2276.372	3652
2278.383	3701
2280.392	3639
2282.402	3667
2284.409	3675
2286.418	3655
2288.427	3683
2290.433	3696
2292.441	3636
2294.446	3701
2296.453	3645
2298.459	3659
2300.463	3671
2302.466	3669
2304.471	3671
2306.475	3593
2308.477	3619
2310.478	3609
2312.481	3664
2314.481	3666
2316.481	3581
2318.482	3675
2320.482	3704
2322.48	3627
2324.48	3596
2326.478	3589
2328.476	3633
2330.473	3657
2332.469	3710
2334.465	3654
2336.46	3698
2338.454	3582
2340.45	3666
2342.444	3619
2344.437	3641
2346.43	3649
2348.421	3623
2350.414	3616
2352.405	3525
2354.396	3687
2356.386	3667
2358.376	3602
2360.366	3568
2362.355	3677
2364.343	3584
2366.331	3578
2368.317	3674
2370.304	3702
2372.292	3628
2374.278	3601
2376.262	3610
2378.247	3584
2380.23	3629
2382.216	3583
2384.199	3608
2386.181	3646
2388.163	3552
2390.144	3616
2392.127	3548
2394.107	3613
2396.087	3581
2398.066	3586
2400.046	3633
2402.023	3564
2404.004	3512
2405.981	3659
2407.957	3613
2409.934	3554
2411.91	3581
2413.886	3592
2415.862	3594
2417.836	3552
2419.809	3563
2421.784	3556
2423.756	3554
2425.73	3658
2427.701	3599
2429.672	3625
2431.644	3561
2433.615	3573
2435.586	3585
2437.555	3587
2439.523	3645
2441.491	3458
2443.459	3658
2445.428	3641
2447.395	3503
2449.361	3552
2451.327	3620
2453.292	3617
2455.257	3553
2457.223	3643
2459.187	3570
2461.15	3556
2463.113	3580
2465.076	3633
2467.039	3571
2468.999	3454
2470.96	3530
2472.921	3568
2474.881	3595
2476.841	3490
2478.8	3557
2480.759	3556
2482.717	3518
2484.675	3665
2486.63	3520
2488.589	3538
2490.545	3551
2492.5	3586
2494.455	3511
2496.408	3572
2498.364	3558
2500.318	3532
2502.27	3534
2504.223	3493
2506.174	3586
2508.126	3502
2510.078	3511
2512.03	3626
2513.979	3601
2515.927	3452
2517.877	3538
2519.826	3543
2521.775	3561
2523.722	3456
2525.668	3486
2527.616	3522
2529.561	3467
2531.508	3549
2533.452	3538
2535.398	3530
2537.342	3454
2539.284	3417
2541.229	3511
2543.173	3529
2545.114	3585
2547.055	3556
2548.996	3509
2550.938	3442
2552.878	3564
2554.817	3544
2556.756	3524
2558.695	3537
2560.633	3627
2562.572	3493
2564.509	3535
2566.445	3542
2568.382	3524
2570.317	3590
2572.254	3481
2574.189	3489
2576.123	3524
2578.057	3567
2579.99	3517
2581.923	3590
2583.855	3572
2585.788	3542
2587.719	3497
2589.65	3571
2591.579	3536
2593.511	3504
2595.44	3538
2597.37	3534
2599.297	3527
2601.225	3483
2603.153	3554
2605.08	3519
2607.007	3452
2608.932	3572
2610.858	3513
2612.782	3556
2614.709	3565
2616.632	3570
2618.556	3529
2620.478	3488
2622.401	3556
2624.324	3536
2626.247	3462
2628.167	3565
2630.088	3490
2632.008	3542
2633.928	3575
2635.848	3573
2637.766	3530
2639.684	3595
2641.603	3576
2643.519	3591
2645.437	3571
2647.353	3478
2649.27	3567
2651.184	3530
2653.099	3623
2655.014	3546
2656.928	3560
2658.842	3502
2660.755	3568
2662.667	3562
2664.579	3565
2666.491	3543
2668.402	3598
2670.312	3463
2672.222	3507
2674.132	3488
2676.042	3571
2677.951	3520
2679.859	3547
2681.766	3494
2683.674	3527
2685.582	3521
2687.488	3491
2689.392	3456
2691.298	3522
2693.202	3530
2695.107	3485
2697.012	3528
2698.914	3576
2700.817	3491
2702.72	3567
2704.622	3550
2706.524	3454
2708.425	3524
2710.326	3459
2712.225	3522
2714.125	3460
2716.024	3536
2717.923	3559
2719.822	3463
2721.719	3434
2723.616	3448
2725.512	3456
2727.41	3466
2729.305	3458
2731.201	3494
2733.095	3508
2734.99	3456
2736.884	3420
2738.778	3523
2740.67	3578
2742.562	3506
2744.455	3538
2746.346	3475
2748.238	3532
2750.129	3443
2752.018	3470
2753.907	3550
2755.797	3539
2757.687	3537
2759.575	3506
2761.462	3503
2763.349	3436
2765.237	3494
2767.124	3482
2769.009	3470
2770.894	3421
2772.779	3599
2774.663	3442
2776.547	3471
2778.431	3484
2780.314	3420
2782.197	3444
2784.078	3432
2785.96	3482
2787.842	3461
2789.723	3535
2791.603	3429
2793.483	3414
2795.362	3451
2797.241	3486
2799.121	3422
2800.997	3507
2802.874	3427
2804.751	3499
2806.628	3399
2808.506	3503
2810.38	3448
2812.255	3455
2814.13	3458
2816.003	3556
2817.878	3499
2819.752	3476
2821.623	3468
2823.496	3413
2825.368	3486
2827.238	3428
2829.111	3495
2830.98	3435
2832.851	3447
2834.719	3517
2836.589	3516
2838.458	3460
2840.327	3436
2842.193	3483
2844.061	3461
2845.927	3523
2847.794	3568
2849.66	3557
2851.525	3556
2853.39	3538
2855.254	3585
2857.117	3580
2858.983	3555
2860.845	3641
2862.707	3569
2864.569	3735
2866.431	3662
2868.293	3646
2870.154	3668
2872.013	3757
2873.873	3784
2875.733	3827
2877.592	3813
2879.451	3878
2881.309	3998
2883.166	3890
2885.022	3983
2886.879	4097
2888.736	4021
2890.591	3991
2892.446	3956
2894.301	4016
2896.155	3945
2898.009	4002
2899.863	4034
2901.716	3950
2903.568	3970
2905.419	3990
2907.27	3986
2909.123	3957
2910.973	4040
2912.824	4079
2914.673	4174
2916.521	4044
2918.372	4137
2920.22	4198
2922.067	4259
2923.914	4292
2925.761	4373
2927.607	4377
2929.455	4377
2931.301	4458
2933.144	4511
2934.99	4524
2936.833	4615
2938.678	4642
2940.522	4581
2942.364	4703
2944.207	4792
2946.048	4721
2947.891	4795
2949.731	4768
2951.571	4819
2953.412	4807
2955.25	4676
2957.09	4640
2958.93	4672
2960.767	4507
2962.606	4459
2964.443	4365
2966.279	4379
2968.116	4388
2969.953	4241
2971.788	4342
2973.623	4250
2975.457	4273
2977.292	4141
2979.127	4183
2980.959	4100
2982.792	4174
2984.624	4103
2986.455	4069
2988.288	4112
2990.119	3940
2991.949	3968
2993.779	4114
2995.608	3890
2997.439	3986
2999.268	3863
3001.096	3820
3002.923	3846
3004.751	3842
3006.578	3773
3008.406	3639
3010.232	3711
3012.057	3687
3013.883	3587
3015.706	3519
3017.532	3546
3019.356	3539
3021.179	3518
3023.002	3480
3024.823	3468
3026.646	3489
3028.469	3353
3030.289	3420
3032.11	3482
3033.93	3478
3035.749	3357
3037.57	3361
3039.39	3340
3041.207	3333
3043.026	3407
3044.842	3386
3046.661	3446
3048.477	3378
3050.294	3453
3052.109	3361
3053.925	3405
3055.739	3322
3057.555	3424
3059.368	3355
3061.181	3359
3062.995	3387
3064.807	3360
3066.62	3344
3068.433	3345
3070.243	3353
3072.054	3362
3073.865	3399
3075.675	3383
3077.485	3358
3079.293	3346
3081.102	3365
3082.911	3324
3084.719	3309
3086.527	3413
3088.333	3302
3090.139	3382
3091.945	3284
3093.75	3317
3095.557	3348
3097.361	3275
3099.165	3298
3100.969	3284
3102.772	3232
3104.575	3267
3106.379	3285
3108.181	3210
3109.982	3243
3111.783	3297
3113.584	3317
3115.386	3225
3117.186	3280
3118.985	3212
3120.783	3252
3122.582	3215
3124.381	3172
3126.179	3271
3127.975	3224
3129.772	3302
3131.569	3249
3133.365	3212
3135.161	3274
3136.956	3235
3138.751	3176
3140.544	3227
3142.338	3218
3144.132	3266
3145.925	3200
3147.717	3228
3149.509	3166
3151.301	3216
3153.091	3180
3154.884	3175
3156.673	3163
3158.462	3256
3160.252	3238
3162.041	3280
3163.831	3186
3165.618	3191
3167.405	3239
3169.193	3180
3170.979	3194
3172.767	3151
3174.553	3209
3176.338	3123
3178.123	3185
3179.907	3154
3181.692	3221
3183.477	3167
3185.259	3274
3187.042	3212
3188.824	3189
3190.607	3141
3192.389	3168
3194.17	3181
3195.951	3151
3197.73	3192
3199.51	3205
3201.289	3179
3203.07	3261
3204.848	3153
3206.626	3202
3208.403	3309
3210.18	3210
3211.959	3216
3213.735	3136
3215.511	3128
3217.285	3183
3219.06	3152
3220.836	3192
3222.611	3271
3224.384	3219
3226.158	3167
3227.929	3246
3229.702	3170
3231.476	3194
3233.248	3197
3235.018	3175
3236.789	3230
3238.56	3225
3240.33	3209
3242.1	3206
3243.869	3194
3245.637	3159
3247.405	3203
3249.172	3207
3250.941	3216
3252.707	3183
3254.474	3215
3256.24	3226
3258.006	3168
3259.772	3291
3261.537	3257
3263.301	3204
3265.065	3212
3266.828	3294
3268.592	3222
3270.355	3203
3272.117	3200
3273.878	3228
3275.64	3237
3277.401	3229
3279.162	3221
3280.922	3207
3282.682	3200
3284.441	3244
3286.199	3268
3287.959	3212
3289.716	3224
3291.475	3238
3293.232	3314
3294.988	3275
3296.744	3205
3298.501	3230
3300.256	3236
3302.011	3279
3303.766	3254
3305.52	3193
3307.275	3220
3309.028	3249
3310.781	3233
3312.533	3261
3314.285	3301
3316.038	3192
3317.789	3205
3319.54	3279
3321.289	3247
3323.039	3329
3324.789	3277
3326.539	3163
3328.288	3217
3330.035	3288
3331.783	3151
3333.531	3199
3335.28	3207
3337.025	3268
3338.771	3230
3340.518	3239
3342.262	3261
3344.009	3209
3345.753	3158
3347.497	3177
3349.24	3196
3350.983	3263
3352.726	3177
3354.469	3153
3356.212	3146
3357.952	3144
3359.694	3260
3361.434	3245
3363.176	3116
3364.916	3157
3366.654	3120
3368.394	3195
3370.132	3182
3371.871	3098
3373.61	3182
3375.346	3130
3377.083	3190
3378.82	3167
3380.556	3113
3382.292	3206
3384.027	3176
3385.763	3181
3387.497	3187
3389.231	3227
3390.965	3062
3392.698	3133
3394.431	3181
3396.164	3111
3397.896	3036
3399.627	3094
3401.36	3158
3403.09	3062
3404.82	3151
3406.55	3101
3408.279	3046
3410.01	3064
3411.738	3122
3413.467	3193
3415.194	3117
3416.92	3122
3418.647	3069
3420.375	3044
3422.102	3028
3423.827	3061
3425.553	3121
3427.277	3084
3429.003	3073
3430.727	3071
3432.451	3033
3434.173	3055
3435.896	3081
3437.62	3133
3439.343	3114
3441.063	3005
3442.785	3091
3444.505	3029
3446.226	3041
3447.948	2997
3449.666	3044
3451.386	3061
3453.104	3039
3454.823	2971
3456.541	3022
3458.259	2982
3459.976	3018
3461.693	3002
3463.408	3046
3465.125	2884
3466.841	3004
3468.556	2965
3470.271	2967
3471.985	2925
3473.698	2876
3475.414	2963
3477.126	2946
3478.838	2929
3480.55	2963
3482.263	2914
3483.975	2968
3485.686	2932
3487.396	2946
3489.106	2929
3490.817	2880
3492.526	2938
3494.236	2901
3495.944	2955
3497.652	2937
3499.359	2915
3501.066	2863
3502.775	2913
3504.481	2848
3506.187	2911
3507.893	2850
3509.598	2839
3511.304	2931
3513.009	2850
3514.713	2943
3516.417	2808
3518.12	2793
3519.821	2883
3521.525	2834
3523.228	2915
3524.929	2844
3526.631	2743
3528.33	2823
3530.032	2825
3531.733	2836
3533.433	2865
3535.131	2849
3536.83	2804
3538.529	2816
3540.227	2778
3541.925	2757
3543.623	2801
3545.319	2804
3547.016	2829
3548.712	2792
3550.408	2775
3552.103	2779
3553.798	2782
3555.491	2769
3557.188	2773
3558.88	2736
3560.574	2741
3562.266	2743
3563.959	2710
3565.651	2730
3567.343	2710
3569.035	2762
3570.725	2754
3572.415	2763
3574.106	2734
3575.797	2711
3577.485	2708
3579.174	2797
3580.863	2738
3582.551	2728
3584.238	2775
3585.926	2766
3587.613	2720
3589.3	2750
3590.986	2719
3592.671	2717
3594.357	2658
3596.042	2725
3597.726	2707
3599.41	2654
3601.094	2671
3602.778	2632
3604.461	2622
3606.143	2632
3607.825	2623
3609.507	2627
3611.188	2551
3612.87	2578
3614.551	2669
3616.229	2589
3617.909	2654
3619.589	2604
3621.269	2653
3622.948	2596
3624.625	2615
3626.302	2557
3627.98	2549
3629.657	2598
3631.334	2588
3633.01	2562
3634.686	2574
3636.361	2524
3638.036	2523
3639.712	2572
3641.385	2495
3643.06	2506
3644.732	2503
3646.405	2531
3648.08	2557
3649.751	2596
3651.424	2535
3653.094	2514
3654.766	2524
3656.436	2528
3658.106	2498
3659.777	2502
3661.446	2573
3663.115	2469
3664.783	2520
3666.452	2525
3668.121	2521
3669.788	2487
3671.454	2525
3673.121	2432
3674.789	2464
3676.455	2499
3678.12	2495
3679.784	2476
3681.45	2492
3683.114	2484
3684.779	2510
3686.442	2477
3688.105	2507
3689.768	2492
3691.43	2493
3693.093	2420
3694.754	2362
3696.415	2454
3698.076	2453
3699.736	2457
3701.396	2425
3703.057	2499
3704.716	2465
3706.375	2454
3708.034	2488
3709.692	2401
3711.351	2413
3713.008	2431
3714.665	2389
3716.321	2477
3717.977	2372
3719.634	2385
3721.29	2450
3722.945	2427
3724.598	2514
3726.253	2490
3727.907	2453
3729.561	2369
3731.214	2440
3732.867	2392
3734.518	2428
3736.171	2417
3737.824	2403
3739.474	2343
3741.125	2380
3742.775	2418
3744.425	2351
3746.074	2403
3747.725	2418
3749.373	2431
3751.022	2414
3752.669	2422
3754.318	2359
3755.966	2407
3757.612	2326
3759.259	2447
3760.905	2411
3762.55	2417
3764.197	2417
3765.842	2357
3767.486	2368
3769.131	2375
3770.774	2372
3772.417	2390
3774.061	2416
3775.705	2343
3777.347	2406
3778.988	2382
3780.629	2385
3782.271	2354
3783.912	2422
3785.552	2320
3787.192	2321
3788.831	2377
3790.472	2350
3792.112	2314
3793.75	2371
3795.388	2319
3797.024	2349
3798.661	2361
3800.3	2301
3801.936	2342
3803.572	2356
3805.208	2310
3806.844	2318
3808.48	2340
3810.115	2351
3811.748	2286
3813.382	2317
3815.016	2302
3816.649	2319
3818.283	2281
3819.914	2299
3821.547	2313
3823.178	2261
3824.809	2260
3826.441	2376
3828.072	2324
3829.701	2259
3831.331	2286
3832.96	2315
3834.591	2307
3836.219	2266
3837.847	2297
3839.475	2248
3841.102	2269
3842.729	2270
3844.357	2340
3845.984	2250
3847.609	2328
3849.234	2280
3850.86	2237
3852.485	2327
3854.11	2271
3855.734	2291
3857.357	2261
3858.981	2273
3860.603	2280
3862.227	2269
3863.848	2331
3865.471	2240
3867.092	2280
3868.713	2279
3870.334	2247
3871.954	2273
3873.575	2285
3875.194	2305
3876.813	2189
3878.433	2190
3880.051	2206
3881.669	2241
3883.286	2284
3884.904	2141
3886.52	2210
3888.138	2251
3889.754	2260
3891.37	2234
3892.985	2246
3894.6	2245
3896.216	2217
3897.831	2215
3899.444	2318
3901.058	2179
3902.67	2240
3904.283	2257
3905.897	2231
3907.509	2163
3909.121	2220
3910.731	2232
3912.342	2179
3913.954	2213
3915.563	2187
3917.174	2204
3918.783	2289
3920.391	2211
3922.002	2249
3923.611	2200
3925.218	2217
3926.826	2212
3928.432	2190
3930.039	2198
3931.647	2192
3933.253	2220
3934.859	2198
3936.464	2229
3938.068	2174
3939.675	2238
3941.278	2172
3942.883	2168
3944.486	2135
3946.089	2179
3947.692	2216
3949.295	2166
3950.898	2166
3952.499	2167
3954.1	2167
3955.7	2199
3957.303	2117
3958.903	2132
3960.502	2147
3962.101	2203
3963.7	2167
3965.301	2207
3966.899	2152
3968.497	2188
3970.094	2139
3971.691	2155
3973.288	2113
3974.885	2142
3976.481	2116
3978.077	2219
3979.672	2158
3981.267	2204
3982.863	2125
3984.457	2152
3986.051	2104
3987.645	2117
3989.238	2090
3990.831	2142
3992.425	2135
3994.017	2114
3995.607	2118
3997.199	2098
3998.79	2055
4000.382	2145
4001.973	2109
4003.561	2130
4005.151	2038
4006.741	2089
4008.331	2106
4009.918	2112
4011.507	2093
4013.095	2123
4014.681	2161
4016.269	2056
4017.856	2070
4019.443	2073
4021.028	2074
4022.614	2067
4024.199	2043
4025.785	2126
4027.37	2105
4028.953	2084
4030.536	2102
4032.12	2106
4033.704	2068
4035.287	2033
4036.869	2087
4038.45	2093
4040.032	2125
4041.613	2031
4043.195	2107
4044.776	2068
4046.356	2043
4047.935	2059
4049.515	2071
4051.095	2071
4052.674	2019
4054.251	2069
4055.829	2042
4057.406	2012
4058.985	2055
4060.562	2022
4062.139	2027
4063.715	2071
4065.29	2031
4066.865	2035
4068.442	2024
4070.016	2042
4071.59	2021
4073.164	2008
4074.738	2024
4076.312	2055
4077.885	2010
4079.458	2032
4081.03	2050
4082.602	2086
4084.173	2009
4085.745	1987
4087.315	2040
4088.886	1954
4090.456	1963
4092.026	2031
4093.596	2014
4095.165	2045
4096.734	1991
4098.301	2051
4099.869	1933
4101.437	1959
4103.006	1949
4104.572	1977
4106.139	2032
4107.704	2001
4109.27	1952
4110.837	1992
4112.401	1975
4113.966	2003
4115.53	1980
4117.094	1945
4118.659	1983
4120.223	1977
4121.785	1980
4123.347	1936
4124.909	1933
4126.471	1968
4128.034	1952
4129.595	1913
4131.155	1952
4132.716	1920
4134.275	1945
4135.836	1945
4137.395	1938
4138.955	1986
4140.513	1966
4142.071	1956
4143.628	1905
4145.188	1945
4146.745	1861
4148.302	1928
4149.858	1963
4151.414	1865
4152.971	1887
4154.526	1904
4156.081	1977
4157.635	1913
4159.189	1917
4160.745	1884
4162.298	1873
4163.852	1926
4165.405	1901
4166.957	1927
4168.51	1878
4170.063	1921
4171.614	1868
4173.166	1912
4174.717	1858
4176.267	1867
4177.817	1881
4179.368	1916
4180.917	1964
4182.466	1948
4184.016	1899
4185.564	1858
4187.112	1851
4188.66	1910
4190.207	1836
4191.754	1854
4193.301	1879
4194.848	1921
4196.394	1884
4197.94	1860
4199.484	1863
4201.03	1874
4202.575	1927
4204.12	1862
4205.663	1837
4207.207	1810
4208.75	1873
4210.292	1809
4211.836	1890
4213.378	1861
4214.92	1858
4216.46	1886
4218.002	1795
4219.544	1883
4221.083	1829
4222.625	1888
4224.164	1849
4225.703	1846
4227.244	1873
4228.782	1842
4230.32	1860
4231.857	1837
4233.395	1835
4234.933	1825
4236.471	1821
4238.007	1856
4239.542	1829
4241.078	1822
4242.614	1833
4244.15	1813
4245.685	1836
4247.219	1851
4248.753	1865
4250.287	1824
4251.82	1844
4253.354	1859
4254.887	1772
4256.419	1830
4257.951	1820
4259.483	1816
4261.016	1868
4262.547	1757
4264.078	1828
4265.608	1835
4267.137	1795
4268.668	1796
4270.197	1829
4271.727	1837
4273.254	1807
4274.783	1832
4276.311	1767
4277.84	1800
4279.366	1794
4280.894	1796
4282.42	1781
4283.946	1761
4285.473	1772
4286.998	1794
4288.523	1814
4290.047	1819
4291.572	1794
4293.096	1796
4294.622	1749
4296.144	1771
4297.668	1720
4299.19	1786
4300.713	1770
4302.236	1725
4303.758	1750
4305.279	1786
4306.799	1766
4308.321	1790
4309.842	1850
4311.361	1761
4312.882	1758
4314.401	1748
