400.0961	2480
402.6185	2446
405.1424	2468
407.6635	2482
410.1838	2491
412.7035	2527
415.2225	2513
417.7388	2539
420.2585	2639
422.7754	2611
425.2917	2644
427.8072	2669
430.3221	2700
432.8363	2776
435.3498	2650
437.8626	2670
440.3727	2698
442.8841	2649
445.3969	2699
447.907	2738
450.4142	2544
452.9229	2736
455.4289	2669
457.9362	2667
460.4449	2615
462.9488	2633
465.454	2601
467.9566	2524
470.4604	2577
472.9637	2623
475.4662	2623
477.966	2511
480.4671	2537
482.9656	2550
485.4633	2626
487.9645	2624
490.4608	2607
492.9566	2585
495.4536	2643
497.948	2582
500.4437	2616
502.9387	2618
505.431	2592
507.9226	2574
510.4136	2722
512.9079	2637
515.3975	2576
517.8864	2619
520.3746	2619
522.8622	2609
525.3491	2637
527.8394	2638
530.3249	2615
532.8098	2637
535.2939	2678
537.7774	2588
540.2623	2652
542.7444	2686
545.2259	2628
547.7067	2646
550.1868	2654
552.6683	2648
555.147	2684
557.6231	2618
560.1005	2737
562.5773	2718
565.0534	2733
567.5308	2756
570.0056	2741
572.4776	2713
574.951	2750
577.4237	2760
579.8978	2863
582.3671	2811
584.8378	2858
587.3079	2825
589.7773	2834
592.244	2778
594.714	2800
597.1793	2777
599.6461	2830
602.1121	2793
604.5754	2788
607.0421	2829
609.5042	2690
611.9675	2762
614.4282	2789
616.8902	2766
619.3515	2723
621.8122	2719
624.2702	2675
626.7296	2756
629.1863	2654
631.6423	2762
634.1017	2720
636.5563	2688
639.0104	2745
641.4658	2675
643.9185	2689
646.3725	2666
648.8239	2666
651.2766	2775
653.7266	2714
656.176	2726
658.6247	2758
661.0748	2702
663.5242	2788
665.9709	2753
668.417	2786
670.8624	2721
673.3092	2726
675.7533	2793
678.1968	2758
680.6395	2792
683.0817	2769
685.5251	2718
687.9659	2751
690.4061	2792
692.8456	2765
695.2844	2797
697.7226	2785
700.1621	2774
702.599	2810
705.0332	2864
707.4688	2853
709.9036	2846
712.3399	2828
714.7735	2809
717.2044	2820
719.6367	2796
722.0683	2836
724.4993	2851
726.9296	2901
729.3593	2864
731.7883	2893
734.2147	2882
736.6423	2910
739.0714	2902
741.4958	2931
743.9216	2938
746.3447	2909
748.7691	2926
751.1929	2946
753.616	2952
756.0366	2929
758.4584	2896
760.8776	2896
763.2982	2931
765.718	2879
768.1373	2989
770.5539	3025
772.9698	2965
775.3871	2958
777.8038	2972
780.2178	2994
782.6332	2990
785.0459	3017
787.458	3032
789.8714	2928
792.2842	2929
794.6943	2957
797.1038	2915
799.5127	2969
801.9209	2958
804.3324	2936
806.7393	2956
809.1456	3039
811.5513	3009
813.9562	3085
816.3625	2929
818.7663	3019
821.1693	3035
823.5718	3038
825.9735	3051
828.3746	2998
830.7771	2970
833.177	2979
835.5762	3073
837.9747	3073
840.3727	3096
842.772	3039
845.1666	3085
847.5626	3090
849.958	3103
852.3527	3121
854.7488	3182
857.1403	3143
859.5331	3115
861.9253	3132
864.3168	3156
866.7057	3136
869.098	3079
871.4876	3151
873.8746	3075
876.263	3108
878.6487	3099
881.0378	3039
883.4243	3148
885.8081	3159
888.1933	3106
890.5759	3170
892.9598	3054
895.343	3071
897.7256	3112
900.1057	3085
902.4871	3123
904.8659	3107
907.246	3105
909.6254	3107
912.0023	3244
914.3786	3315
916.7562	3247
919.1331	3360
921.5074	3428
923.8831	3401
926.2562	3382
928.6287	3413
931.0005	3453
933.3757	3261
935.7462	3405
938.1162	3389
940.4855	3501
942.8542	3501
945.2242	3566
947.5916	3609
949.9584	3714
952.3266	3992
954.6921	4163
957.0571	4386
959.4233	4690
961.787	4659
964.15	4618
966.5125	4466
968.8742	4098
971.2354	3886
973.5959	3654
975.9559	3576
978.3151	3434
980.6738	3410
983.0338	3375
985.3912	3254
987.7461	3283
990.1022	3268
992.4578	3214
994.8127	3163
997.1689	3203
999.5207	3254
1001.874	3358
1004.226	3303
1006.576	3285
1008.929	3342
1011.28	3366
1013.628	3163
1015.977	3256
1018.324	3202
1020.674	3285
1023.019	3310
1025.366	3316
1027.713	3316
1030.056	3267
1032.399	3273
1034.746	3368
1037.087	3362
1039.431	3281
1041.771	3345
1044.113	3351
1046.454	3265
1048.793	3383
1051.133	3369
1053.471	3337
1055.807	3279
1058.146	3362
1060.483	3324
1062.818	3358
1065.153	3349
1067.489	3390
1069.822	3510
1072.156	3459
1074.488	3488
1076.82	3488
1079.15	3415
1081.48	3422
1083.814	3462
1086.143	3380
1088.471	3300
1090.799	3286
1093.126	3259
1095.452	3331
1097.78	3311
1100.105	3266
1102.43	3365
1104.754	3342
1107.077	3304
1109.4	3233
1111.722	3347
1114.044	3313
1116.365	3332
1118.685	3306
1121.005	3327
1123.324	3294
1125.643	3295
1127.961	3343
1130.278	3363
1132.595	3265
1134.911	3305
1137.226	3271
1139.541	3226
1141.854	3261
1144.167	3320
1146.482	3294
1148.793	3320
1151.105	3261
1153.414	3318
1155.725	3239
1158.033	3361
1160.344	3313
1162.651	3255
1164.959	3351
1167.265	3262
1169.572	3286
1171.878	3281
1174.184	3298
1176.488	3372
1178.79	3359
1181.094	3433
1183.396	3351
1185.699	3273
1188.001	3400
1190.301	3277
1192.6	3322
1194.9	3315
1197.2	3328
1199.497	3299
1201.794	3298
1204.09	3322
1206.387	3327
1208.684	3268
1210.978	3296
1213.272	3336
1215.565	3357
1217.858	3327
1220.15	3350
1222.443	3270
1224.734	3321
1227.024	3401
1229.313	3342
1231.602	3399
1233.892	3382
1236.18	3468
1238.467	3439
1240.754	3378
1243.04	3406
1245.325	3536
1247.612	3456
1249.896	3500
1252.178	3576
1254.461	3566
1256.743	3465
1259.027	3498
1261.308	3461
1263.587	3511
1265.867	3471
1268.146	3466
1270.425	3602
1272.703	3587
1274.981	3515
1277.256	3521
1279.532	3487
1281.808	3557
1284.083	3426
1286.358	3546
1288.63	3525
1290.904	3379
1293.175	3432
1295.449	3500
1297.719	3409
1299.99	3347
1302.259	3412
1304.529	3429
1306.798	3441
1309.065	3519
1311.333	3411
1313.599	3432
1315.866	3419
1318.131	3455
1320.396	3463
1322.66	3422
1324.925	3460
1327.187	3456
1329.448	3425
1331.711	3463
1333.974	3451
1336.234	3440
1338.493	3456
1340.752	3510
1343.01	3479
1345.269	3486
1347.526	3484
1349.784	3415
1352.04	3421
1354.295	3364
1356.552	3361
1358.806	3368
1361.059	3406
1363.312	3477
1365.564	3334
1367.818	3436
1370.069	3454
1372.318	3413
1374.568	3455
1376.817	3383
1379.066	3564
1381.316	3380
1383.564	3520
1385.809	3519
1388.056	3487
1390.301	3552
1392.549	3513
1394.793	3673
1397.036	3559
1399.279	3599
1401.522	3719
1403.763	3680
1406.007	3616
1408.248	3620
1410.487	3648
1412.727	3641
1414.965	3616
1417.205	3664
1419.442	3672
1421.68	3628
1423.915	3609
1426.152	3593
1428.388	3540
1430.623	3659
1432.857	3638
1435.091	3636
1437.323	3666
1439.556	3691
1441.789	3686
1444.019	3557
1446.25	3605
1448.48	3754
1450.708	3733
1452.938	3718
1455.167	3702
1457.394	3765
1459.62	3669
1461.846	3709
1464.073	3736
1466.299	3640
1468.523	3540
1470.746	3604
1472.969	3641
1475.191	3536
1477.415	3538
1479.636	3455
1481.858	3426
1484.078	3424
1486.298	3425
1488.518	3449
1490.736	3434
1492.954	3394
1495.169	3400
1497.386	3478
1499.602	3480
1501.819	3375
1504.034	3459
1506.248	3364
1508.462	3415
1510.675	3384
1512.888	3348
1515.1	3415
1517.311	3431
1519.522	3393
1521.732	3361
1523.942	3404
1526.151	3351
1528.36	3384
1530.566	3404
1532.773	3418
1534.98	3416
1537.187	3404
1539.392	3480
1541.596	3387
1543.801	3394
1546.005	3470
1548.208	3472
1550.411	3510
1552.612	3469
1554.814	3493
1557.013	3373
1559.212	3547
1561.414	3510
1563.612	3520
1565.811	3459
1568.007	3493
1570.203	3580
1572.403	3508
1574.598	3535
1576.792	3452
1578.988	3548
1581.181	3623
1583.376	3589
1585.568	3524
1587.761	3454
1589.952	3426
1592.143	3545
1594.333	3524
1596.524	3508
1598.715	3472
1600.903	3559
1603.091	3579
1605.278	3604
1607.466	3587
1609.652	3587
1611.838	3593
1614.023	3509
1616.207	3590
1618.391	3630
1620.576	3650
1622.759	3598
1624.941	3528
1627.123	3510
1629.304	3632
1631.484	3640
1633.664	3591
1635.844	3655
1638.022	3686
1640.201	3628
1642.38	3691
1644.556	3665
1646.732	3712
1648.908	3620
1651.084	3695
1653.257	3688
1655.433	3735
1657.607	3681
1659.779	3699
1661.951	3701
1664.122	3676
1666.295	3769
1668.467	3720
1670.635	3721
1672.805	3788
1674.973	3675
1677.142	3721
1679.31	3663
1681.478	3724
1683.644	3685
1685.81	3681
1687.975	3685
1690.142	3723
1692.305	3659
1694.468	3596
1696.632	3636
1698.794	3642
1700.957	3592
1703.119	3555
1705.279	3539
1707.439	3578
1709.598	3627
1711.758	3573
1713.917	3527
1716.075	3597
1718.231	3489
1720.388	3477
1722.543	3609
1724.702	3548
1726.856	3548
1729.01	3519
1731.164	3476
1733.317	3629
1735.471	3598
1737.623	3516
1739.774	3525
1741.925	3516
1744.075	3543
1746.225	3468
1748.376	3532
1750.524	3540
1752.672	3506
1754.82	3608
1756.965	3552
1759.113	3577
1761.259	3536
1763.405	3581
1765.549	3543
1767.694	3508
1769.836	3568
1771.981	3492
1774.123	3628
1776.264	3519
1778.405	3518
1780.546	3593
1782.687	3616
1784.827	3519
1786.966	3622
1789.103	3596
1791.242	3625
1793.381	3599
1795.517	3566
1797.653	3661
1799.788	3563
1801.923	3530
1804.057	3625
1806.193	3536
1808.326	3525
1810.457	3608
1812.59	3558
1814.721	3667
1816.855	3547
1818.984	3567
1821.113	3573
1823.244	3590
1825.372	3530
1827.499	3574
1829.63	3565
1831.756	3507
1833.882	3537
1836.007	3577
1838.132	3568
1840.26	3495
1842.384	3587
1844.507	3546
1846.63	3490
1848.752	3602
1850.875	3547
1852.996	3567
1855.118	3483
1857.238	3635
1859.358	3546
1861.477	3514
1863.597	3515
1865.715	3592
1867.832	3571
1869.948	3537
1872.064	3501
1874.181	3627
1876.297	3576
1878.411	3535
1880.526	3600
1882.639	3529
1884.752	3568
1886.865	3566
1888.977	3599
1891.089	3538
1893.2	3594
1895.308	3617
1897.42	3594
1899.53	3592
1901.639	3501
1903.745	3512
1905.853	3641
1907.962	3572
1910.067	3518
1912.174	3595
1914.278	3560
1916.383	3643
1918.486	3531
1920.592	3520
1922.694	3623
1924.797	3591
1926.898	3564
1929	3697
1931.102	3629
1933.203	3614
1935.301	3678
1937.401	3574
1939.499	3621
1941.598	3686
1943.697	3722
1945.793	3595
1947.888	3620
1949.985	3591
1952.08	3631
1954.176	3600
1956.269	3691
1958.364	3603
1960.457	3606
1962.549	3649
1964.642	3580
1966.733	3631
1968.823	3657
1970.913	3571
1973.005	3611
1975.093	3655
1977.184	3604
1979.271	3587
1981.359	3645
1983.446	3659
1985.532	3567
1987.619	3579
1989.705	3614
1991.789	3649
1993.874	3623
1995.956	3651
1998.041	3640
2000.123	3571
2002.206	3599
2004.287	3567
2006.368	3570
2008.449	3503
2010.529	3607
2012.609	3621
2014.688	3617
2016.766	3501
2018.843	3629
2020.922	3621
2022.999	3679
2025.074	3528
2027.15	3630
2029.225	3565
2031.299	3613
2033.375	3670
2035.447	3597
2037.52	3560
2039.592	3616
2041.664	3584
2043.736	3595
2045.807	3569
2047.876	3620
2049.947	3532
2052.015	3646
2054.086	3680
2056.153	3568
2058.221	3610
2060.288	3599
2062.353	3586
2064.42	3614
2066.486	3603
2068.55	3540
2070.614	3703
2072.678	3612
2074.741	3582
2076.805	3651
2078.866	3621
2080.929	3513
2082.99	3553
2085.049	3637
2087.109	3641
2089.17	3654
2091.228	3584
2093.286	3566
2095.344	3586
2097.4	3658
2099.46	3586
2101.516	3663
2103.572	3709
2105.626	3668
2107.679	3669
2109.735	3542
2111.788	3615
2113.841	3667
2115.894	3592
2117.945	3673
2119.997	3651
2122.049	3626
2124.1	3587
2126.148	3541
2128.197	3593
2130.246	3615
2132.296	3578
2134.342	3600
2136.39	3654
2138.437	3609
2140.483	3610
2142.527	3574
2144.574	3545
2146.619	3617
2148.661	3684
2150.705	3589
2152.747	3586
2154.792	3585
2156.832	3616
2158.874	3583
2160.915	3610
2162.954	3554
2164.995	3601
2167.034	3531
2169.072	3558
2171.111	3623
2173.148	3617
2175.186	3641
2177.223	3641
2179.258	3566
2181.294	3590
2183.328	3583
2185.362	3583
2187.398	3559
2189.431	3552
2191.463	3537
2193.495	3583
2195.528	3558
2197.56	3619
2199.59	3590
2201.62	3573
2203.649	3652
2205.678	3574
2207.708	3561
2209.737	3598
2211.764	3578
2213.791	3561
2215.817	3596
2217.843	3495
2219.87	3539
2221.895	3514
2223.919	3561
2225.942	3461
2227.966	3550
2229.988	3497
2232.012	3489
2234.032	3566
2236.054	3560
2238.074	3534
2240.095	3569
2242.116	3461
2244.135	3607
2246.153	3522
2248.171	3449
2250.188	3582
2252.208	3495
2254.223	3488
2256.239	3542
2258.255	3564
2260.269	3501
2262.283	3586
2264.3	3517
2266.312	3578
2268.325	3499
2270.336	3536
2272.349	3551
2274.362	3572
2276.372	3547
2278.383	3585
2280.392	3477
2282.402	3620
2284.409	3564
2286.418	3579
2288.427	3613
2290.433	3448
2292.441	3588
2294.446	3511
2296.453	3565
2298.459	3457
2300.463	3541
2302.466	3550
2304.471	3546
2306.475	3552
2308.477	3603
2310.478	3436
2312.481	3485
2314.481	3553
2316.481	3583
2318.482	3571
2320.482	3542
2322.48	3500
2324.48	3585
2326.478	3530
2328.476	3497
2330.473	3586
2332.469	3527
2334.465	3535
2336.46	3536
2338.454	3498
2340.45	3529
2342.444	3497
2344.437	3468
2346.43	3606
2348.421	3465
2350.414	3519
2352.405	3585
2354.396	3579
2356.386	3450
2358.376	3539
2360.366	3566
2362.355	3508
2364.343	3561
2366.331	3550
2368.317	3492
2370.304	3460
2372.292	3546
2374.278	3548
2376.262	3497
2378.247	3440
2380.23	3514
2382.216	3496
2384.199	3462
2386.181	3510
2388.163	3413
2390.144	3458
2392.127	3435
2394.107	3511
2396.087	3505
2398.066	3474
2400.046	3502
2402.023	3475
2404.004	3418
2405.981	3415
2407.957	3470
2409.934	3472
2411.91	3424
2413.886	3480
2415.862	3397
2417.836	3535
2419.809	3451
2421.784	3470
2423.756	3481
2425.73	3386
2427.701	3487
2429.672	3442
2431.644	3437
2433.615	3463
2435.586	3481
2437.555	3509
2439.523	3498
2441.491	3414
2443.459	3479
2445.428	3444
2447.395	3468
2449.361	3500
2451.327	3430
2453.292	3426
2455.257	3376
2457.223	3401
2459.187	3548
2461.15	3480
2463.113	3415
2465.076	3563
2467.039	3433
2468.999	3470
2470.96	3445
2472.921	3371
2474.881	3452
2476.841	3511
2478.8	3418
2480.759	3434
2482.717	3367
2484.675	3463
2486.63	3389
2488.589	3453
2490.545	3449
2492.5	3395
2494.455	3460
2496.408	3430
2498.364	3419
2500.318	3478
2502.27	3374
2504.223	3438
2506.174	3437
2508.126	3470
2510.078	3443
2512.03	3394
2513.979	3354
2515.927	3354
2517.877	3395
2519.826	3380
2521.775	3442
2523.722	3418
2525.668	3387
2527.616	3457
2529.561	3373
2531.508	3367
2533.452	3471
2535.398	3347
2537.342	3438
2539.284	3459
2541.229	3500
2543.173	3432
2545.114	3394
2547.055	3456
2548.996	3405
2550.938	3426
2552.878	3392
2554.817	3442
2556.756	3432
2558.695	3420
2560.633	3408
2562.572	3416
2564.509	3385
2566.445	3461
2568.382	3417
2570.317	3433
2572.254	3445
2574.189	3435
2576.123	3466
2578.057	3325
2579.99	3352
2581.923	3457
2583.855	3493
2585.788	3406
2587.719	3505
2589.65	3394
2591.579	3438
2593.511	3404
2595.44	3449
2597.37	3420
2599.297	3453
2601.225	3400
2603.153	3356
2605.08	3497
2607.007	3434
2608.932	3416
2610.858	3417
2612.782	3434
2614.709	3417
2616.632	3442
2618.556	3475
2620.478	3470
2622.401	3420
2624.324	3451
2626.247	3403
2628.167	3468
2630.088	3461
2632.008	3489
2633.928	3503
2635.848	3515
2637.766	3513
2639.684	3507
2641.603	3432
2643.519	3438
2645.437	3425
2647.353	3494
2649.27	3417
2651.184	3503
2653.099	3442
2655.014	3443
2656.928	3494
2658.842	3489
2660.755	3368
2662.667	3441
2664.579	3486
2666.491	3411
2668.402	3432
2670.312	3503
2672.222	3419
2674.132	3445
2676.042	3405
2677.951	3446
2679.859	3477
2681.766	3546
2683.674	3455
2685.582	3417
2687.488	3466
2689.392	3359
2691.298	3379
2693.202	3440
2695.107	3387
2697.012	3373
2698.914	3384
2700.817	3385
2702.72	3431
2704.622	3460
2706.524	3389
2708.425	3382
2710.326	3397
2712.225	3498
2714.125	3373
2716.024	3448
2717.923	3440
2719.822	3398
2721.719	3428
2723.616	3422
2725.512	3440
2727.41	3424
2729.305	3368
2731.201	3480
2733.095	3411
2734.99	3438
2736.884	3360
2738.778	3364
2740.67	3408
2742.562	3420
2744.455	3512
2746.346	3399
2748.238	3365
2750.129	3492
2752.018	3454
2753.907	3395
2755.797	3406
2757.687	3388
2759.575	3381
2761.462	3375
2763.349	3365
2765.237	3416
2767.124	3391
2769.009	3456
2770.894	3429
2772.779	3388
2774.663	3409
2776.547	3372
2778.431	3349
2780.314	3370
2782.197	3389
2784.078	3343
2785.96	3309
2787.842	3371
2789.723	3348
2791.603	3393
2793.483	3382
2795.362	3352
2797.241	3418
2799.121	3393
2800.997	3390
2802.874	3415
2804.751	3348
2806.628	3398
2808.506	3391
2810.38	3471
2812.255	3357
2814.13	3376
2816.003	3446
2817.878	3377
2819.752	3417
2821.623	3399
2823.496	3405
2825.368	3395
2827.238	3450
2829.111	3441
2830.98	3335
2832.851	3362
2834.719	3496
2836.589	3460
2838.458	3437
2840.327	3444
2842.193	3435
2844.061	3413
2845.927	3452
2847.794	3436
2849.66	3476
2851.525	3500
2853.39	3443
2855.254	3480
2857.117	3429
2858.983	3596
2860.845	3525
2862.707	3601
2864.569	3599
2866.431	3658
2868.293	3572
2870.154	3703
2872.013	3789
2873.873	3757
2875.733	3807
2877.592	3819
2879.451	3826
2881.309	3913
2883.166	3990
2885.022	4014
2886.879	3941
2888.736	3951
2890.591	4002
2892.446	4102
2894.301	4080
2896.155	4032
2898.009	4000
2899.863	4077
2901.716	4068
2903.568	3965
2905.419	4064
2907.27	4040
2909.123	4005
2910.973	4091
2912.824	4109
2914.673	4138
2916.521	4160
2918.372	4228
2920.22	4190
2922.067	4325
2923.914	4355
2925.761	4432
2927.607	4353
2929.455	4416
2931.301	4513
2933.144	4487
2934.99	4482
2936.833	4597
2938.678	4636
2940.522	4688
2942.364	4735
2944.207	4937
2946.048	4976
2947.891	5040
2949.731	5032
2951.571	4845
2953.412	4956
2955.25	4842
2957.09	4841
2958.93	4705
2960.767	4752
2962.606	4695
2964.443	4571
2966.279	4587
2968.116	4554
2969.953	4416
2971.788	4371
2973.623	4265
2975.457	4329
2977.292	4283
2979.127	4189
2980.959	4164
2982.792	4088
2984.624	4190
2986.455	4126
2988.288	4086
2990.119	4067
2991.949	4039
2993.779	4039
2995.608	3895
2997.439	3965
2999.268	3935
3001.096	3854
3002.923	3831
3004.751	3784
3006.578	3707
3008.406	3687
3010.232	3636
3012.057	3706
3013.883	3571
3015.706	3548
3017.532	3545
3019.356	3409
3021.179	3430
3023.002	3497
3024.823	3344
3026.646	3460
3028.469	3427
3030.289	3471
3032.11	3442
3033.93	3480
3035.749	3438
3037.57	3382
3039.39	3416
3041.207	3386
3043.026	3363
3044.842	3392
3046.661	3293
3048.477	3371
3050.294	3396
3052.109	3367
3053.925	3324
3055.739	3311
3057.555	3356
3059.368	3381
3061.181	3385
3062.995	3284
3064.807	3359
3066.62	3359
3068.433	3353
3070.243	3324
3072.054	3315
3073.865	3331
3075.675	3341
3077.485	3329
3079.293	3296
3081.102	3294
3082.911	3287
3084.719	3253
3086.527	3318
3088.333	3261
3090.139	3345
3091.945	3320
3093.75	3268
3095.557	3249
3097.361	3246
3099.165	3243
3100.969	3286
3102.772	3313
3104.575	3225
3106.379	3340
3108.181	3251
3109.982	3206
3111.783	3250
3113.584	3226
3115.386	3272
3117.186	3301
3118.985	3200
3120.783	3250
3122.582	3250
3124.381	3232
3126.179	3246
3127.975	3249
3129.772	3202
3131.569	3223
3133.365	3258
3135.161	3196
3136.956	3176
3138.751	3136
3140.544	3222
3142.338	3163
3144.132	3161
3145.925	3182
3147.717	3107
3149.509	3189
3151.301	3246
3153.091	3170
3154.884	3188
3156.673	3221
3158.462	3214
3160.252	3165
3162.041	3109
3163.831	3162
3165.618	3146
3167.405	3270
3169.193	3071
3170.979	3117
3172.767	3206
3174.553	3091
3176.338	3181
3178.123	3144
3179.907	3210
3181.692	3219
3183.477	3187
3185.259	3190
3187.042	3181
3188.824	3146
3190.607	3183
3192.389	3225
3194.17	3163
3195.951	3203
3197.73	3183
3199.51	3249
3201.289	3218
3203.07	3177
3204.848	3154
3206.626	3202
3208.403	3102
3210.18	3197
3211.959	3211
3213.735	3199
3215.511	3192
3217.285	3253
3219.06	3228
3220.836	3193
3222.611	3171
3224.384	3162
3226.158	3213
3227.929	3191
3229.702	3234
3231.476	3197
3233.248	3208
3235.018	3202
3236.789	3159
3238.56	3218
3240.33	3209
3242.1	3259
3243.869	3235
3245.637	3285
3247.405	3150
3249.172	3252
3250.941	3277
3252.707	3175
3254.474	3121
3256.24	3184
3258.006	3189
3259.772	3203
3261.537	3234
3263.301	3150
3265.065	3151
3266.828	3147
3268.592	3164
3270.355	3159
3272.117	3193
3273.878	3265
3275.64	3268
3277.401	3228
3279.162	3225
3280.922	3172
3282.682	3212
3284.441	3165
3286.199	3214
3287.959	3251
3289.716	3223
3291.475	3288
3293.232	3210
3294.988	3256
3296.744	3240
3298.501	3163
3300.256	3249
3302.011	3235
3303.766	3171
3305.52	3211
3307.275	3183
3309.028	3210
3310.781	3213
3312.533	3261
3314.285	3238
3316.038	3239
3317.789	3153
3319.54	3252
3321.289	3150
3323.039	3226
3324.789	3252
3326.539	3141
3328.288	3199
3330.035	3202
3331.783	3247
3333.531	3305
3335.28	3274
3337.025	3204
3338.771	3226
3340.518	3281
3342.262	3114
3344.009	3089
3345.753	3186
3347.497	3100
3349.24	3238
3350.983	3162
3352.726	3219
3354.469	3099
3356.212	3114
3357.952	3180
3359.694	3192
3361.434	3178
3363.176	3211
3364.916	3158
3366.654	3152
3368.394	3164
3370.132	3159
3371.871	3097
3373.61	3142
3375.346	3098
3377.083	3078
3378.82	3081
3380.556	3122
3382.292	3156
3384.027	3139
3385.763	3108
3387.497	3105
3389.231	3165
3390.965	3152
3392.698	3102
3394.431	3128
3396.164	3108
3397.896	3048
3399.627	3055
3401.36	3125
3403.09	3095
3404.82	3075
3406.55	3078
3408.279	3092
3410.01	3059
3411.738	3113
3413.467	3012
3415.194	3099
3416.92	3112
3418.647	3064
3420.375	3070
3422.102	3113
3423.827	3079
3425.553	3062
3427.277	3090
3429.003	3091
3430.727	3076
3432.451	3016
3434.173	3011
3435.896	3042
3437.62	3047
3439.343	3025
3441.063	3049
3442.785	2990
3444.505	2956
3446.226	2987
3447.948	3069
3449.666	3004
3451.386	3039
3453.104	2917
3454.823	2937
3456.541	2991
3458.259	2997
3459.976	2962
3461.693	2987
3463.408	2916
3465.125	2943
3466.841	2982
3468.556	3079
3470.271	2911
3471.985	2973
3473.698	2985
3475.414	2898
3477.126	2962
3478.838	2962
3480.55	2890
3482.263	2850
3483.975	2927
3485.686	2970
3487.396	2872
3489.106	2893
3490.817	2880
3492.526	2892
3494.236	2856
3495.944	2875
3497.652	2881
3499.359	2843
3501.066	2829
3502.775	2851
3504.481	2807
3506.187	2869
3507.893	2888
3509.598	2886
3511.304	2838
3513.009	2835
3514.713	2892
3516.417	2791
3518.12	2849
3519.821	2802
3521.525	2792
3523.228	2759
3524.929	2844
3526.631	2829
3528.33	2860
3530.032	2829
3531.733	2838
3533.433	2817
3535.131	2776
3536.83	2756
3538.529	2752
3540.227	2798
3541.925	2713
3543.623	2741
3545.319	2789
3547.016	2817
3548.712	2726
3550.408	2749
3552.103	2740
3553.798	2777
3555.491	2745
3557.188	2752
3558.88	2801
3560.574	2788
3562.266	2802
3563.959	2800
3565.651	2687
3567.343	2687
3569.035	2776
3570.725	2749
3572.415	2715
3574.106	2738
3575.797	2726
3577.485	2697
3579.174	2748
3580.863	2729
3582.551	2691
3584.238	2634
3585.926	2717
3587.613	2647
3589.3	2675
3590.986	2721
3592.671	2672
3594.357	2658
3596.042	2697
3597.726	2676
3599.41	2653
3601.094	2586
3602.778	2628
3604.461	2678
3606.143	2658
3607.825	2648
3609.507	2595
3611.188	2605
3612.87	2605
3614.551	2664
3616.229	2603
3617.909	2553
3619.589	2581
3621.269	2572
3622.948	2537
3624.625	2599
3626.302	2603
3627.98	2617
3629.657	2618
3631.334	2578
3633.01	2571
3634.686	2536
3636.361	2538
3638.036	2569
3639.712	2512
3641.385	2529
3643.06	2573
3644.732	2534
3646.405	2499
3648.08	2472
3649.751	2572
3651.424	2491
3653.094	2457
3654.766	2502
3656.436	2548
3658.106	2566
3659.777	2513
3661.446	2539
3663.115	2485
3664.783	2577
3666.452	2561
3668.121	2516
3669.788	2496
3671.454	2487
3673.121	2547
3674.789	2467
3676.455	2503
3678.12	2462
3679.784	2421
3681.45	2425
3683.114	2447
3684.779	2432
3686.442	2481
3688.105	2454
3689.768	2445
3691.43	2446
3693.093	2473
3694.754	2521
3696.415	2462
3698.076	2476
3699.736	2443
3701.396	2426
3703.057	2463
3704.716	2392
3706.375	2442
3708.034	2465
3709.692	2489
3711.351	2463
3713.008	2408
3714.665	2502
3716.321	2360
3717.977	2389
3719.634	2424
3721.29	2429
3722.945	2380
3724.598	2455
3726.253	2464
3727.907	2382
3729.561	2424
3731.214	2449
3732.867	2453
3734.518	2363
3736.171	2458
3737.824	2449
3739.474	2408
3741.125	2418
3742.775	2410
3744.425	2428
3746.074	2419
3747.725	2516
3749.373	2435
3751.022	2423
3752.669	2398
3754.318	2393
3755.966	2380
3757.612	2390
3759.259	2458
3760.905	2358
3762.55	2399
3764.197	2469
3765.842	2359
3767.486	2438
3769.131	2386
3770.774	2408
3772.417	2418
3774.061	2357
3775.705	2382
3777.347	2457
3778.988	2386
3780.629	2396
3782.271	2343
3783.912	2332
3785.552	2358
3787.192	2405
3788.831	2371
3790.472	2369
3792.112	2377
3793.75	2356
3795.388	2365
3797.024	2319
3798.661	2372
3800.3	2334
3801.936	2336
3803.572	2343
3805.208	2317
3806.844	2336
3808.48	2328
3810.115	2345
3811.748	2406
3813.382	2345
3815.016	2281
3816.649	2309
3818.283	2327
3819.914	2290
3821.547	2341
3823.178	2277
3824.809	2265
3826.441	2329
3828.072	2279
3829.701	2306
3831.331	2324
3832.96	2270
3834.591	2316
3836.219	2276
3837.847	2299
3839.475	2291
3841.102	2331
3842.729	2274
3844.357	2309
3845.984	2320
3847.609	2220
3849.234	2302
3850.86	2277
3852.485	2295
3854.11	2243
3855.734	2304
3857.357	2265
3858.981	2226
3860.603	2244
3862.227	2350
3863.848	2276
3865.471	2280
3867.092	2306
3868.713	2231
3870.334	2205
3871.954	2281
3873.575	2283
3875.194	2269
3876.813	2308
3878.433	2269
3880.051	2273
3881.669	2275
3883.286	2238
3884.904	2183
3886.52	2250
3888.138	2277
3889.754	2227
3891.37	2215
3892.985	2206
3894.6	2287
3896.216	2274
3897.831	2281
3899.444	2223
3901.058	2240
3902.67	2237
3904.283	2227
3905.897	2273
3907.509	2283
3909.121	2233
3910.731	2239
3912.342	2205
3913.954	2231
3915.563	2246
3917.174	2247
3918.783	2219
3920.391	2261
3922.002	2234
3923.611	2265
3925.218	2206
3926.826	2225
3928.432	2326
3930.039	2281
3931.647	2192
3933.253	2170
3934.859	2174
3936.464	2270
3938.068	2240
3939.675	2220
3941.278	2248
3942.883	2229
3944.486	2216
3946.089	2196
3947.692	2255
3949.295	2226
3950.898	2146
3952.499	2222
3954.1	2202
3955.7	2213
3957.303	2235
3958.903	2182
3960.502	2214
3962.101	2172
3963.7	2194
3965.301	2172
3966.899	2252
3968.497	2245
3970.094	2221
3971.691	2156
3973.288	2178
3974.885	2188
3976.481	2139
3978.077	2155
3979.672	2156
3981.267	2234
3982.863	2180
3984.457	2165
3986.051	2139
3987.645	2164
3989.238	2124
3990.831	2160
3992.425	2103
3994.017	2181
3995.607	2125
3997.199	2094
3998.79	2170
4000.382	2134
4001.973	2164
4003.561	2153
4005.151	2128
4006.741	2112
4008.331	2171
4009.918	2140
4011.507	2105
4013.095	2089
4014.681	2133
4016.269	2133
4017.856	2109
4019.443	2197
4021.028	2142
4022.614	2084
4024.199	2162
4025.785	2124
4027.37	2114
4028.953	2056
4030.536	2129
4032.12	2084
4033.704	2053
4035.287	2088
4036.869	2118
4038.45	2108
4040.032	2048
4041.613	2031
4043.195	2066
4044.776	2078
4046.356	2081
4047.935	2128
4049.515	2040
4051.095	2062
4052.674	2100
4054.251	2106
4055.829	2041
4057.406	2052
4058.985	2080
4060.562	2131
4062.139	2026
4063.715	2054
4065.29	2071
4066.865	2082
4068.442	2063
4070.016	2093
4071.59	2067
4073.164	2026
4074.738	2075
4076.312	2117
4077.885	2011
4079.458	2032
4081.03	2075
4082.602	2012
4084.173	2035
4085.745	2084
4087.315	2043
4088.886	2055
4090.456	2031
4092.026	2049
4093.596	2055
4095.165	2021
4096.734	2022
4098.301	2047
4099.869	2027
4101.437	2064
4103.006	2005
4104.572	1959
4106.139	2093
4107.704	2010
4109.27	2036
4110.837	2028
4112.401	1998
4113.966	2006
4115.53	1991
4117.094	1931
4118.659	1950
4120.223	2034
4121.785	2006
4123.347	2016
4124.909	1955
4126.471	2034
4128.034	1992
4129.595	2004
4131.155	2013
4132.716	1984
4134.275	2048
4135.836	1995
4137.395	1949
4138.955	2028
4140.513	1973
4142.071	2004
4143.628	2029
4145.188	1990
4146.745	1957
4148.302	1995
4149.858	2002
4151.414	2015
4152.971	1910
4154.526	1986
4156.081	1960
4157.635	1936
4159.189	1953
4160.745	2008
4162.298	1983
4163.852	1950
4165.405	2004
4166.957	1937
4168.51	1943
4170.063	1943
4171.614	1927
4173.166	1950
4174.717	1949
4176.267	1931
4177.817	1900
4179.368	1881
4180.917	1939
4182.466	1975
4184.016	1922
4185.564	1887
4187.112	1920
4188.66	1941
4190.207	1901
4191.754	1861
4193.301	1910
4194.848	1915
4196.394	1923
4197.94	1895
4199.484	1952
4201.03	1919
4202.575	1896
4204.12	1924
4205.663	1884
4207.207	1929
4208.75	1879
4210.292	1896
4211.836	1927
4213.378	1872
4214.92	1940
4216.46	1916
4218.002	1925
4219.544	1852
4221.083	1907
4222.625	1843
4224.164	1904
4225.703	1916
4227.244	1910
4228.782	1896
4230.32	1909
4231.857	1916
4233.395	1859
4234.933	1903
4236.471	1843
4238.007	1860
4239.542	1854
4241.078	1872
4242.614	1892
4244.15	1839
4245.685	1848
4247.219	1887
4248.753	1853
4250.287	1931
4251.82	1845
4253.354	1919
4254.887	1837
4256.419	1849
4257.951	1886
4259.483	1945
4261.016	1867
4262.547	1848
4264.078	1853
4265.608	1856
4267.137	1862
4268.668	1882
4270.197	1912
4271.727	1885
4273.254	1871
4274.783	1869
4276.311	1842
4277.84	1869
4279.366	1818
4280.894	1794
4282.42	1788
4283.946	1812
4285.473	1865
4286.998	1871
4288.523	1773
4290.047	1840
4291.572	1834
4293.096	1813
4294.622	1885
4296.144	1840
4297.668	1899
4299.19	1861
4300.713	1805
4302.236	1768
4303.758	1796
4305.279	1851
4306.799	1850
4308.321	1842
4309.842	1801
4311.361	1800
4312.882	1757
4314.401	1798
