400.0961	3658
402.6185	3745
405.1424	3703
407.6635	3670
410.1838	3726
412.7035	3698
415.2225	3763
417.7388	3792
420.2585	3782
422.7754	3877
425.2917	3780
427.8072	3903
430.3221	3866
432.8363	3882
435.3498	3953
437.8626	3905
440.3727	3888
442.8841	3863
445.3969	3912
447.907	3829
450.4142	3818
452.9229	3909
455.4289	3853
457.9362	3937
460.4449	3838
462.9488	3887
465.454	3888
467.9566	3883
470.4604	3806
472.9637	3886
475.4662	3943
477.966	3847
480.4671	3918
482.9656	3887
485.4633	3972
487.9645	3879
490.4608	3849
492.9566	3980
495.4536	3966
497.948	3933
500.4437	3885
502.9387	3919
505.431	4046
507.9226	3981
510.4136	4028
512.9079	3959
515.3975	4101
517.8864	4005
520.3746	4030
522.8622	4040
525.3491	4055
527.8394	3990
530.3249	4053
532.8098	4042
535.2939	4034
537.7774	4019
540.2623	4013
542.7444	4080
545.2259	4022
547.7067	4054
550.1868	4073
552.6683	4006
555.147	4022
557.6231	4077
560.1005	4073
562.5773	4070
565.0534	4035
567.5308	4135
570.0056	4180
572.4776	4214
574.951	4235
577.4237	4123
579.8978	4189
582.3671	4230
584.8378	4213
587.3079	4140
589.7773	4105
592.244	4328
594.714	4167
597.1793	4237
599.6461	4162
602.1121	4116
604.5754	4214
607.0421	4220
609.5042	4228
611.9675	4125
614.4282	4213
616.8902	4222
619.3515	4206
621.8122	4162
624.2702	4215
626.7296	4223
629.1863	4151
631.6423	4100
634.1017	4111
636.5563	4192
639.0104	4111
641.4658	4133
643.9185	4297
646.3725	4141
648.8239	4143
651.2766	4211
653.7266	4298
656.176	4132
658.6247	4247
661.0748	4198
663.5242	4233
665.9709	4213
668.417	4216
670.8624	4200
673.3092	4359
675.7533	4283
678.1968	4334
680.6395	4170
683.0817	4331
685.5251	4379
687.9659	4258
690.4061	4270
692.8456	4388
695.2844	4364
697.7226	4289
700.1621	4319
702.599	4358
705.0332	4368
707.4688	4406
709.9036	4436
712.3399	4373
714.7735	4411
717.2044	4483
719.6367	4419
722.0683	4379
724.4993	4444
726.9296	4434
729.3593	4484
731.7883	4445
734.2147	4546
736.6423	4457
739.0714	4488
741.4958	4592
743.9216	4543
746.3447	4530
748.7691	4504
751.1929	4451
753.616	4495
756.0366	4578
758.4584	4551
760.8776	4662
763.2982	4569
765.718	4513
768.1373	4602
770.5539	4589
772.9698	4702
775.3871	4605
777.8038	4559
780.2178	4647
782.6332	4540
785.0459	4628
787.458	4621
789.8714	4633
792.2842	4632
794.6943	4549
797.1038	4642
799.5127	4702
801.9209	4610
804.3324	4728
806.7393	4585
809.1456	4615
811.5513	4627
813.9562	4769
816.3625	4563
818.7663	4660
821.1693	4685
823.5718	4783
825.9735	4636
828.3746	4613
830.7771	4631
833.177	4727
835.5762	4588
837.9747	4720
840.3727	4670
842.772	4784
845.1666	4778
847.5626	4748
849.958	4792
852.3527	4703
854.7488	4804
857.1403	4937
859.5331	4829
861.9253	4771
864.3168	4746
866.7057	4744
869.098	4856
871.4876	4706
873.8746	4801
876.263	4793
878.6487	4854
881.0378	4780
883.4243	4735
885.8081	4761
888.1933	4802
890.5759	4776
892.9598	4726
895.343	4703
897.7256	4819
900.1057	4733
902.4871	4828
904.8659	4883
907.246	4786
909.6254	4876
912.0023	5017
914.3786	4905
916.7562	4938
919.1331	5106
921.5074	5170
923.8831	5133
926.2562	5057
928.6287	5122
931.0005	5008
933.3757	5077
935.7462	5105
938.1162	5016
940.4855	5095
942.8542	5171
945.2242	5128
947.5916	5189
949.9584	5243
952.3266	5413
954.6921	5585
957.0571	5740
959.4233	5666
961.787	5828
964.15	5881
966.5125	5689
968.8742	5465
971.2354	5382
973.5959	5269
975.9559	5176
978.3151	5052
980.6738	5082
983.0338	4969
985.3912	5019
987.7461	4935
990.1022	4985
992.4578	4959
994.8127	4922
997.1689	4919
999.5207	4965
1001.874	4924
1004.226	4946
1006.576	4921
1008.929	4960
1011.28	5036
1013.628	4902
1015.977	4958
1018.324	4920
1020.674	4914
1023.019	5030
1025.366	5021
1027.713	5060
1030.056	4938
1032.399	5112
1034.746	5149
1037.087	5024
1039.431	5030
1041.771	5027
1044.113	5046
1046.454	5069
1048.793	5026
1051.133	4970
1053.471	5034
1055.807	5081
1058.146	5112
1060.483	5127
1062.818	5150
1065.153	5090
1067.489	5218
1069.822	5036
1072.156	5160
1074.488	5122
1076.82	5143
1079.15	5121
1081.48	5087
1083.814	5070
1086.143	5102
1088.471	5061
1090.799	5037
1093.126	4976
1095.452	5075
1097.78	5025
1100.105	5097
1102.43	5073
1104.754	5048
1107.077	5043
1109.4	5026
1111.722	5091
1114.044	5074
1116.365	5054
1118.685	5069
1121.005	5044
1123.324	5143
1125.643	5221
1127.961	5116
1130.278	5151
1132.595	5072
1134.911	5060
1137.226	5168
1139.541	5049
1141.854	5074
1144.167	5128
1146.482	5134
1148.793	5103
1151.105	5118
1153.414	5107
1155.725	5059
1158.033	5089
1160.344	5098
1162.651	5056
1164.959	5049
1167.265	5098
1169.572	5136
1171.878	5226
1174.184	5151
1176.488	5198
1178.79	5213
1181.094	5203
1183.396	5135
1185.699	5108
1188.001	5157
1190.301	5009
1192.6	5053
1194.9	5086
1197.2	5143
1199.497	5098
1201.794	5198
1204.09	5054
1206.387	5070
1208.684	5235
1210.978	5082
1213.272	5180
1215.565	5053
1217.858	5126
1220.15	5148
1222.443	5038
1224.734	5148
1227.024	5254
1229.313	5214
1231.602	5220
1233.892	5349
1236.18	5289
1238.467	5249
1240.754	5338
1243.04	5432
1245.325	5300
1247.612	5326
1249.896	5400
1252.178	5356
1254.461	5304
1256.743	5336
1259.027	5302
1261.308	5315
1263.587	5451
1265.867	5224
1268.146	5365
1270.425	5307
1272.703	5296
1274.981	5331
1277.256	5436
1279.532	5338
1281.808	5329
1284.083	5345
1286.358	5284
1288.63	5276
1290.904	5306
1293.175	5313
1295.449	5378
1297.719	5268
1299.99	5264
1302.259	5282
1304.529	5200
1306.798	5331
1309.065	5282
1311.333	5274
1313.599	5286
1315.866	5368
1318.131	5343
1320.396	5260
1322.66	5248
1324.925	5262
1327.187	5297
1329.448	5315
1331.711	5346
1333.974	5269
1336.234	5208
1338.493	5450
1340.752	5222
1343.01	5357
1345.269	5368
1347.526	5286
1349.784	5304
1352.04	5331
1354.295	5328
1356.552	5330
1358.806	5299
1361.059	5179
1363.312	5294
1365.564	5284
1367.818	5316
1370.069	5275
1372.318	5300
1374.568	5343
1376.817	5212
1379.066	5399
1381.316	5247
1383.564	5343
1385.809	5389
1388.056	5418
1390.301	5386
1392.549	5518
1394.793	5579
1397.036	5496
1399.279	5501
1401.522	5551
1403.763	5648
1406.007	5448
1408.248	5523
1410.487	5637
1412.727	5605
1414.965	5509
1417.205	5385
1419.442	5576
1421.68	5449
1423.915	5553
1426.152	5543
1428.388	5490
1430.623	5479
1432.857	5437
1435.091	5429
1437.323	5559
1439.556	5496
1441.789	5629
1444.019	5481
1446.25	5626
1448.48	5608
1450.708	5609
1452.938	5675
1455.167	5536
1457.394	5738
1459.62	5686
1461.846	5552
1464.073	5617
1466.299	5558
1468.523	5477
1470.746	5534
1472.969	5475
1475.191	5448
1477.415	5520
1479.636	5432
1481.858	5483
1484.078	5345
1486.298	5318
1488.518	5318
1490.736	5377
1492.954	5351
1495.169	5291
1497.386	5369
1499.602	5336
1501.819	5239
1504.034	5240
1506.248	5220
1508.462	5200
1510.675	5276
1512.888	5258
1515.1	5157
1517.311	5274
1519.522	5238
1521.732	5381
1523.942	5250
1526.151	5300
1528.36	5290
1530.566	5317
1532.773	5252
1534.98	5299
1537.187	5290
1539.392	5255
1541.596	5215
1543.801	5328
1546.005	5385
1548.208	5257
1550.411	5316
1552.612	5332
1554.814	5342
1557.013	5249
1559.212	5334
1561.414	5401
1563.612	5396
1565.811	5345
1568.007	5348
1570.203	5447
1572.403	5393
1574.598	5413
1576.792	5309
1578.988	5425
1581.181	5404
1583.376	5480
1585.568	5480
1587.761	5464
1589.952	5506
1592.143	5480
1594.333	5439
1596.524	5496
1598.715	5418
1600.903	5482
1603.091	5526
1605.278	5520
1607.466	5468
1609.652	5545
1611.838	5479
1614.023	5520
1616.207	5482
1618.391	5512
1620.576	5474
1622.759	5326
1624.941	5473
1627.123	5458
1629.304	5527
1631.484	5509
1633.664	5532
1635.844	5549
1638.022	5649
1640.201	5460
1642.38	5625
1644.556	5547
1646.732	5560
1648.908	5617
1651.084	5660
1653.257	5523
1655.433	5607
1657.607	5577
1659.779	5631
1661.951	5607
1664.122	5636
1666.295	5614
1668.467	5577
1670.635	5621
1672.805	5714
1674.973	5669
1677.142	5651
1679.31	5571
1681.478	5617
1683.644	5545
1685.81	5642
1687.975	5579
1690.142	5567
1692.305	5487
1694.468	5596
1696.632	5519
1698.794	5550
1700.957	5380
1703.119	5569
1705.279	5432
1707.439	5492
1709.598	5475
1711.758	5470
1713.917	5425
1716.075	5438
1718.231	5391
1720.388	5491
1722.543	5420
1724.702	5409
1726.856	5582
1729.01	5529
1731.164	5361
1733.317	5472
1735.471	5372
1737.623	5471
1739.774	5438
1741.925	5420
1744.075	5415
1746.225	5419
1748.376	5419
1750.524	5454
1752.672	5475
1754.82	5459
1756.965	5521
1759.113	5406
1761.259	5563
1763.405	5459
1765.549	5435
1767.694	5514
1769.836	5436
1771.981	5456
1774.123	5531
1776.264	5481
1778.405	5479
1780.546	5539
1782.687	5486
1784.827	5513
1786.966	5589
1789.103	5485
1791.242	5596
1793.381	5583
1795.517	5593
1797.653	5489
1799.788	5553
1801.923	5489
1804.057	5346
1806.193	5428
1808.326	5556
1810.457	5483
1812.59	5420
1814.721	5615
1816.855	5473
1818.984	5503
1821.113	5469
1823.244	5445
1825.372	5457
1827.499	5573
1829.63	5498
1831.756	5546
1833.882	5512
1836.007	5429
1838.132	5560
1840.26	5401
1842.384	5449
1844.507	5383
1846.63	5490
1848.752	5482
1850.875	5465
1852.996	5424
1855.118	5373
1857.238	5500
1859.358	5399
1861.477	5413
1863.597	5510
1865.715	5454
1867.832	5466
1869.948	5508
1872.064	5552
1874.181	5463
1876.297	5486
1878.411	5465
1880.526	5560
1882.639	5461
1884.752	5402
1886.865	5484
1888.977	5512
1891.089	5484
1893.2	5410
1895.308	5469
1897.42	5559
1899.53	5506
1901.639	5514
1903.745	5410
1905.853	5595
1907.962	5388
1910.067	5561
1912.174	5510
1914.278	5468
1916.383	5468
1918.486	5476
1920.592	5601
1922.694	5533
1924.797	5520
1926.898	5456
1929	5608
1931.102	5441
1933.203	5433
1935.301	5535
1937.401	5531
1939.499	5605
1941.598	5458
1943.697	5585
1945.793	5474
1947.888	5506
1949.985	5518
1952.08	5490
1954.176	5536
1956.269	5458
1958.364	5528
1960.457	5589
1962.549	5597
1964.642	5605
1966.733	5616
1968.823	5577
1970.913	5492
1973.005	5517
1975.093	5512
1977.184	5570
1979.271	5531
1981.359	5542
1983.446	5569
1985.532	5421
1987.619	5531
1989.705	5530
1991.789	5437
1993.874	5508
1995.956	5535
1998.041	5488
2000.123	5450
2002.206	5516
2004.287	5499
2006.368	5528
2008.449	5598
2010.529	5601
2012.609	5515
2014.688	5386
2016.766	5504
2018.843	5469
2020.922	5451
2022.999	5462
2025.074	5396
2027.15	5492
2029.225	5508
2031.299	5431
2033.375	5540
2035.447	5529
2037.52	5448
2039.592	5446
2041.664	5516
2043.736	5532
2045.807	5434
2047.876	5459
2049.947	5419
2052.015	5490
2054.086	5479
2056.153	5432
2058.221	5597
2060.288	5493
2062.353	5414
2064.42	5490
2066.486	5378
2068.55	5427
2070.614	5585
2072.678	5468
2074.741	5470
2076.805	5444
2078.866	5392
2080.929	5429
2082.99	5409
2085.049	5436
2087.109	5514
2089.17	5527
2091.228	5581
2093.286	5428
2095.344	5520
2097.4	5403
2099.46	5535
2101.516	5490
2103.572	5490
2105.626	5540
2107.679	5522
2109.735	5452
2111.788	5498
2113.841	5548
2115.894	5548
2117.945	5565
2119.997	5436
2122.049	5491
2124.1	5481
2126.148	5471
2128.197	5383
2130.246	5496
2132.296	5500
2134.342	5511
2136.39	5462
2138.437	5526
2140.483	5549
2142.527	5505
2144.574	5511
2146.619	5554
2148.661	5448
2150.705	5473
2152.747	5416
2154.792	5462
2156.832	5442
2158.874	5493
2160.915	5430
2162.954	5416
2164.995	5462
2167.034	5412
2169.072	5351
2171.111	5450
2173.148	5420
2175.186	5455
2177.223	5362
2179.258	5366
2181.294	5464
2183.328	5402
2185.362	5443
2187.398	5344
2189.431	5366
2191.463	5406
2193.495	5454
2195.528	5444
2197.56	5395
2199.59	5356
2201.62	5305
2203.649	5380
2205.678	5430
2207.708	5392
2209.737	5335
2211.764	5397
2213.791	5460
2215.817	5452
2217.843	5408
2219.87	5414
2221.895	5362
2223.919	5343
2225.942	5315
2227.966	5309
2229.988	5364
2232.012	5333
2234.032	5362
2236.054	5393
2238.074	5374
2240.095	5340
2242.116	5344
2244.135	5244
2246.153	5375
2248.171	5301
2250.188	5286
2252.208	5315
2254.223	5394
2256.239	5372
2258.255	5427
2260.269	5254
2262.283	5354
2264.3	5199
2266.312	5290
2268.325	5324
2270.336	5320
2272.349	5224
2274.362	5322
2276.372	5370
2278.383	5318
2280.392	5277
2282.402	5241
2284.409	5400
2286.418	5244
2288.427	5338
2290.433	5388
2292.441	5238
2294.446	5320
2296.453	5327
2298.459	5405
2300.463	5363
2302.466	5336
2304.471	5280
2306.475	5396
2308.477	5280
2310.478	5302
2312.481	5332
2314.481	5347
2316.481	5283
2318.482	5371
2320.482	5252
2322.48	5219
2324.48	5268
2326.478	5288
2328.476	5325
2330.473	5241
2332.469	5342
2334.465	5219
2336.46	5236
2338.454	5249
2340.45	5269
2342.444	5182
2344.437	5157
2346.43	5301
2348.421	5224
2350.414	5274
2352.405	5140
2354.396	5274
2356.386	5180
2358.376	5174
2360.366	5268
2362.355	5222
2364.343	5275
2366.331	5224
2368.317	5236
2370.304	5168
2372.292	5154
2374.278	5165
2376.262	5293
2378.247	5256
2380.23	5212
2382.216	5255
2384.199	5141
2386.181	5164
2388.163	5132
2390.144	5175
2392.127	5166
2394.107	5196
2396.087	5065
2398.066	5163
2400.046	5249
2402.023	5081
2404.004	5146
2405.981	5115
2407.957	5120
2409.934	5142
2411.91	5110
2413.886	5192
2415.862	5222
2417.836	5187
2419.809	5028
2421.784	5133
2423.756	5187
2425.73	5238
2427.701	5016
2429.672	5226
2431.644	5189
2433.615	5261
2435.586	5155
2437.555	5079
2439.523	5198
2441.491	5145
2443.459	5130
2445.428	5138
2447.395	5122
2449.361	5207
2451.327	5081
2453.292	5185
2455.257	5181
2457.223	5168
2459.187	5156
2461.15	5068
2463.113	5082
2465.076	5159
2467.039	5175
2468.999	5123
2470.96	5042
2472.921	5114
2474.881	5100
2476.841	5062
2478.8	5041
2480.759	5114
2482.717	5144
2484.675	5078
2486.63	5045
2488.589	5204
2490.545	5080
2492.5	5100
2494.455	5087
2496.408	5057
2498.364	5048
2500.318	5111
2502.27	5003
2504.223	5047
2506.174	5023
2508.126	4990
2510.078	5078
2512.03	5076
2513.979	5001
2515.927	4921
2517.877	5153
2519.826	5097
2521.775	5073
2523.722	5054
2525.668	5101
2527.616	5009
2529.561	5062
2531.508	5067
2533.452	5143
2535.398	5065
2537.342	5041
2539.284	5124
2541.229	5013
2543.173	5113
2545.114	4994
2547.055	4961
2548.996	5008
2550.938	4997
2552.878	5072
2554.817	5075
2556.756	4957
2558.695	5016
2560.633	5038
2562.572	5068
2564.509	4997
2566.445	5065
2568.382	5023
2570.317	4964
2572.254	5036
2574.189	5003
2576.123	5106
2578.057	5035
2579.99	5055
2581.923	4955
2583.855	5031
2585.788	5028
2587.719	4986
2589.65	5088
2591.579	4936
2593.511	5101
2595.44	5012
2597.37	5054
2599.297	5026
2601.225	5048
2603.153	4972
2605.08	4959
2607.007	4990
2608.932	5048
2610.858	4952
2612.782	5090
2614.709	5082
2616.632	5056
2618.556	4951
2620.478	5066
2622.401	5023
2624.324	5067
2626.247	5006
2628.167	5030
2630.088	4967
2632.008	5022
2633.928	5107
2635.848	5044
2637.766	5083
2639.684	5054
2641.603	5190
2643.519	5017
2645.437	5087
2647.353	5117
2649.27	4984
2651.184	5085
2653.099	4952
2655.014	5099
2656.928	5071
2658.842	5048
2660.755	4984
2662.667	4965
2664.579	4935
2666.491	5027
2668.402	4974
2670.312	5003
2672.222	4962
2674.132	5019
2676.042	5010
2677.951	5071
2679.859	4980
2681.766	4932
2683.674	4913
2685.582	4953
2687.488	5013
2689.392	5095
2691.298	5007
2693.202	4959
2695.107	5009
2697.012	4940
2698.914	4924
2700.817	4917
2702.72	4910
2704.622	4994
2706.524	5021
2708.425	4903
2710.326	4946
2712.225	4974
2714.125	5005
2716.024	4946
2717.923	4987
2719.822	4976
2721.719	4930
2723.616	4821
2725.512	4957
2727.41	4956
2729.305	4934
2731.201	4921
2733.095	4925
2734.99	4863
2736.884	4856
2738.778	4911
2740.67	4997
2742.562	4979
2744.455	4884
2746.346	4946
2748.238	4844
2750.129	4924
2752.018	4853
2753.907	4864
2755.797	4917
2757.687	4951
2759.575	4894
2761.462	4945
2763.349	4901
2765.237	4941
2767.124	4966
2769.009	4908
2770.894	4813
2772.779	4813
2774.663	4854
2776.547	4956
2778.431	4913
2780.314	4882
2782.197	4971
2784.078	4907
2785.96	5004
2787.842	4868
2789.723	4912
2791.603	4956
2793.483	4873
2795.362	4895
2797.241	4903
2799.121	4869
2800.997	4856
2802.874	4911
2804.751	4882
2806.628	4892
2808.506	4875
2810.38	4791
2812.255	4824
2814.13	4970
2816.003	4885
2817.878	4889
2819.752	4737
2821.623	4916
2823.496	4891
2825.368	4945
2827.238	4860
2829.111	4863
2830.98	4883
2832.851	4883
2834.719	4898
2836.589	4893
2838.458	4863
2840.327	4878
2842.193	4913
2844.061	4917
2845.927	4940
2847.794	4931
2849.66	4912
2851.525	4993
2853.39	4934
2855.254	4979
2857.117	5007
2858.983	5066
2860.845	5031
2862.707	4938
2864.569	5046
2866.431	5114
2868.293	5138
2870.154	5265
2872.013	5295
2873.873	5211
2875.733	5283
2877.592	5274
2879.451	5355
2881.309	5370
2883.166	5441
2885.022	5393
2886.879	5436
2888.736	5530
2890.591	5731
2892.446	5492
2894.301	5422
2896.155	5540
2898.009	5538
2899.863	5476
2901.716	5509
2903.568	5500
2905.419	5457
2907.27	5403
2909.123	5507
2910.973	5538
2912.824	5491
2914.673	5559
2916.521	5630
2918.372	5696
2920.22	5704
2922.067	5635
2923.914	5668
2925.761	5849
2927.607	5775
2929.455	5942
2931.301	5979
2933.144	5843
2934.99	5973
2936.833	6012
2938.678	6028
2940.522	6128
2942.364	6210
2944.207	6281
2946.048	6346
2947.891	6313
2949.731	6341
2951.571	6307
2953.412	6423
2955.25	6231
2957.09	6113
2958.93	6146
2960.767	6244
2962.606	6137
2964.443	6026
2966.279	5975
2968.116	5928
2969.953	5845
2971.788	5755
2973.623	5734
2975.457	5670
2977.292	5513
2979.127	5667
2980.959	5513
2982.792	5518
2984.624	5520
2986.455	5425
2988.288	5419
2990.119	5360
2991.949	5375
2993.779	5350
2995.608	5309
2997.439	5222
2999.268	5150
3001.096	5033
3002.923	5220
3004.751	5073
3006.578	5006
3008.406	4986
3010.232	5022
3012.057	4898
3013.883	4943
3015.706	4819
3017.532	4842
3019.356	4890
3021.179	4741
3023.002	4623
3024.823	4628
3026.646	4771
3028.469	4748
3030.289	4766
3032.11	4606
3033.93	4842
3035.749	4684
3037.57	4684
3039.39	4721
3041.207	4676
3043.026	4626
3044.842	4614
3046.661	4530
3048.477	4600
3050.294	4637
3052.109	4627
3053.925	4588
3055.739	4717
3057.555	4633
3059.368	4569
3061.181	4589
3062.995	4599
3064.807	4561
3066.62	4582
3068.433	4646
3070.243	4651
3072.054	4541
3073.865	4562
3075.675	4616
3077.485	4559
3079.293	4596
3081.102	4653
3082.911	4589
3084.719	4563
3086.527	4473
3088.333	4525
3090.139	4578
3091.945	4589
3093.75	4496
3095.557	4589
3097.361	4451
3099.165	4572
3100.969	4468
3102.772	4521
3104.575	4452
3106.379	4539
3108.181	4504
3109.982	4510
3111.783	4396
3113.584	4422
3115.386	4462
3117.186	4466
3118.985	4455
3120.783	4383
3122.582	4492
3124.381	4378
3126.179	4512
3127.975	4351
3129.772	4395
3131.569	4393
3133.365	4354
3135.161	4421
3136.956	4363
3138.751	4400
3140.544	4412
3142.338	4308
3144.132	4470
3145.925	4365
3147.717	4341
3149.509	4303
3151.301	4306
3153.091	4302
3154.884	4376
3156.673	4310
3158.462	4423
3160.252	4367
3162.041	4461
3163.831	4421
3165.618	4324
3167.405	4308
3169.193	4474
3170.979	4277
3172.767	4412
3174.553	4414
3176.338	4313
3178.123	4324
3179.907	4403
3181.692	4327
3183.477	4318
3185.259	4339
3187.042	4272
3188.824	4343
3190.607	4353
3192.389	4377
3194.17	4380
3195.951	4365
3197.73	4256
3199.51	4276
3201.289	4396
3203.07	4278
3204.848	4255
3206.626	4241
3208.403	4306
3210.18	4343
3211.959	4397
3213.735	4237
3215.511	4319
3217.285	4390
3219.06	4344
3220.836	4303
3222.611	4242
3224.384	4286
3226.158	4240
3227.929	4247
3229.702	4279
3231.476	4329
3233.248	4287
3235.018	4330
3236.789	4305
3238.56	4234
3240.33	4343
3242.1	4324
3243.869	4348
3245.637	4314
3247.405	4298
3249.172	4269
3250.941	4296
3252.707	4322
3254.474	4343
3256.24	4194
3258.006	4284
3259.772	4277
3261.537	4234
3263.301	4257
3265.065	4323
3266.828	4317
3268.592	4363
3270.355	4359
3272.117	4285
3273.878	4267
3275.64	4244
3277.401	4238
3279.162	4293
3280.922	4289
3282.682	4193
3284.441	4307
3286.199	4298
3287.959	4352
3289.716	4189
3291.475	4373
3293.232	4421
3294.988	4263
3296.744	4191
3298.501	4280
3300.256	4314
3302.011	4288
3303.766	4297
3305.52	4220
3307.275	4297
3309.028	4260
3310.781	4249
3312.533	4289
3314.285	4279
3316.038	4272
3317.789	4275
3319.54	4310
3321.289	4277
3323.039	4304
3324.789	4197
3326.539	4229
3328.288	4214
3330.035	4319
3331.783	4238
3333.531	4291
3335.28	4293
3337.025	4152
3338.771	4289
3340.518	4276
3342.262	4275
3344.009	4302
3345.753	4260
3347.497	4229
3349.24	4268
3350.983	4272
3352.726	4148
3354.469	4211
3356.212	4136
3357.952	4195
3359.694	4146
3361.434	4251
3363.176	4179
3364.916	4188
3366.654	4151
3368.394	4114
3370.132	4125
3371.871	4207
3373.61	4035
3375.346	4070
3377.083	4181
3378.82	4092
3380.556	4141
3382.292	4061
3384.027	4173
3385.763	4129
3387.497	4183
3389.231	4135
3390.965	4034
3392.698	4070
3394.431	4001
3396.164	4086
3397.896	3987
3399.627	4100
3401.36	4086
3403.09	4129
3404.82	4129
3406.55	4124
3408.279	4079
3410.01	4006
3411.738	4144
3413.467	3988
3415.194	3997
3416.92	4134
3418.647	4111
3420.375	4010
3422.102	4066
3423.827	4015
3425.553	4103
3427.277	4016
3429.003	4027
3430.727	3993
3432.451	4032
3434.173	3987
3435.896	3987
3437.62	4009
3439.343	4048
3441.063	3931
3442.785	3933
3444.505	3928
3446.226	4017
3447.948	3986
3449.666	4019
3451.386	3945
3453.104	3961
3454.823	3986
3456.541	4050
3458.259	3905
3459.976	4001
3461.693	3944
3463.408	3950
3465.125	3954
3466.841	3891
3468.556	3951
3470.271	3822
3471.985	3880
3473.698	3862
3475.414	3819
3477.126	3931
3478.838	3833
3480.55	3900
3482.263	3962
3483.975	3812
3485.686	3846
3487.396	3877
3489.106	3893
3490.817	3744
3492.526	3802
3494.236	3833
3495.944	3777
3497.652	3776
3499.359	3788
3501.066	3782
3502.775	3787
3504.481	3726
3506.187	3747
3507.893	3760
3509.598	3743
3511.304	3849
3513.009	3811
3514.713	3769
3516.417	3777
3518.12	3791
3519.821	3718
3521.525	3791
3523.228	3775
3524.929	3839
3526.631	3822
3528.33	3686
3530.032	3736
3531.733	3631
3533.433	3758
3535.131	3640
3536.83	3685
3538.529	3724
3540.227	3766
3541.925	3738
3543.623	3694
3545.319	3705
3547.016	3698
3548.712	3641
3550.408	3685
3552.103	3597
3553.798	3621
3555.491	3696
3557.188	3663
3558.88	3692
3560.574	3625
3562.266	3611
3563.959	3586
3565.651	3557
3567.343	3630
3569.035	3646
3570.725	3631
3572.415	3582
3574.106	3653
3575.797	3558
3577.485	3608
3579.174	3600
3580.863	3618
3582.551	3526
3584.238	3577
3585.926	3636
3587.613	3568
3589.3	3521
3590.986	3575
3592.671	3506
3594.357	3526
3596.042	3581
3597.726	3501
3599.41	3497
3601.094	3519
3602.778	3498
3604.461	3473
3606.143	3610
3607.825	3456
3609.507	3460
3611.188	3498
3612.87	3513
3614.551	3516
3616.229	3417
3617.909	3537
3619.589	3443
3621.269	3456
3622.948	3465
3624.625	3461
3626.302	3499
3627.98	3410
3629.657	3436
3631.334	3444
3633.01	3416
3634.686	3435
3636.361	3352
3638.036	3476
3639.712	3461
3641.385	3437
3643.06	3404
3644.732	3444
3646.405	3385
3648.08	3362
3649.751	3388
3651.424	3408
3653.094	3361
3654.766	3372
3656.436	3380
3658.106	3463
3659.777	3378
3661.446	3399
3663.115	3328
3664.783	3353
3666.452	3379
3668.121	3243
3669.788	3371
3671.454	3404
3673.121	3291
3674.789	3268
3676.455	3316
3678.12	3398
3679.784	3367
3681.45	3323
3683.114	3299
3684.779	3371
3686.442	3334
3688.105	3348
3689.768	3291
3691.43	3342
3693.093	3355
3694.754	3265
3696.415	3249
3698.076	3342
3699.736	3316
3701.396	3192
3703.057	3346
3704.716	3291
3706.375	3272
3708.034	3260
3709.692	3368
3711.351	3282
3713.008	3297
3714.665	3232
3716.321	3242
3717.977	3248
3719.634	3230
3721.29	3299
3722.945	3211
3724.598	3289
3726.253	3320
3727.907	3251
3729.561	3188
3731.214	3319
3732.867	3299
3734.518	3247
3736.171	3205
3737.824	3148
3739.474	3201
3741.125	3245
3742.775	3276
3744.425	3239
3746.074	3214
3747.725	3201
3749.373	3246
3751.022	3220
3752.669	3119
3754.318	3167
3755.966	3286
3757.612	3220
3759.259	3234
3760.905	3194
3762.55	3205
3764.197	3134
3765.842	3139
3767.486	3123
3769.131	3146
3770.774	3165
3772.417	3117
3774.061	3102
3775.705	3201
3777.347	3086
3778.988	3142
3780.629	3149
3782.271	3133
3783.912	3113
3785.552	3108
3787.192	3189
3788.831	3103
3790.472	3097
3792.112	3107
3793.75	3197
3795.388	3113
3797.024	3109
3798.661	3077
3800.3	3136
3801.936	3059
3803.572	3166
3805.208	3064
3806.844	3081
3808.48	3095
3810.115	3133
3811.748	3082
3813.382	3127
3815.016	3159
3816.649	3140
3818.283	3052
3819.914	3130
3821.547	3052
3823.178	3087
3824.809	3149
3826.441	3066
3828.072	3047
3829.701	3063
3831.331	3035
3832.96	2986
3834.591	3022
3836.219	3091
3837.847	3050
3839.475	3113
3841.102	3042
3842.729	2999
3844.357	3040
3845.984	3024
3847.609	3002
3849.234	3012
3850.86	3005
3852.485	2988
3854.11	3033
3855.734	3080
3857.357	3006
3858.981	3023
3860.603	3048
3862.227	3032
3863.848	2978
3865.471	2999
3867.092	2983
3868.713	2926
3870.334	3004
3871.954	3086
3873.575	3011
3875.194	3001
3876.813	2958
3878.433	3036
3880.051	2970
3881.669	2963
3883.286	2916
3884.904	2981
3886.52	2973
3888.138	3046
3889.754	2991
3891.37	2993
3892.985	2918
3894.6	2990
3896.216	3014
3897.831	2946
3899.444	2899
3901.058	2994
3902.67	2913
3904.283	3009
3905.897	2912
3907.509	2932
3909.121	2963
3910.731	2936
3912.342	2960
3913.954	2896
3915.563	2972
3917.174	2930
3918.783	2958
3920.391	2989
3922.002	2904
3923.611	2956
3925.218	2945
3926.826	2860
3928.432	2899
3930.039	2883
3931.647	2922
3933.253	2942
3934.859	2891
3936.464	2892
3938.068	2896
3939.675	2917
3941.278	2926
3942.883	2870
3944.486	2898
3946.089	2857
3947.692	2865
3949.295	2926
3950.898	2805
3952.499	2929
3954.1	2949
3955.7	2921
3957.303	2871
3958.903	2839
3960.502	2892
3962.101	2900
3963.7	2827
3965.301	2880
3966.899	2875
3968.497	2825
3970.094	2843
3971.691	2838
3973.288	2916
3974.885	2846
3976.481	2805
3978.077	2775
3979.672	2877
3981.267	2843
3982.863	2766
3984.457	2841
3986.051	2756
3987.645	2762
3989.238	2746
3990.831	2803
3992.425	2826
3994.017	2751
3995.607	2792
3997.199	2771
3998.79	2803
4000.382	2742
4001.973	2756
4003.561	2776
4005.151	2778
4006.741	2661
4008.331	2742
4009.918	2801
4011.507	2765
4013.095	2745
4014.681	2702
4016.269	2813
4017.856	2746
4019.443	2745
4021.028	2713
4022.614	2726
4024.199	2666
4025.785	2694
4027.37	2710
4028.953	2745
4030.536	2713
4032.12	2702
4033.704	2802
4035.287	2650
4036.869	2662
4038.45	2734
4040.032	2684
4041.613	2756
4043.195	2728
4044.776	2642
4046.356	2669
4047.935	2644
4049.515	2710
4051.095	2668
4052.674	2709
4054.251	2621
4055.829	2677
4057.406	2627
4058.985	2666
4060.562	2718
4062.139	2653
4063.715	2638
4065.29	2672
4066.865	2583
4068.442	2645
4070.016	2681
4071.59	2667
4073.164	2630
4074.738	2680
4076.312	2708
4077.885	2606
4079.458	2598
4081.03	2573
4082.602	2625
4084.173	2659
4085.745	2707
4087.315	2636
4088.886	2651
4090.456	2549
4092.026	2590
4093.596	2586
4095.165	2736
4096.734	2581
4098.301	2642
4099.869	2573
4101.437	2579
4103.006	2572
4104.572	2589
4106.139	2607
4107.704	2638
4109.27	2537
4110.837	2607
4112.401	2576
4113.966	2587
4115.53	2564
4117.094	2590
4118.659	2611
4120.223	2528
4121.785	2585
4123.347	2582
4124.909	2590
4126.471	2517
4128.034	2542
4129.595	2503
4131.155	2520
4132.716	2581
4134.275	2569
4135.836	2588
4137.395	2541
4138.955	2475
4140.513	2493
4142.071	2529
4143.628	2489
4145.188	2495
4146.745	2490
4148.302	2540
4149.858	2558
4151.414	2454
4152.971	2508
4154.526	2539
4156.081	2445
4157.635	2436
4159.189	2550
4160.745	2505
4162.298	2527
4163.852	2456
4165.405	2438
4166.957	2485
4168.51	2459
4170.063	2472
4171.614	2465
4173.166	2461
4174.717	2471
4176.267	2515
4177.817	2388
4179.368	2427
4180.917	2470
4182.466	2489
4184.016	2489
4185.564	2430
4187.112	2419
4188.66	2487
4190.207	2425
4191.754	2407
4193.301	2485
4194.848	2512
4196.394	2455
4197.94	2377
4199.484	2385
4201.03	2463
4202.575	2432
4204.12	2394
4205.663	2399
4207.207	2413
4208.75	2413
4210.292	2416
4211.836	2401
4213.378	2373
4214.92	2438
4216.46	2376
4218.002	2358
4219.544	2409
4221.083	2417
4222.625	2450
4224.164	2410
4225.703	2425
4227.244	2370
4228.782	2441
4230.32	2431
4231.857	2408
4233.395	2351
4234.933	2353
4236.471	2371
4238.007	2423
4239.542	2384
4241.078	2324
4242.614	2352
4244.15	2421
4245.685	2341
4247.219	2376
4248.753	2337
4250.287	2388
4251.82	2348
4253.354	2353
4254.887	2321
4256.419	2336
4257.951	2432
4259.483	2319
4261.016	2351
4262.547	2381
4264.078	2399
4265.608	2336
4267.137	2333
4268.668	2358
4270.197	2279
4271.727	2302
4273.254	2333
4274.783	2358
4276.311	2297
4277.84	2312
4279.366	2353
4280.894	2319
4282.42	2279
4283.946	2285
4285.473	2333
4286.998	2311
4288.523	2359
4290.047	2308
4291.572	2269
4293.096	2278
4294.622	2261
4296.144	2269
4297.668	2300
4299.19	2238
4300.713	2283
4302.236	2308
4303.758	2286
4305.279	2302
4306.799	2198
4308.321	2314
4309.842	2245
4311.361	2252
4312.882	2256
4314.401	2236
