400.0961	2261
402.6185	2268
405.1424	2327
407.6635	2308
410.1838	2236
412.7035	2276
415.2225	2309
417.7388	2348
420.2585	2311
422.7754	2371
425.2917	2335
427.8072	2439
430.3221	2397
432.8363	2452
435.3498	2452
437.8626	2426
440.3727	2470
442.8841	2476
445.3969	2460
447.907	2379
450.4142	2420
452.9229	2468
455.4289	2451
457.9362	2428
460.4449	2390
462.9488	2343
465.454	2411
467.9566	2412
470.4604	2382
472.9637	2421
475.4662	2392
477.966	2416
480.4671	2416
482.9656	2412
485.4633	2441
487.9645	2396
490.4608	2454
492.9566	2358
495.4536	2448
497.948	2419
500.4437	2419
502.9387	2490
505.431	2489
507.9226	2441
510.4136	2438
512.9079	2455
515.3975	2454
517.8864	2484
520.3746	2486
522.8622	2414
525.3491	2497
527.8394	2464
530.3249	2480
532.8098	2462
535.2939	2526
537.7774	2558
540.2623	2471
542.7444	2462
545.2259	2457
547.7067	2527
550.1868	2522
552.6683	2490
555.147	2465
557.6231	2479
560.1005	2401
562.5773	2508
565.0534	2532
567.5308	2515
570.0056	2571
572.4776	2542
574.951	2530
577.4237	2577
579.8978	2595
582.3671	2543
584.8378	2607
587.3079	2615
589.7773	2573
592.244	2551
594.714	2592
597.1793	2522
599.6461	2565
602.1121	2497
604.5754	2598
607.0421	2553
609.5042	2515
611.9675	2551
614.4282	2566
616.8902	2546
619.3515	2510
621.8122	2526
624.2702	2511
626.7296	2530
629.1863	2555
631.6423	2494
634.1017	2627
636.5563	2549
639.0104	2578
641.4658	2515
643.9185	2556
646.3725	2545
648.8239	2587
651.2766	2546
653.7266	2552
656.176	2561
658.6247	2588
661.0748	2517
663.5242	2567
665.9709	2569
668.417	2555
670.8624	2515
673.3092	2600
675.7533	2581
678.1968	2625
680.6395	2626
683.0817	2602
685.5251	2615
687.9659	2626
690.4061	2614
692.8456	2590
695.2844	2629
697.7226	2543
700.1621	2655
702.599	2581
705.0332	2657
707.4688	2640
709.9036	2648
712.3399	2655
714.7735	2635
717.2044	2613
719.6367	2703
722.0683	2677
724.4993	2631
726.9296	2705
729.3593	2693
731.7883	2626
734.2147	2666
736.6423	2666
739.0714	2688
741.4958	2667
743.9216	2749
746.3447	2681
748.7691	2735
751.1929	2686
753.616	2720
756.0366	2754
758.4584	2819
760.8776	2775
763.2982	2759
765.718	2757
768.1373	2758
770.5539	2766
772.9698	2766
775.3871	2737
777.8038	2815
780.2178	2776
782.6332	2787
785.0459	2720
787.458	2750
789.8714	2757
792.2842	2764
794.6943	2786
797.1038	2795
799.5127	2813
801.9209	2800
804.3324	2822
806.7393	2869
809.1456	2798
811.5513	2773
813.9562	2818
816.3625	2890
818.7663	2822
821.1693	2776
823.5718	2867
825.9735	2847
828.3746	2846
830.7771	2831
833.177	2863
835.5762	2803
837.9747	2793
840.3727	2847
842.772	2923
845.1666	2853
847.5626	2878
849.958	2965
852.3527	2881
854.7488	2928
857.1403	2875
859.5331	2960
861.9253	2884
864.3168	2837
866.7057	2892
869.098	2874
871.4876	2958
873.8746	2913
876.263	2959
878.6487	2906
881.0378	2855
883.4243	2854
885.8081	2876
888.1933	2944
890.5759	2811
892.9598	2946
895.343	2867
897.7256	2862
900.1057	2850
902.4871	2895
904.8659	2893
907.246	2914
909.6254	2949
912.0023	2996
914.3786	3057
916.7562	3050
919.1331	3041
921.5074	3201
923.8831	3141
926.2562	3123
928.6287	3109
931.0005	3078
933.3757	3127
935.7462	3137
938.1162	3060
940.4855	3174
942.8542	3105
945.2242	3163
947.5916	3290
949.9584	3299
952.3266	3302
954.6921	3500
957.0571	3625
959.4233	3737
961.787	3904
964.15	3754
966.5125	3658
968.8742	3595
971.2354	3362
973.5959	3277
975.9559	3146
978.3151	3219
980.6738	3106
983.0338	2999
985.3912	3026
987.7461	3022
990.1022	3025
992.4578	2880
994.8127	2991
997.1689	2950
999.5207	2977
1001.874	3074
1004.226	3049
1006.576	2965
1008.929	3095
1011.28	3028
1013.628	3081
1015.977	3023
1018.324	2995
1020.674	3068
1023.019	2983
1025.366	3057
1027.713	3083
1030.056	3093
1032.399	3104
1034.746	3069
1037.087	3074
1039.431	3046
1041.771	3117
1044.113	3074
1046.454	3032
1048.793	3115
1051.133	3142
1053.471	2987
1055.807	3101
1058.146	3094
1060.483	3060
1062.818	3100
1065.153	3103
1067.489	3182
1069.822	3074
1072.156	3211
1074.488	3108
1076.82	3143
1079.15	3085
1081.48	3110
1083.814	3049
1086.143	3100
1088.471	3022
1090.799	3020
1093.126	3118
1095.452	3052
1097.78	3098
1100.105	3052
1102.43	3130
1104.754	3112
1107.077	3104
1109.4	3077
1111.722	3046
1114.044	3108
1116.365	3069
1118.685	3142
1121.005	3063
1123.324	3117
1125.643	3116
1127.961	3091
1130.278	3091
1132.595	3013
1134.911	3102
1137.226	3083
1139.541	3139
1141.854	3029
1144.167	2956
1146.482	3102
1148.793	3083
1151.105	3080
1153.414	3081
1155.725	3068
1158.033	3082
1160.344	3101
1162.651	3167
1164.959	3079
1167.265	3136
1169.572	3077
1171.878	3050
1174.184	3065
1176.488	3078
1178.79	3056
1181.094	3039
1183.396	3096
1185.699	3102
1188.001	3074
1190.301	3103
1192.6	3172
1194.9	3146
1197.2	3079
1199.497	3032
1201.794	3015
1204.09	3061
1206.387	3150
1208.684	3077
1210.978	3108
1213.272	3063
1215.565	3101
1217.858	3175
1220.15	3030
1222.443	3028
1224.734	3071
1227.024	3175
1229.313	3083
1231.602	3174
1233.892	3214
1236.18	3167
1238.467	3183
1240.754	3233
1243.04	3258
1245.325	3295
1247.612	3238
1249.896	3227
1252.178	3205
1254.461	3249
1256.743	3303
1259.027	3194
1261.308	3323
1263.587	3216
1265.867	3267
1268.146	3147
1270.425	3230
1272.703	3273
1274.981	3283
1277.256	3230
1279.532	3221
1281.808	3279
1284.083	3203
1286.358	3270
1288.63	3263
1290.904	3227
1293.175	3185
1295.449	3241
1297.719	3213
1299.99	3278
1302.259	3203
1304.529	3144
1306.798	3174
1309.065	3174
1311.333	3223
1313.599	3240
1315.866	3195
1318.131	3240
1320.396	3150
1322.66	3251
1324.925	3155
1327.187	3198
1329.448	3144
1331.711	3241
1333.974	3258
1336.234	3170
1338.493	3203
1340.752	3277
1343.01	3156
1345.269	3134
1347.526	3238
1349.784	3288
1352.04	3228
1354.295	3179
1356.552	3187
1358.806	3221
1361.059	3185
1363.312	3134
1365.564	3139
1367.818	3214
1370.069	3208
1372.318	3163
1374.568	3211
1376.817	3210
1379.066	3232
1381.316	3186
1383.564	3274
1385.809	3251
1388.056	3252
1390.301	3347
1392.549	3337
1394.793	3296
1397.036	3393
1399.279	3457
1401.522	3420
1403.763	3345
1406.007	3306
1408.248	3312
1410.487	3254
1412.727	3314
1414.965	3329
1417.205	3315
1419.442	3332
1421.68	3258
1423.915	3344
1426.152	3320
1428.388	3318
1430.623	3398
1432.857	3439
1435.091	3388
1437.323	3452
1439.556	3348
1441.789	3464
1444.019	3356
1446.25	3409
1448.48	3378
1450.708	3431
1452.938	3521
1455.167	3451
1457.394	3486
1459.62	3458
1461.846	3450
1464.073	3449
1466.299	3419
1468.523	3421
1470.746	3375
1472.969	3285
1475.191	3275
1477.415	3260
1479.636	3237
1481.858	3297
1484.078	3245
1486.298	3212
1488.518	3168
1490.736	3198
1492.954	3231
1495.169	3230
1497.386	3112
1499.602	3163
1501.819	3193
1504.034	3138
1506.248	3239
1508.462	3184
1510.675	3221
1512.888	3156
1515.1	3191
1517.311	3167
1519.522	3159
1521.732	3197
1523.942	3196
1526.151	3208
1528.36	3237
1530.566	3134
1532.773	3210
1534.98	3201
1537.187	3187
1539.392	3278
1541.596	3208
1543.801	3245
1546.005	3220
1548.208	3270
1550.411	3221
1552.612	3223
1554.814	3290
1557.013	3220
1559.212	3267
1561.414	3270
1563.612	3252
1565.811	3296
1568.007	3281
1570.203	3358
1572.403	3293
1574.598	3235
1576.792	3313
1578.988	3270
1581.181	3270
1583.376	3347
1585.568	3341
1587.761	3298
1589.952	3285
1592.143	3312
1594.333	3309
1596.524	3225
1598.715	3362
1600.903	3381
1603.091	3316
1605.278	3302
1607.466	3378
1609.652	3381
1611.838	3317
1614.023	3399
1616.207	3385
1618.391	3380
1620.576	3294
1622.759	3363
1624.941	3328
1627.123	3338
1629.304	3397
1631.484	3342
1633.664	3341
1635.844	3408
1638.022	3388
1640.201	3453
1642.38	3501
1644.556	3409
1646.732	3422
1648.908	3399
1651.084	3400
1653.257	3453
1655.433	3399
1657.607	3443
1659.779	3486
1661.951	3404
1664.122	3403
1666.295	3463
1668.467	3388
1670.635	3471
1672.805	3493
1674.973	3427
1677.142	3389
1679.31	3401
1681.478	3449
1683.644	3431
1685.81	3445
1687.975	3396
1690.142	3428
1692.305	3393
1694.468	3356
1696.632	3342
1698.794	3347
1700.957	3343
1703.119	3361
1705.279	3296
1707.439	3304
1709.598	3287
1711.758	3276
1713.917	3307
1716.075	3279
1718.231	3324
1720.388	3365
1722.543	3304
1724.702	3293
1726.856	3344
1729.01	3323
1731.164	3259
1733.317	3284
1735.471	3250
1737.623	3284
1739.774	3302
1741.925	3361
1744.075	3356
1746.225	3316
1748.376	3334
1750.524	3364
1752.672	3273
1754.82	3339
1756.965	3231
1759.113	3312
1761.259	3398
1763.405	3330
1765.549	3356
1767.694	3375
1769.836	3282
1771.981	3313
1774.123	3329
1776.264	3299
1778.405	3374
1780.546	3352
1782.687	3271
1784.827	3346
1786.966	3369
1789.103	3318
1791.242	3353
1793.381	3364
1795.517	3363
1797.653	3410
1799.788	3360
1801.923	3308
1804.057	3407
1806.193	3365
1808.326	3381
1810.457	3374
1812.59	3361
1814.721	3399
1816.855	3269
1818.984	3366
1821.113	3387
1823.244	3374
1825.372	3382
1827.499	3275
1829.63	3357
1831.756	3333
1833.882	3314
1836.007	3329
1838.132	3357
1840.26	3290
1842.384	3367
1844.507	3329
1846.63	3382
1848.752	3343
1850.875	3297
1852.996	3337
1855.118	3382
1857.238	3304
1859.358	3348
1861.477	3373
1863.597	3308
1865.715	3321
1867.832	3273
1869.948	3285
1872.064	3337
1874.181	3296
1876.297	3416
1878.411	3294
1880.526	3283
1882.639	3288
1884.752	3304
1886.865	3285
1888.977	3315
1891.089	3341
1893.2	3414
1895.308	3380
1897.42	3326
1899.53	3384
1901.639	3274
1903.745	3295
1905.853	3435
1907.962	3343
1910.067	3385
1912.174	3414
1914.278	3347
1916.383	3450
1918.486	3299
1920.592	3346
1922.694	3452
1924.797	3428
1926.898	3353
1929	3443
1931.102	3309
1933.203	3355
1935.301	3413
1937.401	3288
1939.499	3359
1941.598	3364
1943.697	3433
1945.793	3323
1947.888	3437
1949.985	3504
1952.08	3373
1954.176	3381
1956.269	3388
1958.364	3405
1960.457	3488
1962.549	3450
1964.642	3373
1966.733	3449
1968.823	3399
1970.913	3384
1973.005	3361
1975.093	3423
1977.184	3367
1979.271	3441
1981.359	3431
1983.446	3376
1985.532	3326
1987.619	3415
1989.705	3312
1991.789	3446
1993.874	3345
1995.956	3395
1998.041	3351
2000.123	3308
2002.206	3366
2004.287	3352
2006.368	3376
2008.449	3333
2010.529	3335
2012.609	3343
2014.688	3356
2016.766	3284
2018.843	3325
2020.922	3304
2022.999	3322
2025.074	3311
2027.15	3326
2029.225	3371
2031.299	3352
2033.375	3358
2035.447	3288
2037.52	3328
2039.592	3420
2041.664	3385
2043.736	3406
2045.807	3451
2047.876	3369
2049.947	3373
2052.015	3419
2054.086	3391
2056.153	3403
2058.221	3370
2060.288	3412
2062.353	3381
2064.42	3419
2066.486	3315
2068.55	3392
2070.614	3371
2072.678	3373
2074.741	3354
2076.805	3390
2078.866	3425
2080.929	3381
2082.99	3459
2085.049	3352
2087.109	3379
2089.17	3455
2091.228	3361
2093.286	3385
2095.344	3444
2097.4	3379
2099.46	3333
2101.516	3322
2103.572	3380
2105.626	3310
2107.679	3372
2109.735	3345
2111.788	3364
2113.841	3382
2115.894	3384
2117.945	3385
2119.997	3386
2122.049	3396
2124.1	3384
2126.148	3434
2128.197	3406
2130.246	3402
2132.296	3322
2134.342	3412
2136.39	3372
2138.437	3310
2140.483	3377
2142.527	3390
2144.574	3419
2146.619	3409
2148.661	3370
2150.705	3385
2152.747	3370
2154.792	3317
2156.832	3400
2158.874	3349
2160.915	3331
2162.954	3367
2164.995	3359
2167.034	3355
2169.072	3364
2171.111	3348
2173.148	3363
2175.186	3317
2177.223	3372
2179.258	3308
2181.294	3342
2183.328	3414
2185.362	3405
2187.398	3298
2189.431	3307
2191.463	3387
2193.495	3333
2195.528	3303
2197.56	3304
2199.59	3322
2201.62	3368
2203.649	3358
2205.678	3274
2207.708	3353
2209.737	3425
2211.764	3352
2213.791	3315
2215.817	3280
2217.843	3366
2219.87	3280
2221.895	3331
2223.919	3332
2225.942	3312
2227.966	3239
2229.988	3359
2232.012	3273
2234.032	3305
2236.054	3358
2238.074	3305
2240.095	3293
2242.116	3359
2244.135	3381
2246.153	3293
2248.171	3320
2250.188	3298
2252.208	3284
2254.223	3199
2256.239	3395
2258.255	3290
2260.269	3283
2262.283	3315
2264.3	3363
2266.312	3353
2268.325	3268
2270.336	3376
2272.349	3275
2274.362	3305
2276.372	3265
2278.383	3294
2280.392	3329
2282.402	3349
2284.409	3277
2286.418	3283
2288.427	3296
2290.433	3320
2292.441	3245
2294.446	3378
2296.453	3227
2298.459	3299
2300.463	3279
2302.466	3264
2304.471	3318
2306.475	3300
2308.477	3311
2310.478	3305
2312.481	3253
2314.481	3284
2316.481	3248
2318.482	3213
2320.482	3333
2322.48	3270
2324.48	3298
2326.478	3327
2328.476	3278
2330.473	3256
2332.469	3356
2334.465	3313
2336.46	3293
2338.454	3289
2340.45	3216
2342.444	3180
2344.437	3263
2346.43	3223
2348.421	3305
2350.414	3354
2352.405	3256
2354.396	3347
2356.386	3299
2358.376	3221
2360.366	3231
2362.355	3347
2364.343	3232
2366.331	3296
2368.317	3256
2370.304	3273
2372.292	3239
2374.278	3242
2376.262	3291
2378.247	3240
2380.23	3198
2382.216	3260
2384.199	3280
2386.181	3245
2388.163	3321
2390.144	3223
2392.127	3290
2394.107	3250
2396.087	3207
2398.066	3268
2400.046	3234
2402.023	3211
2404.004	3151
2405.981	3177
2407.957	3234
2409.934	3319
2411.91	3239
2413.886	3182
2415.862	3243
2417.836	3250
2419.809	3264
2421.784	3173
2423.756	3204
2425.73	3309
2427.701	3177
2429.672	3349
2431.644	3184
2433.615	3265
2435.586	3208
2437.555	3196
2439.523	3281
2441.491	3231
2443.459	3320
2445.428	3280
2447.395	3225
2449.361	3297
2451.327	3216
2453.292	3205
2455.257	3197
2457.223	3202
2459.187	3214
2461.15	3225
2463.113	3189
2465.076	3185
2467.039	3219
2468.999	3224
2470.96	3194
2472.921	3187
2474.881	3250
2476.841	3201
2478.8	3253
2480.759	3268
2482.717	3176
2484.675	3187
2486.63	3221
2488.589	3175
2490.545	3189
2492.5	3159
2494.455	3252
2496.408	3170
2498.364	3247
2500.318	3319
2502.27	3193
2504.223	3214
2506.174	3160
2508.126	3187
2510.078	3143
2512.03	3128
2513.979	3237
2515.927	3162
2517.877	3187
2519.826	3137
2521.775	3101
2523.722	3170
2525.668	3272
2527.616	3184
2529.561	3190
2531.508	3141
2533.452	3233
2535.398	3160
2537.342	3190
2539.284	3193
2541.229	3134
2543.173	3169
2545.114	3170
2547.055	3157
2548.996	3227
2550.938	3161
2552.878	3220
2554.817	3177
2556.756	3215
2558.695	3136
2560.633	3257
2562.572	3113
2564.509	3176
2566.445	3106
2568.382	3246
2570.317	3155
2572.254	3240
2574.189	3089
2576.123	3126
2578.057	3140
2579.99	3177
2581.923	3164
2583.855	3216
2585.788	3223
2587.719	3135
2589.65	3197
2591.579	3266
2593.511	3164
2595.44	3120
2597.37	3127
2599.297	3207
2601.225	3234
2603.153	3203
2605.08	3158
2607.007	3228
2608.932	3231
2610.858	3217
2612.782	3171
2614.709	3118
2616.632	3195
2618.556	3192
2620.478	3190
2622.401	3188
2624.324	3252
2626.247	3263
2628.167	3225
2630.088	3232
2632.008	3245
2633.928	3143
2635.848	3227
2637.766	3200
2639.684	3208
2641.603	3214
2643.519	3159
2645.437	3217
2647.353	3160
2649.27	3164
2651.184	3181
2653.099	3185
2655.014	3193
2656.928	3165
2658.842	3210
2660.755	3152
2662.667	3279
2664.579	3228
2666.491	3229
2668.402	3188
2670.312	3187
2672.222	3142
2674.132	3185
2676.042	3194
2677.951	3218
2679.859	3225
2681.766	3167
2683.674	3213
2685.582	3161
2687.488	3187
2689.392	3256
2691.298	3186
2693.202	3190
2695.107	3204
2697.012	3157
2698.914	3205
2700.817	3185
2702.72	3161
2704.622	3239
2706.524	3232
2708.425	3164
2710.326	3152
2712.225	3171
2714.125	3118
2716.024	3229
2717.923	3178
2719.822	3124
2721.719	3048
2723.616	3183
2725.512	3194
2727.41	3218
2729.305	3098
2731.201	3140
2733.095	3095
2734.99	3201
2736.884	3211
2738.778	3242
2740.67	3191
2742.562	3163
2744.455	3115
2746.346	3186
2748.238	3201
2750.129	3141
2752.018	3229
2753.907	3153
2755.797	3203
2757.687	3212
2759.575	3119
2761.462	3208
2763.349	3156
2765.237	3217
2767.124	3182
2769.009	3172
2770.894	3108
2772.779	3197
2774.663	3264
2776.547	3231
2778.431	3202
2780.314	3154
2782.197	3172
2784.078	3098
2785.96	3156
2787.842	3155
2789.723	3158
2791.603	3159
2793.483	3146
2795.362	3095
2797.241	3075
2799.121	3115
2800.997	3096
2802.874	3140
2804.751	3154
2806.628	3196
2808.506	3107
2810.38	3140
2812.255	3195
2814.13	3098
2816.003	3157
2817.878	3232
2819.752	3153
2821.623	3159
2823.496	3100
2825.368	3186
2827.238	3139
2829.111	3208
2830.98	3153
2832.851	3141
2834.719	3216
2836.589	3107
2838.458	3162
2840.327	3113
2842.193	3163
2844.061	3262
2845.927	3231
2847.794	3198
2849.66	3344
2851.525	3257
2853.39	3321
2855.254	3266
2857.117	3323
2858.983	3239
2860.845	3391
2862.707	3306
2864.569	3407
2866.431	3375
2868.293	3397
2870.154	3444
2872.013	3518
2873.873	3450
2875.733	3494
2877.592	3511
2879.451	3557
2881.309	3647
2883.166	3600
2885.022	3673
2886.879	3762
2888.736	3735
2890.591	3749
2892.446	3761
2894.301	3783
2896.155	3764
2898.009	3756
2899.863	3788
2901.716	3666
2903.568	3717
2905.419	3705
2907.27	3596
2909.123	3736
2910.973	3718
2912.824	3799
2914.673	3788
2916.521	3783
2918.372	3794
2920.22	3755
2922.067	3969
2923.914	3941
2925.761	3951
2927.607	4009
2929.455	3947
2931.301	3900
2933.144	3984
2934.99	3962
2936.833	4135
2938.678	4048
2940.522	4066
2942.364	4206
2944.207	4221
2946.048	4303
2947.891	4361
2949.731	4457
2951.571	4367
2953.412	4376
2955.25	4282
2957.09	4176
2958.93	4252
2960.767	4305
2962.606	4278
2964.443	4153
2966.279	4244
2968.116	4082
2969.953	4107
2971.788	4002
2973.623	3883
2975.457	3894
2977.292	3866
2979.127	3772
2980.959	3842
2982.792	3680
2984.624	3658
2986.455	3653
2988.288	3605
2990.119	3596
2991.949	3620
2993.779	3504
2995.608	3532
2997.439	3536
2999.268	3526
3001.096	3448
3002.923	3386
3004.751	3322
3006.578	3340
3008.406	3333
3010.232	3311
3012.057	3296
3013.883	3231
3015.706	3249
3017.532	3150
3019.356	3197
3021.179	3095
3023.002	3156
3024.823	3269
3026.646	3113
3028.469	3068
3030.289	3069
3032.11	3096
3033.93	3116
3035.749	3075
3037.57	3081
3039.39	3127
3041.207	3012
3043.026	2996
3044.842	3048
3046.661	3024
3048.477	3019
3050.294	3010
3052.109	3021
3053.925	2982
3055.739	3009
3057.555	3069
3059.368	3079
3061.181	3150
3062.995	2986
3064.807	3039
3066.62	3044
3068.433	3038
3070.243	3033
3072.054	2969
3073.865	2966
3075.675	3051
3077.485	3114
3079.293	3100
3081.102	3007
3082.911	3024
3084.719	3015
3086.527	2978
3088.333	2950
3090.139	2977
3091.945	2992
3093.75	2927
3095.557	2987
3097.361	2978
3099.165	2956
3100.969	2975
3102.772	2915
3104.575	2935
3106.379	2888
3108.181	2932
3109.982	2930
3111.783	2974
3113.584	2896
3115.386	2963
3117.186	2911
3118.985	2921
3120.783	2908
3122.582	2927
3124.381	2942
3126.179	2943
3127.975	2955
3129.772	2953
3131.569	2946
3133.365	2934
3135.161	2956
3136.956	2937
3138.751	2920
3140.544	2909
3142.338	2879
3144.132	2881
3145.925	2892
3147.717	2899
3149.509	2916
3151.301	2902
3153.091	2876
3154.884	2862
3156.673	2923
3158.462	2857
3160.252	2960
3162.041	2934
3163.831	2895
3165.618	2925
3167.405	2873
3169.193	2884
3170.979	2911
3172.767	2937
3174.553	2864
3176.338	2841
3178.123	2936
3179.907	2889
3181.692	2883
3183.477	2919
3185.259	2906
3187.042	2874
3188.824	2853
3190.607	2907
3192.389	2903
3194.17	2854
3195.951	2875
3197.73	2895
3199.51	2869
3201.289	2915
3203.07	2881
3204.848	2846
3206.626	2820
3208.403	2881
3210.18	2882
3211.959	2878
3213.735	2888
3215.511	2900
3217.285	2844
3219.06	2970
3220.836	2863
3222.611	2878
3224.384	2825
3226.158	2912
3227.929	2806
3229.702	2892
3231.476	2844
3233.248	2887
3235.018	2895
3236.789	2866
3238.56	2939
3240.33	2827
3242.1	2850
3243.869	2861
3245.637	2859
3247.405	2973
3249.172	2845
3250.941	2872
3252.707	2876
3254.474	2897
3256.24	2895
3258.006	2888
3259.772	2869
3261.537	2913
3263.301	2918
3265.065	2902
3266.828	2790
3268.592	2854
3270.355	2922
3272.117	2878
3273.878	2869
3275.64	2861
3277.401	2894
3279.162	2909
3280.922	2906
3282.682	2838
3284.441	2859
3286.199	2898
3287.959	2862
3289.716	2900
3291.475	2906
3293.232	2901
3294.988	2839
3296.744	2929
3298.501	2894
3300.256	2917
3302.011	2880
3303.766	2897
3305.52	2886
3307.275	2937
3309.028	2942
3310.781	2824
3312.533	2897
3314.285	2835
3316.038	2876
3317.789	2975
3319.54	2843
3321.289	2956
3323.039	2913
3324.789	2861
3326.539	2922
3328.288	2856
3330.035	2880
3331.783	2836
3333.531	2927
3335.28	2865
3337.025	2850
3338.771	2915
3340.518	2875
3342.262	2852
3344.009	2828
3345.753	2896
3347.497	2836
3349.24	2811
3350.983	2931
3352.726	2864
3354.469	2844
3356.212	2761
3357.952	2840
3359.694	2875
3361.434	2905
3363.176	2800
3364.916	2969
3366.654	2801
3368.394	2869
3370.132	2840
3371.871	2832
3373.61	2843
3375.346	2832
3377.083	2853
3378.82	2810
3380.556	2839
3382.292	2865
3384.027	2760
3385.763	2855
3387.497	2733
3389.231	2834
3390.965	2828
3392.698	2832
3394.431	2786
3396.164	2816
3397.896	2784
3399.627	2767
3401.36	2753
3403.09	2874
3404.82	2800
3406.55	2751
3408.279	2817
3410.01	2831
3411.738	2783
3413.467	2667
3415.194	2739
3416.92	2778
3418.647	2853
3420.375	2698
3422.102	2654
3423.827	2775
3425.553	2771
3427.277	2783
3429.003	2722
3430.727	2743
3432.451	2714
3434.173	2748
3435.896	2792
3437.62	2726
3439.343	2772
3441.063	2700
3442.785	2726
3444.505	2635
3446.226	2794
3447.948	2729
3449.666	2719
3451.386	2694
3453.104	2760
3454.823	2721
3456.541	2691
3458.259	2682
3459.976	2596
3461.693	2660
3463.408	2708
3465.125	2661
3466.841	2642
3468.556	2612
3470.271	2701
3471.985	2656
3473.698	2662
3475.414	2714
3477.126	2633
3478.838	2683
3480.55	2590
3482.263	2604
3483.975	2665
3485.686	2598
3487.396	2661
3489.106	2642
3490.817	2600
3492.526	2621
3494.236	2614
3495.944	2596
3497.652	2615
3499.359	2629
3501.066	2554
3502.775	2668
3504.481	2582
3506.187	2580
3507.893	2573
3509.598	2543
3511.304	2543
3513.009	2558
3514.713	2541
3516.417	2537
3518.12	2519
3519.821	2652
3521.525	2532
3523.228	2521
3524.929	2533
3526.631	2541
3528.33	2531
3530.032	2529
3531.733	2482
3533.433	2539
3535.131	2556
3536.83	2544
3538.529	2471
3540.227	2534
3541.925	2522
3543.623	2447
3545.319	2467
3547.016	2562
3548.712	2462
3550.408	2505
3552.103	2446
3553.798	2512
3555.491	2516
3557.188	2445
3558.88	2485
3560.574	2534
3562.266	2513
3563.959	2482
3565.651	2457
3567.343	2428
3569.035	2445
3570.725	2491
3572.415	2458
3574.106	2430
3575.797	2396
3577.485	2443
3579.174	2473
3580.863	2475
3582.551	2514
3584.238	2457
3585.926	2499
3587.613	2448
3589.3	2340
3590.986	2459
3592.671	2414
3594.357	2470
3596.042	2463
3597.726	2376
3599.41	2407
3601.094	2389
3602.778	2380
3604.461	2481
3606.143	2474
3607.825	2467
3609.507	2390
3611.188	2371
3612.87	2381
3614.551	2410
3616.229	2385
3617.909	2398
3619.589	2386
3621.269	2440
3622.948	2472
3624.625	2385
3626.302	2308
3627.98	2371
3629.657	2390
3631.334	2353
3633.01	2335
3634.686	2353
3636.361	2389
3638.036	2368
3639.712	2359
3641.385	2386
3643.06	2283
3644.732	2300
3646.405	2309
3648.08	2350
3649.751	2364
3651.424	2292
3653.094	2289
3654.766	2300
3656.436	2376
3658.106	2312
3659.777	2321
3661.446	2317
3663.115	2301
3664.783	2319
3666.452	2297
3668.121	2248
3669.788	2345
3671.454	2309
3673.121	2313
3674.789	2299
3676.455	2265
3678.12	2278
3679.784	2294
3681.45	2289
3683.114	2253
3684.779	2286
3686.442	2366
3688.105	2270
3689.768	2297
3691.43	2276
3693.093	2210
3694.754	2258
3696.415	2223
3698.076	2232
3699.736	2246
3701.396	2316
3703.057	2336
3704.716	2352
3706.375	2265
3708.034	2286
3709.692	2253
3711.351	2226
3713.008	2234
3714.665	2278
3716.321	2232
3717.977	2228
3719.634	2221
3721.29	2268
3722.945	2249
3724.598	2248
3726.253	2260
3727.907	2172
3729.561	2160
3731.214	2244
3732.867	2228
3734.518	2211
3736.171	2187
3737.824	2256
3739.474	2216
3741.125	2246
3742.775	2199
3744.425	2224
3746.074	2168
3747.725	2249
3749.373	2250
3751.022	2201
3752.669	2159
3754.318	2221
3755.966	2213
3757.612	2262
3759.259	2202
3760.905	2194
3762.55	2234
3764.197	2169
3765.842	2214
3767.486	2273
3769.131	2163
3770.774	2193
3772.417	2133
3774.061	2188
3775.705	2178
3777.347	2158
3778.988	2127
3780.629	2208
3782.271	2206
3783.912	2104
3785.552	2160
3787.192	2160
3788.831	2181
3790.472	2133
3792.112	2164
3793.75	2143
3795.388	2175
3797.024	2133
3798.661	2194
3800.3	2116
3801.936	2130
3803.572	2132
3805.208	2182
3806.844	2211
3808.48	2166
3810.115	2133
3811.748	2071
3813.382	2151
3815.016	2187
3816.649	2132
3818.283	2142
3819.914	2173
3821.547	2167
3823.178	2116
3824.809	2120
3826.441	2078
3828.072	2129
3829.701	2082
3831.331	2096
3832.96	2120
3834.591	2124
3836.219	2138
3837.847	2118
3839.475	2099
3841.102	2103
3842.729	2151
3844.357	2133
3845.984	2112
3847.609	2107
3849.234	2098
3850.86	2152
3852.485	2109
3854.11	2113
3855.734	2085
3857.357	1996
3858.981	2174
3860.603	2122
3862.227	2077
3863.848	2075
3865.471	2043
3867.092	2080
3868.713	2099
3870.334	2061
3871.954	2085
3873.575	2064
3875.194	2065
3876.813	2074
3878.433	2104
3880.051	2070
3881.669	2071
3883.286	2090
3884.904	2066
3886.52	2040
3888.138	2022
3889.754	2073
3891.37	2081
3892.985	2069
3894.6	2084
3896.216	2053
3897.831	2064
3899.444	2078
3901.058	2075
3902.67	2030
3904.283	2004
3905.897	2034
3907.509	2083
3909.121	2126
3910.731	2123
3912.342	2039
3913.954	2019
3915.563	2032
3917.174	2073
3918.783	2030
3920.391	2085
3922.002	2049
3923.611	2077
3925.218	2072
3926.826	2095
3928.432	2112
3930.039	2033
3931.647	1988
3933.253	2042
3934.859	2002
3936.464	2007
3938.068	2021
3939.675	2078
3941.278	1998
3942.883	2040
3944.486	1989
3946.089	2086
3947.692	2083
3949.295	2031
3950.898	2052
3952.499	1993
3954.1	2014
3955.7	2030
3957.303	2018
3958.903	2026
3960.502	2010
3962.101	2051
3963.7	2060
3965.301	1979
3966.899	1984
3968.497	2050
3970.094	2013
3971.691	1957
3973.288	1987
3974.885	2028
3976.481	1989
3978.077	2029
3979.672	1947
3981.267	1979
3982.863	1977
3984.457	1960
3986.051	1958
3987.645	2039
3989.238	2007
3990.831	1984
3992.425	1946
3994.017	1995
3995.607	1999
3997.199	1955
3998.79	1946
4000.382	1927
4001.973	1942
4003.561	1954
4005.151	1936
4006.741	1940
4008.331	1992
4009.918	2015
4011.507	1900
4013.095	1924
4014.681	1936
4016.269	1932
4017.856	1879
4019.443	1950
4021.028	1956
4022.614	1822
4024.199	1923
4025.785	1925
4027.37	1887
4028.953	1923
4030.536	1904
4032.12	1929
4033.704	1873
4035.287	1901
4036.869	1896
4038.45	1915
4040.032	1896
4041.613	1887
4043.195	1940
4044.776	1881
4046.356	1914
4047.935	1913
4049.515	1963
4051.095	1856
4052.674	1878
4054.251	1932
4055.829	1883
4057.406	1894
4058.985	1890
4060.562	1929
4062.139	1903
4063.715	1935
4065.29	1857
4066.865	1882
4068.442	1881
4070.016	1904
4071.59	1893
4073.164	1802
4074.738	1891
4076.312	1879
4077.885	1898
4079.458	1864
4081.03	1861
4082.602	1873
4084.173	1864
4085.745	1833
4087.315	1885
4088.886	1821
4090.456	1959
4092.026	1825
4093.596	1842
4095.165	1886
4096.734	1856
4098.301	1875
4099.869	1846
4101.437	1859
4103.006	1835
4104.572	1833
4106.139	1911
4107.704	1901
4109.27	1850
4110.837	1822
4112.401	1836
4113.966	1883
4115.53	1852
4117.094	1852
4118.659	1873
4120.223	1871
4121.785	1825
4123.347	1823
4124.909	1858
4126.471	1809
4128.034	1804
4129.595	1793
4131.155	1868
4132.716	1840
4134.275	1843
4135.836	1831
4137.395	1804
4138.955	1777
4140.513	1802
4142.071	1843
4143.628	1835
4145.188	1798
4146.745	1857
4148.302	1826
4149.858	1797
4151.414	1831
4152.971	1825
4154.526	1855
4156.081	1806
4157.635	1790
4159.189	1796
4160.745	1828
4162.298	1790
4163.852	1758
4165.405	1792
4166.957	1767
4168.51	1777
4170.063	1811
4171.614	1757
4173.166	1771
4174.717	1778
4176.267	1760
4177.817	1753
4179.368	1807
4180.917	1743
4182.466	1773
4184.016	1752
4185.564	1698
4187.112	1737
4188.66	1800
4190.207	1732
4191.754	1741
4193.301	1730
4194.848	1747
4196.394	1792
4197.94	1726
4199.484	1748
4201.03	1754
4202.575	1761
4204.12	1727
4205.663	1696
4207.207	1790
4208.75	1746
4210.292	1766
4211.836	1755
4213.378	1758
4214.92	1768
4216.46	1738
4218.002	1712
4219.544	1786
4221.083	1724
4222.625	1724
4224.164	1758
4225.703	1692
4227.244	1754
4228.782	1761
4230.32	1707
4231.857	1808
4233.395	1722
4234.933	1711
4236.471	1730
4238.007	1700
4239.542	1707
4241.078	1707
4242.614	1724
4244.15	1744
4245.685	1726
4247.219	1725
4248.753	1670
4250.287	1684
4251.82	1664
4253.354	1735
4254.887	1754
4256.419	1730
4257.951	1727
4259.483	1707
4261.016	1690
4262.547	1740
4264.078	1675
4265.608	1666
4267.137	1706
4268.668	1653
4270.197	1743
4271.727	1710
4273.254	1681
4274.783	1684
4276.311	1692
4277.84	1671
4279.366	1675
4280.894	1642
4282.42	1702
4283.946	1711
4285.473	1662
4286.998	1676
4288.523	1667
4290.047	1699
4291.572	1681
4293.096	1665
4294.622	1673
4296.144	1626
4297.668	1683
4299.19	1637
4300.713	1657
4302.236	1697
4303.758	1645
4305.279	1653
4306.799	1669
4308.321	1633
4309.842	1675
4311.361	1635
4312.882	1677
4314.401	1678
