400.0961	4218
402.6185	4306
405.1424	4269
407.6635	4367
410.1838	4264
412.7035	4314
415.2225	4438
417.7388	4376
420.2585	4442
422.7754	4570
425.2917	4571
427.8072	4608
430.3221	4635
432.8363	4678
435.3498	4621
437.8626	4663
440.3727	4548
442.8841	4628
445.3969	4622
447.907	4644
450.4142	4651
452.9229	4554
455.4289	4570
457.9362	4559
460.4449	4524
462.9488	4603
465.454	4640
467.9566	4581
470.4604	4508
472.9637	4559
475.4662	4547
477.966	4539
480.4671	4547
482.9656	4493
485.4633	4570
487.9645	4640
490.4608	4682
492.9566	4513
495.4536	4559
497.948	4777
500.4437	4675
502.9387	4654
505.431	4691
507.9226	4626
510.4136	4633
512.9079	4615
515.3975	4640
517.8864	4720
520.3746	4711
522.8622	4615
525.3491	4664
527.8394	4655
530.3249	4686
532.8098	4684
535.2939	4629
537.7774	4750
540.2623	4686
542.7444	4731
545.2259	4764
547.7067	4729
550.1868	4772
552.6683	4709
555.147	4738
557.6231	4757
560.1005	4790
562.5773	4730
565.0534	4765
567.5308	4846
570.0056	4832
572.4776	4857
574.951	4932
577.4237	5008
579.8978	4948
582.3671	4926
584.8378	4989
587.3079	4943
589.7773	5084
592.244	5044
594.714	5010
597.1793	4965
599.6461	4911
602.1121	4902
604.5754	4889
607.0421	4942
609.5042	4923
611.9675	4813
614.4282	5026
616.8902	4849
619.3515	4949
621.8122	4720
624.2702	4896
626.7296	4823
629.1863	4921
631.6423	4818
634.1017	4841
636.5563	4842
639.0104	4874
641.4658	4865
643.9185	4855
646.3725	4859
648.8239	4813
651.2766	4934
653.7266	4794
656.176	4981
658.6247	4993
661.0748	4889
663.5242	4864
665.9709	4927
668.417	5037
670.8624	4987
673.3092	5025
675.7533	5011
678.1968	4957
680.6395	4998
683.0817	5000
685.5251	5005
687.9659	4921
690.4061	5052
692.8456	4939
695.2844	5090
697.7226	5026
700.1621	5022
702.599	5119
705.0332	5170
707.4688	4989
709.9036	5065
712.3399	5113
714.7735	5175
717.2044	5094
719.6367	5156
722.0683	5139
724.4993	5180
726.9296	5095
729.3593	5140
731.7883	5099
734.2147	5158
736.6423	5085
739.0714	5148
741.4958	5261
743.9216	5209
746.3447	5236
748.7691	5250
751.1929	5375
753.616	5360
756.0366	5322
758.4584	5244
760.8776	5314
763.2982	5298
765.718	5281
768.1373	5377
770.5539	5269
772.9698	5334
775.3871	5292
777.8038	5378
780.2178	5453
782.6332	5494
785.0459	5375
787.458	5411
789.8714	5334
792.2842	5431
794.6943	5319
797.1038	5417
799.5127	5333
801.9209	5382
804.3324	5434
806.7393	5444
809.1456	5461
811.5513	5426
813.9562	5501
816.3625	5457
818.7663	5430
821.1693	5473
823.5718	5465
825.9735	5426
828.3746	5494
830.7771	5468
833.177	5546
835.5762	5470
837.9747	5471
840.3727	5518
842.772	5508
845.1666	5447
847.5626	5615
849.958	5587
852.3527	5515
854.7488	5674
857.1403	5607
859.5331	5628
861.9253	5597
864.3168	5588
866.7057	5572
869.098	5712
871.4876	5568
873.8746	5522
876.263	5585
878.6487	5583
881.0378	5501
883.4243	5547
885.8081	5608
888.1933	5564
890.5759	5460
892.9598	5614
895.343	5512
897.7256	5577
900.1057	5490
902.4871	5612
904.8659	5722
907.246	5599
909.6254	5728
912.0023	5697
914.3786	5808
916.7562	5889
919.1331	5795
921.5074	5909
923.8831	5893
926.2562	5844
928.6287	5827
931.0005	5934
933.3757	6032
935.7462	6056
938.1162	6083
940.4855	6044
942.8542	6294
945.2242	6233
947.5916	6452
949.9584	6752
952.3266	6963
954.6921	7294
957.0571	7617
959.4233	7983
961.787	8052
964.15	8023
966.5125	7671
968.8742	7123
971.2354	6876
973.5959	6545
975.9559	6246
978.3151	6026
980.6738	5984
983.0338	5995
985.3912	5810
987.7461	5897
990.1022	5657
992.4578	5917
994.8127	5858
997.1689	5869
999.5207	5790
1001.874	5934
1004.226	5802
1006.576	5864
1008.929	5879
1011.28	5928
1013.628	5930
1015.977	5917
1018.324	5857
1020.674	5805
1023.019	5869
1025.366	5948
1027.713	5945
1030.056	5903
1032.399	5936
1034.746	5993
1037.087	5960
1039.431	5960
1041.771	5970
1044.113	5927
1046.454	6097
1048.793	5991
1051.133	5828
1053.471	5938
1055.807	5922
1058.146	6104
1060.483	5943
1062.818	6100
1065.153	6117
1067.489	6145
1069.822	6221
1072.156	6115
1074.488	6297
1076.82	6086
1079.15	6166
1081.48	5875
1083.814	6041
1086.143	6010
1088.471	6049
1090.799	5946
1093.126	5907
1095.452	6097
1097.78	5978
1100.105	5885
1102.43	5859
1104.754	5984
1107.077	5942
1109.4	5991
1111.722	5826
1114.044	6039
1116.365	5915
1118.685	5948
1121.005	5917
1123.324	5817
1125.643	5970
1127.961	6013
1130.278	5973
1132.595	5873
1134.911	5889
1137.226	6024
1139.541	5866
1141.854	6005
1144.167	6044
1146.482	5975
1148.793	5828
1151.105	5929
1153.414	5931
1155.725	5917
1158.033	5986
1160.344	5997
1162.651	5897
1164.959	5905
1167.265	5935
1169.572	5939
1171.878	5984
1174.184	6004
1176.488	5950
1178.79	5947
1181.094	5909
1183.396	6018
1185.699	5955
1188.001	5908
1190.301	5885
1192.6	5869
1194.9	6045
1197.2	5936
1199.497	6033
1201.794	6037
1204.09	6025
1206.387	6006
1208.684	5994
1210.978	6016
1213.272	6073
1215.565	5917
1217.858	5997
1220.15	5985
1222.443	5965
1224.734	6002
1227.024	6069
1229.313	6006
1231.602	6199
1233.892	6105
1236.18	6188
1238.467	6127
1240.754	6088
1243.04	6218
1245.325	6257
1247.612	6415
1249.896	6146
1252.178	6307
1254.461	6334
1256.743	6155
1259.027	6197
1261.308	6215
1263.587	6058
1265.867	6265
1268.146	6246
1270.425	6269
1272.703	6235
1274.981	6148
1277.256	6187
1279.532	6226
1281.808	6112
1284.083	6235
1286.358	6269
1288.63	6093
1290.904	6183
1293.175	6276
1295.449	6096
1297.719	6144
1299.99	6217
1302.259	6093
1304.529	6159
1306.798	6231
1309.065	6080
1311.333	6107
1313.599	6105
1315.866	6169
1318.131	6216
1320.396	6159
1322.66	6067
1324.925	6035
1327.187	6077
1329.448	6237
1331.711	6151
1333.974	6194
1336.234	6160
1338.493	6159
1340.752	6201
1343.01	6133
1345.269	6187
1347.526	6156
1349.784	6159
1352.04	6090
1354.295	6068
1356.552	6058
1358.806	6139
1361.059	6093
1363.312	6123
1365.564	6164
1367.818	6141
1370.069	6148
1372.318	6151
1374.568	6145
1376.817	6207
1379.066	6194
1381.316	6117
1383.564	6188
1385.809	6130
1388.056	6266
1390.301	6192
1392.549	6313
1394.793	6292
1397.036	6385
1399.279	6321
1401.522	6412
1403.763	6367
1406.007	6247
1408.248	6262
1410.487	6332
1412.727	6318
1414.965	6367
1417.205	6362
1419.442	6276
1421.68	6336
1423.915	6391
1426.152	6381
1428.388	6367
1430.623	6374
1432.857	6411
1435.091	6405
1437.323	6460
1439.556	6465
1441.789	6489
1444.019	6391
1446.25	6610
1448.48	6542
1450.708	6484
1452.938	6614
1455.167	6538
1457.394	6563
1459.62	6617
1461.846	6591
1464.073	6530
1466.299	6517
1468.523	6375
1470.746	6415
1472.969	6409
1475.191	6390
1477.415	6339
1479.636	6370
1481.858	6089
1484.078	6207
1486.298	6253
1488.518	6199
1490.736	6202
1492.954	6200
1495.169	6119
1497.386	6180
1499.602	6195
1501.819	6135
1504.034	6046
1506.248	6067
1508.462	6079
1510.675	6054
1512.888	6114
1515.1	6165
1517.311	6133
1519.522	6075
1521.732	5974
1523.942	6162
1526.151	6089
1528.36	6107
1530.566	6096
1532.773	6151
1534.98	6094
1537.187	6191
1539.392	6127
1541.596	6086
1543.801	6086
1546.005	6263
1548.208	6137
1550.411	6132
1552.612	6145
1554.814	6233
1557.013	6227
1559.212	6234
1561.414	6226
1563.612	6199
1565.811	6396
1568.007	6264
1570.203	6355
1572.403	6325
1574.598	6230
1576.792	6218
1578.988	6302
1581.181	6382
1583.376	6257
1585.568	6342
1587.761	6291
1589.952	6197
1592.143	6281
1594.333	6281
1596.524	6314
1598.715	6363
1600.903	6301
1603.091	6363
1605.278	6313
1607.466	6347
1609.652	6483
1611.838	6432
1614.023	6565
1616.207	6320
1618.391	6425
1620.576	6324
1622.759	6550
1624.941	6559
1627.123	6451
1629.304	6428
1631.484	6517
1633.664	6465
1635.844	6383
1638.022	6614
1640.201	6550
1642.38	6506
1644.556	6639
1646.732	6598
1648.908	6400
1651.084	6524
1653.257	6556
1655.433	6637
1657.607	6563
1659.779	6576
1661.951	6462
1664.122	6649
1666.295	6460
1668.467	6685
1670.635	6703
1672.805	6601
1674.973	6590
1677.142	6566
1679.31	6564
1681.478	6570
1683.644	6586
1685.81	6621
1687.975	6516
1690.142	6598
1692.305	6454
1694.468	6580
1696.632	6520
1698.794	6555
1700.957	6374
1703.119	6545
1705.279	6365
1707.439	6308
1709.598	6351
1711.758	6335
1713.917	6334
1716.075	6319
1718.231	6330
1720.388	6253
1722.543	6310
1724.702	6377
1726.856	6282
1729.01	6341
1731.164	6302
1733.317	6258
1735.471	6372
1737.623	6421
1739.774	6379
1741.925	6410
1744.075	6290
1746.225	6397
1748.376	6270
1750.524	6299
1752.672	6263
1754.82	6370
1756.965	6456
1759.113	6367
1761.259	6366
1763.405	6369
1765.549	6361
1767.694	6325
1769.836	6440
1771.981	6486
1774.123	6481
1776.264	6306
1778.405	6431
1780.546	6333
1782.687	6379
1784.827	6493
1786.966	6403
1789.103	6369
1791.242	6467
1793.381	6377
1795.517	6394
1797.653	6321
1799.788	6333
1801.923	6306
1804.057	6414
1806.193	6417
1808.326	6485
1810.457	6343
1812.59	6399
1814.721	6457
1816.855	6385
1818.984	6369
1821.113	6449
1823.244	6346
1825.372	6479
1827.499	6413
1829.63	6389
1831.756	6440
1833.882	6332
1836.007	6321
1838.132	6343
1840.26	6353
1842.384	6309
1844.507	6293
1846.63	6298
1848.752	6301
1850.875	6277
1852.996	6312
1855.118	6329
1857.238	6330
1859.358	6402
1861.477	6304
1863.597	6287
1865.715	6269
1867.832	6257
1869.948	6293
1872.064	6300
1874.181	6345
1876.297	6402
1878.411	6408
1880.526	6353
1882.639	6359
1884.752	6357
1886.865	6304
1888.977	6356
1891.089	6303
1893.2	6482
1895.308	6287
1897.42	6293
1899.53	6243
1901.639	6360
1903.745	6338
1905.853	6333
1907.962	6358
1910.067	6415
1912.174	6391
1914.278	6489
1916.383	6487
1918.486	6387
1920.592	6531
1922.694	6434
1924.797	6500
1926.898	6408
1929	6421
1931.102	6378
1933.203	6438
1935.301	6534
1937.401	6484
1939.499	6454
1941.598	6441
1943.697	6434
1945.793	6388
1947.888	6417
1949.985	6400
1952.08	6501
1954.176	6340
1956.269	6347
1958.364	6480
1960.457	6459
1962.549	6461
1964.642	6379
1966.733	6386
1968.823	6426
1970.913	6373
1973.005	6494
1975.093	6438
1977.184	6422
1979.271	6459
1981.359	6448
1983.446	6321
1985.532	6440
1987.619	6384
1989.705	6352
1991.789	6340
1993.874	6382
1995.956	6296
1998.041	6450
2000.123	6282
2002.206	6381
2004.287	6431
2006.368	6285
2008.449	6363
2010.529	6412
2012.609	6442
2014.688	6326
2016.766	6286
2018.843	6339
2020.922	6250
2022.999	6370
2025.074	6304
2027.15	6429
2029.225	6312
2031.299	6353
2033.375	6413
2035.447	6435
2037.52	6377
2039.592	6309
2041.664	6412
2043.736	6390
2045.807	6377
2047.876	6407
2049.947	6415
2052.015	6370
2054.086	6272
2056.153	6373
2058.221	6310
2060.288	6356
2062.353	6336
2064.42	6337
2066.486	6332
2068.55	6303
2070.614	6368
2072.678	6566
2074.741	6413
2076.805	6381
2078.866	6313
2080.929	6315
2082.99	6365
2085.049	6409
2087.109	6369
2089.17	6340
2091.228	6324
2093.286	6280
2095.344	6431
2097.4	6348
2099.46	6343
2101.516	6322
2103.572	6336
2105.626	6307
2107.679	6339
2109.735	6502
2111.788	6344
2113.841	6415
2115.894	6311
2117.945	6280
2119.997	6359
2122.049	6378
2124.1	6277
2126.148	6383
2128.197	6373
2130.246	6394
2132.296	6368
2134.342	6352
2136.39	6266
2138.437	6368
2140.483	6297
2142.527	6366
2144.574	6382
2146.619	6265
2148.661	6426
2150.705	6339
2152.747	6324
2154.792	6212
2156.832	6316
2158.874	6492
2160.915	6274
2162.954	6306
2164.995	6255
2167.034	6262
2169.072	6262
2171.111	6287
2173.148	6269
2175.186	6199
2177.223	6302
2179.258	6339
2181.294	6256
2183.328	6213
2185.362	6284
2187.398	6310
2189.431	6252
2191.463	6169
2193.495	6308
2195.528	6259
2197.56	6219
2199.59	6222
2201.62	6170
2203.649	6207
2205.678	6288
2207.708	6173
2209.737	6193
2211.764	6245
2213.791	6224
2215.817	6116
2217.843	6252
2219.87	6141
2221.895	6347
2223.919	6106
2225.942	6247
2227.966	6146
2229.988	6130
2232.012	6068
2234.032	6184
2236.054	6251
2238.074	6137
2240.095	6301
2242.116	6128
2244.135	6259
2246.153	6201
2248.171	6106
2250.188	6156
2252.208	6147
2254.223	6157
2256.239	6226
2258.255	6280
2260.269	6219
2262.283	6244
2264.3	6155
2266.312	6150
2268.325	6302
2270.336	6111
2272.349	6265
2274.362	6189
2276.372	6275
2278.383	6121
2280.392	6165
2282.402	6280
2284.409	6208
2286.418	6118
2288.427	6148
2290.433	6182
2292.441	6224
2294.446	6211
2296.453	6079
2298.459	6029
2300.463	6166
2302.466	6078
2304.471	6154
2306.475	6150
2308.477	6138
2310.478	6086
2312.481	6204
2314.481	6075
2316.481	6148
2318.482	6082
2320.482	6132
2322.48	6106
2324.48	6071
2326.478	6091
2328.476	6061
2330.473	6141
2332.469	6019
2334.465	6099
2336.46	6071
2338.454	6061
2340.45	6127
2342.444	6148
2344.437	6012
2346.43	6051
2348.421	6110
2350.414	6162
2352.405	6039
2354.396	6086
2356.386	5862
2358.376	6047
2360.366	6102
2362.355	5956
2364.343	6088
2366.331	6049
2368.317	6018
2370.304	6042
2372.292	5997
2374.278	6084
2376.262	6008
2378.247	5996
2380.23	5962
2382.216	6053
2384.199	5951
2386.181	6083
2388.163	5929
2390.144	5940
2392.127	5996
2394.107	5883
2396.087	5976
2398.066	6076
2400.046	6064
2402.023	5903
2404.004	5898
2405.981	5935
2407.957	6065
2409.934	6023
2411.91	6029
2413.886	6089
2415.862	5970
2417.836	5852
2419.809	5966
2421.784	5859
2423.756	5993
2425.73	5985
2427.701	5954
2429.672	5882
2431.644	5931
2433.615	5890
2435.586	5914
2437.555	5915
2439.523	5979
2441.491	5891
2443.459	5900
2445.428	5885
2447.395	5811
2449.361	5908
2451.327	5937
2453.292	5938
2455.257	5860
2457.223	5916
2459.187	5875
2461.15	5883
2463.113	5873
2465.076	5902
2467.039	5948
2468.999	5897
2470.96	5846
2472.921	5878
2474.881	5964
2476.841	5882
2478.8	5794
2480.759	5970
2482.717	5978
2484.675	5846
2486.63	5842
2488.589	5897
2490.545	5905
2492.5	5769
2494.455	5810
2496.408	5874
2498.364	5879
2500.318	5843
2502.27	5783
2504.223	5739
2506.174	5901
2508.126	5844
2510.078	5804
2512.03	5872
2513.979	5851
2515.927	5827
2517.877	5817
2519.826	5727
2521.775	5818
2523.722	5794
2525.668	5865
2527.616	5902
2529.561	5756
2531.508	5823
2533.452	5964
2535.398	5822
2537.342	5822
2539.284	5814
2541.229	5863
2543.173	5731
2545.114	5899
2547.055	5825
2548.996	5764
2550.938	5702
2552.878	5716
2554.817	5770
2556.756	5838
2558.695	5799
2560.633	5869
2562.572	5683
2564.509	5801
2566.445	5745
2568.382	5708
2570.317	5727
2572.254	5809
2574.189	5841
2576.123	5832
2578.057	5746
2579.99	5854
2581.923	5811
2583.855	5741
2585.788	5906
2587.719	5883
2589.65	5821
2591.579	5859
2593.511	5896
2595.44	5787
2597.37	5735
2599.297	5750
2601.225	5781
2603.153	5860
2605.08	5749
2607.007	5827
2608.932	5869
2610.858	5866
2612.782	5813
2614.709	5776
2616.632	5799
2618.556	5911
2620.478	5846
2622.401	5888
2624.324	5710
2626.247	5806
2628.167	5876
2630.088	5809
2632.008	5775
2633.928	5827
2635.848	5856
2637.766	5855
2639.684	5791
2641.603	5843
2643.519	5812
2645.437	5751
2647.353	5770
2649.27	5860
2651.184	5880
2653.099	5834
2655.014	5843
2656.928	5812
2658.842	5792
2660.755	5833
2662.667	5828
2664.579	5780
2666.491	5785
2668.402	5803
2670.312	5768
2672.222	5837
2674.132	5724
2676.042	5757
2677.951	5799
2679.859	5716
2681.766	5769
2683.674	5694
2685.582	5628
2687.488	5742
2689.392	5845
2691.298	5662
2693.202	5823
2695.107	5713
2697.012	5726
2698.914	5710
2700.817	5705
2702.72	5682
2704.622	5754
2706.524	5761
2708.425	5628
2710.326	5676
2712.225	5743
2714.125	5656
2716.024	5707
2717.923	5703
2719.822	5739
2721.719	5650
2723.616	5783
2725.512	5706
2727.41	5683
2729.305	5665
2731.201	5686
2733.095	5678
2734.99	5698
2736.884	5624
2738.778	5759
2740.67	5745
2742.562	5643
2744.455	5663
2746.346	5685
2748.238	5696
2750.129	5682
2752.018	5687
2753.907	5610
2755.797	5617
2757.687	5680
2759.575	5639
2761.462	5611
2763.349	5645
2765.237	5686
2767.124	5682
2769.009	5718
2770.894	5639
2772.779	5624
2774.663	5627
2776.547	5666
2778.431	5629
2780.314	5584
2782.197	5654
2784.078	5616
2785.96	5687
2787.842	5678
2789.723	5708
2791.603	5665
2793.483	5633
2795.362	5569
2797.241	5579
2799.121	5587
2800.997	5567
2802.874	5682
2804.751	5627
2806.628	5568
2808.506	5688
2810.38	5632
2812.255	5738
2814.13	5586
2816.003	5644
2817.878	5588
2819.752	5623
2821.623	5660
2823.496	5645
2825.368	5570
2827.238	5568
2829.111	5657
2830.98	5505
2832.851	5579
2834.719	5576
2836.589	5619
2838.458	5687
2840.327	5739
2842.193	5612
2844.061	5568
2845.927	5645
2847.794	5654
2849.66	5669
2851.525	5743
2853.39	5685
2855.254	5757
2857.117	5786
2858.983	5780
2860.845	5790
2862.707	5800
2864.569	5816
2866.431	5812
2868.293	5874
2870.154	5945
2872.013	6023
2873.873	6036
2875.733	6067
2877.592	6066
2879.451	6259
2881.309	6222
2883.166	6226
2885.022	6244
2886.879	6420
2888.736	6251
2890.591	6406
2892.446	6346
2894.301	6396
2896.155	6411
2898.009	6237
2899.863	6174
2901.716	6207
2903.568	6315
2905.419	6318
2907.27	6184
2909.123	6273
2910.973	6208
2912.824	6354
2914.673	6407
2916.521	6347
2918.372	6562
2920.22	6561
2922.067	6609
2923.914	6671
2925.761	6672
2927.607	6910
2929.455	6785
2931.301	6967
2933.144	7151
2934.99	7053
2936.833	7141
2938.678	7113
2940.522	7144
2942.364	7311
2944.207	7373
2946.048	7391
2947.891	7461
2949.731	7320
2951.571	7363
2953.412	7332
2955.25	7264
2957.09	7245
2958.93	6977
2960.767	7028
2962.606	6990
2964.443	6925
2966.279	6829
2968.116	6778
2969.953	6514
2971.788	6762
2973.623	6583
2975.457	6421
2977.292	6527
2979.127	6441
2980.959	6466
2982.792	6434
2984.624	6468
2986.455	6349
2988.288	6418
2990.119	6217
2991.949	6262
2993.779	6099
2995.608	6187
2997.439	6102
2999.268	6062
3001.096	5972
3002.923	5942
3004.751	5876
3006.578	5874
3008.406	5870
3010.232	5912
3012.057	5652
3013.883	5656
3015.706	5591
3017.532	5688
3019.356	5523
3021.179	5631
3023.002	5506
3024.823	5410
3026.646	5459
3028.469	5518
3030.289	5462
3032.11	5408
3033.93	5452
3035.749	5423
3037.57	5474
3039.39	5390
3041.207	5322
3043.026	5435
3044.842	5338
3046.661	5373
3048.477	5283
3050.294	5340
3052.109	5324
3053.925	5414
3055.739	5231
3057.555	5324
3059.368	5289
3061.181	5410
3062.995	5318
3064.807	5455
3066.62	5323
3068.433	5386
3070.243	5293
3072.054	5321
3073.865	5318
3075.675	5371
3077.485	5354
3079.293	5189
3081.102	5321
3082.911	5277
3084.719	5315
3086.527	5324
3088.333	5242
3090.139	5352
3091.945	5136
3093.75	5161
3095.557	5211
3097.361	5190
3099.165	5130
3100.969	5146
3102.772	5172
3104.575	5245
3106.379	5223
3108.181	5171
3109.982	5145
3111.783	5147
3113.584	5155
3115.386	5129
3117.186	5104
3118.985	5123
3120.783	5126
3122.582	5128
3124.381	5107
3126.179	5042
3127.975	5151
3129.772	5127
3131.569	5172
3133.365	5041
3135.161	5019
3136.956	5064
3138.751	5023
3140.544	5140
3142.338	5121
3144.132	5031
3145.925	5106
3147.717	5078
3149.509	5117
3151.301	4975
3153.091	5076
3154.884	4971
3156.673	4946
3158.462	4952
3160.252	5010
3162.041	5099
3163.831	5034
3165.618	5151
3167.405	5025
3169.193	5082
3170.979	5018
3172.767	5014
3174.553	5004
3176.338	5033
3178.123	5025
3179.907	4971
3181.692	5017
3183.477	4929
3185.259	5081
3187.042	4987
3188.824	5020
3190.607	5016
3192.389	5028
3194.17	5012
3195.951	4997
3197.73	4998
3199.51	5027
3201.289	4978
3203.07	4882
3204.848	4953
3206.626	5017
3208.403	4931
3210.18	4941
3211.959	4881
3213.735	5154
3215.511	4959
3217.285	5008
3219.06	5068
3220.836	5010
3222.611	5079
3224.384	4895
3226.158	5026
3227.929	5040
3229.702	5002
3231.476	4975
3233.248	4899
3235.018	5013
3236.789	4998
3238.56	5004
3240.33	4969
3242.1	5032
3243.869	5048
3245.637	4884
3247.405	4927
3249.172	4933
3250.941	5053
3252.707	5013
3254.474	4889
3256.24	4940
3258.006	4927
3259.772	4995
3261.537	4982
3263.301	4894
3265.065	4999
3266.828	4959
3268.592	5004
3270.355	4974
3272.117	4965
3273.878	4868
3275.64	4997
3277.401	4961
3279.162	4975
3280.922	4925
3282.682	5049
3284.441	4974
3286.199	5001
3287.959	4936
3289.716	4983
3291.475	5003
3293.232	5000
3294.988	5053
3296.744	4987
3298.501	4966
3300.256	5027
3302.011	5003
3303.766	5045
3305.52	5029
3307.275	5035
3309.028	5002
3310.781	4996
3312.533	4967
3314.285	5013
3316.038	5037
3317.789	5042
3319.54	4952
3321.289	4983
3323.039	4953
3324.789	4929
3326.539	4962
3328.288	5045
3330.035	4992
3331.783	4987
3333.531	5040
3335.28	5046
3337.025	4913
3338.771	5013
3340.518	4973
3342.262	4920
3344.009	5023
3345.753	4987
3347.497	4996
3349.24	4978
3350.983	4949
3352.726	4948
3354.469	4902
3356.212	4903
3357.952	4940
3359.694	4902
3361.434	4791
3363.176	4847
3364.916	4911
3366.654	4821
3368.394	4879
3370.132	4691
3371.871	4911
3373.61	4799
3375.346	4953
3377.083	4817
3378.82	4816
3380.556	4869
3382.292	4706
3384.027	4823
3385.763	4821
3387.497	4846
3389.231	4851
3390.965	4791
3392.698	4783
3394.431	4748
3396.164	4800
3397.896	4829
3399.627	4762
3401.36	4813
3403.09	4756
3404.82	4723
3406.55	4692
3408.279	4697
3410.01	4743
3411.738	4849
3413.467	4655
3415.194	4657
3416.92	4750
3418.647	4872
3420.375	4732
3422.102	4672
3423.827	4715
3425.553	4798
3427.277	4727
3429.003	4719
3430.727	4754
3432.451	4734
3434.173	4780
3435.896	4731
3437.62	4647
3439.343	4659
3441.063	4701
3442.785	4669
3444.505	4699
3446.226	4688
3447.948	4681
3449.666	4632
3451.386	4640
3453.104	4599
3454.823	4642
3456.541	4593
3458.259	4425
3459.976	4540
3461.693	4604
3463.408	4537
3465.125	4522
3466.841	4534
3468.556	4606
3470.271	4603
3471.985	4459
3473.698	4531
3475.414	4544
3477.126	4571
3478.838	4509
3480.55	4455
3482.263	4524
3483.975	4508
3485.686	4504
3487.396	4402
3489.106	4400
3490.817	4408
3492.526	4597
3494.236	4446
3495.944	4409
3497.652	4431
3499.359	4420
3501.066	4443
3502.775	4444
3504.481	4349
3506.187	4465
3507.893	4370
3509.598	4369
3511.304	4388
3513.009	4401
3514.713	4505
3516.417	4387
3518.12	4416
3519.821	4385
3521.525	4414
3523.228	4359
3524.929	4346
3526.631	4325
3528.33	4291
3530.032	4332
3531.733	4317
3533.433	4321
3535.131	4291
3536.83	4249
3538.529	4288
3540.227	4209
3541.925	4370
3543.623	4260
3545.319	4303
3547.016	4280
3548.712	4265
3550.408	4292
3552.103	4241
3553.798	4186
3555.491	4225
3557.188	4280
3558.88	4180
3560.574	4162
3562.266	4157
3563.959	4238
3565.651	4201
3567.343	4212
3569.035	4179
3570.725	4225
3572.415	4078
3574.106	4115
3575.797	4176
3577.485	4146
3579.174	4207
3580.863	4205
3582.551	4185
3584.238	4136
3585.926	4135
3587.613	4211
3589.3	4119
3590.986	4125
3592.671	3953
3594.357	4112
3596.042	4107
3597.726	4197
3599.41	4138
3601.094	4080
3602.778	4108
3604.461	4070
3606.143	4023
3607.825	4027
3609.507	4093
3611.188	3991
3612.87	3979
3614.551	4149
3616.229	4009
3617.909	3928
3619.589	3940
3621.269	4002
3622.948	3917
3624.625	4007
3626.302	3998
3627.98	4037
3629.657	3917
3631.334	3907
3633.01	3897
3634.686	4022
3636.361	3940
3638.036	3910
3639.712	3940
3641.385	3883
3643.06	3986
3644.732	3849
3646.405	3858
3648.08	3897
3649.751	3985
3651.424	3863
3653.094	3832
3654.766	3841
3656.436	3893
3658.106	3829
3659.777	3836
3661.446	3812
3663.115	3835
3664.783	3813
3666.452	3771
3668.121	3778
3669.788	3848
3671.454	3813
3673.121	3826
3674.789	3830
3676.455	3767
3678.12	3834
3679.784	3759
3681.45	3743
3683.114	3873
3684.779	3826
3686.442	3794
3688.105	3830
3689.768	3759
3691.43	3752
3693.093	3796
3694.754	3763
3696.415	3741
3698.076	3754
3699.736	3736
3701.396	3731
3703.057	3730
3704.716	3741
3706.375	3684
3708.034	3850
3709.692	3715
3711.351	3665
3713.008	3756
3714.665	3777
3716.321	3746
3717.977	3689
3719.634	3666
3721.29	3768
3722.945	3711
3724.598	3784
3726.253	3750
3727.907	3722
3729.561	3701
3731.214	3723
3732.867	3729
3734.518	3681
3736.171	3688
3737.824	3735
3739.474	3669
3741.125	3704
3742.775	3584
3744.425	3610
3746.074	3692
3747.725	3648
3749.373	3555
3751.022	3666
3752.669	3695
3754.318	3639
3755.966	3631
3757.612	3592
3759.259	3667
3760.905	3628
3762.55	3637
3764.197	3619
3765.842	3656
3767.486	3618
3769.131	3657
3770.774	3651
3772.417	3530
3774.061	3600
3775.705	3600
3777.347	3663
3778.988	3618
3780.629	3565
3782.271	3585
3783.912	3530
3785.552	3660
3787.192	3534
3788.831	3645
3790.472	3563
3792.112	3573
3793.75	3568
3795.388	3529
3797.024	3503
3798.661	3505
3800.3	3543
3801.936	3575
3803.572	3499
3805.208	3475
3806.844	3572
3808.48	3489
3810.115	3500
3811.748	3514
3813.382	3553
3815.016	3540
3816.649	3493
3818.283	3486
3819.914	3493
3821.547	3433
3823.178	3516
3824.809	3461
3826.441	3528
3828.072	3510
3829.701	3435
3831.331	3511
3832.96	3478
3834.591	3438
3836.219	3495
3837.847	3436
3839.475	3506
3841.102	3407
3842.729	3439
3844.357	3555
3845.984	3406
3847.609	3466
3849.234	3450
3850.86	3381
3852.485	3365
3854.11	3437
3855.734	3421
3857.357	3406
3858.981	3504
3860.603	3422
3862.227	3379
3863.848	3451
3865.471	3461
3867.092	3388
3868.713	3429
3870.334	3396
3871.954	3462
3873.575	3459
3875.194	3415
3876.813	3391
3878.433	3392
3880.051	3357
3881.669	3316
3883.286	3319
3884.904	3358
3886.52	3428
3888.138	3314
3889.754	3379
3891.37	3441
3892.985	3326
3894.6	3349
3896.216	3425
3897.831	3413
3899.444	3389
3901.058	3345
3902.67	3297
3904.283	3369
3905.897	3379
3907.509	3350
3909.121	3325
3910.731	3347
3912.342	3388
3913.954	3328
3915.563	3268
3917.174	3275
3918.783	3247
3920.391	3345
3922.002	3325
3923.611	3289
3925.218	3308
3926.826	3400
3928.432	3351
3930.039	3292
3931.647	3365
3933.253	3332
3934.859	3363
3936.464	3269
3938.068	3363
3939.675	3313
3941.278	3318
3942.883	3367
3944.486	3224
3946.089	3292
3947.692	3245
3949.295	3307
3950.898	3260
3952.499	3270
3954.1	3281
3955.7	3299
3957.303	3315
3958.903	3321
3960.502	3207
3962.101	3210
3963.7	3205
3965.301	3250
3966.899	3241
3968.497	3240
3970.094	3324
3971.691	3187
3973.288	3293
3974.885	3247
3976.481	3221
3978.077	3241
3979.672	3144
3981.267	3202
3982.863	3235
3984.457	3193
3986.051	3242
3987.645	3204
3989.238	3242
3990.831	3223
3992.425	3158
3994.017	3198
3995.607	3081
3997.199	3139
3998.79	3180
4000.382	3111
4001.973	3192
4003.561	3148
4005.151	3167
4006.741	3191
4008.331	3093
4009.918	3158
4011.507	3064
4013.095	3026
4014.681	3203
4016.269	3144
4017.856	3164
4019.443	3064
4021.028	3112
4022.614	3118
4024.199	3026
4025.785	3099
4027.37	3098
4028.953	3115
4030.536	3069
4032.12	3112
4033.704	3053
4035.287	3054
4036.869	3113
4038.45	3072
4040.032	3074
4041.613	3085
4043.195	3055
4044.776	3087
4046.356	3053
4047.935	3009
4049.515	3064
4051.095	3093
4052.674	3057
4054.251	3085
4055.829	3008
4057.406	2981
4058.985	3015
4060.562	2989
4062.139	3032
4063.715	3014
4065.29	2975
4066.865	3049
4068.442	2988
4070.016	2967
4071.59	3067
4073.164	2984
4074.738	3001
4076.312	3093
4077.885	2987
4079.458	2945
4081.03	2925
4082.602	2963
4084.173	2957
4085.745	2921
4087.315	3032
4088.886	2941
4090.456	2952
4092.026	3014
4093.596	2926
4095.165	2951
4096.734	2960
4098.301	2967
4099.869	3008
4101.437	2903
4103.006	3023
4104.572	2903
4106.139	2969
4107.704	2963
4109.27	2922
4110.837	2921
4112.401	2924
4113.966	2919
4115.53	2948
4117.094	2930
4118.659	2944
4120.223	2877
4121.785	2954
4123.347	2834
4124.909	2982
4126.471	2866
4128.034	2907
4129.595	2930
4131.155	2950
4132.716	2909
4134.275	2931
4135.836	2829
4137.395	2814
4138.955	2772
4140.513	2928
4142.071	2870
4143.628	2832
4145.188	2844
4146.745	2854
4148.302	2822
4149.858	2772
4151.414	2872
4152.971	2868
4154.526	2768
4156.081	2793
4157.635	2861
4159.189	2957
4160.745	2813
4162.298	2769
4163.852	2841
4165.405	2842
4166.957	2792
4168.51	2806
4170.063	2857
4171.614	2836
4173.166	2747
4174.717	2722
4176.267	2790
4177.817	2776
4179.368	2836
4180.917	2849
4182.466	2759
4184.016	2791
4185.564	2795
4187.112	2768
4188.66	2713
4190.207	2817
4191.754	2771
4193.301	2749
4194.848	2823
4196.394	2762
4197.94	2687
4199.484	2680
4201.03	2780
4202.575	2744
4204.12	2704
4205.663	2708
4207.207	2749
4208.75	2762
4210.292	2736
4211.836	2811
4213.378	2677
4214.92	2684
4216.46	2734
4218.002	2717
4219.544	2713
4221.083	2768
4222.625	2753
4224.164	2724
4225.703	2735
4227.244	2744
4228.782	2693
4230.32	2685
4231.857	2658
4233.395	2757
4234.933	2687
4236.471	2730
4238.007	2691
4239.542	2629
4241.078	2684
4242.614	2667
4244.15	2663
4245.685	2679
4247.219	2701
4248.753	2687
4250.287	2668
4251.82	2613
4253.354	2652
4254.887	2627
4256.419	2612
4257.951	2674
4259.483	2631
4261.016	2650
4262.547	2665
4264.078	2659
4265.608	2613
4267.137	2679
4268.668	2639
4270.197	2603
4271.727	2692
4273.254	2570
4274.783	2611
4276.311	2609
4277.84	2645
4279.366	2550
4280.894	2622
4282.42	2579
4283.946	2602
4285.473	2636
4286.998	2617
4288.523	2635
4290.047	2624
4291.572	2663
4293.096	2602
4294.622	2574
4296.144	2624
4297.668	2614
4299.19	2663
4300.713	2581
4302.236	2524
4303.758	2501
4305.279	2503
4306.799	2590
4308.321	2625
4309.842	2587
4311.361	2565
4312.882	2560
4314.401	2583
