400.0961	2445
402.6185	2467
405.1424	2489
407.6635	2494
410.1838	2417
412.7035	2501
415.2225	2532
417.7388	2572
420.2585	2574
422.7754	2673
425.2917	2583
427.8072	2669
430.3221	2651
432.8363	2667
435.3498	2724
437.8626	2657
440.3727	2596
442.8841	2693
445.3969	2587
447.907	2675
450.4142	2599
452.9229	2669
455.4289	2634
457.9362	2632
460.4449	2646
462.9488	2644
465.454	2623
467.9566	2537
470.4604	2589
472.9637	2567
475.4662	2597
477.966	2595
480.4671	2579
482.9656	2653
485.4633	2619
487.9645	2607
490.4608	2608
492.9566	2695
495.4536	2706
497.948	2713
500.4437	2673
502.9387	2637
505.431	2709
507.9226	2667
510.4136	2636
512.9079	2643
515.3975	2679
517.8864	2652
520.3746	2701
522.8622	2627
525.3491	2634
527.8394	2699
530.3249	2670
532.8098	2779
535.2939	2647
537.7774	2750
540.2623	2654
542.7444	2709
545.2259	2634
547.7067	2621
550.1868	2704
552.6683	2666
555.147	2742
557.6231	2755
560.1005	2687
562.5773	2717
565.0534	2714
567.5308	2739
570.0056	2838
572.4776	2805
574.951	2838
577.4237	2811
579.8978	2783
582.3671	2909
584.8378	2815
587.3079	2871
589.7773	2813
592.244	2811
594.714	2853
597.1793	2779
599.6461	2815
602.1121	2790
604.5754	2749
607.0421	2794
609.5042	2756
611.9675	2784
614.4282	2786
616.8902	2790
619.3515	2744
621.8122	2751
624.2702	2777
626.7296	2778
629.1863	2754
631.6423	2773
634.1017	2728
636.5563	2712
639.0104	2747
641.4658	2707
643.9185	2687
646.3725	2769
648.8239	2785
651.2766	2730
653.7266	2770
656.176	2780
658.6247	2794
661.0748	2754
663.5242	2795
665.9709	2893
668.417	2817
670.8624	2768
673.3092	2796
675.7533	2839
678.1968	2778
680.6395	2777
683.0817	2782
685.5251	2780
687.9659	2861
690.4061	2873
692.8456	2777
695.2844	2874
697.7226	2871
700.1621	2825
702.599	2876
705.0332	2858
707.4688	2902
709.9036	2938
712.3399	2884
714.7735	2840
717.2044	2829
719.6367	2853
722.0683	2873
724.4993	2911
726.9296	2851
729.3593	2935
731.7883	2944
734.2147	2929
736.6423	2881
739.0714	2942
741.4958	2942
743.9216	2938
746.3447	3008
748.7691	2917
751.1929	2946
753.616	2983
756.0366	2935
758.4584	2960
760.8776	3050
763.2982	2998
765.718	2990
768.1373	3045
770.5539	3000
772.9698	2936
775.3871	2995
777.8038	3025
780.2178	2968
782.6332	3049
785.0459	3040
787.458	2991
789.8714	3071
792.2842	3055
794.6943	2993
797.1038	3049
799.5127	3078
801.9209	3004
804.3324	3035
806.7393	2985
809.1456	3044
811.5513	3054
813.9562	3049
816.3625	3149
818.7663	3053
821.1693	3071
823.5718	3015
825.9735	2990
828.3746	3025
830.7771	3040
833.177	3057
835.5762	3090
837.9747	3121
840.3727	3050
842.772	3187
845.1666	3135
847.5626	3183
849.958	3212
852.3527	3185
854.7488	3154
857.1403	3096
859.5331	3159
861.9253	3137
864.3168	3217
866.7057	3117
869.098	3172
871.4876	3118
873.8746	3138
876.263	3179
878.6487	3170
881.0378	3061
883.4243	3149
885.8081	3198
888.1933	3146
890.5759	3206
892.9598	3196
895.343	3091
897.7256	3070
900.1057	3230
902.4871	3178
904.8659	3202
907.246	3141
909.6254	3220
912.0023	3241
914.3786	3206
916.7562	3239
919.1331	3386
921.5074	3307
923.8831	3358
926.2562	3345
928.6287	3330
931.0005	3284
933.3757	3402
935.7462	3358
938.1162	3337
940.4855	3448
942.8542	3501
945.2242	3593
947.5916	3522
949.9584	3800
952.3266	3930
954.6921	4052
957.0571	4280
959.4233	4492
961.787	4620
964.15	4469
966.5125	4326
968.8742	4071
971.2354	3900
973.5959	3699
975.9559	3582
978.3151	3421
980.6738	3414
983.0338	3423
985.3912	3287
987.7461	3322
990.1022	3343
992.4578	3252
994.8127	3359
997.1689	3300
999.5207	3338
1001.874	3374
1004.226	3336
1006.576	3304
1008.929	3272
1011.28	3264
1013.628	3305
1015.977	3297
1018.324	3307
1020.674	3269
1023.019	3372
1025.366	3370
1027.713	3315
1030.056	3411
1032.399	3347
1034.746	3321
1037.087	3362
1039.431	3444
1041.771	3334
1044.113	3349
1046.454	3377
1048.793	3423
1051.133	3305
1053.471	3295
1055.807	3364
1058.146	3481
1060.483	3416
1062.818	3420
1065.153	3482
1067.489	3367
1069.822	3592
1072.156	3464
1074.488	3448
1076.82	3466
1079.15	3509
1081.48	3356
1083.814	3379
1086.143	3415
1088.471	3395
1090.799	3335
1093.126	3291
1095.452	3385
1097.78	3327
1100.105	3331
1102.43	3369
1104.754	3411
1107.077	3371
1109.4	3281
1111.722	3391
1114.044	3388
1116.365	3322
1118.685	3331
1121.005	3309
1123.324	3295
1125.643	3387
1127.961	3294
1130.278	3368
1132.595	3305
1134.911	3308
1137.226	3339
1139.541	3316
1141.854	3324
1144.167	3319
1146.482	3269
1148.793	3327
1151.105	3428
1153.414	3307
1155.725	3384
1158.033	3308
1160.344	3348
1162.651	3370
1164.959	3311
1167.265	3335
1169.572	3374
1171.878	3426
1174.184	3320
1176.488	3348
1178.79	3402
1181.094	3296
1183.396	3395
1185.699	3361
1188.001	3296
1190.301	3390
1192.6	3402
1194.9	3336
1197.2	3313
1199.497	3339
1201.794	3364
1204.09	3377
1206.387	3420
1208.684	3379
1210.978	3418
1213.272	3283
1215.565	3414
1217.858	3432
1220.15	3509
1222.443	3329
1224.734	3413
1227.024	3412
1229.313	3446
1231.602	3376
1233.892	3524
1236.18	3477
1238.467	3557
1240.754	3513
1243.04	3553
1245.325	3577
1247.612	3542
1249.896	3508
1252.178	3532
1254.461	3523
1256.743	3420
1259.027	3550
1261.308	3543
1263.587	3539
1265.867	3561
1268.146	3539
1270.425	3589
1272.703	3587
1274.981	3541
1277.256	3507
1279.532	3527
1281.808	3566
1284.083	3520
1286.358	3530
1288.63	3551
1290.904	3468
1293.175	3548
1295.449	3396
1297.719	3411
1299.99	3507
1302.259	3555
1304.529	3492
1306.798	3503
1309.065	3515
1311.333	3415
1313.599	3508
1315.866	3408
1318.131	3424
1320.396	3501
1322.66	3459
1324.925	3508
1327.187	3464
1329.448	3438
1331.711	3431
1333.974	3492
1336.234	3479
1338.493	3481
1340.752	3517
1343.01	3450
1345.269	3455
1347.526	3394
1349.784	3435
1352.04	3459
1354.295	3463
1356.552	3478
1358.806	3425
1361.059	3482
1363.312	3381
1365.564	3451
1367.818	3478
1370.069	3494
1372.318	3499
1374.568	3503
1376.817	3490
1379.066	3525
1381.316	3471
1383.564	3527
1385.809	3493
1388.056	3461
1390.301	3567
1392.549	3599
1394.793	3681
1397.036	3643
1399.279	3630
1401.522	3638
1403.763	3620
1406.007	3729
1408.248	3654
1410.487	3680
1412.727	3673
1414.965	3665
1417.205	3644
1419.442	3627
1421.68	3603
1423.915	3705
1426.152	3686
1428.388	3655
1430.623	3573
1432.857	3623
1435.091	3707
1437.323	3672
1439.556	3654
1441.789	3678
1444.019	3650
1446.25	3752
1448.48	3702
1450.708	3708
1452.938	3733
1455.167	3761
1457.394	3781
1459.62	3731
1461.846	3794
1464.073	3738
1466.299	3711
1468.523	3652
1470.746	3677
1472.969	3663
1475.191	3593
1477.415	3587
1479.636	3612
1481.858	3621
1484.078	3580
1486.298	3499
1488.518	3488
1490.736	3431
1492.954	3575
1495.169	3498
1497.386	3457
1499.602	3475
1501.819	3433
1504.034	3524
1506.248	3478
1508.462	3559
1510.675	3529
1512.888	3458
1515.1	3356
1517.311	3499
1519.522	3463
1521.732	3507
1523.942	3399
1526.151	3479
1528.36	3560
1530.566	3465
1532.773	3548
1534.98	3464
1537.187	3548
1539.392	3426
1541.596	3487
1543.801	3442
1546.005	3445
1548.208	3439
1550.411	3480
1552.612	3497
1554.814	3520
1557.013	3542
1559.212	3473
1561.414	3529
1563.612	3474
1565.811	3542
1568.007	3562
1570.203	3562
1572.403	3555
1574.598	3576
1576.792	3639
1578.988	3552
1581.181	3564
1583.376	3601
1585.568	3558
1587.761	3519
1589.952	3557
1592.143	3563
1594.333	3615
1596.524	3601
1598.715	3555
1600.903	3567
1603.091	3623
1605.278	3630
1607.466	3619
1609.652	3644
1611.838	3607
1614.023	3559
1616.207	3609
1618.391	3654
1620.576	3601
1622.759	3669
1624.941	3658
1627.123	3639
1629.304	3687
1631.484	3632
1633.664	3697
1635.844	3657
1638.022	3643
1640.201	3677
1642.38	3738
1644.556	3745
1646.732	3716
1648.908	3698
1651.084	3726
1653.257	3698
1655.433	3798
1657.607	3809
1659.779	3661
1661.951	3761
1664.122	3763
1666.295	3778
1668.467	3774
1670.635	3743
1672.805	3810
1674.973	3796
1677.142	3744
1679.31	3759
1681.478	3769
1683.644	3739
1685.81	3666
1687.975	3668
1690.142	3764
1692.305	3694
1694.468	3694
1696.632	3633
1698.794	3615
1700.957	3673
1703.119	3674
1705.279	3605
1707.439	3639
1709.598	3540
1711.758	3631
1713.917	3515
1716.075	3488
1718.231	3554
1720.388	3602
1722.543	3610
1724.702	3584
1726.856	3603
1729.01	3581
1731.164	3502
1733.317	3688
1735.471	3643
1737.623	3645
1739.774	3573
1741.925	3590
1744.075	3639
1746.225	3582
1748.376	3625
1750.524	3588
1752.672	3575
1754.82	3655
1756.965	3635
1759.113	3593
1761.259	3603
1763.405	3642
1765.549	3625
1767.694	3636
1769.836	3538
1771.981	3549
1774.123	3582
1776.264	3584
1778.405	3627
1780.546	3647
1782.687	3631
1784.827	3633
1786.966	3592
1789.103	3585
1791.242	3652
1793.381	3540
1795.517	3668
1797.653	3676
1799.788	3571
1801.923	3599
1804.057	3654
1806.193	3571
1808.326	3679
1810.457	3609
1812.59	3725
1814.721	3561
1816.855	3607
1818.984	3630
1821.113	3609
1823.244	3591
1825.372	3576
1827.499	3656
1829.63	3658
1831.756	3603
1833.882	3656
1836.007	3606
1838.132	3579
1840.26	3636
1842.384	3657
1844.507	3616
1846.63	3605
1848.752	3579
1850.875	3525
1852.996	3614
1855.118	3584
1857.238	3555
1859.358	3555
1861.477	3597
1863.597	3632
1865.715	3493
1867.832	3558
1869.948	3625
1872.064	3548
1874.181	3647
1876.297	3642
1878.411	3587
1880.526	3604
1882.639	3657
1884.752	3655
1886.865	3658
1888.977	3615
1891.089	3562
1893.2	3663
1895.308	3612
1897.42	3550
1899.53	3642
1901.639	3651
1903.745	3720
1905.853	3645
1907.962	3567
1910.067	3620
1912.174	3653
1914.278	3632
1916.383	3705
1918.486	3630
1920.592	3597
1922.694	3634
1924.797	3674
1926.898	3634
1929	3749
1931.102	3696
1933.203	3717
1935.301	3658
1937.401	3728
1939.499	3676
1941.598	3623
1943.697	3589
1945.793	3633
1947.888	3674
1949.985	3653
1952.08	3697
1954.176	3624
1956.269	3681
1958.364	3621
1960.457	3686
1962.549	3698
1964.642	3610
1966.733	3592
1968.823	3659
1970.913	3659
1973.005	3651
1975.093	3641
1977.184	3604
1979.271	3654
1981.359	3661
1983.446	3583
1985.532	3709
1987.619	3644
1989.705	3580
1991.789	3666
1993.874	3665
1995.956	3714
1998.041	3750
2000.123	3601
2002.206	3725
2004.287	3622
2006.368	3686
2008.449	3656
2010.529	3658
2012.609	3625
2014.688	3714
2016.766	3635
2018.843	3675
2020.922	3608
2022.999	3657
2025.074	3602
2027.15	3655
2029.225	3660
2031.299	3587
2033.375	3582
2035.447	3619
2037.52	3611
2039.592	3630
2041.664	3657
2043.736	3681
2045.807	3704
2047.876	3667
2049.947	3719
2052.015	3637
2054.086	3675
2056.153	3694
2058.221	3734
2060.288	3631
2062.353	3640
2064.42	3611
2066.486	3712
2068.55	3664
2070.614	3737
2072.678	3630
2074.741	3680
2076.805	3668
2078.866	3679
2080.929	3658
2082.99	3657
2085.049	3656
2087.109	3702
2089.17	3685
2091.228	3728
2093.286	3662
2095.344	3670
2097.4	3592
2099.46	3728
2101.516	3645
2103.572	3638
2105.626	3669
2107.679	3630
2109.735	3649
2111.788	3654
2113.841	3723
2115.894	3589
2117.945	3654
2119.997	3656
2122.049	3654
2124.1	3676
2126.148	3657
2128.197	3665
2130.246	3662
2132.296	3648
2134.342	3640
2136.39	3674
2138.437	3654
2140.483	3683
2142.527	3603
2144.574	3699
2146.619	3676
2148.661	3680
2150.705	3652
2152.747	3738
2154.792	3684
2156.832	3543
2158.874	3607
2160.915	3622
2162.954	3637
2164.995	3691
2167.034	3615
2169.072	3625
2171.111	3634
2173.148	3616
2175.186	3674
2177.223	3632
2179.258	3576
2181.294	3573
2183.328	3618
2185.362	3642
2187.398	3592
2189.431	3611
2191.463	3614
2193.495	3625
2195.528	3554
2197.56	3581
2199.59	3578
2201.62	3604
2203.649	3574
2205.678	3609
2207.708	3594
2209.737	3664
2211.764	3621
2213.791	3565
2215.817	3544
2217.843	3581
2219.87	3664
2221.895	3593
2223.919	3577
2225.942	3532
2227.966	3617
2229.988	3625
2232.012	3599
2234.032	3586
2236.054	3592
2238.074	3608
2240.095	3534
2242.116	3591
2244.135	3586
2246.153	3642
2248.171	3457
2250.188	3625
2252.208	3584
2254.223	3544
2256.239	3684
2258.255	3613
2260.269	3585
2262.283	3540
2264.3	3629
2266.312	3640
2268.325	3554
2270.336	3618
2272.349	3658
2274.362	3556
2276.372	3599
2278.383	3594
2280.392	3541
2282.402	3579
2284.409	3619
2286.418	3584
2288.427	3641
2290.433	3591
2292.441	3559
2294.446	3583
2296.453	3636
2298.459	3585
2300.463	3617
2302.466	3610
2304.471	3642
2306.475	3609
2308.477	3568
2310.478	3538
2312.481	3536
2314.481	3650
2316.481	3570
2318.482	3623
2320.482	3525
2322.48	3568
2324.48	3499
2326.478	3563
2328.476	3532
2330.473	3619
2332.469	3539
2334.465	3513
2336.46	3576
2338.454	3527
2340.45	3515
2342.444	3555
2344.437	3506
2346.43	3531
2348.421	3469
2350.414	3463
2352.405	3459
2354.396	3573
2356.386	3499
2358.376	3471
2360.366	3554
2362.355	3561
2364.343	3522
2366.331	3563
2368.317	3535
2370.304	3573
2372.292	3443
2374.278	3503
2376.262	3562
2378.247	3545
2380.23	3602
2382.216	3538
2384.199	3501
2386.181	3490
2388.163	3515
2390.144	3447
2392.127	3487
2394.107	3489
2396.087	3497
2398.066	3442
2400.046	3476
2402.023	3432
2404.004	3487
2405.981	3487
2407.957	3557
2409.934	3491
2411.91	3460
2413.886	3472
2415.862	3537
2417.836	3577
2419.809	3508
2421.784	3396
2423.756	3492
2425.73	3483
2427.701	3506
2429.672	3495
2431.644	3535
2433.615	3522
2435.586	3525
2437.555	3491
2439.523	3467
2441.491	3455
2443.459	3483
2445.428	3427
2447.395	3495
2449.361	3543
2451.327	3474
2453.292	3444
2455.257	3505
2457.223	3488
2459.187	3464
2461.15	3498
2463.113	3473
2465.076	3455
2467.039	3469
2468.999	3521
2470.96	3398
2472.921	3428
2474.881	3566
2476.841	3367
2478.8	3464
2480.759	3473
2482.717	3495
2484.675	3508
2486.63	3500
2488.589	3484
2490.545	3428
2492.5	3469
2494.455	3473
2496.408	3436
2498.364	3450
2500.318	3520
2502.27	3428
2504.223	3415
2506.174	3495
2508.126	3463
2510.078	3456
2512.03	3453
2513.979	3495
2515.927	3416
2517.877	3496
2519.826	3426
2521.775	3402
2523.722	3412
2525.668	3462
2527.616	3444
2529.561	3397
2531.508	3438
2533.452	3461
2535.398	3417
2537.342	3432
2539.284	3417
2541.229	3451
2543.173	3380
2545.114	3361
2547.055	3421
2548.996	3404
2550.938	3367
2552.878	3419
2554.817	3504
2556.756	3375
2558.695	3354
2560.633	3336
2562.572	3374
2564.509	3302
2566.445	3473
2568.382	3439
2570.317	3388
2572.254	3371
2574.189	3436
2576.123	3412
2578.057	3426
2579.99	3454
2581.923	3529
2583.855	3469
2585.788	3397
2587.719	3421
2589.65	3551
2591.579	3404
2593.511	3507
2595.44	3471
2597.37	3465
2599.297	3451
2601.225	3478
2603.153	3351
2605.08	3424
2607.007	3441
2608.932	3486
2610.858	3469
2612.782	3501
2614.709	3419
2616.632	3451
2618.556	3505
2620.478	3506
2622.401	3408
2624.324	3369
2626.247	3512
2628.167	3455
2630.088	3527
2632.008	3382
2633.928	3485
2635.848	3404
2637.766	3464
2639.684	3485
2641.603	3445
2643.519	3468
2645.437	3551
2647.353	3491
2649.27	3385
2651.184	3596
2653.099	3460
2655.014	3443
2656.928	3406
2658.842	3487
2660.755	3413
2662.667	3445
2664.579	3437
2666.491	3487
2668.402	3396
2670.312	3407
2672.222	3342
2674.132	3385
2676.042	3402
2677.951	3420
2679.859	3394
2681.766	3386
2683.674	3357
2685.582	3379
2687.488	3450
2689.392	3485
2691.298	3386
2693.202	3373
2695.107	3435
2697.012	3497
2698.914	3444
2700.817	3477
2702.72	3369
2704.622	3339
2706.524	3445
2708.425	3453
2710.326	3308
2712.225	3449
2714.125	3321
2716.024	3427
2717.923	3431
2719.822	3351
2721.719	3310
2723.616	3437
2725.512	3351
2727.41	3440
2729.305	3418
2731.201	3403
2733.095	3456
2734.99	3336
2736.884	3367
2738.778	3407
2740.67	3427
2742.562	3472
2744.455	3371
2746.346	3352
2748.238	3386
2750.129	3506
2752.018	3459
2753.907	3333
2755.797	3381
2757.687	3339
2759.575	3364
2761.462	3363
2763.349	3405
2765.237	3460
2767.124	3391
2769.009	3379
2770.894	3330
2772.779	3335
2774.663	3343
2776.547	3391
2778.431	3399
2780.314	3416
2782.197	3339
2784.078	3371
2785.96	3354
2787.842	3362
2789.723	3480
2791.603	3344
2793.483	3306
2795.362	3374
2797.241	3383
2799.121	3328
2800.997	3423
2802.874	3448
2804.751	3384
2806.628	3296
2808.506	3449
2810.38	3389
2812.255	3342
2814.13	3344
2816.003	3444
2817.878	3426
2819.752	3371
2821.623	3397
2823.496	3418
2825.368	3393
2827.238	3361
2829.111	3366
2830.98	3472
2832.851	3356
2834.719	3376
2836.589	3354
2838.458	3324
2840.327	3421
2842.193	3393
2844.061	3402
2845.927	3401
2847.794	3383
2849.66	3494
2851.525	3439
2853.39	3439
2855.254	3420
2857.117	3411
2858.983	3496
2860.845	3521
2862.707	3575
2864.569	3530
2866.431	3545
2868.293	3513
2870.154	3601
2872.013	3594
2873.873	3676
2875.733	3645
2877.592	3773
2879.451	3673
2881.309	3737
2883.166	3869
2885.022	3835
2886.879	3830
2888.736	3815
2890.591	3888
2892.446	3807
2894.301	3851
2896.155	3918
2898.009	3921
2899.863	3889
2901.716	3897
2903.568	3805
2905.419	3903
2907.27	3905
2909.123	3873
2910.973	3900
2912.824	3856
2914.673	3962
2916.521	4048
2918.372	3986
2920.22	4052
2922.067	4021
2923.914	4164
2925.761	4122
2927.607	4304
2929.455	4304
2931.301	4262
2933.144	4306
2934.99	4394
2936.833	4350
2938.678	4450
2940.522	4500
2942.364	4474
2944.207	4594
2946.048	4598
2947.891	4593
2949.731	4631
2951.571	4638
2953.412	4638
2955.25	4525
2957.09	4514
2958.93	4479
2960.767	4440
2962.606	4353
2964.443	4262
2966.279	4244
2968.116	4183
2969.953	4255
2971.788	4107
2973.623	4090
2975.457	4101
2977.292	4088
2979.127	4059
2980.959	4052
2982.792	3954
2984.624	3975
2986.455	3919
2988.288	3956
2990.119	3873
2991.949	3878
2993.779	3837
2995.608	3875
2997.439	3838
2999.268	3727
3001.096	3688
3002.923	3752
3004.751	3615
3006.578	3599
3008.406	3571
3010.232	3629
3012.057	3541
3013.883	3433
3015.706	3484
3017.532	3491
3019.356	3494
3021.179	3429
3023.002	3393
3024.823	3390
3026.646	3374
3028.469	3378
3030.289	3254
3032.11	3378
3033.93	3389
3035.749	3181
3037.57	3343
3039.39	3332
3041.207	3247
3043.026	3294
3044.842	3315
3046.661	3224
3048.477	3334
3050.294	3288
3052.109	3283
3053.925	3259
3055.739	3231
3057.555	3327
3059.368	3267
3061.181	3268
3062.995	3293
3064.807	3247
3066.62	3220
3068.433	3240
3070.243	3248
3072.054	3190
3073.865	3289
3075.675	3271
3077.485	3284
3079.293	3239
3081.102	3209
3082.911	3255
3084.719	3219
3086.527	3178
3088.333	3184
3090.139	3287
3091.945	3292
3093.75	3154
3095.557	3187
3097.361	3214
3099.165	3246
3100.969	3231
3102.772	3165
3104.575	3211
3106.379	3200
3108.181	3140
3109.982	3185
3111.783	3157
3113.584	3131
3115.386	3159
3117.186	3158
3118.985	3152
3120.783	3217
3122.582	3202
3124.381	3184
3126.179	3182
3127.975	3089
3129.772	3103
3131.569	3145
3133.365	3095
3135.161	3183
3136.956	3082
3138.751	3126
3140.544	3134
3142.338	3083
3144.132	3198
3145.925	3135
3147.717	3121
3149.509	3152
3151.301	3177
3153.091	3105
3154.884	3130
3156.673	3112
3158.462	3059
3160.252	3058
3162.041	3049
3163.831	3113
3165.618	3088
3167.405	3066
3169.193	3112
3170.979	3103
3172.767	3139
3174.553	3098
3176.338	3142
3178.123	3078
3179.907	3122
3181.692	3058
3183.477	3137
3185.259	3023
3187.042	3060
3188.824	3100
3190.607	3149
3192.389	3101
3194.17	3109
3195.951	3175
3197.73	3108
3199.51	3136
3201.289	3137
3203.07	3066
3204.848	3163
3206.626	3149
3208.403	3192
3210.18	3125
3211.959	3116
3213.735	3112
3215.511	3104
3217.285	3039
3219.06	3155
3220.836	3170
3222.611	3105
3224.384	3096
3226.158	3136
3227.929	3123
3229.702	3099
3231.476	3047
3233.248	3066
3235.018	3116
3236.789	3159
3238.56	3072
3240.33	3096
3242.1	3106
3243.869	3051
3245.637	3080
3247.405	3111
3249.172	3140
3250.941	3159
3252.707	3136
3254.474	3109
3256.24	3158
3258.006	3173
3259.772	3044
3261.537	3192
3263.301	3232
3265.065	3145
3266.828	3055
3268.592	3135
3270.355	3143
3272.117	3100
3273.878	3049
3275.64	3114
3277.401	3125
3279.162	3102
3280.922	3121
3282.682	3138
3284.441	3199
3286.199	3124
3287.959	3023
3289.716	3111
3291.475	3107
3293.232	3127
3294.988	3142
3296.744	3091
3298.501	3093
3300.256	3116
3302.011	3144
3303.766	3170
3305.52	3091
3307.275	3183
3309.028	3145
3310.781	3135
3312.533	3179
3314.285	3164
3316.038	3114
3317.789	3112
3319.54	3108
3321.289	3167
3323.039	3122
3324.789	3126
3326.539	3150
3328.288	3115
3330.035	3158
3331.783	3194
3333.531	3137
3335.28	3148
3337.025	3100
3338.771	3188
3340.518	3220
3342.262	3113
3344.009	3120
3345.753	3149
3347.497	3085
3349.24	3146
3350.983	3146
3352.726	3062
3354.469	3066
3356.212	3036
3357.952	3069
3359.694	3088
3361.434	3065
3363.176	3014
3364.916	3105
3366.654	3103
3368.394	3017
3370.132	3028
3371.871	3014
3373.61	3052
3375.346	3101
3377.083	3063
3378.82	3048
3380.556	3002
3382.292	3012
3384.027	3017
3385.763	3029
3387.497	3014
3389.231	2990
3390.965	2986
3392.698	3045
3394.431	3014
3396.164	2959
3397.896	2950
3399.627	3063
3401.36	2991
3403.09	3021
3404.82	3073
3406.55	3048
3408.279	3029
3410.01	2976
3411.738	3033
3413.467	2936
3415.194	2995
3416.92	3030
3418.647	3020
3420.375	2972
3422.102	2996
3423.827	3007
3425.553	2999
3427.277	3036
3429.003	2964
3430.727	2996
3432.451	2917
3434.173	2952
3435.896	3002
3437.62	2990
3439.343	2935
3441.063	2962
3442.785	2917
3444.505	2868
3446.226	2963
3447.948	2953
3449.666	2872
3451.386	2916
3453.104	2951
3454.823	2874
3456.541	2918
3458.259	2832
3459.976	2942
3461.693	2947
3463.408	2924
3465.125	2924
3466.841	2846
3468.556	2746
3470.271	2876
3471.985	2942
3473.698	2851
3475.414	2909
3477.126	2875
3478.838	2851
3480.55	2912
3482.263	2890
3483.975	2837
3485.686	2830
3487.396	2832
3489.106	2854
3490.817	2781
3492.526	2876
3494.236	2826
3495.944	2781
3497.652	2850
3499.359	2703
3501.066	2773
3502.775	2838
3504.481	2837
3506.187	2836
3507.893	2791
3509.598	2739
3511.304	2851
3513.009	2802
3514.713	2849
3516.417	2805
3518.12	2713
3519.821	2738
3521.525	2729
3523.228	2689
3524.929	2813
3526.631	2785
3528.33	2777
3530.032	2735
3531.733	2788
3533.433	2730
3535.131	2722
3536.83	2724
3538.529	2716
3540.227	2716
3541.925	2709
3543.623	2718
3545.319	2700
3547.016	2750
3548.712	2672
3550.408	2696
3552.103	2744
3553.798	2730
3555.491	2739
3557.188	2636
3558.88	2755
3560.574	2667
3562.266	2685
3563.959	2681
3565.651	2717
3567.343	2647
3569.035	2582
3570.725	2751
3572.415	2623
3574.106	2674
3575.797	2669
3577.485	2675
3579.174	2684
3580.863	2561
3582.551	2567
3584.238	2705
3585.926	2694
3587.613	2670
3589.3	2709
3590.986	2649
3592.671	2589
3594.357	2613
3596.042	2652
3597.726	2542
3599.41	2585
3601.094	2556
3602.778	2617
3604.461	2580
3606.143	2645
3607.825	2676
3609.507	2548
3611.188	2551
3612.87	2540
3614.551	2592
3616.229	2574
3617.909	2552
3619.589	2540
3621.269	2563
3622.948	2576
3624.625	2531
3626.302	2564
3627.98	2566
3629.657	2512
3631.334	2502
3633.01	2517
3634.686	2545
3636.361	2583
3638.036	2520
3639.712	2517
3641.385	2538
3643.06	2529
3644.732	2505
3646.405	2494
3648.08	2489
3649.751	2571
3651.424	2472
3653.094	2465
3654.766	2523
3656.436	2496
3658.106	2513
3659.777	2428
3661.446	2554
3663.115	2479
3664.783	2419
3666.452	2458
3668.121	2479
3669.788	2430
3671.454	2416
3673.121	2458
3674.789	2388
3676.455	2462
3678.12	2531
3679.784	2445
3681.45	2426
3683.114	2425
3684.779	2389
3686.442	2479
3688.105	2392
3689.768	2477
3691.43	2486
3693.093	2388
3694.754	2397
3696.415	2425
3698.076	2441
3699.736	2446
3701.396	2425
3703.057	2407
3704.716	2387
3706.375	2391
3708.034	2478
3709.692	2391
3711.351	2435
3713.008	2384
3714.665	2445
3716.321	2397
3717.977	2408
3719.634	2399
3721.29	2435
3722.945	2408
3724.598	2401
3726.253	2398
3727.907	2414
3729.561	2407
3731.214	2345
3732.867	2404
3734.518	2313
3736.171	2367
3737.824	2380
3739.474	2340
3741.125	2402
3742.775	2420
3744.425	2363
3746.074	2330
3747.725	2289
3749.373	2356
3751.022	2441
3752.669	2382
3754.318	2287
3755.966	2395
3757.612	2332
3759.259	2362
3760.905	2358
3762.55	2435
3764.197	2427
3765.842	2369
3767.486	2347
3769.131	2337
3770.774	2342
3772.417	2391
3774.061	2363
3775.705	2300
3777.347	2344
3778.988	2345
3780.629	2362
3782.271	2327
3783.912	2337
3785.552	2315
3787.192	2333
3788.831	2369
3790.472	2328
3792.112	2340
3793.75	2356
3795.388	2292
3797.024	2258
3798.661	2312
3800.3	2371
3801.936	2320
3803.572	2284
3805.208	2250
3806.844	2272
3808.48	2294
3810.115	2279
3811.748	2245
3813.382	2352
3815.016	2326
3816.649	2295
3818.283	2298
3819.914	2297
3821.547	2237
3823.178	2286
3824.809	2223
3826.441	2291
3828.072	2298
3829.701	2253
3831.331	2265
3832.96	2247
3834.591	2315
3836.219	2261
3837.847	2298
3839.475	2290
3841.102	2284
3842.729	2230
3844.357	2189
3845.984	2269
3847.609	2280
3849.234	2255
3850.86	2216
3852.485	2254
3854.11	2265
3855.734	2208
3857.357	2225
3858.981	2210
3860.603	2191
3862.227	2238
3863.848	2254
3865.471	2251
3867.092	2146
3868.713	2252
3870.334	2240
3871.954	2238
3873.575	2192
3875.194	2191
3876.813	2227
3878.433	2203
3880.051	2181
3881.669	2254
3883.286	2223
3884.904	2186
3886.52	2198
3888.138	2167
3889.754	2209
3891.37	2218
3892.985	2156
3894.6	2207
3896.216	2196
3897.831	2169
3899.444	2236
3901.058	2168
3902.67	2159
3904.283	2186
3905.897	2200
3907.509	2165
3909.121	2201
3910.731	2163
3912.342	2164
3913.954	2196
3915.563	2187
3917.174	2191
3918.783	2200
3920.391	2170
3922.002	2158
3923.611	2234
3925.218	2188
3926.826	2160
3928.432	2209
3930.039	2205
3931.647	2105
3933.253	2172
3934.859	2161
3936.464	2201
3938.068	2246
3939.675	2145
3941.278	2156
3942.883	2130
3944.486	2203
3946.089	2101
3947.692	2183
3949.295	2119
3950.898	2171
3952.499	2128
3954.1	2171
3955.7	2163
3957.303	2212
3958.903	2158
3960.502	2172
3962.101	2077
3963.7	2105
3965.301	2162
3966.899	2142
3968.497	2097
3970.094	2180
3971.691	2186
3973.288	2147
3974.885	2140
3976.481	2122
3978.077	2122
3979.672	2152
3981.267	2081
3982.863	2121
3984.457	2102
3986.051	2090
3987.645	2119
3989.238	2106
3990.831	2097
3992.425	2016
3994.017	2068
3995.607	2092
3997.199	2102
3998.79	2079
4000.382	2076
4001.973	2020
4003.561	2112
4005.151	2079
4006.741	2088
4008.331	2096
4009.918	2028
4011.507	2128
4013.095	2025
4014.681	2116
4016.269	2030
4017.856	1984
4019.443	2067
4021.028	2108
4022.614	2050
4024.199	2065
4025.785	2039
4027.37	2036
4028.953	2084
4030.536	2020
4032.12	2009
4033.704	2073
4035.287	2086
4036.869	2031
4038.45	1984
4040.032	2034
4041.613	2041
4043.195	2026
4044.776	2073
4046.356	2070
4047.935	1987
4049.515	2049
4051.095	2072
4052.674	1966
4054.251	2088
4055.829	1977
4057.406	2031
4058.985	2020
4060.562	2001
4062.139	2019
4063.715	2033
4065.29	2051
4066.865	1950
4068.442	2003
4070.016	1999
4071.59	2015
4073.164	1996
4074.738	2021
4076.312	1994
4077.885	1941
4079.458	2000
4081.03	1940
4082.602	2001
4084.173	1990
4085.745	1987
4087.315	1966
4088.886	2017
4090.456	1963
4092.026	1942
4093.596	1980
4095.165	2027
4096.734	2029
4098.301	1923
4099.869	2002
4101.437	1957
4103.006	2020
4104.572	1978
4106.139	2016
4107.704	1967
4109.27	1923
4110.837	1976
4112.401	2016
4113.966	2007
4115.53	1963
4117.094	1944
4118.659	1947
4120.223	1985
4121.785	1949
4123.347	1936
4124.909	1916
4126.471	1942
4128.034	1957
4129.595	1941
4131.155	1911
4132.716	1930
4134.275	1904
4135.836	1920
4137.395	1956
4138.955	1925
4140.513	1923
4142.071	1936
4143.628	1950
4145.188	1825
4146.745	1905
4148.302	1935
4149.858	1866
4151.414	1944
4152.971	1937
4154.526	1897
4156.081	1919
4157.635	1924
4159.189	1885
4160.745	1907
4162.298	1944
4163.852	1875
4165.405	1900
4166.957	1923
4168.51	1881
4170.063	1874
4171.614	1862
4173.166	1878
4174.717	1885
4176.267	1893
4177.817	1933
4179.368	1925
4180.917	1873
4182.466	1879
4184.016	1839
4185.564	1893
4187.112	1921
4188.66	1888
4190.207	1857
4191.754	1851
4193.301	1796
4194.848	1889
4196.394	1923
4197.94	1845
4199.484	1815
4201.03	1833
4202.575	1832
4204.12	1857
4205.663	1898
4207.207	1869
4208.75	1814
4210.292	1821
4211.836	1865
4213.378	1859
4214.92	1873
4216.46	1811
4218.002	1878
4219.544	1809
4221.083	1807
4222.625	1843
4224.164	1867
4225.703	1827
4227.244	1860
4228.782	1858
4230.32	1819
4231.857	1856
4233.395	1852
4234.933	1821
4236.471	1848
4238.007	1796
4239.542	1815
4241.078	1827
4242.614	1806
4244.15	1795
4245.685	1835
4247.219	1828
4248.753	1833
4250.287	1815
4251.82	1790
4253.354	1790
4254.887	1799
4256.419	1767
4257.951	1811
4259.483	1839
4261.016	1829
4262.547	1812
4264.078	1811
4265.608	1782
4267.137	1765
4268.668	1774
4270.197	1799
4271.727	1713
4273.254	1781
4274.783	1766
4276.311	1802
4277.84	1801
4279.366	1765
4280.894	1831
4282.42	1719
4283.946	1770
4285.473	1724
4286.998	1792
4288.523	1771
4290.047	1764
4291.572	1828
4293.096	1773
4294.622	1813
4296.144	1711
4297.668	1766
4299.19	1764
4300.713	1765
4302.236	1774
4303.758	1746
4305.279	1796
4306.799	1725
4308.321	1801
4309.842	1728
4311.361	1742
4312.882	1744
4314.401	1743
