400.0961	9721
402.6185	9689
405.1424	9638
407.6635	9656
410.1838	9614
412.7035	9872
415.2225	9688
417.7388	9847
420.2585	9949
422.7754	10027
425.2917	10114
427.8072	10115
430.3221	10212
432.8363	10158
435.3498	10188
437.8626	10194
440.3727	10213
442.8841	10334
445.3969	10408
447.907	10368
450.4142	10382
452.9229	10377
455.4289	10272
457.9362	10428
460.4449	10458
462.9488	10464
465.454	10437
467.9566	10341
470.4604	10329
472.9637	10398
475.4662	10570
477.966	10635
480.4671	10556
482.9656	10649
485.4633	10562
487.9645	10661
490.4608	10598
492.9566	10642
495.4536	10710
497.948	10839
500.4437	10802
502.9387	10804
505.431	10930
507.9226	10760
510.4136	11002
512.9079	10799
515.3975	10742
517.8864	10951
520.3746	11030
522.8622	10990
525.3491	10948
527.8394	10892
530.3249	11013
532.8098	10928
535.2939	10959
537.7774	10921
540.2623	10964
542.7444	10927
545.2259	10961
547.7067	10864
550.1868	10943
552.6683	10997
555.147	10951
557.6231	11018
560.1005	10968
562.5773	11084
565.0534	11010
567.5308	11038
570.0056	11109
572.4776	11103
574.951	11041
577.4237	11197
579.8978	11236
582.3671	11313
584.8378	11189
587.3079	11205
589.7773	11254
592.244	11403
594.714	11361
597.1793	11377
599.6461	11268
602.1121	11305
604.5754	11281
607.0421	11360
609.5042	11219
611.9675	11392
614.4282	11273
616.8902	11296
619.3515	11335
621.8122	11252
624.2702	11231
626.7296	11416
629.1863	11261
631.6423	11399
634.1017	11448
636.5563	11432
639.0104	11482
641.4658	11361
643.9185	11325
646.3725	11454
648.8239	11330
651.2766	11579
653.7266	11486
656.176	11660
658.6247	11540
661.0748	11558
663.5242	11515
665.9709	11528
668.417	11511
670.8624	11714
673.3092	11742
675.7533	11616
678.1968	11726
680.6395	11673
683.0817	11666
685.5251	11724
687.9659	11732
690.4061	11859
692.8456	11770
695.2844	11782
697.7226	11832
700.1621	11784
702.599	11754
705.0332	11972
707.4688	12048
709.9036	11854
712.3399	12029
714.7735	11897
717.2044	11962
719.6367	12156
722.0683	11938
724.4993	12019
726.9296	12173
729.3593	12230
731.7883	12153
734.2147	12127
736.6423	12164
739.0714	12339
741.4958	12514
743.9216	12439
746.3447	12342
748.7691	12301
751.1929	12362
753.616	12650
756.0366	12468
758.4584	12557
760.8776	12557
763.2982	12537
765.718	12613
768.1373	12702
770.5539	12706
772.9698	12786
775.3871	12725
777.8038	12703
780.2178	12646
782.6332	12562
785.0459	12479
787.458	12661
789.8714	12551
792.2842	12783
794.6943	12559
797.1038	12762
799.5127	12725
801.9209	12750
804.3324	12718
806.7393	12733
809.1456	12773
811.5513	12666
813.9562	12730
816.3625	12831
818.7663	12634
821.1693	12984
823.5718	12585
825.9735	12773
828.3746	12921
830.7771	12730
833.177	12826
835.5762	12837
837.9747	12898
840.3727	12846
842.772	12922
845.1666	12824
847.5626	12938
849.958	13030
852.3527	13030
854.7488	12939
857.1403	13038
859.5331	13081
861.9253	12882
864.3168	12918
866.7057	12856
869.098	12977
871.4876	12809
873.8746	12889
876.263	12946
878.6487	13075
881.0378	12791
883.4243	12903
885.8081	12950
888.1933	12897
890.5759	12916
892.9598	12951
895.343	12859
897.7256	12971
900.1057	13007
902.4871	13017
904.8659	13144
907.246	13036
909.6254	13115
912.0023	12937
914.3786	12925
916.7562	13112
919.1331	13211
921.5074	13090
923.8831	13281
926.2562	13236
928.6287	13190
931.0005	13291
933.3757	13334
935.7462	13405
938.1162	13377
940.4855	13518
942.8542	13482
945.2242	13650
947.5916	13776
949.9584	13996
952.3266	14185
954.6921	14253
957.0571	14418
959.4233	15033
961.787	14910
964.15	15046
966.5125	14654
968.8742	14390
971.2354	14192
973.5959	14013
975.9559	13703
978.3151	13548
980.6738	13363
983.0338	13435
985.3912	13194
987.7461	13516
990.1022	13328
992.4578	13275
994.8127	13297
997.1689	13323
999.5207	13262
1001.874	13297
1004.226	13436
1006.576	13350
1008.929	13460
1011.28	13556
1013.628	13440
1015.977	13352
1018.324	13518
1020.674	13497
1023.019	13657
1025.366	13433
1027.713	13450
1030.056	13461
1032.399	13595
1034.746	13751
1037.087	13537
1039.431	13647
1041.771	13630
1044.113	13742
1046.454	13746
1048.793	13630
1051.133	13631
1053.471	13522
1055.807	13585
1058.146	13661
1060.483	13866
1062.818	13713
1065.153	13731
1067.489	13777
1069.822	13887
1072.156	13899
1074.488	13847
1076.82	13978
1079.15	13824
1081.48	13777
1083.814	13802
1086.143	13722
1088.471	13853
1090.799	13706
1093.126	13758
1095.452	13735
1097.78	13769
1100.105	13811
1102.43	13783
1104.754	13881
1107.077	13825
1109.4	13769
1111.722	13807
1114.044	13732
1116.365	14049
1118.685	13848
1121.005	13920
1123.324	13940
1125.643	13893
1127.961	13905
1130.278	13958
1132.595	13888
1134.911	14068
1137.226	14027
1139.541	13893
1141.854	13964
1144.167	13850
1146.482	13858
1148.793	13866
1151.105	14074
1153.414	13905
1155.725	13720
1158.033	13800
1160.344	13811
1162.651	13955
1164.959	13857
1167.265	13865
1169.572	14038
1171.878	13783
1174.184	14062
1176.488	13881
1178.79	13886
1181.094	13877
1183.396	14016
1185.699	13993
1188.001	14013
1190.301	13993
1192.6	13931
1194.9	13838
1197.2	14040
1199.497	13960
1201.794	13992
1204.09	13892
1206.387	14023
1208.684	14053
1210.978	13979
1213.272	14002
1215.565	14060
1217.858	13859
1220.15	14057
1222.443	14027
1224.734	13917
1227.024	14068
1229.313	14074
1231.602	14303
1233.892	14274
1236.18	14274
1238.467	14434
1240.754	14395
1243.04	14328
1245.325	14203
1247.612	14159
1249.896	14554
1252.178	14216
1254.461	14224
1256.743	14362
1259.027	14300
1261.308	14366
1263.587	14289
1265.867	14246
1268.146	14351
1270.425	14618
1272.703	14266
1274.981	14202
1277.256	14282
1279.532	14399
1281.808	14361
1284.083	14325
1286.358	14240
1288.63	14380
1290.904	14225
1293.175	14167
1295.449	14173
1297.719	14487
1299.99	14327
1302.259	14229
1304.529	14195
1306.798	14343
1309.065	14198
1311.333	14219
1313.599	14216
1315.866	14234
1318.131	14239
1320.396	14239
1322.66	14369
1324.925	14465
1327.187	14236
1329.448	14214
1331.711	14419
1333.974	14322
1336.234	14343
1338.493	14353
1340.752	14391
1343.01	14355
1345.269	14291
1347.526	14315
1349.784	14322
1352.04	14340
1354.295	14313
1356.552	14405
1358.806	14239
1361.059	14358
1363.312	14332
1365.564	14406
1367.818	14535
1370.069	14304
1372.318	14344
1374.568	14241
1376.817	14685
1379.066	14427
1381.316	14438
1383.564	14390
1385.809	14422
1388.056	14294
1390.301	14589
1392.549	14482
1394.793	14647
1397.036	14501
1399.279	14373
1401.522	14461
1403.763	14622
1406.007	14488
1408.248	14474
1410.487	14570
1412.727	14678
1414.965	14525
1417.205	14568
1419.442	14493
1421.68	14706
1423.915	14678
1426.152	14655
1428.388	14703
1430.623	14674
1432.857	14787
1435.091	14841
1437.323	14763
1439.556	14783
1441.789	14811
1444.019	14865
1446.25	14805
1448.48	14854
1450.708	14729
1452.938	14786
1455.167	14797
1457.394	14666
1459.62	14761
1461.846	14860
1464.073	14743
1466.299	14804
1468.523	14725
1470.746	15065
1472.969	14654
1475.191	14659
1477.415	14669
1479.636	14702
1481.858	14556
1484.078	14670
1486.298	14617
1488.518	14610
1490.736	14541
1492.954	14458
1495.169	14543
1497.386	14676
1499.602	14532
1501.819	14521
1504.034	14456
1506.248	14363
1508.462	14546
1510.675	14668
1512.888	14450
1515.1	14479
1517.311	14549
1519.522	14433
1521.732	14526
1523.942	14393
1526.151	14388
1528.36	14581
1530.566	14417
1532.773	14412
1534.98	14552
1537.187	14451
1539.392	14580
1541.596	14664
1543.801	14492
1546.005	14465
1548.208	14635
1550.411	14486
1552.612	14647
1554.814	14609
1557.013	14419
1559.212	14718
1561.414	14824
1563.612	14641
1565.811	14697
1568.007	14689
1570.203	14915
1572.403	14676
1574.598	14861
1576.792	14732
1578.988	14780
1581.181	14687
1583.376	14912
1585.568	14927
1587.761	14826
1589.952	14894
1592.143	14914
1594.333	15096
1596.524	14610
1598.715	14963
1600.903	14800
1603.091	15021
1605.278	14936
1607.466	14852
1609.652	14906
1611.838	14848
1614.023	14876
1616.207	14733
1618.391	14855
1620.576	14571
1622.759	14911
1624.941	14956
1627.123	14964
1629.304	14825
1631.484	14929
1633.664	15000
1635.844	15038
1638.022	14914
1640.201	14911
1642.38	14818
1644.556	14951
1646.732	15137
1648.908	15085
1651.084	15150
1653.257	14983
1655.433	15041
1657.607	15098
1659.779	15120
1661.951	14895
1664.122	15092
1666.295	14894
1668.467	15048
1670.635	15033
1672.805	14987
1674.973	15008
1677.142	15141
1679.31	15171
1681.478	15127
1683.644	15022
1685.81	14938
1687.975	14935
1690.142	15121
1692.305	15024
1694.468	14950
1696.632	14917
1698.794	15029
1700.957	14869
1703.119	15048
1705.279	14910
1707.439	15121
1709.598	14832
1711.758	14655
1713.917	14954
1716.075	14921
1718.231	14828
1720.388	14829
1722.543	15053
1724.702	14867
1726.856	14887
1729.01	14721
1731.164	14857
1733.317	14862
1735.471	14983
1737.623	14890
1739.774	14906
1741.925	14948
1744.075	14892
1746.225	14867
1748.376	14754
1750.524	14582
1752.672	14889
1754.82	14986
1756.965	14928
1759.113	14992
1761.259	14887
1763.405	14885
1765.549	14801
1767.694	14790
1769.836	14825
1771.981	15064
1774.123	14943
1776.264	14980
1778.405	15056
1780.546	15008
1782.687	14840
1784.827	14894
1786.966	15087
1789.103	14987
1791.242	15080
1793.381	15105
1795.517	15110
1797.653	14963
1799.788	14831
1801.923	15105
1804.057	14891
1806.193	14919
1808.326	14914
1810.457	14972
1812.59	14941
1814.721	14866
1816.855	14779
1818.984	14738
1821.113	15057
1823.244	14994
1825.372	15082
1827.499	14893
1829.63	15060
1831.756	14886
1833.882	14947
1836.007	14920
1838.132	15077
1840.26	14821
1842.384	14873
1844.507	14798
1846.63	14836
1848.752	14873
1850.875	14841
1852.996	14771
1855.118	14877
1857.238	14738
1859.358	14793
1861.477	14593
1863.597	14706
1865.715	14820
1867.832	14567
1869.948	14874
1872.064	14757
1874.181	14832
1876.297	14596
1878.411	14572
1880.526	14770
1882.639	14794
1884.752	14851
1886.865	14892
1888.977	14833
1891.089	14734
1893.2	14846
1895.308	14788
1897.42	14901
1899.53	14706
1901.639	14821
1903.745	14949
1905.853	14902
1907.962	14984
1910.067	14767
1912.174	14902
1914.278	14920
1916.383	14851
1918.486	14848
1920.592	14832
1922.694	14849
1924.797	14967
1926.898	15108
1929	14824
1931.102	14994
1933.203	14993
1935.301	15049
1937.401	14840
1939.499	14867
1941.598	14861
1943.697	15016
1945.793	14910
1947.888	14880
1949.985	14886
1952.08	14964
1954.176	15024
1956.269	15045
1958.364	14990
1960.457	14968
1962.549	14989
1964.642	14895
1966.733	15069
1968.823	14864
1970.913	14848
1973.005	14721
1975.093	14968
1977.184	14866
1979.271	14977
1981.359	14867
1983.446	14747
1985.532	14939
1987.619	14830
1989.705	14887
1991.789	14746
1993.874	14844
1995.956	14608
1998.041	14832
2000.123	14667
2002.206	14856
2004.287	14822
2006.368	14677
2008.449	14780
2010.529	14609
2012.609	14797
2014.688	14853
2016.766	14650
2018.843	14755
2020.922	14736
2022.999	14644
2025.074	14632
2027.15	14725
2029.225	14712
2031.299	14841
2033.375	14731
2035.447	14713
2037.52	14767
2039.592	14668
2041.664	14692
2043.736	14635
2045.807	14713
2047.876	14744
2049.947	14743
2052.015	14816
2054.086	14850
2056.153	14698
2058.221	14649
2060.288	14831
2062.353	14648
2064.42	14629
2066.486	14698
2068.55	14704
2070.614	14664
2072.678	14804
2074.741	14531
2076.805	14690
2078.866	14518
2080.929	14756
2082.99	14658
2085.049	14822
2087.109	14557
2089.17	14736
2091.228	14674
2093.286	14676
2095.344	14819
2097.4	14584
2099.46	14750
2101.516	14665
2103.572	14525
2105.626	14654
2107.679	14559
2109.735	14681
2111.788	14670
2113.841	14543
2115.894	14637
2117.945	14640
2119.997	14682
2122.049	14737
2124.1	14661
2126.148	14605
2128.197	14511
2130.246	14472
2132.296	14479
2134.342	14635
2136.39	14544
2138.437	14712
2140.483	14620
2142.527	14651
2144.574	14566
2146.619	14429
2148.661	14570
2150.705	14475
2152.747	14559
2154.792	14501
2156.832	14524
2158.874	14458
2160.915	14425
2162.954	14635
2164.995	14623
2167.034	14612
2169.072	14347
2171.111	14525
2173.148	14247
2175.186	14452
2177.223	14281
2179.258	14237
2181.294	14473
2183.328	14303
2185.362	14398
2187.398	14151
2189.431	14268
2191.463	14342
2193.495	14245
2195.528	14270
2197.56	14184
2199.59	14214
2201.62	14336
2203.649	14360
2205.678	14232
2207.708	14250
2209.737	14014
2211.764	14273
2213.791	14087
2215.817	13977
2217.843	14229
2219.87	14187
2221.895	14239
2223.919	14272
2225.942	14128
2227.966	14010
2229.988	14080
2232.012	13999
2234.032	14130
2236.054	14138
2238.074	14184
2240.095	14172
2242.116	14099
2244.135	14210
2246.153	14217
2248.171	13949
2250.188	13986
2252.208	14033
2254.223	14043
2256.239	14043
2258.255	14101
2260.269	14023
2262.283	13904
2264.3	14145
2266.312	13895
2268.325	14096
2270.336	14096
2272.349	14088
2274.362	14075
2276.372	13941
2278.383	14247
2280.392	13981
2282.402	13953
2284.409	14022
2286.418	14114
2288.427	13982
2290.433	14021
2292.441	14058
2294.446	13860
2296.453	13919
2298.459	14126
2300.463	14148
2302.466	14105
2304.471	13987
2306.475	14218
2308.477	14027
2310.478	14011
2312.481	14014
2314.481	13880
2316.481	13857
2318.482	13967
2320.482	13934
2322.48	13898
2324.48	13974
2326.478	13889
2328.476	13753
2330.473	13933
2332.469	13874
2334.465	13920
2336.46	13769
2338.454	13703
2340.45	13916
2342.444	13964
2344.437	13838
2346.43	13762
2348.421	13598
2350.414	13729
2352.405	13702
2354.396	13570
2356.386	13676
2358.376	13661
2360.366	13785
2362.355	13745
2364.343	13633
2366.331	13627
2368.317	13730
2370.304	13737
2372.292	13523
2374.278	13502
2376.262	13407
2378.247	13488
2380.23	13550
2382.216	13697
2384.199	13526
2386.181	13508
2388.163	13385
2390.144	13383
2392.127	13604
2394.107	13509
2396.087	13379
2398.066	13301
2400.046	13440
2402.023	13605
2404.004	13541
2405.981	13416
2407.957	13482
2409.934	13291
2411.91	13683
2413.886	13465
2415.862	13364
2417.836	13506
2419.809	13519
2421.784	13414
2423.756	13426
2425.73	13393
2427.701	13572
2429.672	13571
2431.644	13382
2433.615	13692
2435.586	13498
2437.555	13276
2439.523	13445
2441.491	13300
2443.459	13474
2445.428	13462
2447.395	13453
2449.361	13298
2451.327	13211
2453.292	13203
2455.257	13382
2457.223	13187
2459.187	13519
2461.15	13308
2463.113	13195
2465.076	13323
2467.039	13396
2468.999	13409
2470.96	13285
2472.921	13292
2474.881	13327
2476.841	13061
2478.8	13141
2480.759	13223
2482.717	13104
2484.675	13201
2486.63	13137
2488.589	13273
2490.545	13369
2492.5	13257
2494.455	13090
2496.408	13148
2498.364	13017
2500.318	13126
2502.27	13070
2504.223	13011
2506.174	12971
2508.126	13305
2510.078	12948
2512.03	13093
2513.979	12810
2515.927	13072
2517.877	13117
2519.826	12997
2521.775	13034
2523.722	13063
2525.668	13062
2527.616	13165
2529.561	13103
2531.508	13115
2533.452	13044
2535.398	13115
2537.342	12994
2539.284	12986
2541.229	12961
2543.173	13106
2545.114	13101
2547.055	13161
2548.996	12939
2550.938	12957
2552.878	12929
2554.817	13050
2556.756	12974
2558.695	12961
2560.633	12866
2562.572	12907
2564.509	13090
2566.445	12989
2568.382	12958
2570.317	12981
2572.254	12744
2574.189	13011
2576.123	12963
2578.057	12950
2579.99	12990
2581.923	13029
2583.855	13075
2585.788	12995
2587.719	12865
2589.65	12912
2591.579	12743
2593.511	12949
2595.44	12887
2597.37	12893
2599.297	12929
2601.225	12934
2603.153	12727
2605.08	12768
2607.007	12920
2608.932	12850
2610.858	12874
2612.782	12885
2614.709	12799
2616.632	12799
2618.556	12825
2620.478	12964
2622.401	12955
2624.324	12955
2626.247	12965
2628.167	12774
2630.088	12902
2632.008	12821
2633.928	12830
2635.848	12942
2637.766	12754
2639.684	13080
2641.603	12925
2643.519	12987
2645.437	12980
2647.353	13026
2649.27	12908
2651.184	12976
2653.099	12792
2655.014	12735
2656.928	12867
2658.842	12926
2660.755	12853
2662.667	12851
2664.579	12973
2666.491	12730
2668.402	12853
2670.312	12885
2672.222	12606
2674.132	12800
2676.042	12774
2677.951	12723
2679.859	12796
2681.766	12781
2683.674	12806
2685.582	12669
2687.488	12735
2689.392	12777
2691.298	12629
2693.202	12647
2695.107	12724
2697.012	12613
2698.914	12798
2700.817	12643
2702.72	12755
2704.622	12425
2706.524	12775
2708.425	12651
2710.326	12672
2712.225	12494
2714.125	12684
2716.024	12662
2717.923	12495
2719.822	12590
2721.719	12353
2723.616	12498
2725.512	12439
2727.41	12542
2729.305	12417
2731.201	12499
2733.095	12515
2734.99	12627
2736.884	12408
2738.778	12500
2740.67	12401
2742.562	12400
2744.455	12426
2746.346	12476
2748.238	12487
2750.129	12506
2752.018	12417
2753.907	12344
2755.797	12361
2757.687	12462
2759.575	12473
2761.462	12327
2763.349	12544
2765.237	12295
2767.124	12351
2769.009	12314
2770.894	12301
2772.779	12253
2774.663	12382
2776.547	12382
2778.431	12319
2780.314	12309
2782.197	12252
2784.078	12252
2785.96	12287
2787.842	12217
2789.723	12337
2791.603	12249
2793.483	12247
2795.362	12332
2797.241	12330
2799.121	12088
2800.997	12153
2802.874	12318
2804.751	12231
2806.628	12256
2808.506	12341
2810.38	12210
2812.255	12317
2814.13	12234
2816.003	12168
2817.878	12174
2819.752	12199
2821.623	12188
2823.496	12249
2825.368	12094
2827.238	12044
2829.111	12126
2830.98	12126
2832.851	12049
2834.719	12081
2836.589	12049
2838.458	12188
2840.327	12051
2842.193	12151
2844.061	12124
2845.927	12163
2847.794	12123
2849.66	12056
2851.525	12134
2853.39	12048
2855.254	12082
2857.117	12093
2858.983	12194
2860.845	12021
2862.707	12009
2864.569	12093
2866.431	12085
2868.293	12188
2870.154	12065
2872.013	12240
2873.873	12120
2875.733	12214
2877.592	12308
2879.451	12244
2881.309	12390
2883.166	12422
2885.022	12550
2886.879	12330
2888.736	12389
2890.591	12457
2892.446	12312
2894.301	12310
2896.155	12413
2898.009	12389
2899.863	12281
2901.716	12258
2903.568	12462
2905.419	12111
2907.27	12266
2909.123	12352
2910.973	12396
2912.824	12445
2914.673	12417
2916.521	12488
2918.372	12462
2920.22	12645
2922.067	12374
2923.914	12674
2925.761	12706
2927.607	12557
2929.455	12779
2931.301	12784
2933.144	12703
2934.99	12737
2936.833	12749
2938.678	12914
2940.522	12957
2942.364	13041
2944.207	12912
2946.048	13007
2947.891	13079
2949.731	12970
2951.571	12948
2953.412	12987
2955.25	12867
2957.09	12756
2958.93	12648
2960.767	12654
2962.606	12461
2964.443	12558
2966.279	12415
2968.116	12468
2969.953	12239
2971.788	12376
2973.623	12325
2975.457	12370
2977.292	12320
2979.127	12280
2980.959	12273
2982.792	12348
2984.624	12232
2986.455	12015
2988.288	12333
2990.119	12093
2991.949	12042
2993.779	12101
2995.608	12091
2997.439	11908
2999.268	12005
3001.096	11877
3002.923	11838
3004.751	11728
3006.578	11811
3008.406	11793
3010.232	11748
3012.057	11618
3013.883	11552
3015.706	11534
3017.532	11624
3019.356	11509
3021.179	11544
3023.002	11421
3024.823	11520
3026.646	11199
3028.469	11512
3030.289	11509
3032.11	11495
3033.93	11390
3035.749	11240
3037.57	11226
3039.39	11277
3041.207	11332
3043.026	11114
3044.842	11463
3046.661	11281
3048.477	11282
3050.294	11134
3052.109	11055
3053.925	11268
3055.739	11143
3057.555	11306
3059.368	11122
3061.181	11085
3062.995	10975
3064.807	11306
3066.62	11025
3068.433	11189
3070.243	11036
3072.054	11038
3073.865	11115
3075.675	11048
3077.485	11035
3079.293	11044
3081.102	11118
3082.911	10997
3084.719	10968
3086.527	11049
3088.333	11032
3090.139	11122
3091.945	11014
3093.75	11017
3095.557	10875
3097.361	10821
3099.165	10852
3100.969	11074
3102.772	10821
3104.575	10739
3106.379	10845
3108.181	10837
3109.982	10749
3111.783	10750
3113.584	10749
3115.386	10743
3117.186	10652
3118.985	10725
3120.783	10695
3122.582	10594
3124.381	10643
3126.179	10685
3127.975	10588
3129.772	10666
3131.569	10841
3133.365	10549
3135.161	10694
3136.956	10682
3138.751	10515
3140.544	10473
3142.338	10657
3144.132	10691
3145.925	10554
3147.717	10447
3149.509	10540
3151.301	10427
3153.091	10600
3154.884	10423
3156.673	10446
3158.462	10385
3160.252	10457
3162.041	10512
3163.831	10385
3165.618	10463
3167.405	10254
3169.193	10281
3170.979	10358
3172.767	10362
3174.553	10514
3176.338	10337
3178.123	10343
3179.907	10421
3181.692	10242
3183.477	10257
3185.259	10268
3187.042	10342
3188.824	10135
3190.607	10443
3192.389	10347
3194.17	10160
3195.951	10320
3197.73	10247
3199.51	10200
3201.289	10390
3203.07	10329
3204.848	10277
3206.626	10233
3208.403	10248
3210.18	10214
3211.959	10183
3213.735	10214
3215.511	10184
3217.285	10147
3219.06	10227
3220.836	10146
3222.611	10042
3224.384	10178
3226.158	10207
3227.929	10124
3229.702	10166
3231.476	10184
3233.248	10077
3235.018	10192
3236.789	10167
3238.56	10260
3240.33	9990
3242.1	10094
3243.869	10120
3245.637	9990
3247.405	10019
3249.172	10208
3250.941	10059
3252.707	10143
3254.474	10191
3256.24	9976
3258.006	10031
3259.772	10033
3261.537	10066
3263.301	10090
3265.065	9987
3266.828	10109
3268.592	9989
3270.355	10023
3272.117	9988
3273.878	10099
3275.64	10185
3277.401	9983
3279.162	10027
3280.922	10127
3282.682	9917
3284.441	10063
3286.199	9969
3287.959	9950
3289.716	9803
3291.475	10043
3293.232	9970
3294.988	9906
3296.744	9912
3298.501	10057
3300.256	9981
3302.011	9888
3303.766	9860
3305.52	9976
3307.275	9982
3309.028	10030
3310.781	10059
3312.533	9913
3314.285	9886
3316.038	9891
3317.789	9988
3319.54	9936
3321.289	9731
3323.039	9899
3324.789	9887
3326.539	9773
3328.288	9899
3330.035	9794
3331.783	9736
3333.531	9767
3335.28	9753
3337.025	9874
3338.771	9890
3340.518	9955
3342.262	9762
3344.009	9803
3345.753	9831
3347.497	9749
3349.24	9801
3350.983	9791
3352.726	9604
3354.469	9603
3356.212	9584
3357.952	9677
3359.694	9805
3361.434	9595
3363.176	9712
3364.916	9716
3366.654	9693
3368.394	9620
3370.132	9679
3371.871	9639
3373.61	9664
3375.346	9631
3377.083	9496
3378.82	9537
3380.556	9572
3382.292	9509
3384.027	9647
3385.763	9608
3387.497	9466
3389.231	9691
3390.965	9592
3392.698	9555
3394.431	9548
3396.164	9493
3397.896	9551
3399.627	9516
3401.36	9565
3403.09	9496
3404.82	9452
3406.55	9519
3408.279	9437
3410.01	9487
3411.738	9489
3413.467	9496
3415.194	9469
3416.92	9583
3418.647	9324
3420.375	9409
3422.102	9444
3423.827	9411
3425.553	9486
3427.277	9337
3429.003	9337
3430.727	9469
3432.451	9334
3434.173	9211
3435.896	9283
3437.62	9211
3439.343	9349
3441.063	9187
3442.785	9255
3444.505	9183
3446.226	9150
3447.948	9253
3449.666	9050
3451.386	9291
3453.104	9123
3454.823	9169
3456.541	9217
3458.259	9112
3459.976	9065
3461.693	9083
3463.408	9153
3465.125	9102
3466.841	9007
3468.556	9107
3470.271	8921
3471.985	9116
3473.698	9010
3475.414	8962
3477.126	9067
3478.838	9061
3480.55	8961
3482.263	8847
3483.975	8852
3485.686	8985
3487.396	8861
3489.106	8875
3490.817	8741
3492.526	8928
3494.236	8869
3495.944	8856
3497.652	8938
3499.359	8880
3501.066	8848
3502.775	8901
3504.481	8871
3506.187	8971
3507.893	8842
3509.598	8754
3511.304	8837
3513.009	8754
3514.713	8709
3516.417	8759
3518.12	8868
3519.821	8764
3521.525	8622
3523.228	8804
3524.929	8761
3526.631	8635
3528.33	8637
3530.032	8681
3531.733	8720
3533.433	8714
3535.131	8657
3536.83	8632
3538.529	8630
3540.227	8685
3541.925	8683
3543.623	8525
3545.319	8698
3547.016	8616
3548.712	8619
3550.408	8649
3552.103	8564
3553.798	8512
3555.491	8596
3557.188	8587
3558.88	8537
3560.574	8491
3562.266	8624
3563.959	8407
3565.651	8492
3567.343	8539
3569.035	8404
3570.725	8425
3572.415	8428
3574.106	8463
3575.797	8437
3577.485	8460
3579.174	8402
3580.863	8340
3582.551	8363
3584.238	8446
3585.926	8416
3587.613	8461
3589.3	8329
3590.986	8181
3592.671	8330
3594.357	8321
3596.042	8398
3597.726	8288
3599.41	8332
3601.094	8356
3602.778	8255
3604.461	8259
3606.143	8274
3607.825	8340
3609.507	8267
3611.188	8109
3612.87	8189
3614.551	8261
3616.229	8199
3617.909	8097
3619.589	8185
3621.269	8249
3622.948	8053
3624.625	8028
3626.302	8110
3627.98	8134
3629.657	8118
3631.334	8189
3633.01	8103
3634.686	8100
3636.361	8014
3638.036	8085
3639.712	7915
3641.385	8025
3643.06	8009
3644.732	7899
3646.405	7890
3648.08	8031
3649.751	8114
3651.424	7909
3653.094	8014
3654.766	7974
3656.436	7927
3658.106	7897
3659.777	7837
3661.446	7959
3663.115	8005
3664.783	7927
3666.452	7879
3668.121	7984
3669.788	7870
3671.454	7903
3673.121	7823
3674.789	7976
3676.455	7816
3678.12	7954
3679.784	7869
3681.45	7773
3683.114	7824
3684.779	7846
3686.442	7880
3688.105	7834
3689.768	7829
3691.43	7846
3693.093	7740
3694.754	7621
3696.415	7600
3698.076	7947
3699.736	7758
3701.396	7724
3703.057	7759
3704.716	7779
3706.375	7835
3708.034	7785
3709.692	7739
3711.351	7617
3713.008	7800
3714.665	7744
3716.321	7722
3717.977	7758
3719.634	7679
3721.29	7792
3722.945	7760
3724.598	7694
3726.253	7734
3727.907	7542
3729.561	7711
3731.214	7692
3732.867	7542
3734.518	7540
3736.171	7685
3737.824	7707
3739.474	7519
3741.125	7605
3742.775	7595
3744.425	7646
3746.074	7670
3747.725	7554
3749.373	7701
3751.022	7606
3752.669	7633
3754.318	7584
3755.966	7548
3757.612	7530
3759.259	7546
3760.905	7424
3762.55	7538
3764.197	7451
3765.842	7474
3767.486	7419
3769.131	7499
3770.774	7420
3772.417	7368
3774.061	7420
3775.705	7383
3777.347	7396
3778.988	7505
3780.629	7351
3782.271	7406
3783.912	7388
3785.552	7499
3787.192	7462
3788.831	7280
3790.472	7413
3792.112	7382
3793.75	7348
3795.388	7389
3797.024	7269
3798.661	7338
3800.3	7340
3801.936	7310
3803.572	7321
3805.208	7191
3806.844	7219
3808.48	7154
3810.115	7234
3811.748	7322
3813.382	7149
3815.016	7156
3816.649	7209
3818.283	7139
3819.914	7117
3821.547	7100
3823.178	7215
3824.809	7143
3826.441	7151
3828.072	7199
3829.701	7139
3831.331	7210
3832.96	7141
3834.591	7104
3836.219	7105
3837.847	7208
3839.475	7091
3841.102	7128
3842.729	7154
3844.357	7158
3845.984	7181
3847.609	7044
3849.234	7016
3850.86	7094
3852.485	6934
3854.11	7060
3855.734	7090
3857.357	7133
3858.981	7055
3860.603	6936
3862.227	7015
3863.848	6994
3865.471	6840
3867.092	6940
3868.713	7012
3870.334	6931
3871.954	6976
3873.575	6872
3875.194	6884
3876.813	7027
3878.433	6967
3880.051	6816
3881.669	6888
3883.286	6838
3884.904	6841
3886.52	6812
3888.138	6861
3889.754	6872
3891.37	6862
3892.985	6802
3894.6	6813
3896.216	6893
3897.831	6851
3899.444	6890
3901.058	6812
3902.67	6972
3904.283	6764
3905.897	6866
3907.509	6778
3909.121	6891
3910.731	6789
3912.342	6769
3913.954	6714
3915.563	6796
3917.174	6788
3918.783	6860
3920.391	6711
3922.002	6724
3923.611	6741
3925.218	6802
3926.826	6810
3928.432	6749
3930.039	6746
3931.647	6750
3933.253	6683
3934.859	6836
3936.464	6721
3938.068	6668
3939.675	6737
3941.278	6731
3942.883	6761
3944.486	6756
3946.089	6730
3947.692	6677
3949.295	6722
3950.898	6645
3952.499	6674
3954.1	6550
3955.7	6775
3957.303	6575
3958.903	6608
3960.502	6644
3962.101	6728
3963.7	6689
3965.301	6620
3966.899	6597
3968.497	6619
3970.094	6682
3971.691	6535
3973.288	6505
3974.885	6520
3976.481	6533
3978.077	6543
3979.672	6518
3981.267	6580
3982.863	6319
3984.457	6516
3986.051	6408
3987.645	6543
3989.238	6477
3990.831	6383
3992.425	6424
3994.017	6366
3995.607	6334
3997.199	6451
3998.79	6357
4000.382	6505
4001.973	6284
4003.561	6333
4005.151	6325
4006.741	6407
4008.331	6405
4009.918	6362
4011.507	6296
4013.095	6294
4014.681	6291
4016.269	6314
4017.856	6280
4019.443	6255
4021.028	6352
4022.614	6194
4024.199	6203
4025.785	6302
4027.37	6215
4028.953	6216
4030.536	6157
4032.12	6136
4033.704	6268
4035.287	6309
4036.869	6244
4038.45	6273
4040.032	6143
4041.613	6132
4043.195	6043
4044.776	6191
4046.356	6128
4047.935	6219
4049.515	6086
4051.095	6064
4052.674	6161
4054.251	6130
4055.829	6053
4057.406	6112
4058.985	6083
4060.562	6129
4062.139	5957
4063.715	6056
4065.29	6072
4066.865	6059
4068.442	5935
4070.016	6080
4071.59	6029
4073.164	6143
4074.738	6012
4076.312	6048
4077.885	5907
4079.458	6006
4081.03	6091
4082.602	5999
4084.173	5971
4085.745	5946
4087.315	5947
4088.886	5919
4090.456	5913
4092.026	5976
4093.596	5886
4095.165	5995
4096.734	5916
4098.301	5993
4099.869	5889
4101.437	5875
4103.006	5836
4104.572	5799
4106.139	5792
4107.704	5885
4109.27	5879
4110.837	5896
4112.401	5886
4113.966	5795
4115.53	5871
4117.094	5858
4118.659	5804
4120.223	5819
4121.785	5754
4123.347	5884
4124.909	5819
4126.471	5817
4128.034	5759
4129.595	5722
4131.155	5797
4132.716	5729
4134.275	5731
4135.836	5676
4137.395	5746
4138.955	5682
4140.513	5635
4142.071	5661
4143.628	5628
4145.188	5674
4146.745	5755
4148.302	5660
4149.858	5640
4151.414	5634
4152.971	5558
4154.526	5556
4156.081	5665
4157.635	5655
4159.189	5634
4160.745	5664
4162.298	5687
4163.852	5712
4165.405	5597
4166.957	5579
4168.51	5573
4170.063	5661
4171.614	5593
4173.166	5565
4174.717	5489
4176.267	5652
4177.817	5473
4179.368	5451
4180.917	5466
4182.466	5429
4184.016	5469
4185.564	5426
4187.112	5497
4188.66	5493
4190.207	5468
4191.754	5391
4193.301	5414
4194.848	5470
4196.394	5539
4197.94	5481
4199.484	5388
4201.03	5478
4202.575	5434
4204.12	5411
4205.663	5422
4207.207	5314
4208.75	5364
4210.292	5299
4211.836	5416
4213.378	5349
4214.92	5339
4216.46	5253
4218.002	5322
4219.544	5343
4221.083	5370
4222.625	5372
4224.164	5333
4225.703	5275
4227.244	5366
4228.782	5285
4230.32	5288
4231.857	5261
4233.395	5270
4234.933	5351
4236.471	5288
4238.007	5295
4239.542	5304
4241.078	5247
4242.614	5288
4244.15	5303
4245.685	5310
4247.219	5252
4248.753	5246
4250.287	5184
4251.82	5177
4253.354	5294
4254.887	5269
4256.419	5215
4257.951	5183
4259.483	5210
4261.016	5260
4262.547	5262
4264.078	5155
4265.608	5197
4267.137	5196
4268.668	5205
4270.197	5280
4271.727	5154
4273.254	5223
4274.783	5142
4276.311	5123
4277.84	5126
4279.366	5062
4280.894	5188
4282.42	5100
4283.946	5087
4285.473	5161
4286.998	5085
4288.523	5071
4290.047	5141
4291.572	5119
4293.096	5109
4294.622	5110
4296.144	5197
4297.668	5084
4299.19	5149
4300.713	5093
4302.236	5008
4303.758	5109
4305.279	5004
4306.799	5030
4308.321	4986
4309.842	4957
4311.361	5069
4312.882	5088
4314.401	5059
