400.0961	2524
402.6185	2509
405.1424	2562
407.6635	2577
410.1838	2549
412.7035	2609
415.2225	2518
417.7388	2534
420.2585	2700
422.7754	2728
425.2917	2675
427.8072	2754
430.3221	2773
432.8363	2774
435.3498	2795
437.8626	2806
440.3727	2734
442.8841	2741
445.3969	2770
447.907	2809
450.4142	2720
452.9229	2673
455.4289	2694
457.9362	2701
460.4449	2695
462.9488	2680
465.454	2635
467.9566	2641
470.4604	2649
472.9637	2682
475.4662	2585
477.966	2647
480.4671	2668
482.9656	2690
485.4633	2658
487.9645	2691
490.4608	2665
492.9566	2723
495.4536	2704
497.948	2680
500.4437	2653
502.9387	2633
505.431	2745
507.9226	2719
510.4136	2728
512.9079	2664
515.3975	2703
517.8864	2716
520.3746	2594
522.8622	2652
525.3491	2739
527.8394	2744
530.3249	2726
532.8098	2774
535.2939	2738
537.7774	2681
540.2623	2700
542.7444	2720
545.2259	2758
547.7067	2768
550.1868	2772
552.6683	2770
555.147	2717
557.6231	2775
560.1005	2786
562.5773	2782
565.0534	2791
567.5308	2830
570.0056	2887
572.4776	2827
574.951	2885
577.4237	2828
579.8978	2885
582.3671	2920
584.8378	2967
587.3079	2925
589.7773	2864
592.244	3005
594.714	2898
597.1793	2877
599.6461	2882
602.1121	2877
604.5754	2876
607.0421	2870
609.5042	2829
611.9675	2800
614.4282	2798
616.8902	2781
619.3515	2790
621.8122	2809
624.2702	2802
626.7296	2810
629.1863	2734
631.6423	2724
634.1017	2704
636.5563	2803
639.0104	2762
641.4658	2769
643.9185	2769
646.3725	2721
648.8239	2783
651.2766	2860
653.7266	2745
656.176	2833
658.6247	2747
661.0748	2842
663.5242	2840
665.9709	2844
668.417	2767
670.8624	2804
673.3092	2855
675.7533	2785
678.1968	2845
680.6395	2888
683.0817	2812
685.5251	2853
687.9659	2945
690.4061	2843
692.8456	2874
695.2844	2856
697.7226	2881
700.1621	2883
702.599	2872
705.0332	2912
707.4688	2924
709.9036	2910
712.3399	2893
714.7735	2884
717.2044	2955
719.6367	2970
722.0683	2907
724.4993	2960
726.9296	2978
729.3593	2951
731.7883	3002
734.2147	2926
736.6423	2953
739.0714	2978
741.4958	2941
743.9216	2987
746.3447	2965
748.7691	2945
751.1929	3004
753.616	3074
756.0366	3117
758.4584	3064
760.8776	2978
763.2982	3098
765.718	3012
768.1373	3068
770.5539	3053
772.9698	3132
775.3871	3064
777.8038	3069
780.2178	3064
782.6332	3088
785.0459	3152
787.458	3051
789.8714	3066
792.2842	3116
794.6943	3096
797.1038	3087
799.5127	3022
801.9209	3077
804.3324	2970
806.7393	3037
809.1456	3204
811.5513	3086
813.9562	3149
816.3625	3116
818.7663	3041
821.1693	3134
823.5718	3163
825.9735	3146
828.3746	3225
830.7771	3193
833.177	3143
835.5762	3067
837.9747	3182
840.3727	3052
842.772	3107
845.1666	3128
847.5626	3173
849.958	3222
852.3527	3218
854.7488	3230
857.1403	3203
859.5331	3219
861.9253	3261
864.3168	3220
866.7057	3203
869.098	3188
871.4876	3212
873.8746	3223
876.263	3257
878.6487	3246
881.0378	3099
883.4243	3243
885.8081	3147
888.1933	3257
890.5759	3222
892.9598	3157
895.343	3285
897.7256	3249
900.1057	3263
902.4871	3209
904.8659	3233
907.246	3208
909.6254	3278
912.0023	3249
914.3786	3348
916.7562	3342
919.1331	3337
921.5074	3375
923.8831	3402
926.2562	3481
928.6287	3413
931.0005	3491
933.3757	3454
935.7462	3486
938.1162	3497
940.4855	3530
942.8542	3550
945.2242	3693
947.5916	3844
949.9584	4011
952.3266	4137
954.6921	4363
957.0571	4646
959.4233	4901
961.787	4934
964.15	4884
966.5125	4807
968.8742	4455
971.2354	4228
973.5959	3895
975.9559	3631
978.3151	3565
980.6738	3488
983.0338	3417
985.3912	3401
987.7461	3385
990.1022	3353
992.4578	3380
994.8127	3281
997.1689	3342
999.5207	3316
1001.874	3459
1004.226	3293
1006.576	3438
1008.929	3387
1011.28	3373
1013.628	3335
1015.977	3346
1018.324	3458
1020.674	3358
1023.019	3338
1025.366	3477
1027.713	3473
1030.056	3379
1032.399	3455
1034.746	3443
1037.087	3457
1039.431	3406
1041.771	3439
1044.113	3475
1046.454	3436
1048.793	3475
1051.133	3366
1053.471	3479
1055.807	3515
1058.146	3452
1060.483	3471
1062.818	3458
1065.153	3557
1067.489	3453
1069.822	3592
1072.156	3617
1074.488	3587
1076.82	3649
1079.15	3540
1081.48	3539
1083.814	3430
1086.143	3571
1088.471	3432
1090.799	3358
1093.126	3471
1095.452	3359
1097.78	3396
1100.105	3385
1102.43	3414
1104.754	3388
1107.077	3461
1109.4	3397
1111.722	3439
1114.044	3403
1116.365	3409
1118.685	3433
1121.005	3474
1123.324	3425
1125.643	3440
1127.961	3425
1130.278	3430
1132.595	3347
1134.911	3472
1137.226	3384
1139.541	3379
1141.854	3365
1144.167	3428
1146.482	3386
1148.793	3325
1151.105	3374
1153.414	3402
1155.725	3374
1158.033	3385
1160.344	3399
1162.651	3426
1164.959	3453
1167.265	3459
1169.572	3365
1171.878	3288
1174.184	3382
1176.488	3409
1178.79	3433
1181.094	3439
1183.396	3450
1185.699	3467
1188.001	3403
1190.301	3473
1192.6	3341
1194.9	3460
1197.2	3396
1199.497	3442
1201.794	3445
1204.09	3402
1206.387	3445
1208.684	3481
1210.978	3425
1213.272	3434
1215.565	3355
1217.858	3489
1220.15	3469
1222.443	3445
1224.734	3432
1227.024	3443
1229.313	3424
1231.602	3436
1233.892	3513
1236.18	3544
1238.467	3564
1240.754	3645
1243.04	3692
1245.325	3581
1247.612	3543
1249.896	3570
1252.178	3591
1254.461	3606
1256.743	3580
1259.027	3554
1261.308	3579
1263.587	3579
1265.867	3560
1268.146	3681
1270.425	3615
1272.703	3597
1274.981	3659
1277.256	3620
1279.532	3654
1281.808	3649
1284.083	3588
1286.358	3603
1288.63	3538
1290.904	3558
1293.175	3525
1295.449	3502
1297.719	3578
1299.99	3599
1302.259	3555
1304.529	3563
1306.798	3510
1309.065	3585
1311.333	3469
1313.599	3608
1315.866	3480
1318.131	3490
1320.396	3528
1322.66	3555
1324.925	3630
1327.187	3537
1329.448	3527
1331.711	3565
1333.974	3531
1336.234	3558
1338.493	3552
1340.752	3541
1343.01	3531
1345.269	3600
1347.526	3529
1349.784	3541
1352.04	3561
1354.295	3532
1356.552	3525
1358.806	3574
1361.059	3506
1363.312	3561
1365.564	3566
1367.818	3520
1370.069	3610
1372.318	3502
1374.568	3576
1376.817	3602
1379.066	3505
1381.316	3573
1383.564	3569
1385.809	3609
1388.056	3620
1390.301	3610
1392.549	3672
1394.793	3658
1397.036	3651
1399.279	3664
1401.522	3722
1403.763	3736
1406.007	3726
1408.248	3689
1410.487	3660
1412.727	3718
1414.965	3653
1417.205	3668
1419.442	3687
1421.68	3637
1423.915	3730
1426.152	3699
1428.388	3738
1430.623	3700
1432.857	3756
1435.091	3699
1437.323	3749
1439.556	3759
1441.789	3762
1444.019	3674
1446.25	3764
1448.48	3805
1450.708	3719
1452.938	3773
1455.167	3779
1457.394	3805
1459.62	3922
1461.846	3813
1464.073	3714
1466.299	3737
1468.523	3720
1470.746	3758
1472.969	3735
1475.191	3704
1477.415	3708
1479.636	3673
1481.858	3666
1484.078	3604
1486.298	3614
1488.518	3449
1490.736	3569
1492.954	3491
1495.169	3553
1497.386	3504
1499.602	3490
1501.819	3521
1504.034	3585
1506.248	3487
1508.462	3440
1510.675	3468
1512.888	3572
1515.1	3574
1517.311	3480
1519.522	3578
1521.732	3473
1523.942	3447
1526.151	3587
1528.36	3470
1530.566	3500
1532.773	3502
1534.98	3484
1537.187	3521
1539.392	3567
1541.596	3524
1543.801	3512
1546.005	3573
1548.208	3553
1550.411	3649
1552.612	3577
1554.814	3535
1557.013	3652
1559.212	3608
1561.414	3567
1563.612	3525
1565.811	3455
1568.007	3670
1570.203	3613
1572.403	3673
1574.598	3607
1576.792	3576
1578.988	3597
1581.181	3649
1583.376	3652
1585.568	3588
1587.761	3600
1589.952	3648
1592.143	3618
1594.333	3686
1596.524	3603
1598.715	3623
1600.903	3711
1603.091	3638
1605.278	3605
1607.466	3690
1609.652	3676
1611.838	3690
1614.023	3655
1616.207	3652
1618.391	3657
1620.576	3756
1622.759	3707
1624.941	3709
1627.123	3655
1629.304	3694
1631.484	3737
1633.664	3753
1635.844	3788
1638.022	3800
1640.201	3748
1642.38	3800
1644.556	3767
1646.732	3774
1648.908	3765
1651.084	3883
1653.257	3727
1655.433	3751
1657.607	3811
1659.779	3746
1661.951	3817
1664.122	3868
1666.295	3918
1668.467	3864
1670.635	3856
1672.805	3861
1674.973	3839
1677.142	3817
1679.31	3806
1681.478	3869
1683.644	3886
1685.81	3774
1687.975	3812
1690.142	3758
1692.305	3750
1694.468	3730
1696.632	3764
1698.794	3778
1700.957	3722
1703.119	3766
1705.279	3622
1707.439	3657
1709.598	3658
1711.758	3617
1713.917	3672
1716.075	3618
1718.231	3643
1720.388	3674
1722.543	3629
1724.702	3584
1726.856	3662
1729.01	3614
1731.164	3624
1733.317	3605
1735.471	3656
1737.623	3711
1739.774	3615
1741.925	3686
1744.075	3613
1746.225	3568
1748.376	3651
1750.524	3654
1752.672	3729
1754.82	3636
1756.965	3732
1759.113	3702
1761.259	3704
1763.405	3758
1765.549	3624
1767.694	3698
1769.836	3669
1771.981	3617
1774.123	3650
1776.264	3715
1778.405	3621
1780.546	3718
1782.687	3691
1784.827	3603
1786.966	3649
1789.103	3705
1791.242	3723
1793.381	3692
1795.517	3745
1797.653	3777
1799.788	3733
1801.923	3704
1804.057	3659
1806.193	3662
1808.326	3698
1810.457	3696
1812.59	3687
1814.721	3614
1816.855	3720
1818.984	3639
1821.113	3653
1823.244	3686
1825.372	3648
1827.499	3609
1829.63	3660
1831.756	3669
1833.882	3677
1836.007	3659
1838.132	3671
1840.26	3626
1842.384	3719
1844.507	3695
1846.63	3695
1848.752	3630
1850.875	3603
1852.996	3609
1855.118	3673
1857.238	3571
1859.358	3589
1861.477	3712
1863.597	3593
1865.715	3656
1867.832	3695
1869.948	3666
1872.064	3641
1874.181	3687
1876.297	3587
1878.411	3728
1880.526	3698
1882.639	3617
1884.752	3585
1886.865	3691
1888.977	3598
1891.089	3727
1893.2	3680
1895.308	3777
1897.42	3626
1899.53	3714
1901.639	3620
1903.745	3693
1905.853	3696
1907.962	3712
1910.067	3661
1912.174	3679
1914.278	3698
1916.383	3644
1918.486	3726
1920.592	3676
1922.694	3666
1924.797	3631
1926.898	3672
1929	3738
1931.102	3701
1933.203	3695
1935.301	3719
1937.401	3707
1939.499	3708
1941.598	3713
1943.697	3764
1945.793	3700
1947.888	3720
1949.985	3659
1952.08	3717
1954.176	3698
1956.269	3701
1958.364	3736
1960.457	3669
1962.549	3718
1964.642	3602
1966.733	3693
1968.823	3694
1970.913	3571
1973.005	3706
1975.093	3716
1977.184	3691
1979.271	3670
1981.359	3684
1983.446	3664
1985.532	3701
1987.619	3691
1989.705	3730
1991.789	3660
1993.874	3708
1995.956	3594
1998.041	3709
2000.123	3632
2002.206	3684
2004.287	3728
2006.368	3628
2008.449	3701
2010.529	3574
2012.609	3647
2014.688	3643
2016.766	3676
2018.843	3659
2020.922	3668
2022.999	3698
2025.074	3678
2027.15	3768
2029.225	3614
2031.299	3633
2033.375	3676
2035.447	3753
2037.52	3720
2039.592	3699
2041.664	3728
2043.736	3706
2045.807	3644
2047.876	3756
2049.947	3643
2052.015	3699
2054.086	3728
2056.153	3759
2058.221	3806
2060.288	3757
2062.353	3661
2064.42	3794
2066.486	3617
2068.55	3750
2070.614	3665
2072.678	3693
2074.741	3745
2076.805	3678
2078.866	3755
2080.929	3732
2082.99	3750
2085.049	3690
2087.109	3639
2089.17	3700
2091.228	3767
2093.286	3724
2095.344	3672
2097.4	3712
2099.46	3633
2101.516	3721
2103.572	3727
2105.626	3725
2107.679	3656
2109.735	3689
2111.788	3779
2113.841	3740
2115.894	3760
2117.945	3776
2119.997	3707
2122.049	3788
2124.1	3774
2126.148	3657
2128.197	3680
2130.246	3695
2132.296	3699
2134.342	3662
2136.39	3730
2138.437	3638
2140.483	3716
2142.527	3780
2144.574	3740
2146.619	3712
2148.661	3783
2150.705	3685
2152.747	3735
2154.792	3589
2156.832	3705
2158.874	3717
2160.915	3616
2162.954	3598
2164.995	3687
2167.034	3656
2169.072	3704
2171.111	3610
2173.148	3627
2175.186	3648
2177.223	3634
2179.258	3676
2181.294	3695
2183.328	3705
2185.362	3762
2187.398	3630
2189.431	3635
2191.463	3522
2193.495	3668
2195.528	3662
2197.56	3668
2199.59	3588
2201.62	3654
2203.649	3703
2205.678	3600
2207.708	3597
2209.737	3617
2211.764	3643
2213.791	3608
2215.817	3653
2217.843	3689
2219.87	3669
2221.895	3660
2223.919	3637
2225.942	3645
2227.966	3642
2229.988	3590
2232.012	3578
2234.032	3637
2236.054	3671
2238.074	3664
2240.095	3693
2242.116	3609
2244.135	3630
2246.153	3643
2248.171	3632
2250.188	3625
2252.208	3643
2254.223	3566
2256.239	3664
2258.255	3562
2260.269	3675
2262.283	3707
2264.3	3611
2266.312	3612
2268.325	3698
2270.336	3586
2272.349	3628
2274.362	3608
2276.372	3592
2278.383	3656
2280.392	3627
2282.402	3625
2284.409	3565
2286.418	3644
2288.427	3608
2290.433	3642
2292.441	3639
2294.446	3572
2296.453	3752
2298.459	3615
2300.463	3593
2302.466	3632
2304.471	3647
2306.475	3669
2308.477	3649
2310.478	3643
2312.481	3691
2314.481	3624
2316.481	3602
2318.482	3566
2320.482	3647
2322.48	3567
2324.48	3620
2326.478	3665
2328.476	3669
2330.473	3565
2332.469	3587
2334.465	3634
2336.46	3551
2338.454	3532
2340.45	3585
2342.444	3648
2344.437	3632
2346.43	3560
2348.421	3587
2350.414	3542
2352.405	3547
2354.396	3616
2356.386	3669
2358.376	3514
2360.366	3666
2362.355	3571
2364.343	3650
2366.331	3644
2368.317	3559
2370.304	3561
2372.292	3561
2374.278	3478
2376.262	3653
2378.247	3549
2380.23	3574
2382.216	3601
2384.199	3527
2386.181	3519
2388.163	3569
2390.144	3548
2392.127	3553
2394.107	3602
2396.087	3538
2398.066	3618
2400.046	3541
2402.023	3551
2404.004	3547
2405.981	3620
2407.957	3490
2409.934	3544
2411.91	3503
2413.886	3506
2415.862	3546
2417.836	3520
2419.809	3581
2421.784	3502
2423.756	3580
2425.73	3479
2427.701	3548
2429.672	3532
2431.644	3629
2433.615	3523
2435.586	3556
2437.555	3538
2439.523	3546
2441.491	3487
2443.459	3565
2445.428	3512
2447.395	3517
2449.361	3572
2451.327	3527
2453.292	3578
2455.257	3570
2457.223	3511
2459.187	3506
2461.15	3487
2463.113	3570
2465.076	3486
2467.039	3543
2468.999	3608
2470.96	3571
2472.921	3508
2474.881	3566
2476.841	3479
2478.8	3515
2480.759	3537
2482.717	3500
2484.675	3507
2486.63	3503
2488.589	3518
2490.545	3562
2492.5	3448
2494.455	3544
2496.408	3473
2498.364	3511
2500.318	3563
2502.27	3526
2504.223	3513
2506.174	3494
2508.126	3504
2510.078	3505
2512.03	3477
2513.979	3478
2515.927	3506
2517.877	3533
2519.826	3467
2521.775	3455
2523.722	3437
2525.668	3422
2527.616	3543
2529.561	3529
2531.508	3513
2533.452	3500
2535.398	3519
2537.342	3466
2539.284	3465
2541.229	3453
2543.173	3496
2545.114	3532
2547.055	3537
2548.996	3498
2550.938	3479
2552.878	3419
2554.817	3541
2556.756	3512
2558.695	3477
2560.633	3446
2562.572	3515
2564.509	3524
2566.445	3489
2568.382	3457
2570.317	3515
2572.254	3600
2574.189	3534
2576.123	3508
2578.057	3417
2579.99	3480
2581.923	3509
2583.855	3482
2585.788	3479
2587.719	3528
2589.65	3405
2591.579	3578
2593.511	3509
2595.44	3464
2597.37	3474
2599.297	3530
2601.225	3378
2603.153	3487
2605.08	3585
2607.007	3445
2608.932	3466
2610.858	3449
2612.782	3468
2614.709	3557
2616.632	3584
2618.556	3511
2620.478	3535
2622.401	3488
2624.324	3624
2626.247	3439
2628.167	3462
2630.088	3575
2632.008	3496
2633.928	3471
2635.848	3526
2637.766	3525
2639.684	3447
2641.603	3586
2643.519	3523
2645.437	3583
2647.353	3528
2649.27	3469
2651.184	3568
2653.099	3582
2655.014	3488
2656.928	3514
2658.842	3502
2660.755	3570
2662.667	3604
2664.579	3582
2666.491	3494
2668.402	3542
2670.312	3488
2672.222	3514
2674.132	3440
2676.042	3549
2677.951	3532
2679.859	3482
2681.766	3512
2683.674	3466
2685.582	3447
2687.488	3528
2689.392	3471
2691.298	3530
2693.202	3503
2695.107	3588
2697.012	3550
2698.914	3564
2700.817	3444
2702.72	3523
2704.622	3530
2706.524	3492
2708.425	3413
2710.326	3508
2712.225	3490
2714.125	3409
2716.024	3477
2717.923	3489
2719.822	3472
2721.719	3471
2723.616	3459
2725.512	3463
2727.41	3459
2729.305	3527
2731.201	3485
2733.095	3528
2734.99	3467
2736.884	3385
2738.778	3517
2740.67	3533
2742.562	3445
2744.455	3504
2746.346	3528
2748.238	3464
2750.129	3391
2752.018	3469
2753.907	3516
2755.797	3495
2757.687	3534
2759.575	3449
2761.462	3444
2763.349	3477
2765.237	3449
2767.124	3431
2769.009	3454
2770.894	3496
2772.779	3548
2774.663	3532
2776.547	3510
2778.431	3430
2780.314	3444
2782.197	3409
2784.078	3502
2785.96	3405
2787.842	3514
2789.723	3431
2791.603	3561
2793.483	3435
2795.362	3425
2797.241	3405
2799.121	3431
2800.997	3430
2802.874	3517
2804.751	3518
2806.628	3429
2808.506	3448
2810.38	3486
2812.255	3492
2814.13	3383
2816.003	3454
2817.878	3363
2819.752	3461
2821.623	3509
2823.496	3491
2825.368	3472
2827.238	3553
2829.111	3468
2830.98	3440
2832.851	3432
2834.719	3526
2836.589	3522
2838.458	3458
2840.327	3466
2842.193	3426
2844.061	3469
2845.927	3489
2847.794	3467
2849.66	3529
2851.525	3511
2853.39	3576
2855.254	3577
2857.117	3555
2858.983	3605
2860.845	3611
2862.707	3585
2864.569	3689
2866.431	3695
2868.293	3725
2870.154	3698
2872.013	3785
2873.873	3767
2875.733	3793
2877.592	3921
2879.451	3906
2881.309	3865
2883.166	3870
2885.022	4011
2886.879	4050
2888.736	4012
2890.591	4015
2892.446	4009
2894.301	4099
2896.155	4002
2898.009	4059
2899.863	4039
2901.716	3964
2903.568	4008
2905.419	3979
2907.27	3897
2909.123	4023
2910.973	3959
2912.824	4220
2914.673	4194
2916.521	4114
2918.372	4187
2920.22	4225
2922.067	4298
2923.914	4418
2925.761	4357
2927.607	4482
2929.455	4470
2931.301	4641
2933.144	4605
2934.99	4688
2936.833	4608
2938.678	4691
2940.522	4801
2942.364	4904
2944.207	4835
2946.048	4846
2947.891	4896
2949.731	4949
2951.571	4906
2953.412	4874
2955.25	4800
2957.09	4855
2958.93	4551
2960.767	4701
2962.606	4533
2964.443	4555
2966.279	4497
2968.116	4470
2969.953	4332
2971.788	4368
2973.623	4250
2975.457	4280
2977.292	4258
2979.127	4291
2980.959	4340
2982.792	4246
2984.624	4189
2986.455	4223
2988.288	4148
2990.119	4077
2991.949	4059
2993.779	4032
2995.608	4053
2997.439	3952
2999.268	3947
3001.096	3907
3002.923	3898
3004.751	3968
3006.578	3755
3008.406	3751
3010.232	3721
3012.057	3715
3013.883	3610
3015.706	3578
3017.532	3537
3019.356	3666
3021.179	3570
3023.002	3470
3024.823	3548
3026.646	3501
3028.469	3400
3030.289	3368
3032.11	3517
3033.93	3405
3035.749	3506
3037.57	3420
3039.39	3370
3041.207	3393
3043.026	3426
3044.842	3398
3046.661	3517
3048.477	3414
3050.294	3343
3052.109	3308
3053.925	3373
3055.739	3388
3057.555	3428
3059.368	3343
3061.181	3435
3062.995	3409
3064.807	3404
3066.62	3411
3068.433	3485
3070.243	3455
3072.054	3394
3073.865	3338
3075.675	3378
3077.485	3431
3079.293	3356
3081.102	3384
3082.911	3345
3084.719	3413
3086.527	3340
3088.333	3363
3090.139	3353
3091.945	3314
3093.75	3328
3095.557	3320
3097.361	3308
3099.165	3301
3100.969	3338
3102.772	3355
3104.575	3297
3106.379	3303
3108.181	3261
3109.982	3246
3111.783	3294
3113.584	3306
3115.386	3302
3117.186	3336
3118.985	3258
3120.783	3295
3122.582	3240
3124.381	3283
3126.179	3289
3127.975	3281
3129.772	3314
3131.569	3287
3133.365	3174
3135.161	3224
3136.956	3229
3138.751	3243
3140.544	3276
3142.338	3288
3144.132	3238
3145.925	3333
3147.717	3337
3149.509	3268
3151.301	3222
3153.091	3257
3154.884	3238
3156.673	3219
3158.462	3183
3160.252	3250
3162.041	3267
3163.831	3279
3165.618	3258
3167.405	3286
3169.193	3343
3170.979	3263
3172.767	3186
3174.553	3216
3176.338	3276
3178.123	3224
3179.907	3180
3181.692	3243
3183.477	3291
3185.259	3282
3187.042	3247
3188.824	3206
3190.607	3176
3192.389	3232
3194.17	3248
3195.951	3197
3197.73	3267
3199.51	3296
3201.289	3217
3203.07	3315
3204.848	3247
3206.626	3286
3208.403	3289
3210.18	3224
3211.959	3245
3213.735	3238
3215.511	3307
3217.285	3181
3219.06	3204
3220.836	3288
3222.611	3240
3224.384	3263
3226.158	3284
3227.929	3216
3229.702	3269
3231.476	3181
3233.248	3193
3235.018	3267
3236.789	3332
3238.56	3250
3240.33	3272
3242.1	3304
3243.869	3311
3245.637	3281
3247.405	3268
3249.172	3206
3250.941	3283
3252.707	3269
3254.474	3352
3256.24	3260
3258.006	3271
3259.772	3277
3261.537	3321
3263.301	3260
3265.065	3279
3266.828	3293
3268.592	3304
3270.355	3265
3272.117	3268
3273.878	3248
3275.64	3288
3277.401	3258
3279.162	3253
3280.922	3278
3282.682	3285
3284.441	3214
3286.199	3230
3287.959	3295
3289.716	3330
3291.475	3347
3293.232	3266
3294.988	3314
3296.744	3342
3298.501	3229
3300.256	3367
3302.011	3350
3303.766	3345
3305.52	3299
3307.275	3219
3309.028	3289
3310.781	3365
3312.533	3335
3314.285	3364
3316.038	3321
3317.789	3228
3319.54	3351
3321.289	3281
3323.039	3330
3324.789	3251
3326.539	3344
3328.288	3340
3330.035	3228
3331.783	3334
3333.531	3367
3335.28	3272
3337.025	3369
3338.771	3329
3340.518	3245
3342.262	3262
3344.009	3321
3345.753	3239
3347.497	3314
3349.24	3295
3350.983	3275
3352.726	3272
3354.469	3310
3356.212	3256
3357.952	3188
3359.694	3260
3361.434	3264
3363.176	3251
3364.916	3184
3366.654	3261
3368.394	3248
3370.132	3302
3371.871	3262
3373.61	3291
3375.346	3203
3377.083	3309
3378.82	3233
3380.556	3220
3382.292	3175
3384.027	3238
3385.763	3209
3387.497	3270
3389.231	3273
3390.965	3197
3392.698	3210
3394.431	3195
3396.164	3176
3397.896	3225
3399.627	3155
3401.36	3133
3403.09	3224
3404.82	3136
3406.55	3212
3408.279	3133
3410.01	3212
3411.738	3110
3413.467	3150
3415.194	3143
3416.92	3139
3418.647	3188
3420.375	3224
3422.102	3204
3423.827	3194
3425.553	3148
3427.277	3146
3429.003	3127
3430.727	3180
3432.451	3221
3434.173	3163
3435.896	3122
3437.62	3159
3439.343	3080
3441.063	3114
3442.785	3140
3444.505	3121
3446.226	3171
3447.948	3113
3449.666	3087
3451.386	3148
3453.104	3111
3454.823	3138
3456.541	3158
3458.259	3073
3459.976	3097
3461.693	3114
3463.408	3051
3465.125	3068
3466.841	2993
3468.556	3103
3470.271	3073
3471.985	3107
3473.698	3057
3475.414	3053
3477.126	3049
3478.838	3003
3480.55	2979
3482.263	3080
3483.975	2994
3485.686	3051
3487.396	2988
3489.106	3000
3490.817	2989
3492.526	2987
3494.236	3024
3495.944	2972
3497.652	2962
3499.359	3006
3501.066	2979
3502.775	3028
3504.481	2962
3506.187	3030
3507.893	2992
3509.598	2896
3511.304	2977
3513.009	2922
3514.713	3029
3516.417	2976
3518.12	2875
3519.821	2939
3521.525	2950
3523.228	2980
3524.929	2948
3526.631	2979
3528.33	2929
3530.032	2989
3531.733	2924
3533.433	2951
3535.131	2940
3536.83	2962
3538.529	2935
3540.227	2965
3541.925	2875
3543.623	2820
3545.319	2943
3547.016	2869
3548.712	2849
3550.408	2846
3552.103	2933
3553.798	2976
3555.491	2900
3557.188	2849
3558.88	2890
3560.574	2765
3562.266	2821
3563.959	2922
3565.651	2835
3567.343	2842
3569.035	2952
3570.725	2850
3572.415	2833
3574.106	2825
3575.797	2904
3577.485	2859
3579.174	2816
3580.863	2877
3582.551	2804
3584.238	2881
3585.926	2829
3587.613	2827
3589.3	2786
3590.986	2812
3592.671	2821
3594.357	2812
3596.042	2743
3597.726	2805
3599.41	2811
3601.094	2841
3602.778	2832
3604.461	2757
3606.143	2802
3607.825	2750
3609.507	2831
3611.188	2834
3612.87	2740
3614.551	2791
3616.229	2682
3617.909	2703
3619.589	2801
3621.269	2767
3622.948	2723
3624.625	2769
3626.302	2715
3627.98	2687
3629.657	2699
3631.334	2703
3633.01	2752
3634.686	2741
3636.361	2743
3638.036	2671
3639.712	2657
3641.385	2639
3643.06	2709
3644.732	2699
3646.405	2694
3648.08	2741
3649.751	2701
3651.424	2641
3653.094	2708
3654.766	2686
3656.436	2674
3658.106	2547
3659.777	2689
3661.446	2643
3663.115	2668
3664.783	2664
3666.452	2614
3668.121	2603
3669.788	2638
3671.454	2643
3673.121	2660
3674.789	2618
3676.455	2621
3678.12	2676
3679.784	2684
3681.45	2567
3683.114	2575
3684.779	2556
3686.442	2611
3688.105	2621
3689.768	2685
3691.43	2619
3693.093	2582
3694.754	2669
3696.415	2613
3698.076	2701
3699.736	2606
3701.396	2628
3703.057	2667
3704.716	2577
3706.375	2610
3708.034	2572
3709.692	2554
3711.351	2589
3713.008	2607
3714.665	2606
3716.321	2613
3717.977	2524
3719.634	2609
3721.29	2561
3722.945	2608
3724.598	2530
3726.253	2587
3727.907	2513
3729.561	2519
3731.214	2567
3732.867	2644
3734.518	2571
3736.171	2550
3737.824	2561
3739.474	2637
3741.125	2546
3742.775	2569
3744.425	2532
3746.074	2596
3747.725	2501
3749.373	2472
3751.022	2556
3752.669	2583
3754.318	2570
3755.966	2579
3757.612	2554
3759.259	2562
3760.905	2571
3762.55	2563
3764.197	2548
3765.842	2493
3767.486	2618
3769.131	2520
3770.774	2539
3772.417	2459
3774.061	2505
3775.705	2528
3777.347	2523
3778.988	2523
3780.629	2613
3782.271	2547
3783.912	2539
3785.552	2551
3787.192	2519
3788.831	2538
3790.472	2490
3792.112	2521
3793.75	2491
3795.388	2448
3797.024	2527
3798.661	2543
3800.3	2533
3801.936	2527
3803.572	2450
3805.208	2516
3806.844	2500
3808.48	2535
3810.115	2562
3811.748	2454
3813.382	2543
3815.016	2510
3816.649	2497
3818.283	2508
3819.914	2473
3821.547	2470
3823.178	2521
3824.809	2521
3826.441	2491
3828.072	2525
3829.701	2499
3831.331	2474
3832.96	2522
3834.591	2442
3836.219	2457
3837.847	2432
3839.475	2466
3841.102	2484
3842.729	2432
3844.357	2456
3845.984	2426
3847.609	2422
3849.234	2509
3850.86	2468
3852.485	2420
3854.11	2452
3855.734	2485
3857.357	2497
3858.981	2419
3860.603	2470
3862.227	2463
3863.848	2470
3865.471	2566
3867.092	2448
3868.713	2495
3870.334	2500
3871.954	2467
3873.575	2471
3875.194	2453
3876.813	2481
3878.433	2398
3880.051	2523
3881.669	2434
3883.286	2383
3884.904	2447
3886.52	2460
3888.138	2478
3889.754	2437
3891.37	2433
3892.985	2447
3894.6	2439
3896.216	2461
3897.831	2434
3899.444	2445
3901.058	2481
3902.67	2435
3904.283	2458
3905.897	2420
3907.509	2422
3909.121	2459
3910.731	2400
3912.342	2358
3913.954	2509
3915.563	2378
3917.174	2403
3918.783	2420
3920.391	2431
3922.002	2380
3923.611	2410
3925.218	2371
3926.826	2408
3928.432	2503
3930.039	2485
3931.647	2447
3933.253	2421
3934.859	2441
3936.464	2408
3938.068	2399
3939.675	2447
3941.278	2434
3942.883	2399
3944.486	2404
3946.089	2394
3947.692	2356
3949.295	2399
3950.898	2383
3952.499	2456
3954.1	2413
3955.7	2397
3957.303	2423
3958.903	2362
3960.502	2371
3962.101	2347
3963.7	2420
3965.301	2514
3966.899	2336
3968.497	2397
3970.094	2372
3971.691	2405
3973.288	2401
3974.885	2410
3976.481	2386
3978.077	2410
3979.672	2406
3981.267	2357
3982.863	2423
3984.457	2375
3986.051	2352
3987.645	2421
3989.238	2397
3990.831	2424
3992.425	2331
3994.017	2433
3995.607	2339
3997.199	2299
3998.79	2336
4000.382	2286
4001.973	2317
4003.561	2381
4005.151	2306
4006.741	2346
4008.331	2311
4009.918	2364
4011.507	2390
4013.095	2372
4014.681	2300
4016.269	2330
4017.856	2305
4019.443	2357
4021.028	2313
4022.614	2330
4024.199	2292
4025.785	2354
4027.37	2312
4028.953	2293
4030.536	2340
4032.12	2305
4033.704	2293
4035.287	2292
4036.869	2298
4038.45	2298
4040.032	2321
4041.613	2294
4043.195	2267
4044.776	2278
4046.356	2317
4047.935	2289
4049.515	2253
4051.095	2304
4052.674	2310
4054.251	2249
4055.829	2325
4057.406	2340
4058.985	2317
4060.562	2318
4062.139	2247
4063.715	2345
4065.29	2355
4066.865	2300
4068.442	2291
4070.016	2262
4071.59	2301
4073.164	2269
4074.738	2267
4076.312	2269
4077.885	2265
4079.458	2318
4081.03	2271
4082.602	2326
4084.173	2300
4085.745	2275
4087.315	2266
4088.886	2284
4090.456	2339
4092.026	2335
4093.596	2268
4095.165	2303
4096.734	2300
4098.301	2252
4099.869	2255
4101.437	2278
4103.006	2271
4104.572	2254
4106.139	2273
4107.704	2297
4109.27	2272
4110.837	2296
4112.401	2233
4113.966	2224
4115.53	2267
4117.094	2236
4118.659	2265
4120.223	2224
4121.785	2227
4123.347	2269
4124.909	2219
4126.471	2276
4128.034	2219
4129.595	2205
4131.155	2229
4132.716	2201
4134.275	2236
4135.836	2217
4137.395	2206
4138.955	2281
4140.513	2166
4142.071	2189
4143.628	2189
4145.188	2178
4146.745	2261
4148.302	2256
4149.858	2130
4151.414	2259
4152.971	2185
4154.526	2147
4156.081	2198
4157.635	2214
4159.189	2187
4160.745	2238
4162.298	2215
4163.852	2204
4165.405	2181
4166.957	2170
4168.51	2209
4170.063	2185
4171.614	2157
4173.166	2164
4174.717	2152
4176.267	2195
4177.817	2157
4179.368	2179
4180.917	2195
4182.466	2143
4184.016	2222
4185.564	2241
4187.112	2238
4188.66	2195
4190.207	2127
4191.754	2164
4193.301	2209
4194.848	2187
4196.394	2217
4197.94	2198
4199.484	2171
4201.03	2143
4202.575	2190
4204.12	2204
4205.663	2150
4207.207	2130
4208.75	2141
4210.292	2111
4211.836	2142
4213.378	2190
4214.92	2182
4216.46	2140
4218.002	2189
4219.544	2167
4221.083	2205
4222.625	2220
4224.164	2126
4225.703	2182
4227.244	2133
4228.782	2120
4230.32	2167
4231.857	2130
4233.395	2161
4234.933	2194
4236.471	2182
4238.007	2172
4239.542	2211
4241.078	2167
4242.614	2133
4244.15	2155
4245.685	2239
4247.219	2161
4248.753	2199
4250.287	2194
4251.82	2197
4253.354	2158
4254.887	2107
4256.419	2164
4257.951	2168
4259.483	2203
4261.016	2135
4262.547	2207
4264.078	2180
4265.608	2141
4267.137	2103
4268.668	2117
4270.197	2115
4271.727	2129
4273.254	2192
4274.783	2124
4276.311	2126
4277.84	2089
4279.366	2131
4280.894	2134
4282.42	2184
4283.946	2186
4285.473	2140
4286.998	2155
4288.523	2130
4290.047	2143
4291.572	2066
4293.096	2139
4294.622	2055
4296.144	2167
4297.668	2055
4299.19	2175
4300.713	2161
4302.236	2103
4303.758	2153
4305.279	2109
4306.799	2031
4308.321	2112
4309.842	2116
4311.361	2085
4312.882	2140
4314.401	2156
