400.0961	3252
402.6185	3387
405.1424	3412
407.6635	3379
410.1838	3303
412.7035	3310
415.2225	3331
417.7388	3495
420.2585	3481
422.7754	3539
425.2917	3638
427.8072	3607
430.3221	3747
432.8363	3622
435.3498	3636
437.8626	3556
440.3727	3571
442.8841	3632
445.3969	3665
447.907	3568
450.4142	3585
452.9229	3552
455.4289	3520
457.9362	3502
460.4449	3600
462.9488	3481
465.454	3506
467.9566	3543
470.4604	3530
472.9637	3521
475.4662	3557
477.966	3548
480.4671	3594
482.9656	3552
485.4633	3503
487.9645	3590
490.4608	3560
492.9566	3557
495.4536	3655
497.948	3559
500.4437	3565
502.9387	3629
505.431	3563
507.9226	3590
510.4136	3525
512.9079	3639
515.3975	3601
517.8864	3630
520.3746	3619
522.8622	3598
525.3491	3649
527.8394	3610
530.3249	3668
532.8098	3620
535.2939	3624
537.7774	3628
540.2623	3650
542.7444	3596
545.2259	3636
547.7067	3637
550.1868	3628
552.6683	3641
555.147	3629
557.6231	3652
560.1005	3703
562.5773	3690
565.0534	3753
567.5308	3759
570.0056	3827
572.4776	3698
574.951	3720
577.4237	3816
579.8978	3909
582.3671	3906
584.8378	3843
587.3079	3811
589.7773	3887
592.244	3801
594.714	3938
597.1793	3869
599.6461	3843
602.1121	3825
604.5754	3727
607.0421	3833
609.5042	3738
611.9675	3832
614.4282	3787
616.8902	3918
619.3515	3787
621.8122	3777
624.2702	3722
626.7296	3730
629.1863	3747
631.6423	3639
634.1017	3738
636.5563	3656
639.0104	3748
641.4658	3603
643.9185	3692
646.3725	3762
648.8239	3785
651.2766	3731
653.7266	3734
656.176	3766
658.6247	3763
661.0748	3812
663.5242	3765
665.9709	3808
668.417	3784
670.8624	3725
673.3092	3909
675.7533	3805
678.1968	3807
680.6395	3830
683.0817	3893
685.5251	3837
687.9659	3859
690.4061	3797
692.8456	3833
695.2844	3862
697.7226	3903
700.1621	3885
702.599	3924
705.0332	3903
707.4688	3942
709.9036	3969
712.3399	3958
714.7735	3908
717.2044	3856
719.6367	4008
722.0683	3934
724.4993	3949
726.9296	3876
729.3593	3926
731.7883	4050
734.2147	4016
736.6423	3952
739.0714	4082
741.4958	3972
743.9216	4025
746.3447	4100
748.7691	4098
751.1929	4049
753.616	4067
756.0366	4080
758.4584	4136
760.8776	4096
763.2982	4130
765.718	4178
768.1373	4222
770.5539	4138
772.9698	4109
775.3871	4130
777.8038	4180
780.2178	4178
782.6332	4010
785.0459	4070
787.458	4177
789.8714	4115
792.2842	4054
794.6943	4080
797.1038	4124
799.5127	4169
801.9209	4150
804.3324	4125
806.7393	4222
809.1456	4225
811.5513	4128
813.9562	4242
816.3625	4175
818.7663	4140
821.1693	4281
823.5718	4224
825.9735	4250
828.3746	4162
830.7771	4161
833.177	4168
835.5762	4216
837.9747	4258
840.3727	4291
842.772	4183
845.1666	4261
847.5626	4221
849.958	4290
852.3527	4369
854.7488	4340
857.1403	4434
859.5331	4320
861.9253	4394
864.3168	4331
866.7057	4329
869.098	4360
871.4876	4325
873.8746	4310
876.263	4332
878.6487	4393
881.0378	4367
883.4243	4348
885.8081	4237
888.1933	4408
890.5759	4297
892.9598	4283
895.343	4307
897.7256	4365
900.1057	4287
902.4871	4284
904.8659	4404
907.246	4389
909.6254	4366
912.0023	4315
914.3786	4399
916.7562	4475
919.1331	4628
921.5074	4675
923.8831	4629
926.2562	4554
928.6287	4707
931.0005	4626
933.3757	4584
935.7462	4598
938.1162	4608
940.4855	4700
942.8542	4774
945.2242	4928
947.5916	5120
949.9584	5178
952.3266	5529
954.6921	5883
957.0571	6142
959.4233	6422
961.787	6545
964.15	6418
966.5125	6141
968.8742	5774
971.2354	5317
973.5959	5158
975.9559	4979
978.3151	4707
980.6738	4664
983.0338	4630
985.3912	4616
987.7461	4550
990.1022	4556
992.4578	4422
994.8127	4494
997.1689	4518
999.5207	4519
1001.874	4599
1004.226	4507
1006.576	4506
1008.929	4493
1011.28	4533
1013.628	4565
1015.977	4568
1018.324	4488
1020.674	4518
1023.019	4583
1025.366	4649
1027.713	4649
1030.056	4529
1032.399	4625
1034.746	4652
1037.087	4698
1039.431	4588
1041.771	4681
1044.113	4634
1046.454	4576
1048.793	4641
1051.133	4628
1053.471	4717
1055.807	4589
1058.146	4662
1060.483	4675
1062.818	4605
1065.153	4634
1067.489	4894
1069.822	4764
1072.156	4818
1074.488	4878
1076.82	4781
1079.15	4787
1081.48	4691
1083.814	4702
1086.143	4638
1088.471	4641
1090.799	4611
1093.126	4563
1095.452	4562
1097.78	4612
1100.105	4651
1102.43	4631
1104.754	4584
1107.077	4616
1109.4	4561
1111.722	4565
1114.044	4528
1116.365	4601
1118.685	4634
1121.005	4602
1123.324	4597
1125.643	4561
1127.961	4620
1130.278	4602
1132.595	4540
1134.911	4560
1137.226	4600
1139.541	4508
1141.854	4548
1144.167	4546
1146.482	4656
1148.793	4556
1151.105	4579
1153.414	4518
1155.725	4542
1158.033	4634
1160.344	4582
1162.651	4614
1164.959	4608
1167.265	4505
1169.572	4564
1171.878	4645
1174.184	4608
1176.488	4601
1178.79	4605
1181.094	4518
1183.396	4537
1185.699	4581
1188.001	4578
1190.301	4533
1192.6	4597
1194.9	4686
1197.2	4500
1199.497	4602
1201.794	4510
1204.09	4585
1206.387	4630
1208.684	4653
1210.978	4561
1213.272	4591
1215.565	4571
1217.858	4571
1220.15	4548
1222.443	4545
1224.734	4709
1227.024	4700
1229.313	4685
1231.602	4703
1233.892	4770
1236.18	4784
1238.467	4702
1240.754	4784
1243.04	4804
1245.325	4895
1247.612	4826
1249.896	4945
1252.178	4869
1254.461	4848
1256.743	4795
1259.027	4756
1261.308	4837
1263.587	4920
1265.867	4851
1268.146	4779
1270.425	4861
1272.703	4822
1274.981	4813
1277.256	4917
1279.532	4807
1281.808	4769
1284.083	4776
1286.358	4803
1288.63	4722
1290.904	4777
1293.175	4708
1295.449	4796
1297.719	4780
1299.99	4666
1302.259	4752
1304.529	4748
1306.798	4684
1309.065	4856
1311.333	4619
1313.599	4663
1315.866	4768
1318.131	4689
1320.396	4715
1322.66	4723
1324.925	4634
1327.187	4652
1329.448	4787
1331.711	4746
1333.974	4834
1336.234	4768
1338.493	4755
1340.752	4776
1343.01	4791
1345.269	4757
1347.526	4707
1349.784	4745
1352.04	4735
1354.295	4665
1356.552	4672
1358.806	4708
1361.059	4708
1363.312	4702
1365.564	4658
1367.818	4751
1370.069	4774
1372.318	4874
1374.568	4711
1376.817	4663
1379.066	4831
1381.316	4840
1383.564	4804
1385.809	4817
1388.056	4805
1390.301	4827
1392.549	4771
1394.793	4869
1397.036	4964
1399.279	5009
1401.522	4993
1403.763	4858
1406.007	4977
1408.248	4831
1410.487	4861
1412.727	4823
1414.965	4903
1417.205	4946
1419.442	4942
1421.68	4954
1423.915	4892
1426.152	4830
1428.388	4986
1430.623	4954
1432.857	4963
1435.091	4992
1437.323	4994
1439.556	5021
1441.789	5090
1444.019	4960
1446.25	5063
1448.48	4996
1450.708	5049
1452.938	5042
1455.167	5097
1457.394	5181
1459.62	5059
1461.846	5125
1464.073	5039
1466.299	5002
1468.523	4921
1470.746	4914
1472.969	4960
1475.191	4865
1477.415	4969
1479.636	4819
1481.858	4810
1484.078	4760
1486.298	4765
1488.518	4688
1490.736	4775
1492.954	4674
1495.169	4766
1497.386	4699
1499.602	4778
1501.819	4684
1504.034	4656
1506.248	4700
1508.462	4638
1510.675	4754
1512.888	4790
1515.1	4755
1517.311	4673
1519.522	4649
1521.732	4702
1523.942	4815
1526.151	4665
1528.36	4646
1530.566	4698
1532.773	4797
1534.98	4736
1537.187	4724
1539.392	4716
1541.596	4858
1543.801	4714
1546.005	4754
1548.208	4808
1550.411	4865
1552.612	4822
1554.814	4824
1557.013	4808
1559.212	4901
1561.414	4889
1563.612	4719
1565.811	4852
1568.007	4720
1570.203	4801
1572.403	4760
1574.598	4863
1576.792	4779
1578.988	4829
1581.181	4785
1583.376	4897
1585.568	4850
1587.761	4794
1589.952	4941
1592.143	4926
1594.333	4837
1596.524	4923
1598.715	4881
1600.903	4886
1603.091	4836
1605.278	4989
1607.466	4875
1609.652	4887
1611.838	4884
1614.023	4872
1616.207	4912
1618.391	4878
1620.576	4843
1622.759	4886
1624.941	5033
1627.123	4968
1629.304	5061
1631.484	4997
1633.664	4946
1635.844	5051
1638.022	5002
1640.201	5079
1642.38	5013
1644.556	5036
1646.732	5064
1648.908	5068
1651.084	5079
1653.257	4963
1655.433	5027
1657.607	5022
1659.779	4961
1661.951	5052
1664.122	5077
1666.295	5056
1668.467	5068
1670.635	5061
1672.805	5087
1674.973	5012
1677.142	5172
1679.31	5046
1681.478	5016
1683.644	5078
1685.81	5142
1687.975	5039
1690.142	4959
1692.305	5072
1694.468	5145
1696.632	4948
1698.794	4930
1700.957	4914
1703.119	4989
1705.279	4873
1707.439	4885
1709.598	4888
1711.758	4771
1713.917	4936
1716.075	4788
1718.231	4856
1720.388	4761
1722.543	4828
1724.702	4877
1726.856	4807
1729.01	4823
1731.164	4905
1733.317	4826
1735.471	4856
1737.623	4755
1739.774	4957
1741.925	4863
1744.075	4979
1746.225	4904
1748.376	4801
1750.524	4945
1752.672	4859
1754.82	4870
1756.965	4841
1759.113	4859
1761.259	4835
1763.405	4803
1765.549	4879
1767.694	4776
1769.836	4861
1771.981	4887
1774.123	4903
1776.264	4926
1778.405	4863
1780.546	4857
1782.687	4887
1784.827	4862
1786.966	4923
1789.103	4876
1791.242	4866
1793.381	4759
1795.517	4916
1797.653	4945
1799.788	4978
1801.923	4911
1804.057	4887
1806.193	4913
1808.326	4957
1810.457	4788
1812.59	4840
1814.721	5023
1816.855	4902
1818.984	4786
1821.113	4952
1823.244	4871
1825.372	4878
1827.499	4876
1829.63	4879
1831.756	4808
1833.882	4842
1836.007	4940
1838.132	4872
1840.26	4857
1842.384	4925
1844.507	4870
1846.63	4889
1848.752	4950
1850.875	4823
1852.996	4828
1855.118	4892
1857.238	4779
1859.358	4907
1861.477	4788
1863.597	4863
1865.715	4824
1867.832	4829
1869.948	4877
1872.064	4855
1874.181	4710
1876.297	4894
1878.411	4802
1880.526	4827
1882.639	4868
1884.752	4835
1886.865	4786
1888.977	4837
1891.089	4936
1893.2	4842
1895.308	4880
1897.42	4859
1899.53	4873
1901.639	4886
1903.745	4923
1905.853	4979
1907.962	4908
1910.067	4844
1912.174	4865
1914.278	4941
1916.383	4910
1918.486	4899
1920.592	4855
1922.694	4947
1924.797	4918
1926.898	4865
1929	4972
1931.102	4969
1933.203	4923
1935.301	4950
1937.401	4945
1939.499	4965
1941.598	5004
1943.697	4957
1945.793	5001
1947.888	4924
1949.985	4905
1952.08	4962
1954.176	4983
1956.269	4937
1958.364	4964
1960.457	4912
1962.549	4933
1964.642	4975
1966.733	5006
1968.823	4954
1970.913	4923
1973.005	4958
1975.093	4909
1977.184	4884
1979.271	4892
1981.359	4924
1983.446	4803
1985.532	4931
1987.619	5010
1989.705	4934
1991.789	4755
1993.874	4944
1995.956	4871
1998.041	4880
2000.123	4990
2002.206	4890
2004.287	4978
2006.368	4855
2008.449	4879
2010.529	4899
2012.609	4918
2014.688	4866
2016.766	4899
2018.843	4914
2020.922	4818
2022.999	4952
2025.074	4909
2027.15	4816
2029.225	4931
2031.299	4871
2033.375	4841
2035.447	4836
2037.52	4870
2039.592	4805
2041.664	4828
2043.736	4881
2045.807	4923
2047.876	4900
2049.947	4970
2052.015	4895
2054.086	4807
2056.153	4863
2058.221	4858
2060.288	4855
2062.353	4943
2064.42	4975
2066.486	4859
2068.55	4904
2070.614	4831
2072.678	4897
2074.741	4895
2076.805	4905
2078.866	4904
2080.929	5032
2082.99	4880
2085.049	4861
2087.109	4927
2089.17	4970
2091.228	4899
2093.286	4758
2095.344	4891
2097.4	4890
2099.46	4944
2101.516	4915
2103.572	4876
2105.626	4923
2107.679	4957
2109.735	4983
2111.788	4945
2113.841	5031
2115.894	4896
2117.945	4919
2119.997	4912
2122.049	4837
2124.1	4903
2126.148	4788
2128.197	4827
2130.246	4888
2132.296	4964
2134.342	4920
2136.39	4866
2138.437	4874
2140.483	4873
2142.527	4864
2144.574	4869
2146.619	4892
2148.661	4927
2150.705	4868
2152.747	5001
2154.792	4788
2156.832	4877
2158.874	4821
2160.915	4896
2162.954	4829
2164.995	4811
2167.034	4785
2169.072	4928
2171.111	4786
2173.148	4770
2175.186	4933
2177.223	4833
2179.258	4816
2181.294	4875
2183.328	4845
2185.362	4817
2187.398	4847
2189.431	4811
2191.463	4778
2193.495	4747
2195.528	4818
2197.56	4810
2199.59	4726
2201.62	4795
2203.649	4826
2205.678	4758
2207.708	4821
2209.737	4852
2211.764	4884
2213.791	4792
2215.817	4730
2217.843	4812
2219.87	4835
2221.895	4715
2223.919	4812
2225.942	4719
2227.966	4783
2229.988	4722
2232.012	4728
2234.032	4811
2236.054	4789
2238.074	4815
2240.095	4747
2242.116	4839
2244.135	4756
2246.153	4740
2248.171	4830
2250.188	4766
2252.208	4782
2254.223	4744
2256.239	4836
2258.255	4795
2260.269	4663
2262.283	4760
2264.3	4729
2266.312	4709
2268.325	4740
2270.336	4733
2272.349	4725
2274.362	4822
2276.372	4766
2278.383	4771
2280.392	4862
2282.402	4852
2284.409	4732
2286.418	4810
2288.427	4809
2290.433	4799
2292.441	4769
2294.446	4765
2296.453	4754
2298.459	4716
2300.463	4805
2302.466	4709
2304.471	4706
2306.475	4783
2308.477	4768
2310.478	4772
2312.481	4707
2314.481	4728
2316.481	4791
2318.482	4657
2320.482	4629
2322.48	4632
2324.48	4837
2326.478	4730
2328.476	4694
2330.473	4744
2332.469	4766
2334.465	4678
2336.46	4737
2338.454	4789
2340.45	4757
2342.444	4715
2344.437	4641
2346.43	4643
2348.421	4667
2350.414	4723
2352.405	4628
2354.396	4692
2356.386	4691
2358.376	4579
2360.366	4725
2362.355	4727
2364.343	4701
2366.331	4599
2368.317	4754
2370.304	4673
2372.292	4639
2374.278	4691
2376.262	4659
2378.247	4655
2380.23	4672
2382.216	4674
2384.199	4636
2386.181	4600
2388.163	4621
2390.144	4643
2392.127	4805
2394.107	4609
2396.087	4648
2398.066	4647
2400.046	4594
2402.023	4682
2404.004	4575
2405.981	4584
2407.957	4708
2409.934	4669
2411.91	4589
2413.886	4555
2415.862	4572
2417.836	4606
2419.809	4638
2421.784	4654
2423.756	4559
2425.73	4696
2427.701	4662
2429.672	4660
2431.644	4573
2433.615	4652
2435.586	4593
2437.555	4628
2439.523	4674
2441.491	4629
2443.459	4577
2445.428	4666
2447.395	4572
2449.361	4620
2451.327	4544
2453.292	4660
2455.257	4663
2457.223	4591
2459.187	4662
2461.15	4562
2463.113	4656
2465.076	4597
2467.039	4535
2468.999	4612
2470.96	4630
2472.921	4499
2474.881	4586
2476.841	4518
2478.8	4603
2480.759	4563
2482.717	4486
2484.675	4521
2486.63	4606
2488.589	4504
2490.545	4373
2492.5	4581
2494.455	4632
2496.408	4595
2498.364	4518
2500.318	4607
2502.27	4511
2504.223	4520
2506.174	4395
2508.126	4556
2510.078	4515
2512.03	4518
2513.979	4550
2515.927	4554
2517.877	4535
2519.826	4508
2521.775	4636
2523.722	4401
2525.668	4482
2527.616	4490
2529.561	4491
2531.508	4514
2533.452	4562
2535.398	4534
2537.342	4456
2539.284	4556
2541.229	4531
2543.173	4546
2545.114	4505
2547.055	4520
2548.996	4572
2550.938	4412
2552.878	4533
2554.817	4533
2556.756	4539
2558.695	4476
2560.633	4485
2562.572	4446
2564.509	4441
2566.445	4515
2568.382	4533
2570.317	4632
2572.254	4364
2574.189	4582
2576.123	4439
2578.057	4462
2579.99	4530
2581.923	4554
2583.855	4499
2585.788	4544
2587.719	4493
2589.65	4474
2591.579	4489
2593.511	4532
2595.44	4557
2597.37	4533
2599.297	4589
2601.225	4531
2603.153	4497
2605.08	4529
2607.007	4531
2608.932	4515
2610.858	4465
2612.782	4545
2614.709	4636
2616.632	4584
2618.556	4508
2620.478	4521
2622.401	4492
2624.324	4593
2626.247	4513
2628.167	4397
2630.088	4500
2632.008	4551
2633.928	4503
2635.848	4536
2637.766	4500
2639.684	4572
2641.603	4572
2643.519	4505
2645.437	4538
2647.353	4576
2649.27	4525
2651.184	4562
2653.099	4473
2655.014	4481
2656.928	4502
2658.842	4519
2660.755	4434
2662.667	4570
2664.579	4549
2666.491	4475
2668.402	4590
2670.312	4503
2672.222	4602
2674.132	4510
2676.042	4504
2677.951	4506
2679.859	4469
2681.766	4514
2683.674	4533
2685.582	4520
2687.488	4368
2689.392	4589
2691.298	4532
2693.202	4431
2695.107	4471
2697.012	4455
2698.914	4539
2700.817	4458
2702.72	4506
2704.622	4445
2706.524	4478
2708.425	4429
2710.326	4520
2712.225	4455
2714.125	4434
2716.024	4558
2717.923	4411
2719.822	4395
2721.719	4493
2723.616	4436
2725.512	4474
2727.41	4569
2729.305	4421
2731.201	4364
2733.095	4413
2734.99	4433
2736.884	4444
2738.778	4567
2740.67	4531
2742.562	4502
2744.455	4441
2746.346	4414
2748.238	4456
2750.129	4456
2752.018	4440
2753.907	4505
2755.797	4411
2757.687	4453
2759.575	4508
2761.462	4364
2763.349	4400
2765.237	4358
2767.124	4421
2769.009	4396
2770.894	4356
2772.779	4528
2774.663	4441
2776.547	4432
2778.431	4475
2780.314	4401
2782.197	4461
2784.078	4557
2785.96	4495
2787.842	4440
2789.723	4388
2791.603	4500
2793.483	4404
2795.362	4331
2797.241	4469
2799.121	4503
2800.997	4290
2802.874	4463
2804.751	4429
2806.628	4416
2808.506	4319
2810.38	4396
2812.255	4331
2814.13	4395
2816.003	4442
2817.878	4296
2819.752	4417
2821.623	4408
2823.496	4394
2825.368	4435
2827.238	4498
2829.111	4467
2830.98	4356
2832.851	4423
2834.719	4335
2836.589	4484
2838.458	4433
2840.327	4423
2842.193	4406
2844.061	4452
2845.927	4478
2847.794	4472
2849.66	4471
2851.525	4462
2853.39	4501
2855.254	4610
2857.117	4637
2858.983	4578
2860.845	4543
2862.707	4616
2864.569	4574
2866.431	4595
2868.293	4599
2870.154	4825
2872.013	4704
2873.873	4841
2875.733	4912
2877.592	4914
2879.451	4901
2881.309	5080
2883.166	5049
2885.022	5023
2886.879	5124
2888.736	4958
2890.591	5172
2892.446	5102
2894.301	5048
2896.155	5089
2898.009	5045
2899.863	5080
2901.716	5002
2903.568	5019
2905.419	4983
2907.27	5098
2909.123	5106
2910.973	5120
2912.824	5304
2914.673	5046
2916.521	5150
2918.372	5275
2920.22	5355
2922.067	5320
2923.914	5425
2925.761	5422
2927.607	5585
2929.455	5574
2931.301	5599
2933.144	5703
2934.99	5710
2936.833	5743
2938.678	5846
2940.522	5789
2942.364	5998
2944.207	6027
2946.048	5989
2947.891	6112
2949.731	6094
2951.571	6036
2953.412	6023
2955.25	5938
2957.09	5886
2958.93	5787
2960.767	5707
2962.606	5649
2964.443	5640
2966.279	5601
2968.116	5413
2969.953	5485
2971.788	5421
2973.623	5331
2975.457	5274
2977.292	5334
2979.127	5256
2980.959	5290
2982.792	5243
2984.624	5230
2986.455	5214
2988.288	5068
2990.119	5097
2991.949	5018
2993.779	4983
2995.608	5083
2997.439	4864
2999.268	4854
3001.096	4744
3002.923	4745
3004.751	4709
3006.578	4714
3008.406	4560
3010.232	4530
3012.057	4525
3013.883	4575
3015.706	4526
3017.532	4430
3019.356	4392
3021.179	4460
3023.002	4397
3024.823	4343
3026.646	4353
3028.469	4281
3030.289	4301
3032.11	4349
3033.93	4262
3035.749	4282
3037.57	4193
3039.39	4240
3041.207	4258
3043.026	4278
3044.842	4188
3046.661	4273
3048.477	4286
3050.294	4149
3052.109	4251
3053.925	4174
3055.739	4257
3057.555	4230
3059.368	4186
3061.181	4207
3062.995	4121
3064.807	4253
3066.62	4264
3068.433	4242
3070.243	4255
3072.054	4308
3073.865	4128
3075.675	4182
3077.485	4202
3079.293	4277
3081.102	4185
3082.911	4175
3084.719	4137
3086.527	4118
3088.333	4153
3090.139	4156
3091.945	4170
3093.75	4083
3095.557	4129
3097.361	4117
3099.165	4130
3100.969	4000
3102.772	4029
3104.575	4108
3106.379	4041
3108.181	4032
3109.982	4105
3111.783	4047
3113.584	4016
3115.386	4035
3117.186	4084
3118.985	4015
3120.783	4037
3122.582	4026
3124.381	3983
3126.179	4133
3127.975	4049
3129.772	4042
3131.569	4102
3133.365	3938
3135.161	4128
3136.956	3980
3138.751	3994
3140.544	3977
3142.338	4035
3144.132	4034
3145.925	3988
3147.717	4051
3149.509	4010
3151.301	4063
3153.091	3935
3154.884	3999
3156.673	4010
3158.462	4032
3160.252	3991
3162.041	4089
3163.831	3979
3165.618	3970
3167.405	3998
3169.193	4024
3170.979	3981
3172.767	3972
3174.553	3987
3176.338	3901
3178.123	4028
3179.907	4065
3181.692	3969
3183.477	3992
3185.259	3974
3187.042	3968
3188.824	4025
3190.607	4025
3192.389	3972
3194.17	3957
3195.951	3999
3197.73	3995
3199.51	3918
3201.289	3890
3203.07	3987
3204.848	3940
3206.626	4027
3208.403	4033
3210.18	3951
3211.959	4013
3213.735	4005
3215.511	4081
3217.285	3995
3219.06	3922
3220.836	3971
3222.611	3964
3224.384	4001
3226.158	3976
3227.929	4050
3229.702	4043
3231.476	3938
3233.248	4001
3235.018	3910
3236.789	4031
3238.56	4037
3240.33	4015
3242.1	3984
3243.869	4059
3245.637	4055
3247.405	3945
3249.172	4043
3250.941	4020
3252.707	3978
3254.474	3974
3256.24	4114
3258.006	3914
3259.772	4041
3261.537	4045
3263.301	4036
3265.065	3988
3266.828	3962
3268.592	4000
3270.355	4052
3272.117	4018
3273.878	4027
3275.64	3960
3277.401	4039
3279.162	3933
3280.922	3974
3282.682	3990
3284.441	4041
3286.199	4008
3287.959	4000
3289.716	3970
3291.475	4025
3293.232	4017
3294.988	3988
3296.744	3965
3298.501	4055
3300.256	3945
3302.011	4010
3303.766	4014
3305.52	4004
3307.275	4005
3309.028	4054
3310.781	4034
3312.533	4044
3314.285	3914
3316.038	3949
3317.789	4040
3319.54	3932
3321.289	4031
3323.039	3952
3324.789	3939
3326.539	3959
3328.288	3969
3330.035	4008
3331.783	4033
3333.531	4026
3335.28	4023
3337.025	4016
3338.771	3986
3340.518	3969
3342.262	3882
3344.009	3848
3345.753	3979
3347.497	4006
3349.24	3923
3350.983	3970
3352.726	3955
3354.469	3996
3356.212	3937
3357.952	3969
3359.694	3843
3361.434	3931
3363.176	3912
3364.916	3937
3366.654	3822
3368.394	3950
3370.132	3944
3371.871	3918
3373.61	3847
3375.346	3924
3377.083	3920
3378.82	3961
3380.556	3906
3382.292	3851
3384.027	3950
3385.763	3858
3387.497	3815
3389.231	3833
3390.965	3908
3392.698	3813
3394.431	3848
3396.164	3790
3397.896	3916
3399.627	3782
3401.36	3804
3403.09	3851
3404.82	3808
3406.55	3815
3408.279	3882
3410.01	3780
3411.738	3872
3413.467	3794
3415.194	3807
3416.92	3840
3418.647	3855
3420.375	3801
3422.102	3791
3423.827	3773
3425.553	3736
3427.277	3818
3429.003	3784
3430.727	3670
3432.451	3697
3434.173	3759
3435.896	3780
3437.62	3664
3439.343	3757
3441.063	3714
3442.785	3748
3444.505	3626
3446.226	3676
3447.948	3741
3449.666	3669
3451.386	3702
3453.104	3681
3454.823	3704
3456.541	3753
3458.259	3687
3459.976	3681
3461.693	3599
3463.408	3702
3465.125	3649
3466.841	3597
3468.556	3694
3470.271	3614
3471.985	3600
3473.698	3703
3475.414	3660
3477.126	3627
3478.838	3620
3480.55	3654
3482.263	3647
3483.975	3610
3485.686	3644
3487.396	3547
3489.106	3601
3490.817	3572
3492.526	3608
3494.236	3569
3495.944	3560
3497.652	3554
3499.359	3603
3501.066	3500
3502.775	3573
3504.481	3487
3506.187	3492
3507.893	3620
3509.598	3464
3511.304	3445
3513.009	3424
3514.713	3533
3516.417	3483
3518.12	3573
3519.821	3510
3521.525	3475
3523.228	3505
3524.929	3533
3526.631	3466
3528.33	3453
3530.032	3483
3531.733	3481
3533.433	3460
3535.131	3369
3536.83	3421
3538.529	3412
3540.227	3452
3541.925	3456
3543.623	3425
3545.319	3378
3547.016	3483
3548.712	3457
3550.408	3337
3552.103	3381
3553.798	3404
3555.491	3416
3557.188	3361
3558.88	3377
3560.574	3409
3562.266	3347
3563.959	3406
3565.651	3466
3567.343	3330
3569.035	3343
3570.725	3420
3572.415	3393
3574.106	3377
3575.797	3372
3577.485	3361
3579.174	3319
3580.863	3355
3582.551	3288
3584.238	3320
3585.926	3291
3587.613	3356
3589.3	3309
3590.986	3272
3592.671	3271
3594.357	3295
3596.042	3316
3597.726	3211
3599.41	3284
3601.094	3257
3602.778	3206
3604.461	3264
3606.143	3158
3607.825	3352
3609.507	3140
3611.188	3199
3612.87	3247
3614.551	3207
3616.229	3210
3617.909	3228
3619.589	3218
3621.269	3179
3622.948	3192
3624.625	3118
3626.302	3198
3627.98	3086
3629.657	3129
3631.334	3182
3633.01	3148
3634.686	3151
3636.361	3133
3638.036	3154
3639.712	3155
3641.385	3159
3643.06	3186
3644.732	3093
3646.405	3083
3648.08	3114
3649.751	3133
3651.424	3109
3653.094	3171
3654.766	3105
3656.436	3071
3658.106	3083
3659.777	3037
3661.446	3160
3663.115	3089
3664.783	3033
3666.452	3042
3668.121	3089
3669.788	3024
3671.454	3125
3673.121	3066
3674.789	3052
3676.455	3087
3678.12	3090
3679.784	3014
3681.45	2986
3683.114	3080
3684.779	3039
3686.442	2983
3688.105	3057
3689.768	2952
3691.43	3041
3693.093	2986
3694.754	3028
3696.415	3002
3698.076	2951
3699.736	3023
3701.396	3001
3703.057	2988
3704.716	2977
3706.375	3040
3708.034	3033
3709.692	2983
3711.351	2958
3713.008	3005
3714.665	2934
3716.321	3013
3717.977	3014
3719.634	2999
3721.29	2896
3722.945	2976
3724.598	2972
3726.253	2990
3727.907	2960
3729.561	2950
3731.214	2921
3732.867	2922
3734.518	2896
3736.171	2965
3737.824	2942
3739.474	2912
3741.125	3017
3742.775	2910
3744.425	2921
3746.074	2918
3747.725	2911
3749.373	2946
3751.022	2867
3752.669	2969
3754.318	2971
3755.966	2886
3757.612	2796
3759.259	2893
3760.905	2930
3762.55	2863
3764.197	2823
3765.842	2917
3767.486	2927
3769.131	2930
3770.774	2835
3772.417	2986
3774.061	2883
3775.705	2874
3777.347	2908
3778.988	2856
3780.629	2920
3782.271	2882
3783.912	2861
3785.552	2831
3787.192	2912
3788.831	2833
3790.472	2813
3792.112	2855
3793.75	2807
3795.388	2809
3797.024	2837
3798.661	2915
3800.3	2806
3801.936	2875
3803.572	2869
3805.208	2829
3806.844	2811
3808.48	2890
3810.115	2779
3811.748	2836
3813.382	2835
3815.016	2804
3816.649	2815
3818.283	2793
3819.914	2816
3821.547	2741
3823.178	2876
3824.809	2858
3826.441	2837
3828.072	2820
3829.701	2822
3831.331	2818
3832.96	2829
3834.591	2849
3836.219	2783
3837.847	2806
3839.475	2743
3841.102	2732
3842.729	2749
3844.357	2692
3845.984	2785
3847.609	2717
3849.234	2775
3850.86	2755
3852.485	2713
3854.11	2782
3855.734	2795
3857.357	2834
3858.981	2768
3860.603	2750
3862.227	2731
3863.848	2764
3865.471	2730
3867.092	2733
3868.713	2719
3870.334	2753
3871.954	2730
3873.575	2780
3875.194	2703
3876.813	2751
3878.433	2722
3880.051	2712
3881.669	2729
3883.286	2733
3884.904	2715
3886.52	2651
3888.138	2704
3889.754	2664
3891.37	2673
3892.985	2743
3894.6	2681
3896.216	2662
3897.831	2693
3899.444	2708
3901.058	2679
3902.67	2682
3904.283	2732
3905.897	2626
3907.509	2645
3909.121	2699
3910.731	2601
3912.342	2652
3913.954	2713
3915.563	2702
3917.174	2663
3918.783	2624
3920.391	2638
3922.002	2721
3923.611	2639
3925.218	2701
3926.826	2714
3928.432	2674
3930.039	2634
3931.647	2633
3933.253	2705
3934.859	2683
3936.464	2688
3938.068	2651
3939.675	2727
3941.278	2632
3942.883	2610
3944.486	2700
3946.089	2702
3947.692	2696
3949.295	2579
3950.898	2644
3952.499	2651
3954.1	2666
3955.7	2655
3957.303	2639
3958.903	2592
3960.502	2590
3962.101	2688
3963.7	2652
3965.301	2581
3966.899	2632
3968.497	2587
3970.094	2618
3971.691	2630
3973.288	2557
3974.885	2606
3976.481	2619
3978.077	2570
3979.672	2548
3981.267	2671
3982.863	2569
3984.457	2520
3986.051	2565
3987.645	2557
3989.238	2570
3990.831	2569
3992.425	2529
3994.017	2558
3995.607	2494
3997.199	2600
3998.79	2542
4000.382	2508
4001.973	2590
4003.561	2514
4005.151	2495
4006.741	2512
4008.331	2504
4009.918	2437
4011.507	2474
4013.095	2491
4014.681	2535
4016.269	2487
4017.856	2545
4019.443	2489
4021.028	2498
4022.614	2557
4024.199	2554
4025.785	2488
4027.37	2430
4028.953	2481
4030.536	2477
4032.12	2412
4033.704	2489
4035.287	2449
4036.869	2463
4038.45	2430
4040.032	2479
4041.613	2503
4043.195	2476
4044.776	2519
4046.356	2437
4047.935	2439
4049.515	2451
4051.095	2481
4052.674	2506
4054.251	2477
4055.829	2467
4057.406	2420
4058.985	2471
4060.562	2443
4062.139	2443
4063.715	2453
4065.29	2414
4066.865	2434
4068.442	2481
4070.016	2480
4071.59	2459
4073.164	2434
4074.738	2427
4076.312	2431
4077.885	2492
4079.458	2445
4081.03	2375
4082.602	2385
4084.173	2435
4085.745	2404
4087.315	2377
4088.886	2429
4090.456	2386
4092.026	2441
4093.596	2417
4095.165	2413
4096.734	2385
4098.301	2407
4099.869	2341
4101.437	2431
4103.006	2356
4104.572	2427
4106.139	2361
4107.704	2446
4109.27	2397
4110.837	2352
4112.401	2382
4113.966	2360
4115.53	2393
4117.094	2357
4118.659	2364
4120.223	2342
4121.785	2382
4123.347	2371
4124.909	2411
4126.471	2418
4128.034	2313
4129.595	2310
4131.155	2320
4132.716	2373
4134.275	2358
4135.836	2401
4137.395	2281
4138.955	2320
4140.513	2375
4142.071	2338
4143.628	2352
4145.188	2264
4146.745	2318
4148.302	2274
4149.858	2327
4151.414	2383
4152.971	2341
4154.526	2326
4156.081	2222
4157.635	2254
4159.189	2317
4160.745	2266
4162.298	2274
4163.852	2213
4165.405	2286
4166.957	2284
4168.51	2276
4170.063	2256
4171.614	2311
4173.166	2225
4174.717	2219
4176.267	2237
4177.817	2258
4179.368	2228
4180.917	2270
4182.466	2268
4184.016	2246
4185.564	2251
4187.112	2302
4188.66	2259
4190.207	2220
4191.754	2240
4193.301	2226
4194.848	2212
4196.394	2216
4197.94	2237
4199.484	2272
4201.03	2205
4202.575	2226
4204.12	2237
4205.663	2213
4207.207	2198
4208.75	2272
4210.292	2235
4211.836	2245
4213.378	2166
4214.92	2227
4216.46	2160
4218.002	2189
4219.544	2183
4221.083	2163
4222.625	2222
4224.164	2208
4225.703	2225
4227.244	2188
4228.782	2212
4230.32	2219
4231.857	2222
4233.395	2212
4234.933	2132
4236.471	2157
4238.007	2225
4239.542	2162
4241.078	2165
4242.614	2120
4244.15	2148
4245.685	2225
4247.219	2217
4248.753	2175
4250.287	2171
4251.82	2184
4253.354	2182
4254.887	2143
4256.419	2186
4257.951	2172
4259.483	2199
4261.016	2187
4262.547	2150
4264.078	2180
4265.608	2153
4267.137	2182
4268.668	2154
4270.197	2127
4271.727	2130
4273.254	2178
4274.783	2155
4276.311	2152
4277.84	2144
4279.366	2123
4280.894	2177
4282.42	2130
4283.946	2150
4285.473	2136
4286.998	2094
4288.523	2161
4290.047	2166
4291.572	2115
4293.096	2150
4294.622	2130
4296.144	2111
4297.668	2149
4299.19	2088
4300.713	2114
4302.236	2036
4303.758	2074
4305.279	2141
4306.799	2120
4308.321	2029
4309.842	2114
4311.361	2065
4312.882	2095
4314.401	2107
