400.0961	7272
402.6185	7437
405.1424	7310
407.6635	7355
410.1838	7413
412.7035	7326
415.2225	7495
417.7388	7509
420.2585	7619
422.7754	7524
425.2917	7699
427.8072	7692
430.3221	7661
432.8363	7739
435.3498	7620
437.8626	7785
440.3727	7771
442.8841	7868
445.3969	7800
447.907	7814
450.4142	7861
452.9229	7838
455.4289	7724
457.9362	7853
460.4449	7838
462.9488	7936
465.454	7855
467.9566	8050
470.4604	7936
472.9637	8008
475.4662	7980
477.966	8042
480.4671	8102
482.9656	8041
485.4633	8070
487.9645	8110
490.4608	8278
492.9566	8101
495.4536	8115
497.948	8236
500.4437	8240
502.9387	8236
505.431	8226
507.9226	8147
510.4136	8319
512.9079	8354
515.3975	8343
517.8864	8306
520.3746	8260
522.8622	8384
525.3491	8315
527.8394	8243
530.3249	8310
532.8098	8391
535.2939	8403
537.7774	8344
540.2623	8279
542.7444	8374
545.2259	8294
547.7067	8343
550.1868	8235
552.6683	8395
555.147	8398
557.6231	8392
560.1005	8362
562.5773	8377
565.0534	8337
567.5308	8372
570.0056	8509
572.4776	8454
574.951	8458
577.4237	8594
579.8978	8536
582.3671	8670
584.8378	8508
587.3079	8537
589.7773	8635
592.244	8584
594.714	8582
597.1793	8639
599.6461	8587
602.1121	8527
604.5754	8526
607.0421	8504
609.5042	8589
611.9675	8583
614.4282	8593
616.8902	8514
619.3515	8645
621.8122	8683
624.2702	8633
626.7296	8643
629.1863	8631
631.6423	8624
634.1017	8511
636.5563	8600
639.0104	8649
641.4658	8681
643.9185	8698
646.3725	8552
648.8239	8693
651.2766	8721
653.7266	8645
656.176	8864
658.6247	8709
661.0748	8869
663.5242	8781
665.9709	8859
668.417	8810
670.8624	8828
673.3092	8890
675.7533	8773
678.1968	8955
680.6395	8867
683.0817	8876
685.5251	8917
687.9659	8899
690.4061	8857
692.8456	8874
695.2844	8901
697.7226	9046
700.1621	8972
702.599	9035
705.0332	9120
707.4688	9077
709.9036	9048
712.3399	8950
714.7735	8996
717.2044	9059
719.6367	9061
722.0683	9217
724.4993	9125
726.9296	9274
729.3593	9179
731.7883	9293
734.2147	9269
736.6423	9240
739.0714	9494
741.4958	9410
743.9216	9486
746.3447	9504
748.7691	9485
751.1929	9474
753.616	9625
756.0366	9503
758.4584	9666
760.8776	9765
763.2982	9751
765.718	9683
768.1373	9607
770.5539	9686
772.9698	9667
775.3871	9738
777.8038	9776
780.2178	9765
782.6332	9795
785.0459	9737
787.458	9717
789.8714	9922
792.2842	9757
794.6943	9864
797.1038	9853
799.5127	9893
801.9209	9754
804.3324	9757
806.7393	9928
809.1456	9806
811.5513	9720
813.9562	9895
816.3625	9988
818.7663	9801
821.1693	9903
823.5718	9951
825.9735	9968
828.3746	9896
830.7771	9924
833.177	9877
835.5762	9973
837.9747	10061
840.3727	9925
842.772	9923
845.1666	9860
847.5626	9971
849.958	10078
852.3527	10238
854.7488	10082
857.1403	9855
859.5331	10005
861.9253	9959
864.3168	9952
866.7057	9999
869.098	9957
871.4876	9954
873.8746	10027
876.263	10095
878.6487	9862
881.0378	9982
883.4243	9865
885.8081	9967
888.1933	10022
890.5759	10037
892.9598	10025
895.343	10213
897.7256	10116
900.1057	10077
902.4871	10229
904.8659	10040
907.246	10052
909.6254	10098
912.0023	10194
914.3786	10143
916.7562	10350
919.1331	10306
921.5074	10438
923.8831	10453
926.2562	10392
928.6287	10505
931.0005	10352
933.3757	10454
935.7462	10599
938.1162	10500
940.4855	10615
942.8542	10609
945.2242	10797
947.5916	10654
949.9584	10918
952.3266	11083
954.6921	11246
957.0571	11213
959.4233	11378
961.787	11567
964.15	11345
966.5125	11542
968.8742	11110
971.2354	11009
973.5959	10924
975.9559	10543
978.3151	10672
980.6738	10708
983.0338	10593
985.3912	10593
987.7461	10594
990.1022	10470
992.4578	10631
994.8127	10452
997.1689	10560
999.5207	10610
1001.874	10590
1004.226	10599
1006.576	10566
1008.929	10688
1011.28	10680
1013.628	10635
1015.977	10591
1018.324	10666
1020.674	10689
1023.019	10768
1025.366	10620
1027.713	10671
1030.056	10626
1032.399	10851
1034.746	10927
1037.087	10847
1039.431	10917
1041.771	10775
1044.113	10888
1046.454	10831
1048.793	10886
1051.133	11083
1053.471	10792
1055.807	10943
1058.146	10877
1060.483	10893
1062.818	11056
1065.153	11036
1067.489	10965
1069.822	11069
1072.156	11187
1074.488	10946
1076.82	11063
1079.15	11160
1081.48	11220
1083.814	11258
1086.143	11033
1088.471	11125
1090.799	11139
1093.126	11031
1095.452	11236
1097.78	11062
1100.105	11234
1102.43	11260
1104.754	11155
1107.077	11107
1109.4	11216
1111.722	11354
1114.044	11360
1116.365	11283
1118.685	11266
1121.005	11383
1123.324	11169
1125.643	11514
1127.961	11590
1130.278	11468
1132.595	11391
1134.911	11415
1137.226	11403
1139.541	11383
1141.854	11588
1144.167	11256
1146.482	11541
1148.793	11499
1151.105	11591
1153.414	11547
1155.725	11583
1158.033	11672
1160.344	11528
1162.651	11523
1164.959	11550
1167.265	11594
1169.572	11639
1171.878	11593
1174.184	11555
1176.488	11557
1178.79	11560
1181.094	11702
1183.396	11654
1185.699	11581
1188.001	11566
1190.301	11649
1192.6	11605
1194.9	11734
1197.2	11644
1199.497	11761
1201.794	11785
1204.09	11736
1206.387	11757
1208.684	11705
1210.978	11747
1213.272	11895
1215.565	11886
1217.858	11926
1220.15	11996
1222.443	11866
1224.734	11973
1227.024	12274
1229.313	12061
1231.602	12089
1233.892	12090
1236.18	12204
1238.467	12263
1240.754	12287
1243.04	12303
1245.325	12358
1247.612	12477
1249.896	12313
1252.178	12491
1254.461	12500
1256.743	12484
1259.027	12427
1261.308	12388
1263.587	12546
1265.867	12283
1268.146	12567
1270.425	12522
1272.703	12502
1274.981	12425
1277.256	12386
1279.532	12390
1281.808	12441
1284.083	12463
1286.358	12490
1288.63	12491
1290.904	12256
1293.175	12258
1295.449	12395
1297.719	12409
1299.99	12351
1302.259	12491
1304.529	12491
1306.798	12596
1309.065	12459
1311.333	12342
1313.599	12357
1315.866	12387
1318.131	12696
1320.396	12554
1322.66	12529
1324.925	12623
1327.187	12415
1329.448	12675
1331.711	12675
1333.974	12652
1336.234	12612
1338.493	12728
1340.752	12748
1343.01	12689
1345.269	12944
1347.526	12709
1349.784	12881
1352.04	12690
1354.295	12947
1356.552	12819
1358.806	12936
1361.059	12931
1363.312	12840
1365.564	12852
1367.818	13028
1370.069	12969
1372.318	12970
1374.568	12961
1376.817	13036
1379.066	13097
1381.316	13107
1383.564	13129
1385.809	12961
1388.056	13067
1390.301	13304
1392.549	13200
1394.793	13217
1397.036	13288
1399.279	13121
1401.522	13251
1403.763	13328
1406.007	13407
1408.248	13222
1410.487	13216
1412.727	13289
1414.965	13166
1417.205	13191
1419.442	13438
1421.68	13256
1423.915	13256
1426.152	13175
1428.388	13223
1430.623	13316
1432.857	13224
1435.091	13220
1437.323	13492
1439.556	13283
1441.789	13696
1444.019	13277
1446.25	13482
1448.48	13550
1450.708	13477
1452.938	13600
1455.167	13525
1457.394	13602
1459.62	13517
1461.846	13480
1464.073	13617
1466.299	13744
1468.523	13556
1470.746	13562
1472.969	13633
1475.191	13527
1477.415	13509
1479.636	13663
1481.858	13485
1484.078	13582
1486.298	13387
1488.518	13360
1490.736	13546
1492.954	13417
1495.169	13451
1497.386	13390
1499.602	13673
1501.819	13311
1504.034	13517
1506.248	13501
1508.462	13388
1510.675	13586
1512.888	13389
1515.1	13541
1517.311	13542
1519.522	13488
1521.732	13445
1523.942	13588
1526.151	13622
1528.36	13460
1530.566	13601
1532.773	13569
1534.98	13605
1537.187	13391
1539.392	13743
1541.596	13626
1543.801	13678
1546.005	13596
1548.208	13845
1550.411	13768
1552.612	13707
1554.814	13721
1557.013	13691
1559.212	13818
1561.414	13815
1563.612	13953
1565.811	13800
1568.007	14093
1570.203	14139
1572.403	13967
1574.598	14059
1576.792	14134
1578.988	14172
1581.181	14062
1583.376	14167
1585.568	14117
1587.761	14165
1589.952	14157
1592.143	14340
1594.333	14170
1596.524	14261
1598.715	14227
1600.903	14160
1603.091	14191
1605.278	14384
1607.466	14367
1609.652	14287
1611.838	14381
1614.023	14422
1616.207	14480
1618.391	14490
1620.576	14368
1622.759	14321
1624.941	14262
1627.123	14327
1629.304	14307
1631.484	14412
1633.664	14309
1635.844	14385
1638.022	14384
1640.201	14211
1642.38	14341
1644.556	14317
1646.732	14268
1648.908	14231
1651.084	14339
1653.257	14114
1655.433	14447
1657.607	14324
1659.779	14344
1661.951	14296
1664.122	14390
1666.295	14560
1668.467	14321
1670.635	14431
1672.805	14488
1674.973	14451
1677.142	14418
1679.31	14511
1681.478	14457
1683.644	14208
1685.81	14330
1687.975	14253
1690.142	14354
1692.305	14370
1694.468	14574
1696.632	14420
1698.794	14565
1700.957	14248
1703.119	14422
1705.279	14358
1707.439	14556
1709.598	14453
1711.758	14391
1713.917	14304
1716.075	14464
1718.231	14318
1720.388	14454
1722.543	14433
1724.702	14578
1726.856	14330
1729.01	14561
1731.164	14474
1733.317	14629
1735.471	14667
1737.623	14537
1739.774	14541
1741.925	14532
1744.075	14636
1746.225	14651
1748.376	14626
1750.524	14712
1752.672	14544
1754.82	14798
1756.965	14840
1759.113	14638
1761.259	14879
1763.405	14881
1765.549	14705
1767.694	15044
1769.836	14836
1771.981	14920
1774.123	14716
1776.264	14888
1778.405	15113
1780.546	15034
1782.687	14882
1784.827	14983
1786.966	15007
1789.103	15009
1791.242	15166
1793.381	15055
1795.517	15240
1797.653	14983
1799.788	15115
1801.923	14967
1804.057	14995
1806.193	15010
1808.326	15219
1810.457	15050
1812.59	15149
1814.721	15304
1816.855	15046
1818.984	15210
1821.113	15130
1823.244	15128
1825.372	15037
1827.499	15005
1829.63	15046
1831.756	15131
1833.882	15147
1836.007	15030
1838.132	15215
1840.26	15319
1842.384	15029
1844.507	15054
1846.63	15142
1848.752	15147
1850.875	15166
1852.996	15183
1855.118	15191
1857.238	15069
1859.358	15202
1861.477	15183
1863.597	15246
1865.715	15069
1867.832	15236
1869.948	14998
1872.064	15055
1874.181	15368
1876.297	15207
1878.411	15361
1880.526	15298
1882.639	15428
1884.752	15330
1886.865	15444
1888.977	15505
1891.089	15333
1893.2	15517
1895.308	15409
1897.42	15484
1899.53	15552
1901.639	15348
1903.745	15422
1905.853	15646
1907.962	15620
1910.067	15483
1912.174	15556
1914.278	15540
1916.383	15865
1918.486	15686
1920.592	15738
1922.694	15802
1924.797	15830
1926.898	15754
1929	15718
1931.102	15812
1933.203	16042
1935.301	15903
1937.401	15991
1939.499	15966
1941.598	16076
1943.697	16006
1945.793	15988
1947.888	16053
1949.985	15943
1952.08	15950
1954.176	15927
1956.269	15928
1958.364	16019
1960.457	15949
1962.549	16027
1964.642	16034
1966.733	16066
1968.823	16054
1970.913	16029
1973.005	16000
1975.093	16225
1977.184	15989
1979.271	16015
1981.359	16008
1983.446	15983
1985.532	16212
1987.619	15989
1989.705	15997
1991.789	16238
1993.874	16172
1995.956	15998
1998.041	15980
2000.123	15935
2002.206	16312
2004.287	16335
2006.368	15884
2008.449	16042
2010.529	16253
2012.609	16101
2014.688	16136
2016.766	16036
2018.843	16291
2020.922	16088
2022.999	16009
2025.074	16126
2027.15	16238
2029.225	15866
2031.299	16287
2033.375	16347
2035.447	16221
2037.52	16099
2039.592	16332
2041.664	16204
2043.736	16246
2045.807	16084
2047.876	16149
2049.947	16277
2052.015	16379
2054.086	16385
2056.153	16203
2058.221	16440
2060.288	16566
2062.353	16262
2064.42	16320
2066.486	16380
2068.55	16574
2070.614	16427
2072.678	16320
2074.741	16534
2076.805	16488
2078.866	16510
2080.929	16600
2082.99	16436
2085.049	16441
2087.109	16585
2089.17	16504
2091.228	16550
2093.286	16485
2095.344	16907
2097.4	16476
2099.46	16697
2101.516	16763
2103.572	16636
2105.626	16669
2107.679	16624
2109.735	16929
2111.788	16630
2113.841	16703
2115.894	16869
2117.945	16893
2119.997	16662
2122.049	16527
2124.1	16853
2126.148	16713
2128.197	16666
2130.246	16620
2132.296	16781
2134.342	16949
2136.39	16814
2138.437	16630
2140.483	16787
2142.527	16726
2144.574	16759
2146.619	16952
2148.661	16607
2150.705	16610
2152.747	16653
2154.792	16680
2156.832	16900
2158.874	16697
2160.915	16746
2162.954	16689
2164.995	16638
2167.034	16838
2169.072	16739
2171.111	16883
2173.148	16715
2175.186	16782
2177.223	16725
2179.258	16725
2181.294	16975
2183.328	16707
2185.362	16809
2187.398	16796
2189.431	16670
2191.463	16680
2193.495	16608
2195.528	16870
2197.56	16776
2199.59	16743
2201.62	16797
2203.649	16654
2205.678	16866
2207.708	16610
2209.737	16786
2211.764	16601
2213.791	16623
2215.817	16909
2217.843	16685
2219.87	16729
2221.895	16660
2223.919	16748
2225.942	16913
2227.966	16806
2229.988	16832
2232.012	16686
2234.032	16760
2236.054	16802
2238.074	16777
2240.095	16767
2242.116	16873
2244.135	16800
2246.153	16714
2248.171	16893
2250.188	17015
2252.208	16704
2254.223	16959
2256.239	16844
2258.255	16998
2260.269	16980
2262.283	17089
2264.3	16866
2266.312	16958
2268.325	16975
2270.336	17077
2272.349	16986
2274.362	17099
2276.372	17131
2278.383	17044
2280.392	17192
2282.402	17122
2284.409	17276
2286.418	17234
2288.427	17168
2290.433	16996
2292.441	17026
2294.446	17191
2296.453	17175
2298.459	17178
2300.463	17154
2302.466	17085
2304.471	17253
2306.475	17400
2308.477	17122
2310.478	17138
2312.481	17283
2314.481	17232
2316.481	17292
2318.482	17146
2320.482	17158
2322.48	17194
2324.48	17016
2326.478	17157
2328.476	17214
2330.473	17193
2332.469	17206
2334.465	17202
2336.46	17073
2338.454	17211
2340.45	17310
2342.444	17159
2344.437	17261
2346.43	17411
2348.421	17260
2350.414	17237
2352.405	17066
2354.396	17315
2356.386	17235
2358.376	17355
2360.366	17077
2362.355	17322
2364.343	17325
2366.331	17178
2368.317	17347
2370.304	17107
2372.292	17344
2374.278	17343
2376.262	17179
2378.247	17075
2380.23	17138
2382.216	17362
2384.199	17209
2386.181	17133
2388.163	17215
2390.144	17256
2392.127	17339
2394.107	17165
2396.087	17232
2398.066	17284
2400.046	17414
2402.023	17120
2404.004	17311
2405.981	17149
2407.957	17321
2409.934	17163
2411.91	17178
2413.886	17306
2415.862	17306
2417.836	17359
2419.809	17512
2421.784	17206
2423.756	17367
2425.73	17414
2427.701	17322
2429.672	17523
2431.644	17204
2433.615	17274
2435.586	17396
2437.555	17464
2439.523	17427
2441.491	17385
2443.459	17388
2445.428	17542
2447.395	17351
2449.361	17384
2451.327	17367
2453.292	17423
2455.257	17556
2457.223	17382
2459.187	17363
2461.15	17503
2463.113	17516
2465.076	17427
2467.039	17513
2468.999	17621
2470.96	17463
2472.921	17497
2474.881	17449
2476.841	17434
2478.8	17410
2480.759	17497
2482.717	17266
2484.675	17599
2486.63	17269
2488.589	17462
2490.545	17253
2492.5	17506
2494.455	17541
2496.408	17501
2498.364	17317
2500.318	17432
2502.27	17484
2504.223	17570
2506.174	17585
2508.126	17511
2510.078	17464
2512.03	17255
2513.979	17643
2515.927	17352
2517.877	17662
2519.826	17420
2521.775	17454
2523.722	17493
2525.668	17877
2527.616	17434
2529.561	17793
2531.508	17531
2533.452	17676
2535.398	17749
2537.342	17421
2539.284	17732
2541.229	17739
2543.173	17699
2545.114	17643
2547.055	17778
2548.996	17658
2550.938	17727
2552.878	17690
2554.817	17698
2556.756	17893
2558.695	17808
2560.633	17828
2562.572	17735
2564.509	17838
2566.445	17876
2568.382	17809
2570.317	17791
2572.254	17738
2574.189	18039
2576.123	18008
2578.057	17974
2579.99	17979
2581.923	17924
2583.855	18108
2585.788	18100
2587.719	17790
2589.65	18047
2591.579	18123
2593.511	17984
2595.44	18114
2597.37	18185
2599.297	18232
2601.225	18203
2603.153	18024
2605.08	18231
2607.007	18450
2608.932	18357
2610.858	18331
2612.782	18329
2614.709	18415
2616.632	18282
2618.556	18371
2620.478	18386
2622.401	18544
2624.324	18383
2626.247	18361
2628.167	18520
2630.088	18507
2632.008	18489
2633.928	18767
2635.848	18458
2637.766	18438
2639.684	18454
2641.603	18650
2643.519	18711
2645.437	18777
2647.353	18714
2649.27	18475
2651.184	18580
2653.099	18689
2655.014	18633
2656.928	18622
2658.842	18596
2660.755	18839
2662.667	18751
2664.579	18726
2666.491	18658
2668.402	18704
2670.312	18745
2672.222	18720
2674.132	18593
2676.042	18815
2677.951	18886
2679.859	18867
2681.766	18682
2683.674	18828
2685.582	18656
2687.488	18696
2689.392	18844
2691.298	18769
2693.202	18731
2695.107	18671
2697.012	18672
2698.914	18873
2700.817	18681
2702.72	18852
2704.622	18880
2706.524	18757
2708.425	18596
2710.326	18705
2712.225	18929
2714.125	18741
2716.024	18764
2717.923	18961
2719.822	18762
2721.719	18972
2723.616	18976
2725.512	18912
2727.41	18783
2729.305	18779
2731.201	18803
2733.095	18891
2734.99	18773
2736.884	18890
2738.778	18725
2740.67	18933
2742.562	18828
2744.455	18699
2746.346	18897
2748.238	18847
2750.129	18791
2752.018	18684
2753.907	18962
2755.797	18880
2757.687	19001
2759.575	18931
2761.462	18847
2763.349	18659
2765.237	18891
2767.124	19176
2769.009	18866
2770.894	19067
2772.779	18920
2774.663	19105
2776.547	19234
2778.431	18912
2780.314	18985
2782.197	19041
2784.078	18898
2785.96	18932
2787.842	19122
2789.723	18992
2791.603	19023
2793.483	19122
2795.362	19051
2797.241	19107
2799.121	18962
2800.997	18887
2802.874	19111
2804.751	19095
2806.628	19205
2808.506	19030
2810.38	19027
2812.255	18895
2814.13	19168
2816.003	19042
2817.878	19232
2819.752	19131
2821.623	19133
2823.496	18957
2825.368	18936
2827.238	19060
2829.111	18991
2830.98	19143
2832.851	19199
2834.719	19193
2836.589	19203
2838.458	19156
2840.327	19210
2842.193	19142
2844.061	19226
2845.927	19129
2847.794	19255
2849.66	19206
2851.525	19168
2853.39	19185
2855.254	19466
2857.117	19238
2858.983	19253
2860.845	19374
2862.707	19470
2864.569	19688
2866.431	19364
2868.293	19227
2870.154	19384
2872.013	19737
2873.873	19391
2875.733	19444
2877.592	19789
2879.451	19613
2881.309	19472
2883.166	19798
2885.022	19734
2886.879	20060
2888.736	19683
2890.591	20055
2892.446	19910
2894.301	19835
2896.155	19706
2898.009	19874
2899.863	19808
2901.716	19559
2903.568	19883
2905.419	19746
2907.27	20036
2909.123	19871
2910.973	20031
2912.824	20029
2914.673	19993
2916.521	19924
2918.372	20106
2920.22	20133
2922.067	20084
2923.914	20155
2925.761	20119
2927.607	20279
2929.455	20204
2931.301	20382
2933.144	20516
2934.99	20475
2936.833	20266
2938.678	20447
2940.522	20536
2942.364	20722
2944.207	20547
2946.048	20604
2947.891	20702
2949.731	20667
2951.571	20647
2953.412	20816
2955.25	20592
2957.09	20550
2958.93	20609
2960.767	20406
2962.606	20302
2964.443	20454
2966.279	20316
2968.116	20254
2969.953	20422
2971.788	20361
2973.623	20297
2975.457	20177
2977.292	20226
2979.127	20187
2980.959	20313
2982.792	20063
2984.624	20066
2986.455	20103
2988.288	20160
2990.119	19850
2991.949	20026
2993.779	20014
2995.608	20215
2997.439	19840
2999.268	20193
3001.096	20201
3002.923	20071
3004.751	19711
3006.578	19670
3008.406	19683
3010.232	19875
3012.057	19640
3013.883	19829
3015.706	19766
3017.532	19882
3019.356	19755
3021.179	19754
3023.002	19731
3024.823	19745
3026.646	19732
3028.469	19767
3030.289	19663
3032.11	19754
3033.93	19650
3035.749	19784
3037.57	19904
3039.39	19683
3041.207	19874
3043.026	19785
3044.842	19540
3046.661	19748
3048.477	19734
3050.294	19495
3052.109	19792
3053.925	19623
3055.739	19592
3057.555	19584
3059.368	19800
3061.181	19779
3062.995	19336
3064.807	19772
3066.62	19522
3068.433	19679
3070.243	19633
3072.054	19731
3073.865	19579
3075.675	19759
3077.485	19623
3079.293	19561
3081.102	19554
3082.911	19591
3084.719	19255
3086.527	19701
3088.333	19407
3090.139	19647
3091.945	19599
3093.75	19549
3095.557	19369
3097.361	19796
3099.165	19403
3100.969	19429
3102.772	19455
3104.575	19337
3106.379	19522
3108.181	19584
3109.982	19349
3111.783	19331
3113.584	19326
3115.386	19289
3117.186	19349
3118.985	19297
3120.783	19445
3122.582	19470
3124.381	19360
3126.179	19277
3127.975	19293
3129.772	19104
3131.569	19346
3133.365	19340
3135.161	19263
3136.956	19270
3138.751	19156
3140.544	19184
3142.338	19361
3144.132	19297
3145.925	19241
3147.717	19169
3149.509	19016
3151.301	19321
3153.091	19288
3154.884	19177
3156.673	19233
3158.462	19195
3160.252	19333
3162.041	19148
3163.831	19302
3165.618	19059
3167.405	19300
3169.193	19180
3170.979	19223
3172.767	18918
3174.553	19360
3176.338	18986
3178.123	19010
3179.907	19000
3181.692	19253
3183.477	19233
3185.259	18901
3187.042	19121
3188.824	19127
3190.607	18873
3192.389	19146
3194.17	19026
3195.951	19261
3197.73	19044
3199.51	19153
3201.289	19055
3203.07	18925
3204.848	19116
3206.626	18893
3208.403	19050
3210.18	18972
3211.959	19106
3213.735	19087
3215.511	18922
3217.285	18950
3219.06	19037
3220.836	19147
3222.611	18983
3224.384	18870
3226.158	19293
3227.929	18868
3229.702	18870
3231.476	18885
3233.248	19165
3235.018	19161
3236.789	19126
3238.56	19184
3240.33	19059
3242.1	19195
3243.869	19010
3245.637	19164
3247.405	18957
3249.172	19124
3250.941	19119
3252.707	19001
3254.474	19059
3256.24	19029
3258.006	19155
3259.772	19067
3261.537	19183
3263.301	19152
3265.065	18997
3266.828	19041
3268.592	19177
3270.355	19278
3272.117	19007
3273.878	19203
3275.64	19108
3277.401	19319
3279.162	19354
3280.922	19255
3282.682	19447
3284.441	19102
3286.199	19226
3287.959	19089
3289.716	19274
3291.475	19308
3293.232	19240
3294.988	19413
3296.744	19322
3298.501	19190
3300.256	19396
3302.011	19226
3303.766	19156
3305.52	19319
3307.275	19086
3309.028	19349
3310.781	19423
3312.533	19289
3314.285	19335
3316.038	19390
3317.789	19581
3319.54	19389
3321.289	19362
3323.039	19282
3324.789	19344
3326.539	19357
3328.288	19149
3330.035	19713
3331.783	19213
3333.531	19328
3335.28	19339
3337.025	19128
3338.771	19416
3340.518	19560
3342.262	19499
3344.009	19285
3345.753	19349
3347.497	19544
3349.24	19670
3350.983	19217
3352.726	19349
3354.469	19345
3356.212	19446
3357.952	19366
3359.694	19341
3361.434	19496
3363.176	19240
3364.916	19581
3366.654	19305
3368.394	19319
3370.132	19511
3371.871	19262
3373.61	19522
3375.346	19383
3377.083	19255
3378.82	19272
3380.556	19395
3382.292	19341
3384.027	19483
3385.763	19419
3387.497	19458
3389.231	19490
3390.965	19307
3392.698	19282
3394.431	19435
3396.164	19558
3397.896	19335
3399.627	19245
3401.36	19408
3403.09	19392
3404.82	19511
3406.55	19476
3408.279	19418
3410.01	19606
3411.738	19534
3413.467	19463
3415.194	19311
3416.92	19236
3418.647	19588
3420.375	19356
3422.102	19234
3423.827	19233
3425.553	19259
3427.277	19480
3429.003	19419
3430.727	19137
3432.451	19465
3434.173	19491
3435.896	19342
3437.62	19441
3439.343	19265
3441.063	19404
3442.785	19582
3444.505	19191
3446.226	19196
3447.948	19439
3449.666	19363
3451.386	19335
3453.104	19203
3454.823	19361
3456.541	19372
3458.259	19015
3459.976	19209
3461.693	19148
3463.408	19295
3465.125	19104
3466.841	19148
3468.556	19143
3470.271	19207
3471.985	19291
3473.698	19223
3475.414	19498
3477.126	19188
3478.838	19257
3480.55	19269
3482.263	19182
3483.975	19181
3485.686	18947
3487.396	19012
3489.106	19070
3490.817	19143
3492.526	19212
3494.236	19258
3495.944	19099
3497.652	19019
3499.359	19153
3501.066	19060
3502.775	19167
3504.481	19057
3506.187	19127
3507.893	19031
3509.598	18906
3511.304	19142
3513.009	19081
3514.713	19321
3516.417	19213
3518.12	19110
3519.821	19181
3521.525	18986
3523.228	19076
3524.929	19003
3526.631	19051
3528.33	18896
3530.032	19073
3531.733	19166
3533.433	19252
3535.131	18989
3536.83	19125
3538.529	19034
3540.227	18826
3541.925	19071
3543.623	19114
3545.319	19327
3547.016	19071
3548.712	19209
3550.408	18893
3552.103	19180
3553.798	19057
3555.491	19290
3557.188	19094
3558.88	19268
3560.574	18964
3562.266	19245
3563.959	19297
3565.651	19278
3567.343	19032
3569.035	19090
3570.725	19273
3572.415	19128
3574.106	19031
3575.797	19146
3577.485	19335
3579.174	19184
3580.863	19012
3582.551	19220
3584.238	18930
3585.926	19168
3587.613	19042
3589.3	18748
3590.986	19062
3592.671	18846
3594.357	19113
3596.042	18802
3597.726	18793
3599.41	19106
3601.094	19096
3602.778	18962
3604.461	18741
3606.143	18950
3607.825	19019
3609.507	18862
3611.188	18976
3612.87	18948
3614.551	18975
3616.229	18941
3617.909	18774
3619.589	18831
3621.269	19001
3622.948	18567
3624.625	18900
3626.302	19003
3627.98	18966
3629.657	18882
3631.334	18741
3633.01	18729
3634.686	18944
3636.361	18727
3638.036	18936
3639.712	18696
3641.385	18825
3643.06	18748
3644.732	18591
3646.405	18750
3648.08	18818
3649.751	18847
3651.424	18757
3653.094	18800
3654.766	18768
3656.436	18812
3658.106	18790
3659.777	18711
3661.446	18850
3663.115	18875
3664.783	18676
3666.452	18863
3668.121	18748
3669.788	18873
3671.454	18899
3673.121	18611
3674.789	18712
3676.455	18880
3678.12	18633
3679.784	18828
3681.45	18648
3683.114	18711
3684.779	18766
3686.442	18728
3688.105	18883
3689.768	18706
3691.43	18985
3693.093	18777
3694.754	18881
3696.415	18648
3698.076	18803
3699.736	18676
3701.396	18515
3703.057	18582
3704.716	18801
3706.375	18866
3708.034	18914
3709.692	18838
3711.351	18774
3713.008	18825
3714.665	19098
3716.321	18791
3717.977	18939
3719.634	18820
3721.29	18711
3722.945	18749
3724.598	18577
3726.253	18857
3727.907	18652
3729.561	18733
3731.214	18751
3732.867	18843
3734.518	18837
3736.171	18843
3737.824	18880
3739.474	18829
3741.125	18774
3742.775	18723
3744.425	18815
3746.074	18717
3747.725	18623
3749.373	18666
3751.022	18778
3752.669	18766
3754.318	18835
3755.966	18849
3757.612	18751
3759.259	18757
3760.905	18776
3762.55	18972
3764.197	18931
3765.842	18757
3767.486	18832
3769.131	18707
3770.774	18728
3772.417	18758
3774.061	18793
3775.705	18724
3777.347	18701
3778.988	18745
3780.629	18659
3782.271	18854
3783.912	18691
3785.552	18814
3787.192	18812
3788.831	18620
3790.472	18516
3792.112	18813
3793.75	18605
3795.388	18446
3797.024	18812
3798.661	18534
3800.3	18658
3801.936	18638
3803.572	18612
3805.208	18612
3806.844	18649
3808.48	18484
3810.115	18500
3811.748	18675
3813.382	18802
3815.016	18582
3816.649	18448
3818.283	18757
3819.914	18568
3821.547	18459
3823.178	18732
3824.809	18389
3826.441	18429
3828.072	18458
3829.701	18597
3831.331	18494
3832.96	18785
3834.591	18486
3836.219	18449
3837.847	18458
3839.475	18373
3841.102	18523
3842.729	18353
3844.357	18663
3845.984	18529
3847.609	18711
3849.234	18497
3850.86	18556
3852.485	18433
3854.11	18244
3855.734	18626
3857.357	18324
3858.981	18503
3860.603	18585
3862.227	18691
3863.848	18531
3865.471	18361
3867.092	18699
3868.713	18316
3870.334	18503
3871.954	18505
3873.575	18442
3875.194	18324
3876.813	18465
3878.433	18287
3880.051	18434
3881.669	18280
3883.286	18627
3884.904	18534
3886.52	18261
3888.138	18299
3889.754	18243
3891.37	18359
3892.985	18351
3894.6	18295
3896.216	18619
3897.831	18367
3899.444	18322
3901.058	18570
3902.67	18611
3904.283	18567
3905.897	18373
3907.509	18203
3909.121	18564
3910.731	18330
3912.342	18702
3913.954	18551
3915.563	18538
3917.174	18436
3918.783	18628
3920.391	18561
3922.002	18645
3923.611	18581
3925.218	18344
3926.826	18539
3928.432	18280
3930.039	18610
3931.647	18613
3933.253	18529
3934.859	18469
3936.464	18237
3938.068	18378
3939.675	18613
3941.278	18610
3942.883	18640
3944.486	18478
3946.089	18634
3947.692	18431
3949.295	18541
3950.898	18805
3952.499	18677
3954.1	18467
3955.7	18136
3957.303	18674
3958.903	18331
3960.502	18476
3962.101	18456
3963.7	18572
3965.301	18401
3966.899	18092
3968.497	18445
3970.094	18236
3971.691	18482
3973.288	18409
3974.885	18292
3976.481	18231
3978.077	18228
3979.672	18343
3981.267	18356
3982.863	18153
3984.457	18236
3986.051	18138
3987.645	18266
3989.238	18070
3990.831	18202
3992.425	18111
3994.017	18255
3995.607	18285
3997.199	18231
3998.79	18191
4000.382	18087
4001.973	18184
4003.561	18141
4005.151	17915
4006.741	18249
4008.331	17915
4009.918	18117
4011.507	18024
4013.095	18178
4014.681	17905
4016.269	17932
4017.856	17904
4019.443	18045
4021.028	17913
4022.614	18024
4024.199	17907
4025.785	17881
4027.37	17809
4028.953	18025
4030.536	18024
4032.12	17913
4033.704	17825
4035.287	17809
4036.869	17911
4038.45	17906
4040.032	17880
4041.613	17822
4043.195	17914
4044.776	17826
4046.356	17738
4047.935	17739
4049.515	17808
4051.095	17679
4052.674	17782
4054.251	17960
4055.829	17894
4057.406	17572
4058.985	17749
4060.562	17818
4062.139	17619
4063.715	17864
4065.29	17605
4066.865	17760
4068.442	17614
4070.016	17799
4071.59	17713
4073.164	17740
4074.738	17600
4076.312	17786
4077.885	17734
4079.458	17907
4081.03	17824
4082.602	17869
4084.173	17833
4085.745	17654
4087.315	17559
4088.886	17772
4090.456	17882
4092.026	17620
4093.596	17778
4095.165	17857
4096.734	17822
4098.301	17751
4099.869	17722
4101.437	17756
4103.006	17672
4104.572	17627
4106.139	17649
4107.704	17814
4109.27	17587
4110.837	17773
4112.401	17747
4113.966	17565
4115.53	17536
4117.094	17474
4118.659	17799
4120.223	17618
4121.785	17535
4123.347	17787
4124.909	17574
4126.471	17634
4128.034	17505
4129.595	17516
4131.155	17544
4132.716	17361
4134.275	17614
4135.836	17451
4137.395	17415
4138.955	17532
4140.513	17611
4142.071	17261
4143.628	17416
4145.188	17359
4146.745	17446
4148.302	17419
4149.858	17240
4151.414	17249
4152.971	17482
4154.526	17343
4156.081	17363
4157.635	17370
4159.189	17425
4160.745	17210
4162.298	17251
4163.852	17161
4165.405	17152
4166.957	16973
4168.51	17168
4170.063	17252
4171.614	17229
4173.166	17111
4174.717	17216
4176.267	17090
4177.817	16967
4179.368	16943
4180.917	17152
4182.466	17105
4184.016	17150
4185.564	17289
4187.112	17020
4188.66	17089
4190.207	16923
4191.754	17037
4193.301	17148
4194.848	17311
4196.394	17033
4197.94	17221
4199.484	17170
4201.03	16965
4202.575	16916
4204.12	17156
4205.663	17055
4207.207	16971
4208.75	17015
4210.292	17041
4211.836	16999
4213.378	16992
4214.92	17310
4216.46	17060
4218.002	17116
4219.544	17001
4221.083	17058
4222.625	17027
4224.164	17127
4225.703	16891
4227.244	16983
4228.782	16966
4230.32	17065
4231.857	17083
4233.395	17004
4234.933	16906
4236.471	17076
4238.007	17053
4239.542	16882
4241.078	17019
4242.614	16901
4244.15	16906
4245.685	16887
4247.219	17142
4248.753	16910
4250.287	17070
4251.82	17020
4253.354	17004
4254.887	16981
4256.419	16728
4257.951	16980
4259.483	17105
4261.016	17004
4262.547	17227
4264.078	17075
4265.608	16746
4267.137	16925
4268.668	16990
4270.197	16894
4271.727	17021
4273.254	16998
4274.783	16856
4276.311	16964
4277.84	16768
4279.366	17110
4280.894	16771
4282.42	16813
4283.946	17013
4285.473	17027
4286.998	16689
4288.523	16943
4290.047	16795
4291.572	16875
4293.096	16892
4294.622	16823
4296.144	16895
4297.668	16713
4299.19	16647
4300.713	16812
4302.236	16727
4303.758	16718
4305.279	16986
4306.799	16590
4308.321	16774
4309.842	16976
4311.361	16635
4312.882	16843
4314.401	16749
