400.0961	4313
402.6185	4295
405.1424	4275
407.6635	4360
410.1838	4390
412.7035	4499
415.2225	4436
417.7388	4437
420.2585	4496
422.7754	4573
425.2917	4723
427.8072	4605
430.3221	4709
432.8363	4810
435.3498	4708
437.8626	4673
440.3727	4757
442.8841	4702
445.3969	4664
447.907	4764
450.4142	4642
452.9229	4704
455.4289	4642
457.9362	4664
460.4449	4666
462.9488	4621
465.454	4541
467.9566	4678
470.4604	4581
472.9637	4612
475.4662	4663
477.966	4752
480.4671	4650
482.9656	4637
485.4633	4666
487.9645	4678
490.4608	4646
492.9566	4650
495.4536	4698
497.948	4765
500.4437	4613
502.9387	4792
505.431	4715
507.9226	4651
510.4136	4628
512.9079	4656
515.3975	4617
517.8864	4692
520.3746	4640
522.8622	4685
525.3491	4792
527.8394	4723
530.3249	4675
532.8098	4811
535.2939	4844
537.7774	4796
540.2623	4763
542.7444	4697
545.2259	4820
547.7067	4699
550.1868	4878
552.6683	4800
555.147	4890
557.6231	4827
560.1005	4883
562.5773	4908
565.0534	4859
567.5308	4947
570.0056	4880
572.4776	4956
574.951	5009
577.4237	4943
579.8978	5037
582.3671	5096
584.8378	4991
587.3079	5088
589.7773	5063
592.244	5080
594.714	5042
597.1793	5045
599.6461	4960
602.1121	4943
604.5754	5013
607.0421	4913
609.5042	5030
611.9675	4966
614.4282	4973
616.8902	4992
619.3515	4876
621.8122	4911
624.2702	4958
626.7296	4970
629.1863	4952
631.6423	4869
634.1017	4944
636.5563	4874
639.0104	4889
641.4658	4893
643.9185	4877
646.3725	4841
648.8239	4916
651.2766	4959
653.7266	4959
656.176	5042
658.6247	4946
661.0748	5048
663.5242	4990
665.9709	4987
668.417	5036
670.8624	5082
673.3092	4980
675.7533	5057
678.1968	4994
680.6395	5120
683.0817	5064
685.5251	5029
687.9659	5074
690.4061	5108
692.8456	5035
695.2844	5142
697.7226	5115
700.1621	5098
702.599	5056
705.0332	5155
707.4688	5157
709.9036	5068
712.3399	5178
714.7735	5154
717.2044	5119
719.6367	5213
722.0683	5161
724.4993	5120
726.9296	5210
729.3593	5163
731.7883	5290
734.2147	5316
736.6423	5169
739.0714	5270
741.4958	5264
743.9216	5318
746.3447	5343
748.7691	5338
751.1929	5313
753.616	5358
756.0366	5418
758.4584	5410
760.8776	5456
763.2982	5396
765.718	5411
768.1373	5558
770.5539	5414
772.9698	5464
775.3871	5426
777.8038	5455
780.2178	5457
782.6332	5430
785.0459	5416
787.458	5590
789.8714	5583
792.2842	5343
794.6943	5419
797.1038	5428
799.5127	5412
801.9209	5423
804.3324	5415
806.7393	5481
809.1456	5503
811.5513	5577
813.9562	5601
816.3625	5617
818.7663	5438
821.1693	5517
823.5718	5503
825.9735	5432
828.3746	5473
830.7771	5520
833.177	5514
835.5762	5465
837.9747	5524
840.3727	5489
842.772	5650
845.1666	5671
847.5626	5621
849.958	5688
852.3527	5639
854.7488	5693
857.1403	5749
859.5331	5667
861.9253	5688
864.3168	5645
866.7057	5654
869.098	5632
871.4876	5660
873.8746	5539
876.263	5645
878.6487	5692
881.0378	5628
883.4243	5541
885.8081	5711
888.1933	5605
890.5759	5672
892.9598	5670
895.343	5581
897.7256	5663
900.1057	5671
902.4871	5624
904.8659	5679
907.246	5754
909.6254	5705
912.0023	5832
914.3786	5844
916.7562	5991
919.1331	5861
921.5074	5942
923.8831	5912
926.2562	5940
928.6287	6047
931.0005	6029
933.3757	6101
935.7462	6087
938.1162	6107
940.4855	6136
942.8542	6270
945.2242	6388
947.5916	6602
949.9584	6742
952.3266	6997
954.6921	7436
957.0571	7957
959.4233	8206
961.787	8278
964.15	8347
966.5125	7902
968.8742	7435
971.2354	6965
973.5959	6717
975.9559	6379
978.3151	6238
980.6738	6093
983.0338	5939
985.3912	5864
987.7461	5907
990.1022	5841
992.4578	5848
994.8127	5828
997.1689	5918
999.5207	5959
1001.874	5967
1004.226	5978
1006.576	5890
1008.929	5983
1011.28	5868
1013.628	5981
1015.977	5896
1018.324	5859
1020.674	6045
1023.019	5999
1025.366	5992
1027.713	5919
1030.056	5981
1032.399	6002
1034.746	6053
1037.087	6017
1039.431	6272
1041.771	5976
1044.113	6087
1046.454	6096
1048.793	6116
1051.133	6103
1053.471	6029
1055.807	5996
1058.146	6087
1060.483	6111
1062.818	6113
1065.153	6276
1067.489	6198
1069.822	6179
1072.156	6339
1074.488	6392
1076.82	6336
1079.15	6223
1081.48	6243
1083.814	6167
1086.143	6119
1088.471	6163
1090.799	6059
1093.126	6016
1095.452	6128
1097.78	6075
1100.105	6140
1102.43	6098
1104.754	6053
1107.077	6050
1109.4	5980
1111.722	5995
1114.044	6003
1116.365	6051
1118.685	5995
1121.005	6056
1123.324	6050
1125.643	5965
1127.961	6011
1130.278	6007
1132.595	6020
1134.911	6065
1137.226	6021
1139.541	6040
1141.854	5999
1144.167	5987
1146.482	6073
1148.793	6018
1151.105	5991
1153.414	6076
1155.725	6004
1158.033	6037
1160.344	6088
1162.651	5997
1164.959	5977
1167.265	6031
1169.572	5933
1171.878	5984
1174.184	6000
1176.488	6030
1178.79	6028
1181.094	6020
1183.396	6072
1185.699	6101
1188.001	6070
1190.301	6076
1192.6	6023
1194.9	6042
1197.2	6119
1199.497	6045
1201.794	5938
1204.09	6035
1206.387	6036
1208.684	6058
1210.978	6153
1213.272	6027
1215.565	6171
1217.858	5949
1220.15	6093
1222.443	6039
1224.734	6108
1227.024	6109
1229.313	6164
1231.602	6270
1233.892	6252
1236.18	6356
1238.467	6324
1240.754	6373
1243.04	6266
1245.325	6378
1247.612	6379
1249.896	6335
1252.178	6302
1254.461	6413
1256.743	6325
1259.027	6320
1261.308	6320
1263.587	6282
1265.867	6291
1268.146	6388
1270.425	6430
1272.703	6533
1274.981	6391
1277.256	6324
1279.532	6346
1281.808	6261
1284.083	6281
1286.358	6217
1288.63	6304
1290.904	6364
1293.175	6292
1295.449	6261
1297.719	6299
1299.99	6236
1302.259	6140
1304.529	6174
1306.798	6249
1309.065	6251
1311.333	6238
1313.599	6068
1315.866	6266
1318.131	6206
1320.396	6206
1322.66	6181
1324.925	6225
1327.187	6222
1329.448	6321
1331.711	6286
1333.974	6334
1336.234	6185
1338.493	6177
1340.752	6217
1343.01	6193
1345.269	6136
1347.526	6162
1349.784	6251
1352.04	6195
1354.295	6097
1356.552	6207
1358.806	6250
1361.059	6146
1363.312	6197
1365.564	6230
1367.818	6293
1370.069	6328
1372.318	6242
1374.568	6292
1376.817	6222
1379.066	6129
1381.316	6235
1383.564	6224
1385.809	6301
1388.056	6227
1390.301	6338
1392.549	6268
1394.793	6391
1397.036	6487
1399.279	6458
1401.522	6358
1403.763	6392
1406.007	6411
1408.248	6228
1410.487	6292
1412.727	6461
1414.965	6392
1417.205	6322
1419.442	6385
1421.68	6439
1423.915	6325
1426.152	6437
1428.388	6502
1430.623	6412
1432.857	6388
1435.091	6453
1437.323	6515
1439.556	6405
1441.789	6629
1444.019	6431
1446.25	6617
1448.48	6550
1450.708	6604
1452.938	6661
1455.167	6606
1457.394	6696
1459.62	6630
1461.846	6561
1464.073	6591
1466.299	6562
1468.523	6472
1470.746	6416
1472.969	6499
1475.191	6538
1477.415	6416
1479.636	6390
1481.858	6253
1484.078	6284
1486.298	6265
1488.518	6287
1490.736	6340
1492.954	6171
1495.169	6204
1497.386	6234
1499.602	6262
1501.819	6156
1504.034	6187
1506.248	6232
1508.462	6159
1510.675	6224
1512.888	6253
1515.1	6265
1517.311	6163
1519.522	6232
1521.732	6188
1523.942	6203
1526.151	6258
1528.36	6148
1530.566	6280
1532.773	6203
1534.98	6222
1537.187	6303
1539.392	6174
1541.596	6271
1543.801	6234
1546.005	6186
1548.208	6175
1550.411	6282
1552.612	6309
1554.814	6322
1557.013	6267
1559.212	6323
1561.414	6408
1563.612	6247
1565.811	6355
1568.007	6453
1570.203	6328
1572.403	6368
1574.598	6323
1576.792	6298
1578.988	6408
1581.181	6434
1583.376	6505
1585.568	6483
1587.761	6566
1589.952	6482
1592.143	6357
1594.333	6494
1596.524	6313
1598.715	6526
1600.903	6411
1603.091	6448
1605.278	6369
1607.466	6435
1609.652	6484
1611.838	6432
1614.023	6455
1616.207	6552
1618.391	6445
1620.576	6500
1622.759	6487
1624.941	6500
1627.123	6606
1629.304	6429
1631.484	6577
1633.664	6466
1635.844	6585
1638.022	6530
1640.201	6495
1642.38	6589
1644.556	6558
1646.732	6531
1648.908	6449
1651.084	6614
1653.257	6688
1655.433	6682
1657.607	6702
1659.779	6582
1661.951	6673
1664.122	6668
1666.295	6760
1668.467	6644
1670.635	6773
1672.805	6765
1674.973	6724
1677.142	6788
1679.31	6642
1681.478	6629
1683.644	6602
1685.81	6643
1687.975	6691
1690.142	6700
1692.305	6516
1694.468	6550
1696.632	6585
1698.794	6636
1700.957	6589
1703.119	6637
1705.279	6497
1707.439	6433
1709.598	6465
1711.758	6432
1713.917	6357
1716.075	6500
1718.231	6482
1720.388	6346
1722.543	6357
1724.702	6343
1726.856	6415
1729.01	6340
1731.164	6496
1733.317	6422
1735.471	6458
1737.623	6478
1739.774	6463
1741.925	6474
1744.075	6363
1746.225	6515
1748.376	6344
1750.524	6493
1752.672	6283
1754.82	6430
1756.965	6437
1759.113	6501
1761.259	6414
1763.405	6438
1765.549	6489
1767.694	6436
1769.836	6628
1771.981	6498
1774.123	6495
1776.264	6472
1778.405	6469
1780.546	6447
1782.687	6396
1784.827	6430
1786.966	6417
1789.103	6452
1791.242	6406
1793.381	6510
1795.517	6539
1797.653	6474
1799.788	6417
1801.923	6537
1804.057	6445
1806.193	6484
1808.326	6423
1810.457	6505
1812.59	6642
1814.721	6555
1816.855	6511
1818.984	6463
1821.113	6472
1823.244	6349
1825.372	6439
1827.499	6563
1829.63	6398
1831.756	6380
1833.882	6361
1836.007	6468
1838.132	6420
1840.26	6431
1842.384	6414
1844.507	6424
1846.63	6409
1848.752	6387
1850.875	6478
1852.996	6404
1855.118	6313
1857.238	6522
1859.358	6433
1861.477	6450
1863.597	6480
1865.715	6488
1867.832	6468
1869.948	6341
1872.064	6334
1874.181	6419
1876.297	6300
1878.411	6399
1880.526	6410
1882.639	6509
1884.752	6426
1886.865	6420
1888.977	6477
1891.089	6454
1893.2	6480
1895.308	6423
1897.42	6466
1899.53	6452
1901.639	6444
1903.745	6547
1905.853	6568
1907.962	6369
1910.067	6459
1912.174	6502
1914.278	6409
1916.383	6405
1918.486	6487
1920.592	6541
1922.694	6457
1924.797	6505
1926.898	6409
1929	6477
1931.102	6399
1933.203	6492
1935.301	6503
1937.401	6504
1939.499	6513
1941.598	6578
1943.697	6580
1945.793	6469
1947.888	6504
1949.985	6524
1952.08	6572
1954.176	6564
1956.269	6486
1958.364	6554
1960.457	6502
1962.549	6553
1964.642	6509
1966.733	6597
1968.823	6448
1970.913	6536
1973.005	6558
1975.093	6507
1977.184	6431
1979.271	6460
1981.359	6522
1983.446	6542
1985.532	6450
1987.619	6365
1989.705	6460
1991.789	6544
1993.874	6441
1995.956	6491
1998.041	6449
2000.123	6499
2002.206	6384
2004.287	6503
2006.368	6374
2008.449	6329
2010.529	6466
2012.609	6447
2014.688	6494
2016.766	6563
2018.843	6582
2020.922	6416
2022.999	6540
2025.074	6485
2027.15	6501
2029.225	6463
2031.299	6443
2033.375	6463
2035.447	6420
2037.52	6340
2039.592	6411
2041.664	6469
2043.736	6433
2045.807	6481
2047.876	6440
2049.947	6467
2052.015	6573
2054.086	6482
2056.153	6503
2058.221	6496
2060.288	6463
2062.353	6447
2064.42	6454
2066.486	6381
2068.55	6433
2070.614	6423
2072.678	6407
2074.741	6409
2076.805	6517
2078.866	6557
2080.929	6511
2082.99	6563
2085.049	6444
2087.109	6506
2089.17	6465
2091.228	6428
2093.286	6513
2095.344	6458
2097.4	6523
2099.46	6537
2101.516	6431
2103.572	6496
2105.626	6359
2107.679	6455
2109.735	6474
2111.788	6447
2113.841	6438
2115.894	6375
2117.945	6482
2119.997	6364
2122.049	6460
2124.1	6586
2126.148	6488
2128.197	6415
2130.246	6394
2132.296	6462
2134.342	6462
2136.39	6380
2138.437	6370
2140.483	6447
2142.527	6315
2144.574	6453
2146.619	6442
2148.661	6333
2150.705	6426
2152.747	6380
2154.792	6306
2156.832	6401
2158.874	6373
2160.915	6471
2162.954	6489
2164.995	6329
2167.034	6447
2169.072	6343
2171.111	6388
2173.148	6353
2175.186	6399
2177.223	6356
2179.258	6348
2181.294	6407
2183.328	6439
2185.362	6397
2187.398	6197
2189.431	6281
2191.463	6315
2193.495	6328
2195.528	6317
2197.56	6316
2199.59	6370
2201.62	6234
2203.649	6294
2205.678	6281
2207.708	6320
2209.737	6241
2211.764	6288
2213.791	6246
2215.817	6255
2217.843	6297
2219.87	6274
2221.895	6326
2223.919	6221
2225.942	6297
2227.966	6219
2229.988	6297
2232.012	6229
2234.032	6276
2236.054	6301
2238.074	6185
2240.095	6344
2242.116	6229
2244.135	6399
2246.153	6250
2248.171	6286
2250.188	6219
2252.208	6207
2254.223	6248
2256.239	6254
2258.255	6304
2260.269	6257
2262.283	6154
2264.3	6154
2266.312	6252
2268.325	6389
2270.336	6276
2272.349	6203
2274.362	6327
2276.372	6356
2278.383	6261
2280.392	6268
2282.402	6197
2284.409	6227
2286.418	6278
2288.427	6311
2290.433	6158
2292.441	6331
2294.446	6246
2296.453	6196
2298.459	6204
2300.463	6269
2302.466	6388
2304.471	6309
2306.475	6165
2308.477	6266
2310.478	6218
2312.481	6338
2314.481	6180
2316.481	6169
2318.482	6187
2320.482	6125
2322.48	6213
2324.48	6193
2326.478	6222
2328.476	6248
2330.473	6177
2332.469	6055
2334.465	6197
2336.46	6253
2338.454	6196
2340.45	6134
2342.444	6179
2344.437	6064
2346.43	6204
2348.421	6045
2350.414	6294
2352.405	6038
2354.396	6124
2356.386	6074
2358.376	6096
2360.366	6180
2362.355	6196
2364.343	6071
2366.331	6082
2368.317	6063
2370.304	6063
2372.292	6116
2374.278	6087
2376.262	6026
2378.247	6009
2380.23	6169
2382.216	6092
2384.199	6057
2386.181	6048
2388.163	6017
2390.144	5980
2392.127	6060
2394.107	5968
2396.087	6089
2398.066	6024
2400.046	6068
2402.023	6010
2404.004	6030
2405.981	6064
2407.957	6018
2409.934	6056
2411.91	6102
2413.886	6153
2415.862	6143
2417.836	6055
2419.809	5916
2421.784	6057
2423.756	5914
2425.73	6073
2427.701	5935
2429.672	6047
2431.644	6005
2433.615	5972
2435.586	5982
2437.555	6112
2439.523	6074
2441.491	5980
2443.459	6115
2445.428	6020
2447.395	5979
2449.361	6033
2451.327	6039
2453.292	6110
2455.257	5993
2457.223	6035
2459.187	6035
2461.15	5894
2463.113	5941
2465.076	6057
2467.039	5977
2468.999	5968
2470.96	6053
2472.921	5908
2474.881	5931
2476.841	5893
2478.8	5835
2480.759	5920
2482.717	6040
2484.675	5916
2486.63	5869
2488.589	6067
2490.545	5944
2492.5	5894
2494.455	5939
2496.408	5889
2498.364	5917
2500.318	5926
2502.27	5820
2504.223	5845
2506.174	6043
2508.126	5871
2510.078	5945
2512.03	5896
2513.979	5910
2515.927	5902
2517.877	5886
2519.826	5930
2521.775	5909
2523.722	5888
2525.668	5941
2527.616	5858
2529.561	5843
2531.508	5893
2533.452	5904
2535.398	6001
2537.342	5974
2539.284	5773
2541.229	5843
2543.173	5879
2545.114	5898
2547.055	5907
2548.996	5904
2550.938	5868
2552.878	5881
2554.817	5894
2556.756	5897
2558.695	5869
2560.633	5858
2562.572	5821
2564.509	5883
2566.445	5891
2568.382	5766
2570.317	5980
2572.254	5900
2574.189	5875
2576.123	5816
2578.057	5786
2579.99	5847
2581.923	5955
2583.855	5816
2585.788	5928
2587.719	5820
2589.65	5963
2591.579	5835
2593.511	5975
2595.44	5892
2597.37	5793
2599.297	5837
2601.225	5929
2603.153	5801
2605.08	5897
2607.007	5854
2608.932	5874
2610.858	5965
2612.782	5818
2614.709	5911
2616.632	5858
2618.556	5891
2620.478	5804
2622.401	5823
2624.324	5899
2626.247	5825
2628.167	5864
2630.088	5852
2632.008	5951
2633.928	6000
2635.848	5878
2637.766	5907
2639.684	5920
2641.603	5910
2643.519	5862
2645.437	5891
2647.353	5935
2649.27	5876
2651.184	5897
2653.099	5878
2655.014	5854
2656.928	5841
2658.842	5895
2660.755	5838
2662.667	5931
2664.579	5927
2666.491	5913
2668.402	5935
2670.312	5982
2672.222	5777
2674.132	5855
2676.042	5820
2677.951	5835
2679.859	5831
2681.766	5958
2683.674	5975
2685.582	5791
2687.488	5837
2689.392	5755
2691.298	5861
2693.202	5790
2695.107	5799
2697.012	5796
2698.914	5806
2700.817	5762
2702.72	5873
2704.622	5761
2706.524	5761
2708.425	5803
2710.326	5794
2712.225	5815
2714.125	5877
2716.024	5756
2717.923	5817
2719.822	5683
2721.719	5730
2723.616	5748
2725.512	5734
2727.41	5860
2729.305	5698
2731.201	5848
2733.095	5705
2734.99	5836
2736.884	5746
2738.778	5755
2740.67	5822
2742.562	5809
2744.455	5796
2746.346	5679
2748.238	5776
2750.129	5813
2752.018	5713
2753.907	5680
2755.797	5709
2757.687	5788
2759.575	5628
2761.462	5723
2763.349	5807
2765.237	5769
2767.124	5758
2769.009	5755
2770.894	5671
2772.779	5745
2774.663	5742
2776.547	5712
2778.431	5742
2780.314	5639
2782.197	5684
2784.078	5792
2785.96	5724
2787.842	5721
2789.723	5742
2791.603	5749
2793.483	5657
2795.362	5746
2797.241	5673
2799.121	5671
2800.997	5697
2802.874	5665
2804.751	5648
2806.628	5653
2808.506	5594
2810.38	5568
2812.255	5674
2814.13	5700
2816.003	5707
2817.878	5664
2819.752	5683
2821.623	5615
2823.496	5670
2825.368	5708
2827.238	5511
2829.111	5610
2830.98	5668
2832.851	5706
2834.719	5671
2836.589	5637
2838.458	5746
2840.327	5710
2842.193	5667
2844.061	5689
2845.927	5681
2847.794	5667
2849.66	5736
2851.525	5724
2853.39	5618
2855.254	5783
2857.117	5772
2858.983	5820
2860.845	5719
2862.707	5819
2864.569	5843
2866.431	5947
2868.293	5940
2870.154	6028
2872.013	6029
2873.873	6055
2875.733	6190
2877.592	6270
2879.451	6290
2881.309	6182
2883.166	6187
2885.022	6254
2886.879	6358
2888.736	6270
2890.591	6385
2892.446	6373
2894.301	6258
2896.155	6340
2898.009	6268
2899.863	6224
2901.716	6301
2903.568	6367
2905.419	6254
2907.27	6325
2909.123	6274
2910.973	6331
2912.824	6281
2914.673	6536
2916.521	6424
2918.372	6519
2920.22	6583
2922.067	6665
2923.914	6671
2925.761	6898
2927.607	6832
2929.455	6997
2931.301	6913
2933.144	6955
2934.99	7019
2936.833	7073
2938.678	7353
2940.522	7220
2942.364	7491
2944.207	7301
2946.048	7372
2947.891	7539
2949.731	7360
2951.571	7403
2953.412	7316
2955.25	7163
2957.09	7186
2958.93	6905
2960.767	7050
2962.606	6987
2964.443	6915
2966.279	6758
2968.116	6867
2969.953	6761
2971.788	6706
2973.623	6473
2975.457	6601
2977.292	6655
2979.127	6513
2980.959	6528
2982.792	6535
2984.624	6508
2986.455	6474
2988.288	6474
2990.119	6265
2991.949	6417
2993.779	6383
2995.608	6267
2997.439	6273
2999.268	6232
3001.096	6159
3002.923	6032
3004.751	5990
3006.578	5957
3008.406	5894
3010.232	5871
3012.057	5868
3013.883	5792
3015.706	5712
3017.532	5555
3019.356	5690
3021.179	5523
3023.002	5595
3024.823	5587
3026.646	5584
3028.469	5489
3030.289	5471
3032.11	5509
3033.93	5335
3035.749	5432
3037.57	5480
3039.39	5362
3041.207	5511
3043.026	5441
3044.842	5453
3046.661	5291
3048.477	5321
3050.294	5450
3052.109	5388
3053.925	5334
3055.739	5444
3057.555	5308
3059.368	5413
3061.181	5314
3062.995	5508
3064.807	5356
3066.62	5388
3068.433	5445
3070.243	5402
3072.054	5402
3073.865	5329
3075.675	5373
3077.485	5336
3079.293	5420
3081.102	5345
3082.911	5367
3084.719	5269
3086.527	5385
3088.333	5298
3090.139	5230
3091.945	5223
3093.75	5316
3095.557	5253
3097.361	5321
3099.165	5233
3100.969	5287
3102.772	5209
3104.575	5191
3106.379	5149
3108.181	5185
3109.982	5214
3111.783	5231
3113.584	5253
3115.386	5129
3117.186	5186
3118.985	5186
3120.783	5176
3122.582	5213
3124.381	5131
3126.179	5111
3127.975	5187
3129.772	5108
3131.569	5229
3133.365	5153
3135.161	5095
3136.956	5110
3138.751	5165
3140.544	5108
3142.338	5113
3144.132	5102
3145.925	5040
3147.717	5097
3149.509	5056
3151.301	5099
3153.091	5170
3154.884	5104
3156.673	5138
3158.462	5116
3160.252	5152
3162.041	5053
3163.831	5126
3165.618	5123
3167.405	5104
3169.193	5148
3170.979	5117
3172.767	5054
3174.553	5059
3176.338	5048
3178.123	5150
3179.907	5084
3181.692	5121
3183.477	5126
3185.259	5056
3187.042	5113
3188.824	5110
3190.607	5072
3192.389	5052
3194.17	5025
3195.951	5007
3197.73	5081
3199.51	5067
3201.289	5050
3203.07	5052
3204.848	5108
3206.626	4940
3208.403	5002
3210.18	5042
3211.959	5025
3213.735	4953
3215.511	5055
3217.285	5098
3219.06	4991
3220.836	5145
3222.611	5094
3224.384	5099
3226.158	5077
3227.929	5021
3229.702	5038
3231.476	5016
3233.248	5024
3235.018	5054
3236.789	4941
3238.56	5032
3240.33	5043
3242.1	5060
3243.869	5006
3245.637	5067
3247.405	5020
3249.172	5021
3250.941	4967
3252.707	4959
3254.474	5053
3256.24	5072
3258.006	5057
3259.772	5084
3261.537	5056
3263.301	5054
3265.065	5117
3266.828	5038
3268.592	5027
3270.355	5117
3272.117	5042
3273.878	5066
3275.64	5022
3277.401	5073
3279.162	5064
3280.922	5130
3282.682	5084
3284.441	5020
3286.199	5177
3287.959	5104
3289.716	5109
3291.475	5063
3293.232	5129
3294.988	5009
3296.744	5017
3298.501	5081
3300.256	5040
3302.011	5080
3303.766	5068
3305.52	5076
3307.275	4980
3309.028	5050
3310.781	4982
3312.533	5067
3314.285	5044
3316.038	4974
3317.789	5117
3319.54	4959
3321.289	5173
3323.039	5036
3324.789	5122
3326.539	4953
3328.288	5101
3330.035	5066
3331.783	5014
3333.531	5035
3335.28	5106
3337.025	5103
3338.771	5144
3340.518	5018
3342.262	5062
3344.009	4933
3345.753	5044
3347.497	4951
3349.24	5011
3350.983	4958
3352.726	4977
3354.469	4971
3356.212	4958
3357.952	4934
3359.694	4886
3361.434	4857
3363.176	4862
3364.916	4988
3366.654	4902
3368.394	4993
3370.132	4942
3371.871	4891
3373.61	4877
3375.346	4877
3377.083	4999
3378.82	4787
3380.556	4826
3382.292	4839
3384.027	4836
3385.763	4915
3387.497	4926
3389.231	4983
3390.965	4801
3392.698	4941
3394.431	4839
3396.164	4842
3397.896	4741
3399.627	4915
3401.36	4725
3403.09	4900
3404.82	4761
3406.55	4868
3408.279	4730
3410.01	4722
3411.738	4884
3413.467	4773
3415.194	4770
3416.92	4739
3418.647	4889
3420.375	4803
3422.102	4842
3423.827	4809
3425.553	4760
3427.277	4767
3429.003	4789
3430.727	4741
3432.451	4770
3434.173	4658
3435.896	4775
3437.62	4686
3439.343	4716
3441.063	4730
3442.785	4636
3444.505	4647
3446.226	4694
3447.948	4710
3449.666	4701
3451.386	4743
3453.104	4758
3454.823	4652
3456.541	4568
3458.259	4597
3459.976	4598
3461.693	4570
3463.408	4628
3465.125	4600
3466.841	4612
3468.556	4631
3470.271	4695
3471.985	4600
3473.698	4690
3475.414	4655
3477.126	4527
3478.838	4566
3480.55	4525
3482.263	4522
3483.975	4565
3485.686	4482
3487.396	4522
3489.106	4522
3490.817	4513
3492.526	4504
3494.236	4522
3495.944	4550
3497.652	4642
3499.359	4389
3501.066	4551
3502.775	4483
3504.481	4409
3506.187	4395
3507.893	4490
3509.598	4424
3511.304	4382
3513.009	4458
3514.713	4447
3516.417	4365
3518.12	4427
3519.821	4391
3521.525	4200
3523.228	4479
3524.929	4304
3526.631	4325
3528.33	4367
3530.032	4292
3531.733	4434
3533.433	4402
3535.131	4344
3536.83	4388
3538.529	4337
3540.227	4307
3541.925	4374
3543.623	4269
3545.319	4264
3547.016	4340
3548.712	4293
3550.408	4268
3552.103	4251
3553.798	4281
3555.491	4387
3557.188	4301
3558.88	4273
3560.574	4358
3562.266	4259
3563.959	4232
3565.651	4155
3567.343	4288
3569.035	4168
3570.725	4237
3572.415	4218
3574.106	4230
3575.797	4171
3577.485	4314
3579.174	4159
3580.863	4270
3582.551	4221
3584.238	4135
3585.926	4091
3587.613	4222
3589.3	4131
3590.986	4170
3592.671	4224
3594.357	4202
3596.042	4082
3597.726	4061
3599.41	4176
3601.094	4239
3602.778	4039
3604.461	4123
3606.143	4095
3607.825	4085
3609.507	4059
3611.188	3994
3612.87	4135
3614.551	4172
3616.229	4011
3617.909	4048
3619.589	4022
3621.269	4005
3622.948	4033
3624.625	4034
3626.302	4040
3627.98	4066
3629.657	3970
3631.334	3989
3633.01	4047
3634.686	4019
3636.361	3928
3638.036	3939
3639.712	3936
3641.385	3931
3643.06	3919
3644.732	3885
3646.405	3942
3648.08	3885
3649.751	3964
3651.424	3905
3653.094	3937
3654.766	3860
3656.436	3882
3658.106	4004
3659.777	3877
3661.446	4009
3663.115	3931
3664.783	3855
3666.452	3925
3668.121	3904
3669.788	3862
3671.454	3836
3673.121	3862
3674.789	3824
3676.455	3776
3678.12	3902
3679.784	3901
3681.45	3842
3683.114	3824
3684.779	3805
3686.442	3755
3688.105	3764
3689.768	3813
3691.43	3820
3693.093	3884
3694.754	3819
3696.415	3706
3698.076	3775
3699.736	3735
3701.396	3736
3703.057	3826
3704.716	3774
3706.375	3884
3708.034	3697
3709.692	3742
3711.351	3704
3713.008	3801
3714.665	3717
3716.321	3708
3717.977	3766
3719.634	3798
3721.29	3759
3722.945	3696
3724.598	3752
3726.253	3735
3727.907	3791
3729.561	3698
3731.214	3761
3732.867	3699
3734.518	3777
3736.171	3727
3737.824	3725
3739.474	3625
3741.125	3743
3742.775	3671
3744.425	3732
3746.074	3764
3747.725	3685
3749.373	3696
3751.022	3701
3752.669	3670
3754.318	3724
3755.966	3744
3757.612	3608
3759.259	3651
3760.905	3661
3762.55	3670
3764.197	3658
3765.842	3656
3767.486	3633
3769.131	3628
3770.774	3658
3772.417	3603
3774.061	3640
3775.705	3607
3777.347	3698
3778.988	3587
3780.629	3680
3782.271	3659
3783.912	3571
3785.552	3597
3787.192	3655
3788.831	3598
3790.472	3569
3792.112	3621
3793.75	3452
3795.388	3568
3797.024	3573
3798.661	3603
3800.3	3528
3801.936	3531
3803.572	3538
3805.208	3520
3806.844	3519
3808.48	3598
3810.115	3592
3811.748	3607
3813.382	3581
3815.016	3488
3816.649	3549
3818.283	3556
3819.914	3551
3821.547	3451
3823.178	3521
3824.809	3508
3826.441	3471
3828.072	3401
3829.701	3467
3831.331	3509
3832.96	3418
3834.591	3485
3836.219	3529
3837.847	3480
3839.475	3486
3841.102	3430
3842.729	3480
3844.357	3486
3845.984	3431
3847.609	3506
3849.234	3482
3850.86	3420
3852.485	3458
3854.11	3480
3855.734	3433
3857.357	3456
3858.981	3440
3860.603	3408
3862.227	3436
3863.848	3480
3865.471	3427
3867.092	3401
3868.713	3443
3870.334	3466
3871.954	3399
3873.575	3371
3875.194	3371
3876.813	3385
3878.433	3387
3880.051	3414
3881.669	3421
3883.286	3406
3884.904	3394
3886.52	3411
3888.138	3332
3889.754	3404
3891.37	3389
3892.985	3438
3894.6	3312
3896.216	3380
3897.831	3431
3899.444	3385
3901.058	3366
3902.67	3375
3904.283	3408
3905.897	3305
3907.509	3293
3909.121	3397
3910.731	3382
3912.342	3426
3913.954	3381
3915.563	3357
3917.174	3360
3918.783	3283
3920.391	3385
3922.002	3387
3923.611	3305
3925.218	3404
3926.826	3342
3928.432	3304
3930.039	3406
3931.647	3366
3933.253	3375
3934.859	3344
3936.464	3385
3938.068	3336
3939.675	3355
3941.278	3301
3942.883	3276
3944.486	3222
3946.089	3343
3947.692	3332
3949.295	3301
3950.898	3355
3952.499	3322
3954.1	3350
3955.7	3311
3957.303	3306
3958.903	3209
3960.502	3214
3962.101	3407
3963.7	3264
3965.301	3277
3966.899	3215
3968.497	3275
3970.094	3261
3971.691	3231
3973.288	3246
3974.885	3312
3976.481	3258
3978.077	3235
3979.672	3229
3981.267	3220
3982.863	3155
3984.457	3210
3986.051	3222
3987.645	3197
3989.238	3203
3990.831	3265
3992.425	3115
3994.017	3217
3995.607	3251
3997.199	3179
3998.79	3227
4000.382	3190
4001.973	3140
4003.561	3204
4005.151	3149
4006.741	3144
4008.331	3157
4009.918	3066
4011.507	3192
4013.095	3130
4014.681	3107
4016.269	3123
4017.856	3148
4019.443	3143
4021.028	3166
4022.614	3095
4024.199	3145
4025.785	3013
4027.37	3123
4028.953	3161
4030.536	2991
4032.12	3154
4033.704	3046
4035.287	3150
4036.869	3021
4038.45	3094
4040.032	3026
4041.613	3037
4043.195	2991
4044.776	3063
4046.356	3026
4047.935	3090
4049.515	3074
4051.095	3019
4052.674	2997
4054.251	3060
4055.829	3068
4057.406	2960
4058.985	3038
4060.562	3041
4062.139	3061
4063.715	3089
4065.29	3002
4066.865	3050
4068.442	3026
4070.016	3044
4071.59	3054
4073.164	3011
4074.738	2953
4076.312	3071
4077.885	3007
4079.458	2992
4081.03	3026
4082.602	2990
4084.173	2974
4085.745	3008
4087.315	2982
4088.886	3009
4090.456	3031
4092.026	2916
4093.596	3018
4095.165	3013
4096.734	2919
4098.301	2968
4099.869	2972
4101.437	2964
4103.006	2917
4104.572	2923
4106.139	2979
4107.704	3007
4109.27	2941
4110.837	2949
4112.401	2925
4113.966	2922
4115.53	2937
4117.094	2961
4118.659	2997
4120.223	2941
4121.785	2950
4123.347	2931
4124.909	2908
4126.471	2960
4128.034	2885
4129.595	2953
4131.155	2860
4132.716	2885
4134.275	2897
4135.836	2952
4137.395	2911
4138.955	2842
4140.513	2865
4142.071	2947
4143.628	2905
4145.188	2826
4146.745	2905
4148.302	2842
4149.858	2850
4151.414	2848
4152.971	2864
4154.526	2838
4156.081	2793
4157.635	2872
4159.189	2829
4160.745	2818
4162.298	2859
4163.852	2887
4165.405	2808
4166.957	2764
4168.51	2807
4170.063	2808
4171.614	2872
4173.166	2822
4174.717	2839
4176.267	2833
4177.817	2758
4179.368	2736
4180.917	2796
4182.466	2792
4184.016	2798
4185.564	2817
4187.112	2789
4188.66	2705
4190.207	2798
4191.754	2767
4193.301	2758
4194.848	2732
4196.394	2733
4197.94	2746
4199.484	2704
4201.03	2752
4202.575	2770
4204.12	2732
4205.663	2770
4207.207	2758
4208.75	2799
4210.292	2735
4211.836	2742
4213.378	2746
4214.92	2723
4216.46	2797
4218.002	2690
4219.544	2714
4221.083	2782
4222.625	2731
4224.164	2725
4225.703	2700
4227.244	2700
4228.782	2716
4230.32	2750
4231.857	2782
4233.395	2771
4234.933	2777
4236.471	2682
4238.007	2733
4239.542	2671
4241.078	2683
4242.614	2684
4244.15	2637
4245.685	2705
4247.219	2671
4248.753	2684
4250.287	2603
4251.82	2703
4253.354	2712
4254.887	2634
4256.419	2620
4257.951	2684
4259.483	2630
4261.016	2692
4262.547	2642
4264.078	2626
4265.608	2679
4267.137	2685
4268.668	2611
4270.197	2665
4271.727	2618
4273.254	2700
4274.783	2668
4276.311	2639
4277.84	2611
4279.366	2640
4280.894	2648
4282.42	2622
4283.946	2601
4285.473	2591
4286.998	2687
4288.523	2606
4290.047	2592
4291.572	2681
4293.096	2676
4294.622	2627
4296.144	2567
4297.668	2608
4299.19	2593
4300.713	2484
4302.236	2565
4303.758	2637
4305.279	2551
4306.799	2551
4308.321	2601
4309.842	2577
4311.361	2586
4312.882	2619
4314.401	2590
