400.0961	2424
402.6185	2391
405.1424	2455
407.6635	2386
410.1838	2437
412.7035	2478
415.2225	2498
417.7388	2429
420.2585	2560
422.7754	2520
425.2917	2602
427.8072	2611
430.3221	2652
432.8363	2627
435.3498	2623
437.8626	2566
440.3727	2646
442.8841	2637
445.3969	2624
447.907	2624
450.4142	2562
452.9229	2623
455.4289	2569
457.9362	2507
460.4449	2600
462.9488	2519
465.454	2581
467.9566	2584
470.4604	2518
472.9637	2508
475.4662	2508
477.966	2507
480.4671	2559
482.9656	2558
485.4633	2535
487.9645	2488
490.4608	2567
492.9566	2548
495.4536	2526
497.948	2521
500.4437	2548
502.9387	2540
505.431	2580
507.9226	2537
510.4136	2594
512.9079	2583
515.3975	2574
517.8864	2528
520.3746	2519
522.8622	2627
525.3491	2634
527.8394	2598
530.3249	2600
532.8098	2595
535.2939	2689
537.7774	2607
540.2623	2565
542.7444	2693
545.2259	2637
547.7067	2601
550.1868	2605
552.6683	2721
555.147	2611
557.6231	2603
560.1005	2614
562.5773	2696
565.0534	2632
567.5308	2713
570.0056	2638
572.4776	2759
574.951	2774
577.4237	2754
579.8978	2730
582.3671	2782
584.8378	2765
587.3079	2791
589.7773	2700
592.244	2821
594.714	2729
597.1793	2737
599.6461	2675
602.1121	2741
604.5754	2748
607.0421	2695
609.5042	2679
611.9675	2642
614.4282	2676
616.8902	2749
619.3515	2717
621.8122	2705
624.2702	2635
626.7296	2686
629.1863	2640
631.6423	2611
634.1017	2631
636.5563	2684
639.0104	2638
641.4658	2664
643.9185	2623
646.3725	2684
648.8239	2602
651.2766	2713
653.7266	2691
656.176	2627
658.6247	2636
661.0748	2625
663.5242	2656
665.9709	2675
668.417	2735
670.8624	2726
673.3092	2683
675.7533	2717
678.1968	2725
680.6395	2762
683.0817	2628
685.5251	2748
687.9659	2747
690.4061	2723
692.8456	2733
695.2844	2783
697.7226	2793
700.1621	2768
702.599	2754
705.0332	2654
707.4688	2695
709.9036	2760
712.3399	2779
714.7735	2775
717.2044	2691
719.6367	2809
722.0683	2744
724.4993	2777
726.9296	2798
729.3593	2784
731.7883	2803
734.2147	2841
736.6423	2799
739.0714	2854
741.4958	2795
743.9216	2825
746.3447	2873
748.7691	2916
751.1929	2843
753.616	2878
756.0366	2961
758.4584	2934
760.8776	2897
763.2982	2867
765.718	2909
768.1373	2823
770.5539	2918
772.9698	2971
775.3871	2865
777.8038	2926
780.2178	2931
782.6332	2887
785.0459	2879
787.458	2918
789.8714	2918
792.2842	2846
794.6943	2887
797.1038	2973
799.5127	2959
801.9209	2813
804.3324	2990
806.7393	2896
809.1456	2940
811.5513	2928
813.9562	2919
816.3625	2947
818.7663	2935
821.1693	2994
823.5718	2989
825.9735	3034
828.3746	2902
830.7771	2915
833.177	2949
835.5762	2992
837.9747	2994
840.3727	2939
842.772	3025
845.1666	3024
847.5626	3033
849.958	3021
852.3527	3117
854.7488	3039
857.1403	3095
859.5331	3067
861.9253	3087
864.3168	3059
866.7057	3098
869.098	3083
871.4876	3146
873.8746	3092
876.263	3086
878.6487	2956
881.0378	3035
883.4243	3060
885.8081	3053
888.1933	3140
890.5759	3117
892.9598	3194
895.343	3030
897.7256	3038
900.1057	3094
902.4871	2989
904.8659	2995
907.246	3089
909.6254	3103
912.0023	3113
914.3786	3159
916.7562	3185
919.1331	3227
921.5074	3289
923.8831	3303
926.2562	3312
928.6287	3288
931.0005	3324
933.3757	3339
935.7462	3344
938.1162	3350
940.4855	3417
942.8542	3536
945.2242	3444
947.5916	3592
949.9584	3772
952.3266	3951
954.6921	4135
957.0571	4418
959.4233	4659
961.787	4846
964.15	4700
966.5125	4508
968.8742	4187
971.2354	3879
973.5959	3690
975.9559	3486
978.3151	3397
980.6738	3316
983.0338	3303
985.3912	3228
987.7461	3203
990.1022	3242
992.4578	3159
994.8127	3190
997.1689	3149
999.5207	3189
1001.874	3191
1004.226	3224
1006.576	3226
1008.929	3244
1011.28	3196
1013.628	3199
1015.977	3232
1018.324	3198
1020.674	3176
1023.019	3207
1025.366	3222
1027.713	3295
1030.056	3221
1032.399	3266
1034.746	3295
1037.087	3260
1039.431	3262
1041.771	3231
1044.113	3284
1046.454	3359
1048.793	3216
1051.133	3285
1053.471	3221
1055.807	3224
1058.146	3325
1060.483	3349
1062.818	3297
1065.153	3329
1067.489	3469
1069.822	3416
1072.156	3488
1074.488	3390
1076.82	3421
1079.15	3362
1081.48	3405
1083.814	3304
1086.143	3218
1088.471	3298
1090.799	3309
1093.126	3231
1095.452	3256
1097.78	3302
1100.105	3302
1102.43	3219
1104.754	3253
1107.077	3273
1109.4	3175
1111.722	3286
1114.044	3273
1116.365	3188
1118.685	3228
1121.005	3236
1123.324	3194
1125.643	3225
1127.961	3281
1130.278	3247
1132.595	3149
1134.911	3229
1137.226	3194
1139.541	3154
1141.854	3197
1144.167	3163
1146.482	3268
1148.793	3162
1151.105	3160
1153.414	3228
1155.725	3233
1158.033	3253
1160.344	3206
1162.651	3259
1164.959	3262
1167.265	3188
1169.572	3205
1171.878	3275
1174.184	3279
1176.488	3259
1178.79	3272
1181.094	3317
1183.396	3349
1185.699	3223
1188.001	3202
1190.301	3256
1192.6	3278
1194.9	3297
1197.2	3205
1199.497	3222
1201.794	3330
1204.09	3234
1206.387	3329
1208.684	3307
1210.978	3254
1213.272	3336
1215.565	3253
1217.858	3249
1220.15	3290
1222.443	3279
1224.734	3288
1227.024	3306
1229.313	3350
1231.602	3366
1233.892	3380
1236.18	3434
1238.467	3416
1240.754	3438
1243.04	3445
1245.325	3461
1247.612	3449
1249.896	3525
1252.178	3521
1254.461	3492
1256.743	3451
1259.027	3501
1261.308	3497
1263.587	3492
1265.867	3468
1268.146	3474
1270.425	3442
1272.703	3452
1274.981	3467
1277.256	3498
1279.532	3507
1281.808	3414
1284.083	3440
1286.358	3518
1288.63	3375
1290.904	3380
1293.175	3365
1295.449	3393
1297.719	3371
1299.99	3335
1302.259	3364
1304.529	3363
1306.798	3375
1309.065	3402
1311.333	3391
1313.599	3453
1315.866	3375
1318.131	3390
1320.396	3350
1322.66	3412
1324.925	3381
1327.187	3350
1329.448	3354
1331.711	3323
1333.974	3486
1336.234	3436
1338.493	3366
1340.752	3402
1343.01	3381
1345.269	3360
1347.526	3358
1349.784	3301
1352.04	3315
1354.295	3277
1356.552	3376
1358.806	3412
1361.059	3384
1363.312	3331
1365.564	3426
1367.818	3435
1370.069	3437
1372.318	3487
1374.568	3330
1376.817	3406
1379.066	3470
1381.316	3396
1383.564	3482
1385.809	3418
1388.056	3493
1390.301	3529
1392.549	3537
1394.793	3564
1397.036	3493
1399.279	3548
1401.522	3521
1403.763	3524
1406.007	3574
1408.248	3580
1410.487	3529
1412.727	3503
1414.965	3531
1417.205	3640
1419.442	3509
1421.68	3569
1423.915	3576
1426.152	3521
1428.388	3449
1430.623	3566
1432.857	3498
1435.091	3576
1437.323	3634
1439.556	3603
1441.789	3644
1444.019	3652
1446.25	3669
1448.48	3640
1450.708	3667
1452.938	3668
1455.167	3646
1457.394	3616
1459.62	3627
1461.846	3646
1464.073	3608
1466.299	3674
1468.523	3586
1470.746	3554
1472.969	3579
1475.191	3576
1477.415	3481
1479.636	3470
1481.858	3513
1484.078	3422
1486.298	3438
1488.518	3385
1490.736	3421
1492.954	3302
1495.169	3401
1497.386	3446
1499.602	3381
1501.819	3372
1504.034	3383
1506.248	3345
1508.462	3417
1510.675	3356
1512.888	3434
1515.1	3350
1517.311	3431
1519.522	3397
1521.732	3382
1523.942	3294
1526.151	3402
1528.36	3372
1530.566	3360
1532.773	3407
1534.98	3386
1537.187	3372
1539.392	3394
1541.596	3365
1543.801	3406
1546.005	3375
1548.208	3325
1550.411	3417
1552.612	3449
1554.814	3406
1557.013	3402
1559.212	3495
1561.414	3414
1563.612	3477
1565.811	3396
1568.007	3467
1570.203	3496
1572.403	3465
1574.598	3501
1576.792	3531
1578.988	3496
1581.181	3495
1583.376	3507
1585.568	3530
1587.761	3445
1589.952	3472
1592.143	3515
1594.333	3468
1596.524	3547
1598.715	3395
1600.903	3536
1603.091	3515
1605.278	3529
1607.466	3511
1609.652	3511
1611.838	3475
1614.023	3478
1616.207	3543
1618.391	3568
1620.576	3544
1622.759	3558
1624.941	3554
1627.123	3558
1629.304	3573
1631.484	3572
1633.664	3606
1635.844	3610
1638.022	3611
1640.201	3660
1642.38	3693
1644.556	3698
1646.732	3571
1648.908	3627
1651.084	3670
1653.257	3677
1655.433	3719
1657.607	3642
1659.779	3672
1661.951	3644
1664.122	3699
1666.295	3758
1668.467	3695
1670.635	3683
1672.805	3708
1674.973	3702
1677.142	3744
1679.31	3687
1681.478	3669
1683.644	3640
1685.81	3717
1687.975	3563
1690.142	3656
1692.305	3590
1694.468	3617
1696.632	3636
1698.794	3590
1700.957	3639
1703.119	3499
1705.279	3471
1707.439	3580
1709.598	3544
1711.758	3554
1713.917	3555
1716.075	3495
1718.231	3461
1720.388	3523
1722.543	3424
1724.702	3455
1726.856	3437
1729.01	3489
1731.164	3519
1733.317	3499
1735.471	3525
1737.623	3395
1739.774	3488
1741.925	3459
1744.075	3459
1746.225	3509
1748.376	3457
1750.524	3437
1752.672	3519
1754.82	3462
1756.965	3539
1759.113	3519
1761.259	3557
1763.405	3484
1765.549	3539
1767.694	3479
1769.836	3526
1771.981	3459
1774.123	3507
1776.264	3422
1778.405	3565
1780.546	3555
1782.687	3538
1784.827	3506
1786.966	3509
1789.103	3529
1791.242	3636
1793.381	3594
1795.517	3504
1797.653	3468
1799.788	3530
1801.923	3554
1804.057	3500
1806.193	3577
1808.326	3516
1810.457	3480
1812.59	3517
1814.721	3530
1816.855	3485
1818.984	3527
1821.113	3530
1823.244	3497
1825.372	3494
1827.499	3504
1829.63	3537
1831.756	3450
1833.882	3486
1836.007	3497
1838.132	3455
1840.26	3500
1842.384	3504
1844.507	3427
1846.63	3482
1848.752	3445
1850.875	3481
1852.996	3525
1855.118	3550
1857.238	3549
1859.358	3476
1861.477	3543
1863.597	3433
1865.715	3491
1867.832	3468
1869.948	3465
1872.064	3512
1874.181	3451
1876.297	3518
1878.411	3521
1880.526	3545
1882.639	3490
1884.752	3480
1886.865	3537
1888.977	3487
1891.089	3582
1893.2	3481
1895.308	3482
1897.42	3592
1899.53	3530
1901.639	3599
1903.745	3541
1905.853	3573
1907.962	3483
1910.067	3418
1912.174	3558
1914.278	3568
1916.383	3533
1918.486	3577
1920.592	3594
1922.694	3537
1924.797	3576
1926.898	3502
1929	3502
1931.102	3616
1933.203	3615
1935.301	3511
1937.401	3532
1939.499	3637
1941.598	3571
1943.697	3592
1945.793	3578
1947.888	3525
1949.985	3526
1952.08	3524
1954.176	3532
1956.269	3566
1958.364	3562
1960.457	3535
1962.549	3605
1964.642	3570
1966.733	3607
1968.823	3542
1970.913	3604
1973.005	3472
1975.093	3532
1977.184	3462
1979.271	3562
1981.359	3460
1983.446	3423
1985.532	3645
1987.619	3559
1989.705	3453
1991.789	3547
1993.874	3528
1995.956	3544
1998.041	3478
2000.123	3551
2002.206	3513
2004.287	3485
2006.368	3447
2008.449	3554
2010.529	3547
2012.609	3523
2014.688	3548
2016.766	3435
2018.843	3481
2020.922	3550
2022.999	3504
2025.074	3512
2027.15	3482
2029.225	3532
2031.299	3544
2033.375	3507
2035.447	3571
2037.52	3376
2039.592	3529
2041.664	3462
2043.736	3543
2045.807	3595
2047.876	3484
2049.947	3560
2052.015	3511
2054.086	3559
2056.153	3549
2058.221	3551
2060.288	3527
2062.353	3553
2064.42	3523
2066.486	3579
2068.55	3550
2070.614	3556
2072.678	3586
2074.741	3528
2076.805	3431
2078.866	3543
2080.929	3583
2082.99	3522
2085.049	3581
2087.109	3543
2089.17	3577
2091.228	3460
2093.286	3503
2095.344	3501
2097.4	3552
2099.46	3577
2101.516	3500
2103.572	3602
2105.626	3512
2107.679	3531
2109.735	3503
2111.788	3565
2113.841	3573
2115.894	3563
2117.945	3492
2119.997	3526
2122.049	3485
2124.1	3602
2126.148	3550
2128.197	3554
2130.246	3553
2132.296	3489
2134.342	3563
2136.39	3591
2138.437	3515
2140.483	3499
2142.527	3504
2144.574	3503
2146.619	3523
2148.661	3596
2150.705	3518
2152.747	3550
2154.792	3568
2156.832	3494
2158.874	3489
2160.915	3501
2162.954	3511
2164.995	3488
2167.034	3460
2169.072	3543
2171.111	3470
2173.148	3440
2175.186	3546
2177.223	3416
2179.258	3442
2181.294	3516
2183.328	3510
2185.362	3486
2187.398	3435
2189.431	3368
2191.463	3616
2193.495	3424
2195.528	3432
2197.56	3437
2199.59	3438
2201.62	3492
2203.649	3384
2205.678	3517
2207.708	3481
2209.737	3412
2211.764	3494
2213.791	3493
2215.817	3443
2217.843	3412
2219.87	3531
2221.895	3391
2223.919	3459
2225.942	3435
2227.966	3432
2229.988	3433
2232.012	3471
2234.032	3510
2236.054	3418
2238.074	3431
2240.095	3430
2242.116	3518
2244.135	3501
2246.153	3429
2248.171	3400
2250.188	3522
2252.208	3382
2254.223	3409
2256.239	3385
2258.255	3428
2260.269	3505
2262.283	3471
2264.3	3435
2266.312	3452
2268.325	3453
2270.336	3438
2272.349	3395
2274.362	3420
2276.372	3525
2278.383	3488
2280.392	3407
2282.402	3502
2284.409	3455
2286.418	3526
2288.427	3419
2290.433	3461
2292.441	3517
2294.446	3509
2296.453	3545
2298.459	3430
2300.463	3367
2302.466	3477
2304.471	3426
2306.475	3460
2308.477	3451
2310.478	3474
2312.481	3481
2314.481	3505
2316.481	3472
2318.482	3387
2320.482	3388
2322.48	3508
2324.48	3453
2326.478	3436
2328.476	3401
2330.473	3438
2332.469	3399
2334.465	3417
2336.46	3433
2338.454	3451
2340.45	3501
2342.444	3446
2344.437	3362
2346.43	3444
2348.421	3420
2350.414	3429
2352.405	3419
2354.396	3443
2356.386	3336
2358.376	3455
2360.366	3364
2362.355	3385
2364.343	3387
2366.331	3391
2368.317	3464
2370.304	3446
2372.292	3324
2374.278	3405
2376.262	3406
2378.247	3305
2380.23	3344
2382.216	3435
2384.199	3328
2386.181	3426
2388.163	3364
2390.144	3372
2392.127	3444
2394.107	3368
2396.087	3397
2398.066	3401
2400.046	3376
2402.023	3395
2404.004	3352
2405.981	3346
2407.957	3343
2409.934	3423
2411.91	3369
2413.886	3440
2415.862	3384
2417.836	3385
2419.809	3366
2421.784	3407
2423.756	3383
2425.73	3309
2427.701	3345
2429.672	3367
2431.644	3379
2433.615	3498
2435.586	3384
2437.555	3389
2439.523	3411
2441.491	3282
2443.459	3339
2445.428	3319
2447.395	3314
2449.361	3436
2451.327	3344
2453.292	3375
2455.257	3351
2457.223	3467
2459.187	3316
2461.15	3311
2463.113	3429
2465.076	3366
2467.039	3417
2468.999	3373
2470.96	3351
2472.921	3258
2474.881	3406
2476.841	3367
2478.8	3351
2480.759	3395
2482.717	3290
2484.675	3340
2486.63	3254
2488.589	3402
2490.545	3261
2492.5	3319
2494.455	3349
2496.408	3300
2498.364	3352
2500.318	3326
2502.27	3253
2504.223	3300
2506.174	3404
2508.126	3331
2510.078	3271
2512.03	3351
2513.979	3271
2515.927	3293
2517.877	3289
2519.826	3298
2521.775	3363
2523.722	3298
2525.668	3347
2527.616	3270
2529.561	3349
2531.508	3417
2533.452	3302
2535.398	3298
2537.342	3367
2539.284	3338
2541.229	3314
2543.173	3319
2545.114	3282
2547.055	3285
2548.996	3336
2550.938	3310
2552.878	3367
2554.817	3421
2556.756	3325
2558.695	3277
2560.633	3282
2562.572	3325
2564.509	3276
2566.445	3318
2568.382	3347
2570.317	3292
2572.254	3326
2574.189	3328
2576.123	3304
2578.057	3379
2579.99	3357
2581.923	3329
2583.855	3364
2585.788	3358
2587.719	3371
2589.65	3297
2591.579	3314
2593.511	3235
2595.44	3294
2597.37	3312
2599.297	3342
2601.225	3271
2603.153	3349
2605.08	3293
2607.007	3327
2608.932	3385
2610.858	3351
2612.782	3362
2614.709	3291
2616.632	3345
2618.556	3332
2620.478	3330
2622.401	3322
2624.324	3327
2626.247	3360
2628.167	3373
2630.088	3300
2632.008	3371
2633.928	3479
2635.848	3338
2637.766	3311
2639.684	3346
2641.603	3363
2643.519	3402
2645.437	3306
2647.353	3400
2649.27	3336
2651.184	3298
2653.099	3402
2655.014	3344
2656.928	3309
2658.842	3399
2660.755	3336
2662.667	3375
2664.579	3340
2666.491	3307
2668.402	3394
2670.312	3329
2672.222	3372
2674.132	3394
2676.042	3339
2677.951	3290
2679.859	3294
2681.766	3358
2683.674	3323
2685.582	3339
2687.488	3343
2689.392	3343
2691.298	3372
2693.202	3338
2695.107	3343
2697.012	3298
2698.914	3352
2700.817	3281
2702.72	3327
2704.622	3296
2706.524	3266
2708.425	3258
2710.326	3268
2712.225	3362
2714.125	3229
2716.024	3365
2717.923	3343
2719.822	3313
2721.719	3317
2723.616	3255
2725.512	3271
2727.41	3304
2729.305	3277
2731.201	3368
2733.095	3364
2734.99	3360
2736.884	3317
2738.778	3358
2740.67	3298
2742.562	3249
2744.455	3376
2746.346	3355
2748.238	3315
2750.129	3337
2752.018	3358
2753.907	3320
2755.797	3349
2757.687	3350
2759.575	3250
2761.462	3359
2763.349	3322
2765.237	3366
2767.124	3316
2769.009	3304
2770.894	3312
2772.779	3278
2774.663	3318
2776.547	3306
2778.431	3283
2780.314	3227
2782.197	3375
2784.078	3298
2785.96	3284
2787.842	3321
2789.723	3264
2791.603	3283
2793.483	3305
2795.362	3332
2797.241	3344
2799.121	3319
2800.997	3319
2802.874	3306
2804.751	3247
2806.628	3291
2808.506	3281
2810.38	3308
2812.255	3363
2814.13	3299
2816.003	3374
2817.878	3335
2819.752	3309
2821.623	3308
2823.496	3279
2825.368	3320
2827.238	3295
2829.111	3297
2830.98	3288
2832.851	3354
2834.719	3252
2836.589	3364
2838.458	3276
2840.327	3354
2842.193	3299
2844.061	3305
2845.927	3355
2847.794	3372
2849.66	3382
2851.525	3408
2853.39	3376
2855.254	3420
2857.117	3452
2858.983	3463
2860.845	3429
2862.707	3500
2864.569	3451
2866.431	3487
2868.293	3432
2870.154	3620
2872.013	3642
2873.873	3624
2875.733	3698
2877.592	3786
2879.451	3760
2881.309	3877
2883.166	3858
2885.022	3891
2886.879	3967
2888.736	3908
2890.591	3992
2892.446	3890
2894.301	3963
2896.155	3896
2898.009	4012
2899.863	3866
2901.716	3888
2903.568	3897
2905.419	3848
2907.27	3963
2909.123	3993
2910.973	3896
2912.824	4011
2914.673	4035
2916.521	4137
2918.372	4152
2920.22	4268
2922.067	4199
2923.914	4276
2925.761	4340
2927.607	4326
2929.455	4497
2931.301	4429
2933.144	4534
2934.99	4584
2936.833	4629
2938.678	4682
2940.522	4668
2942.364	4833
2944.207	4805
2946.048	4811
2947.891	4854
2949.731	4862
2951.571	4808
2953.412	4780
2955.25	4699
2957.09	4767
2958.93	4704
2960.767	4577
2962.606	4571
2964.443	4509
2966.279	4479
2968.116	4382
2969.953	4432
2971.788	4302
2973.623	4257
2975.457	4165
2977.292	4271
2979.127	4163
2980.959	4156
2982.792	4121
2984.624	4064
2986.455	4058
2988.288	4124
2990.119	3976
2991.949	3918
2993.779	3864
2995.608	3978
2997.439	3835
2999.268	3826
3001.096	3760
3002.923	3714
3004.751	3618
3006.578	3697
3008.406	3620
3010.232	3524
3012.057	3507
3013.883	3533
3015.706	3531
3017.532	3458
3019.356	3459
3021.179	3315
3023.002	3432
3024.823	3346
3026.646	3419
3028.469	3252
3030.289	3316
3032.11	3271
3033.93	3279
3035.749	3249
3037.57	3177
3039.39	3302
3041.207	3303
3043.026	3294
3044.842	3285
3046.661	3208
3048.477	3228
3050.294	3231
3052.109	3219
3053.925	3202
3055.739	3254
3057.555	3273
3059.368	3282
3061.181	3254
3062.995	3224
3064.807	3178
3066.62	3269
3068.433	3236
3070.243	3242
3072.054	3284
3073.865	3201
3075.675	3232
3077.485	3196
3079.293	3200
3081.102	3199
3082.911	3271
3084.719	3196
3086.527	3150
3088.333	3181
3090.139	3155
3091.945	3149
3093.75	3144
3095.557	3144
3097.361	3182
3099.165	3157
3100.969	3122
3102.772	3114
3104.575	3111
3106.379	3170
3108.181	3179
3109.982	3228
3111.783	3046
3113.584	3159
3115.386	3128
3117.186	3066
3118.985	3086
3120.783	3068
3122.582	3122
3124.381	3080
3126.179	3108
3127.975	3189
3129.772	3138
3131.569	3040
3133.365	3117
3135.161	3157
3136.956	3123
3138.751	3120
3140.544	3041
3142.338	3065
3144.132	3174
3145.925	3132
3147.717	3072
3149.509	3065
3151.301	3060
3153.091	3108
3154.884	3078
3156.673	2986
3158.462	3140
3160.252	3011
3162.041	3063
3163.831	3058
3165.618	3051
3167.405	3101
3169.193	3115
3170.979	3137
3172.767	3081
3174.553	3083
3176.338	3057
3178.123	3076
3179.907	3060
3181.692	3072
3183.477	3028
3185.259	3113
3187.042	2993
3188.824	3105
3190.607	3114
3192.389	3069
3194.17	3016
3195.951	3112
3197.73	3106
3199.51	3129
3201.289	3106
3203.07	3037
3204.848	3082
3206.626	3062
3208.403	3062
3210.18	3070
3211.959	3080
3213.735	3040
3215.511	3100
3217.285	3096
3219.06	3081
3220.836	3169
3222.611	3044
3224.384	3115
3226.158	3094
3227.929	3105
3229.702	3114
3231.476	3076
3233.248	3091
3235.018	3199
3236.789	3088
3238.56	3062
3240.33	3119
3242.1	3073
3243.869	3109
3245.637	3058
3247.405	3078
3249.172	3184
3250.941	3106
3252.707	3097
3254.474	3179
3256.24	3089
3258.006	3139
3259.772	3101
3261.537	3159
3263.301	3101
3265.065	3049
3266.828	3038
3268.592	3052
3270.355	3141
3272.117	3184
3273.878	3072
3275.64	3086
3277.401	3159
3279.162	3225
3280.922	3118
3282.682	3109
3284.441	3122
3286.199	3115
3287.959	3158
3289.716	3079
3291.475	3185
3293.232	3202
3294.988	3165
3296.744	3079
3298.501	3138
3300.256	3101
3302.011	3147
3303.766	3138
3305.52	3188
3307.275	3175
3309.028	3067
3310.781	3165
3312.533	3153
3314.285	3098
3316.038	3120
3317.789	3157
3319.54	3144
3321.289	3126
3323.039	3081
3324.789	3106
3326.539	3117
3328.288	3117
3330.035	3156
3331.783	3117
3333.531	3081
3335.28	3204
3337.025	3181
3338.771	3171
3340.518	3090
3342.262	3080
3344.009	3176
3345.753	3122
3347.497	3097
3349.24	3089
3350.983	3054
3352.726	3071
3354.469	3004
3356.212	3037
3357.952	3062
3359.694	3001
3361.434	3103
3363.176	3113
3364.916	3123
3366.654	3121
3368.394	3026
3370.132	3093
3371.871	3089
3373.61	3102
3375.346	3038
3377.083	3077
3378.82	3001
3380.556	3000
3382.292	3020
3384.027	3028
3385.763	3056
3387.497	3058
3389.231	2996
3390.965	2992
3392.698	3090
3394.431	3068
3396.164	2987
3397.896	2972
3399.627	2926
3401.36	3078
3403.09	2988
3404.82	3007
3406.55	2967
3408.279	2980
3410.01	3029
3411.738	2938
3413.467	3009
3415.194	2916
3416.92	3029
3418.647	2920
3420.375	3017
3422.102	2980
3423.827	2988
3425.553	2982
3427.277	3043
3429.003	3021
3430.727	3000
3432.451	3002
3434.173	2949
3435.896	2906
3437.62	2939
3439.343	2959
3441.063	2914
3442.785	2935
3444.505	2916
3446.226	2938
3447.948	2983
3449.666	2893
3451.386	2965
3453.104	2989
3454.823	2877
3456.541	2855
3458.259	2877
3459.976	2871
3461.693	2908
3463.408	2870
3465.125	2885
3466.841	2892
3468.556	2881
3470.271	2933
3471.985	2873
3473.698	2856
3475.414	2848
3477.126	2846
3478.838	2808
3480.55	2813
3482.263	2841
3483.975	2818
3485.686	2785
3487.396	2819
3489.106	2819
3490.817	2903
3492.526	2816
3494.236	2831
3495.944	2902
3497.652	2712
3499.359	2746
3501.066	2753
3502.775	2886
3504.481	2846
3506.187	2800
3507.893	2817
3509.598	2789
3511.304	2746
3513.009	2712
3514.713	2720
3516.417	2735
3518.12	2778
3519.821	2771
3521.525	2772
3523.228	2770
3524.929	2719
3526.631	2697
3528.33	2722
3530.032	2694
3531.733	2664
3533.433	2714
3535.131	2780
3536.83	2679
3538.529	2678
3540.227	2684
3541.925	2730
3543.623	2660
3545.319	2744
3547.016	2658
3548.712	2634
3550.408	2670
3552.103	2711
3553.798	2652
3555.491	2614
3557.188	2645
3558.88	2696
3560.574	2629
3562.266	2683
3563.959	2680
3565.651	2712
3567.343	2631
3569.035	2647
3570.725	2664
3572.415	2680
3574.106	2581
3575.797	2652
3577.485	2606
3579.174	2690
3580.863	2591
3582.551	2640
3584.238	2591
3585.926	2606
3587.613	2599
3589.3	2598
3590.986	2639
3592.671	2571
3594.357	2530
3596.042	2513
3597.726	2567
3599.41	2574
3601.094	2558
3602.778	2579
3604.461	2560
3606.143	2485
3607.825	2567
3609.507	2566
3611.188	2569
3612.87	2522
3614.551	2550
3616.229	2476
3617.909	2509
3619.589	2458
3621.269	2507
3622.948	2463
3624.625	2442
3626.302	2476
3627.98	2579
3629.657	2423
3631.334	2521
3633.01	2481
3634.686	2480
3636.361	2416
3638.036	2462
3639.712	2461
3641.385	2437
3643.06	2414
3644.732	2476
3646.405	2436
3648.08	2407
3649.751	2495
3651.424	2482
3653.094	2385
3654.766	2428
3656.436	2440
3658.106	2390
3659.777	2451
3661.446	2403
3663.115	2407
3664.783	2378
3666.452	2389
3668.121	2399
3669.788	2376
3671.454	2443
3673.121	2398
3674.789	2400
3676.455	2392
3678.12	2466
3679.784	2409
3681.45	2377
3683.114	2355
3684.779	2343
3686.442	2363
3688.105	2367
3689.768	2357
3691.43	2409
3693.093	2359
3694.754	2341
3696.415	2408
3698.076	2386
3699.736	2315
3701.396	2383
3703.057	2359
3704.716	2358
3706.375	2417
3708.034	2405
3709.692	2335
3711.351	2340
3713.008	2330
3714.665	2380
3716.321	2372
3717.977	2374
3719.634	2331
3721.29	2398
3722.945	2303
3724.598	2300
3726.253	2303
3727.907	2326
3729.561	2290
3731.214	2288
3732.867	2299
3734.518	2308
3736.171	2266
3737.824	2315
3739.474	2325
3741.125	2320
3742.775	2313
3744.425	2288
3746.074	2342
3747.725	2299
3749.373	2320
3751.022	2288
3752.669	2261
3754.318	2322
3755.966	2261
3757.612	2285
3759.259	2287
3760.905	2312
3762.55	2292
3764.197	2299
3765.842	2269
3767.486	2233
3769.131	2281
3770.774	2308
3772.417	2252
3774.061	2240
3775.705	2324
3777.347	2303
3778.988	2260
3780.629	2292
3782.271	2256
3783.912	2242
3785.552	2316
3787.192	2278
3788.831	2234
3790.472	2222
3792.112	2265
3793.75	2226
3795.388	2243
3797.024	2292
3798.661	2286
3800.3	2303
3801.936	2283
3803.572	2226
3805.208	2211
3806.844	2219
3808.48	2204
3810.115	2281
3811.748	2290
3813.382	2220
3815.016	2174
3816.649	2215
3818.283	2228
3819.914	2225
3821.547	2209
3823.178	2242
3824.809	2191
3826.441	2261
3828.072	2199
3829.701	2204
3831.331	2249
3832.96	2207
3834.591	2203
3836.219	2199
3837.847	2231
3839.475	2225
3841.102	2241
3842.729	2157
3844.357	2218
3845.984	2224
3847.609	2168
3849.234	2208
3850.86	2156
3852.485	2152
3854.11	2158
3855.734	2167
3857.357	2169
3858.981	2157
3860.603	2160
3862.227	2158
3863.848	2161
3865.471	2164
3867.092	2179
3868.713	2167
3870.334	2144
3871.954	2168
3873.575	2152
3875.194	2128
3876.813	2136
3878.433	2146
3880.051	2089
3881.669	2175
3883.286	2136
3884.904	2150
3886.52	2166
3888.138	2187
3889.754	2194
3891.37	2180
3892.985	2178
3894.6	2125
3896.216	2181
3897.831	2134
3899.444	2149
3901.058	2180
3902.67	2130
3904.283	2143
3905.897	2172
3907.509	2170
3909.121	2139
3910.731	2101
3912.342	2145
3913.954	2157
3915.563	2120
3917.174	2113
3918.783	2164
3920.391	2125
3922.002	2087
3923.611	2136
3925.218	2128
3926.826	2222
3928.432	2152
3930.039	2151
3931.647	2080
3933.253	2131
3934.859	2113
3936.464	2143
3938.068	2141
3939.675	2202
3941.278	2108
3942.883	2142
3944.486	2090
3946.089	2112
3947.692	2080
3949.295	2099
3950.898	2177
3952.499	2087
3954.1	2121
3955.7	2090
3957.303	2137
3958.903	2139
3960.502	2143
3962.101	2049
3963.7	2141
3965.301	2105
3966.899	2092
3968.497	2095
3970.094	2098
3971.691	2080
3973.288	2096
3974.885	2054
3976.481	2110
3978.077	2039
3979.672	2094
3981.267	2099
3982.863	2036
3984.457	2078
3986.051	2065
3987.645	2049
3989.238	2032
3990.831	2073
3992.425	2062
3994.017	2034
3995.607	2005
3997.199	2075
3998.79	2044
4000.382	2076
4001.973	2060
4003.561	2044
4005.151	2008
4006.741	2059
4008.331	2025
4009.918	2056
4011.507	2031
4013.095	1992
4014.681	1998
4016.269	2064
4017.856	1989
4019.443	2058
4021.028	2019
4022.614	2013
4024.199	1998
4025.785	1990
4027.37	2013
4028.953	1977
4030.536	2036
4032.12	1984
4033.704	1957
4035.287	2011
4036.869	1952
4038.45	2027
4040.032	1975
4041.613	1968
4043.195	1990
4044.776	1972
4046.356	1975
4047.935	1988
4049.515	1966
4051.095	1965
4052.674	1951
4054.251	1935
4055.829	2024
4057.406	1927
4058.985	1953
4060.562	1940
4062.139	1920
4063.715	1961
4065.29	1921
4066.865	1982
4068.442	1891
4070.016	1958
4071.59	1960
4073.164	1995
4074.738	1887
4076.312	1957
4077.885	1914
4079.458	1916
4081.03	1959
4082.602	1946
4084.173	2029
4085.745	1950
4087.315	1892
4088.886	1973
4090.456	1930
4092.026	1922
4093.596	1881
4095.165	1903
4096.734	1978
4098.301	1948
4099.869	1917
4101.437	1908
4103.006	1920
4104.572	1962
4106.139	1925
4107.704	1882
4109.27	1909
4110.837	1923
4112.401	1929
4113.966	1974
4115.53	1849
4117.094	1914
4118.659	1928
4120.223	1895
4121.785	1903
4123.347	1861
4124.909	1900
4126.471	1891
4128.034	1873
4129.595	1854
4131.155	1885
4132.716	1898
4134.275	1928
4135.836	1849
4137.395	1856
4138.955	1935
4140.513	1921
4142.071	1903
4143.628	1889
4145.188	1867
4146.745	1850
4148.302	1899
4149.858	1863
4151.414	1867
4152.971	1842
4154.526	1832
4156.081	1876
4157.635	1852
4159.189	1885
4160.745	1863
4162.298	1865
4163.852	1897
4165.405	1887
4166.957	1832
4168.51	1828
4170.063	1876
4171.614	1857
4173.166	1881
4174.717	1844
4176.267	1857
4177.817	1837
4179.368	1794
4180.917	1854
4182.466	1865
4184.016	1850
4185.564	1815
4187.112	1820
4188.66	1792
4190.207	1824
4191.754	1817
4193.301	1843
4194.848	1795
4196.394	1782
4197.94	1826
4199.484	1786
4201.03	1852
4202.575	1795
4204.12	1833
4205.663	1807
4207.207	1802
4208.75	1839
4210.292	1870
4211.836	1805
4213.378	1780
4214.92	1781
4216.46	1776
4218.002	1815
4219.544	1755
4221.083	1807
4222.625	1804
4224.164	1778
4225.703	1780
4227.244	1816
4228.782	1761
4230.32	1851
4231.857	1785
4233.395	1785
4234.933	1742
4236.471	1819
4238.007	1747
4239.542	1765
4241.078	1731
4242.614	1780
4244.15	1754
4245.685	1784
4247.219	1733
4248.753	1813
4250.287	1763
4251.82	1796
4253.354	1785
4254.887	1752
4256.419	1741
4257.951	1729
4259.483	1789
4261.016	1742
4262.547	1756
4264.078	1788
4265.608	1808
4267.137	1792
4268.668	1796
4270.197	1770
4271.727	1721
4273.254	1794
4274.783	1780
4276.311	1747
4277.84	1728
4279.366	1733
4280.894	1785
4282.42	1714
4283.946	1777
4285.473	1740
4286.998	1728
4288.523	1779
4290.047	1706
4291.572	1760
4293.096	1760
4294.622	1719
4296.144	1721
4297.668	1702
4299.19	1759
4300.713	1739
4302.236	1760
4303.758	1718
4305.279	1790
4306.799	1761
4308.321	1750
4309.842	1681
4311.361	1747
4312.882	1697
4314.401	1705
