400.0961	2741
402.6185	2739
405.1424	2708
407.6635	2728
410.1838	2746
412.7035	2799
415.2225	2762
417.7388	2842
420.2585	2867
422.7754	2895
425.2917	2957
427.8072	3028
430.3221	2950
432.8363	3012
435.3498	3027
437.8626	3006
440.3727	2947
442.8841	3022
445.3969	2984
447.907	3006
450.4142	3008
452.9229	2945
455.4289	2943
457.9362	2930
460.4449	2914
462.9488	2891
465.454	2895
467.9566	2968
470.4604	2927
472.9637	2904
475.4662	2930
477.966	2914
480.4671	2861
482.9656	2885
485.4633	2872
487.9645	2870
490.4608	2884
492.9566	2880
495.4536	2855
497.948	2945
500.4437	2873
502.9387	2881
505.431	2856
507.9226	2944
510.4136	2895
512.9079	2905
515.3975	2857
517.8864	2973
520.3746	2904
522.8622	2906
525.3491	2960
527.8394	2894
530.3249	2956
532.8098	2963
535.2939	2918
537.7774	2948
540.2623	2974
542.7444	2970
545.2259	2949
547.7067	3043
550.1868	3029
552.6683	3016
555.147	3021
557.6231	2969
560.1005	3008
562.5773	3022
565.0534	3083
567.5308	3016
570.0056	3035
572.4776	3054
574.951	3061
577.4237	3104
579.8978	3126
582.3671	3119
584.8378	3238
587.3079	3161
589.7773	3219
592.244	3216
594.714	3191
597.1793	3104
599.6461	3084
602.1121	3171
604.5754	3118
607.0421	3099
609.5042	3093
611.9675	3060
614.4282	3117
616.8902	3088
619.3515	3001
621.8122	3126
624.2702	3045
626.7296	2957
629.1863	2968
631.6423	3037
634.1017	3032
636.5563	2924
639.0104	3059
641.4658	2993
643.9185	3007
646.3725	3076
648.8239	2961
651.2766	3083
653.7266	3072
656.176	3097
658.6247	3003
661.0748	3059
663.5242	2991
665.9709	3082
668.417	3004
670.8624	3041
673.3092	3075
675.7533	3053
678.1968	3091
680.6395	3082
683.0817	3037
685.5251	3139
687.9659	3141
690.4061	3168
692.8456	3075
695.2844	3130
697.7226	3123
700.1621	3182
702.599	3125
705.0332	3131
707.4688	3125
709.9036	3120
712.3399	3184
714.7735	3108
717.2044	3155
719.6367	3215
722.0683	3198
724.4993	3176
726.9296	3242
729.3593	3201
731.7883	3201
734.2147	3209
736.6423	3228
739.0714	3215
741.4958	3181
743.9216	3312
746.3447	3319
748.7691	3320
751.1929	3342
753.616	3323
756.0366	3306
758.4584	3327
760.8776	3262
763.2982	3276
765.718	3348
768.1373	3369
770.5539	3274
772.9698	3303
775.3871	3315
777.8038	3317
780.2178	3329
782.6332	3365
785.0459	3297
787.458	3289
789.8714	3359
792.2842	3366
794.6943	3291
797.1038	3302
799.5127	3241
801.9209	3288
804.3324	3386
806.7393	3337
809.1456	3356
811.5513	3405
813.9562	3400
816.3625	3418
818.7663	3451
821.1693	3356
823.5718	3301
825.9735	3444
828.3746	3314
830.7771	3350
833.177	3387
835.5762	3378
837.9747	3378
840.3727	3429
842.772	3402
845.1666	3499
847.5626	3438
849.958	3529
852.3527	3549
854.7488	3631
857.1403	3412
859.5331	3542
861.9253	3500
864.3168	3475
866.7057	3461
869.098	3492
871.4876	3461
873.8746	3463
876.263	3546
878.6487	3455
881.0378	3490
883.4243	3505
885.8081	3482
888.1933	3481
890.5759	3441
892.9598	3486
895.343	3498
897.7256	3519
900.1057	3484
902.4871	3403
904.8659	3504
907.246	3568
909.6254	3535
912.0023	3629
914.3786	3595
916.7562	3664
919.1331	3669
921.5074	3659
923.8831	3792
926.2562	3757
928.6287	3735
931.0005	3662
933.3757	3739
935.7462	3871
938.1162	3845
940.4855	3892
942.8542	3937
945.2242	4028
947.5916	4193
949.9584	4346
952.3266	4533
954.6921	4859
957.0571	5191
959.4233	5434
961.787	5501
964.15	5437
966.5125	5193
968.8742	4904
971.2354	4569
973.5959	4332
975.9559	4016
978.3151	3929
980.6738	3767
983.0338	3821
985.3912	3694
987.7461	3673
990.1022	3656
992.4578	3580
994.8127	3653
997.1689	3697
999.5207	3711
1001.874	3704
1004.226	3744
1006.576	3616
1008.929	3719
1011.28	3635
1013.628	3705
1015.977	3734
1018.324	3761
1020.674	3717
1023.019	3624
1025.366	3680
1027.713	3746
1030.056	3695
1032.399	3758
1034.746	3776
1037.087	3786
1039.431	3736
1041.771	3718
1044.113	3791
1046.454	3763
1048.793	3780
1051.133	3813
1053.471	3763
1055.807	3853
1058.146	3688
1060.483	3800
1062.818	3843
1065.153	3796
1067.489	3921
1069.822	3937
1072.156	3853
1074.488	3913
1076.82	3915
1079.15	3933
1081.48	3797
1083.814	3865
1086.143	3858
1088.471	3769
1090.799	3758
1093.126	3642
1095.452	3678
1097.78	3733
1100.105	3664
1102.43	3732
1104.754	3794
1107.077	3764
1109.4	3688
1111.722	3706
1114.044	3763
1116.365	3696
1118.685	3622
1121.005	3656
1123.324	3732
1125.643	3712
1127.961	3721
1130.278	3678
1132.595	3669
1134.911	3653
1137.226	3687
1139.541	3664
1141.854	3670
1144.167	3652
1146.482	3621
1148.793	3631
1151.105	3718
1153.414	3720
1155.725	3685
1158.033	3626
1160.344	3632
1162.651	3655
1164.959	3727
1167.265	3681
1169.572	3683
1171.878	3618
1174.184	3698
1176.488	3728
1178.79	3748
1181.094	3734
1183.396	3701
1185.699	3712
1188.001	3739
1190.301	3657
1192.6	3709
1194.9	3670
1197.2	3596
1199.497	3645
1201.794	3758
1204.09	3693
1206.387	3675
1208.684	3740
1210.978	3757
1213.272	3769
1215.565	3705
1217.858	3747
1220.15	3760
1222.443	3793
1224.734	3686
1227.024	3722
1229.313	3842
1231.602	3833
1233.892	3768
1236.18	3903
1238.467	3915
1240.754	3874
1243.04	3903
1245.325	3971
1247.612	3949
1249.896	4004
1252.178	3898
1254.461	3987
1256.743	4021
1259.027	3871
1261.308	3982
1263.587	3897
1265.867	3939
1268.146	3929
1270.425	3924
1272.703	3884
1274.981	4028
1277.256	3965
1279.532	4013
1281.808	3966
1284.083	3901
1286.358	3955
1288.63	3914
1290.904	3916
1293.175	3785
1295.449	3850
1297.719	3821
1299.99	3876
1302.259	3774
1304.529	3769
1306.798	3820
1309.065	3829
1311.333	3820
1313.599	3873
1315.866	3793
1318.131	3721
1320.396	3823
1322.66	3858
1324.925	3852
1327.187	3829
1329.448	3929
1331.711	3876
1333.974	3819
1336.234	3867
1338.493	3726
1340.752	3914
1343.01	3800
1345.269	3888
1347.526	3848
1349.784	3812
1352.04	3762
1354.295	3819
1356.552	3735
1358.806	3840
1361.059	3825
1363.312	3817
1365.564	3791
1367.818	3763
1370.069	3825
1372.318	3817
1374.568	3853
1376.817	3837
1379.066	3904
1381.316	3909
1383.564	3889
1385.809	3792
1388.056	3939
1390.301	3872
1392.549	3947
1394.793	3947
1397.036	4008
1399.279	4004
1401.522	3983
1403.763	4031
1406.007	3942
1408.248	3920
1410.487	4024
1412.727	4046
1414.965	3862
1417.205	4027
1419.442	4029
1421.68	3980
1423.915	4054
1426.152	3980
1428.388	3990
1430.623	3973
1432.857	4115
1435.091	4033
1437.323	4043
1439.556	4057
1441.789	3961
1444.019	4099
1446.25	4037
1448.48	4124
1450.708	4061
1452.938	4175
1455.167	4138
1457.394	4124
1459.62	4169
1461.846	4142
1464.073	4122
1466.299	4074
1468.523	4079
1470.746	4026
1472.969	3992
1475.191	3958
1477.415	3892
1479.636	3875
1481.858	4051
1484.078	3891
1486.298	3873
1488.518	3838
1490.736	3802
1492.954	3855
1495.169	3754
1497.386	3891
1499.602	3821
1501.819	3815
1504.034	3766
1506.248	3772
1508.462	3741
1510.675	3724
1512.888	3807
1515.1	3823
1517.311	3772
1519.522	3866
1521.732	3770
1523.942	3784
1526.151	3823
1528.36	3818
1530.566	3803
1532.773	3791
1534.98	3778
1537.187	3901
1539.392	3870
1541.596	3810
1543.801	3858
1546.005	3752
1548.208	3850
1550.411	3867
1552.612	3874
1554.814	3826
1557.013	3832
1559.212	3906
1561.414	3881
1563.612	3835
1565.811	3939
1568.007	3882
1570.203	3870
1572.403	3840
1574.598	3920
1576.792	3927
1578.988	3960
1581.181	3956
1583.376	3868
1585.568	3923
1587.761	3927
1589.952	4009
1592.143	3982
1594.333	3963
1596.524	3891
1598.715	3982
1600.903	3951
1603.091	4017
1605.278	3945
1607.466	3900
1609.652	3913
1611.838	3972
1614.023	3959
1616.207	3928
1618.391	4047
1620.576	3974
1622.759	4001
1624.941	3979
1627.123	4041
1629.304	4026
1631.484	4108
1633.664	4132
1635.844	3961
1638.022	3995
1640.201	4086
1642.38	4091
1644.556	4091
1646.732	4082
1648.908	4165
1651.084	4099
1653.257	4096
1655.433	4014
1657.607	4146
1659.779	4113
1661.951	4051
1664.122	4175
1666.295	4124
1668.467	4202
1670.635	4260
1672.805	4142
1674.973	4179
1677.142	4235
1679.31	4095
1681.478	4123
1683.644	4124
1685.81	4063
1687.975	4153
1690.142	4063
1692.305	4055
1694.468	4072
1696.632	4076
1698.794	4033
1700.957	4009
1703.119	3960
1705.279	3936
1707.439	3977
1709.598	4043
1711.758	3953
1713.917	3929
1716.075	3904
1718.231	4004
1720.388	3889
1722.543	3989
1724.702	3946
1726.856	3894
1729.01	3937
1731.164	3887
1733.317	3973
1735.471	3979
1737.623	3977
1739.774	3993
1741.925	3990
1744.075	3930
1746.225	3945
1748.376	3899
1750.524	3888
1752.672	3855
1754.82	3902
1756.965	3968
1759.113	3855
1761.259	4005
1763.405	3835
1765.549	3921
1767.694	3934
1769.836	3945
1771.981	4030
1774.123	3931
1776.264	4008
1778.405	3921
1780.546	3880
1782.687	3887
1784.827	3942
1786.966	3935
1789.103	3957
1791.242	3909
1793.381	3974
1795.517	3880
1797.653	3950
1799.788	4000
1801.923	3925
1804.057	4025
1806.193	3980
1808.326	3938
1810.457	3921
1812.59	3931
1814.721	4013
1816.855	4009
1818.984	3952
1821.113	3900
1823.244	3865
1825.372	3967
1827.499	3786
1829.63	3929
1831.756	3910
1833.882	3932
1836.007	4029
1838.132	4012
1840.26	3808
1842.384	3912
1844.507	4020
1846.63	3960
1848.752	3952
1850.875	3909
1852.996	3893
1855.118	3919
1857.238	3875
1859.358	3926
1861.477	3915
1863.597	3959
1865.715	3878
1867.832	3877
1869.948	3957
1872.064	3901
1874.181	3845
1876.297	3941
1878.411	3923
1880.526	3898
1882.639	3862
1884.752	3978
1886.865	3867
1888.977	3940
1891.089	3891
1893.2	3953
1895.308	3921
1897.42	3969
1899.53	3931
1901.639	3872
1903.745	3891
1905.853	3911
1907.962	4022
1910.067	3928
1912.174	3995
1914.278	4013
1916.383	3975
1918.486	3978
1920.592	4009
1922.694	3940
1924.797	4046
1926.898	3979
1929	4030
1931.102	3950
1933.203	3976
1935.301	3942
1937.401	4008
1939.499	3965
1941.598	4000
1943.697	4037
1945.793	4034
1947.888	3962
1949.985	3963
1952.08	3921
1954.176	3904
1956.269	4087
1958.364	3822
1960.457	3985
1962.549	4030
1964.642	4023
1966.733	3981
1968.823	3958
1970.913	3991
1973.005	4008
1975.093	4015
1977.184	4071
1979.271	3965
1981.359	3918
1983.446	3995
1985.532	4069
1987.619	3942
1989.705	3964
1991.789	3970
1993.874	3952
1995.956	3942
1998.041	4037
2000.123	3934
2002.206	3940
2004.287	4027
2006.368	3930
2008.449	3861
2010.529	3953
2012.609	3976
2014.688	3941
2016.766	3895
2018.843	3972
2020.922	4001
2022.999	3923
2025.074	4005
2027.15	3977
2029.225	3917
2031.299	3946
2033.375	3953
2035.447	3915
2037.52	3874
2039.592	4056
2041.664	4067
2043.736	3947
2045.807	3947
2047.876	3921
2049.947	3993
2052.015	3963
2054.086	3967
2056.153	3947
2058.221	4051
2060.288	4019
2062.353	3988
2064.42	4054
2066.486	3917
2068.55	4024
2070.614	3959
2072.678	4047
2074.741	3925
2076.805	4021
2078.866	3946
2080.929	3892
2082.99	3956
2085.049	3901
2087.109	3905
2089.17	3925
2091.228	4009
2093.286	3974
2095.344	4041
2097.4	4020
2099.46	3968
2101.516	4010
2103.572	3964
2105.626	3995
2107.679	3937
2109.735	3994
2111.788	3887
2113.841	4016
2115.894	4032
2117.945	3969
2119.997	3935
2122.049	4010
2124.1	3985
2126.148	4035
2128.197	3998
2130.246	3972
2132.296	3906
2134.342	4033
2136.39	3942
2138.437	4022
2140.483	3953
2142.527	3912
2144.574	3923
2146.619	3963
2148.661	3960
2150.705	3857
2152.747	3920
2154.792	4013
2156.832	3911
2158.874	3944
2160.915	3970
2162.954	3935
2164.995	3921
2167.034	3948
2169.072	3899
2171.111	3858
2173.148	3959
2175.186	4028
2177.223	3882
2179.258	3885
2181.294	4022
2183.328	3959
2185.362	3877
2187.398	3865
2189.431	3906
2191.463	3947
2193.495	3884
2195.528	3839
2197.56	3941
2199.59	3978
2201.62	3846
2203.649	3953
2205.678	3877
2207.708	3879
2209.737	3887
2211.764	3916
2213.791	3881
2215.817	3882
2217.843	3847
2219.87	3932
2221.895	3865
2223.919	3865
2225.942	3842
2227.966	3866
2229.988	3906
2232.012	3833
2234.032	3931
2236.054	3926
2238.074	3806
2240.095	3863
2242.116	3862
2244.135	3896
2246.153	3875
2248.171	3958
2250.188	3945
2252.208	3925
2254.223	3870
2256.239	3948
2258.255	3857
2260.269	3891
2262.283	3964
2264.3	3914
2266.312	3867
2268.325	3937
2270.336	3842
2272.349	3892
2274.362	3919
2276.372	3959
2278.383	3877
2280.392	3897
2282.402	3862
2284.409	3960
2286.418	3900
2288.427	3930
2290.433	3845
2292.441	3959
2294.446	3844
2296.453	3848
2298.459	3910
2300.463	3916
2302.466	3858
2304.471	3868
2306.475	3914
2308.477	3853
2310.478	3822
2312.481	3859
2314.481	3855
2316.481	3900
2318.482	3931
2320.482	3831
2322.48	3875
2324.48	3944
2326.478	3850
2328.476	3936
2330.473	3879
2332.469	3801
2334.465	3924
2336.46	3798
2338.454	3800
2340.45	3791
2342.444	3851
2344.437	3874
2346.43	3808
2348.421	3796
2350.414	3737
2352.405	3922
2354.396	3837
2356.386	3842
2358.376	3749
2360.366	3799
2362.355	3829
2364.343	3809
2366.331	3754
2368.317	3813
2370.304	3816
2372.292	3885
2374.278	3750
2376.262	3930
2378.247	3782
2380.23	3841
2382.216	3789
2384.199	3838
2386.181	3751
2388.163	3784
2390.144	3820
2392.127	3784
2394.107	3865
2396.087	3832
2398.066	3808
2400.046	3795
2402.023	3840
2404.004	3805
2405.981	3878
2407.957	3810
2409.934	3745
2411.91	3828
2413.886	3731
2415.862	3802
2417.836	3803
2419.809	3743
2421.784	3775
2423.756	3813
2425.73	3767
2427.701	3803
2429.672	3876
2431.644	3768
2433.615	3837
2435.586	3776
2437.555	3825
2439.523	3745
2441.491	3797
2443.459	3846
2445.428	3851
2447.395	3859
2449.361	3841
2451.327	3816
2453.292	3702
2455.257	3845
2457.223	3766
2459.187	3661
2461.15	3849
2463.113	3793
2465.076	3853
2467.039	3714
2468.999	3789
2470.96	3734
2472.921	3737
2474.881	3769
2476.841	3681
2478.8	3770
2480.759	3723
2482.717	3760
2484.675	3750
2486.63	3719
2488.589	3727
2490.545	3749
2492.5	3706
2494.455	3728
2496.408	3735
2498.364	3782
2500.318	3747
2502.27	3738
2504.223	3702
2506.174	3737
2508.126	3777
2510.078	3747
2512.03	3783
2513.979	3749
2515.927	3669
2517.877	3698
2519.826	3705
2521.775	3723
2523.722	3769
2525.668	3762
2527.616	3692
2529.561	3737
2531.508	3663
2533.452	3701
2535.398	3797
2537.342	3725
2539.284	3754
2541.229	3775
2543.173	3716
2545.114	3629
2547.055	3646
2548.996	3652
2550.938	3653
2552.878	3743
2554.817	3763
2556.756	3749
2558.695	3626
2560.633	3810
2562.572	3775
2564.509	3682
2566.445	3745
2568.382	3624
2570.317	3747
2572.254	3835
2574.189	3693
2576.123	3730
2578.057	3686
2579.99	3742
2581.923	3662
2583.855	3689
2585.788	3757
2587.719	3664
2589.65	3850
2591.579	3715
2593.511	3681
2595.44	3813
2597.37	3696
2599.297	3801
2601.225	3825
2603.153	3747
2605.08	3689
2607.007	3681
2608.932	3744
2610.858	3769
2612.782	3731
2614.709	3621
2616.632	3747
2618.556	3678
2620.478	3766
2622.401	3808
2624.324	3698
2626.247	3781
2628.167	3782
2630.088	3736
2632.008	3715
2633.928	3812
2635.848	3820
2637.766	3749
2639.684	3744
2641.603	3751
2643.519	3791
2645.437	3783
2647.353	3767
2649.27	3753
2651.184	3780
2653.099	3725
2655.014	3724
2656.928	3809
2658.842	3733
2660.755	3730
2662.667	3794
2664.579	3667
2666.491	3720
2668.402	3784
2670.312	3739
2672.222	3760
2674.132	3763
2676.042	3690
2677.951	3753
2679.859	3796
2681.766	3692
2683.674	3711
2685.582	3712
2687.488	3786
2689.392	3725
2691.298	3707
2693.202	3741
2695.107	3770
2697.012	3720
2698.914	3848
2700.817	3714
2702.72	3700
2704.622	3776
2706.524	3776
2708.425	3638
2710.326	3681
2712.225	3710
2714.125	3709
2716.024	3712
2717.923	3654
2719.822	3729
2721.719	3711
2723.616	3624
2725.512	3727
2727.41	3639
2729.305	3680
2731.201	3725
2733.095	3752
2734.99	3720
2736.884	3717
2738.778	3669
2740.67	3627
2742.562	3699
2744.455	3794
2746.346	3666
2748.238	3750
2750.129	3647
2752.018	3705
2753.907	3719
2755.797	3674
2757.687	3648
2759.575	3592
2761.462	3648
2763.349	3720
2765.237	3688
2767.124	3682
2769.009	3706
2770.894	3774
2772.779	3724
2774.663	3673
2776.547	3729
2778.431	3753
2780.314	3631
2782.197	3648
2784.078	3700
2785.96	3548
2787.842	3708
2789.723	3665
2791.603	3690
2793.483	3700
2795.362	3732
2797.241	3686
2799.121	3691
2800.997	3715
2802.874	3671
2804.751	3622
2806.628	3735
2808.506	3673
2810.38	3663
2812.255	3654
2814.13	3599
2816.003	3668
2817.878	3629
2819.752	3631
2821.623	3597
2823.496	3655
2825.368	3721
2827.238	3748
2829.111	3656
2830.98	3655
2832.851	3732
2834.719	3670
2836.589	3750
2838.458	3666
2840.327	3716
2842.193	3737
2844.061	3712
2845.927	3693
2847.794	3720
2849.66	3755
2851.525	3781
2853.39	3739
2855.254	3803
2857.117	3789
2858.983	3823
2860.845	3876
2862.707	3876
2864.569	3881
2866.431	3909
2868.293	3957
2870.154	3962
2872.013	4030
2873.873	4083
2875.733	4204
2877.592	4146
2879.451	4167
2881.309	4357
2883.166	4273
2885.022	4380
2886.879	4255
2888.736	4399
2890.591	4375
2892.446	4371
2894.301	4308
2896.155	4311
2898.009	4352
2899.863	4293
2901.716	4342
2903.568	4348
2905.419	4258
2907.27	4326
2909.123	4356
2910.973	4444
2912.824	4449
2914.673	4507
2916.521	4507
2918.372	4634
2920.22	4611
2922.067	4671
2923.914	4717
2925.761	4693
2927.607	4784
2929.455	4796
2931.301	4939
2933.144	4953
2934.99	5107
2936.833	5185
2938.678	5227
2940.522	5206
2942.364	5256
2944.207	5399
2946.048	5407
2947.891	5390
2949.731	5382
2951.571	5176
2953.412	5190
2955.25	5162
2957.09	5059
2958.93	5144
2960.767	5082
2962.606	4933
2964.443	4895
2966.279	4888
2968.116	4850
2969.953	4826
2971.788	4674
2973.623	4673
2975.457	4660
2977.292	4597
2979.127	4502
2980.959	4533
2982.792	4489
2984.624	4527
2986.455	4464
2988.288	4408
2990.119	4409
2991.949	4352
2993.779	4382
2995.608	4347
2997.439	4315
2999.268	4215
3001.096	4244
3002.923	4186
3004.751	4113
3006.578	4058
3008.406	4042
3010.232	3833
3012.057	4040
3013.883	3824
3015.706	3887
3017.532	3816
3019.356	3775
3021.179	3721
3023.002	3721
3024.823	3709
3026.646	3705
3028.469	3710
3030.289	3684
3032.11	3671
3033.93	3694
3035.749	3626
3037.57	3640
3039.39	3592
3041.207	3646
3043.026	3597
3044.842	3573
3046.661	3540
3048.477	3540
3050.294	3641
3052.109	3642
3053.925	3512
3055.739	3521
3057.555	3568
3059.368	3663
3061.181	3563
3062.995	3617
3064.807	3546
3066.62	3540
3068.433	3638
3070.243	3640
3072.054	3615
3073.865	3564
3075.675	3470
3077.485	3563
3079.293	3526
3081.102	3591
3082.911	3572
3084.719	3523
3086.527	3552
3088.333	3492
3090.139	3500
3091.945	3415
3093.75	3468
3095.557	3418
3097.361	3563
3099.165	3457
3100.969	3466
3102.772	3460
3104.575	3456
3106.379	3481
3108.181	3494
3109.982	3371
3111.783	3435
3113.584	3509
3115.386	3446
3117.186	3498
3118.985	3485
3120.783	3407
3122.582	3450
3124.381	3445
3126.179	3408
3127.975	3497
3129.772	3416
3131.569	3424
3133.365	3420
3135.161	3454
3136.956	3392
3138.751	3447
3140.544	3468
3142.338	3411
3144.132	3437
3145.925	3471
3147.717	3343
3149.509	3371
3151.301	3373
3153.091	3462
3154.884	3369
3156.673	3372
3158.462	3388
3160.252	3404
3162.041	3359
3163.831	3350
3165.618	3364
3167.405	3440
3169.193	3381
3170.979	3485
3172.767	3484
3174.553	3441
3176.338	3290
3178.123	3419
3179.907	3439
3181.692	3409
3183.477	3466
3185.259	3412
3187.042	3378
3188.824	3390
3190.607	3402
3192.389	3352
3194.17	3421
3195.951	3410
3197.73	3377
3199.51	3391
3201.289	3385
3203.07	3308
3204.848	3435
3206.626	3389
3208.403	3364
3210.18	3394
3211.959	3411
3213.735	3355
3215.511	3410
3217.285	3454
3219.06	3382
3220.836	3439
3222.611	3408
3224.384	3375
3226.158	3428
3227.929	3438
3229.702	3501
3231.476	3435
3233.248	3491
3235.018	3397
3236.789	3411
3238.56	3420
3240.33	3347
3242.1	3369
3243.869	3476
3245.637	3396
3247.405	3311
3249.172	3462
3250.941	3412
3252.707	3442
3254.474	3434
3256.24	3413
3258.006	3421
3259.772	3493
3261.537	3405
3263.301	3404
3265.065	3400
3266.828	3385
3268.592	3461
3270.355	3414
3272.117	3451
3273.878	3431
3275.64	3509
3277.401	3362
3279.162	3508
3280.922	3442
3282.682	3427
3284.441	3444
3286.199	3524
3287.959	3493
3289.716	3483
3291.475	3530
3293.232	3500
3294.988	3449
3296.744	3401
3298.501	3501
3300.256	3465
3302.011	3497
3303.766	3519
3305.52	3437
3307.275	3441
3309.028	3463
3310.781	3491
3312.533	3496
3314.285	3474
3316.038	3505
3317.789	3523
3319.54	3478
3321.289	3548
3323.039	3479
3324.789	3442
3326.539	3418
3328.288	3457
3330.035	3475
3331.783	3455
3333.531	3416
3335.28	3480
3337.025	3447
3338.771	3474
3340.518	3490
3342.262	3426
3344.009	3438
3345.753	3483
3347.497	3425
3349.24	3420
3350.983	3460
3352.726	3401
3354.469	3451
3356.212	3361
3357.952	3472
3359.694	3361
3361.434	3427
3363.176	3422
3364.916	3425
3366.654	3336
3368.394	3399
3370.132	3298
3371.871	3360
3373.61	3312
3375.346	3316
3377.083	3337
3378.82	3379
3380.556	3370
3382.292	3306
3384.027	3305
3385.763	3360
3387.497	3342
3389.231	3327
3390.965	3307
3392.698	3416
3394.431	3281
3396.164	3353
3397.896	3322
3399.627	3419
3401.36	3337
3403.09	3316
3404.82	3324
3406.55	3293
3408.279	3226
3410.01	3237
3411.738	3339
3413.467	3320
3415.194	3342
3416.92	3309
3418.647	3255
3420.375	3312
3422.102	3298
3423.827	3323
3425.553	3292
3427.277	3301
3429.003	3326
3430.727	3292
3432.451	3351
3434.173	3306
3435.896	3278
3437.62	3196
3439.343	3249
3441.063	3294
3442.785	3317
3444.505	3205
3446.226	3251
3447.948	3231
3449.666	3191
3451.386	3229
3453.104	3202
3454.823	3226
3456.541	3222
3458.259	3196
3459.976	3199
3461.693	3223
3463.408	3210
3465.125	3180
3466.841	3164
3468.556	3095
3470.271	3216
3471.985	3145
3473.698	3174
3475.414	3124
3477.126	3139
3478.838	3156
3480.55	3133
3482.263	3098
3483.975	3121
3485.686	3122
3487.396	3110
3489.106	3163
3490.817	3114
3492.526	3023
3494.236	3099
3495.944	3001
3497.652	3052
3499.359	3123
3501.066	3143
3502.775	3061
3504.481	3070
3506.187	3112
3507.893	3060
3509.598	3033
3511.304	3063
3513.009	3040
3514.713	3060
3516.417	3087
3518.12	3029
3519.821	3020
3521.525	2966
3523.228	2972
3524.929	3040
3526.631	3017
3528.33	3074
3530.032	3084
3531.733	2958
3533.433	2960
3535.131	2930
3536.83	3029
3538.529	2927
3540.227	2964
3541.925	2948
3543.623	2981
3545.319	2912
3547.016	3068
3548.712	2961
3550.408	2890
3552.103	2944
3553.798	2966
3555.491	2877
3557.188	2856
3558.88	3010
3560.574	2870
3562.266	3006
3563.959	2938
3565.651	2925
3567.343	2900
3569.035	2976
3570.725	2965
3572.415	2899
3574.106	2921
3575.797	2977
3577.485	2868
3579.174	2899
3580.863	2892
3582.551	2923
3584.238	2876
3585.926	2931
3587.613	2903
3589.3	2819
3590.986	2883
3592.671	2842
3594.357	2880
3596.042	2939
3597.726	2809
3599.41	2802
3601.094	2805
3602.778	2824
3604.461	2839
3606.143	2795
3607.825	2748
3609.507	2783
3611.188	2879
3612.87	2810
3614.551	2762
3616.229	2812
3617.909	2901
3619.589	2753
3621.269	2758
3622.948	2692
3624.625	2705
3626.302	2744
3627.98	2734
3629.657	2727
3631.334	2662
3633.01	2749
3634.686	2645
3636.361	2693
3638.036	2710
3639.712	2721
3641.385	2617
3643.06	2763
3644.732	2745
3646.405	2695
3648.08	2685
3649.751	2734
3651.424	2701
3653.094	2701
3654.766	2659
3656.436	2597
3658.106	2688
3659.777	2683
3661.446	2681
3663.115	2689
3664.783	2715
3666.452	2651
3668.121	2691
3669.788	2691
3671.454	2653
3673.121	2618
3674.789	2593
3676.455	2577
3678.12	2599
3679.784	2652
3681.45	2592
3683.114	2559
3684.779	2624
3686.442	2632
3688.105	2632
3689.768	2588
3691.43	2634
3693.093	2635
3694.754	2697
3696.415	2550
3698.076	2581
3699.736	2649
3701.396	2569
3703.057	2606
3704.716	2515
3706.375	2526
3708.034	2563
3709.692	2602
3711.351	2582
3713.008	2604
3714.665	2604
3716.321	2588
3717.977	2583
3719.634	2550
3721.29	2533
3722.945	2532
3724.598	2484
3726.253	2466
3727.907	2526
3729.561	2575
3731.214	2557
3732.867	2535
3734.518	2558
3736.171	2558
3737.824	2524
3739.474	2581
3741.125	2533
3742.775	2602
3744.425	2535
3746.074	2580
3747.725	2558
3749.373	2551
3751.022	2565
3752.669	2565
3754.318	2475
3755.966	2508
3757.612	2541
3759.259	2510
3760.905	2528
3762.55	2513
3764.197	2541
3765.842	2513
3767.486	2544
3769.131	2507
3770.774	2481
3772.417	2523
3774.061	2523
3775.705	2477
3777.347	2468
3778.988	2492
3780.629	2460
3782.271	2447
3783.912	2475
3785.552	2506
3787.192	2419
3788.831	2512
3790.472	2427
3792.112	2504
3793.75	2502
3795.388	2452
3797.024	2497
3798.661	2497
3800.3	2439
3801.936	2475
3803.572	2461
3805.208	2440
3806.844	2561
3808.48	2396
3810.115	2445
3811.748	2462
3813.382	2501
3815.016	2436
3816.649	2428
3818.283	2423
3819.914	2475
3821.547	2406
3823.178	2454
3824.809	2444
3826.441	2455
3828.072	2470
3829.701	2434
3831.331	2421
3832.96	2451
3834.591	2422
3836.219	2430
3837.847	2462
3839.475	2373
3841.102	2348
3842.729	2389
3844.357	2440
3845.984	2445
3847.609	2369
3849.234	2367
3850.86	2421
3852.485	2386
3854.11	2359
3855.734	2424
3857.357	2410
3858.981	2339
3860.603	2484
3862.227	2386
3863.848	2392
3865.471	2397
3867.092	2367
3868.713	2396
3870.334	2357
3871.954	2346
3873.575	2339
3875.194	2400
3876.813	2375
3878.433	2400
3880.051	2356
3881.669	2295
3883.286	2403
3884.904	2402
3886.52	2347
3888.138	2283
3889.754	2383
3891.37	2370
3892.985	2325
3894.6	2341
3896.216	2360
3897.831	2368
3899.444	2344
3901.058	2306
3902.67	2378
3904.283	2360
3905.897	2306
3907.509	2330
3909.121	2324
3910.731	2300
3912.342	2398
3913.954	2348
3915.563	2370
3917.174	2316
3918.783	2362
3920.391	2303
3922.002	2317
3923.611	2367
3925.218	2288
3926.826	2324
3928.432	2358
3930.039	2335
3931.647	2318
3933.253	2319
3934.859	2316
3936.464	2324
3938.068	2265
3939.675	2323
3941.278	2287
3942.883	2364
3944.486	2261
3946.089	2301
3947.692	2384
3949.295	2266
3950.898	2318
3952.499	2283
3954.1	2283
3955.7	2328
3957.303	2266
3958.903	2330
3960.502	2306
3962.101	2299
3963.7	2295
3965.301	2287
3966.899	2306
3968.497	2301
3970.094	2263
3971.691	2281
3973.288	2238
3974.885	2225
3976.481	2306
3978.077	2260
3979.672	2304
3981.267	2215
3982.863	2247
3984.457	2275
3986.051	2217
3987.645	2258
3989.238	2256
3990.831	2245
3992.425	2238
3994.017	2235
3995.607	2204
3997.199	2238
3998.79	2135
4000.382	2208
4001.973	2238
4003.561	2201
4005.151	2217
4006.741	2257
4008.331	2161
4009.918	2150
4011.507	2226
4013.095	2227
4014.681	2264
4016.269	2226
4017.856	2180
4019.443	2185
4021.028	2172
4022.614	2220
4024.199	2218
4025.785	2177
4027.37	2214
4028.953	2169
4030.536	2226
4032.12	2164
4033.704	2185
4035.287	2150
4036.869	2207
4038.45	2176
4040.032	2153
4041.613	2174
4043.195	2176
4044.776	2195
4046.356	2107
4047.935	2163
4049.515	2129
4051.095	2130
4052.674	2197
4054.251	2198
4055.829	2136
4057.406	2074
4058.985	2200
4060.562	2118
4062.139	2155
4063.715	2184
4065.29	2122
4066.865	2122
4068.442	2105
4070.016	2139
4071.59	2124
4073.164	2114
4074.738	2129
4076.312	2151
4077.885	2129
4079.458	2137
4081.03	2120
4082.602	2163
4084.173	2152
4085.745	2091
4087.315	2211
4088.886	2082
4090.456	2073
4092.026	2160
4093.596	2106
4095.165	2143
4096.734	2090
4098.301	2166
4099.869	2097
4101.437	2130
4103.006	2067
4104.572	2094
4106.139	2121
4107.704	2138
4109.27	2012
4110.837	2083
4112.401	2090
4113.966	2111
4115.53	2043
4117.094	2033
4118.659	2103
4120.223	2049
4121.785	2063
4123.347	2107
4124.909	2022
4126.471	2140
4128.034	2078
4129.595	2054
4131.155	2082
4132.716	2057
4134.275	2079
4135.836	2062
4137.395	2065
4138.955	2041
4140.513	2066
4142.071	2116
4143.628	2060
4145.188	2018
4146.745	2032
4148.302	1985
4149.858	2019
4151.414	1984
4152.971	2051
4154.526	2069
4156.081	2032
4157.635	2049
4159.189	2063
4160.745	2040
4162.298	2031
4163.852	2080
4165.405	2041
4166.957	1988
4168.51	1974
4170.063	1986
4171.614	1996
4173.166	1969
4174.717	2011
4176.267	2067
4177.817	1975
4179.368	1955
4180.917	2022
4182.466	1971
4184.016	1981
4185.564	2035
4187.112	1975
4188.66	1943
4190.207	1974
4191.754	1950
4193.301	1994
4194.848	1979
4196.394	1984
4197.94	1995
4199.484	2006
4201.03	1974
4202.575	2015
4204.12	1943
4205.663	2003
4207.207	1985
4208.75	1983
4210.292	1991
4211.836	1963
4213.378	1961
4214.92	1917
4216.46	1934
4218.002	1960
4219.544	1971
4221.083	1925
4222.625	1934
4224.164	1923
4225.703	1979
4227.244	1939
4228.782	1967
4230.32	1940
4231.857	1944
4233.395	1951
4234.933	1892
4236.471	1935
4238.007	1943
4239.542	1910
4241.078	1921
4242.614	1925
4244.15	1929
4245.685	1975
4247.219	1924
4248.753	1963
4250.287	1946
4251.82	1901
4253.354	1948
4254.887	1904
4256.419	1932
4257.951	1886
4259.483	1922
4261.016	1969
4262.547	1897
4264.078	1926
4265.608	1926
4267.137	1902
4268.668	1884
4270.197	1915
4271.727	1935
4273.254	1917
4274.783	1929
4276.311	1905
4277.84	1862
4279.366	1869
4280.894	1927
4282.42	1986
4283.946	1888
4285.473	1878
4286.998	1869
4288.523	1868
4290.047	1948
4291.572	1866
4293.096	1885
4294.622	1899
4296.144	1900
4297.668	1885
4299.19	1862
4300.713	1825
4302.236	1915
4303.758	1882
4305.279	1872
4306.799	1889
4308.321	1872
4309.842	1864
4311.361	1886
4312.882	1818
4314.401	1875
