400.0961	2676
402.6185	2693
405.1424	2678
407.6635	2643
410.1838	2763
412.7035	2660
415.2225	2752
417.7388	2758
420.2585	2780
422.7754	2860
425.2917	2817
427.8072	2781
430.3221	2850
432.8363	2867
435.3498	2831
437.8626	2893
440.3727	2848
442.8841	2887
445.3969	2905
447.907	2882
450.4142	2850
452.9229	2898
455.4289	2861
457.9362	2790
460.4449	2853
462.9488	2839
465.454	2798
467.9566	2818
470.4604	2873
472.9637	2880
475.4662	2876
477.966	2815
480.4671	2840
482.9656	2809
485.4633	2931
487.9645	2784
490.4608	2876
492.9566	2959
495.4536	2844
497.948	2912
500.4437	2797
502.9387	2970
505.431	2900
507.9226	2913
510.4136	2926
512.9079	2879
515.3975	2895
517.8864	2895
520.3746	2894
522.8622	2912
525.3491	2926
527.8394	2907
530.3249	2953
532.8098	2960
535.2939	2927
537.7774	2931
540.2623	2896
542.7444	2940
545.2259	2930
547.7067	2944
550.1868	2921
552.6683	2970
555.147	2927
557.6231	3036
560.1005	2977
562.5773	3085
565.0534	2946
567.5308	2942
570.0056	2960
572.4776	3029
574.951	2962
577.4237	3036
579.8978	3015
582.3671	3041
584.8378	3063
587.3079	3099
589.7773	3071
592.244	3130
594.714	3041
597.1793	3017
599.6461	3055
602.1121	3090
604.5754	3020
607.0421	3030
609.5042	3068
611.9675	3067
614.4282	2958
616.8902	3050
619.3515	3067
621.8122	3037
624.2702	3112
626.7296	2988
629.1863	3006
631.6423	3102
634.1017	3066
636.5563	2950
639.0104	3009
641.4658	3010
643.9185	3020
646.3725	3021
648.8239	3093
651.2766	3028
653.7266	2991
656.176	3052
658.6247	3018
661.0748	3074
663.5242	3107
665.9709	3068
668.417	3044
670.8624	3140
673.3092	3100
675.7533	3050
678.1968	3078
680.6395	3162
683.0817	3095
685.5251	3099
687.9659	3102
690.4061	3079
692.8456	3150
695.2844	3080
697.7226	3068
700.1621	3145
702.599	3157
705.0332	3187
707.4688	3223
709.9036	3124
712.3399	3091
714.7735	3263
717.2044	3188
719.6367	3155
722.0683	3170
724.4993	3150
726.9296	3279
729.3593	3227
731.7883	3188
734.2147	3258
736.6423	3191
739.0714	3291
741.4958	3226
743.9216	3258
746.3447	3231
748.7691	3218
751.1929	3334
753.616	3286
756.0366	3319
758.4584	3318
760.8776	3329
763.2982	3365
765.718	3283
768.1373	3257
770.5539	3255
772.9698	3361
775.3871	3325
777.8038	3344
780.2178	3265
782.6332	3276
785.0459	3319
787.458	3384
789.8714	3392
792.2842	3354
794.6943	3282
797.1038	3331
799.5127	3317
801.9209	3307
804.3324	3327
806.7393	3290
809.1456	3330
811.5513	3425
813.9562	3408
816.3625	3359
818.7663	3362
821.1693	3398
823.5718	3370
825.9735	3413
828.3746	3285
830.7771	3308
833.177	3359
835.5762	3376
837.9747	3360
840.3727	3381
842.772	3372
845.1666	3371
847.5626	3401
849.958	3533
852.3527	3429
854.7488	3486
857.1403	3417
859.5331	3451
861.9253	3446
864.3168	3424
866.7057	3421
869.098	3441
871.4876	3442
873.8746	3408
876.263	3468
878.6487	3437
881.0378	3444
883.4243	3481
885.8081	3403
888.1933	3400
890.5759	3360
892.9598	3390
895.343	3510
897.7256	3419
900.1057	3477
902.4871	3439
904.8659	3437
907.246	3390
909.6254	3541
912.0023	3529
914.3786	3602
916.7562	3544
919.1331	3638
921.5074	3680
923.8831	3667
926.2562	3663
928.6287	3730
931.0005	3647
933.3757	3693
935.7462	3687
938.1162	3693
940.4855	3652
942.8542	3818
945.2242	3810
947.5916	3840
949.9584	3882
952.3266	3917
954.6921	4047
957.0571	4158
959.4233	4413
961.787	4420
964.15	4402
966.5125	4231
968.8742	4118
971.2354	4027
973.5959	3845
975.9559	3781
978.3151	3732
980.6738	3683
983.0338	3618
985.3912	3560
987.7461	3581
990.1022	3536
992.4578	3574
994.8127	3622
997.1689	3629
999.5207	3516
1001.874	3552
1004.226	3676
1006.576	3592
1008.929	3663
1011.28	3547
1013.628	3643
1015.977	3633
1018.324	3655
1020.674	3615
1023.019	3590
1025.366	3635
1027.713	3586
1030.056	3632
1032.399	3647
1034.746	3635
1037.087	3564
1039.431	3639
1041.771	3633
1044.113	3623
1046.454	3640
1048.793	3718
1051.133	3649
1053.471	3652
1055.807	3700
1058.146	3779
1060.483	3642
1062.818	3677
1065.153	3713
1067.489	3648
1069.822	3682
1072.156	3762
1074.488	3720
1076.82	3778
1079.15	3704
1081.48	3651
1083.814	3663
1086.143	3702
1088.471	3693
1090.799	3654
1093.126	3719
1095.452	3679
1097.78	3671
1100.105	3701
1102.43	3699
1104.754	3633
1107.077	3667
1109.4	3729
1111.722	3657
1114.044	3707
1116.365	3755
1118.685	3687
1121.005	3680
1123.324	3712
1125.643	3759
1127.961	3662
1130.278	3698
1132.595	3662
1134.911	3729
1137.226	3739
1139.541	3706
1141.854	3716
1144.167	3624
1146.482	3805
1148.793	3626
1151.105	3650
1153.414	3739
1155.725	3716
1158.033	3657
1160.344	3660
1162.651	3671
1164.959	3651
1167.265	3684
1169.572	3644
1171.878	3573
1174.184	3728
1176.488	3713
1178.79	3720
1181.094	3728
1183.396	3698
1185.699	3722
1188.001	3655
1190.301	3647
1192.6	3723
1194.9	3657
1197.2	3636
1199.497	3729
1201.794	3718
1204.09	3742
1206.387	3706
1208.684	3713
1210.978	3729
1213.272	3769
1215.565	3649
1217.858	3703
1220.15	3763
1222.443	3637
1224.734	3774
1227.024	3765
1229.313	3807
1231.602	3763
1233.892	3905
1236.18	3776
1238.467	3841
1240.754	3906
1243.04	3883
1245.325	3896
1247.612	3871
1249.896	3953
1252.178	3878
1254.461	3863
1256.743	3953
1259.027	3798
1261.308	3890
1263.587	3822
1265.867	3864
1268.146	3888
1270.425	3903
1272.703	3855
1274.981	3930
1277.256	3938
1279.532	3889
1281.808	3855
1284.083	3883
1286.358	3939
1288.63	3874
1290.904	3844
1293.175	3920
1295.449	3847
1297.719	3861
1299.99	3956
1302.259	3817
1304.529	3794
1306.798	3785
1309.065	3772
1311.333	3800
1313.599	3804
1315.866	3864
1318.131	3780
1320.396	3868
1322.66	3730
1324.925	3874
1327.187	3837
1329.448	3779
1331.711	3766
1333.974	3839
1336.234	3836
1338.493	3891
1340.752	3868
1343.01	3751
1345.269	3817
1347.526	3820
1349.784	3814
1352.04	3722
1354.295	3826
1356.552	3800
1358.806	3725
1361.059	3801
1363.312	3831
1365.564	3848
1367.818	3827
1370.069	3874
1372.318	3865
1374.568	3755
1376.817	3874
1379.066	3895
1381.316	3903
1383.564	3880
1385.809	3886
1388.056	3803
1390.301	3958
1392.549	3865
1394.793	3920
1397.036	3986
1399.279	4024
1401.522	3924
1403.763	4058
1406.007	4068
1408.248	4057
1410.487	3941
1412.727	4051
1414.965	4034
1417.205	3890
1419.442	3914
1421.68	4027
1423.915	3966
1426.152	3968
1428.388	3984
1430.623	3952
1432.857	4068
1435.091	3999
1437.323	4032
1439.556	4050
1441.789	4023
1444.019	4000
1446.25	4004
1448.48	4075
1450.708	4055
1452.938	4165
1455.167	4183
1457.394	4090
1459.62	4101
1461.846	4026
1464.073	4121
1466.299	4144
1468.523	3973
1470.746	4008
1472.969	3972
1475.191	3904
1477.415	3935
1479.636	3865
1481.858	3885
1484.078	3938
1486.298	3949
1488.518	3753
1490.736	3878
1492.954	3824
1495.169	3759
1497.386	3849
1499.602	3845
1501.819	3825
1504.034	3824
1506.248	3834
1508.462	3740
1510.675	3833
1512.888	3800
1515.1	3897
1517.311	3849
1519.522	3886
1521.732	3797
1523.942	3798
1526.151	3866
1528.36	3802
1530.566	3839
1532.773	3770
1534.98	3743
1537.187	3847
1539.392	3890
1541.596	3825
1543.801	3810
1546.005	3892
1548.208	3810
1550.411	3942
1552.612	3799
1554.814	3817
1557.013	3920
1559.212	3923
1561.414	3917
1563.612	4012
1565.811	3871
1568.007	3927
1570.203	3883
1572.403	3942
1574.598	3916
1576.792	3901
1578.988	3987
1581.181	3932
1583.376	3913
1585.568	3989
1587.761	3976
1589.952	3912
1592.143	3916
1594.333	4031
1596.524	4006
1598.715	4009
1600.903	4048
1603.091	4038
1605.278	3936
1607.466	3999
1609.652	3971
1611.838	4020
1614.023	4036
1616.207	3984
1618.391	3978
1620.576	3976
1622.759	4030
1624.941	4006
1627.123	3902
1629.304	4061
1631.484	3973
1633.664	4076
1635.844	3969
1638.022	4114
1640.201	3987
1642.38	4092
1644.556	4080
1646.732	4024
1648.908	4076
1651.084	4093
1653.257	4080
1655.433	4063
1657.607	4043
1659.779	3984
1661.951	4093
1664.122	4097
1666.295	4090
1668.467	4059
1670.635	4138
1672.805	4100
1674.973	4074
1677.142	4025
1679.31	4118
1681.478	4139
1683.644	4033
1685.81	4154
1687.975	3989
1690.142	4178
1692.305	4012
1694.468	4062
1696.632	4013
1698.794	3993
1700.957	4000
1703.119	4069
1705.279	4107
1707.439	4025
1709.598	3986
1711.758	4006
1713.917	3958
1716.075	3896
1718.231	4055
1720.388	4042
1722.543	4107
1724.702	3966
1726.856	4025
1729.01	3969
1731.164	3955
1733.317	3961
1735.471	4016
1737.623	3940
1739.774	3970
1741.925	3992
1744.075	3972
1746.225	3959
1748.376	3970
1750.524	3942
1752.672	4029
1754.82	3968
1756.965	4043
1759.113	4031
1761.259	3968
1763.405	4045
1765.549	4003
1767.694	3972
1769.836	4042
1771.981	3983
1774.123	4007
1776.264	4100
1778.405	4028
1780.546	4064
1782.687	3973
1784.827	3997
1786.966	4016
1789.103	3938
1791.242	4019
1793.381	3996
1795.517	3950
1797.653	3971
1799.788	4040
1801.923	4095
1804.057	4039
1806.193	4061
1808.326	4076
1810.457	4095
1812.59	3940
1814.721	3974
1816.855	4031
1818.984	3982
1821.113	3994
1823.244	4007
1825.372	4001
1827.499	3957
1829.63	4006
1831.756	3977
1833.882	4013
1836.007	3991
1838.132	3968
1840.26	3971
1842.384	4063
1844.507	4009
1846.63	4031
1848.752	3951
1850.875	3950
1852.996	3945
1855.118	3937
1857.238	3978
1859.358	4001
1861.477	4066
1863.597	4028
1865.715	3956
1867.832	4060
1869.948	3930
1872.064	4040
1874.181	3878
1876.297	4038
1878.411	3992
1880.526	3933
1882.639	4005
1884.752	4058
1886.865	4018
1888.977	3995
1891.089	3934
1893.2	4017
1895.308	4012
1897.42	4049
1899.53	4052
1901.639	4075
1903.745	3978
1905.853	4120
1907.962	3950
1910.067	4012
1912.174	3980
1914.278	3982
1916.383	4097
1918.486	4089
1920.592	3989
1922.694	4085
1924.797	3945
1926.898	4046
1929	4078
1931.102	4031
1933.203	3955
1935.301	4073
1937.401	4003
1939.499	4032
1941.598	4175
1943.697	4149
1945.793	4143
1947.888	4083
1949.985	4067
1952.08	4073
1954.176	4075
1956.269	4127
1958.364	4052
1960.457	4102
1962.549	4074
1964.642	4000
1966.733	3984
1968.823	4060
1970.913	4102
1973.005	4055
1975.093	4003
1977.184	4085
1979.271	4053
1981.359	4101
1983.446	4009
1985.532	3984
1987.619	4085
1989.705	4049
1991.789	4008
1993.874	4009
1995.956	4067
1998.041	3924
2000.123	4055
2002.206	3987
2004.287	3973
2006.368	4026
2008.449	4047
2010.529	4081
2012.609	4041
2014.688	4027
2016.766	3992
2018.843	3963
2020.922	4000
2022.999	3966
2025.074	3988
2027.15	4003
2029.225	4022
2031.299	3924
2033.375	4036
2035.447	4059
2037.52	4140
2039.592	3986
2041.664	4058
2043.736	3996
2045.807	3981
2047.876	3955
2049.947	3945
2052.015	4004
2054.086	4053
2056.153	4088
2058.221	4081
2060.288	4025
2062.353	3930
2064.42	4041
2066.486	4028
2068.55	4026
2070.614	4138
2072.678	4035
2074.741	4014
2076.805	4004
2078.866	4039
2080.929	4081
2082.99	3966
2085.049	4076
2087.109	4059
2089.17	3937
2091.228	4005
2093.286	3997
2095.344	4051
2097.4	3988
2099.46	4076
2101.516	4021
2103.572	4047
2105.626	4047
2107.679	3938
2109.735	3948
2111.788	3977
2113.841	4034
2115.894	3951
2117.945	4042
2119.997	4046
2122.049	4085
2124.1	4041
2126.148	4045
2128.197	4044
2130.246	3935
2132.296	3989
2134.342	3985
2136.39	3944
2138.437	4020
2140.483	4064
2142.527	3989
2144.574	4036
2146.619	4061
2148.661	3959
2150.705	4027
2152.747	4050
2154.792	3955
2156.832	4029
2158.874	4042
2160.915	3991
2162.954	4069
2164.995	3997
2167.034	4025
2169.072	3887
2171.111	4019
2173.148	3951
2175.186	4024
2177.223	3974
2179.258	4023
2181.294	4006
2183.328	3988
2185.362	3969
2187.398	3903
2189.431	3938
2191.463	3960
2193.495	3986
2195.528	3917
2197.56	4027
2199.59	3935
2201.62	3994
2203.649	3964
2205.678	4011
2207.708	3944
2209.737	3906
2211.764	3847
2213.791	3981
2215.817	3882
2217.843	3915
2219.87	3914
2221.895	3944
2223.919	3945
2225.942	3914
2227.966	4005
2229.988	3916
2232.012	4000
2234.032	4018
2236.054	3925
2238.074	3923
2240.095	3895
2242.116	3943
2244.135	3980
2246.153	3925
2248.171	3925
2250.188	3969
2252.208	3919
2254.223	3955
2256.239	3959
2258.255	3944
2260.269	3981
2262.283	3962
2264.3	3940
2266.312	3912
2268.325	3937
2270.336	3982
2272.349	3898
2274.362	3975
2276.372	3880
2278.383	3875
2280.392	3988
2282.402	3965
2284.409	3881
2286.418	3957
2288.427	4004
2290.433	3867
2292.441	3951
2294.446	3957
2296.453	3916
2298.459	3889
2300.463	3876
2302.466	3968
2304.471	4003
2306.475	3889
2308.477	3837
2310.478	3846
2312.481	3927
2314.481	3941
2316.481	3953
2318.482	3947
2320.482	3861
2322.48	3983
2324.48	3948
2326.478	3834
2328.476	3930
2330.473	3845
2332.469	3906
2334.465	3873
2336.46	3863
2338.454	3867
2340.45	3957
2342.444	3809
2344.437	3897
2346.43	3876
2348.421	3850
2350.414	3927
2352.405	3937
2354.396	3859
2356.386	3853
2358.376	3825
2360.366	3903
2362.355	3829
2364.343	3915
2366.331	3912
2368.317	3924
2370.304	3808
2372.292	3940
2374.278	3948
2376.262	3928
2378.247	3837
2380.23	3797
2382.216	3846
2384.199	3835
2386.181	3910
2388.163	3842
2390.144	3858
2392.127	3824
2394.107	3772
2396.087	3829
2398.066	3827
2400.046	3832
2402.023	3780
2404.004	3810
2405.981	3857
2407.957	3868
2409.934	3763
2411.91	3840
2413.886	3865
2415.862	3802
2417.836	3755
2419.809	3750
2421.784	3862
2423.756	3673
2425.73	3886
2427.701	3871
2429.672	3814
2431.644	3830
2433.615	3773
2435.586	3773
2437.555	3792
2439.523	3827
2441.491	3766
2443.459	3787
2445.428	3787
2447.395	3831
2449.361	3944
2451.327	3863
2453.292	3765
2455.257	3822
2457.223	3817
2459.187	3769
2461.15	3864
2463.113	3748
2465.076	3805
2467.039	3788
2468.999	3791
2470.96	3729
2472.921	3833
2474.881	3819
2476.841	3759
2478.8	3739
2480.759	3851
2482.717	3811
2484.675	3738
2486.63	3812
2488.589	3701
2490.545	3762
2492.5	3793
2494.455	3736
2496.408	3884
2498.364	3798
2500.318	3767
2502.27	3736
2504.223	3793
2506.174	3801
2508.126	3774
2510.078	3795
2512.03	3740
2513.979	3788
2515.927	3799
2517.877	3842
2519.826	3793
2521.775	3748
2523.722	3711
2525.668	3746
2527.616	3751
2529.561	3792
2531.508	3815
2533.452	3763
2535.398	3823
2537.342	3780
2539.284	3818
2541.229	3826
2543.173	3755
2545.114	3713
2547.055	3759
2548.996	3737
2550.938	3746
2552.878	3714
2554.817	3774
2556.756	3676
2558.695	3735
2560.633	3770
2562.572	3738
2564.509	3831
2566.445	3763
2568.382	3749
2570.317	3716
2572.254	3691
2574.189	3724
2576.123	3724
2578.057	3798
2579.99	3750
2581.923	3770
2583.855	3749
2585.788	3757
2587.719	3761
2589.65	3809
2591.579	3728
2593.511	3736
2595.44	3724
2597.37	3733
2599.297	3818
2601.225	3794
2603.153	3785
2605.08	3741
2607.007	3696
2608.932	3727
2610.858	3817
2612.782	3712
2614.709	3710
2616.632	3820
2618.556	3763
2620.478	3749
2622.401	3762
2624.324	3766
2626.247	3800
2628.167	3732
2630.088	3762
2632.008	3781
2633.928	3747
2635.848	3748
2637.766	3803
2639.684	3772
2641.603	3731
2643.519	3743
2645.437	3803
2647.353	3769
2649.27	3822
2651.184	3769
2653.099	3690
2655.014	3680
2656.928	3787
2658.842	3814
2660.755	3711
2662.667	3776
2664.579	3699
2666.491	3805
2668.402	3704
2670.312	3704
2672.222	3727
2674.132	3782
2676.042	3717
2677.951	3790
2679.859	3686
2681.766	3711
2683.674	3737
2685.582	3756
2687.488	3751
2689.392	3713
2691.298	3696
2693.202	3689
2695.107	3780
2697.012	3821
2698.914	3754
2700.817	3746
2702.72	3684
2704.622	3612
2706.524	3712
2708.425	3780
2710.326	3785
2712.225	3747
2714.125	3693
2716.024	3791
2717.923	3723
2719.822	3736
2721.719	3755
2723.616	3689
2725.512	3766
2727.41	3632
2729.305	3698
2731.201	3639
2733.095	3742
2734.99	3769
2736.884	3665
2738.778	3770
2740.67	3674
2742.562	3732
2744.455	3666
2746.346	3625
2748.238	3692
2750.129	3791
2752.018	3686
2753.907	3636
2755.797	3711
2757.687	3693
2759.575	3770
2761.462	3708
2763.349	3702
2765.237	3675
2767.124	3704
2769.009	3719
2770.894	3639
2772.779	3620
2774.663	3714
2776.547	3754
2778.431	3682
2780.314	3607
2782.197	3658
2784.078	3556
2785.96	3699
2787.842	3582
2789.723	3717
2791.603	3666
2793.483	3651
2795.362	3654
2797.241	3694
2799.121	3701
2800.997	3619
2802.874	3660
2804.751	3624
2806.628	3580
2808.506	3666
2810.38	3710
2812.255	3643
2814.13	3679
2816.003	3631
2817.878	3661
2819.752	3705
2821.623	3588
2823.496	3665
2825.368	3729
2827.238	3700
2829.111	3770
2830.98	3756
2832.851	3627
2834.719	3687
2836.589	3649
2838.458	3738
2840.327	3658
2842.193	3723
2844.061	3693
2845.927	3651
2847.794	3789
2849.66	3688
2851.525	3751
2853.39	3706
2855.254	3682
2857.117	3860
2858.983	3767
2860.845	3772
2862.707	3869
2864.569	3903
2866.431	3778
2868.293	3832
2870.154	3863
2872.013	3858
2873.873	3894
2875.733	3904
2877.592	3910
2879.451	3897
2881.309	3999
2883.166	4102
2885.022	4100
2886.879	4048
2888.736	4027
2890.591	4164
2892.446	4117
2894.301	4199
2896.155	4071
2898.009	4093
2899.863	4149
2901.716	4101
2903.568	4103
2905.419	4062
2907.27	4147
2909.123	4087
2910.973	4106
2912.824	4040
2914.673	4125
2916.521	4081
2918.372	4173
2920.22	4138
2922.067	4299
2923.914	4271
2925.761	4255
2927.607	4208
2929.455	4367
2931.301	4340
2933.144	4416
2934.99	4369
2936.833	4557
2938.678	4460
2940.522	4452
2942.364	4512
2944.207	4584
2946.048	4624
2947.891	4663
2949.731	4665
2951.571	4713
2953.412	4730
2955.25	4526
2957.09	4636
2958.93	4584
2960.767	4513
2962.606	4535
2964.443	4486
2966.279	4462
2968.116	4387
2969.953	4344
2971.788	4321
2973.623	4187
2975.457	4197
2977.292	4281
2979.127	4194
2980.959	4128
2982.792	4095
2984.624	4116
2986.455	4133
2988.288	4020
2990.119	4022
2991.949	3939
2993.779	3959
2995.608	3950
2997.439	3875
2999.268	4058
3001.096	3878
3002.923	3925
3004.751	3833
3006.578	3785
3008.406	3712
3010.232	3753
3012.057	3739
3013.883	3597
3015.706	3649
3017.532	3646
3019.356	3659
3021.179	3620
3023.002	3636
3024.823	3555
3026.646	3624
3028.469	3548
3030.289	3564
3032.11	3552
3033.93	3575
3035.749	3529
3037.57	3595
3039.39	3497
3041.207	3561
3043.026	3549
3044.842	3543
3046.661	3481
3048.477	3559
3050.294	3518
3052.109	3475
3053.925	3558
3055.739	3509
3057.555	3486
3059.368	3577
3061.181	3463
3062.995	3550
3064.807	3486
3066.62	3565
3068.433	3467
3070.243	3427
3072.054	3466
3073.865	3502
3075.675	3466
3077.485	3489
3079.293	3523
3081.102	3420
3082.911	3496
3084.719	3505
3086.527	3447
3088.333	3380
3090.139	3551
3091.945	3298
3093.75	3457
3095.557	3396
3097.361	3378
3099.165	3405
3100.969	3411
3102.772	3373
3104.575	3366
3106.379	3358
3108.181	3438
3109.982	3393
3111.783	3337
3113.584	3345
3115.386	3372
3117.186	3414
3118.985	3369
3120.783	3399
3122.582	3390
3124.381	3345
3126.179	3387
3127.975	3341
3129.772	3365
3131.569	3378
3133.365	3355
3135.161	3390
3136.956	3228
3138.751	3407
3140.544	3302
3142.338	3347
3144.132	3267
3145.925	3367
3147.717	3281
3149.509	3290
3151.301	3271
3153.091	3316
3154.884	3355
3156.673	3302
3158.462	3347
3160.252	3371
3162.041	3253
3163.831	3380
3165.618	3314
3167.405	3342
3169.193	3333
3170.979	3372
3172.767	3254
3174.553	3365
3176.338	3263
3178.123	3318
3179.907	3316
3181.692	3262
3183.477	3286
3185.259	3289
3187.042	3277
3188.824	3325
3190.607	3179
3192.389	3269
3194.17	3338
3195.951	3314
3197.73	3245
3199.51	3350
3201.289	3256
3203.07	3266
3204.848	3218
3206.626	3259
3208.403	3323
3210.18	3265
3211.959	3319
3213.735	3190
3215.511	3234
3217.285	3306
3219.06	3280
3220.836	3251
3222.611	3277
3224.384	3276
3226.158	3259
3227.929	3244
3229.702	3286
3231.476	3233
3233.248	3289
3235.018	3179
3236.789	3316
3238.56	3301
3240.33	3327
3242.1	3323
3243.869	3318
3245.637	3311
3247.405	3237
3249.172	3299
3250.941	3271
3252.707	3252
3254.474	3237
3256.24	3230
3258.006	3265
3259.772	3316
3261.537	3268
3263.301	3280
3265.065	3254
3266.828	3291
3268.592	3331
3270.355	3251
3272.117	3274
3273.878	3212
3275.64	3272
3277.401	3338
3279.162	3247
3280.922	3254
3282.682	3260
3284.441	3317
3286.199	3222
3287.959	3213
3289.716	3244
3291.475	3225
3293.232	3348
3294.988	3264
3296.744	3344
3298.501	3282
3300.256	3333
3302.011	3255
3303.766	3257
3305.52	3280
3307.275	3231
3309.028	3235
3310.781	3361
3312.533	3335
3314.285	3293
3316.038	3220
3317.789	3280
3319.54	3303
3321.289	3334
3323.039	3293
3324.789	3295
3326.539	3239
3328.288	3229
3330.035	3293
3331.783	3225
3333.531	3285
3335.28	3264
3337.025	3209
3338.771	3232
3340.518	3203
3342.262	3278
3344.009	3183
3345.753	3294
3347.497	3199
3349.24	3243
3350.983	3293
3352.726	3200
3354.469	3153
3356.212	3222
3357.952	3226
3359.694	3265
3361.434	3174
3363.176	3116
3364.916	3186
3366.654	3198
3368.394	3156
3370.132	3160
3371.871	3185
3373.61	3141
3375.346	3201
3377.083	3213
3378.82	3209
3380.556	3225
3382.292	3205
3384.027	3205
3385.763	3184
3387.497	3129
3389.231	3116
3390.965	3115
3392.698	3125
3394.431	3080
3396.164	3194
3397.896	3124
3399.627	3034
3401.36	3141
3403.09	3125
3404.82	3177
3406.55	3147
3408.279	3129
3410.01	3088
3411.738	3104
3413.467	3183
3415.194	3200
3416.92	3094
3418.647	3084
3420.375	3095
3422.102	3188
3423.827	3141
3425.553	3061
3427.277	3024
3429.003	3180
3430.727	3088
3432.451	3106
3434.173	3061
3435.896	3035
3437.62	3084
3439.343	3042
3441.063	3037
3442.785	3030
3444.505	3067
3446.226	3126
3447.948	3117
3449.666	3045
3451.386	3109
3453.104	3037
3454.823	3098
3456.541	3026
3458.259	2979
3459.976	2982
3461.693	3070
3463.408	2968
3465.125	2993
3466.841	3037
3468.556	3055
3470.271	3006
3471.985	3001
3473.698	2961
3475.414	2938
3477.126	2951
3478.838	2943
3480.55	3027
3482.263	2957
3483.975	2949
3485.686	2967
3487.396	2968
3489.106	2947
3490.817	2951
3492.526	2948
3494.236	2968
3495.944	2933
3497.652	2898
3499.359	2902
3501.066	2956
3502.775	3001
3504.481	2955
3506.187	2995
3507.893	2983
3509.598	2902
3511.304	2935
3513.009	2882
3514.713	2958
3516.417	2887
3518.12	2877
3519.821	2981
3521.525	2894
3523.228	2936
3524.929	2937
3526.631	2908
3528.33	2937
3530.032	2991
3531.733	2880
3533.433	2885
3535.131	2881
3536.83	2806
3538.529	2825
3540.227	2794
3541.925	2897
3543.623	2893
3545.319	2797
3547.016	2904
3548.712	2831
3550.408	2791
3552.103	2846
3553.798	2868
3555.491	2817
3557.188	2797
3558.88	2809
3560.574	2855
3562.266	2778
3563.959	2807
3565.651	2840
3567.343	2803
3569.035	2759
3570.725	2768
3572.415	2778
3574.106	2865
3575.797	2834
3577.485	2842
3579.174	2830
3580.863	2864
3582.551	2807
3584.238	2816
3585.926	2814
3587.613	2714
3589.3	2810
3590.986	2814
3592.671	2742
3594.357	2837
3596.042	2712
3597.726	2694
3599.41	2710
3601.094	2774
3602.778	2725
3604.461	2750
3606.143	2764
3607.825	2717
3609.507	2709
3611.188	2686
3612.87	2710
3614.551	2722
3616.229	2803
3617.909	2730
3619.589	2660
3621.269	2710
3622.948	2699
3624.625	2679
3626.302	2691
3627.98	2681
3629.657	2642
3631.334	2670
3633.01	2665
3634.686	2692
3636.361	2633
3638.036	2653
3639.712	2667
3641.385	2686
3643.06	2655
3644.732	2703
3646.405	2615
3648.08	2687
3649.751	2680
3651.424	2595
3653.094	2614
3654.766	2662
3656.436	2683
3658.106	2594
3659.777	2652
3661.446	2629
3663.115	2585
3664.783	2596
3666.452	2635
3668.121	2570
3669.788	2642
3671.454	2632
3673.121	2597
3674.789	2605
3676.455	2586
3678.12	2595
3679.784	2619
3681.45	2593
3683.114	2581
3684.779	2654
3686.442	2609
3688.105	2551
3689.768	2529
3691.43	2646
3693.093	2649
3694.754	2596
3696.415	2589
3698.076	2544
3699.736	2577
3701.396	2518
3703.057	2564
3704.716	2509
3706.375	2620
3708.034	2630
3709.692	2595
3711.351	2587
3713.008	2608
3714.665	2551
3716.321	2559
3717.977	2564
3719.634	2559
3721.29	2567
3722.945	2512
3724.598	2566
3726.253	2491
3727.907	2572
3729.561	2574
3731.214	2472
3732.867	2522
3734.518	2534
3736.171	2594
3737.824	2545
3739.474	2579
3741.125	2526
3742.775	2477
3744.425	2582
3746.074	2529
3747.725	2480
3749.373	2559
3751.022	2555
3752.669	2509
3754.318	2568
3755.966	2543
3757.612	2486
3759.259	2537
3760.905	2539
3762.55	2495
3764.197	2499
3765.842	2482
3767.486	2474
3769.131	2525
3770.774	2478
3772.417	2518
3774.061	2486
3775.705	2503
3777.347	2509
3778.988	2489
3780.629	2531
3782.271	2468
3783.912	2545
3785.552	2477
3787.192	2464
3788.831	2487
3790.472	2461
3792.112	2507
3793.75	2438
3795.388	2441
3797.024	2445
3798.661	2491
3800.3	2467
3801.936	2356
3803.572	2464
3805.208	2447
3806.844	2440
3808.48	2437
3810.115	2439
3811.748	2404
3813.382	2476
3815.016	2375
3816.649	2410
3818.283	2467
3819.914	2434
3821.547	2428
3823.178	2438
3824.809	2404
3826.441	2385
3828.072	2407
3829.701	2409
3831.331	2405
3832.96	2424
3834.591	2373
3836.219	2429
3837.847	2433
3839.475	2446
3841.102	2292
3842.729	2422
3844.357	2435
3845.984	2369
3847.609	2400
3849.234	2388
3850.86	2397
3852.485	2355
3854.11	2452
3855.734	2404
3857.357	2360
3858.981	2391
3860.603	2391
3862.227	2384
3863.848	2391
3865.471	2380
3867.092	2342
3868.713	2341
3870.334	2355
3871.954	2454
3873.575	2336
3875.194	2364
3876.813	2399
3878.433	2335
3880.051	2394
3881.669	2343
3883.286	2335
3884.904	2400
3886.52	2394
3888.138	2375
3889.754	2365
3891.37	2382
3892.985	2310
3894.6	2332
3896.216	2387
3897.831	2388
3899.444	2311
3901.058	2417
3902.67	2348
3904.283	2357
3905.897	2359
3907.509	2346
3909.121	2345
3910.731	2320
3912.342	2306
3913.954	2283
3915.563	2328
3917.174	2342
3918.783	2315
3920.391	2355
3922.002	2348
3923.611	2257
3925.218	2364
3926.826	2328
3928.432	2303
3930.039	2332
3931.647	2361
3933.253	2330
3934.859	2338
3936.464	2359
3938.068	2309
3939.675	2355
3941.278	2308
3942.883	2312
3944.486	2348
3946.089	2340
3947.692	2304
3949.295	2297
3950.898	2294
3952.499	2284
3954.1	2313
3955.7	2245
3957.303	2323
3958.903	2305
3960.502	2345
3962.101	2214
3963.7	2258
3965.301	2311
3966.899	2305
3968.497	2236
3970.094	2269
3971.691	2284
3973.288	2278
3974.885	2275
3976.481	2243
3978.077	2266
3979.672	2277
3981.267	2205
3982.863	2213
3984.457	2223
3986.051	2228
3987.645	2308
3989.238	2245
3990.831	2205
3992.425	2239
3994.017	2279
3995.607	2156
3997.199	2250
3998.79	2246
4000.382	2187
4001.973	2234
4003.561	2216
4005.151	2223
4006.741	2177
4008.331	2205
4009.918	2165
4011.507	2256
4013.095	2171
4014.681	2211
4016.269	2214
4017.856	2178
4019.443	2244
4021.028	2160
4022.614	2194
4024.199	2186
4025.785	2240
4027.37	2165
4028.953	2228
4030.536	2137
4032.12	2155
4033.704	2213
4035.287	2176
4036.869	2176
4038.45	2177
4040.032	2120
4041.613	2127
4043.195	2116
4044.776	2132
4046.356	2153
4047.935	2213
4049.515	2158
4051.095	2081
4052.674	2118
4054.251	2120
4055.829	2165
4057.406	2088
4058.985	2194
4060.562	2119
4062.139	2168
4063.715	2157
4065.29	2130
4066.865	2104
4068.442	2157
4070.016	2106
4071.59	2114
4073.164	2162
4074.738	2074
4076.312	2103
4077.885	2173
4079.458	2116
4081.03	2105
4082.602	2082
4084.173	2107
4085.745	2156
4087.315	2113
4088.886	2096
4090.456	2136
4092.026	2105
4093.596	2074
4095.165	2114
4096.734	2115
4098.301	2106
4099.869	2117
4101.437	2120
4103.006	2108
4104.572	2077
4106.139	2108
4107.704	2126
4109.27	2105
4110.837	2093
4112.401	2077
4113.966	2077
4115.53	2068
4117.094	2038
4118.659	2064
4120.223	2078
4121.785	2094
4123.347	2088
4124.909	2086
4126.471	2034
4128.034	2009
4129.595	2059
4131.155	2096
4132.716	2035
4134.275	2067
4135.836	2029
4137.395	2009
4138.955	2051
4140.513	2040
4142.071	2047
4143.628	2070
4145.188	2121
4146.745	2029
4148.302	2061
4149.858	2045
4151.414	1983
4152.971	2033
4154.526	2046
4156.081	1999
4157.635	1995
4159.189	2002
4160.745	2102
4162.298	1981
4163.852	1944
4165.405	2034
4166.957	1998
4168.51	2024
4170.063	2026
4171.614	1999
4173.166	2013
4174.717	1974
4176.267	2025
4177.817	2051
4179.368	1958
4180.917	2009
4182.466	1998
4184.016	2018
4185.564	1969
4187.112	2024
4188.66	1930
4190.207	1953
4191.754	1900
4193.301	1998
4194.848	1962
4196.394	1937
4197.94	2012
4199.484	1933
4201.03	2059
4202.575	1954
4204.12	1978
4205.663	1991
4207.207	1963
4208.75	2003
4210.292	1971
4211.836	1951
4213.378	1947
4214.92	1954
4216.46	1954
4218.002	1967
4219.544	1964
4221.083	1960
4222.625	1900
4224.164	1956
4225.703	1944
4227.244	1954
4228.782	1961
4230.32	1994
4231.857	1930
4233.395	1959
4234.933	1873
4236.471	1908
4238.007	1888
4239.542	1999
4241.078	1958
4242.614	1946
4244.15	1967
4245.685	1944
4247.219	1980
4248.753	1958
4250.287	1886
4251.82	1898
4253.354	1932
4254.887	1894
4256.419	1946
4257.951	1919
4259.483	1881
4261.016	1874
4262.547	1876
4264.078	1889
4265.608	1926
4267.137	1913
4268.668	1908
4270.197	1891
4271.727	1941
4273.254	1862
4274.783	1907
4276.311	1839
4277.84	1884
4279.366	1874
4280.894	1908
4282.42	1893
4283.946	1859
4285.473	1886
4286.998	1868
4288.523	1888
4290.047	1853
4291.572	1857
4293.096	1919
4294.622	1844
4296.144	1862
4297.668	1917
4299.19	1919
4300.713	1857
4302.236	1885
4303.758	1853
4305.279	1896
4306.799	1839
4308.321	1887
4309.842	1893
4311.361	1795
4312.882	1864
4314.401	1876
