400.0961	2815
402.6185	2905
405.1424	2817
407.6635	2842
410.1838	2822
412.7035	2898
415.2225	2949
417.7388	2807
420.2585	3067
422.7754	2986
425.2917	3040
427.8072	3002
430.3221	3036
432.8363	3069
435.3498	3025
437.8626	3111
440.3727	3060
442.8841	3008
445.3969	3073
447.907	3038
450.4142	3001
452.9229	3022
455.4289	3042
457.9362	2980
460.4449	3050
462.9488	2948
465.454	2965
467.9566	2980
470.4604	3034
472.9637	2955
475.4662	3020
477.966	3010
480.4671	3012
482.9656	3034
485.4633	3050
487.9645	3041
490.4608	2971
492.9566	3056
495.4536	3030
497.948	3063
500.4437	3022
502.9387	2983
505.431	3057
507.9226	3035
510.4136	3047
512.9079	3084
515.3975	3026
517.8864	3072
520.3746	3064
522.8622	3067
525.3491	3047
527.8394	3106
530.3249	3078
532.8098	3079
535.2939	3100
537.7774	3110
540.2623	3101
542.7444	3101
545.2259	3067
547.7067	3176
550.1868	3085
552.6683	3175
555.147	3109
557.6231	3086
560.1005	3141
562.5773	3109
565.0534	3195
567.5308	3189
570.0056	3219
572.4776	3183
574.951	3267
577.4237	3217
579.8978	3290
582.3671	3283
584.8378	3210
587.3079	3260
589.7773	3304
592.244	3293
594.714	3298
597.1793	3249
599.6461	3195
602.1121	3190
604.5754	3168
607.0421	3224
609.5042	3159
611.9675	3283
614.4282	3159
616.8902	3138
619.3515	3136
621.8122	3182
624.2702	3139
626.7296	3111
629.1863	3133
631.6423	3179
634.1017	3162
636.5563	3143
639.0104	3056
641.4658	3094
643.9185	3143
646.3725	3205
648.8239	3174
651.2766	3174
653.7266	3170
656.176	3179
658.6247	3231
661.0748	3183
663.5242	3121
665.9709	3198
668.417	3126
670.8624	3337
673.3092	3281
675.7533	3304
678.1968	3276
680.6395	3244
683.0817	3216
685.5251	3275
687.9659	3271
690.4061	3313
692.8456	3337
695.2844	3286
697.7226	3207
700.1621	3244
702.599	3300
705.0332	3266
707.4688	3240
709.9036	3293
712.3399	3289
714.7735	3372
717.2044	3371
719.6367	3395
722.0683	3271
724.4993	3316
726.9296	3344
729.3593	3412
731.7883	3394
734.2147	3408
736.6423	3397
739.0714	3337
741.4958	3363
743.9216	3480
746.3447	3455
748.7691	3455
751.1929	3386
753.616	3358
756.0366	3467
758.4584	3505
760.8776	3479
763.2982	3557
765.718	3467
768.1373	3480
770.5539	3479
772.9698	3449
775.3871	3456
777.8038	3547
780.2178	3594
782.6332	3538
785.0459	3476
787.458	3574
789.8714	3490
792.2842	3549
794.6943	3431
797.1038	3557
799.5127	3528
801.9209	3483
804.3324	3481
806.7393	3558
809.1456	3516
811.5513	3552
813.9562	3566
816.3625	3632
818.7663	3448
821.1693	3575
823.5718	3549
825.9735	3503
828.3746	3563
830.7771	3493
833.177	3568
835.5762	3547
837.9747	3563
840.3727	3598
842.772	3529
845.1666	3593
847.5626	3658
849.958	3690
852.3527	3756
854.7488	3654
857.1403	3651
859.5331	3673
861.9253	3675
864.3168	3651
866.7057	3633
869.098	3606
871.4876	3661
873.8746	3615
876.263	3681
878.6487	3653
881.0378	3621
883.4243	3677
885.8081	3704
888.1933	3647
890.5759	3653
892.9598	3574
895.343	3631
897.7256	3655
900.1057	3624
902.4871	3731
904.8659	3601
907.246	3711
909.6254	3689
912.0023	3748
914.3786	3764
916.7562	3846
919.1331	3786
921.5074	3861
923.8831	3875
926.2562	3863
928.6287	3822
931.0005	3830
933.3757	3886
935.7462	4006
938.1162	3922
940.4855	4039
942.8542	4036
945.2242	4112
947.5916	4193
949.9584	4436
952.3266	4598
954.6921	4692
957.0571	5108
959.4233	5348
961.787	5437
964.15	5266
966.5125	5302
968.8742	4878
971.2354	4634
973.5959	4400
975.9559	4117
978.3151	3931
980.6738	3912
983.0338	3870
985.3912	3799
987.7461	3781
990.1022	3769
992.4578	3867
994.8127	3867
997.1689	3740
999.5207	3820
1001.874	3988
1004.226	3854
1006.576	3812
1008.929	3763
1011.28	3877
1013.628	3828
1015.977	3857
1018.324	3777
1020.674	3798
1023.019	3762
1025.366	3821
1027.713	3855
1030.056	3913
1032.399	3938
1034.746	3924
1037.087	3948
1039.431	4029
1041.771	3931
1044.113	3901
1046.454	3925
1048.793	3948
1051.133	3937
1053.471	4020
1055.807	3905
1058.146	3955
1060.483	3857
1062.818	3980
1065.153	3963
1067.489	3958
1069.822	3995
1072.156	3991
1074.488	4077
1076.82	3995
1079.15	3912
1081.48	4027
1083.814	4013
1086.143	4023
1088.471	3963
1090.799	3896
1093.126	3899
1095.452	3922
1097.78	3883
1100.105	3853
1102.43	3901
1104.754	3817
1107.077	3815
1109.4	3909
1111.722	3813
1114.044	3851
1116.365	3837
1118.685	3817
1121.005	3894
1123.324	3940
1125.643	3984
1127.961	3867
1130.278	3832
1132.595	3778
1134.911	3786
1137.226	3933
1139.541	3833
1141.854	3806
1144.167	3778
1146.482	3791
1148.793	3771
1151.105	3811
1153.414	3812
1155.725	3914
1158.033	3851
1160.344	3895
1162.651	3870
1164.959	3851
1167.265	3905
1169.572	3851
1171.878	3837
1174.184	3947
1176.488	3908
1178.79	3891
1181.094	3986
1183.396	3842
1185.699	3876
1188.001	3866
1190.301	3812
1192.6	3899
1194.9	3784
1197.2	3841
1199.497	3857
1201.794	3900
1204.09	3883
1206.387	3943
1208.684	3931
1210.978	3947
1213.272	3888
1215.565	3853
1217.858	3888
1220.15	3935
1222.443	3873
1224.734	3910
1227.024	3942
1229.313	3961
1231.602	3965
1233.892	4021
1236.18	4066
1238.467	4063
1240.754	4061
1243.04	4078
1245.325	4029
1247.612	4117
1249.896	4104
1252.178	4119
1254.461	4060
1256.743	4171
1259.027	4093
1261.308	4046
1263.587	4107
1265.867	4126
1268.146	4168
1270.425	4137
1272.703	4035
1274.981	4103
1277.256	4145
1279.532	4117
1281.808	4088
1284.083	4074
1286.358	4072
1288.63	4037
1290.904	4010
1293.175	4007
1295.449	3976
1297.719	4054
1299.99	4029
1302.259	3992
1304.529	4040
1306.798	4033
1309.065	3978
1311.333	4042
1313.599	3999
1315.866	3964
1318.131	3949
1320.396	4022
1322.66	4024
1324.925	3997
1327.187	4013
1329.448	3983
1331.711	3962
1333.974	3952
1336.234	4064
1338.493	4042
1340.752	4010
1343.01	4046
1345.269	3996
1347.526	3994
1349.784	4048
1352.04	3911
1354.295	3969
1356.552	3967
1358.806	3979
1361.059	3941
1363.312	3959
1365.564	3894
1367.818	4037
1370.069	4017
1372.318	3990
1374.568	3981
1376.817	4081
1379.066	4039
1381.316	4020
1383.564	4035
1385.809	4034
1388.056	4078
1390.301	4053
1392.549	4144
1394.793	4235
1397.036	4094
1399.279	4105
1401.522	4202
1403.763	4213
1406.007	4175
1408.248	4137
1410.487	4151
1412.727	4146
1414.965	4151
1417.205	4133
1419.442	4169
1421.68	4142
1423.915	4210
1426.152	4124
1428.388	4125
1430.623	4173
1432.857	4195
1435.091	4149
1437.323	4214
1439.556	4269
1441.789	4153
1444.019	4278
1446.25	4329
1448.48	4230
1450.708	4243
1452.938	4256
1455.167	4246
1457.394	4318
1459.62	4302
1461.846	4283
1464.073	4375
1466.299	4221
1468.523	4155
1470.746	4123
1472.969	4212
1475.191	4147
1477.415	4132
1479.636	4077
1481.858	4145
1484.078	4118
1486.298	4090
1488.518	4034
1490.736	4085
1492.954	3911
1495.169	3986
1497.386	4094
1499.602	3941
1501.819	4005
1504.034	3983
1506.248	3931
1508.462	3887
1510.675	3993
1512.888	4092
1515.1	4076
1517.311	4001
1519.522	4053
1521.732	3958
1523.942	3997
1526.151	3968
1528.36	3924
1530.566	4077
1532.773	4032
1534.98	3996
1537.187	4028
1539.392	4043
1541.596	4037
1543.801	4122
1546.005	4070
1548.208	4091
1550.411	4104
1552.612	4132
1554.814	4064
1557.013	4071
1559.212	4039
1561.414	4069
1563.612	4021
1565.811	4076
1568.007	4115
1570.203	4128
1572.403	4115
1574.598	4047
1576.792	4131
1578.988	4184
1581.181	4131
1583.376	4139
1585.568	4107
1587.761	4112
1589.952	4127
1592.143	4228
1594.333	4161
1596.524	4105
1598.715	4129
1600.903	4128
1603.091	4179
1605.278	4167
1607.466	4139
1609.652	4098
1611.838	4130
1614.023	4210
1616.207	4157
1618.391	4201
1620.576	4170
1622.759	4259
1624.941	4201
1627.123	4197
1629.304	4243
1631.484	4246
1633.664	4249
1635.844	4227
1638.022	4255
1640.201	4220
1642.38	4266
1644.556	4311
1646.732	4281
1648.908	4249
1651.084	4182
1653.257	4247
1655.433	4297
1657.607	4261
1659.779	4285
1661.951	4363
1664.122	4354
1666.295	4408
1668.467	4345
1670.635	4317
1672.805	4419
1674.973	4354
1677.142	4277
1679.31	4314
1681.478	4370
1683.644	4349
1685.81	4327
1687.975	4294
1690.142	4307
1692.305	4237
1694.468	4275
1696.632	4205
1698.794	4168
1700.957	4130
1703.119	4174
1705.279	4232
1707.439	4242
1709.598	4163
1711.758	4155
1713.917	4200
1716.075	4150
1718.231	4174
1720.388	4140
1722.543	4136
1724.702	4166
1726.856	4134
1729.01	4144
1731.164	4096
1733.317	4027
1735.471	4073
1737.623	4137
1739.774	4080
1741.925	4187
1744.075	4151
1746.225	4076
1748.376	4089
1750.524	4111
1752.672	4160
1754.82	4125
1756.965	4206
1759.113	4175
1761.259	4129
1763.405	4159
1765.549	4162
1767.694	4155
1769.836	4189
1771.981	4125
1774.123	4150
1776.264	4160
1778.405	4145
1780.546	4127
1782.687	4082
1784.827	4270
1786.966	4175
1789.103	4195
1791.242	4107
1793.381	4207
1795.517	4205
1797.653	4203
1799.788	4227
1801.923	4215
1804.057	4142
1806.193	4187
1808.326	4164
1810.457	4098
1812.59	4160
1814.721	4251
1816.855	4219
1818.984	4201
1821.113	4118
1823.244	4136
1825.372	4184
1827.499	4151
1829.63	4173
1831.756	4135
1833.882	4224
1836.007	4198
1838.132	4123
1840.26	4114
1842.384	4153
1844.507	4122
1846.63	4206
1848.752	4176
1850.875	4169
1852.996	4156
1855.118	4133
1857.238	4112
1859.358	4165
1861.477	4164
1863.597	4121
1865.715	4130
1867.832	4138
1869.948	4108
1872.064	4112
1874.181	4189
1876.297	4099
1878.411	4141
1880.526	4105
1882.639	4192
1884.752	4178
1886.865	4165
1888.977	4209
1891.089	4172
1893.2	4191
1895.308	4149
1897.42	4143
1899.53	4222
1901.639	4158
1903.745	4100
1905.853	4219
1907.962	4185
1910.067	4183
1912.174	4151
1914.278	4260
1916.383	4226
1918.486	4149
1920.592	4262
1922.694	4153
1924.797	4189
1926.898	4303
1929	4287
1931.102	4310
1933.203	4195
1935.301	4157
1937.401	4207
1939.499	4222
1941.598	4253
1943.697	4198
1945.793	4267
1947.888	4228
1949.985	4173
1952.08	4142
1954.176	4179
1956.269	4212
1958.364	4229
1960.457	4241
1962.549	4256
1964.642	4209
1966.733	4267
1968.823	4181
1970.913	4200
1973.005	4236
1975.093	4220
1977.184	4136
1979.271	4191
1981.359	4166
1983.446	4194
1985.532	4218
1987.619	4160
1989.705	4129
1991.789	4245
1993.874	4191
1995.956	4167
1998.041	4144
2000.123	4292
2002.206	4205
2004.287	4286
2006.368	4228
2008.449	4149
2010.529	4115
2012.609	4182
2014.688	4193
2016.766	4161
2018.843	4168
2020.922	4219
2022.999	4153
2025.074	4202
2027.15	4244
2029.225	4190
2031.299	4157
2033.375	4174
2035.447	4139
2037.52	4120
2039.592	4196
2041.664	4267
2043.736	4174
2045.807	4195
2047.876	4099
2049.947	4105
2052.015	4206
2054.086	4191
2056.153	4162
2058.221	4166
2060.288	4170
2062.353	4134
2064.42	4222
2066.486	4197
2068.55	4279
2070.614	4225
2072.678	4286
2074.741	4252
2076.805	4104
2078.866	4116
2080.929	4252
2082.99	4128
2085.049	4202
2087.109	4174
2089.17	4258
2091.228	4226
2093.286	4179
2095.344	4187
2097.4	4210
2099.46	4166
2101.516	4197
2103.572	4171
2105.626	4195
2107.679	4202
2109.735	4131
2111.788	4228
2113.841	4144
2115.894	4188
2117.945	4298
2119.997	4210
2122.049	4193
2124.1	4261
2126.148	4185
2128.197	4209
2130.246	4218
2132.296	4214
2134.342	4126
2136.39	4213
2138.437	4148
2140.483	4185
2142.527	4178
2144.574	4191
2146.619	4193
2148.661	4212
2150.705	4078
2152.747	4188
2154.792	4187
2156.832	4092
2158.874	4197
2160.915	4101
2162.954	4183
2164.995	4078
2167.034	4216
2169.072	4091
2171.111	4144
2173.148	4098
2175.186	4140
2177.223	4146
2179.258	4101
2181.294	4203
2183.328	4131
2185.362	4127
2187.398	4103
2189.431	4061
2191.463	4068
2193.495	4044
2195.528	4102
2197.56	4093
2199.59	4140
2201.62	4033
2203.649	4192
2205.678	4102
2207.708	4141
2209.737	4092
2211.764	4160
2213.791	4157
2215.817	4122
2217.843	4110
2219.87	3981
2221.895	4095
2223.919	3983
2225.942	4143
2227.966	4134
2229.988	4058
2232.012	4071
2234.032	4152
2236.054	4109
2238.074	3946
2240.095	4112
2242.116	4134
2244.135	4061
2246.153	4084
2248.171	4135
2250.188	4072
2252.208	3977
2254.223	4082
2256.239	4106
2258.255	4148
2260.269	4153
2262.283	4158
2264.3	4087
2266.312	4170
2268.325	4079
2270.336	4172
2272.349	4072
2274.362	4039
2276.372	4137
2278.383	3979
2280.392	4130
2282.402	4137
2284.409	4053
2286.418	4057
2288.427	4168
2290.433	4084
2292.441	4099
2294.446	4051
2296.453	4025
2298.459	4129
2300.463	4075
2302.466	4037
2304.471	4147
2306.475	4063
2308.477	4080
2310.478	4065
2312.481	4164
2314.481	3979
2316.481	4139
2318.482	4031
2320.482	4035
2322.48	4048
2324.48	4116
2326.478	4134
2328.476	4049
2330.473	4047
2332.469	4063
2334.465	4023
2336.46	4063
2338.454	4046
2340.45	4051
2342.444	4070
2344.437	3866
2346.43	4062
2348.421	4105
2350.414	4107
2352.405	4074
2354.396	4068
2356.386	3995
2358.376	3979
2360.366	4027
2362.355	3924
2364.343	4030
2366.331	4046
2368.317	4060
2370.304	4046
2372.292	4005
2374.278	3996
2376.262	4038
2378.247	3966
2380.23	3892
2382.216	4024
2384.199	3952
2386.181	3918
2388.163	3987
2390.144	3979
2392.127	4015
2394.107	4085
2396.087	3952
2398.066	4019
2400.046	3974
2402.023	3952
2404.004	3965
2405.981	4052
2407.957	3933
2409.934	3914
2411.91	3911
2413.886	3941
2415.862	3980
2417.836	3930
2419.809	3930
2421.784	3954
2423.756	3906
2425.73	4028
2427.701	3979
2429.672	3990
2431.644	3918
2433.615	3973
2435.586	3853
2437.555	4024
2439.523	3988
2441.491	4002
2443.459	3959
2445.428	3964
2447.395	3957
2449.361	4039
2451.327	3886
2453.292	3966
2455.257	4014
2457.223	3929
2459.187	3992
2461.15	3951
2463.113	3909
2465.076	4017
2467.039	3912
2468.999	3958
2470.96	3893
2472.921	3977
2474.881	3965
2476.841	3940
2478.8	3925
2480.759	3983
2482.717	3901
2484.675	3960
2486.63	3852
2488.589	3941
2490.545	3905
2492.5	3890
2494.455	3928
2496.408	3878
2498.364	3944
2500.318	3921
2502.27	3848
2504.223	3811
2506.174	3849
2508.126	3898
2510.078	3830
2512.03	3878
2513.979	3888
2515.927	3834
2517.877	3949
2519.826	3832
2521.775	4020
2523.722	3926
2525.668	3878
2527.616	3823
2529.561	3925
2531.508	3858
2533.452	3877
2535.398	3933
2537.342	3858
2539.284	3895
2541.229	3849
2543.173	3933
2545.114	3832
2547.055	3936
2548.996	3812
2550.938	3894
2552.878	3878
2554.817	3907
2556.756	3806
2558.695	3989
2560.633	3911
2562.572	3837
2564.509	3889
2566.445	3840
2568.382	3878
2570.317	4009
2572.254	3874
2574.189	3914
2576.123	3857
2578.057	3938
2579.99	3800
2581.923	3926
2583.855	3901
2585.788	3933
2587.719	3988
2589.65	3916
2591.579	3843
2593.511	3964
2595.44	3863
2597.37	3911
2599.297	3900
2601.225	3857
2603.153	3881
2605.08	3960
2607.007	3914
2608.932	3974
2610.858	3860
2612.782	3931
2614.709	3898
2616.632	3841
2618.556	3902
2620.478	3968
2622.401	3926
2624.324	3884
2626.247	3922
2628.167	3970
2630.088	3892
2632.008	3901
2633.928	3833
2635.848	3959
2637.766	3872
2639.684	3830
2641.603	3963
2643.519	3853
2645.437	3910
2647.353	3891
2649.27	3836
2651.184	3869
2653.099	3901
2655.014	3893
2656.928	3857
2658.842	3901
2660.755	3925
2662.667	3883
2664.579	3916
2666.491	3838
2668.402	4023
2670.312	3892
2672.222	3875
2674.132	3863
2676.042	3889
2677.951	3897
2679.859	3875
2681.766	3802
2683.674	3920
2685.582	3875
2687.488	3905
2689.392	3921
2691.298	3938
2693.202	3927
2695.107	3913
2697.012	3871
2698.914	3896
2700.817	3802
2702.72	3867
2704.622	3847
2706.524	3824
2708.425	3906
2710.326	3861
2712.225	3856
2714.125	3879
2716.024	3777
2717.923	3852
2719.822	3806
2721.719	3856
2723.616	3880
2725.512	3861
2727.41	3900
2729.305	3804
2731.201	3827
2733.095	3820
2734.99	3818
2736.884	3844
2738.778	3931
2740.67	3861
2742.562	3761
2744.455	3816
2746.346	3786
2748.238	3798
2750.129	3845
2752.018	3727
2753.907	3853
2755.797	3823
2757.687	3860
2759.575	3863
2761.462	3857
2763.349	3796
2765.237	3779
2767.124	3776
2769.009	3668
2770.894	3834
2772.779	3798
2774.663	3743
2776.547	3806
2778.431	3790
2780.314	3731
2782.197	3798
2784.078	3794
2785.96	3670
2787.842	3792
2789.723	3776
2791.603	3850
2793.483	3779
2795.362	3797
2797.241	3715
2799.121	3835
2800.997	3826
2802.874	3758
2804.751	3721
2806.628	3809
2808.506	3757
2810.38	3727
2812.255	3826
2814.13	3786
2816.003	3833
2817.878	3787
2819.752	3813
2821.623	3827
2823.496	3719
2825.368	3839
2827.238	3780
2829.111	3828
2830.98	3746
2832.851	3827
2834.719	3794
2836.589	3778
2838.458	3856
2840.327	3826
2842.193	3764
2844.061	3860
2845.927	3904
2847.794	3743
2849.66	3834
2851.525	3882
2853.39	3883
2855.254	3866
2857.117	3855
2858.983	3882
2860.845	3869
2862.707	3854
2864.569	3980
2866.431	3980
2868.293	3960
2870.154	4000
2872.013	4141
2873.873	4054
2875.733	4188
2877.592	4143
2879.451	4310
2881.309	4285
2883.166	4285
2885.022	4372
2886.879	4353
2888.736	4399
2890.591	4337
2892.446	4327
2894.301	4316
2896.155	4304
2898.009	4268
2899.863	4277
2901.716	4283
2903.568	4333
2905.419	4297
2907.27	4318
2909.123	4334
2910.973	4392
2912.824	4348
2914.673	4438
2916.521	4417
2918.372	4542
2920.22	4598
2922.067	4668
2923.914	4536
2925.761	4691
2927.607	4685
2929.455	4713
2931.301	4839
2933.144	4847
2934.99	4979
2936.833	5047
2938.678	4989
2940.522	5003
2942.364	5161
2944.207	5161
2946.048	5075
2947.891	5236
2949.731	5176
2951.571	5119
2953.412	5076
2955.25	5087
2957.09	4983
2958.93	4989
2960.767	4941
2962.606	4869
2964.443	4778
2966.279	4808
2968.116	4643
2969.953	4640
2971.788	4558
2973.623	4613
2975.457	4501
2977.292	4549
2979.127	4493
2980.959	4514
2982.792	4398
2984.624	4351
2986.455	4361
2988.288	4538
2990.119	4326
2991.949	4413
2993.779	4349
2995.608	4213
2997.439	4236
2999.268	4290
3001.096	4153
3002.923	4117
3004.751	4074
3006.578	4053
3008.406	4102
3010.232	3928
3012.057	4063
3013.883	3897
3015.706	3945
3017.532	3898
3019.356	3764
3021.179	3803
3023.002	3805
3024.823	3835
3026.646	3800
3028.469	3717
3030.289	3728
3032.11	3792
3033.93	3639
3035.749	3624
3037.57	3673
3039.39	3722
3041.207	3709
3043.026	3620
3044.842	3738
3046.661	3642
3048.477	3711
3050.294	3658
3052.109	3672
3053.925	3591
3055.739	3680
3057.555	3713
3059.368	3680
3061.181	3614
3062.995	3552
3064.807	3662
3066.62	3677
3068.433	3601
3070.243	3701
3072.054	3594
3073.865	3616
3075.675	3594
3077.485	3642
3079.293	3619
3081.102	3593
3082.911	3609
3084.719	3536
3086.527	3665
3088.333	3564
3090.139	3519
3091.945	3622
3093.75	3558
3095.557	3605
3097.361	3555
3099.165	3584
3100.969	3457
3102.772	3507
3104.575	3497
3106.379	3519
3108.181	3541
3109.982	3606
3111.783	3545
3113.584	3522
3115.386	3579
3117.186	3516
3118.985	3529
3120.783	3554
3122.582	3569
3124.381	3567
3126.179	3498
3127.975	3551
3129.772	3531
3131.569	3583
3133.365	3537
3135.161	3419
3136.956	3500
3138.751	3509
3140.544	3441
3142.338	3498
3144.132	3497
3145.925	3514
3147.717	3446
3149.509	3509
3151.301	3437
3153.091	3465
3154.884	3501
3156.673	3485
3158.462	3512
3160.252	3517
3162.041	3478
3163.831	3450
3165.618	3377
3167.405	3477
3169.193	3462
3170.979	3454
3172.767	3458
3174.553	3406
3176.338	3405
3178.123	3434
3179.907	3510
3181.692	3393
3183.477	3477
3185.259	3467
3187.042	3451
3188.824	3338
3190.607	3471
3192.389	3446
3194.17	3370
3195.951	3396
3197.73	3460
3199.51	3449
3201.289	3473
3203.07	3421
3204.848	3510
3206.626	3403
3208.403	3483
3210.18	3399
3211.959	3372
3213.735	3441
3215.511	3431
3217.285	3456
3219.06	3456
3220.836	3485
3222.611	3431
3224.384	3465
3226.158	3454
3227.929	3483
3229.702	3455
3231.476	3520
3233.248	3411
3235.018	3476
3236.789	3531
3238.56	3406
3240.33	3443
3242.1	3474
3243.869	3357
3245.637	3451
3247.405	3428
3249.172	3547
3250.941	3433
3252.707	3523
3254.474	3415
3256.24	3423
3258.006	3428
3259.772	3469
3261.537	3435
3263.301	3517
3265.065	3429
3266.828	3425
3268.592	3398
3270.355	3514
3272.117	3518
3273.878	3464
3275.64	3461
3277.401	3458
3279.162	3480
3280.922	3462
3282.682	3492
3284.441	3533
3286.199	3502
3287.959	3495
3289.716	3446
3291.475	3520
3293.232	3486
3294.988	3498
3296.744	3486
3298.501	3558
3300.256	3448
3302.011	3525
3303.766	3545
3305.52	3502
3307.275	3444
3309.028	3571
3310.781	3493
3312.533	3446
3314.285	3583
3316.038	3500
3317.789	3509
3319.54	3439
3321.289	3491
3323.039	3491
3324.789	3473
3326.539	3496
3328.288	3460
3330.035	3500
3331.783	3437
3333.531	3412
3335.28	3470
3337.025	3454
3338.771	3420
3340.518	3474
3342.262	3459
3344.009	3518
3345.753	3572
3347.497	3557
3349.24	3377
3350.983	3592
3352.726	3371
3354.469	3436
3356.212	3437
3357.952	3442
3359.694	3421
3361.434	3461
3363.176	3407
3364.916	3392
3366.654	3424
3368.394	3353
3370.132	3435
3371.871	3388
3373.61	3437
3375.346	3328
3377.083	3374
3378.82	3354
3380.556	3406
3382.292	3396
3384.027	3346
3385.763	3369
3387.497	3314
3389.231	3322
3390.965	3373
3392.698	3391
3394.431	3293
3396.164	3312
3397.896	3361
3399.627	3313
3401.36	3291
3403.09	3278
3404.82	3339
3406.55	3259
3408.279	3330
3410.01	3258
3411.738	3303
3413.467	3267
3415.194	3342
3416.92	3360
3418.647	3357
3420.375	3271
3422.102	3329
3423.827	3339
3425.553	3330
3427.277	3282
3429.003	3312
3430.727	3319
3432.451	3297
3434.173	3276
3435.896	3284
3437.62	3273
3439.343	3219
3441.063	3312
3442.785	3297
3444.505	3296
3446.226	3207
3447.948	3253
3449.666	3232
3451.386	3253
3453.104	3163
3454.823	3196
3456.541	3224
3458.259	3267
3459.976	3125
3461.693	3185
3463.408	3256
3465.125	3286
3466.841	3225
3468.556	3195
3470.271	3164
3471.985	3190
3473.698	3113
3475.414	3183
3477.126	3151
3478.838	3138
3480.55	3094
3482.263	3073
3483.975	3111
3485.686	3102
3487.396	3162
3489.106	3132
3490.817	3151
3492.526	3169
3494.236	3154
3495.944	3155
3497.652	3112
3499.359	3133
3501.066	3068
3502.775	3096
3504.481	3096
3506.187	3116
3507.893	3078
3509.598	3023
3511.304	3034
3513.009	3117
3514.713	3107
3516.417	3075
3518.12	3094
3519.821	2995
3521.525	3062
3523.228	3064
3524.929	3013
3526.631	2999
3528.33	3040
3530.032	3033
3531.733	3033
3533.433	3111
3535.131	3045
3536.83	3007
3538.529	2981
3540.227	2995
3541.925	3028
3543.623	2997
3545.319	3068
3547.016	3020
3548.712	2962
3550.408	2971
3552.103	2888
3553.798	2999
3555.491	2982
3557.188	2914
3558.88	2972
3560.574	2832
3562.266	2988
3563.959	2892
3565.651	2950
3567.343	2912
3569.035	2944
3570.725	2974
3572.415	2938
3574.106	2967
3575.797	2931
3577.485	2966
3579.174	2955
3580.863	2965
3582.551	3002
3584.238	2918
3585.926	2898
3587.613	2939
3589.3	2931
3590.986	2942
3592.671	2889
3594.357	2869
3596.042	2885
3597.726	2791
3599.41	2877
3601.094	2916
3602.778	2809
3604.461	2854
3606.143	2812
3607.825	2832
3609.507	2810
3611.188	2777
3612.87	2828
3614.551	2833
3616.229	2764
3617.909	2823
3619.589	2758
3621.269	2702
3622.948	2830
3624.625	2816
3626.302	2798
3627.98	2741
3629.657	2712
3631.334	2712
3633.01	2755
3634.686	2780
3636.361	2698
3638.036	2731
3639.712	2721
3641.385	2691
3643.06	2829
3644.732	2708
3646.405	2672
3648.08	2715
3649.751	2724
3651.424	2690
3653.094	2804
3654.766	2703
3656.436	2690
3658.106	2665
3659.777	2730
3661.446	2668
3663.115	2750
3664.783	2687
3666.452	2770
3668.121	2664
3669.788	2678
3671.454	2717
3673.121	2657
3674.789	2666
3676.455	2654
3678.12	2651
3679.784	2655
3681.45	2651
3683.114	2652
3684.779	2602
3686.442	2598
3688.105	2657
3689.768	2617
3691.43	2675
3693.093	2604
3694.754	2630
3696.415	2617
3698.076	2626
3699.736	2666
3701.396	2645
3703.057	2557
3704.716	2614
3706.375	2673
3708.034	2669
3709.692	2618
3711.351	2586
3713.008	2652
3714.665	2579
3716.321	2616
3717.977	2667
3719.634	2567
3721.29	2555
3722.945	2558
3724.598	2588
3726.253	2563
3727.907	2581
3729.561	2592
3731.214	2633
3732.867	2554
3734.518	2598
3736.171	2592
3737.824	2553
3739.474	2564
3741.125	2519
3742.775	2557
3744.425	2572
3746.074	2547
3747.725	2547
3749.373	2602
3751.022	2575
3752.669	2522
3754.318	2583
3755.966	2567
3757.612	2571
3759.259	2518
3760.905	2496
3762.55	2581
3764.197	2575
3765.842	2490
3767.486	2544
3769.131	2498
3770.774	2527
3772.417	2552
3774.061	2595
3775.705	2524
3777.347	2535
3778.988	2494
3780.629	2510
3782.271	2481
3783.912	2553
3785.552	2503
3787.192	2484
3788.831	2494
3790.472	2514
3792.112	2536
3793.75	2487
3795.388	2543
3797.024	2523
3798.661	2470
3800.3	2429
3801.936	2484
3803.572	2501
3805.208	2488
3806.844	2543
3808.48	2495
3810.115	2514
3811.748	2450
3813.382	2484
3815.016	2482
3816.649	2477
3818.283	2524
3819.914	2487
3821.547	2447
3823.178	2456
3824.809	2474
3826.441	2481
3828.072	2472
3829.701	2478
3831.331	2468
3832.96	2468
3834.591	2419
3836.219	2397
3837.847	2453
3839.475	2450
3841.102	2511
3842.729	2403
3844.357	2465
3845.984	2429
3847.609	2425
3849.234	2458
3850.86	2447
3852.485	2430
3854.11	2387
3855.734	2411
3857.357	2407
3858.981	2440
3860.603	2369
3862.227	2395
3863.848	2427
3865.471	2397
3867.092	2382
3868.713	2430
3870.334	2469
3871.954	2380
3873.575	2375
3875.194	2365
3876.813	2384
3878.433	2392
3880.051	2409
3881.669	2380
3883.286	2421
3884.904	2347
3886.52	2428
3888.138	2363
3889.754	2430
3891.37	2432
3892.985	2353
3894.6	2381
3896.216	2310
3897.831	2352
3899.444	2418
3901.058	2394
3902.67	2353
3904.283	2361
3905.897	2385
3907.509	2369
3909.121	2383
3910.731	2404
3912.342	2449
3913.954	2360
3915.563	2349
3917.174	2313
3918.783	2320
3920.391	2370
3922.002	2315
3923.611	2354
3925.218	2332
3926.826	2362
3928.432	2387
3930.039	2355
3931.647	2364
3933.253	2385
3934.859	2328
3936.464	2345
3938.068	2328
3939.675	2391
3941.278	2332
3942.883	2355
3944.486	2332
3946.089	2347
3947.692	2309
3949.295	2246
3950.898	2317
3952.499	2339
3954.1	2334
3955.7	2299
3957.303	2292
3958.903	2319
3960.502	2312
3962.101	2311
3963.7	2294
3965.301	2286
3966.899	2316
3968.497	2307
3970.094	2294
3971.691	2285
3973.288	2285
3974.885	2278
3976.481	2249
3978.077	2278
3979.672	2277
3981.267	2292
3982.863	2284
3984.457	2285
3986.051	2324
3987.645	2267
3989.238	2310
3990.831	2279
3992.425	2246
3994.017	2263
3995.607	2289
3997.199	2268
3998.79	2268
4000.382	2227
4001.973	2239
4003.561	2218
4005.151	2204
4006.741	2220
4008.331	2227
4009.918	2239
4011.507	2301
4013.095	2326
4014.681	2245
4016.269	2209
4017.856	2237
4019.443	2238
4021.028	2211
4022.614	2264
4024.199	2205
4025.785	2243
4027.37	2291
4028.953	2283
4030.536	2227
4032.12	2199
4033.704	2181
4035.287	2212
4036.869	2186
4038.45	2223
4040.032	2189
4041.613	2186
4043.195	2189
4044.776	2220
4046.356	2202
4047.935	2163
4049.515	2180
4051.095	2153
4052.674	2160
4054.251	2134
4055.829	2169
4057.406	2236
4058.985	2199
4060.562	2098
4062.139	2106
4063.715	2208
4065.29	2173
4066.865	2158
4068.442	2150
4070.016	2138
4071.59	2144
4073.164	2169
4074.738	2137
4076.312	2130
4077.885	2130
4079.458	2126
4081.03	2110
4082.602	2163
4084.173	2123
4085.745	2119
4087.315	2159
4088.886	2119
4090.456	2165
4092.026	2145
4093.596	2142
4095.165	2163
4096.734	2161
4098.301	2127
4099.869	2118
4101.437	2140
4103.006	2133
4104.572	2064
4106.139	2109
4107.704	2107
4109.27	2063
4110.837	2067
4112.401	2135
4113.966	2120
4115.53	2168
4117.094	2106
4118.659	2116
4120.223	2097
4121.785	2075
4123.347	2116
4124.909	2126
4126.471	2058
4128.034	2093
4129.595	2128
4131.155	2084
4132.716	2063
4134.275	2115
4135.836	2103
4137.395	2064
4138.955	2081
4140.513	2073
4142.071	2045
4143.628	1958
4145.188	2057
4146.745	2033
4148.302	2059
4149.858	2032
4151.414	2095
4152.971	1997
4154.526	2031
4156.081	2042
4157.635	2005
4159.189	1986
4160.745	2066
4162.298	2037
4163.852	2033
4165.405	2008
4166.957	2027
4168.51	2040
4170.063	2027
4171.614	2014
4173.166	2006
4174.717	2010
4176.267	2065
4177.817	2033
4179.368	1968
4180.917	1961
4182.466	2003
4184.016	1951
4185.564	2009
4187.112	2045
4188.66	1993
4190.207	1987
4191.754	1997
4193.301	2024
4194.848	2045
4196.394	1985
4197.94	2004
4199.484	1981
4201.03	2027
4202.575	1946
4204.12	1973
4205.663	1988
4207.207	1983
4208.75	1954
4210.292	2047
4211.836	2028
4213.378	1923
4214.92	2024
4216.46	1977
4218.002	1976
4219.544	1973
4221.083	1996
4222.625	1987
4224.164	1956
4225.703	1948
4227.244	2014
4228.782	1970
4230.32	1946
4231.857	1969
4233.395	1927
4234.933	1946
4236.471	1951
4238.007	1952
4239.542	1977
4241.078	1949
4242.614	1916
4244.15	1972
4245.685	1897
4247.219	1968
4248.753	1963
4250.287	1900
4251.82	1935
4253.354	1943
4254.887	1898
4256.419	1902
4257.951	1862
4259.483	1934
4261.016	2026
4262.547	1890
4264.078	1992
4265.608	1912
4267.137	1934
4268.668	1888
4270.197	1943
4271.727	1892
4273.254	1963
4274.783	1934
4276.311	1956
4277.84	1913
4279.366	1946
4280.894	2001
4282.42	1903
4283.946	1914
4285.473	1875
4286.998	1899
4288.523	1862
4290.047	1857
4291.572	1891
4293.096	1843
4294.622	1856
4296.144	1897
4297.668	1882
4299.19	1859
4300.713	1897
4302.236	1826
4303.758	1898
4305.279	1897
4306.799	1894
4308.321	1849
4309.842	1893
4311.361	1916
4312.882	1826
4314.401	1890
