400.0961	2419
402.6185	2467
405.1424	2458
407.6635	2374
410.1838	2375
412.7035	2478
415.2225	2434
417.7388	2460
420.2585	2504
422.7754	2514
425.2917	2490
427.8072	2579
430.3221	2595
432.8363	2578
435.3498	2611
437.8626	2607
440.3727	2589
442.8841	2522
445.3969	2543
447.907	2530
450.4142	2614
452.9229	2534
455.4289	2581
457.9362	2517
460.4449	2536
462.9488	2525
465.454	2529
467.9566	2582
470.4604	2540
472.9637	2450
475.4662	2557
477.966	2534
480.4671	2528
482.9656	2548
485.4633	2501
487.9645	2537
490.4608	2552
492.9566	2520
495.4536	2536
497.948	2581
500.4437	2587
502.9387	2541
505.431	2576
507.9226	2511
510.4136	2555
512.9079	2528
515.3975	2593
517.8864	2542
520.3746	2563
522.8622	2588
525.3491	2612
527.8394	2659
530.3249	2593
532.8098	2649
535.2939	2617
537.7774	2632
540.2623	2561
542.7444	2589
545.2259	2526
547.7067	2568
550.1868	2627
552.6683	2615
555.147	2640
557.6231	2592
560.1005	2564
562.5773	2621
565.0534	2571
567.5308	2725
570.0056	2639
572.4776	2688
574.951	2672
577.4237	2772
579.8978	2718
582.3671	2686
584.8378	2760
587.3079	2773
589.7773	2743
592.244	2771
594.714	2661
597.1793	2759
599.6461	2661
602.1121	2758
604.5754	2699
607.0421	2674
609.5042	2680
611.9675	2715
614.4282	2679
616.8902	2668
619.3515	2716
621.8122	2676
624.2702	2698
626.7296	2703
629.1863	2685
631.6423	2630
634.1017	2685
636.5563	2619
639.0104	2644
641.4658	2637
643.9185	2655
646.3725	2658
648.8239	2680
651.2766	2631
653.7266	2672
656.176	2693
658.6247	2678
661.0748	2705
663.5242	2701
665.9709	2732
668.417	2727
670.8624	2705
673.3092	2684
675.7533	2722
678.1968	2682
680.6395	2770
683.0817	2754
685.5251	2767
687.9659	2682
690.4061	2782
692.8456	2729
695.2844	2731
697.7226	2752
700.1621	2754
702.599	2731
705.0332	2763
707.4688	2775
709.9036	2747
712.3399	2764
714.7735	2757
717.2044	2899
719.6367	2880
722.0683	2741
724.4993	2754
726.9296	2757
729.3593	2780
731.7883	2811
734.2147	2782
736.6423	2772
739.0714	2919
741.4958	2885
743.9216	2869
746.3447	2858
748.7691	2824
751.1929	2886
753.616	2848
756.0366	2941
758.4584	2918
760.8776	2815
763.2982	2926
765.718	2842
768.1373	2932
770.5539	2887
772.9698	2959
775.3871	2984
777.8038	2904
780.2178	2991
782.6332	2975
785.0459	2940
787.458	2939
789.8714	2888
792.2842	2906
794.6943	2952
797.1038	2918
799.5127	2916
801.9209	2882
804.3324	2980
806.7393	2910
809.1456	2960
811.5513	2957
813.9562	2971
816.3625	3026
818.7663	2943
821.1693	2959
823.5718	2861
825.9735	2984
828.3746	3039
830.7771	3028
833.177	2939
835.5762	2910
837.9747	3054
840.3727	2984
842.772	2990
845.1666	3025
847.5626	3072
849.958	3028
852.3527	3093
854.7488	3115
857.1403	3106
859.5331	3043
861.9253	3021
864.3168	3105
866.7057	3005
869.098	3090
871.4876	3039
873.8746	3076
876.263	3100
878.6487	3103
881.0378	2971
883.4243	3120
885.8081	3029
888.1933	3057
890.5759	3023
892.9598	3053
895.343	3016
897.7256	3057
900.1057	3030
902.4871	2993
904.8659	3077
907.246	3045
909.6254	3167
912.0023	3076
914.3786	3058
916.7562	3218
919.1331	3173
921.5074	3249
923.8831	3229
926.2562	3288
928.6287	3269
931.0005	3209
933.3757	3260
935.7462	3349
938.1162	3272
940.4855	3433
942.8542	3373
945.2242	3412
947.5916	3476
949.9584	3650
952.3266	3814
954.6921	3839
957.0571	4176
959.4233	4451
961.787	4440
964.15	4316
966.5125	4277
968.8742	3983
971.2354	3774
973.5959	3650
975.9559	3373
978.3151	3305
980.6738	3349
983.0338	3227
985.3912	3245
987.7461	3129
990.1022	3132
992.4578	3067
994.8127	3148
997.1689	3206
999.5207	3149
1001.874	3233
1004.226	3137
1006.576	3230
1008.929	3194
1011.28	3147
1013.628	3233
1015.977	3189
1018.324	3173
1020.674	3189
1023.019	3145
1025.366	3307
1027.713	3191
1030.056	3301
1032.399	3255
1034.746	3159
1037.087	3217
1039.431	3275
1041.771	3183
1044.113	3293
1046.454	3297
1048.793	3318
1051.133	3328
1053.471	3315
1055.807	3333
1058.146	3270
1060.483	3313
1062.818	3271
1065.153	3377
1067.489	3364
1069.822	3384
1072.156	3390
1074.488	3369
1076.82	3348
1079.15	3340
1081.48	3401
1083.814	3300
1086.143	3295
1088.471	3252
1090.799	3209
1093.126	3229
1095.452	3233
1097.78	3233
1100.105	3271
1102.43	3299
1104.754	3208
1107.077	3197
1109.4	3265
1111.722	3266
1114.044	3266
1116.365	3317
1118.685	3283
1121.005	3254
1123.324	3241
1125.643	3255
1127.961	3266
1130.278	3260
1132.595	3184
1134.911	3283
1137.226	3293
1139.541	3189
1141.854	3252
1144.167	3264
1146.482	3296
1148.793	3159
1151.105	3303
1153.414	3207
1155.725	3231
1158.033	3255
1160.344	3287
1162.651	3250
1164.959	3241
1167.265	3183
1169.572	3281
1171.878	3285
1174.184	3253
1176.488	3277
1178.79	3227
1181.094	3293
1183.396	3286
1185.699	3230
1188.001	3275
1190.301	3289
1192.6	3218
1194.9	3251
1197.2	3233
1199.497	3179
1201.794	3257
1204.09	3180
1206.387	3305
1208.684	3304
1210.978	3276
1213.272	3265
1215.565	3221
1217.858	3277
1220.15	3301
1222.443	3342
1224.734	3305
1227.024	3268
1229.313	3326
1231.602	3322
1233.892	3414
1236.18	3383
1238.467	3340
1240.754	3362
1243.04	3398
1245.325	3413
1247.612	3450
1249.896	3439
1252.178	3442
1254.461	3472
1256.743	3459
1259.027	3423
1261.308	3478
1263.587	3437
1265.867	3467
1268.146	3431
1270.425	3471
1272.703	3520
1274.981	3521
1277.256	3440
1279.532	3472
1281.808	3467
1284.083	3351
1286.358	3478
1288.63	3451
1290.904	3398
1293.175	3351
1295.449	3387
1297.719	3394
1299.99	3315
1302.259	3399
1304.529	3400
1306.798	3349
1309.065	3339
1311.333	3324
1313.599	3375
1315.866	3338
1318.131	3380
1320.396	3327
1322.66	3348
1324.925	3386
1327.187	3323
1329.448	3362
1331.711	3350
1333.974	3425
1336.234	3433
1338.493	3354
1340.752	3373
1343.01	3351
1345.269	3382
1347.526	3421
1349.784	3412
1352.04	3388
1354.295	3426
1356.552	3407
1358.806	3395
1361.059	3362
1363.312	3414
1365.564	3360
1367.818	3366
1370.069	3298
1372.318	3431
1374.568	3394
1376.817	3489
1379.066	3331
1381.316	3434
1383.564	3509
1385.809	3427
1388.056	3467
1390.301	3450
1392.549	3417
1394.793	3499
1397.036	3544
1399.279	3569
1401.522	3472
1403.763	3542
1406.007	3516
1408.248	3449
1410.487	3513
1412.727	3485
1414.965	3470
1417.205	3456
1419.442	3510
1421.68	3515
1423.915	3477
1426.152	3495
1428.388	3562
1430.623	3470
1432.857	3437
1435.091	3510
1437.323	3469
1439.556	3628
1441.789	3626
1444.019	3568
1446.25	3604
1448.48	3583
1450.708	3523
1452.938	3531
1455.167	3623
1457.394	3640
1459.62	3575
1461.846	3649
1464.073	3584
1466.299	3527
1468.523	3490
1470.746	3559
1472.969	3475
1475.191	3516
1477.415	3526
1479.636	3512
1481.858	3434
1484.078	3430
1486.298	3393
1488.518	3430
1490.736	3384
1492.954	3471
1495.169	3420
1497.386	3401
1499.602	3393
1501.819	3401
1504.034	3386
1506.248	3380
1508.462	3375
1510.675	3435
1512.888	3358
1515.1	3339
1517.311	3433
1519.522	3406
1521.732	3431
1523.942	3390
1526.151	3387
1528.36	3412
1530.566	3410
1532.773	3432
1534.98	3392
1537.187	3370
1539.392	3322
1541.596	3338
1543.801	3409
1546.005	3408
1548.208	3345
1550.411	3476
1552.612	3353
1554.814	3444
1557.013	3449
1559.212	3532
1561.414	3464
1563.612	3419
1565.811	3388
1568.007	3419
1570.203	3482
1572.403	3483
1574.598	3449
1576.792	3460
1578.988	3439
1581.181	3529
1583.376	3506
1585.568	3499
1587.761	3493
1589.952	3465
1592.143	3469
1594.333	3583
1596.524	3511
1598.715	3466
1600.903	3533
1603.091	3431
1605.278	3560
1607.466	3591
1609.652	3502
1611.838	3484
1614.023	3545
1616.207	3546
1618.391	3575
1620.576	3610
1622.759	3615
1624.941	3593
1627.123	3623
1629.304	3546
1631.484	3535
1633.664	3600
1635.844	3662
1638.022	3606
1640.201	3551
1642.38	3599
1644.556	3588
1646.732	3532
1648.908	3572
1651.084	3558
1653.257	3615
1655.433	3586
1657.607	3581
1659.779	3683
1661.951	3562
1664.122	3655
1666.295	3597
1668.467	3637
1670.635	3686
1672.805	3645
1674.973	3633
1677.142	3694
1679.31	3699
1681.478	3642
1683.644	3655
1685.81	3605
1687.975	3623
1690.142	3644
1692.305	3609
1694.468	3645
1696.632	3601
1698.794	3543
1700.957	3482
1703.119	3603
1705.279	3514
1707.439	3542
1709.598	3523
1711.758	3497
1713.917	3466
1716.075	3421
1718.231	3541
1720.388	3415
1722.543	3588
1724.702	3537
1726.856	3499
1729.01	3503
1731.164	3403
1733.317	3517
1735.471	3537
1737.623	3511
1739.774	3546
1741.925	3424
1744.075	3491
1746.225	3558
1748.376	3498
1750.524	3526
1752.672	3488
1754.82	3490
1756.965	3501
1759.113	3528
1761.259	3425
1763.405	3494
1765.549	3541
1767.694	3453
1769.836	3568
1771.981	3486
1774.123	3556
1776.264	3561
1778.405	3521
1780.546	3537
1782.687	3443
1784.827	3532
1786.966	3533
1789.103	3546
1791.242	3532
1793.381	3625
1795.517	3567
1797.653	3570
1799.788	3535
1801.923	3581
1804.057	3524
1806.193	3591
1808.326	3536
1810.457	3487
1812.59	3612
1814.721	3468
1816.855	3532
1818.984	3466
1821.113	3515
1823.244	3513
1825.372	3558
1827.499	3510
1829.63	3464
1831.756	3571
1833.882	3512
1836.007	3530
1838.132	3622
1840.26	3516
1842.384	3560
1844.507	3523
1846.63	3538
1848.752	3482
1850.875	3483
1852.996	3503
1855.118	3533
1857.238	3566
1859.358	3523
1861.477	3576
1863.597	3523
1865.715	3522
1867.832	3534
1869.948	3523
1872.064	3499
1874.181	3493
1876.297	3475
1878.411	3430
1880.526	3485
1882.639	3525
1884.752	3500
1886.865	3540
1888.977	3555
1891.089	3536
1893.2	3566
1895.308	3516
1897.42	3637
1899.53	3568
1901.639	3565
1903.745	3489
1905.853	3570
1907.962	3527
1910.067	3565
1912.174	3562
1914.278	3618
1916.383	3576
1918.486	3541
1920.592	3645
1922.694	3590
1924.797	3639
1926.898	3626
1929	3591
1931.102	3556
1933.203	3595
1935.301	3580
1937.401	3512
1939.499	3576
1941.598	3588
1943.697	3587
1945.793	3510
1947.888	3561
1949.985	3573
1952.08	3570
1954.176	3584
1956.269	3548
1958.364	3530
1960.457	3681
1962.549	3635
1964.642	3539
1966.733	3556
1968.823	3593
1970.913	3544
1973.005	3580
1975.093	3593
1977.184	3532
1979.271	3530
1981.359	3607
1983.446	3559
1985.532	3556
1987.619	3559
1989.705	3637
1991.789	3594
1993.874	3610
1995.956	3645
1998.041	3664
2000.123	3514
2002.206	3617
2004.287	3616
2006.368	3577
2008.449	3586
2010.529	3638
2012.609	3567
2014.688	3562
2016.766	3565
2018.843	3577
2020.922	3512
2022.999	3478
2025.074	3626
2027.15	3570
2029.225	3578
2031.299	3522
2033.375	3425
2035.447	3493
2037.52	3567
2039.592	3623
2041.664	3636
2043.736	3596
2045.807	3599
2047.876	3629
2049.947	3643
2052.015	3563
2054.086	3628
2056.153	3547
2058.221	3627
2060.288	3587
2062.353	3681
2064.42	3673
2066.486	3601
2068.55	3682
2070.614	3563
2072.678	3646
2074.741	3660
2076.805	3566
2078.866	3587
2080.929	3589
2082.99	3579
2085.049	3648
2087.109	3596
2089.17	3551
2091.228	3563
2093.286	3661
2095.344	3556
2097.4	3614
2099.46	3581
2101.516	3605
2103.572	3584
2105.626	3522
2107.679	3602
2109.735	3626
2111.788	3566
2113.841	3615
2115.894	3571
2117.945	3626
2119.997	3630
2122.049	3614
2124.1	3660
2126.148	3565
2128.197	3616
2130.246	3619
2132.296	3585
2134.342	3607
2136.39	3608
2138.437	3595
2140.483	3664
2142.527	3635
2144.574	3584
2146.619	3578
2148.661	3486
2150.705	3566
2152.747	3629
2154.792	3519
2156.832	3588
2158.874	3591
2160.915	3616
2162.954	3721
2164.995	3602
2167.034	3585
2169.072	3640
2171.111	3566
2173.148	3583
2175.186	3661
2177.223	3530
2179.258	3553
2181.294	3553
2183.328	3647
2185.362	3566
2187.398	3525
2189.431	3625
2191.463	3595
2193.495	3578
2195.528	3526
2197.56	3642
2199.59	3496
2201.62	3628
2203.649	3584
2205.678	3475
2207.708	3578
2209.737	3524
2211.764	3551
2213.791	3568
2215.817	3521
2217.843	3592
2219.87	3563
2221.895	3555
2223.919	3597
2225.942	3555
2227.966	3552
2229.988	3570
2232.012	3554
2234.032	3524
2236.054	3576
2238.074	3603
2240.095	3539
2242.116	3516
2244.135	3562
2246.153	3458
2248.171	3611
2250.188	3621
2252.208	3576
2254.223	3567
2256.239	3540
2258.255	3528
2260.269	3511
2262.283	3536
2264.3	3488
2266.312	3506
2268.325	3532
2270.336	3504
2272.349	3548
2274.362	3626
2276.372	3545
2278.383	3532
2280.392	3547
2282.402	3551
2284.409	3621
2286.418	3475
2288.427	3515
2290.433	3609
2292.441	3572
2294.446	3514
2296.453	3584
2298.459	3546
2300.463	3553
2302.466	3485
2304.471	3544
2306.475	3538
2308.477	3627
2310.478	3597
2312.481	3536
2314.481	3530
2316.481	3467
2318.482	3574
2320.482	3559
2322.48	3569
2324.48	3593
2326.478	3548
2328.476	3508
2330.473	3465
2332.469	3520
2334.465	3511
2336.46	3554
2338.454	3561
2340.45	3454
2342.444	3514
2344.437	3528
2346.43	3513
2348.421	3565
2350.414	3495
2352.405	3502
2354.396	3591
2356.386	3524
2358.376	3518
2360.366	3544
2362.355	3552
2364.343	3559
2366.331	3385
2368.317	3560
2370.304	3587
2372.292	3519
2374.278	3483
2376.262	3528
2378.247	3504
2380.23	3528
2382.216	3485
2384.199	3519
2386.181	3561
2388.163	3486
2390.144	3433
2392.127	3483
2394.107	3525
2396.087	3416
2398.066	3441
2400.046	3415
2402.023	3402
2404.004	3442
2405.981	3395
2407.957	3475
2409.934	3529
2411.91	3434
2413.886	3450
2415.862	3514
2417.836	3510
2419.809	3470
2421.784	3463
2423.756	3543
2425.73	3468
2427.701	3484
2429.672	3467
2431.644	3508
2433.615	3433
2435.586	3496
2437.555	3456
2439.523	3437
2441.491	3471
2443.459	3507
2445.428	3457
2447.395	3505
2449.361	3446
2451.327	3481
2453.292	3535
2455.257	3478
2457.223	3456
2459.187	3456
2461.15	3429
2463.113	3349
2465.076	3451
2467.039	3422
2468.999	3591
2470.96	3403
2472.921	3405
2474.881	3466
2476.841	3384
2478.8	3391
2480.759	3485
2482.717	3454
2484.675	3476
2486.63	3422
2488.589	3436
2490.545	3412
2492.5	3454
2494.455	3500
2496.408	3462
2498.364	3382
2500.318	3375
2502.27	3403
2504.223	3453
2506.174	3437
2508.126	3457
2510.078	3390
2512.03	3338
2513.979	3507
2515.927	3437
2517.877	3468
2519.826	3424
2521.775	3445
2523.722	3424
2525.668	3424
2527.616	3322
2529.561	3483
2531.508	3434
2533.452	3503
2535.398	3401
2537.342	3429
2539.284	3339
2541.229	3426
2543.173	3449
2545.114	3396
2547.055	3363
2548.996	3517
2550.938	3454
2552.878	3342
2554.817	3380
2556.756	3409
2558.695	3453
2560.633	3343
2562.572	3342
2564.509	3475
2566.445	3407
2568.382	3451
2570.317	3384
2572.254	3467
2574.189	3456
2576.123	3339
2578.057	3425
2579.99	3404
2581.923	3495
2583.855	3408
2585.788	3438
2587.719	3385
2589.65	3426
2591.579	3407
2593.511	3322
2595.44	3375
2597.37	3402
2599.297	3462
2601.225	3380
2603.153	3450
2605.08	3437
2607.007	3403
2608.932	3472
2610.858	3392
2612.782	3360
2614.709	3444
2616.632	3484
2618.556	3435
2620.478	3356
2622.401	3421
2624.324	3395
2626.247	3306
2628.167	3431
2630.088	3405
2632.008	3501
2633.928	3394
2635.848	3381
2637.766	3415
2639.684	3359
2641.603	3425
2643.519	3348
2645.437	3411
2647.353	3487
2649.27	3353
2651.184	3362
2653.099	3456
2655.014	3479
2656.928	3453
2658.842	3436
2660.755	3462
2662.667	3427
2664.579	3422
2666.491	3427
2668.402	3417
2670.312	3424
2672.222	3408
2674.132	3345
2676.042	3379
2677.951	3374
2679.859	3396
2681.766	3362
2683.674	3461
2685.582	3396
2687.488	3365
2689.392	3402
2691.298	3390
2693.202	3346
2695.107	3343
2697.012	3405
2698.914	3399
2700.817	3361
2702.72	3369
2704.622	3385
2706.524	3343
2708.425	3363
2710.326	3422
2712.225	3404
2714.125	3324
2716.024	3391
2717.923	3380
2719.822	3341
2721.719	3420
2723.616	3449
2725.512	3365
2727.41	3470
2729.305	3450
2731.201	3354
2733.095	3498
2734.99	3411
2736.884	3357
2738.778	3378
2740.67	3376
2742.562	3350
2744.455	3413
2746.346	3348
2748.238	3390
2750.129	3357
2752.018	3370
2753.907	3384
2755.797	3396
2757.687	3401
2759.575	3402
2761.462	3368
2763.349	3385
2765.237	3359
2767.124	3442
2769.009	3319
2770.894	3421
2772.779	3337
2774.663	3419
2776.547	3340
2778.431	3297
2780.314	3376
2782.197	3340
2784.078	3399
2785.96	3333
2787.842	3380
2789.723	3352
2791.603	3364
2793.483	3374
2795.362	3301
2797.241	3399
2799.121	3252
2800.997	3328
2802.874	3315
2804.751	3376
2806.628	3248
2808.506	3339
2810.38	3307
2812.255	3343
2814.13	3280
2816.003	3359
2817.878	3354
2819.752	3298
2821.623	3340
2823.496	3327
2825.368	3315
2827.238	3357
2829.111	3313
2830.98	3387
2832.851	3382
2834.719	3379
2836.589	3401
2838.458	3356
2840.327	3302
2842.193	3381
2844.061	3336
2845.927	3366
2847.794	3388
2849.66	3415
2851.525	3348
2853.39	3409
2855.254	3490
2857.117	3373
2858.983	3463
2860.845	3461
2862.707	3441
2864.569	3577
2866.431	3464
2868.293	3515
2870.154	3542
2872.013	3622
2873.873	3643
2875.733	3658
2877.592	3680
2879.451	3777
2881.309	3696
2883.166	3779
2885.022	3859
2886.879	3840
2888.736	3832
2890.591	3765
2892.446	3853
2894.301	3783
2896.155	3880
2898.009	3803
2899.863	3853
2901.716	3742
2903.568	3790
2905.419	3807
2907.27	3830
2909.123	3773
2910.973	3846
2912.824	3878
2914.673	3909
2916.521	3935
2918.372	3993
2920.22	4008
2922.067	4058
2923.914	4068
2925.761	4062
2927.607	4120
2929.455	4217
2931.301	4245
2933.144	4263
2934.99	4334
2936.833	4318
2938.678	4258
2940.522	4414
2942.364	4467
2944.207	4366
2946.048	4544
2947.891	4579
2949.731	4533
2951.571	4515
2953.412	4496
2955.25	4402
2957.09	4497
2958.93	4379
2960.767	4278
2962.606	4241
2964.443	4122
2966.279	4279
2968.116	4093
2969.953	4063
2971.788	4001
2973.623	4068
2975.457	4039
2977.292	3947
2979.127	3944
2980.959	3935
2982.792	3944
2984.624	3901
2986.455	3903
2988.288	3849
2990.119	3815
2991.949	3807
2993.779	3665
2995.608	3760
2997.439	3681
2999.268	3821
3001.096	3646
3002.923	3600
3004.751	3631
3006.578	3576
3008.406	3545
3010.232	3543
3012.057	3492
3013.883	3473
3015.706	3436
3017.532	3381
3019.356	3373
3021.179	3422
3023.002	3318
3024.823	3411
3026.646	3347
3028.469	3259
3030.289	3444
3032.11	3336
3033.93	3392
3035.749	3307
3037.57	3324
3039.39	3251
3041.207	3190
3043.026	3317
3044.842	3325
3046.661	3203
3048.477	3246
3050.294	3313
3052.109	3260
3053.925	3196
3055.739	3231
3057.555	3269
3059.368	3265
3061.181	3192
3062.995	3198
3064.807	3216
3066.62	3179
3068.433	3312
3070.243	3229
3072.054	3248
3073.865	3261
3075.675	3246
3077.485	3283
3079.293	3173
3081.102	3288
3082.911	3285
3084.719	3213
3086.527	3230
3088.333	3238
3090.139	3310
3091.945	3166
3093.75	3124
3095.557	3179
3097.361	3222
3099.165	3144
3100.969	3231
3102.772	3176
3104.575	3124
3106.379	3132
3108.181	3197
3109.982	3160
3111.783	3165
3113.584	3149
3115.386	3153
3117.186	3148
3118.985	3133
3120.783	3219
3122.582	3148
3124.381	3152
3126.179	3128
3127.975	3122
3129.772	3087
3131.569	3048
3133.365	3122
3135.161	3127
3136.956	3099
3138.751	3181
3140.544	3141
3142.338	3068
3144.132	3121
3145.925	3081
3147.717	3088
3149.509	3068
3151.301	3135
3153.091	3090
3154.884	3123
3156.673	3101
3158.462	3155
3160.252	3105
3162.041	3132
3163.831	3047
3165.618	3093
3167.405	3115
3169.193	3058
3170.979	3054
3172.767	3061
3174.553	3131
3176.338	3113
3178.123	3091
3179.907	3109
3181.692	3108
3183.477	2996
3185.259	3045
3187.042	3075
3188.824	2998
3190.607	3075
3192.389	3107
3194.17	3038
3195.951	3133
3197.73	3157
3199.51	3072
3201.289	3077
3203.07	3056
3204.848	3103
3206.626	3078
3208.403	3127
3210.18	3110
3211.959	3072
3213.735	3040
3215.511	3068
3217.285	3000
3219.06	3050
3220.836	3106
3222.611	3096
3224.384	3045
3226.158	3063
3227.929	3095
3229.702	3132
3231.476	3090
3233.248	3022
3235.018	3078
3236.789	3084
3238.56	3078
3240.33	3014
3242.1	3047
3243.869	3131
3245.637	3122
3247.405	3112
3249.172	3090
3250.941	3138
3252.707	3105
3254.474	3091
3256.24	3093
3258.006	3183
3259.772	3077
3261.537	3156
3263.301	3104
3265.065	3146
3266.828	3144
3268.592	3133
3270.355	3125
3272.117	3123
3273.878	3033
3275.64	3083
3277.401	3108
3279.162	3066
3280.922	3133
3282.682	3073
3284.441	3133
3286.199	3144
3287.959	3190
3289.716	3119
3291.475	3193
3293.232	3145
3294.988	3144
3296.744	3124
3298.501	3046
3300.256	3106
3302.011	3055
3303.766	3132
3305.52	3117
3307.275	3160
3309.028	3167
3310.781	3054
3312.533	3199
3314.285	3099
3316.038	3075
3317.789	3130
3319.54	3153
3321.289	3117
3323.039	3112
3324.789	3173
3326.539	3053
3328.288	3153
3330.035	3048
3331.783	3108
3333.531	3086
3335.28	3032
3337.025	3118
3338.771	3082
3340.518	3072
3342.262	3046
3344.009	3136
3345.753	3123
3347.497	3114
3349.24	3091
3350.983	3128
3352.726	3076
3354.469	3068
3356.212	3103
3357.952	3076
3359.694	3074
3361.434	3098
3363.176	3045
3364.916	3041
3366.654	3029
3368.394	3032
3370.132	3021
3371.871	3038
3373.61	3040
3375.346	3017
3377.083	3082
3378.82	3057
3380.556	3048
3382.292	3014
3384.027	3041
3385.763	3058
3387.497	3058
3389.231	3047
3390.965	3054
3392.698	2986
3394.431	3022
3396.164	3056
3397.896	3018
3399.627	3062
3401.36	3016
3403.09	3035
3404.82	3085
3406.55	3012
3408.279	2936
3410.01	2926
3411.738	3049
3413.467	2944
3415.194	2959
3416.92	3040
3418.647	2947
3420.375	3053
3422.102	3025
3423.827	2975
3425.553	3028
3427.277	2934
3429.003	2937
3430.727	3012
3432.451	2969
3434.173	2947
3435.896	2941
3437.62	2960
3439.343	2936
3441.063	2922
3442.785	2929
3444.505	2934
3446.226	2907
3447.948	2988
3449.666	2952
3451.386	2888
3453.104	2888
3454.823	2889
3456.541	2907
3458.259	2881
3459.976	2904
3461.693	2880
3463.408	2923
3465.125	2868
3466.841	2849
3468.556	2887
3470.271	2913
3471.985	2874
3473.698	2890
3475.414	2856
3477.126	2829
3478.838	2901
3480.55	2902
3482.263	2877
3483.975	2737
3485.686	2827
3487.396	2835
3489.106	2832
3490.817	2803
3492.526	2893
3494.236	2822
3495.944	2872
3497.652	2906
3499.359	2845
3501.066	2772
3502.775	2829
3504.481	2869
3506.187	2823
3507.893	2814
3509.598	2772
3511.304	2830
3513.009	2798
3514.713	2764
3516.417	2789
3518.12	2783
3519.821	2798
3521.525	2761
3523.228	2764
3524.929	2798
3526.631	2746
3528.33	2782
3530.032	2733
3531.733	2757
3533.433	2753
3535.131	2743
3536.83	2766
3538.529	2755
3540.227	2744
3541.925	2701
3543.623	2711
3545.319	2764
3547.016	2666
3548.712	2701
3550.408	2723
3552.103	2677
3553.798	2720
3555.491	2680
3557.188	2707
3558.88	2656
3560.574	2653
3562.266	2736
3563.959	2720
3565.651	2706
3567.343	2781
3569.035	2689
3570.725	2714
3572.415	2693
3574.106	2712
3575.797	2676
3577.485	2606
3579.174	2709
3580.863	2638
3582.551	2659
3584.238	2696
3585.926	2695
3587.613	2665
3589.3	2670
3590.986	2705
3592.671	2634
3594.357	2709
3596.042	2603
3597.726	2631
3599.41	2623
3601.094	2580
3602.778	2596
3604.461	2587
3606.143	2622
3607.825	2607
3609.507	2601
3611.188	2590
3612.87	2601
3614.551	2621
3616.229	2595
3617.909	2547
3619.589	2543
3621.269	2644
3622.948	2623
3624.625	2598
3626.302	2526
3627.98	2553
3629.657	2552
3631.334	2542
3633.01	2546
3634.686	2575
3636.361	2537
3638.036	2556
3639.712	2532
3641.385	2564
3643.06	2557
3644.732	2589
3646.405	2534
3648.08	2548
3649.751	2566
3651.424	2491
3653.094	2520
3654.766	2537
3656.436	2507
3658.106	2534
3659.777	2523
3661.446	2516
3663.115	2514
3664.783	2505
3666.452	2461
3668.121	2529
3669.788	2477
3671.454	2510
3673.121	2484
3674.789	2535
3676.455	2500
3678.12	2512
3679.784	2462
3681.45	2419
3683.114	2505
3684.779	2464
3686.442	2442
3688.105	2475
3689.768	2517
3691.43	2493
3693.093	2469
3694.754	2469
3696.415	2438
3698.076	2429
3699.736	2529
3701.396	2411
3703.057	2444
3704.716	2430
3706.375	2425
3708.034	2466
3709.692	2420
3711.351	2383
3713.008	2421
3714.665	2466
3716.321	2483
3717.977	2426
3719.634	2488
3721.29	2456
3722.945	2455
3724.598	2455
3726.253	2453
3727.907	2452
3729.561	2362
3731.214	2452
3732.867	2460
3734.518	2384
3736.171	2449
3737.824	2419
3739.474	2409
3741.125	2395
3742.775	2415
3744.425	2378
3746.074	2388
3747.725	2442
3749.373	2414
3751.022	2434
3752.669	2421
3754.318	2413
3755.966	2405
3757.612	2409
3759.259	2362
3760.905	2421
3762.55	2381
3764.197	2386
3765.842	2396
3767.486	2353
3769.131	2408
3770.774	2408
3772.417	2372
3774.061	2340
3775.705	2390
3777.347	2382
3778.988	2365
3780.629	2334
3782.271	2356
3783.912	2369
3785.552	2356
3787.192	2338
3788.831	2390
3790.472	2329
3792.112	2398
3793.75	2303
3795.388	2407
3797.024	2340
3798.661	2398
3800.3	2346
3801.936	2312
3803.572	2299
3805.208	2319
3806.844	2286
3808.48	2412
3810.115	2305
3811.748	2294
3813.382	2308
3815.016	2360
3816.649	2299
3818.283	2335
3819.914	2326
3821.547	2264
3823.178	2298
3824.809	2342
3826.441	2352
3828.072	2241
3829.701	2351
3831.331	2395
3832.96	2320
3834.591	2294
3836.219	2318
3837.847	2312
3839.475	2261
3841.102	2297
3842.729	2300
3844.357	2315
3845.984	2307
3847.609	2264
3849.234	2304
3850.86	2284
3852.485	2283
3854.11	2233
3855.734	2241
3857.357	2286
3858.981	2283
3860.603	2281
3862.227	2273
3863.848	2236
3865.471	2204
3867.092	2277
3868.713	2244
3870.334	2252
3871.954	2245
3873.575	2266
3875.194	2219
3876.813	2269
3878.433	2290
3880.051	2274
3881.669	2244
3883.286	2277
3884.904	2217
3886.52	2297
3888.138	2283
3889.754	2278
3891.37	2228
3892.985	2179
3894.6	2211
3896.216	2226
3897.831	2210
3899.444	2230
3901.058	2195
3902.67	2213
3904.283	2264
3905.897	2218
3907.509	2260
3909.121	2260
3910.731	2225
3912.342	2206
3913.954	2199
3915.563	2232
3917.174	2245
3918.783	2212
3920.391	2257
3922.002	2145
3923.611	2227
3925.218	2207
3926.826	2220
3928.432	2227
3930.039	2243
3931.647	2239
3933.253	2159
3934.859	2224
3936.464	2218
3938.068	2175
3939.675	2212
3941.278	2239
3942.883	2237
3944.486	2126
3946.089	2212
3947.692	2136
3949.295	2226
3950.898	2194
3952.499	2190
3954.1	2237
3955.7	2149
3957.303	2218
3958.903	2143
3960.502	2201
3962.101	2180
3963.7	2135
3965.301	2141
3966.899	2161
3968.497	2125
3970.094	2189
3971.691	2115
3973.288	2115
3974.885	2184
3976.481	2167
3978.077	2198
3979.672	2162
3981.267	2168
3982.863	2225
3984.457	2139
3986.051	2122
3987.645	2190
3989.238	2101
3990.831	2120
3992.425	2136
3994.017	2170
3995.607	2181
3997.199	2192
3998.79	2071
4000.382	2127
4001.973	2071
4003.561	2120
4005.151	2107
4006.741	2109
4008.331	2046
4009.918	2093
4011.507	2053
4013.095	2047
4014.681	2085
4016.269	2087
4017.856	2068
4019.443	2134
4021.028	2089
4022.614	2072
4024.199	2082
4025.785	2064
4027.37	2088
4028.953	2112
4030.536	2077
4032.12	2039
4033.704	2114
4035.287	2044
4036.869	2067
4038.45	2125
4040.032	2094
4041.613	2112
4043.195	2112
4044.776	2046
4046.356	2077
4047.935	2094
4049.515	2079
4051.095	2036
4052.674	2119
4054.251	2063
4055.829	2088
4057.406	2008
4058.985	2021
4060.562	1995
4062.139	2000
4063.715	2086
4065.29	2037
4066.865	2063
4068.442	2042
4070.016	2021
4071.59	2014
4073.164	2007
4074.738	1984
4076.312	2069
4077.885	2022
4079.458	2005
4081.03	2020
4082.602	2054
4084.173	1992
4085.745	1991
4087.315	2075
4088.886	2008
4090.456	2020
4092.026	2019
4093.596	2002
4095.165	2021
4096.734	2048
4098.301	2027
4099.869	1991
4101.437	2045
4103.006	2070
4104.572	1989
4106.139	1993
4107.704	1982
4109.27	1989
4110.837	1965
4112.401	1978
4113.966	2020
4115.53	1990
4117.094	2013
4118.659	1959
4120.223	2004
4121.785	2008
4123.347	2014
4124.909	1994
4126.471	1999
4128.034	1975
4129.595	2005
4131.155	1995
4132.716	1979
4134.275	1907
4135.836	2024
4137.395	1953
4138.955	1915
4140.513	1998
4142.071	1951
4143.628	1956
4145.188	1932
4146.745	1937
4148.302	1967
4149.858	1987
4151.414	1939
4152.971	1979
4154.526	1934
4156.081	1944
4157.635	1957
4159.189	1895
4160.745	1932
4162.298	1865
4163.852	1964
4165.405	1989
4166.957	1930
4168.51	1960
4170.063	1941
4171.614	1907
4173.166	1975
4174.717	1880
4176.267	1863
4177.817	1941
4179.368	1988
4180.917	1954
4182.466	1943
4184.016	1894
4185.564	1936
4187.112	1925
4188.66	1905
4190.207	1881
4191.754	1933
4193.301	1864
4194.848	1920
4196.394	1884
4197.94	1905
4199.484	1869
4201.03	1949
4202.575	1925
4204.12	1885
4205.663	1883
4207.207	1890
4208.75	1868
4210.292	1907
4211.836	1864
4213.378	1863
4214.92	1888
4216.46	1918
4218.002	1922
4219.544	1874
4221.083	1856
4222.625	1898
4224.164	1875
4225.703	1878
4227.244	1866
4228.782	1860
4230.32	1867
4231.857	1834
4233.395	1862
4234.933	1853
4236.471	1833
4238.007	1833
4239.542	1853
4241.078	1879
4242.614	1895
4244.15	1840
4245.685	1847
4247.219	1813
4248.753	1820
4250.287	1853
4251.82	1828
4253.354	1882
4254.887	1852
4256.419	1809
4257.951	1804
4259.483	1894
4261.016	1782
4262.547	1839
4264.078	1798
4265.608	1874
4267.137	1790
4268.668	1866
4270.197	1804
4271.727	1823
4273.254	1815
4274.783	1834
4276.311	1841
4277.84	1881
4279.366	1800
4280.894	1827
4282.42	1867
4283.946	1839
4285.473	1837
4286.998	1795
4288.523	1744
4290.047	1742
4291.572	1817
4293.096	1792
4294.622	1814
4296.144	1787
4297.668	1829
4299.19	1796
4300.713	1835
4302.236	1793
4303.758	1779
4305.279	1795
4306.799	1739
4308.321	1851
4309.842	1795
4311.361	1780
4312.882	1848
4314.401	1785
