400.0961	2673
402.6185	2808
405.1424	2729
407.6635	2684
410.1838	2715
412.7035	2675
415.2225	2663
417.7388	2761
420.2585	2797
422.7754	2852
425.2917	2785
427.8072	2874
430.3221	2894
432.8363	2844
435.3498	2863
437.8626	2837
440.3727	2891
442.8841	2889
445.3969	2871
447.907	2835
450.4142	2854
452.9229	2915
455.4289	2893
457.9362	2901
460.4449	2838
462.9488	2824
465.454	2803
467.9566	2892
470.4604	2783
472.9637	2836
475.4662	2809
477.966	2838
480.4671	2865
482.9656	2913
485.4633	2848
487.9645	2891
490.4608	2864
492.9566	2776
495.4536	2872
497.948	2846
500.4437	2895
502.9387	2937
505.431	2928
507.9226	2974
510.4136	2920
512.9079	2923
515.3975	2952
517.8864	2904
520.3746	2865
522.8622	2917
525.3491	2893
527.8394	2896
530.3249	2949
532.8098	2884
535.2939	2978
537.7774	3016
540.2623	2953
542.7444	2918
545.2259	2941
547.7067	2904
550.1868	2944
552.6683	2912
555.147	3002
557.6231	2960
560.1005	3004
562.5773	2947
565.0534	2952
567.5308	2975
570.0056	2992
572.4776	2964
574.951	2959
577.4237	3051
579.8978	2988
582.3671	3021
584.8378	3029
587.3079	3065
589.7773	3043
592.244	2998
594.714	3088
597.1793	3046
599.6461	3104
602.1121	3017
604.5754	2965
607.0421	2978
609.5042	2986
611.9675	3009
614.4282	3026
616.8902	3036
619.3515	2933
621.8122	3009
624.2702	3087
626.7296	3071
629.1863	2959
631.6423	3014
634.1017	2927
636.5563	2981
639.0104	2934
641.4658	3035
643.9185	3042
646.3725	3052
648.8239	3048
651.2766	2984
653.7266	2989
656.176	3077
658.6247	3059
661.0748	3034
663.5242	3023
665.9709	3012
668.417	3022
670.8624	3129
673.3092	3124
675.7533	3089
678.1968	3143
680.6395	3038
683.0817	3081
685.5251	3065
687.9659	3047
690.4061	3132
692.8456	3136
695.2844	3112
697.7226	3105
700.1621	3098
702.599	3136
705.0332	3134
707.4688	3104
709.9036	3180
712.3399	3128
714.7735	3145
717.2044	3136
719.6367	3097
722.0683	3158
724.4993	3193
726.9296	3173
729.3593	3189
731.7883	3250
734.2147	3243
736.6423	3224
739.0714	3203
741.4958	3307
743.9216	3288
746.3447	3212
748.7691	3286
751.1929	3298
753.616	3268
756.0366	3287
758.4584	3347
760.8776	3295
763.2982	3298
765.718	3369
768.1373	3377
770.5539	3351
772.9698	3249
775.3871	3372
777.8038	3353
780.2178	3289
782.6332	3316
785.0459	3346
787.458	3291
789.8714	3241
792.2842	3329
794.6943	3345
797.1038	3329
799.5127	3345
801.9209	3320
804.3324	3352
806.7393	3292
809.1456	3337
811.5513	3310
813.9562	3346
816.3625	3367
818.7663	3372
821.1693	3312
823.5718	3383
825.9735	3327
828.3746	3253
830.7771	3357
833.177	3430
835.5762	3432
837.9747	3279
840.3727	3445
842.772	3394
845.1666	3406
847.5626	3455
849.958	3475
852.3527	3462
854.7488	3377
857.1403	3467
859.5331	3436
861.9253	3467
864.3168	3400
866.7057	3387
869.098	3393
871.4876	3417
873.8746	3453
876.263	3468
878.6487	3410
881.0378	3452
883.4243	3435
885.8081	3315
888.1933	3394
890.5759	3440
892.9598	3386
895.343	3451
897.7256	3417
900.1057	3384
902.4871	3545
904.8659	3431
907.246	3438
909.6254	3529
912.0023	3467
914.3786	3508
916.7562	3590
919.1331	3567
921.5074	3560
923.8831	3629
926.2562	3534
928.6287	3592
931.0005	3604
933.3757	3602
935.7462	3595
938.1162	3593
940.4855	3649
942.8542	3687
945.2242	3687
947.5916	3717
949.9584	3840
952.3266	3834
954.6921	4057
957.0571	4075
959.4233	4244
961.787	4268
964.15	4336
966.5125	4313
968.8742	4140
971.2354	3837
973.5959	3802
975.9559	3723
978.3151	3632
980.6738	3547
983.0338	3591
985.3912	3603
987.7461	3601
990.1022	3580
992.4578	3513
994.8127	3605
997.1689	3523
999.5207	3580
1001.874	3542
1004.226	3595
1006.576	3608
1008.929	3597
1011.28	3564
1013.628	3563
1015.977	3611
1018.324	3634
1020.674	3544
1023.019	3621
1025.366	3728
1027.713	3605
1030.056	3535
1032.399	3602
1034.746	3597
1037.087	3668
1039.431	3698
1041.771	3680
1044.113	3709
1046.454	3658
1048.793	3618
1051.133	3654
1053.471	3635
1055.807	3695
1058.146	3626
1060.483	3572
1062.818	3656
1065.153	3717
1067.489	3728
1069.822	3670
1072.156	3720
1074.488	3721
1076.82	3735
1079.15	3730
1081.48	3775
1083.814	3715
1086.143	3661
1088.471	3714
1090.799	3816
1093.126	3623
1095.452	3700
1097.78	3655
1100.105	3714
1102.43	3683
1104.754	3592
1107.077	3727
1109.4	3736
1111.722	3644
1114.044	3649
1116.365	3624
1118.685	3790
1121.005	3748
1123.324	3666
1125.643	3659
1127.961	3659
1130.278	3766
1132.595	3661
1134.911	3687
1137.226	3635
1139.541	3598
1141.854	3696
1144.167	3668
1146.482	3662
1148.793	3661
1151.105	3631
1153.414	3712
1155.725	3689
1158.033	3667
1160.344	3720
1162.651	3690
1164.959	3782
1167.265	3769
1169.572	3657
1171.878	3736
1174.184	3746
1176.488	3634
1178.79	3662
1181.094	3723
1183.396	3682
1185.699	3678
1188.001	3830
1190.301	3630
1192.6	3739
1194.9	3752
1197.2	3688
1199.497	3644
1201.794	3704
1204.09	3694
1206.387	3714
1208.684	3731
1210.978	3720
1213.272	3771
1215.565	3682
1217.858	3809
1220.15	3703
1222.443	3734
1224.734	3765
1227.024	3779
1229.313	3753
1231.602	3816
1233.892	3828
1236.18	3859
1238.467	3950
1240.754	3860
1243.04	3900
1245.325	3868
1247.612	3889
1249.896	3903
1252.178	3932
1254.461	3847
1256.743	3818
1259.027	3910
1261.308	3914
1263.587	3801
1265.867	3832
1268.146	3828
1270.425	4005
1272.703	3901
1274.981	3897
1277.256	3938
1279.532	3918
1281.808	3969
1284.083	3935
1286.358	3877
1288.63	3864
1290.904	3875
1293.175	3769
1295.449	3865
1297.719	3952
1299.99	3821
1302.259	3863
1304.529	3828
1306.798	3828
1309.065	3849
1311.333	3917
1313.599	3858
1315.866	3910
1318.131	3957
1320.396	3896
1322.66	3844
1324.925	3910
1327.187	3858
1329.448	3896
1331.711	3881
1333.974	3936
1336.234	3948
1338.493	3868
1340.752	3904
1343.01	3871
1345.269	3894
1347.526	3885
1349.784	3895
1352.04	3887
1354.295	3855
1356.552	3997
1358.806	3859
1361.059	3893
1363.312	3821
1365.564	3873
1367.818	3871
1370.069	3924
1372.318	4020
1374.568	3908
1376.817	3961
1379.066	3962
1381.316	3892
1383.564	3951
1385.809	3886
1388.056	4007
1390.301	3916
1392.549	3911
1394.793	3887
1397.036	4018
1399.279	4034
1401.522	3901
1403.763	3965
1406.007	4016
1408.248	3955
1410.487	3982
1412.727	3904
1414.965	3983
1417.205	3969
1419.442	3991
1421.68	3960
1423.915	4008
1426.152	3947
1428.388	4034
1430.623	3942
1432.857	4040
1435.091	4003
1437.323	4048
1439.556	3980
1441.789	4072
1444.019	3915
1446.25	3996
1448.48	4100
1450.708	4073
1452.938	4108
1455.167	4100
1457.394	4113
1459.62	4066
1461.846	4050
1464.073	3991
1466.299	4076
1468.523	4002
1470.746	3998
1472.969	3982
1475.191	3976
1477.415	3955
1479.636	3931
1481.858	3906
1484.078	3923
1486.298	3891
1488.518	3837
1490.736	3847
1492.954	3807
1495.169	3924
1497.386	3912
1499.602	3831
1501.819	3827
1504.034	3926
1506.248	3760
1508.462	3871
1510.675	3782
1512.888	3888
1515.1	3829
1517.311	3803
1519.522	3881
1521.732	3893
1523.942	3948
1526.151	3864
1528.36	3838
1530.566	3933
1532.773	3892
1534.98	3951
1537.187	3876
1539.392	3868
1541.596	3822
1543.801	3998
1546.005	3925
1548.208	3829
1550.411	3999
1552.612	3957
1554.814	3987
1557.013	3941
1559.212	3981
1561.414	3961
1563.612	3926
1565.811	3910
1568.007	4008
1570.203	4057
1572.403	3961
1574.598	4027
1576.792	3984
1578.988	4015
1581.181	3999
1583.376	3957
1585.568	3880
1587.761	4099
1589.952	4053
1592.143	4020
1594.333	4011
1596.524	4061
1598.715	4165
1600.903	3992
1603.091	4078
1605.278	4053
1607.466	4016
1609.652	4100
1611.838	4154
1614.023	3986
1616.207	4105
1618.391	3998
1620.576	4089
1622.759	4051
1624.941	4000
1627.123	4025
1629.304	4129
1631.484	4011
1633.664	4036
1635.844	4099
1638.022	4164
1640.201	4110
1642.38	4106
1644.556	4040
1646.732	4023
1648.908	4105
1651.084	4116
1653.257	3981
1655.433	4017
1657.607	4070
1659.779	4057
1661.951	4154
1664.122	4059
1666.295	4109
1668.467	4158
1670.635	4119
1672.805	4102
1674.973	4074
1677.142	4175
1679.31	4071
1681.478	4151
1683.644	4076
1685.81	4046
1687.975	4003
1690.142	4101
1692.305	4086
1694.468	4071
1696.632	4079
1698.794	4015
1700.957	3992
1703.119	4036
1705.279	3922
1707.439	4084
1709.598	4066
1711.758	4003
1713.917	4004
1716.075	4012
1718.231	3971
1720.388	3966
1722.543	4004
1724.702	4005
1726.856	3943
1729.01	4059
1731.164	4008
1733.317	3947
1735.471	4055
1737.623	4052
1739.774	3977
1741.925	3972
1744.075	4105
1746.225	3991
1748.376	4042
1750.524	4009
1752.672	3976
1754.82	4012
1756.965	4033
1759.113	3992
1761.259	4082
1763.405	3978
1765.549	4005
1767.694	4056
1769.836	3992
1771.981	4020
1774.123	4025
1776.264	4022
1778.405	3997
1780.546	3975
1782.687	4034
1784.827	4014
1786.966	4010
1789.103	3943
1791.242	3947
1793.381	4036
1795.517	4148
1797.653	4140
1799.788	4073
1801.923	3977
1804.057	4014
1806.193	3996
1808.326	4050
1810.457	4094
1812.59	4024
1814.721	4017
1816.855	4002
1818.984	4005
1821.113	3988
1823.244	4001
1825.372	4066
1827.499	3978
1829.63	4040
1831.756	3910
1833.882	3995
1836.007	3998
1838.132	3950
1840.26	4076
1842.384	4073
1844.507	4082
1846.63	4104
1848.752	3986
1850.875	4025
1852.996	4023
1855.118	4034
1857.238	3970
1859.358	4047
1861.477	3934
1863.597	3940
1865.715	3951
1867.832	4093
1869.948	3981
1872.064	3901
1874.181	4003
1876.297	4006
1878.411	3934
1880.526	4061
1882.639	4038
1884.752	3969
1886.865	4151
1888.977	4117
1891.089	3984
1893.2	4083
1895.308	3921
1897.42	4015
1899.53	4010
1901.639	4079
1903.745	3991
1905.853	4034
1907.962	3947
1910.067	4042
1912.174	4061
1914.278	3978
1916.383	4109
1918.486	4103
1920.592	4046
1922.694	4009
1924.797	4067
1926.898	4111
1929	3999
1931.102	4126
1933.203	4049
1935.301	3977
1937.401	4045
1939.499	4081
1941.598	4118
1943.697	4026
1945.793	4099
1947.888	4091
1949.985	4134
1952.08	4021
1954.176	4072
1956.269	4163
1958.364	4096
1960.457	4050
1962.549	4088
1964.642	4082
1966.733	4123
1968.823	4177
1970.913	3924
1973.005	4029
1975.093	3980
1977.184	4080
1979.271	4035
1981.359	4096
1983.446	3991
1985.532	4053
1987.619	4022
1989.705	4068
1991.789	4114
1993.874	3975
1995.956	4102
1998.041	4128
2000.123	4028
2002.206	4017
2004.287	4107
2006.368	4065
2008.449	4045
2010.529	4028
2012.609	4114
2014.688	4096
2016.766	4037
2018.843	4095
2020.922	4027
2022.999	4095
2025.074	3975
2027.15	4014
2029.225	4131
2031.299	4072
2033.375	3999
2035.447	4081
2037.52	4071
2039.592	4037
2041.664	4082
2043.736	4035
2045.807	4021
2047.876	4064
2049.947	4052
2052.015	4019
2054.086	4025
2056.153	3966
2058.221	3990
2060.288	4030
2062.353	4091
2064.42	4044
2066.486	4012
2068.55	4026
2070.614	4039
2072.678	4012
2074.741	4032
2076.805	4027
2078.866	4016
2080.929	4039
2082.99	4114
2085.049	4015
2087.109	4026
2089.17	4081
2091.228	4014
2093.286	4026
2095.344	4082
2097.4	4029
2099.46	4037
2101.516	4035
2103.572	4046
2105.626	4058
2107.679	4126
2109.735	3973
2111.788	4065
2113.841	4018
2115.894	4075
2117.945	4068
2119.997	4037
2122.049	4042
2124.1	4055
2126.148	4028
2128.197	4072
2130.246	4039
2132.296	4093
2134.342	4031
2136.39	4114
2138.437	4107
2140.483	4082
2142.527	4107
2144.574	4112
2146.619	3961
2148.661	4019
2150.705	4099
2152.747	4024
2154.792	4052
2156.832	4103
2158.874	4026
2160.915	4119
2162.954	4154
2164.995	3999
2167.034	4029
2169.072	4044
2171.111	4007
2173.148	4002
2175.186	4166
2177.223	3982
2179.258	3963
2181.294	4012
2183.328	4026
2185.362	4081
2187.398	3992
2189.431	4015
2191.463	3965
2193.495	3974
2195.528	4028
2197.56	3938
2199.59	3956
2201.62	3995
2203.649	4044
2205.678	3984
2207.708	3968
2209.737	3963
2211.764	3951
2213.791	3984
2215.817	4038
2217.843	4037
2219.87	4023
2221.895	3978
2223.919	4004
2225.942	3977
2227.966	3962
2229.988	3971
2232.012	3968
2234.032	4032
2236.054	4045
2238.074	3940
2240.095	4001
2242.116	4025
2244.135	3974
2246.153	3926
2248.171	3923
2250.188	4025
2252.208	3956
2254.223	3958
2256.239	3986
2258.255	3968
2260.269	3913
2262.283	4125
2264.3	3921
2266.312	3902
2268.325	3973
2270.336	3963
2272.349	4071
2274.362	4015
2276.372	3961
2278.383	3949
2280.392	3969
2282.402	3979
2284.409	3990
2286.418	3956
2288.427	4031
2290.433	3871
2292.441	4084
2294.446	3895
2296.453	3907
2298.459	4083
2300.463	4074
2302.466	3932
2304.471	3977
2306.475	3983
2308.477	4024
2310.478	3925
2312.481	4012
2314.481	3941
2316.481	3944
2318.482	4001
2320.482	3990
2322.48	3887
2324.48	3974
2326.478	3964
2328.476	3957
2330.473	3906
2332.469	3945
2334.465	3917
2336.46	3971
2338.454	3912
2340.45	4027
2342.444	3968
2344.437	3912
2346.43	3955
2348.421	3893
2350.414	3896
2352.405	4052
2354.396	3928
2356.386	3879
2358.376	3767
2360.366	3849
2362.355	3863
2364.343	3897
2366.331	3918
2368.317	3974
2370.304	3895
2372.292	3856
2374.278	3875
2376.262	3881
2378.247	3957
2380.23	3922
2382.216	3925
2384.199	3900
2386.181	3880
2388.163	3840
2390.144	3893
2392.127	3891
2394.107	3900
2396.087	3810
2398.066	3925
2400.046	3942
2402.023	3945
2404.004	3825
2405.981	3990
2407.957	3845
2409.934	3900
2411.91	3960
2413.886	3848
2415.862	3871
2417.836	3865
2419.809	3930
2421.784	3885
2423.756	3833
2425.73	3875
2427.701	3860
2429.672	3840
2431.644	3932
2433.615	3903
2435.586	3831
2437.555	3824
2439.523	3776
2441.491	3843
2443.459	3958
2445.428	3785
2447.395	3785
2449.361	3843
2451.327	3912
2453.292	3902
2455.257	3866
2457.223	3879
2459.187	3850
2461.15	3903
2463.113	3844
2465.076	3827
2467.039	3819
2468.999	3904
2470.96	3807
2472.921	3844
2474.881	3861
2476.841	3807
2478.8	3800
2480.759	3869
2482.717	3841
2484.675	3901
2486.63	3716
2488.589	3842
2490.545	3970
2492.5	3856
2494.455	3880
2496.408	3823
2498.364	3823
2500.318	3812
2502.27	3790
2504.223	3880
2506.174	3789
2508.126	3767
2510.078	3846
2512.03	3783
2513.979	3796
2515.927	3702
2517.877	3830
2519.826	3779
2521.775	3815
2523.722	3753
2525.668	3789
2527.616	3767
2529.561	3750
2531.508	3753
2533.452	3857
2535.398	3882
2537.342	3726
2539.284	3725
2541.229	3837
2543.173	3851
2545.114	3788
2547.055	3870
2548.996	3778
2550.938	3940
2552.878	3834
2554.817	3800
2556.756	3841
2558.695	3737
2560.633	3752
2562.572	3784
2564.509	3725
2566.445	3861
2568.382	3806
2570.317	3743
2572.254	3843
2574.189	3863
2576.123	3780
2578.057	3806
2579.99	3842
2581.923	3826
2583.855	3784
2585.788	3813
2587.719	3786
2589.65	3872
2591.579	3770
2593.511	3824
2595.44	3843
2597.37	3801
2599.297	3827
2601.225	3853
2603.153	3910
2605.08	3895
2607.007	3819
2608.932	3819
2610.858	3812
2612.782	3837
2614.709	3879
2616.632	3738
2618.556	3845
2620.478	3820
2622.401	3787
2624.324	3867
2626.247	3867
2628.167	3931
2630.088	3917
2632.008	3981
2633.928	3828
2635.848	3824
2637.766	3809
2639.684	3858
2641.603	3867
2643.519	3891
2645.437	3857
2647.353	3825
2649.27	3800
2651.184	3813
2653.099	3805
2655.014	3918
2656.928	3842
2658.842	3820
2660.755	3862
2662.667	3840
2664.579	3761
2666.491	3885
2668.402	3877
2670.312	3761
2672.222	3807
2674.132	3784
2676.042	3766
2677.951	3797
2679.859	3798
2681.766	3831
2683.674	3764
2685.582	3846
2687.488	3783
2689.392	3880
2691.298	3820
2693.202	3728
2695.107	3820
2697.012	3769
2698.914	3684
2700.817	3762
2702.72	3807
2704.622	3814
2706.524	3803
2708.425	3786
2710.326	3814
2712.225	3693
2714.125	3765
2716.024	3764
2717.923	3685
2719.822	3838
2721.719	3790
2723.616	3773
2725.512	3682
2727.41	3753
2729.305	3707
2731.201	3740
2733.095	3828
2734.99	3786
2736.884	3759
2738.778	3803
2740.67	3843
2742.562	3681
2744.455	3793
2746.346	3788
2748.238	3727
2750.129	3759
2752.018	3822
2753.907	3758
2755.797	3805
2757.687	3774
2759.575	3760
2761.462	3746
2763.349	3730
2765.237	3734
2767.124	3737
2769.009	3794
2770.894	3746
2772.779	3828
2774.663	3822
2776.547	3770
2778.431	3763
2780.314	3713
2782.197	3693
2784.078	3799
2785.96	3751
2787.842	3721
2789.723	3763
2791.603	3711
2793.483	3736
2795.362	3738
2797.241	3782
2799.121	3614
2800.997	3727
2802.874	3775
2804.751	3758
2806.628	3714
2808.506	3670
2810.38	3663
2812.255	3705
2814.13	3705
2816.003	3664
2817.878	3821
2819.752	3745
2821.623	3722
2823.496	3643
2825.368	3736
2827.238	3671
2829.111	3671
2830.98	3707
2832.851	3752
2834.719	3785
2836.589	3710
2838.458	3791
2840.327	3711
2842.193	3666
2844.061	3754
2845.927	3837
2847.794	3725
2849.66	3816
2851.525	3811
2853.39	3789
2855.254	3750
2857.117	3747
2858.983	3818
2860.845	3816
2862.707	3834
2864.569	3909
2866.431	3792
2868.293	3855
2870.154	3893
2872.013	3921
2873.873	3926
2875.733	3951
2877.592	3977
2879.451	3981
2881.309	4012
2883.166	3983
2885.022	4108
2886.879	4052
2888.736	4007
2890.591	4079
2892.446	4025
2894.301	4083
2896.155	4056
2898.009	4005
2899.863	4130
2901.716	4003
2903.568	4055
2905.419	3915
2907.27	4009
2909.123	3955
2910.973	4024
2912.824	4166
2914.673	4050
2916.521	4070
2918.372	4046
2920.22	4106
2922.067	4171
2923.914	4198
2925.761	4220
2927.607	4314
2929.455	4248
2931.301	4204
2933.144	4400
2934.99	4365
2936.833	4397
2938.678	4375
2940.522	4416
2942.364	4437
2944.207	4501
2946.048	4505
2947.891	4484
2949.731	4516
2951.571	4411
2953.412	4519
2955.25	4409
2957.09	4402
2958.93	4387
2960.767	4363
2962.606	4364
2964.443	4333
2966.279	4271
2968.116	4227
2969.953	4179
2971.788	4231
2973.623	4121
2975.457	4082
2977.292	4201
2979.127	4023
2980.959	4140
2982.792	4082
2984.624	4098
2986.455	4040
2988.288	4020
2990.119	3955
2991.949	3920
2993.779	3990
2995.608	3867
2997.439	3771
2999.268	3987
3001.096	3880
3002.923	3782
3004.751	3810
3006.578	3807
3008.406	3802
3010.232	3732
3012.057	3724
3013.883	3729
3015.706	3722
3017.532	3664
3019.356	3668
3021.179	3622
3023.002	3696
3024.823	3691
3026.646	3577
3028.469	3625
3030.289	3648
3032.11	3653
3033.93	3637
3035.749	3537
3037.57	3598
3039.39	3569
3041.207	3559
3043.026	3588
3044.842	3651
3046.661	3515
3048.477	3642
3050.294	3595
3052.109	3607
3053.925	3582
3055.739	3545
3057.555	3562
3059.368	3536
3061.181	3588
3062.995	3513
3064.807	3549
3066.62	3528
3068.433	3550
3070.243	3590
3072.054	3602
3073.865	3556
3075.675	3493
3077.485	3578
3079.293	3530
3081.102	3518
3082.911	3583
3084.719	3506
3086.527	3465
3088.333	3470
3090.139	3431
3091.945	3487
3093.75	3388
3095.557	3447
3097.361	3517
3099.165	3435
3100.969	3413
3102.772	3548
3104.575	3432
3106.379	3457
3108.181	3423
3109.982	3461
3111.783	3374
3113.584	3413
3115.386	3487
3117.186	3450
3118.985	3478
3120.783	3376
3122.582	3413
3124.381	3418
3126.179	3485
3127.975	3424
3129.772	3399
3131.569	3420
3133.365	3372
3135.161	3382
3136.956	3406
3138.751	3303
3140.544	3437
3142.338	3344
3144.132	3390
3145.925	3401
3147.717	3346
3149.509	3383
3151.301	3387
3153.091	3419
3154.884	3409
3156.673	3375
3158.462	3445
3160.252	3310
3162.041	3406
3163.831	3358
3165.618	3318
3167.405	3337
3169.193	3394
3170.979	3398
3172.767	3345
3174.553	3349
3176.338	3312
3178.123	3335
3179.907	3382
3181.692	3394
3183.477	3460
3185.259	3305
3187.042	3402
3188.824	3370
3190.607	3393
3192.389	3388
3194.17	3309
3195.951	3328
3197.73	3395
3199.51	3285
3201.289	3338
3203.07	3266
3204.848	3324
3206.626	3472
3208.403	3329
3210.18	3328
3211.959	3293
3213.735	3415
3215.511	3325
3217.285	3340
3219.06	3359
3220.836	3272
3222.611	3358
3224.384	3302
3226.158	3388
3227.929	3369
3229.702	3246
3231.476	3276
3233.248	3219
3235.018	3317
3236.789	3362
3238.56	3286
3240.33	3406
3242.1	3309
3243.869	3342
3245.637	3294
3247.405	3250
3249.172	3300
3250.941	3305
3252.707	3309
3254.474	3359
3256.24	3335
3258.006	3273
3259.772	3289
3261.537	3291
3263.301	3350
3265.065	3323
3266.828	3263
3268.592	3298
3270.355	3323
3272.117	3339
3273.878	3328
3275.64	3371
3277.401	3308
3279.162	3383
3280.922	3243
3282.682	3339
3284.441	3339
3286.199	3314
3287.959	3358
3289.716	3341
3291.475	3381
3293.232	3304
3294.988	3313
3296.744	3317
3298.501	3289
3300.256	3311
3302.011	3350
3303.766	3343
3305.52	3316
3307.275	3306
3309.028	3299
3310.781	3303
3312.533	3320
3314.285	3329
3316.038	3301
3317.789	3308
3319.54	3286
3321.289	3290
3323.039	3307
3324.789	3382
3326.539	3354
3328.288	3332
3330.035	3321
3331.783	3230
3333.531	3231
3335.28	3299
3337.025	3292
3338.771	3290
3340.518	3261
3342.262	3313
3344.009	3289
3345.753	3265
3347.497	3263
3349.24	3343
3350.983	3255
3352.726	3241
3354.469	3204
3356.212	3279
3357.952	3217
3359.694	3308
3361.434	3258
3363.176	3177
3364.916	3200
3366.654	3249
3368.394	3234
3370.132	3213
3371.871	3229
3373.61	3245
3375.346	3309
3377.083	3212
3378.82	3232
3380.556	3237
3382.292	3177
3384.027	3249
3385.763	3149
3387.497	3202
3389.231	3246
3390.965	3220
3392.698	3189
3394.431	3157
3396.164	3208
3397.896	3242
3399.627	3195
3401.36	3215
3403.09	3134
3404.82	3166
3406.55	3169
3408.279	3160
3410.01	3114
3411.738	3153
3413.467	3167
3415.194	3228
3416.92	3138
3418.647	3213
3420.375	3112
3422.102	3125
3423.827	3165
3425.553	3136
3427.277	3176
3429.003	3222
3430.727	3167
3432.451	3165
3434.173	3127
3435.896	3242
3437.62	3108
3439.343	3159
3441.063	3154
3442.785	3113
3444.505	3120
3446.226	3099
3447.948	3230
3449.666	3086
3451.386	3092
3453.104	3085
3454.823	3055
3456.541	3120
3458.259	3097
3459.976	3090
3461.693	3118
3463.408	3074
3465.125	3079
3466.841	3129
3468.556	3087
3470.271	3120
3471.985	3076
3473.698	3036
3475.414	3077
3477.126	3083
3478.838	3032
3480.55	3035
3482.263	3015
3483.975	3003
3485.686	3024
3487.396	3052
3489.106	3039
3490.817	2983
3492.526	3081
3494.236	2997
3495.944	3005
3497.652	3019
3499.359	2977
3501.066	3053
3502.775	3051
3504.481	2946
3506.187	3035
3507.893	3016
3509.598	3087
3511.304	3049
3513.009	2924
3514.713	2985
3516.417	3026
3518.12	3071
3519.821	2918
3521.525	2968
3523.228	2973
3524.929	2954
3526.631	2971
3528.33	2890
3530.032	3008
3531.733	2939
3533.433	2908
3535.131	2902
3536.83	2980
3538.529	2981
3540.227	2985
3541.925	2938
3543.623	2909
3545.319	3047
3547.016	2952
3548.712	2962
3550.408	2939
3552.103	2919
3553.798	2894
3555.491	2943
3557.188	2899
3558.88	2903
3560.574	2944
3562.266	2971
3563.959	2920
3565.651	2908
3567.343	2919
3569.035	2927
3570.725	2938
3572.415	2904
3574.106	2934
3575.797	2933
3577.485	2934
3579.174	2879
3580.863	2858
3582.551	2849
3584.238	2843
3585.926	2832
3587.613	2870
3589.3	2907
3590.986	2896
3592.671	2897
3594.357	2829
3596.042	2912
3597.726	2814
3599.41	2818
3601.094	2884
3602.778	2873
3604.461	2799
3606.143	2832
3607.825	2836
3609.507	2851
3611.188	2867
3612.87	2796
3614.551	2847
3616.229	2805
3617.909	2846
3619.589	2836
3621.269	2760
3622.948	2862
3624.625	2787
3626.302	2749
3627.98	2827
3629.657	2791
3631.334	2826
3633.01	2770
3634.686	2789
3636.361	2750
3638.036	2745
3639.712	2836
3641.385	2751
3643.06	2798
3644.732	2755
3646.405	2751
3648.08	2770
3649.751	2763
3651.424	2681
3653.094	2761
3654.766	2722
3656.436	2708
3658.106	2736
3659.777	2721
3661.446	2751
3663.115	2799
3664.783	2691
3666.452	2710
3668.121	2721
3669.788	2685
3671.454	2706
3673.121	2710
3674.789	2690
3676.455	2688
3678.12	2709
3679.784	2685
3681.45	2727
3683.114	2734
3684.779	2718
3686.442	2712
3688.105	2726
3689.768	2715
3691.43	2718
3693.093	2671
3694.754	2720
3696.415	2686
3698.076	2729
3699.736	2710
3701.396	2705
3703.057	2615
3704.716	2689
3706.375	2743
3708.034	2567
3709.692	2728
3711.351	2663
3713.008	2655
3714.665	2670
3716.321	2657
3717.977	2659
3719.634	2729
3721.29	2726
3722.945	2636
3724.598	2629
3726.253	2647
3727.907	2646
3729.561	2608
3731.214	2669
3732.867	2667
3734.518	2657
3736.171	2663
3737.824	2641
3739.474	2640
3741.125	2607
3742.775	2643
3744.425	2680
3746.074	2669
3747.725	2613
3749.373	2707
3751.022	2659
3752.669	2630
3754.318	2623
3755.966	2589
3757.612	2603
3759.259	2673
3760.905	2611
3762.55	2589
3764.197	2546
3765.842	2605
3767.486	2577
3769.131	2629
3770.774	2601
3772.417	2586
3774.061	2629
3775.705	2654
3777.347	2621
3778.988	2625
3780.629	2554
3782.271	2575
3783.912	2523
3785.552	2622
3787.192	2536
3788.831	2581
3790.472	2585
3792.112	2581
3793.75	2544
3795.388	2596
3797.024	2594
3798.661	2590
3800.3	2582
3801.936	2515
3803.572	2570
3805.208	2532
3806.844	2555
3808.48	2584
3810.115	2512
3811.748	2543
3813.382	2557
3815.016	2579
3816.649	2504
3818.283	2540
3819.914	2561
3821.547	2516
3823.178	2531
3824.809	2513
3826.441	2548
3828.072	2529
3829.701	2516
3831.331	2539
3832.96	2537
3834.591	2515
3836.219	2544
3837.847	2557
3839.475	2521
3841.102	2519
3842.729	2560
3844.357	2538
3845.984	2438
3847.609	2500
3849.234	2475
3850.86	2575
3852.485	2427
3854.11	2547
3855.734	2524
3857.357	2540
3858.981	2543
3860.603	2450
3862.227	2462
3863.848	2568
3865.471	2443
3867.092	2422
3868.713	2439
3870.334	2464
3871.954	2466
3873.575	2466
3875.194	2461
3876.813	2521
3878.433	2523
3880.051	2486
3881.669	2429
3883.286	2457
3884.904	2447
3886.52	2481
3888.138	2521
3889.754	2418
3891.37	2498
3892.985	2419
3894.6	2477
3896.216	2449
3897.831	2451
3899.444	2425
3901.058	2438
3902.67	2497
3904.283	2513
3905.897	2431
3907.509	2476
3909.121	2469
3910.731	2417
3912.342	2452
3913.954	2443
3915.563	2502
3917.174	2434
3918.783	2435
3920.391	2424
3922.002	2412
3923.611	2468
3925.218	2444
3926.826	2431
3928.432	2507
3930.039	2473
3931.647	2415
3933.253	2483
3934.859	2415
3936.464	2411
3938.068	2354
3939.675	2512
3941.278	2380
3942.883	2420
3944.486	2419
3946.089	2431
3947.692	2405
3949.295	2410
3950.898	2375
3952.499	2431
3954.1	2411
3955.7	2394
3957.303	2348
3958.903	2474
3960.502	2430
3962.101	2410
3963.7	2416
3965.301	2428
3966.899	2402
3968.497	2355
3970.094	2357
3971.691	2335
3973.288	2369
3974.885	2378
3976.481	2392
3978.077	2433
3979.672	2325
3981.267	2382
3982.863	2334
3984.457	2319
3986.051	2414
3987.645	2370
3989.238	2306
3990.831	2305
3992.425	2282
3994.017	2344
3995.607	2347
3997.199	2378
3998.79	2369
4000.382	2385
4001.973	2341
4003.561	2345
4005.151	2262
4006.741	2325
4008.331	2357
4009.918	2370
4011.507	2319
4013.095	2331
4014.681	2235
4016.269	2307
4017.856	2304
4019.443	2334
4021.028	2286
4022.614	2350
4024.199	2323
4025.785	2315
4027.37	2269
4028.953	2299
4030.536	2258
4032.12	2290
4033.704	2304
4035.287	2334
4036.869	2313
4038.45	2205
4040.032	2250
4041.613	2299
4043.195	2275
4044.776	2318
4046.356	2261
4047.935	2235
4049.515	2194
4051.095	2280
4052.674	2237
4054.251	2240
4055.829	2189
4057.406	2230
4058.985	2278
4060.562	2274
4062.139	2250
4063.715	2258
4065.29	2248
4066.865	2224
4068.442	2192
4070.016	2228
4071.59	2249
4073.164	2256
4074.738	2266
4076.312	2156
4077.885	2260
4079.458	2253
4081.03	2306
4082.602	2201
4084.173	2258
4085.745	2255
4087.315	2247
4088.886	2214
4090.456	2204
4092.026	2212
4093.596	2187
4095.165	2260
4096.734	2202
4098.301	2189
4099.869	2216
4101.437	2234
4103.006	2199
4104.572	2200
4106.139	2212
4107.704	2162
4109.27	2169
4110.837	2186
4112.401	2173
4113.966	2195
4115.53	2224
4117.094	2194
4118.659	2149
4120.223	2227
4121.785	2144
4123.347	2218
4124.909	2232
4126.471	2189
4128.034	2183
4129.595	2167
4131.155	2120
4132.716	2176
4134.275	2183
4135.836	2125
4137.395	2065
4138.955	2151
4140.513	2214
4142.071	2172
4143.628	2189
4145.188	2109
4146.745	2154
4148.302	2127
4149.858	2105
4151.414	2155
4152.971	2161
4154.526	2164
4156.081	2152
4157.635	2090
4159.189	2170
4160.745	2101
4162.298	2169
4163.852	2061
4165.405	2146
4166.957	2135
4168.51	2136
4170.063	2126
4171.614	2077
4173.166	2102
4174.717	2157
4176.267	2167
4177.817	2129
4179.368	2075
4180.917	2066
4182.466	2135
4184.016	2152
4185.564	2074
4187.112	2125
4188.66	2067
4190.207	2065
4191.754	2103
4193.301	2047
4194.848	2119
4196.394	2102
4197.94	2061
4199.484	2016
4201.03	2131
4202.575	2041
4204.12	2053
4205.663	2091
4207.207	2012
4208.75	2081
4210.292	2054
4211.836	2089
4213.378	2080
4214.92	2049
4216.46	2018
4218.002	2053
4219.544	2083
4221.083	2018
4222.625	2076
4224.164	2046
4225.703	2037
4227.244	2039
4228.782	2015
4230.32	2052
4231.857	2067
4233.395	2071
4234.933	2020
4236.471	2106
4238.007	2065
4239.542	2101
4241.078	2086
4242.614	2061
4244.15	2045
4245.685	2000
4247.219	1993
4248.753	2030
4250.287	2014
4251.82	1983
4253.354	2027
4254.887	1988
4256.419	2060
4257.951	2053
4259.483	2039
4261.016	1970
4262.547	2004
4264.078	2001
4265.608	2082
4267.137	1997
4268.668	2042
4270.197	2024
4271.727	1982
4273.254	1979
4274.783	1988
4276.311	1999
4277.84	1996
4279.366	2024
4280.894	1990
4282.42	1981
4283.946	2022
4285.473	1985
4286.998	1988
4288.523	2001
4290.047	2058
4291.572	2031
4293.096	2041
4294.622	2007
4296.144	1992
4297.668	1922
4299.19	1991
4300.713	1903
4302.236	2017
4303.758	1969
4305.279	1943
4306.799	2016
4308.321	1954
4309.842	1948
4311.361	1961
4312.882	1929
4314.401	2002
