400.0961	2960
402.6185	2965
405.1424	3009
407.6635	2982
410.1838	3079
412.7035	2963
415.2225	3020
417.7388	3188
420.2585	3083
422.7754	3112
425.2917	3128
427.8072	3187
430.3221	3143
432.8363	3214
435.3498	3174
437.8626	3174
440.3727	3228
442.8841	3202
445.3969	3130
447.907	3195
450.4142	3125
452.9229	3176
455.4289	3210
457.9362	3252
460.4449	3140
462.9488	3163
465.454	3173
467.9566	3128
470.4604	3176
472.9637	3213
475.4662	3205
477.966	3205
480.4671	3086
482.9656	3132
485.4633	3197
487.9645	3135
490.4608	3201
492.9566	3157
495.4536	3177
497.948	3217
500.4437	3217
502.9387	3244
505.431	3225
507.9226	3263
510.4136	3201
512.9079	3287
515.3975	3265
517.8864	3330
520.3746	3321
522.8622	3268
525.3491	3239
527.8394	3253
530.3249	3245
532.8098	3201
535.2939	3290
537.7774	3298
540.2623	3227
542.7444	3238
545.2259	3260
547.7067	3267
550.1868	3294
552.6683	3295
555.147	3342
557.6231	3303
560.1005	3295
562.5773	3325
565.0534	3279
567.5308	3320
570.0056	3337
572.4776	3410
574.951	3359
577.4237	3474
579.8978	3371
582.3671	3437
584.8378	3502
587.3079	3421
589.7773	3436
592.244	3417
594.714	3446
597.1793	3438
599.6461	3342
602.1121	3426
604.5754	3409
607.0421	3346
609.5042	3396
611.9675	3430
614.4282	3337
616.8902	3391
619.3515	3433
621.8122	3486
624.2702	3396
626.7296	3361
629.1863	3353
631.6423	3253
634.1017	3355
636.5563	3253
639.0104	3353
641.4658	3370
643.9185	3392
646.3725	3464
648.8239	3435
651.2766	3402
653.7266	3386
656.176	3381
658.6247	3424
661.0748	3429
663.5242	3457
665.9709	3477
668.417	3405
670.8624	3447
673.3092	3415
675.7533	3553
678.1968	3454
680.6395	3524
683.0817	3368
685.5251	3448
687.9659	3509
690.4061	3487
692.8456	3523
695.2844	3486
697.7226	3527
700.1621	3573
702.599	3496
705.0332	3563
707.4688	3527
709.9036	3540
712.3399	3563
714.7735	3585
717.2044	3489
719.6367	3562
722.0683	3566
724.4993	3626
726.9296	3597
729.3593	3556
731.7883	3495
734.2147	3670
736.6423	3563
739.0714	3553
741.4958	3583
743.9216	3662
746.3447	3613
748.7691	3606
751.1929	3620
753.616	3606
756.0366	3615
758.4584	3628
760.8776	3735
763.2982	3723
765.718	3685
768.1373	3740
770.5539	3694
772.9698	3736
775.3871	3677
777.8038	3709
780.2178	3701
782.6332	3774
785.0459	3818
787.458	3697
789.8714	3734
792.2842	3726
794.6943	3727
797.1038	3761
799.5127	3733
801.9209	3673
804.3324	3758
806.7393	3677
809.1456	3744
811.5513	3750
813.9562	3737
816.3625	3850
818.7663	3771
821.1693	3860
823.5718	3733
825.9735	3779
828.3746	3739
830.7771	3741
833.177	3777
835.5762	3724
837.9747	3761
840.3727	3792
842.772	3776
845.1666	3853
847.5626	3919
849.958	3816
852.3527	3955
854.7488	3836
857.1403	3865
859.5331	3912
861.9253	3815
864.3168	3881
866.7057	3792
869.098	3801
871.4876	3788
873.8746	3868
876.263	3889
878.6487	3833
881.0378	3775
883.4243	3764
885.8081	3789
888.1933	3835
890.5759	3852
892.9598	3833
895.343	3861
897.7256	3783
900.1057	3803
902.4871	3805
904.8659	3878
907.246	3820
909.6254	3898
912.0023	3905
914.3786	3920
916.7562	3986
919.1331	3972
921.5074	3923
923.8831	3969
926.2562	4104
928.6287	4031
931.0005	4037
933.3757	3976
935.7462	4068
938.1162	3968
940.4855	4133
942.8542	4143
945.2242	4146
947.5916	4328
949.9584	4348
952.3266	4552
954.6921	4646
957.0571	4786
959.4233	4935
961.787	5032
964.15	4947
966.5125	4866
968.8742	4676
971.2354	4423
973.5959	4326
975.9559	4242
978.3151	4129
980.6738	4108
983.0338	4027
985.3912	3988
987.7461	4029
990.1022	4064
992.4578	4047
994.8127	4064
997.1689	3990
999.5207	3969
1001.874	4026
1004.226	4123
1006.576	3974
1008.929	4029
1011.28	4022
1013.628	4004
1015.977	4105
1018.324	4092
1020.674	4048
1023.019	4032
1025.366	4074
1027.713	4105
1030.056	4100
1032.399	4089
1034.746	4197
1037.087	4054
1039.431	4119
1041.771	4048
1044.113	4097
1046.454	4094
1048.793	4086
1051.133	4136
1053.471	4096
1055.807	4045
1058.146	4150
1060.483	4115
1062.818	4102
1065.153	4142
1067.489	4233
1069.822	4173
1072.156	4235
1074.488	4115
1076.82	4302
1079.15	4235
1081.48	4146
1083.814	4165
1086.143	4069
1088.471	4135
1090.799	4091
1093.126	4042
1095.452	4132
1097.78	4166
1100.105	4089
1102.43	4051
1104.754	4076
1107.077	4130
1109.4	4165
1111.722	4205
1114.044	4048
1116.365	4131
1118.685	4138
1121.005	4124
1123.324	4245
1125.643	4075
1127.961	4178
1130.278	3985
1132.595	4149
1134.911	4165
1137.226	4147
1139.541	4124
1141.854	4230
1144.167	4129
1146.482	4170
1148.793	4143
1151.105	4161
1153.414	4107
1155.725	4018
1158.033	4093
1160.344	4134
1162.651	4166
1164.959	4136
1167.265	4074
1169.572	4126
1171.878	4172
1174.184	4165
1176.488	4101
1178.79	4118
1181.094	4166
1183.396	4183
1185.699	4038
1188.001	4139
1190.301	4069
1192.6	4133
1194.9	4163
1197.2	4030
1199.497	4099
1201.794	4199
1204.09	4122
1206.387	4189
1208.684	4161
1210.978	4035
1213.272	4154
1215.565	4160
1217.858	4139
1220.15	4276
1222.443	4152
1224.734	4167
1227.024	4180
1229.313	4171
1231.602	4186
1233.892	4223
1236.18	4251
1238.467	4215
1240.754	4324
1243.04	4273
1245.325	4233
1247.612	4267
1249.896	4333
1252.178	4359
1254.461	4327
1256.743	4289
1259.027	4315
1261.308	4313
1263.587	4308
1265.867	4347
1268.146	4322
1270.425	4260
1272.703	4296
1274.981	4278
1277.256	4260
1279.532	4272
1281.808	4314
1284.083	4277
1286.358	4217
1288.63	4274
1290.904	4253
1293.175	4193
1295.449	4292
1297.719	4251
1299.99	4284
1302.259	4184
1304.529	4161
1306.798	4249
1309.065	4249
1311.333	4272
1313.599	4302
1315.866	4184
1318.131	4344
1320.396	4149
1322.66	4233
1324.925	4270
1327.187	4312
1329.448	4286
1331.711	4371
1333.974	4296
1336.234	4210
1338.493	4188
1340.752	4229
1343.01	4261
1345.269	4212
1347.526	4375
1349.784	4264
1352.04	4316
1354.295	4256
1356.552	4223
1358.806	4215
1361.059	4231
1363.312	4159
1365.564	4257
1367.818	4211
1370.069	4243
1372.318	4242
1374.568	4224
1376.817	4360
1379.066	4307
1381.316	4350
1383.564	4309
1385.809	4361
1388.056	4293
1390.301	4352
1392.549	4336
1394.793	4381
1397.036	4350
1399.279	4380
1401.522	4323
1403.763	4338
1406.007	4400
1408.248	4420
1410.487	4397
1412.727	4380
1414.965	4378
1417.205	4449
1419.442	4481
1421.68	4421
1423.915	4469
1426.152	4491
1428.388	4415
1430.623	4357
1432.857	4489
1435.091	4443
1437.323	4419
1439.556	4328
1441.789	4503
1444.019	4494
1446.25	4413
1448.48	4490
1450.708	4496
1452.938	4437
1455.167	4545
1457.394	4494
1459.62	4494
1461.846	4447
1464.073	4559
1466.299	4449
1468.523	4408
1470.746	4479
1472.969	4367
1475.191	4354
1477.415	4435
1479.636	4400
1481.858	4378
1484.078	4284
1486.298	4246
1488.518	4331
1490.736	4386
1492.954	4326
1495.169	4348
1497.386	4348
1499.602	4342
1501.819	4243
1504.034	4178
1506.248	4348
1508.462	4338
1510.675	4237
1512.888	4315
1515.1	4238
1517.311	4208
1519.522	4341
1521.732	4253
1523.942	4400
1526.151	4295
1528.36	4275
1530.566	4290
1532.773	4359
1534.98	4310
1537.187	4277
1539.392	4301
1541.596	4391
1543.801	4338
1546.005	4394
1548.208	4242
1550.411	4287
1552.612	4347
1554.814	4396
1557.013	4306
1559.212	4361
1561.414	4395
1563.612	4312
1565.811	4429
1568.007	4410
1570.203	4355
1572.403	4408
1574.598	4390
1576.792	4316
1578.988	4398
1581.181	4457
1583.376	4364
1585.568	4443
1587.761	4456
1589.952	4482
1592.143	4492
1594.333	4400
1596.524	4440
1598.715	4364
1600.903	4454
1603.091	4477
1605.278	4454
1607.466	4329
1609.652	4591
1611.838	4463
1614.023	4490
1616.207	4411
1618.391	4528
1620.576	4437
1622.759	4506
1624.941	4478
1627.123	4510
1629.304	4572
1631.484	4553
1633.664	4417
1635.844	4477
1638.022	4535
1640.201	4538
1642.38	4497
1644.556	4539
1646.732	4545
1648.908	4469
1651.084	4561
1653.257	4502
1655.433	4486
1657.607	4553
1659.779	4568
1661.951	4437
1664.122	4616
1666.295	4569
1668.467	4592
1670.635	4618
1672.805	4543
1674.973	4545
1677.142	4464
1679.31	4491
1681.478	4552
1683.644	4548
1685.81	4544
1687.975	4559
1690.142	4514
1692.305	4388
1694.468	4538
1696.632	4450
1698.794	4456
1700.957	4434
1703.119	4509
1705.279	4452
1707.439	4525
1709.598	4434
1711.758	4396
1713.917	4534
1716.075	4368
1718.231	4523
1720.388	4491
1722.543	4439
1724.702	4370
1726.856	4468
1729.01	4475
1731.164	4458
1733.317	4455
1735.471	4476
1737.623	4508
1739.774	4391
1741.925	4552
1744.075	4432
1746.225	4409
1748.376	4406
1750.524	4452
1752.672	4396
1754.82	4427
1756.965	4425
1759.113	4390
1761.259	4481
1763.405	4441
1765.549	4544
1767.694	4481
1769.836	4384
1771.981	4593
1774.123	4490
1776.264	4427
1778.405	4535
1780.546	4506
1782.687	4348
1784.827	4490
1786.966	4544
1789.103	4472
1791.242	4470
1793.381	4520
1795.517	4475
1797.653	4480
1799.788	4573
1801.923	4470
1804.057	4409
1806.193	4441
1808.326	4542
1810.457	4511
1812.59	4476
1814.721	4533
1816.855	4403
1818.984	4488
1821.113	4495
1823.244	4519
1825.372	4492
1827.499	4516
1829.63	4458
1831.756	4417
1833.882	4493
1836.007	4330
1838.132	4421
1840.26	4518
1842.384	4472
1844.507	4421
1846.63	4461
1848.752	4473
1850.875	4558
1852.996	4368
1855.118	4513
1857.238	4415
1859.358	4532
1861.477	4465
1863.597	4477
1865.715	4393
1867.832	4364
1869.948	4460
1872.064	4465
1874.181	4405
1876.297	4467
1878.411	4415
1880.526	4501
1882.639	4467
1884.752	4449
1886.865	4495
1888.977	4432
1891.089	4493
1893.2	4474
1895.308	4523
1897.42	4455
1899.53	4445
1901.639	4423
1903.745	4402
1905.853	4586
1907.962	4569
1910.067	4552
1912.174	4395
1914.278	4563
1916.383	4489
1918.486	4459
1920.592	4512
1922.694	4475
1924.797	4461
1926.898	4542
1929	4556
1931.102	4561
1933.203	4456
1935.301	4439
1937.401	4545
1939.499	4595
1941.598	4568
1943.697	4665
1945.793	4527
1947.888	4496
1949.985	4525
1952.08	4522
1954.176	4515
1956.269	4566
1958.364	4491
1960.457	4503
1962.549	4601
1964.642	4546
1966.733	4472
1968.823	4412
1970.913	4490
1973.005	4552
1975.093	4552
1977.184	4472
1979.271	4530
1981.359	4520
1983.446	4507
1985.532	4503
1987.619	4470
1989.705	4520
1991.789	4476
1993.874	4452
1995.956	4614
1998.041	4559
2000.123	4500
2002.206	4472
2004.287	4523
2006.368	4468
2008.449	4541
2010.529	4459
2012.609	4549
2014.688	4489
2016.766	4476
2018.843	4494
2020.922	4470
2022.999	4496
2025.074	4483
2027.15	4489
2029.225	4460
2031.299	4446
2033.375	4531
2035.447	4469
2037.52	4419
2039.592	4521
2041.664	4456
2043.736	4465
2045.807	4469
2047.876	4549
2049.947	4445
2052.015	4521
2054.086	4562
2056.153	4557
2058.221	4502
2060.288	4523
2062.353	4522
2064.42	4532
2066.486	4460
2068.55	4515
2070.614	4431
2072.678	4593
2074.741	4471
2076.805	4546
2078.866	4617
2080.929	4464
2082.99	4526
2085.049	4494
2087.109	4480
2089.17	4476
2091.228	4541
2093.286	4474
2095.344	4521
2097.4	4431
2099.46	4479
2101.516	4559
2103.572	4567
2105.626	4576
2107.679	4423
2109.735	4522
2111.788	4472
2113.841	4387
2115.894	4469
2117.945	4511
2119.997	4493
2122.049	4544
2124.1	4491
2126.148	4391
2128.197	4505
2130.246	4448
2132.296	4523
2134.342	4454
2136.39	4442
2138.437	4535
2140.483	4480
2142.527	4486
2144.574	4527
2146.619	4532
2148.661	4423
2150.705	4498
2152.747	4544
2154.792	4475
2156.832	4483
2158.874	4435
2160.915	4497
2162.954	4446
2164.995	4456
2167.034	4573
2169.072	4486
2171.111	4506
2173.148	4528
2175.186	4490
2177.223	4495
2179.258	4420
2181.294	4478
2183.328	4453
2185.362	4409
2187.398	4398
2189.431	4380
2191.463	4380
2193.495	4400
2195.528	4391
2197.56	4422
2199.59	4424
2201.62	4432
2203.649	4430
2205.678	4478
2207.708	4298
2209.737	4338
2211.764	4334
2213.791	4463
2215.817	4396
2217.843	4418
2219.87	4302
2221.895	4381
2223.919	4391
2225.942	4318
2227.966	4393
2229.988	4358
2232.012	4352
2234.032	4416
2236.054	4375
2238.074	4342
2240.095	4440
2242.116	4360
2244.135	4396
2246.153	4384
2248.171	4407
2250.188	4468
2252.208	4397
2254.223	4350
2256.239	4351
2258.255	4319
2260.269	4413
2262.283	4347
2264.3	4366
2266.312	4320
2268.325	4447
2270.336	4357
2272.349	4448
2274.362	4361
2276.372	4371
2278.383	4399
2280.392	4401
2282.402	4352
2284.409	4441
2286.418	4516
2288.427	4371
2290.433	4346
2292.441	4395
2294.446	4341
2296.453	4371
2298.459	4490
2300.463	4326
2302.466	4325
2304.471	4388
2306.475	4326
2308.477	4413
2310.478	4304
2312.481	4322
2314.481	4330
2316.481	4413
2318.482	4375
2320.482	4306
2322.48	4319
2324.48	4373
2326.478	4363
2328.476	4283
2330.473	4405
2332.469	4316
2334.465	4300
2336.46	4393
2338.454	4305
2340.45	4340
2342.444	4311
2344.437	4202
2346.43	4362
2348.421	4374
2350.414	4350
2352.405	4380
2354.396	4405
2356.386	4274
2358.376	4279
2360.366	4344
2362.355	4247
2364.343	4398
2366.331	4295
2368.317	4329
2370.304	4256
2372.292	4423
2374.278	4262
2376.262	4277
2378.247	4301
2380.23	4357
2382.216	4273
2384.199	4190
2386.181	4261
2388.163	4210
2390.144	4327
2392.127	4267
2394.107	4282
2396.087	4260
2398.066	4294
2400.046	4288
2402.023	4228
2404.004	4277
2405.981	4231
2407.957	4258
2409.934	4204
2411.91	4321
2413.886	4189
2415.862	4279
2417.836	4221
2419.809	4231
2421.784	4268
2423.756	4166
2425.73	4207
2427.701	4197
2429.672	4125
2431.644	4269
2433.615	4300
2435.586	4294
2437.555	4297
2439.523	4240
2441.491	4226
2443.459	4248
2445.428	4250
2447.395	4274
2449.361	4226
2451.327	4221
2453.292	4237
2455.257	4206
2457.223	4241
2459.187	4283
2461.15	4137
2463.113	4160
2465.076	4281
2467.039	4155
2468.999	4208
2470.96	4260
2472.921	4183
2474.881	4155
2476.841	4183
2478.8	4295
2480.759	4217
2482.717	4265
2484.675	4232
2486.63	4300
2488.589	4206
2490.545	4189
2492.5	4142
2494.455	4243
2496.408	4234
2498.364	4216
2500.318	4134
2502.27	4182
2504.223	4156
2506.174	4177
2508.126	4164
2510.078	4179
2512.03	4191
2513.979	4162
2515.927	4057
2517.877	4250
2519.826	4265
2521.775	4126
2523.722	4161
2525.668	4114
2527.616	4110
2529.561	4165
2531.508	4200
2533.452	4215
2535.398	4112
2537.342	4185
2539.284	4155
2541.229	4197
2543.173	4145
2545.114	4171
2547.055	4189
2548.996	4158
2550.938	4144
2552.878	4170
2554.817	4180
2556.756	4077
2558.695	4204
2560.633	4207
2562.572	4178
2564.509	4203
2566.445	4166
2568.382	4262
2570.317	4111
2572.254	4175
2574.189	4141
2576.123	4125
2578.057	4186
2579.99	4156
2581.923	4067
2583.855	4163
2585.788	4177
2587.719	4179
2589.65	4097
2591.579	4198
2593.511	4123
2595.44	4174
2597.37	4125
2599.297	4166
2601.225	4113
2603.153	4140
2605.08	4145
2607.007	4100
2608.932	4163
2610.858	4215
2612.782	4151
2614.709	4163
2616.632	4241
2618.556	4148
2620.478	4164
2622.401	4161
2624.324	4235
2626.247	4168
2628.167	4154
2630.088	4138
2632.008	4087
2633.928	4190
2635.848	4147
2637.766	4125
2639.684	4161
2641.603	4121
2643.519	4171
2645.437	4194
2647.353	4078
2649.27	4228
2651.184	4127
2653.099	4219
2655.014	4158
2656.928	4254
2658.842	4131
2660.755	4085
2662.667	4176
2664.579	4134
2666.491	4242
2668.402	4097
2670.312	4162
2672.222	4101
2674.132	4162
2676.042	4094
2677.951	4133
2679.859	4176
2681.766	4143
2683.674	4127
2685.582	4189
2687.488	4164
2689.392	4119
2691.298	4112
2693.202	4139
2695.107	4056
2697.012	4107
2698.914	4126
2700.817	4024
2702.72	4122
2704.622	4108
2706.524	4110
2708.425	4037
2710.326	4160
2712.225	4076
2714.125	4061
2716.024	4089
2717.923	4183
2719.822	4109
2721.719	4194
2723.616	4026
2725.512	4118
2727.41	4087
2729.305	4038
2731.201	4150
2733.095	4085
2734.99	4123
2736.884	4084
2738.778	4106
2740.67	4046
2742.562	4128
2744.455	4100
2746.346	4040
2748.238	4116
2750.129	4118
2752.018	4109
2753.907	4092
2755.797	4111
2757.687	4052
2759.575	4063
2761.462	4031
2763.349	4032
2765.237	4033
2767.124	4003
2769.009	4148
2770.894	4007
2772.779	4125
2774.663	4007
2776.547	4081
2778.431	4090
2780.314	4021
2782.197	3953
2784.078	4034
2785.96	3973
2787.842	4080
2789.723	3981
2791.603	4002
2793.483	4095
2795.362	3933
2797.241	4034
2799.121	3986
2800.997	4036
2802.874	4054
2804.751	3935
2806.628	4010
2808.506	3962
2810.38	4022
2812.255	3994
2814.13	4043
2816.003	3989
2817.878	3870
2819.752	3946
2821.623	3995
2823.496	3967
2825.368	4026
2827.238	3920
2829.111	4024
2830.98	3961
2832.851	3957
2834.719	4017
2836.589	4084
2838.458	4038
2840.327	4055
2842.193	4038
2844.061	4034
2845.927	4026
2847.794	3997
2849.66	3979
2851.525	4077
2853.39	4089
2855.254	4042
2857.117	4061
2858.983	4123
2860.845	4151
2862.707	4119
2864.569	4202
2866.431	4093
2868.293	4050
2870.154	4062
2872.013	4203
2873.873	4185
2875.733	4253
2877.592	4230
2879.451	4269
2881.309	4382
2883.166	4365
2885.022	4376
2886.879	4389
2888.736	4264
2890.591	4404
2892.446	4400
2894.301	4323
2896.155	4370
2898.009	4336
2899.863	4357
2901.716	4317
2903.568	4371
2905.419	4302
2907.27	4324
2909.123	4348
2910.973	4349
2912.824	4370
2914.673	4411
2916.521	4361
2918.372	4455
2920.22	4429
2922.067	4496
2923.914	4473
2925.761	4544
2927.607	4535
2929.455	4600
2931.301	4634
2933.144	4564
2934.99	4727
2936.833	4755
2938.678	4708
2940.522	4816
2942.364	4796
2944.207	4848
2946.048	4820
2947.891	4851
2949.731	4885
2951.571	4820
2953.412	4923
2955.25	4761
2957.09	4811
2958.93	4719
2960.767	4792
2962.606	4710
2964.443	4648
2966.279	4616
2968.116	4520
2969.953	4585
2971.788	4546
2973.623	4518
2975.457	4511
2977.292	4469
2979.127	4385
2980.959	4526
2982.792	4367
2984.624	4324
2986.455	4446
2988.288	4314
2990.119	4336
2991.949	4339
2993.779	4254
2995.608	4264
2997.439	4293
2999.268	4215
3001.096	4198
3002.923	4149
3004.751	4083
3006.578	4019
3008.406	4149
3010.232	4026
3012.057	4013
3013.883	4033
3015.706	4040
3017.532	4009
3019.356	3982
3021.179	3958
3023.002	3954
3024.823	3929
3026.646	3867
3028.469	3851
3030.289	3945
3032.11	3857
3033.93	3942
3035.749	3872
3037.57	3786
3039.39	3883
3041.207	3777
3043.026	3857
3044.842	3818
3046.661	3852
3048.477	3907
3050.294	3803
3052.109	3888
3053.925	3863
3055.739	3800
3057.555	3831
3059.368	3925
3061.181	3914
3062.995	3826
3064.807	3858
3066.62	3832
3068.433	3814
3070.243	3852
3072.054	3787
3073.865	3817
3075.675	3859
3077.485	3847
3079.293	3745
3081.102	3757
3082.911	3875
3084.719	3772
3086.527	3782
3088.333	3799
3090.139	3709
3091.945	3712
3093.75	3741
3095.557	3790
3097.361	3791
3099.165	3729
3100.969	3734
3102.772	3728
3104.575	3666
3106.379	3701
3108.181	3664
3109.982	3741
3111.783	3706
3113.584	3676
3115.386	3718
3117.186	3671
3118.985	3669
3120.783	3666
3122.582	3679
3124.381	3676
3126.179	3663
3127.975	3712
3129.772	3653
3131.569	3632
3133.365	3597
3135.161	3746
3136.956	3661
3138.751	3638
3140.544	3629
3142.338	3623
3144.132	3617
3145.925	3646
3147.717	3709
3149.509	3607
3151.301	3711
3153.091	3673
3154.884	3684
3156.673	3634
3158.462	3553
3160.252	3660
3162.041	3595
3163.831	3595
3165.618	3621
3167.405	3583
3169.193	3697
3170.979	3499
3172.767	3682
3174.553	3620
3176.338	3685
3178.123	3651
3179.907	3579
3181.692	3544
3183.477	3657
3185.259	3573
3187.042	3560
3188.824	3510
3190.607	3583
3192.389	3525
3194.17	3543
3195.951	3600
3197.73	3567
3199.51	3584
3201.289	3568
3203.07	3644
3204.848	3574
3206.626	3522
3208.403	3609
3210.18	3597
3211.959	3650
3213.735	3548
3215.511	3630
3217.285	3613
3219.06	3594
3220.836	3624
3222.611	3617
3224.384	3522
3226.158	3571
3227.929	3564
3229.702	3524
3231.476	3637
3233.248	3631
3235.018	3532
3236.789	3576
3238.56	3576
3240.33	3552
3242.1	3511
3243.869	3559
3245.637	3592
3247.405	3468
3249.172	3542
3250.941	3599
3252.707	3495
3254.474	3649
3256.24	3543
3258.006	3469
3259.772	3601
3261.537	3515
3263.301	3600
3265.065	3568
3266.828	3581
3268.592	3532
3270.355	3590
3272.117	3495
3273.878	3539
3275.64	3558
3277.401	3562
3279.162	3581
3280.922	3620
3282.682	3586
3284.441	3629
3286.199	3601
3287.959	3557
3289.716	3518
3291.475	3617
3293.232	3609
3294.988	3524
3296.744	3608
3298.501	3536
3300.256	3566
3302.011	3631
3303.766	3500
3305.52	3565
3307.275	3539
3309.028	3559
3310.781	3537
3312.533	3509
3314.285	3625
3316.038	3533
3317.789	3548
3319.54	3536
3321.289	3547
3323.039	3576
3324.789	3519
3326.539	3542
3328.288	3510
3330.035	3553
3331.783	3636
3333.531	3567
3335.28	3521
3337.025	3511
3338.771	3531
3340.518	3538
3342.262	3547
3344.009	3505
3345.753	3543
3347.497	3580
3349.24	3459
3350.983	3469
3352.726	3461
3354.469	3448
3356.212	3444
3357.952	3541
3359.694	3520
3361.434	3486
3363.176	3443
3364.916	3531
3366.654	3459
3368.394	3424
3370.132	3509
3371.871	3505
3373.61	3479
3375.346	3462
3377.083	3539
3378.82	3435
3380.556	3408
3382.292	3569
3384.027	3453
3385.763	3441
3387.497	3453
3389.231	3436
3390.965	3451
3392.698	3408
3394.431	3379
3396.164	3474
3397.896	3434
3399.627	3511
3401.36	3428
3403.09	3396
3404.82	3387
3406.55	3431
3408.279	3406
3410.01	3348
3411.738	3445
3413.467	3380
3415.194	3382
3416.92	3427
3418.647	3394
3420.375	3336
3422.102	3371
3423.827	3449
3425.553	3398
3427.277	3359
3429.003	3426
3430.727	3344
3432.451	3357
3434.173	3399
3435.896	3330
3437.62	3348
3439.343	3342
3441.063	3354
3442.785	3403
3444.505	3205
3446.226	3353
3447.948	3339
3449.666	3251
3451.386	3307
3453.104	3362
3454.823	3310
3456.541	3279
3458.259	3327
3459.976	3286
3461.693	3327
3463.408	3289
3465.125	3281
3466.841	3298
3468.556	3319
3470.271	3249
3471.985	3227
3473.698	3318
3475.414	3281
3477.126	3183
3478.838	3264
3480.55	3170
3482.263	3195
3483.975	3209
3485.686	3238
3487.396	3240
3489.106	3282
3490.817	3258
3492.526	3175
3494.236	3202
3495.944	3229
3497.652	3206
3499.359	3273
3501.066	3098
3502.775	3163
3504.481	3253
3506.187	3154
3507.893	3179
3509.598	3179
3511.304	3221
3513.009	3188
3514.713	3196
3516.417	3196
3518.12	3214
3519.821	3217
3521.525	3175
3523.228	3173
3524.929	3167
3526.631	3158
3528.33	3084
3530.032	3120
3531.733	3160
3533.433	3123
3535.131	3188
3536.83	3136
3538.529	3198
3540.227	3125
3541.925	3100
3543.623	3056
3545.319	3113
3547.016	3148
3548.712	3128
3550.408	3119
3552.103	3099
3553.798	3043
3555.491	3135
3557.188	2989
3558.88	3048
3560.574	3029
3562.266	3096
3563.959	3131
3565.651	3103
3567.343	3107
3569.035	3072
3570.725	3076
3572.415	3009
3574.106	3018
3575.797	3070
3577.485	3051
3579.174	3003
3580.863	3098
3582.551	3020
3584.238	3035
3585.926	3057
3587.613	3036
3589.3	2991
3590.986	2871
3592.671	2991
3594.357	3024
3596.042	3046
3597.726	3029
3599.41	3038
3601.094	3060
3602.778	3111
3604.461	2953
3606.143	3006
3607.825	3038
3609.507	2999
3611.188	2943
3612.87	2964
3614.551	2875
3616.229	2976
3617.909	2964
3619.589	2884
3621.269	2911
3622.948	2892
3624.625	2878
3626.302	2993
3627.98	2965
3629.657	2975
3631.334	2878
3633.01	2973
3634.686	2926
3636.361	2913
3638.036	2936
3639.712	2937
3641.385	2866
3643.06	2911
3644.732	2857
3646.405	2962
3648.08	2871
3649.751	2923
3651.424	2824
3653.094	2928
3654.766	2876
3656.436	2940
3658.106	2813
3659.777	2876
3661.446	2780
3663.115	2853
3664.783	2881
3666.452	2802
3668.121	2902
3669.788	2848
3671.454	2800
3673.121	2887
3674.789	2838
3676.455	2834
3678.12	2819
3679.784	2843
3681.45	2948
3683.114	2713
3684.779	2771
3686.442	2777
3688.105	2874
3689.768	2824
3691.43	2803
3693.093	2732
3694.754	2825
3696.415	2800
3698.076	2728
3699.736	2815
3701.396	2786
3703.057	2843
3704.716	2798
3706.375	2788
3708.034	2790
3709.692	2732
3711.351	2788
3713.008	2750
3714.665	2808
3716.321	2796
3717.977	2729
3719.634	2818
3721.29	2788
3722.945	2770
3724.598	2745
3726.253	2781
3727.907	2766
3729.561	2829
3731.214	2795
3732.867	2756
3734.518	2764
3736.171	2725
3737.824	2803
3739.474	2747
3741.125	2734
3742.775	2754
3744.425	2827
3746.074	2763
3747.725	2719
3749.373	2750
3751.022	2742
3752.669	2629
3754.318	2758
3755.966	2811
3757.612	2775
3759.259	2740
3760.905	2750
3762.55	2724
3764.197	2656
3765.842	2723
3767.486	2723
3769.131	2697
3770.774	2657
3772.417	2669
3774.061	2818
3775.705	2679
3777.347	2681
3778.988	2655
3780.629	2691
3782.271	2669
3783.912	2717
3785.552	2624
3787.192	2699
3788.831	2670
3790.472	2667
3792.112	2695
3793.75	2677
3795.388	2660
3797.024	2666
3798.661	2638
3800.3	2660
3801.936	2712
3803.572	2630
3805.208	2656
3806.844	2709
3808.48	2703
3810.115	2665
3811.748	2621
3813.382	2697
3815.016	2614
3816.649	2610
3818.283	2611
3819.914	2634
3821.547	2629
3823.178	2659
3824.809	2584
3826.441	2588
3828.072	2621
3829.701	2628
3831.331	2580
3832.96	2561
3834.591	2609
3836.219	2653
3837.847	2618
3839.475	2565
3841.102	2623
3842.729	2675
3844.357	2670
3845.984	2584
3847.609	2534
3849.234	2616
3850.86	2596
3852.485	2596
3854.11	2532
3855.734	2595
3857.357	2603
3858.981	2540
3860.603	2617
3862.227	2549
3863.848	2569
3865.471	2554
3867.092	2559
3868.713	2566
3870.334	2554
3871.954	2552
3873.575	2614
3875.194	2596
3876.813	2566
3878.433	2513
3880.051	2588
3881.669	2537
3883.286	2546
3884.904	2547
3886.52	2454
3888.138	2544
3889.754	2488
3891.37	2558
3892.985	2602
3894.6	2569
3896.216	2566
3897.831	2516
3899.444	2541
3901.058	2523
3902.67	2548
3904.283	2552
3905.897	2543
3907.509	2527
3909.121	2578
3910.731	2466
3912.342	2516
3913.954	2472
3915.563	2518
3917.174	2476
3918.783	2512
3920.391	2500
3922.002	2492
3923.611	2459
3925.218	2493
3926.826	2520
3928.432	2500
3930.039	2533
3931.647	2514
3933.253	2518
3934.859	2517
3936.464	2486
3938.068	2498
3939.675	2473
3941.278	2479
3942.883	2464
3944.486	2475
3946.089	2477
3947.692	2446
3949.295	2466
3950.898	2460
3952.499	2508
3954.1	2473
3955.7	2470
3957.303	2484
3958.903	2463
3960.502	2441
3962.101	2402
3963.7	2463
3965.301	2469
3966.899	2471
3968.497	2411
3970.094	2408
3971.691	2406
3973.288	2388
3974.885	2398
3976.481	2423
3978.077	2460
3979.672	2398
3981.267	2409
3982.863	2432
3984.457	2438
3986.051	2439
3987.645	2416
3989.238	2358
3990.831	2339
3992.425	2358
3994.017	2394
3995.607	2363
3997.199	2373
3998.79	2381
4000.382	2431
4001.973	2418
4003.561	2394
4005.151	2420
4006.741	2360
4008.331	2327
4009.918	2339
4011.507	2393
4013.095	2419
4014.681	2344
4016.269	2403
4017.856	2389
4019.443	2405
4021.028	2342
4022.614	2385
4024.199	2363
4025.785	2342
4027.37	2385
4028.953	2404
4030.536	2396
4032.12	2290
4033.704	2366
4035.287	2346
4036.869	2297
4038.45	2340
4040.032	2313
4041.613	2342
4043.195	2354
4044.776	2260
4046.356	2248
4047.935	2285
4049.515	2333
4051.095	2322
4052.674	2324
4054.251	2317
4055.829	2285
4057.406	2291
4058.985	2335
4060.562	2244
4062.139	2335
4063.715	2325
4065.29	2294
4066.865	2290
4068.442	2290
4070.016	2293
4071.59	2316
4073.164	2288
4074.738	2322
4076.312	2250
4077.885	2278
4079.458	2277
4081.03	2264
4082.602	2245
4084.173	2286
4085.745	2280
4087.315	2302
4088.886	2283
4090.456	2272
4092.026	2254
4093.596	2261
4095.165	2207
4096.734	2245
4098.301	2253
4099.869	2303
4101.437	2231
4103.006	2315
4104.572	2262
4106.139	2194
4107.704	2284
4109.27	2146
4110.837	2256
4112.401	2243
4113.966	2250
4115.53	2185
4117.094	2268
4118.659	2237
4120.223	2119
4121.785	2208
4123.347	2269
4124.909	2238
4126.471	2182
4128.034	2179
4129.595	2139
4131.155	2197
4132.716	2176
4134.275	2179
4135.836	2190
4137.395	2133
4138.955	2117
4140.513	2181
4142.071	2192
4143.628	2137
4145.188	2196
4146.745	2180
4148.302	2187
4149.858	2174
4151.414	2109
4152.971	2218
4154.526	2140
4156.081	2141
4157.635	2182
4159.189	2192
4160.745	2166
4162.298	2154
4163.852	2134
4165.405	2136
4166.957	2097
4168.51	2205
4170.063	2157
4171.614	2106
4173.166	2113
4174.717	2172
4176.267	2058
4177.817	2115
4179.368	2111
4180.917	2156
4182.466	2140
4184.016	2118
4185.564	2107
4187.112	2141
4188.66	2131
4190.207	2137
4191.754	2058
4193.301	2134
4194.848	2144
4196.394	2060
4197.94	2130
4199.484	2048
4201.03	2154
4202.575	2070
4204.12	2079
4205.663	2050
4207.207	2107
4208.75	2098
4210.292	2139
4211.836	2089
4213.378	2109
4214.92	2086
4216.46	2082
4218.002	2116
4219.544	2073
4221.083	2122
4222.625	2075
4224.164	2040
4225.703	2092
4227.244	2089
4228.782	2038
4230.32	2046
4231.857	2096
4233.395	2085
4234.933	2063
4236.471	2064
4238.007	2092
4239.542	1993
4241.078	2054
4242.614	2092
4244.15	1961
4245.685	2076
4247.219	2014
4248.753	2070
4250.287	1974
4251.82	2077
4253.354	1988
4254.887	2033
4256.419	2008
4257.951	2020
4259.483	2112
4261.016	2017
4262.547	2004
4264.078	2023
4265.608	2057
4267.137	2053
4268.668	2073
4270.197	2013
4271.727	2002
4273.254	2067
4274.783	2062
4276.311	2055
4277.84	2002
4279.366	1993
4280.894	2037
4282.42	2059
4283.946	1984
4285.473	2050
4286.998	2044
4288.523	1978
4290.047	1999
4291.572	2003
4293.096	2032
4294.622	1999
4296.144	2006
4297.668	1989
4299.19	2021
4300.713	2034
4302.236	1971
4303.758	2010
4305.279	1976
4306.799	1979
4308.321	1995
4309.842	1916
4311.361	1969
4312.882	1989
4314.401	1979
