400.0961	2408
402.6185	2446
405.1424	2470
407.6635	2469
410.1838	2410
412.7035	2488
415.2225	2462
417.7388	2509
420.2585	2501
422.7754	2591
425.2917	2577
427.8072	2664
430.3221	2593
432.8363	2648
435.3498	2593
437.8626	2548
440.3727	2624
442.8841	2660
445.3969	2612
447.907	2543
450.4142	2647
452.9229	2637
455.4289	2635
457.9362	2541
460.4449	2613
462.9488	2529
465.454	2556
467.9566	2569
470.4604	2534
472.9637	2566
475.4662	2514
477.966	2543
480.4671	2591
482.9656	2547
485.4633	2581
487.9645	2451
490.4608	2526
492.9566	2554
495.4536	2566
497.948	2574
500.4437	2543
502.9387	2521
505.431	2564
507.9226	2526
510.4136	2578
512.9079	2574
515.3975	2553
517.8864	2556
520.3746	2586
522.8622	2622
525.3491	2621
527.8394	2590
530.3249	2597
532.8098	2624
535.2939	2619
537.7774	2648
540.2623	2644
542.7444	2614
545.2259	2615
547.7067	2551
550.1868	2664
552.6683	2630
555.147	2642
557.6231	2652
560.1005	2602
562.5773	2635
565.0534	2736
567.5308	2657
570.0056	2699
572.4776	2693
574.951	2753
577.4237	2735
579.8978	2755
582.3671	2794
584.8378	2789
587.3079	2687
589.7773	2719
592.244	2796
594.714	2735
597.1793	2762
599.6461	2723
602.1121	2724
604.5754	2723
607.0421	2678
609.5042	2734
611.9675	2681
614.4282	2713
616.8902	2760
619.3515	2739
621.8122	2694
624.2702	2655
626.7296	2657
629.1863	2634
631.6423	2626
634.1017	2668
636.5563	2678
639.0104	2669
641.4658	2616
643.9185	2664
646.3725	2645
648.8239	2682
651.2766	2702
653.7266	2623
656.176	2706
658.6247	2696
661.0748	2693
663.5242	2769
665.9709	2663
668.417	2675
670.8624	2678
673.3092	2734
675.7533	2755
678.1968	2738
680.6395	2728
683.0817	2763
685.5251	2778
687.9659	2771
690.4061	2765
692.8456	2737
695.2844	2705
697.7226	2796
700.1621	2747
702.599	2757
705.0332	2809
707.4688	2740
709.9036	2782
712.3399	2769
714.7735	2785
717.2044	2825
719.6367	2791
722.0683	2837
724.4993	2854
726.9296	2824
729.3593	2833
731.7883	2829
734.2147	2791
736.6423	2910
739.0714	2850
741.4958	2816
743.9216	2842
746.3447	2876
748.7691	2839
751.1929	2931
753.616	2888
756.0366	2874
758.4584	2916
760.8776	2946
763.2982	2880
765.718	2962
768.1373	2938
770.5539	2925
772.9698	2886
775.3871	2877
777.8038	2898
780.2178	2948
782.6332	2937
785.0459	2959
787.458	2976
789.8714	2879
792.2842	2888
794.6943	2895
797.1038	2985
799.5127	2963
801.9209	2921
804.3324	2980
806.7393	2957
809.1456	2892
811.5513	2919
813.9562	2910
816.3625	2952
818.7663	2982
821.1693	2981
823.5718	2957
825.9735	3004
828.3746	2920
830.7771	2933
833.177	2961
835.5762	2997
837.9747	3006
840.3727	2958
842.772	2982
845.1666	3036
847.5626	3102
849.958	3109
852.3527	3127
854.7488	3131
857.1403	3021
859.5331	3061
861.9253	3100
864.3168	3049
866.7057	3074
869.098	3036
871.4876	2990
873.8746	3023
876.263	3052
878.6487	3094
881.0378	3049
883.4243	3028
885.8081	3049
888.1933	3046
890.5759	3144
892.9598	3061
895.343	3008
897.7256	3065
900.1057	2997
902.4871	3109
904.8659	3077
907.246	3083
909.6254	3051
912.0023	3119
914.3786	3183
916.7562	3280
919.1331	3257
921.5074	3237
923.8831	3306
926.2562	3363
928.6287	3329
931.0005	3265
933.3757	3383
935.7462	3251
938.1162	3356
940.4855	3408
942.8542	3340
945.2242	3425
947.5916	3458
949.9584	3660
952.3266	3819
954.6921	3899
957.0571	4238
959.4233	4303
961.787	4497
964.15	4429
966.5125	4204
968.8742	4043
971.2354	3842
973.5959	3631
975.9559	3519
978.3151	3370
980.6738	3348
983.0338	3314
985.3912	3206
987.7461	3242
990.1022	3229
992.4578	3167
994.8127	3178
997.1689	3166
999.5207	3212
1001.874	3198
1004.226	3266
1006.576	3251
1008.929	3231
1011.28	3218
1013.628	3215
1015.977	3212
1018.324	3238
1020.674	3230
1023.019	3163
1025.366	3256
1027.713	3235
1030.056	3176
1032.399	3203
1034.746	3203
1037.087	3249
1039.431	3314
1041.771	3274
1044.113	3290
1046.454	3311
1048.793	3331
1051.133	3260
1053.471	3210
1055.807	3250
1058.146	3242
1060.483	3365
1062.818	3342
1065.153	3354
1067.489	3328
1069.822	3339
1072.156	3335
1074.488	3389
1076.82	3379
1079.15	3324
1081.48	3335
1083.814	3306
1086.143	3253
1088.471	3276
1090.799	3287
1093.126	3265
1095.452	3297
1097.78	3229
1100.105	3308
1102.43	3288
1104.754	3271
1107.077	3263
1109.4	3223
1111.722	3220
1114.044	3233
1116.365	3184
1118.685	3252
1121.005	3280
1123.324	3246
1125.643	3198
1127.961	3314
1130.278	3260
1132.595	3250
1134.911	3162
1137.226	3237
1139.541	3220
1141.854	3208
1144.167	3269
1146.482	3248
1148.793	3189
1151.105	3251
1153.414	3300
1155.725	3220
1158.033	3231
1160.344	3251
1162.651	3251
1164.959	3195
1167.265	3278
1169.572	3171
1171.878	3253
1174.184	3218
1176.488	3258
1178.79	3319
1181.094	3362
1183.396	3277
1185.699	3311
1188.001	3231
1190.301	3288
1192.6	3250
1194.9	3262
1197.2	3266
1199.497	3272
1201.794	3315
1204.09	3290
1206.387	3246
1208.684	3274
1210.978	3317
1213.272	3302
1215.565	3252
1217.858	3233
1220.15	3261
1222.443	3259
1224.734	3266
1227.024	3304
1229.313	3397
1231.602	3411
1233.892	3408
1236.18	3371
1238.467	3464
1240.754	3446
1243.04	3471
1245.325	3508
1247.612	3488
1249.896	3470
1252.178	3531
1254.461	3485
1256.743	3458
1259.027	3439
1261.308	3467
1263.587	3459
1265.867	3505
1268.146	3445
1270.425	3530
1272.703	3466
1274.981	3421
1277.256	3441
1279.532	3458
1281.808	3341
1284.083	3502
1286.358	3383
1288.63	3485
1290.904	3370
1293.175	3346
1295.449	3379
1297.719	3365
1299.99	3395
1302.259	3402
1304.529	3308
1306.798	3425
1309.065	3326
1311.333	3410
1313.599	3349
1315.866	3311
1318.131	3357
1320.396	3345
1322.66	3369
1324.925	3382
1327.187	3391
1329.448	3431
1331.711	3426
1333.974	3466
1336.234	3354
1338.493	3479
1340.752	3385
1343.01	3319
1345.269	3369
1347.526	3397
1349.784	3378
1352.04	3291
1354.295	3374
1356.552	3336
1358.806	3344
1361.059	3360
1363.312	3373
1365.564	3292
1367.818	3364
1370.069	3497
1372.318	3388
1374.568	3395
1376.817	3428
1379.066	3418
1381.316	3462
1383.564	3385
1385.809	3375
1388.056	3433
1390.301	3503
1392.549	3541
1394.793	3472
1397.036	3505
1399.279	3522
1401.522	3572
1403.763	3592
1406.007	3510
1408.248	3582
1410.487	3492
1412.727	3576
1414.965	3527
1417.205	3559
1419.442	3525
1421.68	3489
1423.915	3572
1426.152	3514
1428.388	3542
1430.623	3392
1432.857	3542
1435.091	3490
1437.323	3535
1439.556	3564
1441.789	3623
1444.019	3586
1446.25	3639
1448.48	3596
1450.708	3681
1452.938	3687
1455.167	3673
1457.394	3636
1459.62	3545
1461.846	3676
1464.073	3691
1466.299	3550
1468.523	3568
1470.746	3586
1472.969	3481
1475.191	3463
1477.415	3535
1479.636	3473
1481.858	3393
1484.078	3435
1486.298	3413
1488.518	3383
1490.736	3418
1492.954	3373
1495.169	3279
1497.386	3362
1499.602	3418
1501.819	3340
1504.034	3415
1506.248	3395
1508.462	3376
1510.675	3349
1512.888	3406
1515.1	3321
1517.311	3446
1519.522	3371
1521.732	3357
1523.942	3368
1526.151	3263
1528.36	3344
1530.566	3385
1532.773	3343
1534.98	3396
1537.187	3403
1539.392	3401
1541.596	3435
1543.801	3384
1546.005	3394
1548.208	3410
1550.411	3441
1552.612	3427
1554.814	3382
1557.013	3409
1559.212	3414
1561.414	3387
1563.612	3439
1565.811	3486
1568.007	3559
1570.203	3449
1572.403	3395
1574.598	3474
1576.792	3431
1578.988	3410
1581.181	3486
1583.376	3478
1585.568	3475
1587.761	3472
1589.952	3457
1592.143	3409
1594.333	3530
1596.524	3446
1598.715	3429
1600.903	3503
1603.091	3489
1605.278	3431
1607.466	3488
1609.652	3523
1611.838	3547
1614.023	3509
1616.207	3514
1618.391	3533
1620.576	3483
1622.759	3522
1624.941	3495
1627.123	3541
1629.304	3507
1631.484	3618
1633.664	3640
1635.844	3569
1638.022	3607
1640.201	3588
1642.38	3612
1644.556	3615
1646.732	3618
1648.908	3645
1651.084	3686
1653.257	3564
1655.433	3601
1657.607	3598
1659.779	3603
1661.951	3617
1664.122	3627
1666.295	3646
1668.467	3720
1670.635	3628
1672.805	3658
1674.973	3686
1677.142	3669
1679.31	3658
1681.478	3618
1683.644	3624
1685.81	3608
1687.975	3537
1690.142	3553
1692.305	3588
1694.468	3615
1696.632	3562
1698.794	3673
1700.957	3551
1703.119	3549
1705.279	3533
1707.439	3545
1709.598	3489
1711.758	3471
1713.917	3518
1716.075	3461
1718.231	3553
1720.388	3506
1722.543	3464
1724.702	3448
1726.856	3531
1729.01	3471
1731.164	3458
1733.317	3493
1735.471	3441
1737.623	3460
1739.774	3463
1741.925	3473
1744.075	3489
1746.225	3503
1748.376	3441
1750.524	3536
1752.672	3474
1754.82	3441
1756.965	3442
1759.113	3510
1761.259	3416
1763.405	3461
1765.549	3473
1767.694	3503
1769.836	3408
1771.981	3482
1774.123	3426
1776.264	3510
1778.405	3482
1780.546	3586
1782.687	3461
1784.827	3472
1786.966	3545
1789.103	3462
1791.242	3511
1793.381	3570
1795.517	3537
1797.653	3494
1799.788	3505
1801.923	3438
1804.057	3502
1806.193	3489
1808.326	3492
1810.457	3458
1812.59	3504
1814.721	3536
1816.855	3513
1818.984	3487
1821.113	3427
1823.244	3518
1825.372	3422
1827.499	3494
1829.63	3504
1831.756	3476
1833.882	3593
1836.007	3434
1838.132	3462
1840.26	3553
1842.384	3558
1844.507	3457
1846.63	3511
1848.752	3522
1850.875	3436
1852.996	3521
1855.118	3437
1857.238	3518
1859.358	3503
1861.477	3397
1863.597	3469
1865.715	3455
1867.832	3469
1869.948	3493
1872.064	3419
1874.181	3512
1876.297	3498
1878.411	3494
1880.526	3506
1882.639	3534
1884.752	3476
1886.865	3546
1888.977	3498
1891.089	3457
1893.2	3529
1895.308	3591
1897.42	3536
1899.53	3414
1901.639	3528
1903.745	3480
1905.853	3530
1907.962	3501
1910.067	3556
1912.174	3491
1914.278	3567
1916.383	3548
1918.486	3468
1920.592	3521
1922.694	3631
1924.797	3510
1926.898	3535
1929	3528
1931.102	3598
1933.203	3558
1935.301	3549
1937.401	3564
1939.499	3532
1941.598	3593
1943.697	3555
1945.793	3509
1947.888	3560
1949.985	3596
1952.08	3550
1954.176	3505
1956.269	3568
1958.364	3578
1960.457	3620
1962.549	3535
1964.642	3461
1966.733	3556
1968.823	3607
1970.913	3515
1973.005	3556
1975.093	3514
1977.184	3574
1979.271	3509
1981.359	3458
1983.446	3523
1985.532	3531
1987.619	3498
1989.705	3589
1991.789	3490
1993.874	3521
1995.956	3499
1998.041	3523
2000.123	3529
2002.206	3570
2004.287	3561
2006.368	3515
2008.449	3456
2010.529	3563
2012.609	3500
2014.688	3460
2016.766	3482
2018.843	3561
2020.922	3523
2022.999	3520
2025.074	3532
2027.15	3579
2029.225	3504
2031.299	3466
2033.375	3548
2035.447	3536
2037.52	3531
2039.592	3486
2041.664	3451
2043.736	3574
2045.807	3518
2047.876	3519
2049.947	3583
2052.015	3491
2054.086	3612
2056.153	3519
2058.221	3463
2060.288	3417
2062.353	3525
2064.42	3510
2066.486	3542
2068.55	3509
2070.614	3585
2072.678	3538
2074.741	3463
2076.805	3504
2078.866	3502
2080.929	3528
2082.99	3608
2085.049	3571
2087.109	3538
2089.17	3543
2091.228	3567
2093.286	3614
2095.344	3529
2097.4	3602
2099.46	3533
2101.516	3565
2103.572	3522
2105.626	3605
2107.679	3504
2109.735	3560
2111.788	3491
2113.841	3549
2115.894	3565
2117.945	3572
2119.997	3479
2122.049	3506
2124.1	3574
2126.148	3553
2128.197	3501
2130.246	3541
2132.296	3557
2134.342	3573
2136.39	3553
2138.437	3551
2140.483	3594
2142.527	3557
2144.574	3530
2146.619	3479
2148.661	3501
2150.705	3479
2152.747	3537
2154.792	3537
2156.832	3518
2158.874	3475
2160.915	3480
2162.954	3484
2164.995	3569
2167.034	3475
2169.072	3531
2171.111	3534
2173.148	3512
2175.186	3454
2177.223	3509
2179.258	3525
2181.294	3472
2183.328	3530
2185.362	3524
2187.398	3450
2189.431	3487
2191.463	3533
2193.495	3583
2195.528	3486
2197.56	3457
2199.59	3514
2201.62	3467
2203.649	3413
2205.678	3430
2207.708	3538
2209.737	3511
2211.764	3496
2213.791	3435
2215.817	3410
2217.843	3499
2219.87	3531
2221.895	3460
2223.919	3494
2225.942	3452
2227.966	3452
2229.988	3493
2232.012	3411
2234.032	3499
2236.054	3424
2238.074	3441
2240.095	3467
2242.116	3499
2244.135	3497
2246.153	3468
2248.171	3485
2250.188	3404
2252.208	3391
2254.223	3418
2256.239	3462
2258.255	3489
2260.269	3480
2262.283	3402
2264.3	3431
2266.312	3577
2268.325	3404
2270.336	3506
2272.349	3510
2274.362	3487
2276.372	3544
2278.383	3493
2280.392	3438
2282.402	3449
2284.409	3467
2286.418	3372
2288.427	3447
2290.433	3440
2292.441	3473
2294.446	3442
2296.453	3457
2298.459	3469
2300.463	3487
2302.466	3458
2304.471	3488
2306.475	3480
2308.477	3458
2310.478	3460
2312.481	3442
2314.481	3513
2316.481	3498
2318.482	3425
2320.482	3464
2322.48	3467
2324.48	3448
2326.478	3440
2328.476	3472
2330.473	3353
2332.469	3455
2334.465	3450
2336.46	3549
2338.454	3359
2340.45	3436
2342.444	3505
2344.437	3487
2346.43	3419
2348.421	3483
2350.414	3409
2352.405	3429
2354.396	3501
2356.386	3484
2358.376	3416
2360.366	3400
2362.355	3405
2364.343	3450
2366.331	3428
2368.317	3426
2370.304	3423
2372.292	3393
2374.278	3314
2376.262	3427
2378.247	3457
2380.23	3419
2382.216	3374
2384.199	3317
2386.181	3344
2388.163	3327
2390.144	3404
2392.127	3392
2394.107	3357
2396.087	3432
2398.066	3393
2400.046	3408
2402.023	3389
2404.004	3380
2405.981	3414
2407.957	3359
2409.934	3441
2411.91	3336
2413.886	3354
2415.862	3388
2417.836	3312
2419.809	3401
2421.784	3376
2423.756	3401
2425.73	3441
2427.701	3414
2429.672	3390
2431.644	3374
2433.615	3396
2435.586	3338
2437.555	3421
2439.523	3335
2441.491	3335
2443.459	3407
2445.428	3353
2447.395	3321
2449.361	3444
2451.327	3329
2453.292	3379
2455.257	3389
2457.223	3351
2459.187	3424
2461.15	3360
2463.113	3266
2465.076	3394
2467.039	3299
2468.999	3374
2470.96	3446
2472.921	3372
2474.881	3343
2476.841	3336
2478.8	3291
2480.759	3388
2482.717	3317
2484.675	3397
2486.63	3345
2488.589	3369
2490.545	3363
2492.5	3473
2494.455	3281
2496.408	3368
2498.364	3371
2500.318	3316
2502.27	3295
2504.223	3301
2506.174	3311
2508.126	3363
2510.078	3377
2512.03	3295
2513.979	3374
2515.927	3330
2517.877	3358
2519.826	3387
2521.775	3385
2523.722	3326
2525.668	3413
2527.616	3257
2529.561	3347
2531.508	3319
2533.452	3317
2535.398	3321
2537.342	3312
2539.284	3286
2541.229	3356
2543.173	3363
2545.114	3275
2547.055	3380
2548.996	3246
2550.938	3336
2552.878	3338
2554.817	3381
2556.756	3383
2558.695	3287
2560.633	3359
2562.572	3286
2564.509	3431
2566.445	3294
2568.382	3378
2570.317	3360
2572.254	3325
2574.189	3364
2576.123	3343
2578.057	3336
2579.99	3327
2581.923	3322
2583.855	3313
2585.788	3383
2587.719	3316
2589.65	3351
2591.579	3302
2593.511	3389
2595.44	3282
2597.37	3312
2599.297	3454
2601.225	3332
2603.153	3320
2605.08	3392
2607.007	3350
2608.932	3292
2610.858	3331
2612.782	3393
2614.709	3269
2616.632	3330
2618.556	3423
2620.478	3324
2622.401	3316
2624.324	3323
2626.247	3291
2628.167	3387
2630.088	3295
2632.008	3303
2633.928	3412
2635.848	3375
2637.766	3283
2639.684	3359
2641.603	3389
2643.519	3341
2645.437	3371
2647.353	3306
2649.27	3296
2651.184	3269
2653.099	3491
2655.014	3363
2656.928	3401
2658.842	3376
2660.755	3346
2662.667	3271
2664.579	3346
2666.491	3352
2668.402	3295
2670.312	3380
2672.222	3339
2674.132	3285
2676.042	3300
2677.951	3390
2679.859	3356
2681.766	3270
2683.674	3310
2685.582	3352
2687.488	3307
2689.392	3266
2691.298	3372
2693.202	3265
2695.107	3362
2697.012	3345
2698.914	3397
2700.817	3335
2702.72	3344
2704.622	3266
2706.524	3327
2708.425	3313
2710.326	3352
2712.225	3321
2714.125	3343
2716.024	3357
2717.923	3331
2719.822	3227
2721.719	3312
2723.616	3305
2725.512	3309
2727.41	3351
2729.305	3351
2731.201	3317
2733.095	3373
2734.99	3400
2736.884	3317
2738.778	3275
2740.67	3358
2742.562	3355
2744.455	3277
2746.346	3367
2748.238	3320
2750.129	3410
2752.018	3281
2753.907	3327
2755.797	3339
2757.687	3299
2759.575	3317
2761.462	3375
2763.349	3343
2765.237	3298
2767.124	3298
2769.009	3313
2770.894	3340
2772.779	3352
2774.663	3273
2776.547	3273
2778.431	3286
2780.314	3328
2782.197	3257
2784.078	3327
2785.96	3349
2787.842	3351
2789.723	3330
2791.603	3307
2793.483	3385
2795.362	3309
2797.241	3327
2799.121	3298
2800.997	3289
2802.874	3200
2804.751	3320
2806.628	3360
2808.506	3335
2810.38	3295
2812.255	3280
2814.13	3335
2816.003	3233
2817.878	3346
2819.752	3302
2821.623	3272
2823.496	3360
2825.368	3203
2827.238	3327
2829.111	3337
2830.98	3290
2832.851	3288
2834.719	3346
2836.589	3358
2838.458	3311
2840.327	3333
2842.193	3296
2844.061	3382
2845.927	3350
2847.794	3388
2849.66	3388
2851.525	3428
2853.39	3398
2855.254	3401
2857.117	3471
2858.983	3380
2860.845	3416
2862.707	3431
2864.569	3515
2866.431	3554
2868.293	3490
2870.154	3487
2872.013	3561
2873.873	3614
2875.733	3655
2877.592	3699
2879.451	3722
2881.309	3796
2883.166	3828
2885.022	3813
2886.879	3779
2888.736	3870
2890.591	3807
2892.446	3870
2894.301	3818
2896.155	3834
2898.009	3874
2899.863	3859
2901.716	3787
2903.568	3882
2905.419	3857
2907.27	3866
2909.123	3871
2910.973	3901
2912.824	3931
2914.673	3922
2916.521	3979
2918.372	4107
2920.22	4063
2922.067	4113
2923.914	4163
2925.761	4158
2927.607	4239
2929.455	4255
2931.301	4262
2933.144	4423
2934.99	4371
2936.833	4421
2938.678	4495
2940.522	4553
2942.364	4539
2944.207	4632
2946.048	4638
2947.891	4683
2949.731	4814
2951.571	4741
2953.412	4633
2955.25	4666
2957.09	4557
2958.93	4559
2960.767	4500
2962.606	4350
2964.443	4311
2966.279	4358
2968.116	4248
2969.953	4243
2971.788	4126
2973.623	4073
2975.457	4042
2977.292	4099
2979.127	3960
2980.959	4065
2982.792	4003
2984.624	3943
2986.455	3996
2988.288	3975
2990.119	3881
2991.949	3835
2993.779	3822
2995.608	3808
2997.439	3793
2999.268	3774
3001.096	3675
3002.923	3724
3004.751	3589
3006.578	3557
3008.406	3592
3010.232	3484
3012.057	3612
3013.883	3519
3015.706	3387
3017.532	3394
3019.356	3343
3021.179	3334
3023.002	3337
3024.823	3302
3026.646	3342
3028.469	3260
3030.289	3250
3032.11	3296
3033.93	3243
3035.749	3265
3037.57	3235
3039.39	3245
3041.207	3263
3043.026	3215
3044.842	3200
3046.661	3156
3048.477	3267
3050.294	3226
3052.109	3162
3053.925	3272
3055.739	3199
3057.555	3246
3059.368	3105
3061.181	3204
3062.995	3176
3064.807	3178
3066.62	3263
3068.433	3194
3070.243	3200
3072.054	3168
3073.865	3269
3075.675	3131
3077.485	3159
3079.293	3133
3081.102	3209
3082.911	3110
3084.719	3197
3086.527	3155
3088.333	3202
3090.139	3177
3091.945	3152
3093.75	3139
3095.557	3144
3097.361	3168
3099.165	3196
3100.969	3141
3102.772	3148
3104.575	3135
3106.379	3148
3108.181	3099
3109.982	3072
3111.783	3076
3113.584	3162
3115.386	3147
3117.186	3087
3118.985	3110
3120.783	3122
3122.582	3196
3124.381	3089
3126.179	3141
3127.975	3138
3129.772	3117
3131.569	3026
3133.365	3084
3135.161	3112
3136.956	3036
3138.751	3102
3140.544	3027
3142.338	3047
3144.132	3103
3145.925	3044
3147.717	3063
3149.509	3015
3151.301	3065
3153.091	3017
3154.884	3079
3156.673	3035
3158.462	3099
3160.252	3091
3162.041	3011
3163.831	3046
3165.618	3054
3167.405	3082
3169.193	3045
3170.979	3049
3172.767	3023
3174.553	3061
3176.338	3059
3178.123	2997
3179.907	3077
3181.692	3089
3183.477	3026
3185.259	3050
3187.042	3038
3188.824	3070
3190.607	2960
3192.389	2975
3194.17	3024
3195.951	3073
3197.73	3035
3199.51	3108
3201.289	3020
3203.07	3111
3204.848	2986
3206.626	3083
3208.403	3002
3210.18	3039
3211.959	3040
3213.735	3088
3215.511	3021
3217.285	3098
3219.06	3094
3220.836	3052
3222.611	3042
3224.384	3030
3226.158	3108
3227.929	3098
3229.702	3002
3231.476	3107
3233.248	2994
3235.018	3060
3236.789	3018
3238.56	3046
3240.33	3087
3242.1	3015
3243.869	3094
3245.637	3080
3247.405	3086
3249.172	3094
3250.941	3059
3252.707	3090
3254.474	3059
3256.24	3070
3258.006	3072
3259.772	3158
3261.537	3023
3263.301	3111
3265.065	3087
3266.828	3057
3268.592	3124
3270.355	3032
3272.117	3063
3273.878	2942
3275.64	3109
3277.401	3036
3279.162	3174
3280.922	3054
3282.682	3096
3284.441	3103
3286.199	3015
3287.959	3041
3289.716	3154
3291.475	3098
3293.232	3123
3294.988	3127
3296.744	3059
3298.501	3092
3300.256	3133
3302.011	3079
3303.766	3023
3305.52	3065
3307.275	3035
3309.028	3098
3310.781	3117
3312.533	3166
3314.285	3108
3316.038	3042
3317.789	3050
3319.54	3141
3321.289	3057
3323.039	3051
3324.789	3119
3326.539	3065
3328.288	3072
3330.035	3089
3331.783	3093
3333.531	3030
3335.28	3174
3337.025	3023
3338.771	3071
3340.518	3048
3342.262	3094
3344.009	3057
3345.753	3021
3347.497	3024
3349.24	3053
3350.983	3042
3352.726	2997
3354.469	3079
3356.212	3038
3357.952	3017
3359.694	3062
3361.434	3001
3363.176	3057
3364.916	3079
3366.654	3026
3368.394	3015
3370.132	3087
3371.871	2991
3373.61	3039
3375.346	3005
3377.083	3005
3378.82	3011
3380.556	2972
3382.292	3069
3384.027	3043
3385.763	3005
3387.497	3040
3389.231	2980
3390.965	2985
3392.698	2973
3394.431	2949
3396.164	2924
3397.896	3029
3399.627	3001
3401.36	2938
3403.09	2946
3404.82	2940
3406.55	2990
3408.279	2949
3410.01	2931
3411.738	3009
3413.467	2966
3415.194	2967
3416.92	3007
3418.647	2972
3420.375	2974
3422.102	2980
3423.827	2973
3425.553	2928
3427.277	2898
3429.003	2938
3430.727	2944
3432.451	2953
3434.173	2974
3435.896	2940
3437.62	2878
3439.343	2942
3441.063	2925
3442.785	2937
3444.505	2912
3446.226	2880
3447.948	2927
3449.666	2884
3451.386	2879
3453.104	2880
3454.823	2849
3456.541	2861
3458.259	2937
3459.976	2793
3461.693	2839
3463.408	2848
3465.125	2867
3466.841	2818
3468.556	2842
3470.271	2868
3471.985	2812
3473.698	2872
3475.414	2892
3477.126	2786
3478.838	2820
3480.55	2823
3482.263	2749
3483.975	2828
3485.686	2817
3487.396	2849
3489.106	2717
3490.817	2698
3492.526	2737
3494.236	2737
3495.944	2767
3497.652	2771
3499.359	2799
3501.066	2744
3502.775	2768
3504.481	2734
3506.187	2703
3507.893	2816
3509.598	2780
3511.304	2718
3513.009	2667
3514.713	2754
3516.417	2778
3518.12	2732
3519.821	2736
3521.525	2796
3523.228	2756
3524.929	2709
3526.631	2725
3528.33	2684
3530.032	2726
3531.733	2696
3533.433	2711
3535.131	2737
3536.83	2650
3538.529	2676
3540.227	2658
3541.925	2698
3543.623	2709
3545.319	2703
3547.016	2691
3548.712	2639
3550.408	2690
3552.103	2613
3553.798	2707
3555.491	2672
3557.188	2605
3558.88	2606
3560.574	2642
3562.266	2648
3563.959	2620
3565.651	2672
3567.343	2640
3569.035	2650
3570.725	2622
3572.415	2593
3574.106	2612
3575.797	2646
3577.485	2625
3579.174	2590
3580.863	2542
3582.551	2641
3584.238	2604
3585.926	2599
3587.613	2638
3589.3	2633
3590.986	2650
3592.671	2588
3594.357	2593
3596.042	2576
3597.726	2519
3599.41	2593
3601.094	2513
3602.778	2561
3604.461	2534
3606.143	2544
3607.825	2519
3609.507	2572
3611.188	2560
3612.87	2553
3614.551	2489
3616.229	2484
3617.909	2482
3619.589	2511
3621.269	2484
3622.948	2565
3624.625	2502
3626.302	2473
3627.98	2519
3629.657	2487
3631.334	2453
3633.01	2479
3634.686	2499
3636.361	2477
3638.036	2481
3639.712	2515
3641.385	2478
3643.06	2460
3644.732	2475
3646.405	2406
3648.08	2472
3649.751	2455
3651.424	2379
3653.094	2436
3654.766	2425
3656.436	2474
3658.106	2472
3659.777	2456
3661.446	2437
3663.115	2424
3664.783	2391
3666.452	2452
3668.121	2483
3669.788	2379
3671.454	2386
3673.121	2377
3674.789	2422
3676.455	2445
3678.12	2364
3679.784	2377
3681.45	2350
3683.114	2359
3684.779	2418
3686.442	2399
3688.105	2408
3689.768	2452
3691.43	2372
3693.093	2407
3694.754	2377
3696.415	2422
3698.076	2413
3699.736	2388
3701.396	2393
3703.057	2364
3704.716	2376
3706.375	2341
3708.034	2337
3709.692	2329
3711.351	2327
3713.008	2431
3714.665	2369
3716.321	2401
3717.977	2330
3719.634	2388
3721.29	2337
3722.945	2320
3724.598	2347
3726.253	2309
3727.907	2309
3729.561	2359
3731.214	2288
3732.867	2313
3734.518	2370
3736.171	2339
3737.824	2351
3739.474	2344
3741.125	2382
3742.775	2330
3744.425	2287
3746.074	2363
3747.725	2314
3749.373	2342
3751.022	2327
3752.669	2318
3754.318	2325
3755.966	2321
3757.612	2311
3759.259	2284
3760.905	2293
3762.55	2320
3764.197	2317
3765.842	2308
3767.486	2332
3769.131	2286
3770.774	2292
3772.417	2281
3774.061	2327
3775.705	2269
3777.347	2278
3778.988	2295
3780.629	2313
3782.271	2314
3783.912	2293
3785.552	2274
3787.192	2248
3788.831	2302
3790.472	2322
3792.112	2284
3793.75	2266
3795.388	2279
3797.024	2312
3798.661	2279
3800.3	2187
3801.936	2233
3803.572	2341
3805.208	2294
3806.844	2263
3808.48	2233
3810.115	2240
3811.748	2293
3813.382	2248
3815.016	2244
3816.649	2251
3818.283	2243
3819.914	2184
3821.547	2221
3823.178	2249
3824.809	2252
3826.441	2222
3828.072	2239
3829.701	2218
3831.331	2196
3832.96	2249
3834.591	2197
3836.219	2194
3837.847	2215
3839.475	2253
3841.102	2166
3842.729	2242
3844.357	2196
3845.984	2231
3847.609	2179
3849.234	2170
3850.86	2199
3852.485	2164
3854.11	2233
3855.734	2185
3857.357	2175
3858.981	2231
3860.603	2255
3862.227	2171
3863.848	2234
3865.471	2119
3867.092	2184
3868.713	2232
3870.334	2136
3871.954	2211
3873.575	2217
3875.194	2156
3876.813	2216
3878.433	2166
3880.051	2192
3881.669	2154
3883.286	2182
3884.904	2205
3886.52	2179
3888.138	2180
3889.754	2138
3891.37	2168
3892.985	2159
3894.6	2160
3896.216	2220
3897.831	2177
3899.444	2191
3901.058	2178
3902.67	2118
3904.283	2153
3905.897	2168
3907.509	2162
3909.121	2147
3910.731	2138
3912.342	2173
3913.954	2115
3915.563	2103
3917.174	2093
3918.783	2171
3920.391	2104
3922.002	2157
3923.611	2132
3925.218	2141
3926.826	2117
3928.432	2109
3930.039	2146
3931.647	2147
3933.253	2109
3934.859	2116
3936.464	2121
3938.068	2099
3939.675	2149
3941.278	2068
3942.883	2122
3944.486	2167
3946.089	2115
3947.692	2155
3949.295	2072
3950.898	2112
3952.499	2078
3954.1	2120
3955.7	2111
3957.303	2093
3958.903	2127
3960.502	2137
3962.101	2126
3963.7	2086
3965.301	2084
3966.899	2132
3968.497	2061
3970.094	2104
3971.691	2054
3973.288	2108
3974.885	2096
3976.481	2097
3978.077	2088
3979.672	2056
3981.267	2076
3982.863	2094
3984.457	2036
3986.051	2078
3987.645	2064
3989.238	2034
3990.831	2112
3992.425	2033
3994.017	2056
3995.607	2048
3997.199	2048
3998.79	2072
4000.382	2061
4001.973	2082
4003.561	2066
4005.151	2041
4006.741	2037
4008.331	2007
4009.918	2033
4011.507	2025
4013.095	2027
4014.681	2042
4016.269	2076
4017.856	2019
4019.443	2088
4021.028	2015
4022.614	1984
4024.199	2033
4025.785	2011
4027.37	1980
4028.953	1956
4030.536	2014
4032.12	1995
4033.704	1976
4035.287	2024
4036.869	2030
4038.45	1996
4040.032	1990
4041.613	2009
4043.195	2008
4044.776	2001
4046.356	1985
4047.935	1986
4049.515	1987
4051.095	1985
4052.674	2010
4054.251	1993
4055.829	1975
4057.406	1951
4058.985	1985
4060.562	1961
4062.139	1997
4063.715	1964
4065.29	2022
4066.865	1957
4068.442	2003
4070.016	1967
4071.59	1975
4073.164	1964
4074.738	1947
4076.312	2016
4077.885	2005
4079.458	1926
4081.03	1952
4082.602	2000
4084.173	1949
4085.745	1961
4087.315	1963
4088.886	1965
4090.456	1945
4092.026	1933
4093.596	1965
4095.165	2006
4096.734	1918
4098.301	1914
4099.869	1957
4101.437	1912
4103.006	1932
4104.572	1923
4106.139	1935
4107.704	1976
4109.27	1904
4110.837	1969
4112.401	1956
4113.966	1979
4115.53	1914
4117.094	1906
4118.659	1935
4120.223	1966
4121.785	1926
4123.347	1931
4124.909	1909
4126.471	1969
4128.034	1903
4129.595	1894
4131.155	1925
4132.716	1884
4134.275	1918
4135.836	1886
4137.395	1959
4138.955	1878
4140.513	1920
4142.071	1881
4143.628	1917
4145.188	1872
4146.745	1899
4148.302	1897
4149.858	1906
4151.414	1918
4152.971	1876
4154.526	1875
4156.081	1852
4157.635	1922
4159.189	1917
4160.745	1868
4162.298	1908
4163.852	1872
4165.405	1831
4166.957	1867
4168.51	1838
4170.063	1885
4171.614	1867
4173.166	1914
4174.717	1820
4176.267	1898
4177.817	1844
4179.368	1864
4180.917	1867
4182.466	1853
4184.016	1869
4185.564	1867
4187.112	1887
4188.66	1833
4190.207	1825
4191.754	1845
4193.301	1864
4194.848	1804
4196.394	1818
4197.94	1864
4199.484	1833
4201.03	1791
4202.575	1835
4204.12	1827
4205.663	1823
4207.207	1803
4208.75	1818
4210.292	1873
4211.836	1833
4213.378	1859
4214.92	1790
4216.46	1804
4218.002	1792
4219.544	1855
4221.083	1811
4222.625	1782
4224.164	1794
4225.703	1786
4227.244	1855
4228.782	1793
4230.32	1769
4231.857	1803
4233.395	1818
4234.933	1813
4236.471	1732
4238.007	1796
4239.542	1819
4241.078	1805
4242.614	1755
4244.15	1798
4245.685	1803
4247.219	1789
4248.753	1794
4250.287	1795
4251.82	1769
4253.354	1764
4254.887	1807
4256.419	1808
4257.951	1746
4259.483	1799
4261.016	1818
4262.547	1746
4264.078	1805
4265.608	1745
4267.137	1831
4268.668	1797
4270.197	1747
4271.727	1778
4273.254	1804
4274.783	1786
4276.311	1796
4277.84	1777
4279.366	1819
4280.894	1793
4282.42	1773
4283.946	1781
4285.473	1767
4286.998	1768
4288.523	1723
4290.047	1737
4291.572	1729
4293.096	1730
4294.622	1729
4296.144	1740
4297.668	1785
4299.19	1771
4300.713	1734
4302.236	1726
4303.758	1718
4305.279	1727
4306.799	1700
4308.321	1697
4309.842	1733
4311.361	1695
4312.882	1671
4314.401	1711
