400.0961	5074
402.6185	5015
405.1424	5053
407.6635	4976
410.1838	5008
412.7035	5030
415.2225	5130
417.7388	5108
420.2585	5215
422.7754	5194
425.2917	5321
427.8072	5331
430.3221	5344
432.8363	5268
435.3498	5448
437.8626	5362
440.3727	5366
442.8841	5355
445.3969	5398
447.907	5362
450.4142	5416
452.9229	5356
455.4289	5313
457.9362	5329
460.4449	5485
462.9488	5266
465.454	5279
467.9566	5444
470.4604	5420
472.9637	5404
475.4662	5342
477.966	5338
480.4671	5382
482.9656	5371
485.4633	5476
487.9645	5438
490.4608	5467
492.9566	5453
495.4536	5449
497.948	5505
500.4437	5479
502.9387	5404
505.431	5491
507.9226	5509
510.4136	5455
512.9079	5514
515.3975	5466
517.8864	5530
520.3746	5542
522.8622	5503
525.3491	5688
527.8394	5460
530.3249	5500
532.8098	5601
535.2939	5487
537.7774	5595
540.2623	5582
542.7444	5511
545.2259	5433
547.7067	5548
550.1868	5584
552.6683	5578
555.147	5654
557.6231	5676
560.1005	5626
562.5773	5618
565.0534	5685
567.5308	5648
570.0056	5750
572.4776	5754
574.951	5727
577.4237	5825
579.8978	5709
582.3671	5868
584.8378	5837
587.3079	5778
589.7773	5964
592.244	5830
594.714	5800
597.1793	5909
599.6461	5844
602.1121	5640
604.5754	5766
607.0421	5666
609.5042	5773
611.9675	5823
614.4282	5708
616.8902	5817
619.3515	5743
621.8122	5696
624.2702	5764
626.7296	5601
629.1863	5713
631.6423	5730
634.1017	5695
636.5563	5723
639.0104	5650
641.4658	5753
643.9185	5770
646.3725	5681
648.8239	5726
651.2766	5751
653.7266	5627
656.176	5857
658.6247	5754
661.0748	5793
663.5242	5693
665.9709	5806
668.417	5824
670.8624	5894
673.3092	5910
675.7533	5778
678.1968	5859
680.6395	5886
683.0817	6017
685.5251	5885
687.9659	5877
690.4061	5987
692.8456	5899
695.2844	5940
697.7226	6037
700.1621	5961
702.599	6027
705.0332	5851
707.4688	5995
709.9036	6022
712.3399	6045
714.7735	5925
717.2044	6123
719.6367	6104
722.0683	6044
724.4993	6073
726.9296	6159
729.3593	6194
731.7883	6095
734.2147	6112
736.6423	6167
739.0714	6200
741.4958	6165
743.9216	6146
746.3447	6067
748.7691	6152
751.1929	6256
753.616	6269
756.0366	6326
758.4584	6236
760.8776	6261
763.2982	6440
765.718	6390
768.1373	6382
770.5539	6261
772.9698	6371
775.3871	6417
777.8038	6389
780.2178	6171
782.6332	6405
785.0459	6284
787.458	6323
789.8714	6415
792.2842	6383
794.6943	6307
797.1038	6340
799.5127	6250
801.9209	6435
804.3324	6461
806.7393	6373
809.1456	6374
811.5513	6399
813.9562	6506
816.3625	6422
818.7663	6446
821.1693	6450
823.5718	6536
825.9735	6414
828.3746	6400
830.7771	6461
833.177	6573
835.5762	6489
837.9747	6535
840.3727	6435
842.772	6504
845.1666	6538
847.5626	6571
849.958	6665
852.3527	6562
854.7488	6622
857.1403	6570
859.5331	6574
861.9253	6528
864.3168	6652
866.7057	6643
869.098	6519
871.4876	6596
873.8746	6684
876.263	6637
878.6487	6662
881.0378	6598
883.4243	6658
885.8081	6534
888.1933	6548
890.5759	6545
892.9598	6562
895.343	6587
897.7256	6668
900.1057	6581
902.4871	6651
904.8659	6624
907.246	6677
909.6254	6629
912.0023	6704
914.3786	6789
916.7562	6878
919.1331	7000
921.5074	6877
923.8831	6958
926.2562	6980
928.6287	7061
931.0005	6960
933.3757	7051
935.7462	7138
938.1162	6971
940.4855	7101
942.8542	7138
945.2242	7246
947.5916	7312
949.9584	7600
952.3266	7989
954.6921	8090
957.0571	8501
959.4233	8817
961.787	8903
964.15	8743
966.5125	8569
968.8742	8004
971.2354	7792
973.5959	7438
975.9559	7274
978.3151	7041
980.6738	6914
983.0338	7012
985.3912	6880
987.7461	6814
990.1022	6909
992.4578	6878
994.8127	6886
997.1689	6748
999.5207	6823
1001.874	6937
1004.226	6999
1006.576	6902
1008.929	7018
1011.28	6929
1013.628	6903
1015.977	6829
1018.324	6991
1020.674	6888
1023.019	6942
1025.366	6989
1027.713	7008
1030.056	6980
1032.399	7008
1034.746	7000
1037.087	7019
1039.431	7144
1041.771	6951
1044.113	7032
1046.454	7043
1048.793	6973
1051.133	6986
1053.471	6906
1055.807	7032
1058.146	7003
1060.483	7080
1062.818	7074
1065.153	7148
1067.489	7149
1069.822	7257
1072.156	7189
1074.488	7164
1076.82	7240
1079.15	7297
1081.48	7113
1083.814	7092
1086.143	7062
1088.471	7025
1090.799	7056
1093.126	7052
1095.452	7003
1097.78	7066
1100.105	7006
1102.43	7056
1104.754	7046
1107.077	7020
1109.4	7120
1111.722	7075
1114.044	7012
1116.365	7060
1118.685	7071
1121.005	6929
1123.324	6915
1125.643	7101
1127.961	7123
1130.278	7015
1132.595	7165
1134.911	7032
1137.226	7074
1139.541	6965
1141.854	7136
1144.167	6918
1146.482	6969
1148.793	7010
1151.105	7118
1153.414	6989
1155.725	6965
1158.033	7038
1160.344	7106
1162.651	7084
1164.959	7114
1167.265	7000
1169.572	7021
1171.878	7143
1174.184	7131
1176.488	7124
1178.79	7078
1181.094	7175
1183.396	7262
1185.699	7074
1188.001	7151
1190.301	7034
1192.6	7114
1194.9	7014
1197.2	7022
1199.497	7129
1201.794	7158
1204.09	7072
1206.387	7119
1208.684	7058
1210.978	7073
1213.272	7023
1215.565	7155
1217.858	7174
1220.15	7201
1222.443	7064
1224.734	7194
1227.024	7109
1229.313	7264
1231.602	7247
1233.892	7221
1236.18	7270
1238.467	7224
1240.754	7404
1243.04	7419
1245.325	7259
1247.612	7387
1249.896	7396
1252.178	7458
1254.461	7449
1256.743	7251
1259.027	7491
1261.308	7432
1263.587	7412
1265.867	7496
1268.146	7434
1270.425	7365
1272.703	7379
1274.981	7459
1277.256	7467
1279.532	7379
1281.808	7426
1284.083	7339
1286.358	7281
1288.63	7317
1290.904	7253
1293.175	7332
1295.449	7244
1297.719	7261
1299.99	7328
1302.259	7137
1304.529	7311
1306.798	7296
1309.065	7294
1311.333	7339
1313.599	7310
1315.866	7219
1318.131	7349
1320.396	7406
1322.66	7196
1324.925	7259
1327.187	7196
1329.448	7237
1331.711	7373
1333.974	7321
1336.234	7377
1338.493	7311
1340.752	7241
1343.01	7109
1345.269	7364
1347.526	7317
1349.784	7379
1352.04	7352
1354.295	7350
1356.552	7241
1358.806	7285
1361.059	7356
1363.312	7377
1365.564	7224
1367.818	7457
1370.069	7442
1372.318	7382
1374.568	7235
1376.817	7360
1379.066	7266
1381.316	7435
1383.564	7349
1385.809	7413
1388.056	7360
1390.301	7487
1392.549	7483
1394.793	7564
1397.036	7556
1399.279	7459
1401.522	7622
1403.763	7616
1406.007	7526
1408.248	7620
1410.487	7495
1412.727	7642
1414.965	7552
1417.205	7537
1419.442	7596
1421.68	7538
1423.915	7486
1426.152	7556
1428.388	7569
1430.623	7729
1432.857	7618
1435.091	7577
1437.323	7605
1439.556	7529
1441.789	7737
1444.019	7708
1446.25	7686
1448.48	7637
1450.708	7889
1452.938	7789
1455.167	7764
1457.394	7802
1459.62	7670
1461.846	7684
1464.073	7759
1466.299	7623
1468.523	7709
1470.746	7627
1472.969	7588
1475.191	7518
1477.415	7568
1479.636	7355
1481.858	7583
1484.078	7469
1486.298	7381
1488.518	7287
1490.736	7411
1492.954	7270
1495.169	7255
1497.386	7385
1499.602	7295
1501.819	7332
1504.034	7253
1506.248	7362
1508.462	7358
1510.675	7370
1512.888	7431
1515.1	7269
1517.311	7392
1519.522	7270
1521.732	7264
1523.942	7380
1526.151	7322
1528.36	7412
1530.566	7280
1532.773	7331
1534.98	7345
1537.187	7369
1539.392	7471
1541.596	7314
1543.801	7343
1546.005	7412
1548.208	7330
1550.411	7352
1552.612	7321
1554.814	7439
1557.013	7389
1559.212	7436
1561.414	7529
1563.612	7462
1565.811	7553
1568.007	7533
1570.203	7604
1572.403	7608
1574.598	7478
1576.792	7535
1578.988	7405
1581.181	7485
1583.376	7538
1585.568	7650
1587.761	7482
1589.952	7486
1592.143	7473
1594.333	7508
1596.524	7652
1598.715	7605
1600.903	7574
1603.091	7553
1605.278	7639
1607.466	7601
1609.652	7828
1611.838	7578
1614.023	7661
1616.207	7595
1618.391	7665
1620.576	7616
1622.759	7726
1624.941	7695
1627.123	7563
1629.304	7541
1631.484	7747
1633.664	7584
1635.844	7643
1638.022	7696
1640.201	7615
1642.38	7588
1644.556	7797
1646.732	7743
1648.908	7650
1651.084	7939
1653.257	7733
1655.433	7717
1657.607	7931
1659.779	7803
1661.951	7803
1664.122	7806
1666.295	7785
1668.467	7761
1670.635	7771
1672.805	7908
1674.973	7733
1677.142	7748
1679.31	7880
1681.478	7771
1683.644	7731
1685.81	7783
1687.975	7744
1690.142	7790
1692.305	7781
1694.468	7731
1696.632	7634
1698.794	7710
1700.957	7565
1703.119	7720
1705.279	7534
1707.439	7619
1709.598	7543
1711.758	7592
1713.917	7582
1716.075	7594
1718.231	7549
1720.388	7580
1722.543	7470
1724.702	7456
1726.856	7531
1729.01	7548
1731.164	7482
1733.317	7681
1735.471	7621
1737.623	7498
1739.774	7518
1741.925	7515
1744.075	7586
1746.225	7461
1748.376	7515
1750.524	7543
1752.672	7480
1754.82	7584
1756.965	7484
1759.113	7622
1761.259	7544
1763.405	7427
1765.549	7622
1767.694	7586
1769.836	7623
1771.981	7636
1774.123	7514
1776.264	7609
1778.405	7652
1780.546	7718
1782.687	7752
1784.827	7589
1786.966	7631
1789.103	7689
1791.242	7733
1793.381	7629
1795.517	7553
1797.653	7546
1799.788	7715
1801.923	7580
1804.057	7741
1806.193	7770
1808.326	7647
1810.457	7570
1812.59	7623
1814.721	7628
1816.855	7527
1818.984	7621
1821.113	7627
1823.244	7566
1825.372	7579
1827.499	7613
1829.63	7547
1831.756	7549
1833.882	7636
1836.007	7610
1838.132	7593
1840.26	7584
1842.384	7525
1844.507	7524
1846.63	7537
1848.752	7608
1850.875	7600
1852.996	7553
1855.118	7432
1857.238	7522
1859.358	7568
1861.477	7486
1863.597	7677
1865.715	7602
1867.832	7618
1869.948	7550
1872.064	7456
1874.181	7578
1876.297	7498
1878.411	7546
1880.526	7592
1882.639	7688
1884.752	7597
1886.865	7535
1888.977	7695
1891.089	7568
1893.2	7639
1895.308	7575
1897.42	7559
1899.53	7664
1901.639	7549
1903.745	7727
1905.853	7701
1907.962	7531
1910.067	7661
1912.174	7664
1914.278	7629
1916.383	7741
1918.486	7659
1920.592	7626
1922.694	7588
1924.797	7755
1926.898	7683
1929	7730
1931.102	7719
1933.203	7782
1935.301	7726
1937.401	7750
1939.499	7659
1941.598	7725
1943.697	7756
1945.793	7761
1947.888	7667
1949.985	7827
1952.08	7657
1954.176	7742
1956.269	7747
1958.364	7673
1960.457	7748
1962.549	7735
1964.642	7737
1966.733	7642
1968.823	7636
1970.913	7714
1973.005	7549
1975.093	7834
1977.184	7658
1979.271	7748
1981.359	7673
1983.446	7684
1985.532	7671
1987.619	7744
1989.705	7685
1991.789	7586
1993.874	7606
1995.956	7714
1998.041	7655
2000.123	7643
2002.206	7751
2004.287	7665
2006.368	7736
2008.449	7600
2010.529	7667
2012.609	7659
2014.688	7653
2016.766	7500
2018.843	7780
2020.922	7682
2022.999	7598
2025.074	7542
2027.15	7586
2029.225	7690
2031.299	7644
2033.375	7736
2035.447	7634
2037.52	7712
2039.592	7759
2041.664	7690
2043.736	7667
2045.807	7751
2047.876	7739
2049.947	7653
2052.015	7652
2054.086	7752
2056.153	7666
2058.221	7624
2060.288	7783
2062.353	7792
2064.42	7735
2066.486	7651
2068.55	7678
2070.614	7659
2072.678	7818
2074.741	7678
2076.805	7829
2078.866	7792
2080.929	7582
2082.99	7653
2085.049	7678
2087.109	7759
2089.17	7739
2091.228	7785
2093.286	7790
2095.344	7770
2097.4	7691
2099.46	7681
2101.516	7645
2103.572	7622
2105.626	7716
2107.679	7874
2109.735	7669
2111.788	7620
2113.841	7772
2115.894	7765
2117.945	7766
2119.997	7639
2122.049	7706
2124.1	7620
2126.148	7723
2128.197	7692
2130.246	7789
2132.296	7791
2134.342	7653
2136.39	7721
2138.437	7765
2140.483	7772
2142.527	7701
2144.574	7796
2146.619	7630
2148.661	7647
2150.705	7644
2152.747	7614
2154.792	7640
2156.832	7759
2158.874	7800
2160.915	7702
2162.954	7744
2164.995	7608
2167.034	7677
2169.072	7566
2171.111	7714
2173.148	7590
2175.186	7640
2177.223	7655
2179.258	7635
2181.294	7738
2183.328	7594
2185.362	7596
2187.398	7631
2189.431	7566
2191.463	7636
2193.495	7767
2195.528	7518
2197.56	7529
2199.59	7507
2201.62	7757
2203.649	7600
2205.678	7616
2207.708	7622
2209.737	7433
2211.764	7523
2213.791	7575
2215.817	7528
2217.843	7482
2219.87	7558
2221.895	7557
2223.919	7463
2225.942	7533
2227.966	7635
2229.988	7549
2232.012	7487
2234.032	7518
2236.054	7493
2238.074	7470
2240.095	7591
2242.116	7515
2244.135	7451
2246.153	7502
2248.171	7537
2250.188	7448
2252.208	7514
2254.223	7437
2256.239	7589
2258.255	7525
2260.269	7509
2262.283	7448
2264.3	7604
2266.312	7434
2268.325	7643
2270.336	7408
2272.349	7525
2274.362	7486
2276.372	7607
2278.383	7532
2280.392	7514
2282.402	7572
2284.409	7540
2286.418	7549
2288.427	7536
2290.433	7477
2292.441	7564
2294.446	7458
2296.453	7419
2298.459	7516
2300.463	7510
2302.466	7488
2304.471	7441
2306.475	7387
2308.477	7428
2310.478	7400
2312.481	7363
2314.481	7470
2316.481	7447
2318.482	7398
2320.482	7449
2322.48	7431
2324.48	7409
2326.478	7381
2328.476	7546
2330.473	7394
2332.469	7371
2334.465	7377
2336.46	7408
2338.454	7149
2340.45	7298
2342.444	7304
2344.437	7365
2346.43	7396
2348.421	7341
2350.414	7390
2352.405	7288
2354.396	7308
2356.386	7257
2358.376	7257
2360.366	7391
2362.355	7329
2364.343	7223
2366.331	7393
2368.317	7251
2370.304	7272
2372.292	7344
2374.278	7209
2376.262	7184
2378.247	7244
2380.23	7307
2382.216	7290
2384.199	7276
2386.181	7219
2388.163	7197
2390.144	7228
2392.127	7372
2394.107	7168
2396.087	7238
2398.066	7330
2400.046	7344
2402.023	7299
2404.004	7178
2405.981	7175
2407.957	7202
2409.934	7192
2411.91	7156
2413.886	7273
2415.862	7158
2417.836	7202
2419.809	7260
2421.784	7124
2423.756	7191
2425.73	7114
2427.701	7042
2429.672	7345
2431.644	7368
2433.615	7302
2435.586	7099
2437.555	7275
2439.523	7234
2441.491	7229
2443.459	7055
2445.428	7141
2447.395	7103
2449.361	7154
2451.327	7246
2453.292	7220
2455.257	7191
2457.223	7161
2459.187	7103
2461.15	7169
2463.113	7110
2465.076	7128
2467.039	7139
2468.999	7109
2470.96	7032
2472.921	7076
2474.881	7194
2476.841	6988
2478.8	7160
2480.759	7141
2482.717	7057
2484.675	7105
2486.63	7095
2488.589	7074
2490.545	7018
2492.5	7119
2494.455	7122
2496.408	7113
2498.364	7107
2500.318	7030
2502.27	6997
2504.223	7076
2506.174	6980
2508.126	7029
2510.078	7017
2512.03	6984
2513.979	7180
2515.927	6924
2517.877	7135
2519.826	6975
2521.775	6979
2523.722	6997
2525.668	7032
2527.616	6865
2529.561	7033
2531.508	7148
2533.452	7067
2535.398	7008
2537.342	7191
2539.284	7076
2541.229	6993
2543.173	6969
2545.114	6964
2547.055	6988
2548.996	7050
2550.938	6965
2552.878	6851
2554.817	7008
2556.756	6940
2558.695	7047
2560.633	7015
2562.572	6958
2564.509	7032
2566.445	7056
2568.382	6942
2570.317	6968
2572.254	6969
2574.189	7033
2576.123	6902
2578.057	6938
2579.99	7017
2581.923	6998
2583.855	6964
2585.788	6982
2587.719	7041
2589.65	7005
2591.579	6957
2593.511	6890
2595.44	7083
2597.37	6979
2599.297	7006
2601.225	6972
2603.153	7045
2605.08	7011
2607.007	7017
2608.932	6987
2610.858	7001
2612.782	7059
2614.709	7003
2616.632	6996
2618.556	6989
2620.478	6879
2622.401	6998
2624.324	7014
2626.247	6960
2628.167	7038
2630.088	6881
2632.008	7006
2633.928	7160
2635.848	7025
2637.766	7076
2639.684	7004
2641.603	7185
2643.519	7017
2645.437	6939
2647.353	7181
2649.27	6893
2651.184	7087
2653.099	7030
2655.014	6918
2656.928	6907
2658.842	6976
2660.755	6856
2662.667	6960
2664.579	6861
2666.491	7040
2668.402	6997
2670.312	6911
2672.222	6980
2674.132	6909
2676.042	6975
2677.951	6833
2679.859	6925
2681.766	6966
2683.674	6943
2685.582	6904
2687.488	6878
2689.392	6786
2691.298	6878
2693.202	6990
2695.107	6983
2697.012	6841
2698.914	6769
2700.817	6746
2702.72	6857
2704.622	6934
2706.524	6805
2708.425	6795
2710.326	6834
2712.225	6757
2714.125	6749
2716.024	6867
2717.923	6899
2719.822	6858
2721.719	6684
2723.616	6827
2725.512	6844
2727.41	6835
2729.305	6775
2731.201	6843
2733.095	6894
2734.99	6853
2736.884	6752
2738.778	6742
2740.67	6805
2742.562	6871
2744.455	6783
2746.346	6677
2748.238	6815
2750.129	6866
2752.018	6818
2753.907	6758
2755.797	6838
2757.687	6883
2759.575	6819
2761.462	6731
2763.349	6731
2765.237	6826
2767.124	6722
2769.009	6669
2770.894	6699
2772.779	6773
2774.663	6771
2776.547	6900
2778.431	6745
2780.314	6776
2782.197	6765
2784.078	6867
2785.96	6681
2787.842	6719
2789.723	6689
2791.603	6781
2793.483	6841
2795.362	6812
2797.241	6721
2799.121	6712
2800.997	6733
2802.874	6734
2804.751	6658
2806.628	6744
2808.506	6622
2810.38	6763
2812.255	6738
2814.13	6542
2816.003	6746
2817.878	6542
2819.752	6719
2821.623	6699
2823.496	6616
2825.368	6791
2827.238	6762
2829.111	6589
2830.98	6712
2832.851	6750
2834.719	6747
2836.589	6611
2838.458	6782
2840.327	6675
2842.193	6836
2844.061	6691
2845.927	6827
2847.794	6825
2849.66	6743
2851.525	6700
2853.39	6815
2855.254	6782
2857.117	6760
2858.983	6872
2860.845	6760
2862.707	6918
2864.569	6945
2866.431	6884
2868.293	6983
2870.154	6922
2872.013	7122
2873.873	7137
2875.733	7051
2877.592	7233
2879.451	7140
2881.309	7302
2883.166	7256
2885.022	7422
2886.879	7513
2888.736	7337
2890.591	7441
2892.446	7504
2894.301	7466
2896.155	7347
2898.009	7376
2899.863	7413
2901.716	7357
2903.568	7421
2905.419	7313
2907.27	7309
2909.123	7292
2910.973	7398
2912.824	7403
2914.673	7414
2916.521	7458
2918.372	7683
2920.22	7521
2922.067	7665
2923.914	7677
2925.761	7817
2927.607	7934
2929.455	7974
2931.301	7987
2933.144	7963
2934.99	8094
2936.833	8041
2938.678	8151
2940.522	8225
2942.364	8268
2944.207	8321
2946.048	8435
2947.891	8458
2949.731	8331
2951.571	8409
2953.412	8396
2955.25	8405
2957.09	8217
2958.93	8159
2960.767	8005
2962.606	8106
2964.443	7962
2966.279	7946
2968.116	7765
2969.953	7752
2971.788	7638
2973.623	7722
2975.457	7564
2977.292	7487
2979.127	7477
2980.959	7436
2982.792	7537
2984.624	7286
2986.455	7329
2988.288	7385
2990.119	7231
2991.949	7175
2993.779	7138
2995.608	7136
2997.439	7139
2999.268	7079
3001.096	6930
3002.923	6981
3004.751	6804
3006.578	6891
3008.406	6958
3010.232	6770
3012.057	6720
3013.883	6701
3015.706	6589
3017.532	6655
3019.356	6544
3021.179	6513
3023.002	6618
3024.823	6469
3026.646	6422
3028.469	6445
3030.289	6442
3032.11	6439
3033.93	6380
3035.749	6393
3037.57	6416
3039.39	6262
3041.207	6354
3043.026	6347
3044.842	6287
3046.661	6239
3048.477	6360
3050.294	6352
3052.109	6316
3053.925	6364
3055.739	6276
3057.555	6267
3059.368	6320
3061.181	6273
3062.995	6398
3064.807	6303
3066.62	6219
3068.433	6395
3070.243	6365
3072.054	6319
3073.865	6288
3075.675	6200
3077.485	6270
3079.293	6151
3081.102	6220
3082.911	6294
3084.719	6160
3086.527	6219
3088.333	6309
3090.139	6171
3091.945	6261
3093.75	6214
3095.557	6096
3097.361	6159
3099.165	6135
3100.969	6166
3102.772	6071
3104.575	6113
3106.379	6084
3108.181	6164
3109.982	6064
3111.783	6079
3113.584	6117
3115.386	6114
3117.186	6078
3118.985	6058
3120.783	6037
3122.582	6061
3124.381	5987
3126.179	5959
3127.975	5987
3129.772	5966
3131.569	5928
3133.365	5842
3135.161	5942
3136.956	6019
3138.751	5896
3140.544	5889
3142.338	5983
3144.132	5920
3145.925	6090
3147.717	5992
3149.509	5989
3151.301	5915
3153.091	5999
3154.884	5833
3156.673	5944
3158.462	5878
3160.252	6015
3162.041	5765
3163.831	5943
3165.618	5961
3167.405	5876
3169.193	5921
3170.979	6002
3172.767	5883
3174.553	5921
3176.338	5963
3178.123	5956
3179.907	5861
3181.692	5894
3183.477	5898
3185.259	5924
3187.042	5804
3188.824	5952
3190.607	5994
3192.389	5894
3194.17	5885
3195.951	5905
3197.73	5828
3199.51	5943
3201.289	5921
3203.07	5857
3204.848	5923
3206.626	5929
3208.403	5879
3210.18	5816
3211.959	5762
3213.735	5751
3215.511	5835
3217.285	5889
3219.06	5828
3220.836	5889
3222.611	5862
3224.384	5831
3226.158	5894
3227.929	5724
3229.702	5792
3231.476	5824
3233.248	5845
3235.018	5885
3236.789	5802
3238.56	5757
3240.33	5830
3242.1	5899
3243.869	5787
3245.637	5857
3247.405	5988
3249.172	5763
3250.941	5896
3252.707	5864
3254.474	5782
3256.24	5721
3258.006	5838
3259.772	5808
3261.537	5825
3263.301	6039
3265.065	5776
3266.828	5758
3268.592	5774
3270.355	5868
3272.117	5816
3273.878	5783
3275.64	5852
3277.401	5798
3279.162	5728
3280.922	5813
3282.682	5809
3284.441	5826
3286.199	5877
3287.959	5811
3289.716	5913
3291.475	5844
3293.232	5807
3294.988	5977
3296.744	5788
3298.501	5800
3300.256	5812
3302.011	5779
3303.766	5756
3305.52	5960
3307.275	5900
3309.028	5856
3310.781	5806
3312.533	5802
3314.285	5903
3316.038	5766
3317.789	5714
3319.54	5789
3321.289	5851
3323.039	5861
3324.789	5804
3326.539	5784
3328.288	5748
3330.035	5845
3331.783	5806
3333.531	5876
3335.28	5751
3337.025	5781
3338.771	5641
3340.518	5795
3342.262	5752
3344.009	5759
3345.753	5820
3347.497	5721
3349.24	5784
3350.983	5647
3352.726	5745
3354.469	5733
3356.212	5709
3357.952	5767
3359.694	5690
3361.434	5723
3363.176	5654
3364.916	5648
3366.654	5654
3368.394	5699
3370.132	5722
3371.871	5608
3373.61	5645
3375.346	5635
3377.083	5538
3378.82	5681
3380.556	5751
3382.292	5616
3384.027	5615
3385.763	5596
3387.497	5744
3389.231	5599
3390.965	5614
3392.698	5706
3394.431	5621
3396.164	5634
3397.896	5735
3399.627	5563
3401.36	5611
3403.09	5497
3404.82	5545
3406.55	5601
3408.279	5543
3410.01	5566
3411.738	5492
3413.467	5584
3415.194	5594
3416.92	5588
3418.647	5536
3420.375	5452
3422.102	5621
3423.827	5547
3425.553	5501
3427.277	5402
3429.003	5508
3430.727	5484
3432.451	5550
3434.173	5468
3435.896	5505
3437.62	5394
3439.343	5489
3441.063	5412
3442.785	5511
3444.505	5461
3446.226	5455
3447.948	5423
3449.666	5392
3451.386	5346
3453.104	5406
3454.823	5425
3456.541	5311
3458.259	5318
3459.976	5421
3461.693	5293
3463.408	5375
3465.125	5350
3466.841	5328
3468.556	5367
3470.271	5282
3471.985	5376
3473.698	5283
3475.414	5295
3477.126	5274
3478.838	5325
3480.55	5308
3482.263	5279
3483.975	5252
3485.686	5246
3487.396	5319
3489.106	5285
3490.817	5208
3492.526	5174
3494.236	5173
3495.944	5174
3497.652	5205
3499.359	5255
3501.066	5134
3502.775	5165
3504.481	5212
3506.187	5191
3507.893	5197
3509.598	5125
3511.304	5173
3513.009	5238
3514.713	5254
3516.417	5183
3518.12	5116
3519.821	5173
3521.525	5119
3523.228	5214
3524.929	5128
3526.631	5155
3528.33	5041
3530.032	5128
3531.733	5069
3533.433	5151
3535.131	4995
3536.83	5067
3538.529	5152
3540.227	5099
3541.925	5065
3543.623	5069
3545.319	4986
3547.016	4943
3548.712	5019
3550.408	5001
3552.103	5031
3553.798	5051
3555.491	5026
3557.188	4957
3558.88	5074
3560.574	4931
3562.266	4953
3563.959	4966
3565.651	5078
3567.343	4942
3569.035	5015
3570.725	5033
3572.415	5011
3574.106	4934
3575.797	5066
3577.485	5023
3579.174	4993
3580.863	4918
3582.551	5028
3584.238	4904
3585.926	4937
3587.613	4891
3589.3	4803
3590.986	4833
3592.671	4882
3594.357	4891
3596.042	4867
3597.726	4879
3599.41	4842
3601.094	4795
3602.778	4864
3604.461	4757
3606.143	4711
3607.825	4729
3609.507	4899
3611.188	4763
3612.87	4722
3614.551	4634
3616.229	4713
3617.909	4626
3619.589	4746
3621.269	4734
3622.948	4784
3624.625	4755
3626.302	4685
3627.98	4684
3629.657	4637
3631.334	4700
3633.01	4675
3634.686	4765
3636.361	4634
3638.036	4631
3639.712	4590
3641.385	4624
3643.06	4626
3644.732	4651
3646.405	4576
3648.08	4588
3649.751	4684
3651.424	4600
3653.094	4599
3654.766	4642
3656.436	4541
3658.106	4594
3659.777	4527
3661.446	4609
3663.115	4633
3664.783	4565
3666.452	4608
3668.121	4687
3669.788	4548
3671.454	4554
3673.121	4508
3674.789	4549
3676.455	4499
3678.12	4569
3679.784	4546
3681.45	4465
3683.114	4523
3684.779	4527
3686.442	4441
3688.105	4465
3689.768	4500
3691.43	4505
3693.093	4435
3694.754	4551
3696.415	4428
3698.076	4549
3699.736	4481
3701.396	4501
3703.057	4479
3704.716	4510
3706.375	4423
3708.034	4485
3709.692	4455
3711.351	4443
3713.008	4462
3714.665	4463
3716.321	4406
3717.977	4339
3719.634	4412
3721.29	4470
3722.945	4351
3724.598	4342
3726.253	4500
3727.907	4346
3729.561	4470
3731.214	4366
3732.867	4436
3734.518	4340
3736.171	4357
3737.824	4422
3739.474	4372
3741.125	4353
3742.775	4403
3744.425	4364
3746.074	4345
3747.725	4387
3749.373	4427
3751.022	4290
3752.669	4334
3754.318	4329
3755.966	4249
3757.612	4330
3759.259	4333
3760.905	4352
3762.55	4305
3764.197	4218
3765.842	4250
3767.486	4345
3769.131	4314
3770.774	4335
3772.417	4350
3774.061	4224
3775.705	4365
3777.347	4244
3778.988	4253
3780.629	4285
3782.271	4320
3783.912	4218
3785.552	4235
3787.192	4217
3788.831	4253
3790.472	4236
3792.112	4192
3793.75	4305
3795.388	4181
3797.024	4170
3798.661	4212
3800.3	4215
3801.936	4209
3803.572	4254
3805.208	4137
3806.844	4204
3808.48	4150
3810.115	4093
3811.748	4210
3813.382	4157
3815.016	4134
3816.649	4158
3818.283	4162
3819.914	4199
3821.547	4187
3823.178	4161
3824.809	4125
3826.441	4086
3828.072	4130
3829.701	4118
3831.331	4220
3832.96	4130
3834.591	4124
3836.219	4092
3837.847	4042
3839.475	4113
3841.102	4133
3842.729	4060
3844.357	4147
3845.984	4068
3847.609	4127
3849.234	4032
3850.86	4132
3852.485	4141
3854.11	4001
3855.734	4140
3857.357	4005
3858.981	4148
3860.603	4061
3862.227	4144
3863.848	4037
3865.471	4057
3867.092	4051
3868.713	4083
3870.334	3996
3871.954	4061
3873.575	4072
3875.194	3961
3876.813	3938
3878.433	4022
3880.051	4031
3881.669	4058
3883.286	3948
3884.904	4003
3886.52	4028
3888.138	3966
3889.754	4020
3891.37	4074
3892.985	3964
3894.6	3981
3896.216	3945
3897.831	3968
3899.444	3934
3901.058	3933
3902.67	4039
3904.283	4031
3905.897	3998
3907.509	3958
3909.121	3991
3910.731	3959
3912.342	3978
3913.954	3972
3915.563	3927
3917.174	4010
3918.783	3930
3920.391	3970
3922.002	3955
3923.611	3898
3925.218	3968
3926.826	3963
3928.432	4023
3930.039	4004
3931.647	3894
3933.253	3935
3934.859	3817
3936.464	3864
3938.068	3842
3939.675	3815
3941.278	3922
3942.883	3915
3944.486	3867
3946.089	3889
3947.692	3889
3949.295	3939
3950.898	3923
3952.499	3812
3954.1	3866
3955.7	3837
3957.303	3923
3958.903	3898
3960.502	3906
3962.101	3885
3963.7	3821
3965.301	3879
3966.899	3776
3968.497	3876
3970.094	3879
3971.691	3946
3973.288	3757
3974.885	3790
3976.481	3810
3978.077	3781
3979.672	3715
3981.267	3794
3982.863	3761
3984.457	3725
3986.051	3722
3987.645	3831
3989.238	3748
3990.831	3773
3992.425	3685
3994.017	3765
3995.607	3786
3997.199	3735
3998.79	3718
4000.382	3822
4001.973	3741
4003.561	3764
4005.151	3727
4006.741	3730
4008.331	3716
4009.918	3669
4011.507	3686
4013.095	3719
4014.681	3659
4016.269	3629
4017.856	3555
4019.443	3639
4021.028	3658
4022.614	3716
4024.199	3680
4025.785	3688
4027.37	3629
4028.953	3556
4030.536	3594
4032.12	3643
4033.704	3617
4035.287	3624
4036.869	3571
4038.45	3539
4040.032	3623
4041.613	3621
4043.195	3591
4044.776	3649
4046.356	3598
4047.935	3650
4049.515	3584
4051.095	3655
4052.674	3618
4054.251	3580
4055.829	3618
4057.406	3586
4058.985	3505
4060.562	3629
4062.139	3565
4063.715	3610
4065.29	3580
4066.865	3564
4068.442	3553
4070.016	3568
4071.59	3604
4073.164	3523
4074.738	3504
4076.312	3520
4077.885	3522
4079.458	3510
4081.03	3527
4082.602	3532
4084.173	3505
4085.745	3444
4087.315	3517
4088.886	3447
4090.456	3554
4092.026	3530
4093.596	3445
4095.165	3564
4096.734	3500
4098.301	3519
4099.869	3494
4101.437	3530
4103.006	3438
4104.572	3496
4106.139	3444
4107.704	3515
4109.27	3454
4110.837	3443
4112.401	3487
4113.966	3483
4115.53	3344
4117.094	3458
4118.659	3450
4120.223	3358
4121.785	3377
4123.347	3435
4124.909	3426
4126.471	3395
4128.034	3357
4129.595	3402
4131.155	3409
4132.716	3380
4134.275	3425
4135.836	3341
4137.395	3358
4138.955	3369
4140.513	3387
4142.071	3348
4143.628	3360
4145.188	3364
4146.745	3336
4148.302	3346
4149.858	3339
4151.414	3345
4152.971	3369
4154.526	3316
4156.081	3399
4157.635	3311
4159.189	3358
4160.745	3279
4162.298	3349
4163.852	3314
4165.405	3217
4166.957	3351
4168.51	3330
4170.063	3327
4171.614	3317
4173.166	3297
4174.717	3281
4176.267	3248
4177.817	3285
4179.368	3235
4180.917	3255
4182.466	3234
4184.016	3240
4185.564	3240
4187.112	3316
4188.66	3349
4190.207	3238
4191.754	3170
4193.301	3188
4194.848	3207
4196.394	3273
4197.94	3190
4199.484	3229
4201.03	3209
4202.575	3257
4204.12	3193
4205.663	3215
4207.207	3189
4208.75	3192
4210.292	3198
4211.836	3152
4213.378	3201
4214.92	3165
4216.46	3232
4218.002	3193
4219.544	3194
4221.083	3164
4222.625	3168
4224.164	3107
4225.703	3178
4227.244	3129
4228.782	3157
4230.32	3183
4231.857	3159
4233.395	3109
4234.933	3142
4236.471	3175
4238.007	3186
4239.542	3150
4241.078	3155
4242.614	3132
4244.15	3168
4245.685	3187
4247.219	3073
4248.753	3052
4250.287	3119
4251.82	3130
4253.354	3126
4254.887	3139
4256.419	3110
4257.951	3109
4259.483	3147
4261.016	3146
4262.547	3093
4264.078	3147
4265.608	3089
4267.137	3010
4268.668	3062
4270.197	3144
4271.727	3111
4273.254	3123
4274.783	3054
4276.311	3056
4277.84	3054
4279.366	3072
4280.894	2978
4282.42	3114
4283.946	3083
4285.473	2990
4286.998	3040
4288.523	3001
4290.047	3033
4291.572	3149
4293.096	3025
4294.622	3113
4296.144	2958
4297.668	3003
4299.19	3066
4300.713	3057
4302.236	3051
4303.758	2890
4305.279	2992
4306.799	3066
4308.321	3048
4309.842	3040
4311.361	3035
4312.882	2925
4314.401	3008
