400.0961	2290
402.6185	2278
405.1424	2280
407.6635	2320
410.1838	2289
412.7035	2288
415.2225	2296
417.7388	2327
420.2585	2347
422.7754	2345
425.2917	2372
427.8072	2377
430.3221	2350
432.8363	2420
435.3498	2434
437.8626	2363
440.3727	2476
442.8841	2401
445.3969	2463
447.907	2468
450.4142	2476
452.9229	2423
455.4289	2394
457.9362	2379
460.4449	2351
462.9488	2401
465.454	2377
467.9566	2407
470.4604	2420
472.9637	2462
475.4662	2431
477.966	2457
480.4671	2415
482.9656	2390
485.4633	2445
487.9645	2431
490.4608	2478
492.9566	2445
495.4536	2427
497.948	2494
500.4437	2493
502.9387	2459
505.431	2411
507.9226	2464
510.4136	2466
512.9079	2494
515.3975	2481
517.8864	2487
520.3746	2493
522.8622	2460
525.3491	2511
527.8394	2532
530.3249	2467
532.8098	2478
535.2939	2522
537.7774	2474
540.2623	2460
542.7444	2524
545.2259	2516
547.7067	2513
550.1868	2460
552.6683	2535
555.147	2409
557.6231	2527
560.1005	2453
562.5773	2551
565.0534	2537
567.5308	2541
570.0056	2514
572.4776	2508
574.951	2624
577.4237	2600
579.8978	2648
582.3671	2585
584.8378	2629
587.3079	2627
589.7773	2629
592.244	2590
594.714	2556
597.1793	2637
599.6461	2644
602.1121	2558
604.5754	2576
607.0421	2596
609.5042	2528
611.9675	2554
614.4282	2573
616.8902	2580
619.3515	2595
621.8122	2603
624.2702	2527
626.7296	2493
629.1863	2545
631.6423	2574
634.1017	2585
636.5563	2579
639.0104	2583
641.4658	2544
643.9185	2491
646.3725	2559
648.8239	2570
651.2766	2602
653.7266	2549
656.176	2627
658.6247	2597
661.0748	2567
663.5242	2589
665.9709	2632
668.417	2559
670.8624	2649
673.3092	2672
675.7533	2619
678.1968	2648
680.6395	2634
683.0817	2572
685.5251	2601
687.9659	2610
690.4061	2643
692.8456	2633
695.2844	2600
697.7226	2665
700.1621	2622
702.599	2598
705.0332	2704
707.4688	2730
709.9036	2710
712.3399	2659
714.7735	2725
717.2044	2701
719.6367	2661
722.0683	2706
724.4993	2691
726.9296	2728
729.3593	2775
731.7883	2680
734.2147	2768
736.6423	2723
739.0714	2654
741.4958	2737
743.9216	2784
746.3447	2750
748.7691	2793
751.1929	2775
753.616	2823
756.0366	2749
758.4584	2793
760.8776	2779
763.2982	2713
765.718	2761
768.1373	2807
770.5539	2808
772.9698	2857
775.3871	2813
777.8038	2774
780.2178	2854
782.6332	2854
785.0459	2783
787.458	2844
789.8714	2848
792.2842	2784
794.6943	2756
797.1038	2808
799.5127	2813
801.9209	2831
804.3324	2834
806.7393	2831
809.1456	2834
811.5513	2874
813.9562	2813
816.3625	2895
818.7663	2792
821.1693	2823
823.5718	2870
825.9735	2880
828.3746	2855
830.7771	2831
833.177	2801
835.5762	2817
837.9747	2810
840.3727	2832
842.772	2923
845.1666	2884
847.5626	2872
849.958	2911
852.3527	2922
854.7488	2910
857.1403	2891
859.5331	2964
861.9253	2895
864.3168	2888
866.7057	2943
869.098	2900
871.4876	2881
873.8746	2886
876.263	2886
878.6487	3004
881.0378	2952
883.4243	2879
885.8081	2884
888.1933	2904
890.5759	2921
892.9598	2885
895.343	2888
897.7256	2966
900.1057	2828
902.4871	2879
904.8659	2961
907.246	2884
909.6254	2884
912.0023	2983
914.3786	3019
916.7562	2969
919.1331	2954
921.5074	3028
923.8831	2970
926.2562	3033
928.6287	3007
931.0005	2973
933.3757	3065
935.7462	3096
938.1162	3065
940.4855	3111
942.8542	3151
945.2242	3109
947.5916	3248
949.9584	3230
952.3266	3289
954.6921	3505
957.0571	3523
959.4233	3622
961.787	3715
964.15	3770
966.5125	3609
968.8742	3472
971.2354	3367
973.5959	3247
975.9559	3135
978.3151	3167
980.6738	3087
983.0338	3068
985.3912	3030
987.7461	3023
990.1022	3009
992.4578	2992
994.8127	3054
997.1689	3022
999.5207	3022
1001.874	2977
1004.226	3053
1006.576	3090
1008.929	3055
1011.28	3010
1013.628	2984
1015.977	2943
1018.324	3072
1020.674	2998
1023.019	3062
1025.366	3072
1027.713	3032
1030.056	3050
1032.399	3048
1034.746	3040
1037.087	3059
1039.431	3059
1041.771	3154
1044.113	3033
1046.454	3162
1048.793	3111
1051.133	3174
1053.471	3154
1055.807	3135
1058.146	3170
1060.483	3057
1062.818	3129
1065.153	3184
1067.489	3159
1069.822	3208
1072.156	3120
1074.488	3160
1076.82	3186
1079.15	3106
1081.48	3128
1083.814	3153
1086.143	3109
1088.471	3110
1090.799	3055
1093.126	3077
1095.452	3128
1097.78	3123
1100.105	3079
1102.43	3125
1104.754	3098
1107.077	3112
1109.4	3089
1111.722	3103
1114.044	3189
1116.365	3031
1118.685	3143
1121.005	3138
1123.324	3173
1125.643	3119
1127.961	3121
1130.278	3075
1132.595	3078
1134.911	3079
1137.226	3115
1139.541	3133
1141.854	3194
1144.167	3074
1146.482	3065
1148.793	3136
1151.105	3087
1153.414	3129
1155.725	3099
1158.033	3078
1160.344	3150
1162.651	3081
1164.959	3059
1167.265	3080
1169.572	3113
1171.878	3068
1174.184	3100
1176.488	3084
1178.79	3057
1181.094	3220
1183.396	3106
1185.699	3102
1188.001	3125
1190.301	3114
1192.6	3213
1194.9	3075
1197.2	3128
1199.497	3195
1201.794	3120
1204.09	3104
1206.387	3157
1208.684	3110
1210.978	3120
1213.272	3152
1215.565	3154
1217.858	3135
1220.15	3143
1222.443	3148
1224.734	3167
1227.024	3220
1229.313	3133
1231.602	3178
1233.892	3140
1236.18	3202
1238.467	3232
1240.754	3241
1243.04	3306
1245.325	3245
1247.612	3289
1249.896	3257
1252.178	3218
1254.461	3149
1256.743	3183
1259.027	3267
1261.308	3270
1263.587	3257
1265.867	3277
1268.146	3212
1270.425	3313
1272.703	3253
1274.981	3189
1277.256	3295
1279.532	3250
1281.808	3325
1284.083	3247
1286.358	3263
1288.63	3203
1290.904	3123
1293.175	3217
1295.449	3259
1297.719	3174
1299.99	3219
1302.259	3198
1304.529	3232
1306.798	3246
1309.065	3222
1311.333	3208
1313.599	3194
1315.866	3198
1318.131	3233
1320.396	3204
1322.66	3232
1324.925	3170
1327.187	3279
1329.448	3201
1331.711	3165
1333.974	3205
1336.234	3200
1338.493	3193
1340.752	3228
1343.01	3184
1345.269	3229
1347.526	3231
1349.784	3276
1352.04	3179
1354.295	3271
1356.552	3169
1358.806	3216
1361.059	3219
1363.312	3256
1365.564	3136
1367.818	3237
1370.069	3192
1372.318	3243
1374.568	3191
1376.817	3269
1379.066	3214
1381.316	3224
1383.564	3270
1385.809	3202
1388.056	3293
1390.301	3250
1392.549	3237
1394.793	3244
1397.036	3321
1399.279	3229
1401.522	3276
1403.763	3255
1406.007	3290
1408.248	3249
1410.487	3289
1412.727	3303
1414.965	3314
1417.205	3285
1419.442	3289
1421.68	3326
1423.915	3312
1426.152	3300
1428.388	3309
1430.623	3433
1432.857	3275
1435.091	3354
1437.323	3318
1439.556	3314
1441.789	3318
1444.019	3419
1446.25	3364
1448.48	3437
1450.708	3422
1452.938	3424
1455.167	3367
1457.394	3394
1459.62	3451
1461.846	3319
1464.073	3288
1466.299	3440
1468.523	3391
1470.746	3411
1472.969	3313
1475.191	3301
1477.415	3322
1479.636	3272
1481.858	3357
1484.078	3253
1486.298	3256
1488.518	3323
1490.736	3250
1492.954	3284
1495.169	3306
1497.386	3275
1499.602	3303
1501.819	3319
1504.034	3279
1506.248	3211
1508.462	3221
1510.675	3247
1512.888	3214
1515.1	3217
1517.311	3215
1519.522	3217
1521.732	3214
1523.942	3334
1526.151	3312
1528.36	3216
1530.566	3151
1532.773	3263
1534.98	3256
1537.187	3201
1539.392	3242
1541.596	3210
1543.801	3289
1546.005	3308
1548.208	3283
1550.411	3267
1552.612	3310
1554.814	3266
1557.013	3249
1559.212	3337
1561.414	3319
1563.612	3374
1565.811	3274
1568.007	3320
1570.203	3387
1572.403	3327
1574.598	3371
1576.792	3356
1578.988	3344
1581.181	3290
1583.376	3308
1585.568	3371
1587.761	3320
1589.952	3319
1592.143	3258
1594.333	3375
1596.524	3327
1598.715	3367
1600.903	3409
1603.091	3406
1605.278	3372
1607.466	3429
1609.652	3384
1611.838	3426
1614.023	3409
1616.207	3356
1618.391	3346
1620.576	3409
1622.759	3291
1624.941	3417
1627.123	3412
1629.304	3486
1631.484	3490
1633.664	3481
1635.844	3393
1638.022	3417
1640.201	3430
1642.38	3430
1644.556	3451
1646.732	3431
1648.908	3330
1651.084	3441
1653.257	3410
1655.433	3489
1657.607	3456
1659.779	3471
1661.951	3483
1664.122	3460
1666.295	3458
1668.467	3420
1670.635	3453
1672.805	3486
1674.973	3484
1677.142	3473
1679.31	3462
1681.478	3461
1683.644	3555
1685.81	3436
1687.975	3462
1690.142	3498
1692.305	3433
1694.468	3478
1696.632	3393
1698.794	3454
1700.957	3411
1703.119	3427
1705.279	3398
1707.439	3412
1709.598	3390
1711.758	3339
1713.917	3431
1716.075	3418
1718.231	3483
1720.388	3355
1722.543	3379
1724.702	3428
1726.856	3394
1729.01	3380
1731.164	3430
1733.317	3330
1735.471	3420
1737.623	3483
1739.774	3326
1741.925	3390
1744.075	3421
1746.225	3436
1748.376	3376
1750.524	3403
1752.672	3391
1754.82	3327
1756.965	3434
1759.113	3353
1761.259	3401
1763.405	3468
1765.549	3417
1767.694	3360
1769.836	3473
1771.981	3454
1774.123	3388
1776.264	3437
1778.405	3397
1780.546	3419
1782.687	3403
1784.827	3435
1786.966	3437
1789.103	3305
1791.242	3507
1793.381	3400
1795.517	3426
1797.653	3408
1799.788	3454
1801.923	3363
1804.057	3417
1806.193	3452
1808.326	3441
1810.457	3362
1812.59	3422
1814.721	3326
1816.855	3410
1818.984	3426
1821.113	3481
1823.244	3405
1825.372	3388
1827.499	3475
1829.63	3409
1831.756	3492
1833.882	3386
1836.007	3428
1838.132	3401
1840.26	3359
1842.384	3386
1844.507	3428
1846.63	3379
1848.752	3364
1850.875	3379
1852.996	3371
1855.118	3416
1857.238	3444
1859.358	3393
1861.477	3384
1863.597	3401
1865.715	3367
1867.832	3409
1869.948	3370
1872.064	3410
1874.181	3357
1876.297	3359
1878.411	3371
1880.526	3436
1882.639	3399
1884.752	3349
1886.865	3418
1888.977	3394
1891.089	3424
1893.2	3404
1895.308	3414
1897.42	3382
1899.53	3399
1901.639	3408
1903.745	3369
1905.853	3475
1907.962	3444
1910.067	3419
1912.174	3497
1914.278	3367
1916.383	3444
1918.486	3466
1920.592	3365
1922.694	3476
1924.797	3444
1926.898	3510
1929	3524
1931.102	3464
1933.203	3486
1935.301	3476
1937.401	3471
1939.499	3521
1941.598	3495
1943.697	3380
1945.793	3442
1947.888	3472
1949.985	3456
1952.08	3392
1954.176	3444
1956.269	3411
1958.364	3510
1960.457	3558
1962.549	3458
1964.642	3487
1966.733	3466
1968.823	3470
1970.913	3419
1973.005	3473
1975.093	3478
1977.184	3431
1979.271	3437
1981.359	3446
1983.446	3503
1985.532	3411
1987.619	3441
1989.705	3475
1991.789	3439
1993.874	3393
1995.956	3418
1998.041	3415
2000.123	3506
2002.206	3428
2004.287	3414
2006.368	3420
2008.449	3419
2010.529	3431
2012.609	3427
2014.688	3424
2016.766	3395
2018.843	3421
2020.922	3400
2022.999	3404
2025.074	3457
2027.15	3506
2029.225	3467
2031.299	3379
2033.375	3441
2035.447	3404
2037.52	3342
2039.592	3437
2041.664	3377
2043.736	3485
2045.807	3389
2047.876	3433
2049.947	3386
2052.015	3424
2054.086	3432
2056.153	3490
2058.221	3464
2060.288	3384
2062.353	3405
2064.42	3430
2066.486	3473
2068.55	3453
2070.614	3423
2072.678	3435
2074.741	3480
2076.805	3431
2078.866	3436
2080.929	3461
2082.99	3405
2085.049	3413
2087.109	3456
2089.17	3434
2091.228	3429
2093.286	3480
2095.344	3459
2097.4	3499
2099.46	3519
2101.516	3394
2103.572	3357
2105.626	3410
2107.679	3581
2109.735	3460
2111.788	3343
2113.841	3373
2115.894	3416
2117.945	3476
2119.997	3435
2122.049	3416
2124.1	3440
2126.148	3384
2128.197	3380
2130.246	3489
2132.296	3448
2134.342	3476
2136.39	3445
2138.437	3448
2140.483	3432
2142.527	3433
2144.574	3418
2146.619	3454
2148.661	3394
2150.705	3422
2152.747	3431
2154.792	3349
2156.832	3426
2158.874	3377
2160.915	3440
2162.954	3332
2164.995	3433
2167.034	3413
2169.072	3386
2171.111	3462
2173.148	3419
2175.186	3431
2177.223	3419
2179.258	3392
2181.294	3434
2183.328	3415
2185.362	3386
2187.398	3278
2189.431	3472
2191.463	3381
2193.495	3357
2195.528	3361
2197.56	3374
2199.59	3341
2201.62	3351
2203.649	3418
2205.678	3361
2207.708	3352
2209.737	3487
2211.764	3346
2213.791	3418
2215.817	3374
2217.843	3397
2219.87	3396
2221.895	3443
2223.919	3380
2225.942	3429
2227.966	3370
2229.988	3383
2232.012	3441
2234.032	3385
2236.054	3365
2238.074	3402
2240.095	3401
2242.116	3392
2244.135	3328
2246.153	3325
2248.171	3308
2250.188	3386
2252.208	3383
2254.223	3363
2256.239	3390
2258.255	3351
2260.269	3367
2262.283	3406
2264.3	3388
2266.312	3416
2268.325	3383
2270.336	3315
2272.349	3381
2274.362	3427
2276.372	3380
2278.383	3364
2280.392	3381
2282.402	3420
2284.409	3347
2286.418	3386
2288.427	3399
2290.433	3273
2292.441	3458
2294.446	3381
2296.453	3345
2298.459	3393
2300.463	3412
2302.466	3364
2304.471	3326
2306.475	3497
2308.477	3326
2310.478	3364
2312.481	3336
2314.481	3337
2316.481	3389
2318.482	3383
2320.482	3428
2322.48	3351
2324.48	3325
2326.478	3312
2328.476	3355
2330.473	3376
2332.469	3352
2334.465	3352
2336.46	3276
2338.454	3324
2340.45	3336
2342.444	3235
2344.437	3371
2346.43	3304
2348.421	3354
2350.414	3320
2352.405	3375
2354.396	3300
2356.386	3298
2358.376	3334
2360.366	3325
2362.355	3308
2364.343	3315
2366.331	3425
2368.317	3316
2370.304	3296
2372.292	3366
2374.278	3198
2376.262	3298
2378.247	3274
2380.23	3314
2382.216	3364
2384.199	3357
2386.181	3287
2388.163	3302
2390.144	3273
2392.127	3303
2394.107	3284
2396.087	3332
2398.066	3282
2400.046	3301
2402.023	3338
2404.004	3304
2405.981	3302
2407.957	3264
2409.934	3243
2411.91	3222
2413.886	3234
2415.862	3389
2417.836	3262
2419.809	3288
2421.784	3327
2423.756	3227
2425.73	3249
2427.701	3242
2429.672	3230
2431.644	3303
2433.615	3181
2435.586	3217
2437.555	3274
2439.523	3310
2441.491	3258
2443.459	3220
2445.428	3302
2447.395	3185
2449.361	3274
2451.327	3229
2453.292	3223
2455.257	3304
2457.223	3282
2459.187	3315
2461.15	3306
2463.113	3267
2465.076	3154
2467.039	3305
2468.999	3312
2470.96	3200
2472.921	3305
2474.881	3303
2476.841	3225
2478.8	3244
2480.759	3250
2482.717	3220
2484.675	3289
2486.63	3271
2488.589	3235
2490.545	3226
2492.5	3184
2494.455	3238
2496.408	3281
2498.364	3268
2500.318	3160
2502.27	3170
2504.223	3245
2506.174	3217
2508.126	3246
2510.078	3212
2512.03	3253
2513.979	3330
2515.927	3176
2517.877	3228
2519.826	3320
2521.775	3209
2523.722	3213
2525.668	3226
2527.616	3228
2529.561	3210
2531.508	3256
2533.452	3150
2535.398	3239
2537.342	3279
2539.284	3222
2541.229	3182
2543.173	3270
2545.114	3197
2547.055	3239
2548.996	3256
2550.938	3150
2552.878	3135
2554.817	3285
2556.756	3225
2558.695	3216
2560.633	3176
2562.572	3254
2564.509	3288
2566.445	3175
2568.382	3231
2570.317	3101
2572.254	3210
2574.189	3212
2576.123	3184
2578.057	3212
2579.99	3165
2581.923	3165
2583.855	3204
2585.788	3205
2587.719	3316
2589.65	3200
2591.579	3182
2593.511	3109
2595.44	3211
2597.37	3227
2599.297	3182
2601.225	3223
2603.153	3254
2605.08	3225
2607.007	3157
2608.932	3173
2610.858	3174
2612.782	3244
2614.709	3186
2616.632	3224
2618.556	3260
2620.478	3191
2622.401	3209
2624.324	3269
2626.247	3185
2628.167	3200
2630.088	3236
2632.008	3209
2633.928	3316
2635.848	3281
2637.766	3190
2639.684	3204
2641.603	3229
2643.519	3274
2645.437	3187
2647.353	3164
2649.27	3200
2651.184	3268
2653.099	3202
2655.014	3151
2656.928	3215
2658.842	3219
2660.755	3258
2662.667	3224
2664.579	3204
2666.491	3247
2668.402	3278
2670.312	3205
2672.222	3159
2674.132	3234
2676.042	3180
2677.951	3210
2679.859	3204
2681.766	3129
2683.674	3233
2685.582	3237
2687.488	3203
2689.392	3100
2691.298	3194
2693.202	3185
2695.107	3207
2697.012	3226
2698.914	3209
2700.817	3199
2702.72	3166
2704.622	3216
2706.524	3174
2708.425	3114
2710.326	3145
2712.225	3119
2714.125	3219
2716.024	3146
2717.923	3218
2719.822	3149
2721.719	3095
2723.616	3108
2725.512	3205
2727.41	3168
2729.305	3055
2731.201	3158
2733.095	3201
2734.99	3194
2736.884	3219
2738.778	3220
2740.67	3174
2742.562	3194
2744.455	3189
2746.346	3159
2748.238	3218
2750.129	3130
2752.018	3160
2753.907	3171
2755.797	3147
2757.687	3189
2759.575	3135
2761.462	3110
2763.349	3184
2765.237	3118
2767.124	3138
2769.009	3151
2770.894	3131
2772.779	3145
2774.663	3177
2776.547	3173
2778.431	3100
2780.314	3144
2782.197	3177
2784.078	3208
2785.96	3077
2787.842	3134
2789.723	3192
2791.603	3141
2793.483	3129
2795.362	3044
2797.241	3197
2799.121	3172
2800.997	3110
2802.874	3188
2804.751	3161
2806.628	3067
2808.506	3127
2810.38	3082
2812.255	3146
2814.13	3102
2816.003	3106
2817.878	3080
2819.752	3138
2821.623	3076
2823.496	3093
2825.368	3170
2827.238	3138
2829.111	3173
2830.98	3082
2832.851	3146
2834.719	3160
2836.589	3033
2838.458	3080
2840.327	3115
2842.193	3192
2844.061	3109
2845.927	3113
2847.794	3218
2849.66	3106
2851.525	3112
2853.39	3150
2855.254	3184
2857.117	3142
2858.983	3141
2860.845	3099
2862.707	3161
2864.569	3216
2866.431	3244
2868.293	3276
2870.154	3193
2872.013	3203
2873.873	3216
2875.733	3255
2877.592	3267
2879.451	3325
2881.309	3308
2883.166	3297
2885.022	3331
2886.879	3338
2888.736	3308
2890.591	3333
2892.446	3332
2894.301	3294
2896.155	3240
2898.009	3358
2899.863	3357
2901.716	3294
2903.568	3296
2905.419	3311
2907.27	3266
2909.123	3346
2910.973	3258
2912.824	3375
2914.673	3365
2916.521	3334
2918.372	3350
2920.22	3383
2922.067	3359
2923.914	3419
2925.761	3473
2927.607	3508
2929.455	3561
2931.301	3503
2933.144	3548
2934.99	3565
2936.833	3593
2938.678	3528
2940.522	3679
2942.364	3648
2944.207	3633
2946.048	3664
2947.891	3675
2949.731	3702
2951.571	3627
2953.412	3639
2955.25	3656
2957.09	3585
2958.93	3525
2960.767	3601
2962.606	3479
2964.443	3463
2966.279	3501
2968.116	3465
2969.953	3380
2971.788	3343
2973.623	3432
2975.457	3298
2977.292	3362
2979.127	3425
2980.959	3345
2982.792	3301
2984.624	3316
2986.455	3380
2988.288	3375
2990.119	3294
2991.949	3285
2993.779	3249
2995.608	3247
2997.439	3204
2999.268	3282
3001.096	3219
3002.923	3234
3004.751	3221
3006.578	3188
3008.406	3216
3010.232	3147
3012.057	3052
3013.883	3040
3015.706	3142
3017.532	3066
3019.356	3124
3021.179	3077
3023.002	3031
3024.823	3023
3026.646	3045
3028.469	3040
3030.289	2988
3032.11	2960
3033.93	3052
3035.749	2949
3037.57	2976
3039.39	3039
3041.207	3049
3043.026	3046
3044.842	3034
3046.661	2931
3048.477	2976
3050.294	3005
3052.109	2904
3053.925	2996
3055.739	2945
3057.555	2920
3059.368	2981
3061.181	2954
3062.995	3073
3064.807	2970
3066.62	2976
3068.433	3000
3070.243	2963
3072.054	2878
3073.865	2939
3075.675	3003
3077.485	2934
3079.293	3025
3081.102	2957
3082.911	2961
3084.719	2979
3086.527	2981
3088.333	2949
3090.139	2913
3091.945	2869
3093.75	2950
3095.557	2911
3097.361	2943
3099.165	2905
3100.969	2908
3102.772	2943
3104.575	2891
3106.379	2841
3108.181	2908
3109.982	2829
3111.783	2827
3113.584	2966
3115.386	2820
3117.186	2856
3118.985	2859
3120.783	2876
3122.582	2875
3124.381	2822
3126.179	2870
3127.975	2871
3129.772	2840
3131.569	2771
3133.365	2842
3135.161	2861
3136.956	2833
3138.751	2787
3140.544	2856
3142.338	2875
3144.132	2885
3145.925	2843
3147.717	2866
3149.509	2911
3151.301	2899
3153.091	2953
3154.884	2853
3156.673	2849
3158.462	2850
3160.252	2857
3162.041	2897
3163.831	2846
3165.618	2843
3167.405	2802
3169.193	2882
3170.979	2787
3172.767	2823
3174.553	2803
3176.338	2807
3178.123	2781
3179.907	2756
3181.692	2841
3183.477	2781
3185.259	2767
3187.042	2809
3188.824	2777
3190.607	2863
3192.389	2768
3194.17	2796
3195.951	2788
3197.73	2860
3199.51	2757
3201.289	2787
3203.07	2707
3204.848	2816
3206.626	2766
3208.403	2751
3210.18	2831
3211.959	2778
3213.735	2762
3215.511	2721
3217.285	2779
3219.06	2766
3220.836	2819
3222.611	2780
3224.384	2748
3226.158	2827
3227.929	2739
3229.702	2815
3231.476	2789
3233.248	2761
3235.018	2781
3236.789	2783
3238.56	2753
3240.33	2780
3242.1	2806
3243.869	2660
3245.637	2804
3247.405	2758
3249.172	2728
3250.941	2832
3252.707	2851
3254.474	2802
3256.24	2752
3258.006	2840
3259.772	2775
3261.537	2777
3263.301	2768
3265.065	2796
3266.828	2776
3268.592	2776
3270.355	2788
3272.117	2798
3273.878	2783
3275.64	2734
3277.401	2887
3279.162	2829
3280.922	2826
3282.682	2802
3284.441	2761
3286.199	2694
3287.959	2792
3289.716	2718
3291.475	2783
3293.232	2809
3294.988	2731
3296.744	2832
3298.501	2738
3300.256	2811
3302.011	2743
3303.766	2773
3305.52	2772
3307.275	2796
3309.028	2745
3310.781	2801
3312.533	2823
3314.285	2818
3316.038	2746
3317.789	2791
3319.54	2778
3321.289	2753
3323.039	2757
3324.789	2762
3326.539	2734
3328.288	2753
3330.035	2762
3331.783	2786
3333.531	2748
3335.28	2748
3337.025	2718
3338.771	2737
3340.518	2706
3342.262	2675
3344.009	2733
3345.753	2750
3347.497	2717
3349.24	2730
3350.983	2750
3352.726	2809
3354.469	2748
3356.212	2724
3357.952	2721
3359.694	2761
3361.434	2769
3363.176	2686
3364.916	2747
3366.654	2642
3368.394	2746
3370.132	2716
3371.871	2674
3373.61	2669
3375.346	2738
3377.083	2751
3378.82	2733
3380.556	2784
3382.292	2685
3384.027	2671
3385.763	2742
3387.497	2736
3389.231	2679
3390.965	2726
3392.698	2642
3394.431	2713
3396.164	2688
3397.896	2638
3399.627	2709
3401.36	2642
3403.09	2675
3404.82	2690
3406.55	2701
3408.279	2731
3410.01	2682
3411.738	2707
3413.467	2646
3415.194	2650
3416.92	2705
3418.647	2651
3420.375	2681
3422.102	2709
3423.827	2651
3425.553	2713
3427.277	2700
3429.003	2666
3430.727	2605
3432.451	2670
3434.173	2590
3435.896	2623
3437.62	2635
3439.343	2649
3441.063	2758
3442.785	2650
3444.505	2616
3446.226	2609
3447.948	2626
3449.666	2611
3451.386	2628
3453.104	2641
3454.823	2645
3456.541	2604
3458.259	2652
3459.976	2587
3461.693	2570
3463.408	2584
3465.125	2515
3466.841	2609
3468.556	2511
3470.271	2632
3471.985	2531
3473.698	2574
3475.414	2544
3477.126	2503
3478.838	2575
3480.55	2547
3482.263	2543
3483.975	2531
3485.686	2574
3487.396	2563
3489.106	2577
3490.817	2583
3492.526	2515
3494.236	2538
3495.944	2561
3497.652	2502
3499.359	2587
3501.066	2485
3502.775	2584
3504.481	2532
3506.187	2512
3507.893	2529
3509.598	2546
3511.304	2478
3513.009	2532
3514.713	2505
3516.417	2525
3518.12	2528
3519.821	2497
3521.525	2493
3523.228	2540
3524.929	2526
3526.631	2488
3528.33	2490
3530.032	2528
3531.733	2465
3533.433	2441
3535.131	2503
3536.83	2482
3538.529	2531
3540.227	2508
3541.925	2434
3543.623	2461
3545.319	2475
3547.016	2437
3548.712	2507
3550.408	2491
3552.103	2538
3553.798	2470
3555.491	2533
3557.188	2494
3558.88	2425
3560.574	2466
3562.266	2418
3563.959	2450
3565.651	2493
3567.343	2491
3569.035	2467
3570.725	2498
3572.415	2466
3574.106	2456
3575.797	2450
3577.485	2420
3579.174	2396
3580.863	2402
3582.551	2445
3584.238	2449
3585.926	2464
3587.613	2430
3589.3	2395
3590.986	2458
3592.671	2407
3594.357	2382
3596.042	2405
3597.726	2463
3599.41	2388
3601.094	2360
3602.778	2388
3604.461	2353
3606.143	2351
3607.825	2450
3609.507	2386
3611.188	2394
3612.87	2350
3614.551	2379
3616.229	2337
3617.909	2400
3619.589	2371
3621.269	2308
3622.948	2327
3624.625	2295
3626.302	2324
3627.98	2403
3629.657	2334
3631.334	2393
3633.01	2304
3634.686	2351
3636.361	2293
3638.036	2370
3639.712	2332
3641.385	2350
3643.06	2279
3644.732	2314
3646.405	2359
3648.08	2337
3649.751	2315
3651.424	2288
3653.094	2312
3654.766	2292
3656.436	2286
3658.106	2296
3659.777	2248
3661.446	2314
3663.115	2276
3664.783	2356
3666.452	2284
3668.121	2268
3669.788	2237
3671.454	2258
3673.121	2241
3674.789	2297
3676.455	2296
3678.12	2316
3679.784	2289
3681.45	2324
3683.114	2240
3684.779	2231
3686.442	2281
3688.105	2275
3689.768	2241
3691.43	2299
3693.093	2286
3694.754	2283
3696.415	2279
3698.076	2267
3699.736	2272
3701.396	2198
3703.057	2270
3704.716	2268
3706.375	2241
3708.034	2286
3709.692	2278
3711.351	2242
3713.008	2268
3714.665	2183
3716.321	2254
3717.977	2226
3719.634	2252
3721.29	2213
3722.945	2218
3724.598	2217
3726.253	2221
3727.907	2264
3729.561	2214
3731.214	2227
3732.867	2283
3734.518	2266
3736.171	2201
3737.824	2161
3739.474	2237
3741.125	2185
3742.775	2216
3744.425	2167
3746.074	2206
3747.725	2175
3749.373	2217
3751.022	2224
3752.669	2232
3754.318	2218
3755.966	2178
3757.612	2190
3759.259	2204
3760.905	2226
3762.55	2215
3764.197	2176
3765.842	2215
3767.486	2152
3769.131	2137
3770.774	2152
3772.417	2113
3774.061	2204
3775.705	2089
3777.347	2209
3778.988	2183
3780.629	2186
3782.271	2147
3783.912	2180
3785.552	2184
3787.192	2217
3788.831	2171
3790.472	2130
3792.112	2125
3793.75	2080
3795.388	2162
3797.024	2134
3798.661	2076
3800.3	2124
3801.936	2197
3803.572	2182
3805.208	2176
3806.844	2106
3808.48	2115
3810.115	2157
3811.748	2125
3813.382	2174
3815.016	2154
3816.649	2138
3818.283	2082
3819.914	2096
3821.547	2095
3823.178	2125
3824.809	2185
3826.441	2101
3828.072	2057
3829.701	2125
3831.331	2104
3832.96	2069
3834.591	2101
3836.219	2078
3837.847	2136
3839.475	2104
3841.102	2124
3842.729	2079
3844.357	2110
3845.984	2107
3847.609	2095
3849.234	2102
3850.86	2116
3852.485	2040
3854.11	2084
3855.734	2075
3857.357	2069
3858.981	2064
3860.603	2116
3862.227	2075
3863.848	2068
3865.471	2024
3867.092	2069
3868.713	2050
3870.334	2111
3871.954	2063
3873.575	2049
3875.194	2069
3876.813	2024
3878.433	2033
3880.051	2003
3881.669	2031
3883.286	2038
3884.904	2044
3886.52	2062
3888.138	2009
3889.754	2086
3891.37	2082
3892.985	2100
3894.6	2070
3896.216	2065
3897.831	2045
3899.444	2029
3901.058	2059
3902.67	2087
3904.283	2028
3905.897	2046
3907.509	2060
3909.121	2076
3910.731	2020
3912.342	2010
3913.954	2034
3915.563	2013
3917.174	1995
3918.783	2046
3920.391	2025
3922.002	2046
3923.611	2053
3925.218	2015
3926.826	2057
3928.432	2045
3930.039	2011
3931.647	2034
3933.253	1992
3934.859	2011
3936.464	2084
3938.068	1994
3939.675	2009
3941.278	2002
3942.883	1995
3944.486	1987
3946.089	2008
3947.692	2004
3949.295	1987
3950.898	2066
3952.499	2010
3954.1	2061
3955.7	2017
3957.303	1984
3958.903	2024
3960.502	2011
3962.101	2002
3963.7	1981
3965.301	1988
3966.899	2071
3968.497	1967
3970.094	1948
3971.691	2051
3973.288	1958
3974.885	1977
3976.481	1987
3978.077	1931
3979.672	1978
3981.267	2001
3982.863	1940
3984.457	1956
3986.051	1966
3987.645	1921
3989.238	1960
3990.831	1960
3992.425	1941
3994.017	1942
3995.607	1979
3997.199	1952
3998.79	1968
4000.382	1946
4001.973	1967
4003.561	1912
4005.151	1912
4006.741	1866
4008.331	1941
4009.918	2008
4011.507	1925
4013.095	1913
4014.681	1925
4016.269	1879
4017.856	1938
4019.443	1995
4021.028	1962
4022.614	1939
4024.199	1906
4025.785	1906
4027.37	1932
4028.953	1928
4030.536	1897
4032.12	1857
4033.704	1854
4035.287	1887
4036.869	1923
4038.45	1860
4040.032	1885
4041.613	1905
4043.195	1920
4044.776	1867
4046.356	1862
4047.935	1903
4049.515	1895
4051.095	1931
4052.674	1894
4054.251	1889
4055.829	1845
4057.406	1890
4058.985	1865
4060.562	1885
4062.139	1908
4063.715	1812
4065.29	1889
4066.865	1929
4068.442	1832
4070.016	1843
4071.59	1851
4073.164	1844
4074.738	1862
4076.312	1848
4077.885	1865
4079.458	1863
4081.03	1873
4082.602	1867
4084.173	1842
4085.745	1877
4087.315	1855
4088.886	1843
4090.456	1837
4092.026	1904
4093.596	1876
4095.165	1901
4096.734	1865
4098.301	1816
4099.869	1815
4101.437	1851
4103.006	1830
4104.572	1827
4106.139	1865
4107.704	1821
4109.27	1812
4110.837	1857
4112.401	1850
4113.966	1817
4115.53	1811
4117.094	1823
4118.659	1801
4120.223	1818
4121.785	1801
4123.347	1783
4124.909	1817
4126.471	1787
4128.034	1782
4129.595	1790
4131.155	1813
4132.716	1795
4134.275	1839
4135.836	1834
4137.395	1760
4138.955	1767
4140.513	1832
4142.071	1771
4143.628	1795
4145.188	1767
4146.745	1790
4148.302	1834
4149.858	1762
4151.414	1750
4152.971	1838
4154.526	1738
4156.081	1759
4157.635	1763
4159.189	1802
4160.745	1771
4162.298	1759
4163.852	1755
4165.405	1738
4166.957	1757
4168.51	1784
4170.063	1789
4171.614	1776
4173.166	1659
4174.717	1765
4176.267	1773
4177.817	1754
4179.368	1736
4180.917	1747
4182.466	1741
4184.016	1752
4185.564	1734
4187.112	1739
4188.66	1749
4190.207	1713
4191.754	1779
4193.301	1765
4194.848	1752
4196.394	1731
4197.94	1728
4199.484	1718
4201.03	1719
4202.575	1718
4204.12	1720
4205.663	1750
4207.207	1673
4208.75	1779
4210.292	1695
4211.836	1695
4213.378	1706
4214.92	1675
4216.46	1686
4218.002	1692
4219.544	1702
4221.083	1688
4222.625	1721
4224.164	1717
4225.703	1704
4227.244	1745
4228.782	1688
4230.32	1768
4231.857	1686
4233.395	1685
4234.933	1746
4236.471	1747
4238.007	1694
4239.542	1665
4241.078	1700
4242.614	1698
4244.15	1672
4245.685	1684
4247.219	1642
4248.753	1679
4250.287	1697
4251.82	1681
4253.354	1729
4254.887	1663
4256.419	1696
4257.951	1672
4259.483	1675
4261.016	1675
4262.547	1684
4264.078	1674
4265.608	1687
4267.137	1733
4268.668	1700
4270.197	1669
4271.727	1705
4273.254	1644
4274.783	1674
4276.311	1671
4277.84	1668
4279.366	1683
4280.894	1644
4282.42	1646
4283.946	1656
4285.473	1646
4286.998	1660
4288.523	1672
4290.047	1690
4291.572	1609
4293.096	1634
4294.622	1671
4296.144	1654
4297.668	1674
4299.19	1657
4300.713	1678
4302.236	1675
4303.758	1609
4305.279	1614
4306.799	1608
4308.321	1627
4309.842	1636
4311.361	1643
4312.882	1625
4314.401	1639
