400.0961	2405
402.6185	2406
405.1424	2474
407.6635	2391
410.1838	2444
412.7035	2419
415.2225	2379
417.7388	2525
420.2585	2467
422.7754	2444
425.2917	2550
427.8072	2564
430.3221	2568
432.8363	2578
435.3498	2578
437.8626	2523
440.3727	2555
442.8841	2582
445.3969	2579
447.907	2560
450.4142	2538
452.9229	2599
455.4289	2464
457.9362	2515
460.4449	2548
462.9488	2505
465.454	2557
467.9566	2508
470.4604	2533
472.9637	2482
475.4662	2618
477.966	2561
480.4671	2556
482.9656	2522
485.4633	2571
487.9645	2519
490.4608	2566
492.9566	2560
495.4536	2529
497.948	2541
500.4437	2526
502.9387	2589
505.431	2564
507.9226	2550
510.4136	2564
512.9079	2555
515.3975	2666
517.8864	2539
520.3746	2631
522.8622	2541
525.3491	2528
527.8394	2497
530.3249	2611
532.8098	2657
535.2939	2620
537.7774	2561
540.2623	2601
542.7444	2605
545.2259	2624
547.7067	2680
550.1868	2631
552.6683	2604
555.147	2552
557.6231	2633
560.1005	2644
562.5773	2602
565.0534	2610
567.5308	2620
570.0056	2663
572.4776	2683
574.951	2624
577.4237	2760
579.8978	2707
582.3671	2685
584.8378	2747
587.3079	2662
589.7773	2752
592.244	2742
594.714	2728
597.1793	2680
599.6461	2674
602.1121	2692
604.5754	2693
607.0421	2643
609.5042	2708
611.9675	2658
614.4282	2754
616.8902	2704
619.3515	2676
621.8122	2734
624.2702	2659
626.7296	2692
629.1863	2654
631.6423	2627
634.1017	2669
636.5563	2695
639.0104	2680
641.4658	2572
643.9185	2641
646.3725	2665
648.8239	2676
651.2766	2679
653.7266	2680
656.176	2732
658.6247	2737
661.0748	2727
663.5242	2670
665.9709	2642
668.417	2652
670.8624	2643
673.3092	2708
675.7533	2696
678.1968	2677
680.6395	2682
683.0817	2795
685.5251	2754
687.9659	2683
690.4061	2745
692.8456	2747
695.2844	2775
697.7226	2800
700.1621	2822
702.599	2775
705.0332	2797
707.4688	2791
709.9036	2790
712.3399	2733
714.7735	2792
717.2044	2772
719.6367	2795
722.0683	2751
724.4993	2832
726.9296	2769
729.3593	2838
731.7883	2803
734.2147	2860
736.6423	2764
739.0714	2829
741.4958	2809
743.9216	2845
746.3447	2885
748.7691	2866
751.1929	2894
753.616	2927
756.0366	2890
758.4584	2970
760.8776	2977
763.2982	2914
765.718	2929
768.1373	2903
770.5539	2911
772.9698	2949
775.3871	2855
777.8038	2922
780.2178	2835
782.6332	2973
785.0459	2946
787.458	2934
789.8714	2956
792.2842	2993
794.6943	2917
797.1038	2918
799.5127	2901
801.9209	2946
804.3324	2917
806.7393	2979
809.1456	2924
811.5513	2951
813.9562	2977
816.3625	2971
818.7663	2982
821.1693	3027
823.5718	3011
825.9735	2954
828.3746	2962
830.7771	2931
833.177	3013
835.5762	3035
837.9747	3013
840.3727	2960
842.772	2970
845.1666	2979
847.5626	2990
849.958	3079
852.3527	3043
854.7488	3018
857.1403	3025
859.5331	3104
861.9253	3088
864.3168	3030
866.7057	3025
869.098	3051
871.4876	3050
873.8746	3102
876.263	3065
878.6487	3044
881.0378	3014
883.4243	3059
885.8081	3064
888.1933	3069
890.5759	2999
892.9598	3044
895.343	3022
897.7256	3016
900.1057	3066
902.4871	3057
904.8659	2989
907.246	3051
909.6254	3174
912.0023	3108
914.3786	3185
916.7562	3168
919.1331	3249
921.5074	3240
923.8831	3278
926.2562	3225
928.6287	3292
931.0005	3234
933.3757	3295
935.7462	3277
938.1162	3260
940.4855	3323
942.8542	3394
945.2242	3313
947.5916	3447
949.9584	3512
952.3266	3621
954.6921	3704
957.0571	3907
959.4233	4010
961.787	4136
964.15	4010
966.5125	3987
968.8742	3772
971.2354	3596
973.5959	3475
975.9559	3380
978.3151	3366
980.6738	3281
983.0338	3233
985.3912	3201
987.7461	3204
990.1022	3120
992.4578	3165
994.8127	3151
997.1689	3123
999.5207	3208
1001.874	3222
1004.226	3243
1006.576	3185
1008.929	3159
1011.28	3109
1013.628	3174
1015.977	3215
1018.324	3215
1020.674	3146
1023.019	3185
1025.366	3198
1027.713	3174
1030.056	3225
1032.399	3236
1034.746	3311
1037.087	3241
1039.431	3235
1041.771	3203
1044.113	3181
1046.454	3212
1048.793	3286
1051.133	3267
1053.471	3205
1055.807	3271
1058.146	3336
1060.483	3276
1062.818	3258
1065.153	3287
1067.489	3276
1069.822	3272
1072.156	3331
1074.488	3272
1076.82	3318
1079.15	3291
1081.48	3307
1083.814	3302
1086.143	3330
1088.471	3282
1090.799	3311
1093.126	3201
1095.452	3261
1097.78	3197
1100.105	3226
1102.43	3204
1104.754	3290
1107.077	3302
1109.4	3229
1111.722	3194
1114.044	3245
1116.365	3265
1118.685	3254
1121.005	3250
1123.324	3244
1125.643	3256
1127.961	3249
1130.278	3263
1132.595	3240
1134.911	3267
1137.226	3269
1139.541	3193
1141.854	3226
1144.167	3254
1146.482	3171
1148.793	3223
1151.105	3200
1153.414	3234
1155.725	3227
1158.033	3268
1160.344	3260
1162.651	3226
1164.959	3194
1167.265	3242
1169.572	3191
1171.878	3266
1174.184	3254
1176.488	3280
1178.79	3232
1181.094	3236
1183.396	3348
1185.699	3278
1188.001	3228
1190.301	3201
1192.6	3243
1194.9	3289
1197.2	3254
1199.497	3226
1201.794	3273
1204.09	3265
1206.387	3259
1208.684	3247
1210.978	3283
1213.272	3272
1215.565	3271
1217.858	3266
1220.15	3345
1222.443	3268
1224.734	3246
1227.024	3381
1229.313	3267
1231.602	3244
1233.892	3399
1236.18	3390
1238.467	3345
1240.754	3413
1243.04	3351
1245.325	3460
1247.612	3468
1249.896	3400
1252.178	3367
1254.461	3422
1256.743	3390
1259.027	3384
1261.308	3483
1263.587	3397
1265.867	3472
1268.146	3397
1270.425	3457
1272.703	3481
1274.981	3460
1277.256	3509
1279.532	3444
1281.808	3435
1284.083	3330
1286.358	3404
1288.63	3406
1290.904	3399
1293.175	3398
1295.449	3350
1297.719	3351
1299.99	3459
1302.259	3348
1304.529	3339
1306.798	3393
1309.065	3413
1311.333	3404
1313.599	3379
1315.866	3366
1318.131	3383
1320.396	3334
1322.66	3363
1324.925	3432
1327.187	3387
1329.448	3399
1331.711	3373
1333.974	3444
1336.234	3402
1338.493	3310
1340.752	3388
1343.01	3343
1345.269	3329
1347.526	3462
1349.784	3416
1352.04	3379
1354.295	3402
1356.552	3309
1358.806	3321
1361.059	3382
1363.312	3409
1365.564	3334
1367.818	3371
1370.069	3353
1372.318	3306
1374.568	3463
1376.817	3388
1379.066	3417
1381.316	3408
1383.564	3414
1385.809	3451
1388.056	3463
1390.301	3388
1392.549	3550
1394.793	3546
1397.036	3521
1399.279	3638
1401.522	3537
1403.763	3576
1406.007	3510
1408.248	3573
1410.487	3528
1412.727	3598
1414.965	3555
1417.205	3526
1419.442	3456
1421.68	3491
1423.915	3540
1426.152	3446
1428.388	3458
1430.623	3535
1432.857	3598
1435.091	3549
1437.323	3503
1439.556	3548
1441.789	3557
1444.019	3582
1446.25	3522
1448.48	3554
1450.708	3551
1452.938	3583
1455.167	3661
1457.394	3616
1459.62	3592
1461.846	3690
1464.073	3574
1466.299	3587
1468.523	3583
1470.746	3615
1472.969	3453
1475.191	3457
1477.415	3442
1479.636	3500
1481.858	3352
1484.078	3509
1486.298	3359
1488.518	3402
1490.736	3420
1492.954	3359
1495.169	3422
1497.386	3428
1499.602	3402
1501.819	3409
1504.034	3360
1506.248	3341
1508.462	3375
1510.675	3358
1512.888	3391
1515.1	3353
1517.311	3371
1519.522	3415
1521.732	3268
1523.942	3328
1526.151	3430
1528.36	3351
1530.566	3419
1532.773	3358
1534.98	3349
1537.187	3457
1539.392	3384
1541.596	3356
1543.801	3394
1546.005	3337
1548.208	3394
1550.411	3428
1552.612	3402
1554.814	3385
1557.013	3402
1559.212	3361
1561.414	3473
1563.612	3376
1565.811	3472
1568.007	3428
1570.203	3415
1572.403	3471
1574.598	3470
1576.792	3422
1578.988	3453
1581.181	3388
1583.376	3547
1585.568	3457
1587.761	3504
1589.952	3418
1592.143	3456
1594.333	3544
1596.524	3443
1598.715	3478
1600.903	3398
1603.091	3555
1605.278	3479
1607.466	3514
1609.652	3525
1611.838	3542
1614.023	3508
1616.207	3497
1618.391	3489
1620.576	3454
1622.759	3501
1624.941	3517
1627.123	3455
1629.304	3612
1631.484	3513
1633.664	3534
1635.844	3561
1638.022	3560
1640.201	3560
1642.38	3573
1644.556	3537
1646.732	3627
1648.908	3561
1651.084	3653
1653.257	3554
1655.433	3535
1657.607	3650
1659.779	3642
1661.951	3618
1664.122	3641
1666.295	3621
1668.467	3570
1670.635	3650
1672.805	3618
1674.973	3641
1677.142	3639
1679.31	3544
1681.478	3496
1683.644	3614
1685.81	3639
1687.975	3678
1690.142	3636
1692.305	3592
1694.468	3610
1696.632	3563
1698.794	3453
1700.957	3476
1703.119	3605
1705.279	3521
1707.439	3493
1709.598	3547
1711.758	3490
1713.917	3557
1716.075	3462
1718.231	3498
1720.388	3499
1722.543	3471
1724.702	3455
1726.856	3450
1729.01	3507
1731.164	3448
1733.317	3521
1735.471	3551
1737.623	3430
1739.774	3547
1741.925	3502
1744.075	3497
1746.225	3505
1748.376	3423
1750.524	3554
1752.672	3453
1754.82	3509
1756.965	3459
1759.113	3525
1761.259	3391
1763.405	3562
1765.549	3467
1767.694	3426
1769.836	3509
1771.981	3563
1774.123	3504
1776.264	3478
1778.405	3482
1780.546	3527
1782.687	3503
1784.827	3512
1786.966	3525
1789.103	3502
1791.242	3470
1793.381	3503
1795.517	3588
1797.653	3475
1799.788	3566
1801.923	3607
1804.057	3537
1806.193	3555
1808.326	3527
1810.457	3452
1812.59	3475
1814.721	3600
1816.855	3521
1818.984	3556
1821.113	3533
1823.244	3506
1825.372	3593
1827.499	3541
1829.63	3470
1831.756	3504
1833.882	3455
1836.007	3444
1838.132	3465
1840.26	3531
1842.384	3526
1844.507	3538
1846.63	3559
1848.752	3474
1850.875	3506
1852.996	3468
1855.118	3535
1857.238	3538
1859.358	3442
1861.477	3495
1863.597	3505
1865.715	3478
1867.832	3514
1869.948	3512
1872.064	3464
1874.181	3495
1876.297	3454
1878.411	3410
1880.526	3478
1882.639	3600
1884.752	3446
1886.865	3455
1888.977	3462
1891.089	3497
1893.2	3532
1895.308	3522
1897.42	3607
1899.53	3458
1901.639	3513
1903.745	3548
1905.853	3523
1907.962	3556
1910.067	3474
1912.174	3518
1914.278	3526
1916.383	3471
1918.486	3544
1920.592	3490
1922.694	3578
1924.797	3525
1926.898	3572
1929	3561
1931.102	3538
1933.203	3522
1935.301	3550
1937.401	3595
1939.499	3629
1941.598	3538
1943.697	3486
1945.793	3612
1947.888	3583
1949.985	3551
1952.08	3539
1954.176	3540
1956.269	3578
1958.364	3502
1960.457	3584
1962.549	3537
1964.642	3584
1966.733	3596
1968.823	3596
1970.913	3522
1973.005	3548
1975.093	3568
1977.184	3548
1979.271	3641
1981.359	3495
1983.446	3539
1985.532	3537
1987.619	3561
1989.705	3597
1991.789	3585
1993.874	3463
1995.956	3560
1998.041	3579
2000.123	3538
2002.206	3536
2004.287	3590
2006.368	3589
2008.449	3494
2010.529	3548
2012.609	3551
2014.688	3567
2016.766	3541
2018.843	3569
2020.922	3425
2022.999	3556
2025.074	3594
2027.15	3583
2029.225	3504
2031.299	3560
2033.375	3568
2035.447	3465
2037.52	3531
2039.592	3529
2041.664	3486
2043.736	3605
2045.807	3540
2047.876	3567
2049.947	3575
2052.015	3543
2054.086	3550
2056.153	3472
2058.221	3618
2060.288	3537
2062.353	3633
2064.42	3544
2066.486	3491
2068.55	3512
2070.614	3611
2072.678	3491
2074.741	3636
2076.805	3486
2078.866	3574
2080.929	3567
2082.99	3558
2085.049	3565
2087.109	3544
2089.17	3563
2091.228	3530
2093.286	3506
2095.344	3568
2097.4	3538
2099.46	3502
2101.516	3562
2103.572	3597
2105.626	3553
2107.679	3487
2109.735	3535
2111.788	3570
2113.841	3552
2115.894	3542
2117.945	3536
2119.997	3614
2122.049	3580
2124.1	3603
2126.148	3562
2128.197	3602
2130.246	3661
2132.296	3572
2134.342	3483
2136.39	3476
2138.437	3570
2140.483	3554
2142.527	3542
2144.574	3531
2146.619	3560
2148.661	3551
2150.705	3537
2152.747	3508
2154.792	3560
2156.832	3519
2158.874	3502
2160.915	3506
2162.954	3504
2164.995	3530
2167.034	3536
2169.072	3589
2171.111	3485
2173.148	3669
2175.186	3485
2177.223	3483
2179.258	3482
2181.294	3497
2183.328	3535
2185.362	3514
2187.398	3508
2189.431	3490
2191.463	3498
2193.495	3467
2195.528	3535
2197.56	3507
2199.59	3564
2201.62	3573
2203.649	3514
2205.678	3463
2207.708	3477
2209.737	3531
2211.764	3555
2213.791	3399
2215.817	3516
2217.843	3522
2219.87	3498
2221.895	3496
2223.919	3485
2225.942	3455
2227.966	3462
2229.988	3440
2232.012	3458
2234.032	3466
2236.054	3472
2238.074	3432
2240.095	3482
2242.116	3501
2244.135	3494
2246.153	3438
2248.171	3513
2250.188	3441
2252.208	3506
2254.223	3476
2256.239	3420
2258.255	3493
2260.269	3491
2262.283	3494
2264.3	3487
2266.312	3453
2268.325	3409
2270.336	3460
2272.349	3555
2274.362	3486
2276.372	3488
2278.383	3461
2280.392	3476
2282.402	3524
2284.409	3511
2286.418	3488
2288.427	3459
2290.433	3479
2292.441	3541
2294.446	3473
2296.453	3511
2298.459	3594
2300.463	3501
2302.466	3442
2304.471	3529
2306.475	3470
2308.477	3523
2310.478	3402
2312.481	3480
2314.481	3431
2316.481	3518
2318.482	3386
2320.482	3504
2322.48	3565
2324.48	3451
2326.478	3428
2328.476	3442
2330.473	3536
2332.469	3439
2334.465	3457
2336.46	3424
2338.454	3426
2340.45	3444
2342.444	3397
2344.437	3426
2346.43	3473
2348.421	3397
2350.414	3381
2352.405	3367
2354.396	3415
2356.386	3436
2358.376	3440
2360.366	3469
2362.355	3413
2364.343	3398
2366.331	3339
2368.317	3367
2370.304	3405
2372.292	3369
2374.278	3367
2376.262	3444
2378.247	3411
2380.23	3451
2382.216	3400
2384.199	3312
2386.181	3389
2388.163	3324
2390.144	3424
2392.127	3435
2394.107	3373
2396.087	3411
2398.066	3392
2400.046	3434
2402.023	3352
2404.004	3380
2405.981	3430
2407.957	3471
2409.934	3477
2411.91	3397
2413.886	3398
2415.862	3371
2417.836	3450
2419.809	3407
2421.784	3396
2423.756	3444
2425.73	3397
2427.701	3388
2429.672	3320
2431.644	3381
2433.615	3454
2435.586	3365
2437.555	3433
2439.523	3460
2441.491	3356
2443.459	3453
2445.428	3406
2447.395	3380
2449.361	3368
2451.327	3345
2453.292	3419
2455.257	3340
2457.223	3320
2459.187	3385
2461.15	3404
2463.113	3408
2465.076	3399
2467.039	3384
2468.999	3363
2470.96	3384
2472.921	3390
2474.881	3428
2476.841	3363
2478.8	3292
2480.759	3350
2482.717	3266
2484.675	3377
2486.63	3424
2488.589	3359
2490.545	3325
2492.5	3305
2494.455	3375
2496.408	3334
2498.364	3357
2500.318	3318
2502.27	3315
2504.223	3256
2506.174	3348
2508.126	3412
2510.078	3316
2512.03	3260
2513.979	3362
2515.927	3273
2517.877	3298
2519.826	3333
2521.775	3265
2523.722	3348
2525.668	3296
2527.616	3336
2529.561	3376
2531.508	3305
2533.452	3310
2535.398	3283
2537.342	3252
2539.284	3372
2541.229	3323
2543.173	3316
2545.114	3382
2547.055	3397
2548.996	3259
2550.938	3308
2552.878	3313
2554.817	3301
2556.756	3389
2558.695	3411
2560.633	3330
2562.572	3308
2564.509	3333
2566.445	3314
2568.382	3314
2570.317	3345
2572.254	3306
2574.189	3300
2576.123	3319
2578.057	3330
2579.99	3267
2581.923	3388
2583.855	3331
2585.788	3362
2587.719	3410
2589.65	3311
2591.579	3309
2593.511	3375
2595.44	3254
2597.37	3361
2599.297	3451
2601.225	3472
2603.153	3327
2605.08	3340
2607.007	3412
2608.932	3255
2610.858	3341
2612.782	3312
2614.709	3358
2616.632	3370
2618.556	3384
2620.478	3370
2622.401	3302
2624.324	3277
2626.247	3412
2628.167	3416
2630.088	3319
2632.008	3287
2633.928	3365
2635.848	3391
2637.766	3320
2639.684	3294
2641.603	3445
2643.519	3324
2645.437	3324
2647.353	3313
2649.27	3369
2651.184	3334
2653.099	3371
2655.014	3342
2656.928	3318
2658.842	3327
2660.755	3387
2662.667	3334
2664.579	3338
2666.491	3337
2668.402	3345
2670.312	3295
2672.222	3348
2674.132	3305
2676.042	3282
2677.951	3326
2679.859	3389
2681.766	3318
2683.674	3354
2685.582	3280
2687.488	3329
2689.392	3269
2691.298	3301
2693.202	3299
2695.107	3370
2697.012	3237
2698.914	3404
2700.817	3356
2702.72	3369
2704.622	3364
2706.524	3294
2708.425	3331
2710.326	3321
2712.225	3282
2714.125	3408
2716.024	3305
2717.923	3339
2719.822	3266
2721.719	3348
2723.616	3207
2725.512	3307
2727.41	3294
2729.305	3292
2731.201	3248
2733.095	3303
2734.99	3204
2736.884	3263
2738.778	3338
2740.67	3228
2742.562	3260
2744.455	3363
2746.346	3232
2748.238	3320
2750.129	3267
2752.018	3280
2753.907	3278
2755.797	3290
2757.687	3313
2759.575	3316
2761.462	3289
2763.349	3263
2765.237	3307
2767.124	3269
2769.009	3285
2770.894	3286
2772.779	3276
2774.663	3220
2776.547	3345
2778.431	3299
2780.314	3288
2782.197	3239
2784.078	3314
2785.96	3273
2787.842	3341
2789.723	3276
2791.603	3287
2793.483	3226
2795.362	3351
2797.241	3296
2799.121	3255
2800.997	3330
2802.874	3310
2804.751	3260
2806.628	3306
2808.506	3241
2810.38	3249
2812.255	3294
2814.13	3246
2816.003	3322
2817.878	3251
2819.752	3309
2821.623	3304
2823.496	3248
2825.368	3230
2827.238	3242
2829.111	3228
2830.98	3286
2832.851	3337
2834.719	3251
2836.589	3253
2838.458	3283
2840.327	3323
2842.193	3341
2844.061	3313
2845.927	3355
2847.794	3280
2849.66	3384
2851.525	3311
2853.39	3348
2855.254	3428
2857.117	3396
2858.983	3384
2860.845	3389
2862.707	3414
2864.569	3434
2866.431	3380
2868.293	3526
2870.154	3500
2872.013	3521
2873.873	3524
2875.733	3597
2877.592	3625
2879.451	3609
2881.309	3681
2883.166	3605
2885.022	3666
2886.879	3680
2888.736	3646
2890.591	3639
2892.446	3690
2894.301	3747
2896.155	3767
2898.009	3752
2899.863	3778
2901.716	3782
2903.568	3713
2905.419	3658
2907.27	3722
2909.123	3777
2910.973	3749
2912.824	3772
2914.673	3755
2916.521	3785
2918.372	3837
2920.22	3915
2922.067	3842
2923.914	3980
2925.761	3897
2927.607	3964
2929.455	4078
2931.301	4121
2933.144	4011
2934.99	4090
2936.833	4095
2938.678	4228
2940.522	4153
2942.364	4324
2944.207	4256
2946.048	4344
2947.891	4435
2949.731	4424
2951.571	4401
2953.412	4478
2955.25	4324
2957.09	4286
2958.93	4292
2960.767	4228
2962.606	4147
2964.443	4119
2966.279	4233
2968.116	4165
2969.953	4010
2971.788	4029
2973.623	3916
2975.457	3917
2977.292	3843
2979.127	3807
2980.959	3803
2982.792	3719
2984.624	3775
2986.455	3791
2988.288	3721
2990.119	3759
2991.949	3621
2993.779	3638
2995.608	3699
2997.439	3635
2999.268	3583
3001.096	3447
3002.923	3551
3004.751	3448
3006.578	3435
3008.406	3462
3010.232	3372
3012.057	3327
3013.883	3368
3015.706	3343
3017.532	3426
3019.356	3339
3021.179	3294
3023.002	3259
3024.823	3239
3026.646	3253
3028.469	3228
3030.289	3179
3032.11	3184
3033.93	3225
3035.749	3192
3037.57	3159
3039.39	3118
3041.207	3196
3043.026	3211
3044.842	3217
3046.661	3133
3048.477	3208
3050.294	3122
3052.109	3240
3053.925	3168
3055.739	3276
3057.555	3243
3059.368	3172
3061.181	3143
3062.995	3207
3064.807	3170
3066.62	3191
3068.433	3120
3070.243	3186
3072.054	3180
3073.865	3157
3075.675	3149
3077.485	3186
3079.293	3127
3081.102	3172
3082.911	3131
3084.719	3098
3086.527	3073
3088.333	3009
3090.139	3153
3091.945	3100
3093.75	3031
3095.557	3154
3097.361	3114
3099.165	3075
3100.969	3060
3102.772	3060
3104.575	3031
3106.379	3105
3108.181	3056
3109.982	3068
3111.783	3121
3113.584	3126
3115.386	3023
3117.186	3056
3118.985	3094
3120.783	3020
3122.582	3006
3124.381	3045
3126.179	2954
3127.975	3085
3129.772	3053
3131.569	3061
3133.365	2932
3135.161	3040
3136.956	3031
3138.751	2987
3140.544	2991
3142.338	3024
3144.132	2956
3145.925	2971
3147.717	3042
3149.509	3011
3151.301	3092
3153.091	3010
3154.884	3021
3156.673	3032
3158.462	3025
3160.252	3062
3162.041	3008
3163.831	3050
3165.618	3033
3167.405	3110
3169.193	2986
3170.979	2952
3172.767	2921
3174.553	3030
3176.338	2971
3178.123	2957
3179.907	3032
3181.692	2936
3183.477	3043
3185.259	2952
3187.042	2995
3188.824	3002
3190.607	3087
3192.389	2990
3194.17	3009
3195.951	3032
3197.73	2977
3199.51	3021
3201.289	2994
3203.07	2977
3204.848	3007
3206.626	3029
3208.403	2954
3210.18	2991
3211.959	2947
3213.735	2964
3215.511	2982
3217.285	2951
3219.06	3054
3220.836	3021
3222.611	2966
3224.384	3032
3226.158	3025
3227.929	2986
3229.702	3085
3231.476	3003
3233.248	2960
3235.018	2987
3236.789	2950
3238.56	3009
3240.33	2989
3242.1	2953
3243.869	2943
3245.637	3001
3247.405	3016
3249.172	2973
3250.941	2988
3252.707	2943
3254.474	3085
3256.24	2974
3258.006	2952
3259.772	3018
3261.537	2974
3263.301	3036
3265.065	2997
3266.828	2985
3268.592	3013
3270.355	2985
3272.117	3003
3273.878	2972
3275.64	2977
3277.401	3029
3279.162	2980
3280.922	3014
3282.682	2967
3284.441	3014
3286.199	2977
3287.959	2961
3289.716	3020
3291.475	3046
3293.232	2996
3294.988	3030
3296.744	3018
3298.501	3074
3300.256	3075
3302.011	3017
3303.766	2977
3305.52	2991
3307.275	3008
3309.028	2999
3310.781	2989
3312.533	3063
3314.285	2931
3316.038	2959
3317.789	3019
3319.54	3028
3321.289	2983
3323.039	3021
3324.789	2905
3326.539	3015
3328.288	3004
3330.035	3098
3331.783	2964
3333.531	2980
3335.28	3030
3337.025	2985
3338.771	3082
3340.518	2958
3342.262	2895
3344.009	3026
3345.753	2956
3347.497	3033
3349.24	2985
3350.983	2962
3352.726	2955
3354.469	2971
3356.212	2923
3357.952	2915
3359.694	2933
3361.434	3008
3363.176	2911
3364.916	2939
3366.654	2894
3368.394	2853
3370.132	3014
3371.871	2852
3373.61	2867
3375.346	2901
3377.083	2951
3378.82	2935
3380.556	2888
3382.292	2893
3384.027	2874
3385.763	2954
3387.497	2915
3389.231	2940
3390.965	2844
3392.698	2894
3394.431	2910
3396.164	2854
3397.896	2908
3399.627	2943
3401.36	2958
3403.09	2875
3404.82	2791
3406.55	2897
3408.279	2917
3410.01	2909
3411.738	2875
3413.467	2845
3415.194	2888
3416.92	2921
3418.647	2846
3420.375	2825
3422.102	2813
3423.827	2845
3425.553	2805
3427.277	2883
3429.003	2914
3430.727	2874
3432.451	2857
3434.173	2864
3435.896	2884
3437.62	2774
3439.343	2860
3441.063	2820
3442.785	2750
3444.505	2757
3446.226	2810
3447.948	2858
3449.666	2809
3451.386	2803
3453.104	2758
3454.823	2771
3456.541	2799
3458.259	2791
3459.976	2760
3461.693	2748
3463.408	2774
3465.125	2781
3466.841	2706
3468.556	2759
3470.271	2749
3471.985	2756
3473.698	2724
3475.414	2712
3477.126	2767
3478.838	2731
3480.55	2758
3482.263	2673
3483.975	2694
3485.686	2740
3487.396	2679
3489.106	2776
3490.817	2669
3492.526	2727
3494.236	2649
3495.944	2787
3497.652	2610
3499.359	2668
3501.066	2703
3502.775	2683
3504.481	2630
3506.187	2679
3507.893	2711
3509.598	2651
3511.304	2618
3513.009	2702
3514.713	2647
3516.417	2664
3518.12	2680
3519.821	2659
3521.525	2555
3523.228	2666
3524.929	2637
3526.631	2634
3528.33	2621
3530.032	2565
3531.733	2679
3533.433	2659
3535.131	2690
3536.83	2618
3538.529	2679
3540.227	2593
3541.925	2587
3543.623	2604
3545.319	2559
3547.016	2676
3548.712	2684
3550.408	2538
3552.103	2604
3553.798	2605
3555.491	2652
3557.188	2571
3558.88	2587
3560.574	2731
3562.266	2544
3563.959	2579
3565.651	2541
3567.343	2553
3569.035	2576
3570.725	2559
3572.415	2569
3574.106	2546
3575.797	2572
3577.485	2533
3579.174	2563
3580.863	2550
3582.551	2505
3584.238	2570
3585.926	2492
3587.613	2514
3589.3	2580
3590.986	2541
3592.671	2533
3594.357	2529
3596.042	2537
3597.726	2516
3599.41	2463
3601.094	2494
3602.778	2536
3604.461	2451
3606.143	2509
3607.825	2537
3609.507	2515
3611.188	2473
3612.87	2452
3614.551	2472
3616.229	2428
3617.909	2563
3619.589	2401
3621.269	2436
3622.948	2440
3624.625	2419
3626.302	2523
3627.98	2463
3629.657	2399
3631.334	2442
3633.01	2428
3634.686	2426
3636.361	2467
3638.036	2399
3639.712	2398
3641.385	2411
3643.06	2499
3644.732	2433
3646.405	2370
3648.08	2379
3649.751	2400
3651.424	2368
3653.094	2369
3654.766	2384
3656.436	2448
3658.106	2364
3659.777	2337
3661.446	2429
3663.115	2400
3664.783	2372
3666.452	2359
3668.121	2402
3669.788	2427
3671.454	2344
3673.121	2409
3674.789	2352
3676.455	2355
3678.12	2392
3679.784	2390
3681.45	2363
3683.114	2305
3684.779	2367
3686.442	2355
3688.105	2352
3689.768	2330
3691.43	2346
3693.093	2338
3694.754	2371
3696.415	2373
3698.076	2376
3699.736	2344
3701.396	2359
3703.057	2397
3704.716	2320
3706.375	2335
3708.034	2334
3709.692	2254
3711.351	2344
3713.008	2262
3714.665	2387
3716.321	2369
3717.977	2286
3719.634	2309
3721.29	2326
3722.945	2331
3724.598	2321
3726.253	2318
3727.907	2341
3729.561	2257
3731.214	2292
3732.867	2305
3734.518	2258
3736.171	2310
3737.824	2304
3739.474	2313
3741.125	2296
3742.775	2350
3744.425	2377
3746.074	2293
3747.725	2269
3749.373	2277
3751.022	2311
3752.669	2272
3754.318	2263
3755.966	2256
3757.612	2263
3759.259	2272
3760.905	2268
3762.55	2294
3764.197	2316
3765.842	2285
3767.486	2280
3769.131	2244
3770.774	2279
3772.417	2243
3774.061	2281
3775.705	2277
3777.347	2224
3778.988	2255
3780.629	2318
3782.271	2242
3783.912	2251
3785.552	2231
3787.192	2259
3788.831	2222
3790.472	2259
3792.112	2255
3793.75	2208
3795.388	2230
3797.024	2286
3798.661	2223
3800.3	2244
3801.936	2241
3803.572	2202
3805.208	2218
3806.844	2226
3808.48	2147
3810.115	2221
3811.748	2230
3813.382	2261
3815.016	2190
3816.649	2298
3818.283	2202
3819.914	2198
3821.547	2244
3823.178	2225
3824.809	2157
3826.441	2220
3828.072	2147
3829.701	2199
3831.331	2208
3832.96	2214
3834.591	2174
3836.219	2189
3837.847	2160
3839.475	2156
3841.102	2115
3842.729	2177
3844.357	2219
3845.984	2170
3847.609	2199
3849.234	2157
3850.86	2231
3852.485	2138
3854.11	2155
3855.734	2218
3857.357	2141
3858.981	2171
3860.603	2180
3862.227	2171
3863.848	2172
3865.471	2164
3867.092	2161
3868.713	2122
3870.334	2148
3871.954	2102
3873.575	2155
3875.194	2142
3876.813	2171
3878.433	2106
3880.051	2140
3881.669	2148
3883.286	2179
3884.904	2158
3886.52	2092
3888.138	2168
3889.754	2155
3891.37	2126
3892.985	2070
3894.6	2115
3896.216	2053
3897.831	2126
3899.444	2130
3901.058	2139
3902.67	2153
3904.283	2165
3905.897	2143
3907.509	2137
3909.121	2138
3910.731	2088
3912.342	2108
3913.954	2113
3915.563	2120
3917.174	2103
3918.783	2068
3920.391	2099
3922.002	2123
3923.611	2111
3925.218	2085
3926.826	2109
3928.432	2124
3930.039	2133
3931.647	2143
3933.253	2136
3934.859	2124
3936.464	2154
3938.068	2099
3939.675	2051
3941.278	2097
3942.883	2128
3944.486	2056
3946.089	2149
3947.692	2060
3949.295	2061
3950.898	2053
3952.499	2116
3954.1	2049
3955.7	2075
3957.303	2064
3958.903	2057
3960.502	2076
3962.101	2097
3963.7	2086
3965.301	2085
3966.899	2103
3968.497	2036
3970.094	2105
3971.691	2094
3973.288	2109
3974.885	2070
3976.481	2011
3978.077	2035
3979.672	2071
3981.267	2095
3982.863	2016
3984.457	2099
3986.051	2125
3987.645	2102
3989.238	2073
3990.831	2026
3992.425	2028
3994.017	2130
3995.607	2017
3997.199	2016
3998.79	2023
4000.382	2042
4001.973	2078
4003.561	2092
4005.151	1966
4006.741	2055
4008.331	2011
4009.918	2024
4011.507	2055
4013.095	2054
4014.681	2062
4016.269	1975
4017.856	1973
4019.443	1993
4021.028	2020
4022.614	1972
4024.199	1999
4025.785	2027
4027.37	1961
4028.953	1978
4030.536	2026
4032.12	2026
4033.704	1983
4035.287	2012
4036.869	2005
4038.45	1964
4040.032	1928
4041.613	1955
4043.195	1982
4044.776	1953
4046.356	1978
4047.935	1959
4049.515	1964
4051.095	1958
4052.674	1939
4054.251	1978
4055.829	1925
4057.406	1899
4058.985	1990
4060.562	1944
4062.139	1951
4063.715	1956
4065.29	1931
4066.865	1943
4068.442	1975
4070.016	1931
4071.59	1907
4073.164	1996
4074.738	1978
4076.312	1955
4077.885	1941
4079.458	1953
4081.03	1856
4082.602	1907
4084.173	1943
4085.745	1916
4087.315	1928
4088.886	1972
4090.456	1941
4092.026	1932
4093.596	2011
4095.165	1950
4096.734	1883
4098.301	1894
4099.869	1936
4101.437	1891
4103.006	1908
4104.572	1976
4106.139	1874
4107.704	1904
4109.27	1922
4110.837	1938
4112.401	1933
4113.966	1866
4115.53	1914
4117.094	1939
4118.659	1935
4120.223	1911
4121.785	1908
4123.347	1912
4124.909	1860
4126.471	1924
4128.034	1857
4129.595	1861
4131.155	1841
4132.716	1876
4134.275	1867
4135.836	1879
4137.395	1888
4138.955	1851
4140.513	1896
4142.071	1820
4143.628	1845
4145.188	1868
4146.745	1869
4148.302	1798
4149.858	1883
4151.414	1848
4152.971	1873
4154.526	1845
4156.081	1860
4157.635	1865
4159.189	1829
4160.745	1879
4162.298	1894
4163.852	1822
4165.405	1847
4166.957	1805
4168.51	1831
4170.063	1819
4171.614	1852
4173.166	1851
4174.717	1849
4176.267	1790
4177.817	1868
4179.368	1838
4180.917	1823
4182.466	1833
4184.016	1878
4185.564	1842
4187.112	1790
4188.66	1813
4190.207	1754
4191.754	1806
4193.301	1772
4194.848	1799
4196.394	1774
4197.94	1806
4199.484	1810
4201.03	1759
4202.575	1823
4204.12	1787
4205.663	1816
4207.207	1803
4208.75	1802
4210.292	1786
4211.836	1766
4213.378	1745
4214.92	1788
4216.46	1812
4218.002	1802
4219.544	1765
4221.083	1783
4222.625	1759
4224.164	1791
4225.703	1747
4227.244	1797
4228.782	1799
4230.32	1752
4231.857	1760
4233.395	1819
4234.933	1759
4236.471	1784
4238.007	1787
4239.542	1745
4241.078	1732
4242.614	1737
4244.15	1798
4245.685	1751
4247.219	1749
4248.753	1756
4250.287	1791
4251.82	1729
4253.354	1761
4254.887	1762
4256.419	1754
4257.951	1765
4259.483	1731
4261.016	1762
4262.547	1765
4264.078	1745
4265.608	1738
4267.137	1800
4268.668	1752
4270.197	1796
4271.727	1746
4273.254	1739
4274.783	1764
4276.311	1774
4277.84	1715
4279.366	1734
4280.894	1763
4282.42	1762
4283.946	1706
4285.473	1754
4286.998	1708
4288.523	1714
4290.047	1739
4291.572	1748
4293.096	1733
4294.622	1724
4296.144	1694
4297.668	1737
4299.19	1715
4300.713	1726
4302.236	1714
4303.758	1724
4305.279	1716
4306.799	1729
4308.321	1686
4309.842	1678
4311.361	1704
4312.882	1698
4314.401	1713
