400.0961	4146
402.6185	4093
405.1424	4126
407.6635	4129
410.1838	4120
412.7035	4168
415.2225	4226
417.7388	4174
420.2585	4341
422.7754	4347
425.2917	4368
427.8072	4355
430.3221	4532
432.8363	4362
435.3498	4486
437.8626	4367
440.3727	4469
442.8841	4429
445.3969	4470
447.907	4449
450.4142	4371
452.9229	4469
455.4289	4375
457.9362	4483
460.4449	4374
462.9488	4390
465.454	4397
467.9566	4381
470.4604	4339
472.9637	4367
475.4662	4298
477.966	4414
480.4671	4317
482.9656	4404
485.4633	4479
487.9645	4449
490.4608	4389
492.9566	4441
495.4536	4415
497.948	4488
500.4437	4436
502.9387	4545
505.431	4515
507.9226	4442
510.4136	4478
512.9079	4508
515.3975	4519
517.8864	4556
520.3746	4503
522.8622	4395
525.3491	4537
527.8394	4516
530.3249	4560
532.8098	4568
535.2939	4575
537.7774	4539
540.2623	4555
542.7444	4517
545.2259	4600
547.7067	4545
550.1868	4647
552.6683	4509
555.147	4585
557.6231	4704
560.1005	4598
562.5773	4558
565.0534	4637
567.5308	4689
570.0056	4646
572.4776	4858
574.951	4694
577.4237	4726
579.8978	4740
582.3671	4751
584.8378	4792
587.3079	4754
589.7773	4683
592.244	4724
594.714	4729
597.1793	4875
599.6461	4768
602.1121	4680
604.5754	4670
607.0421	4725
609.5042	4727
611.9675	4764
614.4282	4710
616.8902	4751
619.3515	4654
621.8122	4575
624.2702	4655
626.7296	4704
629.1863	4549
631.6423	4634
634.1017	4748
636.5563	4628
639.0104	4683
641.4658	4647
643.9185	4696
646.3725	4667
648.8239	4692
651.2766	4705
653.7266	4575
656.176	4715
658.6247	4672
661.0748	4800
663.5242	4813
665.9709	4837
668.417	4664
670.8624	4805
673.3092	4740
675.7533	4864
678.1968	4781
680.6395	4779
683.0817	4778
685.5251	4869
687.9659	4775
690.4061	4816
692.8456	4845
695.2844	4896
697.7226	4844
700.1621	4923
702.599	4939
705.0332	4882
707.4688	4843
709.9036	4945
712.3399	4993
714.7735	4894
717.2044	4910
719.6367	4877
722.0683	4938
724.4993	4918
726.9296	4946
729.3593	5009
731.7883	4916
734.2147	4958
736.6423	5028
739.0714	4994
741.4958	4961
743.9216	4962
746.3447	5009
748.7691	5076
751.1929	5102
753.616	5145
756.0366	5081
758.4584	5158
760.8776	5207
763.2982	5071
765.718	5119
768.1373	5043
770.5539	5209
772.9698	5218
775.3871	5154
777.8038	5168
780.2178	5176
782.6332	5172
785.0459	5115
787.458	5207
789.8714	5119
792.2842	5213
794.6943	5166
797.1038	5167
799.5127	5197
801.9209	5154
804.3324	5201
806.7393	5291
809.1456	5189
811.5513	5263
813.9562	5243
816.3625	5246
818.7663	5246
821.1693	5325
823.5718	5197
825.9735	5244
828.3746	5313
830.7771	5242
833.177	5409
835.5762	5311
837.9747	5278
840.3727	5268
842.772	5329
845.1666	5319
847.5626	5376
849.958	5412
852.3527	5521
854.7488	5438
857.1403	5386
859.5331	5527
861.9253	5464
864.3168	5409
866.7057	5394
869.098	5368
871.4876	5421
873.8746	5490
876.263	5426
878.6487	5411
881.0378	5420
883.4243	5442
885.8081	5350
888.1933	5482
890.5759	5252
892.9598	5392
895.343	5340
897.7256	5438
900.1057	5382
902.4871	5387
904.8659	5406
907.246	5511
909.6254	5475
912.0023	5474
914.3786	5539
916.7562	5572
919.1331	5686
921.5074	5687
923.8831	5762
926.2562	5780
928.6287	5677
931.0005	5773
933.3757	5735
935.7462	5762
938.1162	5906
940.4855	5870
942.8542	5835
945.2242	5971
947.5916	6167
949.9584	6491
952.3266	6679
954.6921	6881
957.0571	7191
959.4233	7313
961.787	7469
964.15	7561
966.5125	7196
968.8742	6772
971.2354	6625
973.5959	6159
975.9559	6097
978.3151	5852
980.6738	5828
983.0338	5773
985.3912	5743
987.7461	5648
990.1022	5677
992.4578	5574
994.8127	5629
997.1689	5707
999.5207	5690
1001.874	5703
1004.226	5620
1006.576	5730
1008.929	5665
1011.28	5688
1013.628	5670
1015.977	5733
1018.324	5762
1020.674	5681
1023.019	5738
1025.366	5780
1027.713	5686
1030.056	5772
1032.399	5798
1034.746	5738
1037.087	5845
1039.431	5766
1041.771	5772
1044.113	5896
1046.454	5784
1048.793	5795
1051.133	5801
1053.471	5897
1055.807	5900
1058.146	5901
1060.483	5791
1062.818	5899
1065.153	5923
1067.489	6040
1069.822	6000
1072.156	5995
1074.488	6029
1076.82	6032
1079.15	5897
1081.48	5976
1083.814	6034
1086.143	5854
1088.471	5879
1090.799	5790
1093.126	5748
1095.452	5880
1097.78	5823
1100.105	5912
1102.43	5754
1104.754	5989
1107.077	5961
1109.4	5838
1111.722	5922
1114.044	5794
1116.365	5883
1118.685	5841
1121.005	5907
1123.324	5868
1125.643	5781
1127.961	5821
1130.278	5930
1132.595	5841
1134.911	5779
1137.226	5847
1139.541	5886
1141.854	5860
1144.167	5994
1146.482	5864
1148.793	5931
1151.105	5810
1153.414	5874
1155.725	5730
1158.033	5909
1160.344	5878
1162.651	5906
1164.959	5928
1167.265	5996
1169.572	5874
1171.878	5834
1174.184	5868
1176.488	5928
1178.79	5851
1181.094	5915
1183.396	5984
1185.699	5835
1188.001	5904
1190.301	5811
1192.6	5899
1194.9	5938
1197.2	5909
1199.497	5855
1201.794	5836
1204.09	6101
1206.387	5979
1208.684	5903
1210.978	5947
1213.272	5894
1215.565	5870
1217.858	5949
1220.15	5848
1222.443	5974
1224.734	5950
1227.024	5905
1229.313	5990
1231.602	6038
1233.892	6121
1236.18	6088
1238.467	6096
1240.754	6152
1243.04	6109
1245.325	6150
1247.612	6252
1249.896	6253
1252.178	6100
1254.461	6189
1256.743	6307
1259.027	6319
1261.308	6187
1263.587	6152
1265.867	6248
1268.146	6280
1270.425	6311
1272.703	6146
1274.981	6258
1277.256	6251
1279.532	6203
1281.808	6183
1284.083	6216
1286.358	6320
1288.63	6160
1290.904	6164
1293.175	6227
1295.449	6140
1297.719	6166
1299.99	6116
1302.259	6125
1304.529	6051
1306.798	6052
1309.065	6036
1311.333	6235
1313.599	6161
1315.866	6277
1318.131	6168
1320.396	6172
1322.66	6194
1324.925	6163
1327.187	6034
1329.448	6141
1331.711	6085
1333.974	6181
1336.234	6133
1338.493	6178
1340.752	6130
1343.01	6090
1345.269	6123
1347.526	6125
1349.784	6187
1352.04	6100
1354.295	5966
1356.552	6086
1358.806	6069
1361.059	6060
1363.312	6052
1365.564	5996
1367.818	6186
1370.069	6193
1372.318	6155
1374.568	6162
1376.817	6171
1379.066	6142
1381.316	6213
1383.564	6200
1385.809	6163
1388.056	6255
1390.301	6274
1392.549	6291
1394.793	6331
1397.036	6309
1399.279	6325
1401.522	6419
1403.763	6502
1406.007	6380
1408.248	6309
1410.487	6406
1412.727	6286
1414.965	6386
1417.205	6414
1419.442	6362
1421.68	6289
1423.915	6294
1426.152	6399
1428.388	6288
1430.623	6372
1432.857	6393
1435.091	6356
1437.323	6523
1439.556	6445
1441.789	6566
1444.019	6490
1446.25	6440
1448.48	6521
1450.708	6547
1452.938	6650
1455.167	6612
1457.394	6634
1459.62	6561
1461.846	6613
1464.073	6625
1466.299	6467
1468.523	6517
1470.746	6317
1472.969	6313
1475.191	6362
1477.415	6334
1479.636	6201
1481.858	6282
1484.078	6312
1486.298	6192
1488.518	6218
1490.736	6155
1492.954	6225
1495.169	6129
1497.386	6127
1499.602	6244
1501.819	6135
1504.034	6060
1506.248	6189
1508.462	6143
1510.675	6115
1512.888	6192
1515.1	6112
1517.311	6133
1519.522	6099
1521.732	6014
1523.942	6148
1526.151	6186
1528.36	6200
1530.566	6153
1532.773	6201
1534.98	6185
1537.187	6113
1539.392	6074
1541.596	6163
1543.801	6194
1546.005	6131
1548.208	6139
1550.411	6093
1552.612	6049
1554.814	6152
1557.013	6248
1559.212	6280
1561.414	6219
1563.612	6183
1565.811	6197
1568.007	6258
1570.203	6265
1572.403	6295
1574.598	6240
1576.792	6272
1578.988	6225
1581.181	6225
1583.376	6255
1585.568	6268
1587.761	6259
1589.952	6279
1592.143	6311
1594.333	6335
1596.524	6330
1598.715	6448
1600.903	6262
1603.091	6334
1605.278	6404
1607.466	6393
1609.652	6299
1611.838	6370
1614.023	6443
1616.207	6290
1618.391	6335
1620.576	6409
1622.759	6341
1624.941	6394
1627.123	6448
1629.304	6503
1631.484	6424
1633.664	6446
1635.844	6341
1638.022	6438
1640.201	6402
1642.38	6464
1644.556	6407
1646.732	6623
1648.908	6466
1651.084	6577
1653.257	6499
1655.433	6541
1657.607	6478
1659.779	6522
1661.951	6446
1664.122	6679
1666.295	6554
1668.467	6535
1670.635	6536
1672.805	6555
1674.973	6435
1677.142	6633
1679.31	6523
1681.478	6590
1683.644	6555
1685.81	6531
1687.975	6462
1690.142	6535
1692.305	6487
1694.468	6555
1696.632	6417
1698.794	6397
1700.957	6316
1703.119	6434
1705.279	6368
1707.439	6373
1709.598	6283
1711.758	6237
1713.917	6426
1716.075	6323
1718.231	6371
1720.388	6256
1722.543	6257
1724.702	6335
1726.856	6358
1729.01	6346
1731.164	6143
1733.317	6304
1735.471	6250
1737.623	6309
1739.774	6265
1741.925	6310
1744.075	6219
1746.225	6206
1748.376	6274
1750.524	6346
1752.672	6222
1754.82	6326
1756.965	6347
1759.113	6332
1761.259	6324
1763.405	6344
1765.549	6291
1767.694	6353
1769.836	6321
1771.981	6408
1774.123	6331
1776.264	6313
1778.405	6355
1780.546	6364
1782.687	6289
1784.827	6402
1786.966	6348
1789.103	6275
1791.242	6410
1793.381	6386
1795.517	6288
1797.653	6275
1799.788	6372
1801.923	6353
1804.057	6373
1806.193	6262
1808.326	6330
1810.457	6366
1812.59	6239
1814.721	6338
1816.855	6358
1818.984	6249
1821.113	6190
1823.244	6229
1825.372	6218
1827.499	6441
1829.63	6253
1831.756	6294
1833.882	6273
1836.007	6212
1838.132	6192
1840.26	6302
1842.384	6284
1844.507	6289
1846.63	6255
1848.752	6247
1850.875	6321
1852.996	6212
1855.118	6300
1857.238	6209
1859.358	6320
1861.477	6255
1863.597	6224
1865.715	6273
1867.832	6233
1869.948	6273
1872.064	6201
1874.181	6197
1876.297	6217
1878.411	6222
1880.526	6201
1882.639	6349
1884.752	6200
1886.865	6241
1888.977	6350
1891.089	6275
1893.2	6234
1895.308	6325
1897.42	6342
1899.53	6219
1901.639	6225
1903.745	6207
1905.853	6310
1907.962	6301
1910.067	6278
1912.174	6323
1914.278	6268
1916.383	6320
1918.486	6260
1920.592	6357
1922.694	6393
1924.797	6327
1926.898	6257
1929	6356
1931.102	6287
1933.203	6322
1935.301	6348
1937.401	6242
1939.499	6372
1941.598	6379
1943.697	6239
1945.793	6238
1947.888	6333
1949.985	6380
1952.08	6220
1954.176	6421
1956.269	6340
1958.364	6332
1960.457	6395
1962.549	6328
1964.642	6349
1966.733	6277
1968.823	6321
1970.913	6289
1973.005	6322
1975.093	6322
1977.184	6286
1979.271	6249
1981.359	6267
1983.446	6257
1985.532	6332
1987.619	6347
1989.705	6280
1991.789	6194
1993.874	6247
1995.956	6318
1998.041	6339
2000.123	6194
2002.206	6282
2004.287	6237
2006.368	6158
2008.449	6346
2010.529	6298
2012.609	6253
2014.688	6257
2016.766	6204
2018.843	6359
2020.922	6198
2022.999	6222
2025.074	6221
2027.15	6257
2029.225	6345
2031.299	6220
2033.375	6221
2035.447	6180
2037.52	6205
2039.592	6296
2041.664	6211
2043.736	6172
2045.807	6183
2047.876	6310
2049.947	6290
2052.015	6256
2054.086	6306
2056.153	6045
2058.221	6247
2060.288	6249
2062.353	6195
2064.42	6343
2066.486	6196
2068.55	6227
2070.614	6349
2072.678	6301
2074.741	6177
2076.805	6234
2078.866	6269
2080.929	6254
2082.99	6238
2085.049	6318
2087.109	6183
2089.17	6268
2091.228	6239
2093.286	6331
2095.344	6201
2097.4	6355
2099.46	6279
2101.516	6177
2103.572	6331
2105.626	6256
2107.679	6234
2109.735	6252
2111.788	6240
2113.841	6201
2115.894	6237
2117.945	6250
2119.997	6265
2122.049	6250
2124.1	6201
2126.148	6183
2128.197	6221
2130.246	6208
2132.296	6242
2134.342	6132
2136.39	6249
2138.437	6124
2140.483	6275
2142.527	6278
2144.574	6215
2146.619	6228
2148.661	6200
2150.705	6111
2152.747	6307
2154.792	6183
2156.832	6317
2158.874	6172
2160.915	6074
2162.954	6222
2164.995	6211
2167.034	6179
2169.072	6148
2171.111	6235
2173.148	6216
2175.186	6102
2177.223	6106
2179.258	6106
2181.294	6182
2183.328	6163
2185.362	6149
2187.398	6143
2189.431	6126
2191.463	6146
2193.495	6136
2195.528	6060
2197.56	6080
2199.59	6260
2201.62	6151
2203.649	6087
2205.678	6155
2207.708	6007
2209.737	6068
2211.764	6103
2213.791	6043
2215.817	6201
2217.843	6035
2219.87	6175
2221.895	6099
2223.919	6027
2225.942	6089
2227.966	6136
2229.988	5994
2232.012	6090
2234.032	6117
2236.054	6021
2238.074	5967
2240.095	6110
2242.116	6013
2244.135	6090
2246.153	6110
2248.171	6076
2250.188	6123
2252.208	6098
2254.223	6045
2256.239	6076
2258.255	6053
2260.269	5943
2262.283	6132
2264.3	6081
2266.312	6162
2268.325	6026
2270.336	6129
2272.349	6088
2274.362	6059
2276.372	6022
2278.383	6070
2280.392	5950
2282.402	6178
2284.409	6142
2286.418	6125
2288.427	6090
2290.433	6073
2292.441	6236
2294.446	6130
2296.453	6104
2298.459	6167
2300.463	6113
2302.466	6179
2304.471	6042
2306.475	6060
2308.477	6002
2310.478	6024
2312.481	6015
2314.481	6061
2316.481	5937
2318.482	6029
2320.482	6017
2322.48	5937
2324.48	6025
2326.478	6099
2328.476	5940
2330.473	6029
2332.469	5937
2334.465	6167
2336.46	5968
2338.454	6047
2340.45	5951
2342.444	5962
2344.437	5908
2346.43	5954
2348.421	6074
2350.414	6025
2352.405	5928
2354.396	6024
2356.386	5943
2358.376	5833
2360.366	6157
2362.355	5956
2364.343	6077
2366.331	5991
2368.317	5928
2370.304	5950
2372.292	5962
2374.278	5901
2376.262	6001
2378.247	5860
2380.23	5851
2382.216	5928
2384.199	5840
2386.181	5884
2388.163	5900
2390.144	5943
2392.127	5956
2394.107	5895
2396.087	5940
2398.066	5859
2400.046	5981
2402.023	5810
2404.004	5978
2405.981	5889
2407.957	5979
2409.934	5945
2411.91	5846
2413.886	5893
2415.862	5770
2417.836	5883
2419.809	5937
2421.784	5846
2423.756	6024
2425.73	5933
2427.701	5800
2429.672	5865
2431.644	5920
2433.615	5844
2435.586	5823
2437.555	5795
2439.523	5865
2441.491	5795
2443.459	5834
2445.428	5898
2447.395	5820
2449.361	5889
2451.327	5830
2453.292	5809
2455.257	5900
2457.223	5863
2459.187	5775
2461.15	5898
2463.113	5858
2465.076	5874
2467.039	5772
2468.999	5815
2470.96	5864
2472.921	5882
2474.881	5859
2476.841	5814
2478.8	5808
2480.759	5854
2482.717	5771
2484.675	5748
2486.63	5828
2488.589	5872
2490.545	5837
2492.5	5839
2494.455	5798
2496.408	5766
2498.364	5913
2500.318	5850
2502.27	5774
2504.223	5723
2506.174	5843
2508.126	5637
2510.078	5807
2512.03	5779
2513.979	5702
2515.927	5787
2517.877	5840
2519.826	5868
2521.775	5700
2523.722	5762
2525.668	5742
2527.616	5769
2529.561	5718
2531.508	5721
2533.452	5710
2535.398	5842
2537.342	5660
2539.284	5700
2541.229	5783
2543.173	5717
2545.114	5666
2547.055	5755
2548.996	5791
2550.938	5740
2552.878	5736
2554.817	5802
2556.756	5752
2558.695	5718
2560.633	5746
2562.572	5755
2564.509	5824
2566.445	5736
2568.382	5769
2570.317	5810
2572.254	5657
2574.189	5780
2576.123	5740
2578.057	5750
2579.99	5747
2581.923	5770
2583.855	5804
2585.788	5789
2587.719	5722
2589.65	5691
2591.579	5741
2593.511	5786
2595.44	5768
2597.37	5740
2599.297	5676
2601.225	5724
2603.153	5717
2605.08	5767
2607.007	5810
2608.932	5803
2610.858	5797
2612.782	5731
2614.709	5738
2616.632	5750
2618.556	5793
2620.478	5862
2622.401	5702
2624.324	5738
2626.247	5849
2628.167	5800
2630.088	5759
2632.008	5764
2633.928	5768
2635.848	5835
2637.766	5798
2639.684	5811
2641.603	5723
2643.519	5824
2645.437	5842
2647.353	5695
2649.27	5855
2651.184	5791
2653.099	5884
2655.014	5712
2656.928	5655
2658.842	5838
2660.755	5618
2662.667	5795
2664.579	5747
2666.491	5854
2668.402	5808
2670.312	5712
2672.222	5803
2674.132	5731
2676.042	5837
2677.951	5783
2679.859	5729
2681.766	5785
2683.674	5767
2685.582	5764
2687.488	5624
2689.392	5763
2691.298	5736
2693.202	5751
2695.107	5709
2697.012	5721
2698.914	5692
2700.817	5611
2702.72	5806
2704.622	5667
2706.524	5719
2708.425	5645
2710.326	5710
2712.225	5640
2714.125	5615
2716.024	5735
2717.923	5707
2719.822	5663
2721.719	5758
2723.616	5639
2725.512	5740
2727.41	5707
2729.305	5613
2731.201	5664
2733.095	5685
2734.99	5761
2736.884	5672
2738.778	5769
2740.67	5635
2742.562	5719
2744.455	5635
2746.346	5775
2748.238	5694
2750.129	5658
2752.018	5558
2753.907	5688
2755.797	5724
2757.687	5774
2759.575	5605
2761.462	5673
2763.349	5681
2765.237	5586
2767.124	5626
2769.009	5619
2770.894	5644
2772.779	5561
2774.663	5678
2776.547	5662
2778.431	5608
2780.314	5544
2782.197	5738
2784.078	5651
2785.96	5574
2787.842	5597
2789.723	5639
2791.603	5594
2793.483	5574
2795.362	5612
2797.241	5667
2799.121	5626
2800.997	5603
2802.874	5653
2804.751	5529
2806.628	5646
2808.506	5642
2810.38	5625
2812.255	5614
2814.13	5578
2816.003	5487
2817.878	5594
2819.752	5579
2821.623	5640
2823.496	5636
2825.368	5688
2827.238	5654
2829.111	5558
2830.98	5489
2832.851	5647
2834.719	5597
2836.589	5694
2838.458	5680
2840.327	5555
2842.193	5717
2844.061	5628
2845.927	5677
2847.794	5672
2849.66	5586
2851.525	5820
2853.39	5755
2855.254	5657
2857.117	5696
2858.983	5702
2860.845	5822
2862.707	5728
2864.569	5870
2866.431	5903
2868.293	5954
2870.154	5902
2872.013	6042
2873.873	6120
2875.733	6091
2877.592	6159
2879.451	6201
2881.309	6195
2883.166	6296
2885.022	6335
2886.879	6375
2888.736	6264
2890.591	6481
2892.446	6412
2894.301	6358
2896.155	6366
2898.009	6367
2899.863	6321
2901.716	6259
2903.568	6290
2905.419	6289
2907.27	6391
2909.123	6313
2910.973	6338
2912.824	6332
2914.673	6515
2916.521	6535
2918.372	6496
2920.22	6593
2922.067	6623
2923.914	6795
2925.761	6756
2927.607	6832
2929.455	6959
2931.301	6900
2933.144	7013
2934.99	6843
2936.833	7044
2938.678	7221
2940.522	7165
2942.364	7339
2944.207	7330
2946.048	7427
2947.891	7412
2949.731	7484
2951.571	7491
2953.412	7406
2955.25	7326
2957.09	7300
2958.93	7185
2960.767	7035
2962.606	7021
2964.443	6986
2966.279	6821
2968.116	6899
2969.953	6664
2971.788	6685
2973.623	6729
2975.457	6593
2977.292	6578
2979.127	6376
2980.959	6501
2982.792	6383
2984.624	6398
2986.455	6440
2988.288	6408
2990.119	6288
2991.949	6268
2993.779	6190
2995.608	6179
2997.439	6171
2999.268	6004
3001.096	6014
3002.923	5946
3004.751	5897
3006.578	5952
3008.406	5688
3010.232	5702
3012.057	5733
3013.883	5700
3015.706	5687
3017.532	5653
3019.356	5576
3021.179	5586
3023.002	5461
3024.823	5478
3026.646	5492
3028.469	5375
3030.289	5435
3032.11	5425
3033.93	5329
3035.749	5473
3037.57	5516
3039.39	5327
3041.207	5464
3043.026	5260
3044.842	5359
3046.661	5352
3048.477	5217
3050.294	5342
3052.109	5382
3053.925	5293
3055.739	5360
3057.555	5345
3059.368	5351
3061.181	5409
3062.995	5308
3064.807	5378
3066.62	5288
3068.433	5358
3070.243	5316
3072.054	5372
3073.865	5208
3075.675	5243
3077.485	5233
3079.293	5287
3081.102	5291
3082.911	5299
3084.719	5178
3086.527	5254
3088.333	5234
3090.139	5190
3091.945	5128
3093.75	5192
3095.557	5133
3097.361	5297
3099.165	5216
3100.969	5099
3102.772	5073
3104.575	5244
3106.379	5153
3108.181	5103
3109.982	5195
3111.783	5134
3113.584	5158
3115.386	5121
3117.186	5130
3118.985	5104
3120.783	5078
3122.582	5115
3124.381	5080
3126.179	5052
3127.975	5133
3129.772	5180
3131.569	5196
3133.365	5046
3135.161	5107
3136.956	5105
3138.751	5080
3140.544	4987
3142.338	5119
3144.132	5014
3145.925	4989
3147.717	5056
3149.509	5021
3151.301	5118
3153.091	5003
3154.884	4966
3156.673	4949
3158.462	5024
3160.252	5025
3162.041	5045
3163.831	5013
3165.618	5058
3167.405	5026
3169.193	5044
3170.979	5052
3172.767	4950
3174.553	4994
3176.338	4993
3178.123	5082
3179.907	5073
3181.692	4966
3183.477	5035
3185.259	5006
3187.042	4955
3188.824	4981
3190.607	4962
3192.389	5022
3194.17	4969
3195.951	4998
3197.73	4973
3199.51	5036
3201.289	5017
3203.07	4987
3204.848	4998
3206.626	4863
3208.403	4856
3210.18	5011
3211.959	5040
3213.735	4913
3215.511	5084
3217.285	4889
3219.06	4929
3220.836	4982
3222.611	4915
3224.384	5040
3226.158	4951
3227.929	4934
3229.702	4997
3231.476	4918
3233.248	4873
3235.018	4961
3236.789	5001
3238.56	4990
3240.33	4975
3242.1	4938
3243.869	4950
3245.637	4961
3247.405	4937
3249.172	4970
3250.941	4920
3252.707	4975
3254.474	4949
3256.24	4895
3258.006	4955
3259.772	4993
3261.537	5051
3263.301	4943
3265.065	5018
3266.828	4996
3268.592	4948
3270.355	5029
3272.117	4994
3273.878	4938
3275.64	4910
3277.401	4959
3279.162	4919
3280.922	4983
3282.682	5031
3284.441	5012
3286.199	5111
3287.959	4849
3289.716	4911
3291.475	4994
3293.232	4958
3294.988	5008
3296.744	4957
3298.501	5008
3300.256	5023
3302.011	5044
3303.766	4889
3305.52	5021
3307.275	4856
3309.028	4994
3310.781	4970
3312.533	4897
3314.285	4975
3316.038	4981
3317.789	4912
3319.54	5031
3321.289	4888
3323.039	5036
3324.789	4982
3326.539	4932
3328.288	5021
3330.035	5020
3331.783	4959
3333.531	5062
3335.28	4982
3337.025	4886
3338.771	5016
3340.518	4947
3342.262	4886
3344.009	4873
3345.753	4977
3347.497	4841
3349.24	4854
3350.983	4979
3352.726	4954
3354.469	4884
3356.212	4764
3357.952	4861
3359.694	4859
3361.434	4814
3363.176	4859
3364.916	4848
3366.654	4844
3368.394	4862
3370.132	4797
3371.871	4850
3373.61	4792
3375.346	4813
3377.083	4752
3378.82	4862
3380.556	4842
3382.292	4873
3384.027	4876
3385.763	4772
3387.497	4787
3389.231	4835
3390.965	4730
3392.698	4793
3394.431	4709
3396.164	4782
3397.896	4767
3399.627	4692
3401.36	4736
3403.09	4824
3404.82	4663
3406.55	4767
3408.279	4754
3410.01	4672
3411.738	4701
3413.467	4738
3415.194	4666
3416.92	4644
3418.647	4730
3420.375	4737
3422.102	4606
3423.827	4736
3425.553	4723
3427.277	4599
3429.003	4696
3430.727	4706
3432.451	4568
3434.173	4621
3435.896	4642
3437.62	4602
3439.343	4583
3441.063	4678
3442.785	4537
3444.505	4566
3446.226	4647
3447.948	4577
3449.666	4555
3451.386	4611
3453.104	4560
3454.823	4589
3456.541	4618
3458.259	4549
3459.976	4530
3461.693	4562
3463.408	4449
3465.125	4503
3466.841	4517
3468.556	4513
3470.271	4479
3471.985	4536
3473.698	4550
3475.414	4404
3477.126	4512
3478.838	4432
3480.55	4450
3482.263	4522
3483.975	4504
3485.686	4409
3487.396	4437
3489.106	4391
3490.817	4374
3492.526	4461
3494.236	4415
3495.944	4459
3497.652	4428
3499.359	4496
3501.066	4343
3502.775	4352
3504.481	4338
3506.187	4355
3507.893	4370
3509.598	4424
3511.304	4431
3513.009	4346
3514.713	4301
3516.417	4380
3518.12	4369
3519.821	4345
3521.525	4359
3523.228	4286
3524.929	4322
3526.631	4281
3528.33	4283
3530.032	4277
3531.733	4300
3533.433	4243
3535.131	4286
3536.83	4289
3538.529	4244
3540.227	4318
3541.925	4262
3543.623	4197
3545.319	4290
3547.016	4349
3548.712	4239
3550.408	4192
3552.103	4257
3553.798	4235
3555.491	4305
3557.188	4269
3558.88	4156
3560.574	4204
3562.266	4192
3563.959	4195
3565.651	4296
3567.343	4145
3569.035	4194
3570.725	4113
3572.415	4206
3574.106	4219
3575.797	4168
3577.485	4229
3579.174	4061
3580.863	4146
3582.551	4080
3584.238	4198
3585.926	4241
3587.613	4111
3589.3	4142
3590.986	4105
3592.671	4113
3594.357	4104
3596.042	4100
3597.726	4124
3599.41	4108
3601.094	4034
3602.778	4119
3604.461	4048
3606.143	3971
3607.825	4050
3609.507	4016
3611.188	4063
3612.87	3981
3614.551	3997
3616.229	3947
3617.909	3964
3619.589	4038
3621.269	4046
3622.948	3955
3624.625	3922
3626.302	4016
3627.98	3959
3629.657	4011
3631.334	3962
3633.01	3865
3634.686	3884
3636.361	3945
3638.036	3889
3639.712	4022
3641.385	3982
3643.06	3862
3644.732	3844
3646.405	3958
3648.08	3854
3649.751	3881
3651.424	3902
3653.094	3864
3654.766	3880
3656.436	3941
3658.106	3862
3659.777	3864
3661.446	3914
3663.115	3914
3664.783	3897
3666.452	3902
3668.121	3825
3669.788	3845
3671.454	3761
3673.121	3860
3674.789	3855
3676.455	3858
3678.12	3819
3679.784	3893
3681.45	3845
3683.114	3877
3684.779	3869
3686.442	3761
3688.105	3844
3689.768	3832
3691.43	3686
3693.093	3866
3694.754	3781
3696.415	3743
3698.076	3815
3699.736	3839
3701.396	3753
3703.057	3764
3704.716	3709
3706.375	3749
3708.034	3818
3709.692	3837
3711.351	3708
3713.008	3803
3714.665	3802
3716.321	3692
3717.977	3779
3719.634	3695
3721.29	3789
3722.945	3702
3724.598	3751
3726.253	3764
3727.907	3743
3729.561	3695
3731.214	3739
3732.867	3758
3734.518	3722
3736.171	3686
3737.824	3665
3739.474	3683
3741.125	3688
3742.775	3701
3744.425	3704
3746.074	3685
3747.725	3665
3749.373	3750
3751.022	3687
3752.669	3637
3754.318	3695
3755.966	3659
3757.612	3678
3759.259	3703
3760.905	3639
3762.55	3602
3764.197	3660
3765.842	3664
3767.486	3697
3769.131	3649
3770.774	3698
3772.417	3658
3774.061	3598
3775.705	3624
3777.347	3632
3778.988	3650
3780.629	3630
3782.271	3568
3783.912	3568
3785.552	3650
3787.192	3596
3788.831	3593
3790.472	3649
3792.112	3563
3793.75	3525
3795.388	3660
3797.024	3498
3798.661	3508
3800.3	3590
3801.936	3652
3803.572	3577
3805.208	3542
3806.844	3541
3808.48	3593
3810.115	3530
3811.748	3566
3813.382	3581
3815.016	3521
3816.649	3612
3818.283	3517
3819.914	3534
3821.547	3470
3823.178	3553
3824.809	3546
3826.441	3410
3828.072	3431
3829.701	3459
3831.331	3569
3832.96	3571
3834.591	3535
3836.219	3490
3837.847	3522
3839.475	3514
3841.102	3522
3842.729	3419
3844.357	3479
3845.984	3468
3847.609	3432
3849.234	3501
3850.86	3585
3852.485	3447
3854.11	3466
3855.734	3414
3857.357	3581
3858.981	3472
3860.603	3504
3862.227	3499
3863.848	3454
3865.471	3533
3867.092	3404
3868.713	3398
3870.334	3423
3871.954	3451
3873.575	3422
3875.194	3418
3876.813	3429
3878.433	3426
3880.051	3426
3881.669	3357
3883.286	3461
3884.904	3463
3886.52	3455
3888.138	3430
3889.754	3405
3891.37	3410
3892.985	3353
3894.6	3441
3896.216	3481
3897.831	3374
3899.444	3352
3901.058	3414
3902.67	3363
3904.283	3353
3905.897	3411
3907.509	3375
3909.121	3439
3910.731	3327
3912.342	3341
3913.954	3370
3915.563	3375
3917.174	3357
3918.783	3395
3920.391	3373
3922.002	3434
3923.611	3420
3925.218	3334
3926.826	3382
3928.432	3451
3930.039	3295
3931.647	3379
3933.253	3393
3934.859	3324
3936.464	3380
3938.068	3303
3939.675	3336
3941.278	3350
3942.883	3291
3944.486	3283
3946.089	3386
3947.692	3291
3949.295	3309
3950.898	3388
3952.499	3400
3954.1	3347
3955.7	3316
3957.303	3334
3958.903	3265
3960.502	3328
3962.101	3299
3963.7	3339
3965.301	3271
3966.899	3329
3968.497	3313
3970.094	3287
3971.691	3285
3973.288	3263
3974.885	3283
3976.481	3198
3978.077	3300
3979.672	3308
3981.267	3199
3982.863	3197
3984.457	3291
3986.051	3158
3987.645	3259
3989.238	3304
3990.831	3201
3992.425	3177
3994.017	3337
3995.607	3234
3997.199	3214
3998.79	3293
4000.382	3218
4001.973	3200
4003.561	3215
4005.151	3157
4006.741	3207
4008.331	3196
4009.918	3098
4011.507	3122
4013.095	3160
4014.681	3127
4016.269	3076
4017.856	3096
4019.443	3089
4021.028	3133
4022.614	3166
4024.199	3191
4025.785	3146
4027.37	3222
4028.953	3134
4030.536	3085
4032.12	3112
4033.704	3133
4035.287	3106
4036.869	3157
4038.45	3063
4040.032	3056
4041.613	3092
4043.195	3117
4044.776	3080
4046.356	3051
4047.935	3109
4049.515	3022
4051.095	3013
4052.674	3122
4054.251	3063
4055.829	3109
4057.406	3067
4058.985	3133
4060.562	3117
4062.139	3061
4063.715	3118
4065.29	3056
4066.865	3048
4068.442	3022
4070.016	3108
4071.59	3017
4073.164	3085
4074.738	3037
4076.312	3048
4077.885	3064
4079.458	3034
4081.03	3013
4082.602	3020
4084.173	3038
4085.745	3032
4087.315	3036
4088.886	2959
4090.456	3038
4092.026	3049
4093.596	3000
4095.165	2971
4096.734	3043
4098.301	3024
4099.869	3032
4101.437	2981
4103.006	3033
4104.572	2989
4106.139	3023
4107.704	2964
4109.27	2919
4110.837	3007
4112.401	3042
4113.966	2992
4115.53	2940
4117.094	2986
4118.659	2965
4120.223	2951
4121.785	3025
4123.347	2991
4124.909	2913
4126.471	2896
4128.034	2973
4129.595	2931
4131.155	2901
4132.716	2945
4134.275	3003
4135.836	2923
4137.395	2925
4138.955	2878
4140.513	2886
4142.071	3049
4143.628	2929
4145.188	2997
4146.745	2876
4148.302	2876
4149.858	2946
4151.414	2881
4152.971	2902
4154.526	2920
4156.081	2897
4157.635	2895
4159.189	2856
4160.745	2807
4162.298	2909
4163.852	2846
4165.405	2870
4166.957	2844
4168.51	2813
4170.063	2810
4171.614	2840
4173.166	2856
4174.717	2843
4176.267	2827
4177.817	2842
4179.368	2774
4180.917	2791
4182.466	2892
4184.016	2782
4185.564	2823
4187.112	2801
4188.66	2809
4190.207	2835
4191.754	2838
4193.301	2780
4194.848	2773
4196.394	2819
4197.94	2855
4199.484	2801
4201.03	2806
4202.575	2777
4204.12	2759
4205.663	2829
4207.207	2768
4208.75	2779
4210.292	2843
4211.836	2841
4213.378	2768
4214.92	2779
4216.46	2784
4218.002	2759
4219.544	2835
4221.083	2761
4222.625	2706
4224.164	2793
4225.703	2763
4227.244	2687
4228.782	2729
4230.32	2707
4231.857	2717
4233.395	2720
4234.933	2713
4236.471	2736
4238.007	2749
4239.542	2700
4241.078	2756
4242.614	2773
4244.15	2718
4245.685	2671
4247.219	2694
4248.753	2689
4250.287	2714
4251.82	2671
4253.354	2705
4254.887	2708
4256.419	2779
4257.951	2680
4259.483	2706
4261.016	2723
4262.547	2703
4264.078	2677
4265.608	2639
4267.137	2729
4268.668	2664
4270.197	2657
4271.727	2648
4273.254	2659
4274.783	2661
4276.311	2724
4277.84	2615
4279.366	2715
4280.894	2626
4282.42	2644
4283.946	2623
4285.473	2654
4286.998	2628
4288.523	2604
4290.047	2667
4291.572	2678
4293.096	2595
4294.622	2611
4296.144	2693
4297.668	2633
4299.19	2637
4300.713	2657
4302.236	2693
4303.758	2654
4305.279	2680
4306.799	2619
4308.321	2638
4309.842	2606
4311.361	2652
4312.882	2636
4314.401	2589
