400.0961	7956
402.6185	7871
405.1424	7921
407.6635	7914
410.1838	8006
412.7035	7983
415.2225	7968
417.7388	8068
420.2585	8251
422.7754	8180
425.2917	8211
427.8072	8233
430.3221	8192
432.8363	8371
435.3498	8567
437.8626	8359
440.3727	8436
442.8841	8223
445.3969	8467
447.907	8494
450.4142	8457
452.9229	8468
455.4289	8472
457.9362	8645
460.4449	8473
462.9488	8435
465.454	8434
467.9566	8476
470.4604	8575
472.9637	8471
475.4662	8595
477.966	8444
480.4671	8580
482.9656	8668
485.4633	8827
487.9645	8526
490.4608	8675
492.9566	8704
495.4536	8751
497.948	8780
500.4437	8704
502.9387	8749
505.431	8725
507.9226	8879
510.4136	8842
512.9079	8799
515.3975	9088
517.8864	8888
520.3746	8906
522.8622	9026
525.3491	8858
527.8394	8862
530.3249	9057
532.8098	8871
535.2939	8764
537.7774	8954
540.2623	8868
542.7444	8790
545.2259	8922
547.7067	8920
550.1868	8905
552.6683	8992
555.147	8869
557.6231	8913
560.1005	9064
562.5773	9050
565.0534	9052
567.5308	9056
570.0056	9057
572.4776	9016
574.951	9122
577.4237	9272
579.8978	9240
582.3671	9286
584.8378	9224
587.3079	9346
589.7773	9378
592.244	9324
594.714	9187
597.1793	9166
599.6461	9172
602.1121	9339
604.5754	9366
607.0421	9156
609.5042	9186
611.9675	9136
614.4282	9213
616.8902	9032
619.3515	9193
621.8122	9329
624.2702	9209
626.7296	9154
629.1863	9207
631.6423	9246
634.1017	9309
636.5563	9229
639.0104	9243
641.4658	9266
643.9185	9264
646.3725	9361
648.8239	9195
651.2766	9282
653.7266	9402
656.176	9306
658.6247	9388
661.0748	9252
663.5242	9481
665.9709	9566
668.417	9519
670.8624	9561
673.3092	9511
675.7533	9611
678.1968	9482
680.6395	9520
683.0817	9519
685.5251	9565
687.9659	9626
690.4061	9616
692.8456	9695
695.2844	9511
697.7226	9676
700.1621	9598
702.599	9782
705.0332	9679
707.4688	9685
709.9036	9848
712.3399	9662
714.7735	9709
717.2044	9610
719.6367	9803
722.0683	9735
724.4993	9801
726.9296	9816
729.3593	9902
731.7883	9944
734.2147	9933
736.6423	10003
739.0714	10012
741.4958	10159
743.9216	10092
746.3447	10066
748.7691	10094
751.1929	10105
753.616	10039
756.0366	10251
758.4584	10164
760.8776	10211
763.2982	10252
765.718	10189
768.1373	10318
770.5539	10289
772.9698	10240
775.3871	10260
777.8038	10327
780.2178	10403
782.6332	10334
785.0459	10321
787.458	10342
789.8714	10372
792.2842	10293
794.6943	10405
797.1038	10275
799.5127	10345
801.9209	10340
804.3324	10270
806.7393	10419
809.1456	10418
811.5513	10430
813.9562	10327
816.3625	10427
818.7663	10406
821.1693	10604
823.5718	10448
825.9735	10508
828.3746	10539
830.7771	10473
833.177	10487
835.5762	10616
837.9747	10405
840.3727	10615
842.772	10540
845.1666	10587
847.5626	10521
849.958	10626
852.3527	10641
854.7488	10749
857.1403	10507
859.5331	10577
861.9253	10652
864.3168	10668
866.7057	10626
869.098	10536
871.4876	10531
873.8746	10692
876.263	10573
878.6487	10538
881.0378	10619
883.4243	10537
885.8081	10602
888.1933	10606
890.5759	10539
892.9598	10511
895.343	10578
897.7256	10724
900.1057	10662
902.4871	10626
904.8659	10660
907.246	10679
909.6254	10836
912.0023	10785
914.3786	10618
916.7562	10923
919.1331	10897
921.5074	11075
923.8831	11149
926.2562	10876
928.6287	11150
931.0005	11122
933.3757	11027
935.7462	11034
938.1162	11060
940.4855	11240
942.8542	11186
945.2242	11307
947.5916	11475
949.9584	11449
952.3266	11546
954.6921	11827
957.0571	11771
959.4233	12136
961.787	12356
964.15	12047
966.5125	11977
968.8742	11888
971.2354	11582
973.5959	11285
975.9559	11171
978.3151	11152
980.6738	11060
983.0338	11017
985.3912	10891
987.7461	10949
990.1022	11062
992.4578	10828
994.8127	10941
997.1689	10887
999.5207	10982
1001.874	11061
1004.226	10978
1006.576	10978
1008.929	11022
1011.28	11069
1013.628	11050
1015.977	11024
1018.324	10996
1020.674	11177
1023.019	11091
1025.366	11081
1027.713	11096
1030.056	11040
1032.399	11047
1034.746	11083
1037.087	11087
1039.431	11136
1041.771	11185
1044.113	11276
1046.454	11275
1048.793	11341
1051.133	11213
1053.471	11169
1055.807	11211
1058.146	11277
1060.483	11210
1062.818	11232
1065.153	11267
1067.489	11346
1069.822	11114
1072.156	11284
1074.488	11267
1076.82	11394
1079.15	11304
1081.48	11384
1083.814	11374
1086.143	11373
1088.471	11238
1090.799	11172
1093.126	11409
1095.452	11478
1097.78	11264
1100.105	11212
1102.43	11244
1104.754	11356
1107.077	11332
1109.4	11283
1111.722	11458
1114.044	11444
1116.365	11424
1118.685	11392
1121.005	11550
1123.324	11315
1125.643	11415
1127.961	11486
1130.278	11445
1132.595	11332
1134.911	11429
1137.226	11447
1139.541	11450
1141.854	11470
1144.167	11465
1146.482	11453
1148.793	11393
1151.105	11407
1153.414	11583
1155.725	11596
1158.033	11371
1160.344	11569
1162.651	11571
1164.959	11398
1167.265	11492
1169.572	11396
1171.878	11544
1174.184	11532
1176.488	11478
1178.79	11418
1181.094	11659
1183.396	11513
1185.699	11545
1188.001	11509
1190.301	11514
1192.6	11530
1194.9	11391
1197.2	11365
1199.497	11495
1201.794	11496
1204.09	11474
1206.387	11604
1208.684	11589
1210.978	11464
1213.272	11512
1215.565	11517
1217.858	11676
1220.15	11600
1222.443	11689
1224.734	11616
1227.024	11620
1229.313	11597
1231.602	11762
1233.892	11739
1236.18	11764
1238.467	11785
1240.754	11768
1243.04	11814
1245.325	11857
1247.612	12007
1249.896	11914
1252.178	11912
1254.461	12017
1256.743	11942
1259.027	11909
1261.308	12051
1263.587	12024
1265.867	11907
1268.146	11780
1270.425	11980
1272.703	11888
1274.981	11826
1277.256	12025
1279.532	11810
1281.808	11852
1284.083	11871
1286.358	11723
1288.63	11849
1290.904	11874
1293.175	11895
1295.449	11740
1297.719	11786
1299.99	11769
1302.259	11859
1304.529	11938
1306.798	11909
1309.065	11837
1311.333	11737
1313.599	11938
1315.866	11801
1318.131	11787
1320.396	11942
1322.66	11810
1324.925	12049
1327.187	11873
1329.448	11978
1331.711	11896
1333.974	11913
1336.234	11984
1338.493	12096
1340.752	11888
1343.01	11805
1345.269	11954
1347.526	12055
1349.784	11871
1352.04	11934
1354.295	11919
1356.552	11906
1358.806	11730
1361.059	11826
1363.312	11800
1365.564	11812
1367.818	12039
1370.069	11929
1372.318	12136
1374.568	12012
1376.817	12094
1379.066	11952
1381.316	12077
1383.564	11992
1385.809	11911
1388.056	11974
1390.301	12131
1392.549	12104
1394.793	12050
1397.036	12195
1399.279	12172
1401.522	12354
1403.763	12313
1406.007	12410
1408.248	12165
1410.487	12131
1412.727	12079
1414.965	12291
1417.205	12363
1419.442	12247
1421.68	12255
1423.915	12216
1426.152	12315
1428.388	12421
1430.623	12115
1432.857	12330
1435.091	12349
1437.323	12437
1439.556	12519
1441.789	12439
1444.019	12338
1446.25	12384
1448.48	12434
1450.708	12382
1452.938	12602
1455.167	12616
1457.394	12530
1459.62	12430
1461.846	12406
1464.073	12346
1466.299	12388
1468.523	12474
1470.746	12115
1472.969	12289
1475.191	12213
1477.415	12236
1479.636	12281
1481.858	12260
1484.078	12214
1486.298	12172
1488.518	12107
1490.736	12242
1492.954	11978
1495.169	11960
1497.386	11951
1499.602	12124
1501.819	12028
1504.034	11972
1506.248	12136
1508.462	11990
1510.675	12041
1512.888	11995
1515.1	11983
1517.311	12211
1519.522	12112
1521.732	11786
1523.942	12087
1526.151	12021
1528.36	12041
1530.566	12051
1532.773	12008
1534.98	12139
1537.187	12079
1539.392	12114
1541.596	11936
1543.801	11965
1546.005	11996
1548.208	12151
1550.411	12307
1552.612	12057
1554.814	12356
1557.013	12152
1559.212	12234
1561.414	12185
1563.612	12236
1565.811	12420
1568.007	12356
1570.203	12204
1572.403	12391
1574.598	12079
1576.792	12303
1578.988	12455
1581.181	12269
1583.376	12358
1585.568	12589
1587.761	12445
1589.952	12315
1592.143	12460
1594.333	12305
1596.524	12457
1598.715	12428
1600.903	12448
1603.091	12434
1605.278	12457
1607.466	12392
1609.652	12551
1611.838	12471
1614.023	12444
1616.207	12310
1618.391	12380
1620.576	12325
1622.759	12647
1624.941	12574
1627.123	12421
1629.304	12448
1631.484	12546
1633.664	12427
1635.844	12607
1638.022	12569
1640.201	12644
1642.38	12542
1644.556	12446
1646.732	12497
1648.908	12524
1651.084	12738
1653.257	12434
1655.433	12653
1657.607	12438
1659.779	12667
1661.951	12521
1664.122	12536
1666.295	12608
1668.467	12630
1670.635	12717
1672.805	12678
1674.973	12433
1677.142	12589
1679.31	12620
1681.478	12522
1683.644	12678
1685.81	12771
1687.975	12658
1690.142	12476
1692.305	12449
1694.468	12382
1696.632	12412
1698.794	12538
1700.957	12263
1703.119	12562
1705.279	12302
1707.439	12493
1709.598	12458
1711.758	12361
1713.917	12431
1716.075	12432
1718.231	12446
1720.388	12390
1722.543	12457
1724.702	12416
1726.856	12301
1729.01	12338
1731.164	12377
1733.317	12385
1735.471	12482
1737.623	12234
1739.774	12479
1741.925	12370
1744.075	12431
1746.225	12449
1748.376	12392
1750.524	12544
1752.672	12411
1754.82	12534
1756.965	12477
1759.113	12467
1761.259	12501
1763.405	12374
1765.549	12491
1767.694	12533
1769.836	12376
1771.981	12564
1774.123	12321
1776.264	12513
1778.405	12524
1780.546	12427
1782.687	12534
1784.827	12668
1786.966	12381
1789.103	12581
1791.242	12458
1793.381	12469
1795.517	12681
1797.653	12441
1799.788	12674
1801.923	12581
1804.057	12627
1806.193	12464
1808.326	12395
1810.457	12594
1812.59	12693
1814.721	12592
1816.855	12592
1818.984	12441
1821.113	12480
1823.244	12498
1825.372	12705
1827.499	12570
1829.63	12447
1831.756	12323
1833.882	12548
1836.007	12333
1838.132	12303
1840.26	12595
1842.384	12353
1844.507	12499
1846.63	12646
1848.752	12254
1850.875	12304
1852.996	12248
1855.118	12194
1857.238	12281
1859.358	12227
1861.477	12417
1863.597	12488
1865.715	12361
1867.832	12314
1869.948	12602
1872.064	12274
1874.181	12376
1876.297	12342
1878.411	12239
1880.526	12368
1882.639	12349
1884.752	12439
1886.865	12320
1888.977	12340
1891.089	12328
1893.2	12368
1895.308	12465
1897.42	12594
1899.53	12441
1901.639	12563
1903.745	12511
1905.853	12594
1907.962	12402
1910.067	12589
1912.174	12415
1914.278	12569
1916.383	12594
1918.486	12558
1920.592	12458
1922.694	12421
1924.797	12595
1926.898	12491
1929	12568
1931.102	12521
1933.203	12667
1935.301	12524
1937.401	12689
1939.499	12468
1941.598	12692
1943.697	12508
1945.793	12527
1947.888	12540
1949.985	12561
1952.08	12618
1954.176	12549
1956.269	12532
1958.364	12595
1960.457	12411
1962.549	12442
1964.642	12333
1966.733	12632
1968.823	12489
1970.913	12588
1973.005	12470
1975.093	12495
1977.184	12368
1979.271	12534
1981.359	12410
1983.446	12522
1985.532	12293
1987.619	12485
1989.705	12451
1991.789	12389
1993.874	12571
1995.956	12524
1998.041	12542
2000.123	12367
2002.206	12350
2004.287	12294
2006.368	12315
2008.449	12341
2010.529	12300
2012.609	12427
2014.688	12242
2016.766	12221
2018.843	12372
2020.922	12166
2022.999	12345
2025.074	12309
2027.15	12367
2029.225	12255
2031.299	12347
2033.375	12273
2035.447	12376
2037.52	12445
2039.592	12256
2041.664	12265
2043.736	12373
2045.807	12345
2047.876	12442
2049.947	12309
2052.015	12446
2054.086	12347
2056.153	12358
2058.221	12514
2060.288	12379
2062.353	12426
2064.42	12262
2066.486	12259
2068.55	12547
2070.614	12263
2072.678	12380
2074.741	12236
2076.805	12414
2078.866	12380
2080.929	12199
2082.99	12236
2085.049	12412
2087.109	12392
2089.17	12208
2091.228	12500
2093.286	12328
2095.344	12271
2097.4	12435
2099.46	12351
2101.516	12370
2103.572	12284
2105.626	12369
2107.679	12250
2109.735	12444
2111.788	12176
2113.841	12454
2115.894	12200
2117.945	12337
2119.997	12127
2122.049	12197
2124.1	12363
2126.148	12174
2128.197	12269
2130.246	12230
2132.296	12416
2134.342	12499
2136.39	12155
2138.437	12380
2140.483	12417
2142.527	12431
2144.574	12160
2146.619	12074
2148.661	12281
2150.705	12057
2152.747	12325
2154.792	12268
2156.832	12208
2158.874	12122
2160.915	12252
2162.954	12083
2164.995	12175
2167.034	12294
2169.072	12213
2171.111	12171
2173.148	12142
2175.186	12142
2177.223	12031
2179.258	12128
2181.294	12256
2183.328	12000
2185.362	12112
2187.398	12007
2189.431	11974
2191.463	12105
2193.495	11970
2195.528	11923
2197.56	11942
2199.59	12031
2201.62	11947
2203.649	11965
2205.678	12124
2207.708	11965
2209.737	12001
2211.764	11878
2213.791	11878
2215.817	11890
2217.843	11978
2219.87	11883
2221.895	11953
2223.919	12045
2225.942	11909
2227.966	11852
2229.988	11993
2232.012	11842
2234.032	12136
2236.054	12023
2238.074	11814
2240.095	11946
2242.116	11902
2244.135	11946
2246.153	11811
2248.171	11697
2250.188	12019
2252.208	11869
2254.223	11838
2256.239	11787
2258.255	11952
2260.269	11757
2262.283	12080
2264.3	11907
2266.312	11892
2268.325	11997
2270.336	11943
2272.349	11763
2274.362	11815
2276.372	11821
2278.383	11809
2280.392	11872
2282.402	11865
2284.409	11825
2286.418	11758
2288.427	11921
2290.433	11802
2292.441	11798
2294.446	11930
2296.453	11677
2298.459	11826
2300.463	11690
2302.466	11923
2304.471	11802
2306.475	11774
2308.477	11615
2310.478	11859
2312.481	11814
2314.481	11923
2316.481	11783
2318.482	11809
2320.482	11812
2322.48	11757
2324.48	11833
2326.478	11867
2328.476	11801
2330.473	11665
2332.469	11804
2334.465	11773
2336.46	11820
2338.454	11629
2340.45	11754
2342.444	11726
2344.437	11582
2346.43	11707
2348.421	11492
2350.414	11573
2352.405	11816
2354.396	11700
2356.386	11568
2358.376	11718
2360.366	11606
2362.355	11508
2364.343	11584
2366.331	11552
2368.317	11503
2370.304	11537
2372.292	11597
2374.278	11638
2376.262	11587
2378.247	11512
2380.23	11503
2382.216	11669
2384.199	11368
2386.181	11424
2388.163	11481
2390.144	11490
2392.127	11467
2394.107	11392
2396.087	11495
2398.066	11459
2400.046	11591
2402.023	11383
2404.004	11443
2405.981	11476
2407.957	11454
2409.934	11414
2411.91	11360
2413.886	11344
2415.862	11362
2417.836	11449
2419.809	11488
2421.784	11431
2423.756	11419
2425.73	11381
2427.701	11333
2429.672	11558
2431.644	11464
2433.615	11426
2435.586	11359
2437.555	11563
2439.523	11445
2441.491	11351
2443.459	11335
2445.428	11432
2447.395	11304
2449.361	11365
2451.327	11359
2453.292	11456
2455.257	11328
2457.223	11330
2459.187	11339
2461.15	11281
2463.113	11203
2465.076	11244
2467.039	11272
2468.999	11503
2470.96	11329
2472.921	11263
2474.881	11432
2476.841	11248
2478.8	11230
2480.759	11117
2482.717	11276
2484.675	11240
2486.63	11180
2488.589	11224
2490.545	11155
2492.5	11379
2494.455	11172
2496.408	11206
2498.364	11138
2500.318	11150
2502.27	11156
2504.223	11075
2506.174	11264
2508.126	11192
2510.078	11199
2512.03	11026
2513.979	11274
2515.927	11156
2517.877	11181
2519.826	11104
2521.775	11099
2523.722	11182
2525.668	11224
2527.616	11111
2529.561	11167
2531.508	11015
2533.452	11112
2535.398	11220
2537.342	11164
2539.284	11064
2541.229	11099
2543.173	11047
2545.114	10998
2547.055	11129
2548.996	11027
2550.938	11161
2552.878	11067
2554.817	11123
2556.756	11162
2558.695	11079
2560.633	10959
2562.572	10986
2564.509	11142
2566.445	11240
2568.382	11023
2570.317	11156
2572.254	11077
2574.189	11193
2576.123	11200
2578.057	10982
2579.99	11063
2581.923	10944
2583.855	11162
2585.788	11204
2587.719	11052
2589.65	11096
2591.579	11032
2593.511	11126
2595.44	11054
2597.37	11086
2599.297	11011
2601.225	11164
2603.153	11252
2605.08	11243
2607.007	11046
2608.932	11104
2610.858	11031
2612.782	11179
2614.709	11206
2616.632	11092
2618.556	11159
2620.478	11237
2622.401	11076
2624.324	11215
2626.247	11058
2628.167	11301
2630.088	11057
2632.008	11021
2633.928	11037
2635.848	11121
2637.766	10995
2639.684	11196
2641.603	11143
2643.519	11036
2645.437	11154
2647.353	11227
2649.27	11127
2651.184	11117
2653.099	11154
2655.014	10809
2656.928	11061
2658.842	11169
2660.755	11055
2662.667	11069
2664.579	11205
2666.491	11071
2668.402	11095
2670.312	10937
2672.222	10969
2674.132	10999
2676.042	10931
2677.951	11096
2679.859	11039
2681.766	10888
2683.674	11007
2685.582	10879
2687.488	11021
2689.392	10958
2691.298	10975
2693.202	10886
2695.107	10899
2697.012	11007
2698.914	11019
2700.817	11009
2702.72	10946
2704.622	11057
2706.524	11015
2708.425	10914
2710.326	10844
2712.225	10897
2714.125	10799
2716.024	10850
2717.923	10744
2719.822	10885
2721.719	10856
2723.616	10919
2725.512	10761
2727.41	10884
2729.305	10814
2731.201	10699
2733.095	10844
2734.99	10792
2736.884	10841
2738.778	10955
2740.67	10804
2742.562	10946
2744.455	10779
2746.346	10868
2748.238	10667
2750.129	10726
2752.018	10752
2753.907	10743
2755.797	10758
2757.687	10706
2759.575	10857
2761.462	10769
2763.349	10758
2765.237	10909
2767.124	10892
2769.009	10726
2770.894	10683
2772.779	10843
2774.663	10789
2776.547	10734
2778.431	10697
2780.314	10679
2782.197	10798
2784.078	10781
2785.96	10575
2787.842	10648
2789.723	10621
2791.603	10870
2793.483	10663
2795.362	10524
2797.241	10602
2799.121	10645
2800.997	10664
2802.874	10709
2804.751	10564
2806.628	10675
2808.506	10785
2810.38	10493
2812.255	10842
2814.13	10461
2816.003	10695
2817.878	10429
2819.752	10818
2821.623	10618
2823.496	10346
2825.368	10787
2827.238	10580
2829.111	10665
2830.98	10506
2832.851	10664
2834.719	10539
2836.589	10748
2838.458	10591
2840.327	10448
2842.193	10641
2844.061	10611
2845.927	10555
2847.794	10726
2849.66	10747
2851.525	10724
2853.39	10702
2855.254	10803
2857.117	10664
2858.983	10896
2860.845	10742
2862.707	10740
2864.569	11028
2866.431	10661
2868.293	10837
2870.154	10916
2872.013	10859
2873.873	10868
2875.733	10922
2877.592	11052
2879.451	10967
2881.309	11060
2883.166	11346
2885.022	11168
2886.879	11289
2888.736	11388
2890.591	11304
2892.446	11298
2894.301	11171
2896.155	11212
2898.009	11485
2899.863	11361
2901.716	11210
2903.568	11209
2905.419	11318
2907.27	11071
2909.123	11318
2910.973	11126
2912.824	11272
2914.673	11204
2916.521	11234
2918.372	11328
2920.22	11483
2922.067	11318
2923.914	11391
2925.761	11395
2927.607	11447
2929.455	11414
2931.301	11465
2933.144	11476
2934.99	11436
2936.833	11668
2938.678	11814
2940.522	11762
2942.364	11828
2944.207	11829
2946.048	11854
2947.891	12053
2949.731	11997
2951.571	12083
2953.412	12043
2955.25	11846
2957.09	11722
2958.93	11793
2960.767	11824
2962.606	11699
2964.443	11690
2966.279	11751
2968.116	11614
2969.953	11403
2971.788	11429
2973.623	11314
2975.457	11154
2977.292	11331
2979.127	10968
2980.959	10971
2982.792	10917
2984.624	11043
2986.455	10961
2988.288	11007
2990.119	10950
2991.949	10733
2993.779	10775
2995.608	10793
2997.439	10650
2999.268	10682
3001.096	10506
3002.923	10626
3004.751	10528
3006.578	10499
3008.406	10482
3010.232	10360
3012.057	10178
3013.883	10169
3015.706	10261
3017.532	10342
3019.356	10094
3021.179	10066
3023.002	10160
3024.823	9982
3026.646	10008
3028.469	10080
3030.289	10080
3032.11	9821
3033.93	10066
3035.749	10006
3037.57	9918
3039.39	10015
3041.207	10148
3043.026	9998
3044.842	10117
3046.661	10060
3048.477	9968
3050.294	9969
3052.109	9979
3053.925	9862
3055.739	9736
3057.555	10091
3059.368	9956
3061.181	9855
3062.995	9877
3064.807	9989
3066.62	9821
3068.433	9801
3070.243	9742
3072.054	9836
3073.865	9838
3075.675	9642
3077.485	9815
3079.293	9878
3081.102	9740
3082.911	9739
3084.719	9719
3086.527	9660
3088.333	9660
3090.139	9736
3091.945	9722
3093.75	9784
3095.557	9636
3097.361	9688
3099.165	9638
3100.969	9677
3102.772	9558
3104.575	9487
3106.379	9511
3108.181	9670
3109.982	9557
3111.783	9506
3113.584	9627
3115.386	9441
3117.186	9463
3118.985	9485
3120.783	9446
3122.582	9481
3124.381	9488
3126.179	9339
3127.975	9453
3129.772	9520
3131.569	9474
3133.365	9256
3135.161	9353
3136.956	9524
3138.751	9364
3140.544	9265
3142.338	9377
3144.132	9389
3145.925	9316
3147.717	9461
3149.509	9318
3151.301	9419
3153.091	9309
3154.884	9248
3156.673	9286
3158.462	9359
3160.252	9447
3162.041	9191
3163.831	9328
3165.618	9291
3167.405	9220
3169.193	9259
3170.979	9260
3172.767	9296
3174.553	9271
3176.338	9262
3178.123	9037
3179.907	9226
3181.692	9189
3183.477	9343
3185.259	9165
3187.042	9316
3188.824	9160
3190.607	9175
3192.389	9176
3194.17	9080
3195.951	9036
3197.73	9110
3199.51	9152
3201.289	9055
3203.07	9142
3204.848	9123
3206.626	9062
3208.403	9041
3210.18	9130
3211.959	9066
3213.735	9065
3215.511	9100
3217.285	9063
3219.06	9157
3220.836	8943
3222.611	8979
3224.384	8980
3226.158	9155
3227.929	9131
3229.702	9019
3231.476	8956
3233.248	8972
3235.018	9005
3236.789	9038
3238.56	8987
3240.33	9008
3242.1	8957
3243.869	9082
3245.637	9154
3247.405	9059
3249.172	8922
3250.941	8906
3252.707	9070
3254.474	8935
3256.24	8898
3258.006	8991
3259.772	9069
3261.537	8995
3263.301	9067
3265.065	8945
3266.828	8955
3268.592	9012
3270.355	9052
3272.117	8983
3273.878	8839
3275.64	9023
3277.401	8911
3279.162	8853
3280.922	8935
3282.682	8945
3284.441	8894
3286.199	9014
3287.959	8974
3289.716	8971
3291.475	8971
3293.232	8998
3294.988	9075
3296.744	8859
3298.501	8810
3300.256	8774
3302.011	8955
3303.766	8932
3305.52	8846
3307.275	8898
3309.028	8951
3310.781	8873
3312.533	8955
3314.285	9098
3316.038	8975
3317.789	8901
3319.54	8803
3321.289	8724
3323.039	8828
3324.789	8771
3326.539	8924
3328.288	8698
3330.035	8874
3331.783	8697
3333.531	8865
3335.28	8857
3337.025	8704
3338.771	8844
3340.518	8761
3342.262	8822
3344.009	8832
3345.753	8791
3347.497	8765
3349.24	8788
3350.983	8694
3352.726	8643
3354.469	8771
3356.212	8567
3357.952	8712
3359.694	8683
3361.434	8772
3363.176	8626
3364.916	8678
3366.654	8664
3368.394	8590
3370.132	8637
3371.871	8424
3373.61	8727
3375.346	8615
3377.083	8649
3378.82	8529
3380.556	8621
3382.292	8453
3384.027	8646
3385.763	8541
3387.497	8535
3389.231	8509
3390.965	8468
3392.698	8553
3394.431	8513
3396.164	8577
3397.896	8569
3399.627	8384
3401.36	8597
3403.09	8412
3404.82	8375
3406.55	8386
3408.279	8514
3410.01	8480
3411.738	8541
3413.467	8430
3415.194	8429
3416.92	8370
3418.647	8455
3420.375	8459
3422.102	8459
3423.827	8337
3425.553	8387
3427.277	8340
3429.003	8321
3430.727	8419
3432.451	8396
3434.173	8417
3435.896	8353
3437.62	8246
3439.343	8332
3441.063	8359
3442.785	8247
3444.505	8144
3446.226	8229
3447.948	8294
3449.666	8218
3451.386	8288
3453.104	8259
3454.823	8283
3456.541	8278
3458.259	8142
3459.976	8262
3461.693	8258
3463.408	8186
3465.125	8148
3466.841	8045
3468.556	8116
3470.271	8148
3471.985	7933
3473.698	8172
3475.414	8088
3477.126	8076
3478.838	7972
3480.55	7996
3482.263	7985
3483.975	7981
3485.686	8056
3487.396	8023
3489.106	8046
3490.817	7854
3492.526	7956
3494.236	7972
3495.944	7882
3497.652	8141
3499.359	8010
3501.066	7900
3502.775	7895
3504.481	7981
3506.187	7806
3507.893	7941
3509.598	7848
3511.304	7893
3513.009	7797
3514.713	8000
3516.417	7890
3518.12	7977
3519.821	7773
3521.525	7685
3523.228	7711
3524.929	7917
3526.631	7754
3528.33	7677
3530.032	7817
3531.733	7792
3533.433	7863
3535.131	7739
3536.83	7754
3538.529	7631
3540.227	7738
3541.925	7856
3543.623	7637
3545.319	7672
3547.016	7745
3548.712	7822
3550.408	7688
3552.103	7687
3553.798	7728
3555.491	7669
3557.188	7564
3558.88	7682
3560.574	7618
3562.266	7640
3563.959	7666
3565.651	7593
3567.343	7660
3569.035	7595
3570.725	7549
3572.415	7608
3574.106	7504
3575.797	7549
3577.485	7550
3579.174	7428
3580.863	7612
3582.551	7511
3584.238	7464
3585.926	7584
3587.613	7573
3589.3	7533
3590.986	7455
3592.671	7520
3594.357	7452
3596.042	7498
3597.726	7493
3599.41	7517
3601.094	7488
3602.778	7435
3604.461	7430
3606.143	7392
3607.825	7423
3609.507	7336
3611.188	7360
3612.87	7394
3614.551	7274
3616.229	7301
3617.909	7371
3619.589	7235
3621.269	7445
3622.948	7283
3624.625	7297
3626.302	7360
3627.98	7214
3629.657	7348
3631.334	7324
3633.01	7335
3634.686	7247
3636.361	7199
3638.036	7220
3639.712	7196
3641.385	7181
3643.06	7205
3644.732	7094
3646.405	7241
3648.08	7075
3649.751	7220
3651.424	7153
3653.094	7127
3654.766	7178
3656.436	7196
3658.106	7205
3659.777	7126
3661.446	7223
3663.115	7054
3664.783	7054
3666.452	7158
3668.121	7070
3669.788	6972
3671.454	7093
3673.121	7083
3674.789	7079
3676.455	7038
3678.12	6998
3679.784	7105
3681.45	7004
3683.114	7110
3684.779	7083
3686.442	6867
3688.105	7042
3689.768	7082
3691.43	7012
3693.093	6956
3694.754	7040
3696.415	6882
3698.076	7004
3699.736	6933
3701.396	6935
3703.057	6827
3704.716	6910
3706.375	7011
3708.034	7052
3709.692	7065
3711.351	6865
3713.008	6973
3714.665	6853
3716.321	7014
3717.977	6929
3719.634	6864
3721.29	6947
3722.945	6876
3724.598	6969
3726.253	6730
3727.907	6886
3729.561	6852
3731.214	6788
3732.867	6921
3734.518	6868
3736.171	6767
3737.824	6797
3739.474	6781
3741.125	6924
3742.775	6834
3744.425	6772
3746.074	6874
3747.725	6798
3749.373	6748
3751.022	6842
3752.669	6727
3754.318	6745
3755.966	6810
3757.612	6687
3759.259	6686
3760.905	6776
3762.55	6777
3764.197	6700
3765.842	6567
3767.486	6723
3769.131	6713
3770.774	6668
3772.417	6715
3774.061	6778
3775.705	6615
3777.347	6654
3778.988	6662
3780.629	6688
3782.271	6658
3783.912	6553
3785.552	6654
3787.192	6705
3788.831	6554
3790.472	6698
3792.112	6522
3793.75	6588
3795.388	6526
3797.024	6555
3798.661	6615
3800.3	6595
3801.936	6588
3803.572	6461
3805.208	6510
3806.844	6622
3808.48	6556
3810.115	6494
3811.748	6581
3813.382	6523
3815.016	6538
3816.649	6432
3818.283	6488
3819.914	6480
3821.547	6533
3823.178	6443
3824.809	6465
3826.441	6397
3828.072	6483
3829.701	6520
3831.331	6420
3832.96	6402
3834.591	6452
3836.219	6412
3837.847	6455
3839.475	6388
3841.102	6370
3842.729	6313
3844.357	6372
3845.984	6260
3847.609	6356
3849.234	6417
3850.86	6383
3852.485	6361
3854.11	6302
3855.734	6371
3857.357	6326
3858.981	6328
3860.603	6384
3862.227	6403
3863.848	6259
3865.471	6228
3867.092	6352
3868.713	6269
3870.334	6216
3871.954	6343
3873.575	6250
3875.194	6237
3876.813	6221
3878.433	6195
3880.051	6240
3881.669	6247
3883.286	6229
3884.904	6264
3886.52	6246
3888.138	6266
3889.754	6206
3891.37	6295
3892.985	6235
3894.6	6207
3896.216	6193
3897.831	6199
3899.444	6258
3901.058	6165
3902.67	6255
3904.283	6157
3905.897	6158
3907.509	6177
3909.121	6123
3910.731	6222
3912.342	6222
3913.954	6238
3915.563	6109
3917.174	6148
3918.783	6179
3920.391	6107
3922.002	6171
3923.611	6193
3925.218	6211
3926.826	6151
3928.432	6202
3930.039	6092
3931.647	6117
3933.253	6111
3934.859	6084
3936.464	6148
3938.068	6188
3939.675	6140
3941.278	6039
3942.883	6014
3944.486	6039
3946.089	6133
3947.692	6144
3949.295	6025
3950.898	6011
3952.499	6116
3954.1	6045
3955.7	5946
3957.303	5981
3958.903	5962
3960.502	5979
3962.101	6031
3963.7	5967
3965.301	6029
3966.899	5861
3968.497	5984
3970.094	6037
3971.691	6048
3973.288	6053
3974.885	6022
3976.481	5824
3978.077	6108
3979.672	5868
3981.267	5903
3982.863	5845
3984.457	6024
3986.051	5760
3987.645	6077
3989.238	5955
3990.831	5864
3992.425	5783
3994.017	5849
3995.607	5888
3997.199	5872
3998.79	5814
4000.382	5857
4001.973	5875
4003.561	5827
4005.151	5765
4006.741	5767
4008.331	5835
4009.918	5699
4011.507	5629
4013.095	5772
4014.681	5797
4016.269	5713
4017.856	5740
4019.443	5735
4021.028	5762
4022.614	5592
4024.199	5664
4025.785	5616
4027.37	5740
4028.953	5671
4030.536	5726
4032.12	5753
4033.704	5686
4035.287	5571
4036.869	5685
4038.45	5666
4040.032	5680
4041.613	5653
4043.195	5572
4044.776	5536
4046.356	5663
4047.935	5523
4049.515	5687
4051.095	5548
4052.674	5610
4054.251	5630
4055.829	5544
4057.406	5575
4058.985	5489
4060.562	5525
4062.139	5554
4063.715	5490
4065.29	5557
4066.865	5706
4068.442	5450
4070.016	5511
4071.59	5559
4073.164	5479
4074.738	5442
4076.312	5532
4077.885	5362
4079.458	5524
4081.03	5560
4082.602	5507
4084.173	5478
4085.745	5463
4087.315	5521
4088.886	5652
4090.456	5421
4092.026	5526
4093.596	5505
4095.165	5461
4096.734	5303
4098.301	5381
4099.869	5342
4101.437	5432
4103.006	5318
4104.572	5387
4106.139	5380
4107.704	5428
4109.27	5424
4110.837	5404
4112.401	5395
4113.966	5395
4115.53	5416
4117.094	5279
4118.659	5400
4120.223	5246
4121.785	5316
4123.347	5368
4124.909	5322
4126.471	5332
4128.034	5234
4129.595	5334
4131.155	5219
4132.716	5245
4134.275	5297
4135.836	5332
4137.395	5218
4138.955	5205
4140.513	5221
4142.071	5277
4143.628	5263
4145.188	5156
4146.745	5234
4148.302	5262
4149.858	5184
4151.414	5200
4152.971	5181
4154.526	5086
4156.081	5170
4157.635	5121
4159.189	5170
4160.745	5190
4162.298	5229
4163.852	5230
4165.405	5079
4166.957	5135
4168.51	5105
4170.063	5151
4171.614	5199
4173.166	5161
4174.717	5118
4176.267	5081
4177.817	5076
4179.368	4986
4180.917	5048
4182.466	5003
4184.016	5014
4185.564	5087
4187.112	5085
4188.66	5077
4190.207	5022
4191.754	5036
4193.301	5016
4194.848	5066
4196.394	5022
4197.94	4984
4199.484	4984
4201.03	4944
4202.575	5026
4204.12	5045
4205.663	5028
4207.207	4901
4208.75	4951
4210.292	4956
4211.836	5061
4213.378	4960
4214.92	5054
4216.46	5023
4218.002	4887
4219.544	5025
4221.083	4919
4222.625	4995
4224.164	4946
4225.703	4887
4227.244	4902
4228.782	4928
4230.32	4984
4231.857	4903
4233.395	4902
4234.933	4844
4236.471	4927
4238.007	4788
4239.542	4952
4241.078	4863
4242.614	4915
4244.15	4859
4245.685	4841
4247.219	4839
4248.753	4889
4250.287	4912
4251.82	4899
4253.354	4829
4254.887	4848
4256.419	4881
4257.951	4847
4259.483	4787
4261.016	4762
4262.547	4873
4264.078	4769
4265.608	4767
4267.137	4741
4268.668	4746
4270.197	4732
4271.727	4753
4273.254	4761
4274.783	4835
4276.311	4816
4277.84	4741
4279.366	4751
4280.894	4805
4282.42	4708
4283.946	4734
4285.473	4726
4286.998	4742
4288.523	4652
4290.047	4738
4291.572	4677
4293.096	4818
4294.622	4728
4296.144	4696
4297.668	4785
4299.19	4710
4300.713	4647
4302.236	4640
4303.758	4643
4305.279	4681
4306.799	4563
4308.321	4675
4309.842	4622
4311.361	4698
4312.882	4711
4314.401	4579
