400.0961	3284
402.6185	3164
405.1424	3277
407.6635	3378
410.1838	3339
412.7035	3303
415.2225	3374
417.7388	3333
420.2585	3515
422.7754	3404
425.2917	3526
427.8072	3440
430.3221	3576
432.8363	3547
435.3498	3484
437.8626	3539
440.3727	3454
442.8841	3460
445.3969	3495
447.907	3556
450.4142	3541
452.9229	3478
455.4289	3442
457.9362	3555
460.4449	3441
462.9488	3425
465.454	3477
467.9566	3502
470.4604	3393
472.9637	3459
475.4662	3539
477.966	3474
480.4671	3410
482.9656	3454
485.4633	3441
487.9645	3563
490.4608	3533
492.9566	3488
495.4536	3534
497.948	3581
500.4437	3560
502.9387	3563
505.431	3595
507.9226	3507
510.4136	3585
512.9079	3511
515.3975	3500
517.8864	3523
520.3746	3546
522.8622	3503
525.3491	3607
527.8394	3619
530.3249	3590
532.8098	3549
535.2939	3608
537.7774	3677
540.2623	3602
542.7444	3621
545.2259	3612
547.7067	3643
550.1868	3605
552.6683	3594
555.147	3586
557.6231	3607
560.1005	3674
562.5773	3562
565.0534	3659
567.5308	3637
570.0056	3677
572.4776	3673
574.951	3690
577.4237	3712
579.8978	3734
582.3671	3671
584.8378	3782
587.3079	3738
589.7773	3778
592.244	3774
594.714	3728
597.1793	3766
599.6461	3716
602.1121	3685
604.5754	3715
607.0421	3694
609.5042	3722
611.9675	3766
614.4282	3749
616.8902	3769
619.3515	3689
621.8122	3700
624.2702	3642
626.7296	3655
629.1863	3680
631.6423	3720
634.1017	3674
636.5563	3653
639.0104	3665
641.4658	3657
643.9185	3592
646.3725	3771
648.8239	3675
651.2766	3658
653.7266	3665
656.176	3687
658.6247	3759
661.0748	3731
663.5242	3799
665.9709	3721
668.417	3773
670.8624	3723
673.3092	3900
675.7533	3814
678.1968	3883
680.6395	3697
683.0817	3852
685.5251	3763
687.9659	3771
690.4061	3784
692.8456	3805
695.2844	3886
697.7226	3855
700.1621	3841
702.599	3840
705.0332	3898
707.4688	3880
709.9036	3929
712.3399	3944
714.7735	3855
717.2044	3885
719.6367	3910
722.0683	3748
724.4993	3920
726.9296	3987
729.3593	3879
731.7883	3930
734.2147	3948
736.6423	3984
739.0714	4027
741.4958	3988
743.9216	4033
746.3447	4001
748.7691	3989
751.1929	3963
753.616	4058
756.0366	4074
758.4584	4133
760.8776	4054
763.2982	4088
765.718	3969
768.1373	4068
770.5539	4061
772.9698	4096
775.3871	4143
777.8038	4088
780.2178	4097
782.6332	4050
785.0459	4027
787.458	4068
789.8714	4073
792.2842	4054
794.6943	4120
797.1038	4079
799.5127	4073
801.9209	4166
804.3324	4033
806.7393	4045
809.1456	4082
811.5513	4112
813.9562	4169
816.3625	4189
818.7663	4175
821.1693	4160
823.5718	4101
825.9735	4209
828.3746	4131
830.7771	4223
833.177	4120
835.5762	4083
837.9747	4280
840.3727	4190
842.772	4264
845.1666	4293
847.5626	4155
849.958	4208
852.3527	4278
854.7488	4383
857.1403	4235
859.5331	4346
861.9253	4288
864.3168	4233
866.7057	4183
869.098	4236
871.4876	4241
873.8746	4265
876.263	4296
878.6487	4199
881.0378	4183
883.4243	4177
885.8081	4224
888.1933	4215
890.5759	4221
892.9598	4158
895.343	4249
897.7256	4231
900.1057	4229
902.4871	4258
904.8659	4254
907.246	4235
909.6254	4385
912.0023	4358
914.3786	4391
916.7562	4360
919.1331	4501
921.5074	4561
923.8831	4612
926.2562	4593
928.6287	4609
931.0005	4619
933.3757	4521
935.7462	4517
938.1162	4559
940.4855	4653
942.8542	4613
945.2242	4601
947.5916	4768
949.9584	4851
952.3266	5045
954.6921	5109
957.0571	5440
959.4233	5527
961.787	5655
964.15	5601
966.5125	5489
968.8742	5226
971.2354	5111
973.5959	4855
975.9559	4660
978.3151	4618
980.6738	4474
983.0338	4499
985.3912	4435
987.7461	4363
990.1022	4407
992.4578	4328
994.8127	4417
997.1689	4408
999.5207	4424
1001.874	4537
1004.226	4580
1006.576	4483
1008.929	4443
1011.28	4473
1013.628	4432
1015.977	4395
1018.324	4425
1020.674	4413
1023.019	4466
1025.366	4407
1027.713	4469
1030.056	4382
1032.399	4488
1034.746	4582
1037.087	4511
1039.431	4537
1041.771	4578
1044.113	4492
1046.454	4525
1048.793	4522
1051.133	4504
1053.471	4510
1055.807	4601
1058.146	4461
1060.483	4532
1062.818	4584
1065.153	4614
1067.489	4575
1069.822	4586
1072.156	4593
1074.488	4694
1076.82	4690
1079.15	4531
1081.48	4619
1083.814	4636
1086.143	4637
1088.471	4539
1090.799	4565
1093.126	4444
1095.452	4488
1097.78	4490
1100.105	4572
1102.43	4462
1104.754	4499
1107.077	4439
1109.4	4464
1111.722	4541
1114.044	4557
1116.365	4505
1118.685	4579
1121.005	4532
1123.324	4466
1125.643	4557
1127.961	4555
1130.278	4573
1132.595	4491
1134.911	4514
1137.226	4579
1139.541	4552
1141.854	4507
1144.167	4492
1146.482	4510
1148.793	4473
1151.105	4490
1153.414	4376
1155.725	4395
1158.033	4541
1160.344	4526
1162.651	4496
1164.959	4543
1167.265	4598
1169.572	4488
1171.878	4510
1174.184	4610
1176.488	4570
1178.79	4569
1181.094	4456
1183.396	4525
1185.699	4558
1188.001	4460
1190.301	4432
1192.6	4497
1194.9	4503
1197.2	4538
1199.497	4499
1201.794	4574
1204.09	4558
1206.387	4488
1208.684	4516
1210.978	4624
1213.272	4588
1215.565	4536
1217.858	4509
1220.15	4521
1222.443	4575
1224.734	4496
1227.024	4604
1229.313	4666
1231.602	4709
1233.892	4643
1236.18	4717
1238.467	4610
1240.754	4759
1243.04	4739
1245.325	4833
1247.612	4750
1249.896	4920
1252.178	4779
1254.461	4869
1256.743	4769
1259.027	4905
1261.308	4739
1263.587	4742
1265.867	4838
1268.146	4819
1270.425	4776
1272.703	4731
1274.981	4789
1277.256	4732
1279.532	4788
1281.808	4843
1284.083	4706
1286.358	4674
1288.63	4696
1290.904	4700
1293.175	4725
1295.449	4836
1297.719	4709
1299.99	4780
1302.259	4686
1304.529	4702
1306.798	4689
1309.065	4642
1311.333	4762
1313.599	4644
1315.866	4622
1318.131	4726
1320.396	4712
1322.66	4615
1324.925	4696
1327.187	4740
1329.448	4735
1331.711	4753
1333.974	4650
1336.234	4704
1338.493	4849
1340.752	4697
1343.01	4677
1345.269	4685
1347.526	4654
1349.784	4624
1352.04	4667
1354.295	4667
1356.552	4664
1358.806	4720
1361.059	4635
1363.312	4734
1365.564	4706
1367.818	4675
1370.069	4761
1372.318	4731
1374.568	4753
1376.817	4760
1379.066	4594
1381.316	4717
1383.564	4790
1385.809	4680
1388.056	4767
1390.301	4834
1392.549	4904
1394.793	4929
1397.036	4967
1399.279	5036
1401.522	4914
1403.763	5014
1406.007	4962
1408.248	4883
1410.487	4946
1412.727	4913
1414.965	4937
1417.205	4984
1419.442	4903
1421.68	4876
1423.915	4859
1426.152	4926
1428.388	4989
1430.623	4958
1432.857	4895
1435.091	4954
1437.323	5002
1439.556	4897
1441.789	4985
1444.019	5045
1446.25	4935
1448.48	4932
1450.708	5088
1452.938	5097
1455.167	5203
1457.394	5189
1459.62	5104
1461.846	5120
1464.073	5020
1466.299	5069
1468.523	5025
1470.746	4953
1472.969	4848
1475.191	4913
1477.415	4843
1479.636	4800
1481.858	4735
1484.078	4707
1486.298	4757
1488.518	4720
1490.736	4714
1492.954	4640
1495.169	4750
1497.386	4597
1499.602	4712
1501.819	4607
1504.034	4649
1506.248	4701
1508.462	4663
1510.675	4671
1512.888	4681
1515.1	4699
1517.311	4680
1519.522	4608
1521.732	4708
1523.942	4641
1526.151	4646
1528.36	4621
1530.566	4636
1532.773	4687
1534.98	4701
1537.187	4673
1539.392	4660
1541.596	4698
1543.801	4737
1546.005	4752
1548.208	4727
1550.411	4780
1552.612	4733
1554.814	4683
1557.013	4728
1559.212	4752
1561.414	4733
1563.612	4757
1565.811	4784
1568.007	4792
1570.203	4769
1572.403	4694
1574.598	4760
1576.792	4767
1578.988	4787
1581.181	4718
1583.376	4797
1585.568	4830
1587.761	4751
1589.952	4820
1592.143	4848
1594.333	4789
1596.524	4858
1598.715	4931
1600.903	4878
1603.091	4818
1605.278	4948
1607.466	4876
1609.652	4858
1611.838	4851
1614.023	4853
1616.207	4905
1618.391	4774
1620.576	4899
1622.759	4839
1624.941	4932
1627.123	4877
1629.304	4921
1631.484	4964
1633.664	4987
1635.844	4949
1638.022	4996
1640.201	5004
1642.38	4981
1644.556	5002
1646.732	4939
1648.908	5048
1651.084	4966
1653.257	5033
1655.433	5004
1657.607	5037
1659.779	5021
1661.951	4993
1664.122	5079
1666.295	5015
1668.467	5053
1670.635	5142
1672.805	5079
1674.973	5111
1677.142	5028
1679.31	4962
1681.478	5019
1683.644	4967
1685.81	5032
1687.975	4933
1690.142	5074
1692.305	4924
1694.468	4861
1696.632	4887
1698.794	4883
1700.957	4832
1703.119	4879
1705.279	4874
1707.439	4848
1709.598	4893
1711.758	4865
1713.917	4745
1716.075	4760
1718.231	4943
1720.388	4874
1722.543	4698
1724.702	4910
1726.856	4892
1729.01	4759
1731.164	4733
1733.317	4815
1735.471	4833
1737.623	4702
1739.774	4847
1741.925	4875
1744.075	4873
1746.225	4854
1748.376	4788
1750.524	4746
1752.672	4871
1754.82	4741
1756.965	4866
1759.113	4859
1761.259	4838
1763.405	4781
1765.549	5013
1767.694	4878
1769.836	4884
1771.981	4857
1774.123	4813
1776.264	4857
1778.405	4804
1780.546	4902
1782.687	4912
1784.827	4862
1786.966	4842
1789.103	4828
1791.242	4910
1793.381	4869
1795.517	4882
1797.653	4805
1799.788	4894
1801.923	4791
1804.057	4866
1806.193	4910
1808.326	4893
1810.457	4906
1812.59	4879
1814.721	4923
1816.855	4813
1818.984	4801
1821.113	4832
1823.244	4762
1825.372	4783
1827.499	4859
1829.63	4769
1831.756	4921
1833.882	4841
1836.007	4841
1838.132	4840
1840.26	4843
1842.384	4891
1844.507	4806
1846.63	4884
1848.752	4857
1850.875	4731
1852.996	4771
1855.118	4828
1857.238	4790
1859.358	4896
1861.477	4798
1863.597	4817
1865.715	4792
1867.832	4806
1869.948	4829
1872.064	4817
1874.181	4801
1876.297	4837
1878.411	4790
1880.526	4854
1882.639	4869
1884.752	4856
1886.865	4867
1888.977	4867
1891.089	4869
1893.2	4920
1895.308	4896
1897.42	4925
1899.53	4832
1901.639	4869
1903.745	4852
1905.853	4897
1907.962	4927
1910.067	4838
1912.174	4883
1914.278	4846
1916.383	4896
1918.486	5022
1920.592	4915
1922.694	4920
1924.797	4778
1926.898	4937
1929	4934
1931.102	4905
1933.203	4879
1935.301	4916
1937.401	4984
1939.499	4971
1941.598	4842
1943.697	4984
1945.793	4922
1947.888	4872
1949.985	4976
1952.08	4920
1954.176	4983
1956.269	4932
1958.364	4972
1960.457	4960
1962.549	4933
1964.642	5035
1966.733	4974
1968.823	4888
1970.913	4855
1973.005	4878
1975.093	4856
1977.184	4837
1979.271	4998
1981.359	4908
1983.446	4942
1985.532	4808
1987.619	4931
1989.705	4921
1991.789	4840
1993.874	4893
1995.956	4842
1998.041	4837
2000.123	4897
2002.206	4895
2004.287	4798
2006.368	4914
2008.449	4884
2010.529	4902
2012.609	4853
2014.688	4869
2016.766	4847
2018.843	4856
2020.922	4932
2022.999	4958
2025.074	4818
2027.15	4880
2029.225	4811
2031.299	4877
2033.375	4826
2035.447	4957
2037.52	4763
2039.592	4830
2041.664	4818
2043.736	4922
2045.807	4762
2047.876	4778
2049.947	4752
2052.015	4922
2054.086	4872
2056.153	4851
2058.221	4868
2060.288	4855
2062.353	4799
2064.42	4843
2066.486	4838
2068.55	4897
2070.614	4808
2072.678	4771
2074.741	4878
2076.805	4810
2078.866	4895
2080.929	4939
2082.99	4980
2085.049	4848
2087.109	4867
2089.17	4896
2091.228	4852
2093.286	4910
2095.344	4945
2097.4	4838
2099.46	4872
2101.516	4955
2103.572	4888
2105.626	4846
2107.679	4909
2109.735	4914
2111.788	4878
2113.841	4809
2115.894	4899
2117.945	4883
2119.997	4890
2122.049	4831
2124.1	4887
2126.148	4991
2128.197	4843
2130.246	4858
2132.296	4853
2134.342	4928
2136.39	4800
2138.437	4953
2140.483	4771
2142.527	4868
2144.574	4714
2146.619	4809
2148.661	4841
2150.705	4911
2152.747	4926
2154.792	4902
2156.832	4871
2158.874	4733
2160.915	4828
2162.954	4796
2164.995	4781
2167.034	4857
2169.072	4832
2171.111	4845
2173.148	4790
2175.186	4899
2177.223	4863
2179.258	4784
2181.294	4925
2183.328	4783
2185.362	4889
2187.398	4794
2189.431	4772
2191.463	4772
2193.495	4783
2195.528	4749
2197.56	4744
2199.59	4857
2201.62	4842
2203.649	4713
2205.678	4779
2207.708	4822
2209.737	4740
2211.764	4763
2213.791	4755
2215.817	4799
2217.843	4823
2219.87	4751
2221.895	4813
2223.919	4749
2225.942	4844
2227.966	4819
2229.988	4821
2232.012	4778
2234.032	4783
2236.054	4739
2238.074	4718
2240.095	4857
2242.116	4737
2244.135	4737
2246.153	4748
2248.171	4699
2250.188	4730
2252.208	4785
2254.223	4758
2256.239	4777
2258.255	4755
2260.269	4779
2262.283	4763
2264.3	4678
2266.312	4713
2268.325	4729
2270.336	4692
2272.349	4730
2274.362	4783
2276.372	4678
2278.383	4764
2280.392	4792
2282.402	4736
2284.409	4764
2286.418	4707
2288.427	4771
2290.433	4714
2292.441	4727
2294.446	4709
2296.453	4656
2298.459	4672
2300.463	4725
2302.466	4873
2304.471	4779
2306.475	4795
2308.477	4757
2310.478	4726
2312.481	4803
2314.481	4750
2316.481	4665
2318.482	4765
2320.482	4747
2322.48	4694
2324.48	4720
2326.478	4705
2328.476	4788
2330.473	4708
2332.469	4711
2334.465	4643
2336.46	4640
2338.454	4688
2340.45	4712
2342.444	4677
2344.437	4646
2346.43	4690
2348.421	4651
2350.414	4745
2352.405	4653
2354.396	4664
2356.386	4673
2358.376	4686
2360.366	4659
2362.355	4618
2364.343	4647
2366.331	4714
2368.317	4544
2370.304	4676
2372.292	4611
2374.278	4600
2376.262	4544
2378.247	4642
2380.23	4636
2382.216	4609
2384.199	4622
2386.181	4639
2388.163	4625
2390.144	4606
2392.127	4593
2394.107	4602
2396.087	4593
2398.066	4580
2400.046	4652
2402.023	4596
2404.004	4598
2405.981	4619
2407.957	4611
2409.934	4581
2411.91	4572
2413.886	4560
2415.862	4606
2417.836	4527
2419.809	4553
2421.784	4577
2423.756	4584
2425.73	4612
2427.701	4545
2429.672	4545
2431.644	4607
2433.615	4625
2435.586	4695
2437.555	4632
2439.523	4602
2441.491	4615
2443.459	4641
2445.428	4587
2447.395	4533
2449.361	4630
2451.327	4586
2453.292	4520
2455.257	4588
2457.223	4578
2459.187	4595
2461.15	4565
2463.113	4604
2465.076	4658
2467.039	4482
2468.999	4561
2470.96	4646
2472.921	4531
2474.881	4583
2476.841	4584
2478.8	4618
2480.759	4518
2482.717	4517
2484.675	4550
2486.63	4532
2488.589	4538
2490.545	4566
2492.5	4444
2494.455	4544
2496.408	4584
2498.364	4472
2500.318	4580
2502.27	4523
2504.223	4562
2506.174	4481
2508.126	4550
2510.078	4479
2512.03	4460
2513.979	4528
2515.927	4505
2517.877	4650
2519.826	4448
2521.775	4522
2523.722	4480
2525.668	4519
2527.616	4573
2529.561	4503
2531.508	4504
2533.452	4489
2535.398	4479
2537.342	4533
2539.284	4546
2541.229	4476
2543.173	4508
2545.114	4440
2547.055	4500
2548.996	4567
2550.938	4455
2552.878	4479
2554.817	4464
2556.756	4527
2558.695	4492
2560.633	4588
2562.572	4500
2564.509	4450
2566.445	4496
2568.382	4506
2570.317	4524
2572.254	4537
2574.189	4596
2576.123	4531
2578.057	4473
2579.99	4565
2581.923	4530
2583.855	4460
2585.788	4576
2587.719	4527
2589.65	4527
2591.579	4533
2593.511	4553
2595.44	4585
2597.37	4445
2599.297	4538
2601.225	4599
2603.153	4479
2605.08	4520
2607.007	4530
2608.932	4523
2610.858	4591
2612.782	4473
2614.709	4506
2616.632	4517
2618.556	4485
2620.478	4465
2622.401	4551
2624.324	4523
2626.247	4527
2628.167	4582
2630.088	4523
2632.008	4551
2633.928	4605
2635.848	4537
2637.766	4485
2639.684	4499
2641.603	4534
2643.519	4552
2645.437	4546
2647.353	4573
2649.27	4473
2651.184	4571
2653.099	4497
2655.014	4588
2656.928	4564
2658.842	4559
2660.755	4531
2662.667	4515
2664.579	4512
2666.491	4468
2668.402	4434
2670.312	4384
2672.222	4503
2674.132	4557
2676.042	4551
2677.951	4428
2679.859	4524
2681.766	4461
2683.674	4494
2685.582	4463
2687.488	4407
2689.392	4443
2691.298	4497
2693.202	4313
2695.107	4460
2697.012	4477
2698.914	4493
2700.817	4438
2702.72	4449
2704.622	4508
2706.524	4437
2708.425	4433
2710.326	4461
2712.225	4471
2714.125	4489
2716.024	4518
2717.923	4374
2719.822	4337
2721.719	4411
2723.616	4421
2725.512	4488
2727.41	4475
2729.305	4371
2731.201	4398
2733.095	4492
2734.99	4471
2736.884	4480
2738.778	4499
2740.67	4433
2742.562	4417
2744.455	4474
2746.346	4512
2748.238	4461
2750.129	4453
2752.018	4431
2753.907	4386
2755.797	4434
2757.687	4389
2759.575	4483
2761.462	4390
2763.349	4554
2765.237	4442
2767.124	4435
2769.009	4415
2770.894	4439
2772.779	4375
2774.663	4459
2776.547	4417
2778.431	4471
2780.314	4424
2782.197	4440
2784.078	4422
2785.96	4462
2787.842	4408
2789.723	4347
2791.603	4464
2793.483	4435
2795.362	4417
2797.241	4457
2799.121	4326
2800.997	4489
2802.874	4374
2804.751	4380
2806.628	4456
2808.506	4477
2810.38	4397
2812.255	4447
2814.13	4420
2816.003	4433
2817.878	4443
2819.752	4375
2821.623	4413
2823.496	4369
2825.368	4350
2827.238	4414
2829.111	4447
2830.98	4347
2832.851	4481
2834.719	4389
2836.589	4487
2838.458	4498
2840.327	4486
2842.193	4525
2844.061	4436
2845.927	4457
2847.794	4496
2849.66	4401
2851.525	4567
2853.39	4628
2855.254	4507
2857.117	4557
2858.983	4605
2860.845	4626
2862.707	4638
2864.569	4700
2866.431	4860
2868.293	4718
2870.154	4677
2872.013	4871
2873.873	4807
2875.733	4836
2877.592	4927
2879.451	4968
2881.309	5091
2883.166	5066
2885.022	5097
2886.879	5242
2888.736	5258
2890.591	5105
2892.446	5221
2894.301	5175
2896.155	5194
2898.009	5155
2899.863	5231
2901.716	5124
2903.568	5105
2905.419	5126
2907.27	5039
2909.123	5059
2910.973	5109
2912.824	5196
2914.673	5309
2916.521	5292
2918.372	5329
2920.22	5431
2922.067	5435
2923.914	5449
2925.761	5463
2927.607	5554
2929.455	5647
2931.301	5656
2933.144	5668
2934.99	5677
2936.833	5788
2938.678	5948
2940.522	5859
2942.364	6066
2944.207	5993
2946.048	6058
2947.891	6209
2949.731	6207
2951.571	6186
2953.412	6216
2955.25	6018
2957.09	6146
2958.93	5975
2960.767	6013
2962.606	5781
2964.443	5681
2966.279	5785
2968.116	5669
2969.953	5525
2971.788	5473
2973.623	5360
2975.457	5364
2977.292	5279
2979.127	5227
2980.959	5226
2982.792	5217
2984.624	5185
2986.455	5136
2988.288	5170
2990.119	5064
2991.949	5072
2993.779	5043
2995.608	4980
2997.439	4908
2999.268	4873
3001.096	4815
3002.923	4811
3004.751	4715
3006.578	4695
3008.406	4707
3010.232	4651
3012.057	4658
3013.883	4543
3015.706	4603
3017.532	4485
3019.356	4425
3021.179	4484
3023.002	4509
3024.823	4407
3026.646	4453
3028.469	4276
3030.289	4326
3032.11	4240
3033.93	4339
3035.749	4323
3037.57	4312
3039.39	4333
3041.207	4337
3043.026	4289
3044.842	4291
3046.661	4172
3048.477	4240
3050.294	4176
3052.109	4235
3053.925	4213
3055.739	4224
3057.555	4231
3059.368	4251
3061.181	4268
3062.995	4228
3064.807	4294
3066.62	4280
3068.433	4259
3070.243	4263
3072.054	4167
3073.865	4215
3075.675	4217
3077.485	4175
3079.293	4148
3081.102	4274
3082.911	4284
3084.719	4099
3086.527	4128
3088.333	4246
3090.139	4082
3091.945	4112
3093.75	4245
3095.557	4211
3097.361	4220
3099.165	4159
3100.969	4145
3102.772	4113
3104.575	4159
3106.379	4146
3108.181	4124
3109.982	4025
3111.783	4060
3113.584	4091
3115.386	4140
3117.186	4005
3118.985	4143
3120.783	4055
3122.582	4088
3124.381	4014
3126.179	3991
3127.975	4095
3129.772	4081
3131.569	4051
3133.365	4025
3135.161	3997
3136.956	4046
3138.751	4006
3140.544	4047
3142.338	4029
3144.132	3988
3145.925	4086
3147.717	3913
3149.509	4025
3151.301	3997
3153.091	4030
3154.884	4005
3156.673	4007
3158.462	3924
3160.252	3986
3162.041	4021
3163.831	4119
3165.618	3967
3167.405	3991
3169.193	3974
3170.979	3962
3172.767	3992
3174.553	3942
3176.338	4074
3178.123	4043
3179.907	4042
3181.692	3927
3183.477	4053
3185.259	3958
3187.042	4027
3188.824	3887
3190.607	3994
3192.389	4022
3194.17	3920
3195.951	3966
3197.73	3917
3199.51	3920
3201.289	3989
3203.07	3964
3204.848	3975
3206.626	4017
3208.403	3960
3210.18	4023
3211.959	4029
3213.735	3921
3215.511	3932
3217.285	4024
3219.06	3970
3220.836	3990
3222.611	3914
3224.384	4012
3226.158	4011
3227.929	3973
3229.702	3983
3231.476	3963
3233.248	4001
3235.018	4001
3236.789	3966
3238.56	3915
3240.33	3952
3242.1	3996
3243.869	4040
3245.637	3953
3247.405	3908
3249.172	4033
3250.941	3926
3252.707	4006
3254.474	3981
3256.24	3928
3258.006	3978
3259.772	3966
3261.537	3986
3263.301	3912
3265.065	4002
3266.828	3977
3268.592	3938
3270.355	4000
3272.117	4016
3273.878	3955
3275.64	4025
3277.401	4002
3279.162	3932
3280.922	3908
3282.682	4021
3284.441	4019
3286.199	3989
3287.959	4004
3289.716	4012
3291.475	3960
3293.232	4043
3294.988	4072
3296.744	3965
3298.501	4011
3300.256	3996
3302.011	3948
3303.766	3942
3305.52	4075
3307.275	3996
3309.028	3988
3310.781	4025
3312.533	4007
3314.285	4059
3316.038	3952
3317.789	3927
3319.54	4017
3321.289	3910
3323.039	4023
3324.789	3926
3326.539	3905
3328.288	4005
3330.035	4007
3331.783	3901
3333.531	4042
3335.28	4011
3337.025	3934
3338.771	3975
3340.518	3902
3342.262	3918
3344.009	3999
3345.753	3989
3347.497	3927
3349.24	3921
3350.983	3919
3352.726	3993
3354.469	3913
3356.212	3951
3357.952	4002
3359.694	3937
3361.434	3954
3363.176	3893
3364.916	3909
3366.654	3934
3368.394	3855
3370.132	3917
3371.871	3855
3373.61	3917
3375.346	3861
3377.083	3849
3378.82	3784
3380.556	3859
3382.292	3832
3384.027	3812
3385.763	3809
3387.497	3869
3389.231	3893
3390.965	3837
3392.698	3863
3394.431	3822
3396.164	3826
3397.896	3790
3399.627	3879
3401.36	3793
3403.09	3875
3404.82	3906
3406.55	3852
3408.279	3765
3410.01	3878
3411.738	3775
3413.467	3730
3415.194	3748
3416.92	3770
3418.647	3755
3420.375	3793
3422.102	3781
3423.827	3762
3425.553	3771
3427.277	3750
3429.003	3705
3430.727	3752
3432.451	3791
3434.173	3666
3435.896	3717
3437.62	3736
3439.343	3723
3441.063	3744
3442.785	3713
3444.505	3740
3446.226	3635
3447.948	3759
3449.666	3719
3451.386	3715
3453.104	3659
3454.823	3681
3456.541	3670
3458.259	3585
3459.976	3579
3461.693	3663
3463.408	3703
3465.125	3664
3466.841	3641
3468.556	3611
3470.271	3562
3471.985	3593
3473.698	3586
3475.414	3588
3477.126	3621
3478.838	3604
3480.55	3577
3482.263	3602
3483.975	3535
3485.686	3613
3487.396	3513
3489.106	3523
3490.817	3540
3492.526	3560
3494.236	3469
3495.944	3641
3497.652	3488
3499.359	3586
3501.066	3503
3502.775	3491
3504.481	3474
3506.187	3548
3507.893	3474
3509.598	3445
3511.304	3550
3513.009	3495
3514.713	3421
3516.417	3429
3518.12	3448
3519.821	3588
3521.525	3482
3523.228	3483
3524.929	3448
3526.631	3428
3528.33	3423
3530.032	3450
3531.733	3453
3533.433	3443
3535.131	3515
3536.83	3463
3538.529	3449
3540.227	3448
3541.925	3451
3543.623	3431
3545.319	3396
3547.016	3398
3548.712	3423
3550.408	3399
3552.103	3499
3553.798	3314
3555.491	3360
3557.188	3351
3558.88	3444
3560.574	3368
3562.266	3343
3563.959	3381
3565.651	3386
3567.343	3375
3569.035	3364
3570.725	3338
3572.415	3391
3574.106	3354
3575.797	3324
3577.485	3295
3579.174	3365
3580.863	3274
3582.551	3347
3584.238	3267
3585.926	3277
3587.613	3271
3589.3	3242
3590.986	3262
3592.671	3248
3594.357	3312
3596.042	3314
3597.726	3251
3599.41	3291
3601.094	3175
3602.778	3279
3604.461	3234
3606.143	3198
3607.825	3317
3609.507	3257
3611.188	3223
3612.87	3284
3614.551	3257
3616.229	3221
3617.909	3159
3619.589	3222
3621.269	3148
3622.948	3171
3624.625	3142
3626.302	3167
3627.98	3178
3629.657	3145
3631.334	3135
3633.01	3140
3634.686	3149
3636.361	3161
3638.036	3161
3639.712	3192
3641.385	3103
3643.06	3097
3644.732	3100
3646.405	3124
3648.08	3173
3649.751	3128
3651.424	2989
3653.094	3089
3654.766	3137
3656.436	3066
3658.106	3160
3659.777	3053
3661.446	3083
3663.115	3075
3664.783	3017
3666.452	3118
3668.121	3116
3669.788	3133
3671.454	3081
3673.121	3068
3674.789	3060
3676.455	3024
3678.12	3087
3679.784	3098
3681.45	3064
3683.114	3044
3684.779	3121
3686.442	3029
3688.105	3074
3689.768	3140
3691.43	3095
3693.093	3043
3694.754	2959
3696.415	3026
3698.076	2996
3699.736	3087
3701.396	2971
3703.057	3025
3704.716	2986
3706.375	3022
3708.034	3049
3709.692	3079
3711.351	2998
3713.008	2966
3714.665	3043
3716.321	3011
3717.977	2975
3719.634	3010
3721.29	2965
3722.945	2979
3724.598	2975
3726.253	3022
3727.907	2957
3729.561	2983
3731.214	2976
3732.867	3004
3734.518	2949
3736.171	2927
3737.824	2975
3739.474	2946
3741.125	2920
3742.775	2961
3744.425	2943
3746.074	2928
3747.725	3037
3749.373	2972
3751.022	2980
3752.669	2922
3754.318	2899
3755.966	2969
3757.612	2874
3759.259	2907
3760.905	2950
3762.55	2894
3764.197	2927
3765.842	2902
3767.486	2927
3769.131	2865
3770.774	2950
3772.417	2913
3774.061	2913
3775.705	2870
3777.347	2881
3778.988	2875
3780.629	2889
3782.271	2963
3783.912	2777
3785.552	2890
3787.192	2856
3788.831	2902
3790.472	2902
3792.112	2896
3793.75	2837
3795.388	2886
3797.024	2939
3798.661	2810
3800.3	2920
3801.936	2852
3803.572	2783
3805.208	2841
3806.844	2859
3808.48	2888
3810.115	2883
3811.748	2779
3813.382	2793
3815.016	2821
3816.649	2859
3818.283	2795
3819.914	2716
3821.547	2815
3823.178	2842
3824.809	2831
3826.441	2854
3828.072	2821
3829.701	2832
3831.331	2817
3832.96	2848
3834.591	2835
3836.219	2828
3837.847	2877
3839.475	2764
3841.102	2846
3842.729	2801
3844.357	2752
3845.984	2805
3847.609	2796
3849.234	2739
3850.86	2747
3852.485	2801
3854.11	2722
3855.734	2759
3857.357	2743
3858.981	2774
3860.603	2706
3862.227	2729
3863.848	2747
3865.471	2743
3867.092	2772
3868.713	2773
3870.334	2778
3871.954	2775
3873.575	2729
3875.194	2749
3876.813	2689
3878.433	2721
3880.051	2761
3881.669	2767
3883.286	2732
3884.904	2723
3886.52	2693
3888.138	2746
3889.754	2754
3891.37	2769
3892.985	2701
3894.6	2701
3896.216	2692
3897.831	2670
3899.444	2742
3901.058	2728
3902.67	2660
3904.283	2669
3905.897	2737
3907.509	2705
3909.121	2718
3910.731	2704
3912.342	2672
3913.954	2708
3915.563	2658
3917.174	2716
3918.783	2704
3920.391	2761
3922.002	2747
3923.611	2666
3925.218	2708
3926.826	2694
3928.432	2690
3930.039	2721
3931.647	2708
3933.253	2703
3934.859	2629
3936.464	2737
3938.068	2738
3939.675	2711
3941.278	2698
3942.883	2601
3944.486	2628
3946.089	2628
3947.692	2686
3949.295	2671
3950.898	2684
3952.499	2711
3954.1	2644
3955.7	2644
3957.303	2714
3958.903	2703
3960.502	2635
3962.101	2627
3963.7	2671
3965.301	2612
3966.899	2626
3968.497	2609
3970.094	2508
3971.691	2624
3973.288	2642
3974.885	2664
3976.481	2631
3978.077	2564
3979.672	2590
3981.267	2631
3982.863	2622
3984.457	2677
3986.051	2570
3987.645	2616
3989.238	2641
3990.831	2615
3992.425	2529
3994.017	2566
3995.607	2606
3997.199	2529
3998.79	2521
4000.382	2540
4001.973	2502
4003.561	2573
4005.151	2522
4006.741	2619
4008.331	2514
4009.918	2601
4011.507	2531
4013.095	2599
4014.681	2553
4016.269	2521
4017.856	2542
4019.443	2478
4021.028	2555
4022.614	2513
4024.199	2486
4025.785	2486
4027.37	2527
4028.953	2536
4030.536	2540
4032.12	2508
4033.704	2493
4035.287	2477
4036.869	2462
4038.45	2531
4040.032	2501
4041.613	2448
4043.195	2569
4044.776	2470
4046.356	2462
4047.935	2453
4049.515	2492
4051.095	2455
4052.674	2493
4054.251	2449
4055.829	2447
4057.406	2434
4058.985	2455
4060.562	2465
4062.139	2440
4063.715	2493
4065.29	2492
4066.865	2442
4068.442	2455
4070.016	2448
4071.59	2498
4073.164	2477
4074.738	2381
4076.312	2457
4077.885	2440
4079.458	2406
4081.03	2425
4082.602	2414
4084.173	2354
4085.745	2432
4087.315	2403
4088.886	2444
4090.456	2457
4092.026	2341
4093.596	2444
4095.165	2455
4096.734	2404
4098.301	2438
4099.869	2447
4101.437	2452
4103.006	2444
4104.572	2395
4106.139	2372
4107.704	2499
4109.27	2409
4110.837	2472
4112.401	2436
4113.966	2415
4115.53	2424
4117.094	2415
4118.659	2431
4120.223	2373
4121.785	2371
4123.347	2337
4124.909	2380
4126.471	2305
4128.034	2380
4129.595	2361
4131.155	2337
4132.716	2419
4134.275	2343
4135.836	2325
4137.395	2386
4138.955	2332
4140.513	2356
4142.071	2357
4143.628	2280
4145.188	2310
4146.745	2319
4148.302	2361
4149.858	2349
4151.414	2328
4152.971	2320
4154.526	2348
4156.081	2342
4157.635	2274
4159.189	2312
4160.745	2282
4162.298	2339
4163.852	2275
4165.405	2361
4166.957	2319
4168.51	2305
4170.063	2320
4171.614	2307
4173.166	2323
4174.717	2268
4176.267	2300
4177.817	2318
4179.368	2232
4180.917	2256
4182.466	2244
4184.016	2287
4185.564	2305
4187.112	2278
4188.66	2301
4190.207	2253
4191.754	2257
4193.301	2277
4194.848	2303
4196.394	2288
4197.94	2224
4199.484	2275
4201.03	2219
4202.575	2244
4204.12	2270
4205.663	2225
4207.207	2241
4208.75	2254
4210.292	2212
4211.836	2188
4213.378	2305
4214.92	2133
4216.46	2203
4218.002	2214
4219.544	2200
4221.083	2245
4222.625	2263
4224.164	2263
4225.703	2197
4227.244	2120
4228.782	2147
4230.32	2255
4231.857	2236
4233.395	2194
4234.933	2164
4236.471	2276
4238.007	2179
4239.542	2205
4241.078	2163
4242.614	2258
4244.15	2230
4245.685	2188
4247.219	2151
4248.753	2202
4250.287	2198
4251.82	2249
4253.354	2208
4254.887	2213
4256.419	2173
4257.951	2201
4259.483	2199
4261.016	2181
4262.547	2169
4264.078	2234
4265.608	2142
4267.137	2136
4268.668	2185
4270.197	2169
4271.727	2209
4273.254	2208
4274.783	2198
4276.311	2123
4277.84	2188
4279.366	2174
4280.894	2166
4282.42	2182
4283.946	2117
4285.473	2114
4286.998	2152
4288.523	2167
4290.047	2153
4291.572	2175
4293.096	2151
4294.622	2169
4296.144	2182
4297.668	2151
4299.19	2177
4300.713	2151
4302.236	2196
4303.758	2140
4305.279	2140
4306.799	2131
4308.321	2075
4309.842	2186
4311.361	2171
4312.882	2101
4314.401	2115
