400.0961	4401
402.6185	4375
405.1424	4294
407.6635	4279
410.1838	4295
412.7035	4343
415.2225	4336
417.7388	4429
420.2585	4489
422.7754	4637
425.2917	4599
427.8072	4530
430.3221	4669
432.8363	4657
435.3498	4779
437.8626	4703
440.3727	4611
442.8841	4690
445.3969	4766
447.907	4696
450.4142	4670
452.9229	4679
455.4289	4615
457.9362	4659
460.4449	4708
462.9488	4622
465.454	4569
467.9566	4538
470.4604	4610
472.9637	4608
475.4662	4630
477.966	4589
480.4671	4646
482.9656	4664
485.4633	4717
487.9645	4690
490.4608	4670
492.9566	4686
495.4536	4678
497.948	4658
500.4437	4734
502.9387	4688
505.431	4799
507.9226	4675
510.4136	4725
512.9079	4705
515.3975	4706
517.8864	4761
520.3746	4735
522.8622	4745
525.3491	4865
527.8394	4856
530.3249	4818
532.8098	4750
535.2939	4797
537.7774	4837
540.2623	4767
542.7444	4681
545.2259	4761
547.7067	4816
550.1868	4765
552.6683	4792
555.147	4808
557.6231	4886
560.1005	4876
562.5773	4869
565.0534	4763
567.5308	4895
570.0056	4934
572.4776	4921
574.951	4877
577.4237	4959
579.8978	5042
582.3671	5022
584.8378	4953
587.3079	5141
589.7773	5089
592.244	5046
594.714	5050
597.1793	5054
599.6461	5042
602.1121	4930
604.5754	4951
607.0421	4900
609.5042	4960
611.9675	4971
614.4282	4890
616.8902	5052
619.3515	4928
621.8122	4851
624.2702	4918
626.7296	4949
629.1863	4916
631.6423	4876
634.1017	4941
636.5563	4879
639.0104	4999
641.4658	4935
643.9185	4915
646.3725	4937
648.8239	4942
651.2766	4973
653.7266	5035
656.176	4877
658.6247	4947
661.0748	4960
663.5242	5079
665.9709	5015
668.417	5076
670.8624	5041
673.3092	4980
675.7533	4940
678.1968	5159
680.6395	4982
683.0817	5067
685.5251	5126
687.9659	5110
690.4061	5173
692.8456	5080
695.2844	5144
697.7226	5107
700.1621	5115
702.599	5122
705.0332	5198
707.4688	5080
709.9036	5170
712.3399	5142
714.7735	5174
717.2044	4999
719.6367	5175
722.0683	5126
724.4993	5248
726.9296	5283
729.3593	5287
731.7883	5281
734.2147	5308
736.6423	5299
739.0714	5211
741.4958	5309
743.9216	5306
746.3447	5330
748.7691	5295
751.1929	5311
753.616	5377
756.0366	5417
758.4584	5400
760.8776	5474
763.2982	5441
765.718	5461
768.1373	5342
770.5539	5575
772.9698	5399
775.3871	5403
777.8038	5405
780.2178	5503
782.6332	5462
785.0459	5545
787.458	5558
789.8714	5470
792.2842	5415
794.6943	5417
797.1038	5401
799.5127	5435
801.9209	5502
804.3324	5476
806.7393	5517
809.1456	5472
811.5513	5525
813.9562	5558
816.3625	5441
818.7663	5400
821.1693	5562
823.5718	5523
825.9735	5691
828.3746	5532
830.7771	5532
833.177	5534
835.5762	5428
837.9747	5547
840.3727	5601
842.772	5593
845.1666	5638
847.5626	5555
849.958	5644
852.3527	5721
854.7488	5653
857.1403	5699
859.5331	5760
861.9253	5640
864.3168	5640
866.7057	5640
869.098	5615
871.4876	5662
873.8746	5613
876.263	5609
878.6487	5658
881.0378	5659
883.4243	5656
885.8081	5661
888.1933	5621
890.5759	5649
892.9598	5716
895.343	5607
897.7256	5740
900.1057	5606
902.4871	5671
904.8659	5711
907.246	5640
909.6254	5693
912.0023	5832
914.3786	5945
916.7562	5860
919.1331	5805
921.5074	6028
923.8831	5959
926.2562	5902
928.6287	5971
931.0005	6009
933.3757	5945
935.7462	5979
938.1162	6083
940.4855	6202
942.8542	6185
945.2242	6277
947.5916	6320
949.9584	6557
952.3266	6694
954.6921	6938
957.0571	7199
959.4233	7653
961.787	7681
964.15	7580
966.5125	7316
968.8742	6972
971.2354	6686
973.5959	6467
975.9559	6183
978.3151	6138
980.6738	5956
983.0338	5877
985.3912	5812
987.7461	5841
990.1022	5820
992.4578	5903
994.8127	5855
997.1689	5783
999.5207	5792
1001.874	6009
1004.226	5960
1006.576	5935
1008.929	6074
1011.28	5878
1013.628	5870
1015.977	5941
1018.324	5986
1020.674	5838
1023.019	5857
1025.366	6068
1027.713	6095
1030.056	6107
1032.399	6005
1034.746	6023
1037.087	5971
1039.431	6036
1041.771	5955
1044.113	6099
1046.454	6030
1048.793	5927
1051.133	6013
1053.471	5903
1055.807	6104
1058.146	6079
1060.483	6054
1062.818	6082
1065.153	6046
1067.489	6092
1069.822	6186
1072.156	6229
1074.488	6189
1076.82	6171
1079.15	6097
1081.48	6104
1083.814	6103
1086.143	6046
1088.471	6060
1090.799	6052
1093.126	5959
1095.452	6012
1097.78	6013
1100.105	5991
1102.43	6092
1104.754	6045
1107.077	6055
1109.4	5900
1111.722	5989
1114.044	5965
1116.365	5940
1118.685	6047
1121.005	5996
1123.324	6028
1125.643	6072
1127.961	6079
1130.278	6041
1132.595	5957
1134.911	6049
1137.226	6070
1139.541	6044
1141.854	6055
1144.167	5965
1146.482	5948
1148.793	6000
1151.105	5998
1153.414	6088
1155.725	6011
1158.033	6035
1160.344	6061
1162.651	6123
1164.959	6094
1167.265	6075
1169.572	6031
1171.878	6179
1174.184	6125
1176.488	5976
1178.79	6047
1181.094	6105
1183.396	6135
1185.699	6022
1188.001	5972
1190.301	5992
1192.6	6025
1194.9	5998
1197.2	5948
1199.497	6124
1201.794	6090
1204.09	5972
1206.387	6093
1208.684	6112
1210.978	5951
1213.272	6069
1215.565	6066
1217.858	6032
1220.15	6034
1222.443	6093
1224.734	6064
1227.024	6136
1229.313	6194
1231.602	6271
1233.892	6227
1236.18	6195
1238.467	6181
1240.754	6265
1243.04	6232
1245.325	6339
1247.612	6271
1249.896	6284
1252.178	6407
1254.461	6264
1256.743	6311
1259.027	6308
1261.308	6376
1263.587	6447
1265.867	6255
1268.146	6333
1270.425	6437
1272.703	6347
1274.981	6452
1277.256	6499
1279.532	6305
1281.808	6247
1284.083	6153
1286.358	6302
1288.63	6254
1290.904	6224
1293.175	6387
1295.449	6169
1297.719	6297
1299.99	6160
1302.259	6236
1304.529	6222
1306.798	6270
1309.065	6241
1311.333	6204
1313.599	6241
1315.866	6223
1318.131	6277
1320.396	6257
1322.66	6297
1324.925	6288
1327.187	6223
1329.448	6314
1331.711	6268
1333.974	6349
1336.234	6286
1338.493	6248
1340.752	6191
1343.01	6121
1345.269	6249
1347.526	6342
1349.784	6231
1352.04	6220
1354.295	6245
1356.552	6294
1358.806	6201
1361.059	6228
1363.312	6242
1365.564	6174
1367.818	6344
1370.069	6426
1372.318	6267
1374.568	6281
1376.817	6426
1379.066	6372
1381.316	6257
1383.564	6372
1385.809	6296
1388.056	6266
1390.301	6380
1392.549	6354
1394.793	6418
1397.036	6412
1399.279	6555
1401.522	6515
1403.763	6506
1406.007	6424
1408.248	6419
1410.487	6451
1412.727	6571
1414.965	6341
1417.205	6520
1419.442	6494
1421.68	6427
1423.915	6473
1426.152	6404
1428.388	6450
1430.623	6489
1432.857	6383
1435.091	6580
1437.323	6464
1439.556	6574
1441.789	6492
1444.019	6569
1446.25	6559
1448.48	6574
1450.708	6642
1452.938	6556
1455.167	6647
1457.394	6663
1459.62	6656
1461.846	6628
1464.073	6629
1466.299	6597
1468.523	6560
1470.746	6489
1472.969	6364
1475.191	6331
1477.415	6433
1479.636	6453
1481.858	6329
1484.078	6349
1486.298	6387
1488.518	6387
1490.736	6365
1492.954	6297
1495.169	6199
1497.386	6274
1499.602	6235
1501.819	6255
1504.034	6186
1506.248	6127
1508.462	6167
1510.675	6098
1512.888	6270
1515.1	6220
1517.311	6204
1519.522	6186
1521.732	6245
1523.942	6352
1526.151	6241
1528.36	6229
1530.566	6295
1532.773	6230
1534.98	6267
1537.187	6280
1539.392	6315
1541.596	6291
1543.801	6274
1546.005	6366
1548.208	6328
1550.411	6298
1552.612	6338
1554.814	6282
1557.013	6281
1559.212	6360
1561.414	6312
1563.612	6312
1565.811	6461
1568.007	6370
1570.203	6477
1572.403	6316
1574.598	6365
1576.792	6357
1578.988	6344
1581.181	6409
1583.376	6346
1585.568	6385
1587.761	6417
1589.952	6533
1592.143	6426
1594.333	6363
1596.524	6420
1598.715	6471
1600.903	6548
1603.091	6379
1605.278	6506
1607.466	6443
1609.652	6385
1611.838	6472
1614.023	6454
1616.207	6461
1618.391	6545
1620.576	6551
1622.759	6504
1624.941	6532
1627.123	6571
1629.304	6609
1631.484	6520
1633.664	6625
1635.844	6610
1638.022	6604
1640.201	6565
1642.38	6642
1644.556	6664
1646.732	6541
1648.908	6482
1651.084	6678
1653.257	6577
1655.433	6582
1657.607	6656
1659.779	6697
1661.951	6591
1664.122	6746
1666.295	6725
1668.467	6655
1670.635	6679
1672.805	6653
1674.973	6605
1677.142	6851
1679.31	6625
1681.478	6547
1683.644	6692
1685.81	6477
1687.975	6610
1690.142	6623
1692.305	6502
1694.468	6639
1696.632	6469
1698.794	6551
1700.957	6514
1703.119	6514
1705.279	6463
1707.439	6487
1709.598	6438
1711.758	6526
1713.917	6453
1716.075	6381
1718.231	6490
1720.388	6479
1722.543	6321
1724.702	6400
1726.856	6403
1729.01	6469
1731.164	6310
1733.317	6463
1735.471	6423
1737.623	6387
1739.774	6475
1741.925	6546
1744.075	6549
1746.225	6417
1748.376	6398
1750.524	6553
1752.672	6354
1754.82	6542
1756.965	6483
1759.113	6445
1761.259	6604
1763.405	6417
1765.549	6488
1767.694	6534
1769.836	6470
1771.981	6410
1774.123	6530
1776.264	6515
1778.405	6485
1780.546	6447
1782.687	6454
1784.827	6542
1786.966	6594
1789.103	6489
1791.242	6490
1793.381	6444
1795.517	6493
1797.653	6432
1799.788	6604
1801.923	6373
1804.057	6463
1806.193	6478
1808.326	6453
1810.457	6415
1812.59	6540
1814.721	6571
1816.855	6522
1818.984	6472
1821.113	6449
1823.244	6510
1825.372	6403
1827.499	6494
1829.63	6475
1831.756	6457
1833.882	6450
1836.007	6487
1838.132	6507
1840.26	6506
1842.384	6508
1844.507	6488
1846.63	6520
1848.752	6360
1850.875	6322
1852.996	6406
1855.118	6492
1857.238	6383
1859.358	6370
1861.477	6391
1863.597	6507
1865.715	6483
1867.832	6425
1869.948	6323
1872.064	6427
1874.181	6507
1876.297	6509
1878.411	6313
1880.526	6506
1882.639	6437
1884.752	6402
1886.865	6449
1888.977	6421
1891.089	6375
1893.2	6509
1895.308	6381
1897.42	6494
1899.53	6456
1901.639	6590
1903.745	6385
1905.853	6551
1907.962	6421
1910.067	6582
1912.174	6454
1914.278	6463
1916.383	6393
1918.486	6564
1920.592	6648
1922.694	6481
1924.797	6496
1926.898	6501
1929	6563
1931.102	6469
1933.203	6429
1935.301	6594
1937.401	6506
1939.499	6461
1941.598	6443
1943.697	6421
1945.793	6486
1947.888	6489
1949.985	6549
1952.08	6606
1954.176	6595
1956.269	6602
1958.364	6512
1960.457	6525
1962.549	6608
1964.642	6523
1966.733	6503
1968.823	6525
1970.913	6461
1973.005	6411
1975.093	6518
1977.184	6458
1979.271	6501
1981.359	6476
1983.446	6574
1985.532	6465
1987.619	6550
1989.705	6440
1991.789	6426
1993.874	6525
1995.956	6494
1998.041	6368
2000.123	6527
2002.206	6436
2004.287	6338
2006.368	6501
2008.449	6437
2010.529	6489
2012.609	6382
2014.688	6532
2016.766	6389
2018.843	6408
2020.922	6437
2022.999	6591
2025.074	6438
2027.15	6396
2029.225	6508
2031.299	6444
2033.375	6495
2035.447	6528
2037.52	6345
2039.592	6486
2041.664	6488
2043.736	6442
2045.807	6435
2047.876	6503
2049.947	6495
2052.015	6389
2054.086	6482
2056.153	6531
2058.221	6547
2060.288	6447
2062.353	6418
2064.42	6332
2066.486	6519
2068.55	6526
2070.614	6474
2072.678	6432
2074.741	6404
2076.805	6445
2078.866	6552
2080.929	6559
2082.99	6411
2085.049	6517
2087.109	6514
2089.17	6495
2091.228	6367
2093.286	6406
2095.344	6530
2097.4	6467
2099.46	6249
2101.516	6459
2103.572	6472
2105.626	6572
2107.679	6443
2109.735	6470
2111.788	6434
2113.841	6444
2115.894	6443
2117.945	6495
2119.997	6486
2122.049	6401
2124.1	6486
2126.148	6365
2128.197	6418
2130.246	6410
2132.296	6405
2134.342	6513
2136.39	6342
2138.437	6463
2140.483	6486
2142.527	6503
2144.574	6360
2146.619	6427
2148.661	6372
2150.705	6386
2152.747	6416
2154.792	6370
2156.832	6353
2158.874	6417
2160.915	6361
2162.954	6413
2164.995	6295
2167.034	6413
2169.072	6346
2171.111	6388
2173.148	6313
2175.186	6334
2177.223	6406
2179.258	6390
2181.294	6289
2183.328	6309
2185.362	6397
2187.398	6386
2189.431	6314
2191.463	6287
2193.495	6234
2195.528	6264
2197.56	6376
2199.59	6320
2201.62	6181
2203.649	6305
2205.678	6341
2207.708	6263
2209.737	6278
2211.764	6273
2213.791	6170
2215.817	6347
2217.843	6209
2219.87	6321
2221.895	6240
2223.919	6339
2225.942	6273
2227.966	6438
2229.988	6273
2232.012	6229
2234.032	6245
2236.054	6206
2238.074	6243
2240.095	6319
2242.116	6286
2244.135	6282
2246.153	6247
2248.171	6169
2250.188	6240
2252.208	6264
2254.223	6234
2256.239	6313
2258.255	6174
2260.269	6251
2262.283	6304
2264.3	6232
2266.312	6227
2268.325	6266
2270.336	6266
2272.349	6352
2274.362	6325
2276.372	6318
2278.383	6227
2280.392	6327
2282.402	6163
2284.409	6179
2286.418	6253
2288.427	6276
2290.433	6299
2292.441	6256
2294.446	6226
2296.453	6267
2298.459	6215
2300.463	6229
2302.466	6195
2304.471	6166
2306.475	6158
2308.477	6204
2310.478	6218
2312.481	6304
2314.481	6192
2316.481	6136
2318.482	6287
2320.482	6181
2322.48	6195
2324.48	6368
2326.478	6118
2328.476	6206
2330.473	6097
2332.469	6153
2334.465	6170
2336.46	6252
2338.454	6179
2340.45	6147
2342.444	6068
2344.437	6055
2346.43	6141
2348.421	6216
2350.414	6189
2352.405	6223
2354.396	6119
2356.386	6056
2358.376	6140
2360.366	6119
2362.355	6092
2364.343	6066
2366.331	6091
2368.317	6186
2370.304	6099
2372.292	6224
2374.278	6041
2376.262	6139
2378.247	6097
2380.23	6025
2382.216	6045
2384.199	6047
2386.181	6119
2388.163	6066
2390.144	6042
2392.127	6094
2394.107	6036
2396.087	6051
2398.066	6051
2400.046	6098
2402.023	5943
2404.004	6031
2405.981	6119
2407.957	5977
2409.934	5966
2411.91	5993
2413.886	6000
2415.862	6044
2417.836	5934
2419.809	6075
2421.784	5894
2423.756	6068
2425.73	6031
2427.701	6067
2429.672	6078
2431.644	5920
2433.615	6083
2435.586	5980
2437.555	5953
2439.523	5978
2441.491	6024
2443.459	5914
2445.428	6104
2447.395	5948
2449.361	6003
2451.327	5945
2453.292	5953
2455.257	5919
2457.223	6054
2459.187	5935
2461.15	5927
2463.113	6062
2465.076	6030
2467.039	6060
2468.999	5867
2470.96	5943
2472.921	5800
2474.881	6008
2476.841	6035
2478.8	6023
2480.759	5900
2482.717	5943
2484.675	6018
2486.63	5960
2488.589	5917
2490.545	5992
2492.5	5913
2494.455	5897
2496.408	5921
2498.364	5896
2500.318	5921
2502.27	6009
2504.223	5977
2506.174	5947
2508.126	5932
2510.078	5989
2512.03	5869
2513.979	5906
2515.927	5845
2517.877	5933
2519.826	5829
2521.775	5844
2523.722	5877
2525.668	5963
2527.616	5852
2529.561	5895
2531.508	5883
2533.452	5943
2535.398	5798
2537.342	5801
2539.284	5808
2541.229	5867
2543.173	5959
2545.114	5881
2547.055	5881
2548.996	5940
2550.938	5897
2552.878	5842
2554.817	5848
2556.756	5819
2558.695	5916
2560.633	5762
2562.572	5772
2564.509	5858
2566.445	5861
2568.382	5856
2570.317	5809
2572.254	5902
2574.189	5859
2576.123	5860
2578.057	5813
2579.99	5755
2581.923	5837
2583.855	5861
2585.788	5908
2587.719	5830
2589.65	5882
2591.579	5815
2593.511	5711
2595.44	5979
2597.37	5855
2599.297	5822
2601.225	5840
2603.153	5824
2605.08	5951
2607.007	5959
2608.932	5918
2610.858	5839
2612.782	5877
2614.709	5895
2616.632	5874
2618.556	5833
2620.478	5854
2622.401	5917
2624.324	5849
2626.247	5826
2628.167	5840
2630.088	5912
2632.008	5837
2633.928	5881
2635.848	5876
2637.766	5820
2639.684	5887
2641.603	5828
2643.519	5857
2645.437	5933
2647.353	5834
2649.27	5825
2651.184	5908
2653.099	5888
2655.014	5763
2656.928	5824
2658.842	5912
2660.755	5767
2662.667	5756
2664.579	5953
2666.491	5859
2668.402	5905
2670.312	5888
2672.222	5765
2674.132	5758
2676.042	5847
2677.951	5818
2679.859	5762
2681.766	5760
2683.674	5757
2685.582	5762
2687.488	5843
2689.392	5836
2691.298	5711
2693.202	5735
2695.107	5764
2697.012	5762
2698.914	5841
2700.817	5699
2702.72	5743
2704.622	5777
2706.524	5751
2708.425	5778
2710.326	5735
2712.225	5739
2714.125	5649
2716.024	5731
2717.923	5788
2719.822	5707
2721.719	5770
2723.616	5734
2725.512	5706
2727.41	5744
2729.305	5686
2731.201	5781
2733.095	5667
2734.99	5785
2736.884	5779
2738.778	5850
2740.67	5809
2742.562	5745
2744.455	5819
2746.346	5654
2748.238	5764
2750.129	5682
2752.018	5722
2753.907	5645
2755.797	5699
2757.687	5718
2759.575	5724
2761.462	5599
2763.349	5832
2765.237	5736
2767.124	5721
2769.009	5566
2770.894	5718
2772.779	5609
2774.663	5694
2776.547	5740
2778.431	5691
2780.314	5773
2782.197	5731
2784.078	5672
2785.96	5723
2787.842	5707
2789.723	5790
2791.603	5637
2793.483	5695
2795.362	5656
2797.241	5622
2799.121	5730
2800.997	5583
2802.874	5751
2804.751	5611
2806.628	5713
2808.506	5583
2810.38	5530
2812.255	5715
2814.13	5722
2816.003	5556
2817.878	5578
2819.752	5513
2821.623	5708
2823.496	5505
2825.368	5601
2827.238	5558
2829.111	5607
2830.98	5641
2832.851	5672
2834.719	5594
2836.589	5740
2838.458	5579
2840.327	5622
2842.193	5713
2844.061	5683
2845.927	5695
2847.794	5717
2849.66	5629
2851.525	5767
2853.39	5813
2855.254	5822
2857.117	5784
2858.983	5824
2860.845	5812
2862.707	5775
2864.569	5768
2866.431	5843
2868.293	5809
2870.154	5878
2872.013	6030
2873.873	6039
2875.733	5926
2877.592	6200
2879.451	6125
2881.309	6129
2883.166	6246
2885.022	6308
2886.879	6234
2888.736	6265
2890.591	6240
2892.446	6352
2894.301	6355
2896.155	6244
2898.009	6305
2899.863	6256
2901.716	6133
2903.568	6159
2905.419	6063
2907.27	6151
2909.123	6196
2910.973	6285
2912.824	6377
2914.673	6319
2916.521	6408
2918.372	6548
2920.22	6480
2922.067	6486
2923.914	6516
2925.761	6696
2927.607	6667
2929.455	6686
2931.301	6816
2933.144	6762
2934.99	6716
2936.833	6867
2938.678	6992
2940.522	6944
2942.364	7056
2944.207	6962
2946.048	7235
2947.891	7219
2949.731	7198
2951.571	7118
2953.412	7186
2955.25	7046
2957.09	7091
2958.93	6975
2960.767	6986
2962.606	6878
2964.443	6879
2966.279	6695
2968.116	6597
2969.953	6590
2971.788	6613
2973.623	6510
2975.457	6412
2977.292	6413
2979.127	6348
2980.959	6254
2982.792	6361
2984.624	6187
2986.455	6260
2988.288	6190
2990.119	6239
2991.949	6154
2993.779	6059
2995.608	6124
2997.439	6093
2999.268	5979
3001.096	5902
3002.923	5900
3004.751	5864
3006.578	5781
3008.406	5730
3010.232	5703
3012.057	5546
3013.883	5574
3015.706	5602
3017.532	5582
3019.356	5523
3021.179	5612
3023.002	5564
3024.823	5581
3026.646	5378
3028.469	5391
3030.289	5497
3032.11	5445
3033.93	5393
3035.749	5344
3037.57	5389
3039.39	5422
3041.207	5445
3043.026	5348
3044.842	5402
3046.661	5331
3048.477	5354
3050.294	5442
3052.109	5454
3053.925	5436
3055.739	5345
3057.555	5254
3059.368	5374
3061.181	5309
3062.995	5301
3064.807	5391
3066.62	5301
3068.433	5383
3070.243	5311
3072.054	5304
3073.865	5231
3075.675	5256
3077.485	5285
3079.293	5340
3081.102	5346
3082.911	5281
3084.719	5223
3086.527	5262
3088.333	5280
3090.139	5237
3091.945	5159
3093.75	5239
3095.557	5115
3097.361	5120
3099.165	5154
3100.969	5222
3102.772	5126
3104.575	5154
3106.379	5191
3108.181	5176
3109.982	5204
3111.783	5108
3113.584	5156
3115.386	5131
3117.186	5159
3118.985	5176
3120.783	5135
3122.582	5114
3124.381	5140
3126.179	5112
3127.975	5100
3129.772	5171
3131.569	5037
3133.365	5134
3135.161	5139
3136.956	5112
3138.751	5062
3140.544	5048
3142.338	5048
3144.132	5118
3145.925	5159
3147.717	5066
3149.509	5015
3151.301	5056
3153.091	5089
3154.884	5047
3156.673	5076
3158.462	5031
3160.252	4959
3162.041	5047
3163.831	5034
3165.618	5125
3167.405	5055
3169.193	5100
3170.979	4946
3172.767	4918
3174.553	5139
3176.338	4970
3178.123	5085
3179.907	5036
3181.692	5018
3183.477	5033
3185.259	5029
3187.042	4875
3188.824	4985
3190.607	4912
3192.389	4972
3194.17	5020
3195.951	4964
3197.73	4971
3199.51	4949
3201.289	4937
3203.07	4947
3204.848	4956
3206.626	4908
3208.403	4971
3210.18	5028
3211.959	5018
3213.735	4931
3215.511	4964
3217.285	4899
3219.06	4965
3220.836	4962
3222.611	5010
3224.384	4951
3226.158	5069
3227.929	4967
3229.702	5003
3231.476	4929
3233.248	4909
3235.018	4960
3236.789	4932
3238.56	4844
3240.33	5051
3242.1	5124
3243.869	4812
3245.637	4967
3247.405	4985
3249.172	4992
3250.941	4975
3252.707	4981
3254.474	5045
3256.24	4980
3258.006	4903
3259.772	4980
3261.537	4989
3263.301	4978
3265.065	4930
3266.828	4928
3268.592	5045
3270.355	4957
3272.117	4970
3273.878	4915
3275.64	4954
3277.401	4980
3279.162	5025
3280.922	4911
3282.682	5038
3284.441	5007
3286.199	4918
3287.959	4965
3289.716	4991
3291.475	5013
3293.232	5041
3294.988	4923
3296.744	4982
3298.501	4948
3300.256	4928
3302.011	4999
3303.766	4956
3305.52	4889
3307.275	4913
3309.028	5024
3310.781	4973
3312.533	4913
3314.285	4968
3316.038	4994
3317.789	4972
3319.54	4982
3321.289	4899
3323.039	4929
3324.789	4930
3326.539	4906
3328.288	4933
3330.035	5035
3331.783	4894
3333.531	4842
3335.28	4861
3337.025	4867
3338.771	4876
3340.518	4845
3342.262	4960
3344.009	4809
3345.753	4964
3347.497	4889
3349.24	4790
3350.983	4857
3352.726	4890
3354.469	4947
3356.212	4784
3357.952	4922
3359.694	4855
3361.434	4862
3363.176	4761
3364.916	4839
3366.654	4867
3368.394	4761
3370.132	4829
3371.871	4710
3373.61	4892
3375.346	4834
3377.083	4821
3378.82	4778
3380.556	4762
3382.292	4746
3384.027	4815
3385.763	4729
3387.497	4742
3389.231	4754
3390.965	4753
3392.698	4744
3394.431	4719
3396.164	4775
3397.896	4801
3399.627	4812
3401.36	4626
3403.09	4700
3404.82	4673
3406.55	4718
3408.279	4731
3410.01	4751
3411.738	4676
3413.467	4705
3415.194	4715
3416.92	4686
3418.647	4640
3420.375	4677
3422.102	4640
3423.827	4699
3425.553	4616
3427.277	4718
3429.003	4637
3430.727	4676
3432.451	4615
3434.173	4595
3435.896	4681
3437.62	4591
3439.343	4558
3441.063	4639
3442.785	4626
3444.505	4498
3446.226	4593
3447.948	4612
3449.666	4551
3451.386	4529
3453.104	4518
3454.823	4643
3456.541	4561
3458.259	4482
3459.976	4464
3461.693	4508
3463.408	4527
3465.125	4499
3466.841	4641
3468.556	4458
3470.271	4593
3471.985	4504
3473.698	4427
3475.414	4476
3477.126	4484
3478.838	4441
3480.55	4541
3482.263	4403
3483.975	4461
3485.686	4481
3487.396	4408
3489.106	4427
3490.817	4357
3492.526	4367
3494.236	4416
3495.944	4389
3497.652	4366
3499.359	4434
3501.066	4361
3502.775	4441
3504.481	4343
3506.187	4395
3507.893	4473
3509.598	4400
3511.304	4480
3513.009	4297
3514.713	4316
3516.417	4224
3518.12	4385
3519.821	4284
3521.525	4268
3523.228	4243
3524.929	4367
3526.631	4282
3528.33	4215
3530.032	4335
3531.733	4340
3533.433	4276
3535.131	4307
3536.83	4235
3538.529	4254
3540.227	4257
3541.925	4256
3543.623	4190
3545.319	4314
3547.016	4287
3548.712	4229
3550.408	4272
3552.103	4199
3553.798	4167
3555.491	4248
3557.188	4294
3558.88	4243
3560.574	4164
3562.266	4222
3563.959	4217
3565.651	4093
3567.343	4231
3569.035	4229
3570.725	4177
3572.415	4206
3574.106	4112
3575.797	4214
3577.485	4220
3579.174	4184
3580.863	4119
3582.551	4163
3584.238	4119
3585.926	4158
3587.613	4126
3589.3	4036
3590.986	4047
3592.671	4058
3594.357	4136
3596.042	4057
3597.726	4155
3599.41	4203
3601.094	3990
3602.778	4059
3604.461	4021
3606.143	4074
3607.825	4027
3609.507	4039
3611.188	3965
3612.87	4046
3614.551	4026
3616.229	3927
3617.909	4055
3619.589	3964
3621.269	3899
3622.948	3947
3624.625	4019
3626.302	3958
3627.98	4001
3629.657	3984
3631.334	3911
3633.01	3857
3634.686	3841
3636.361	3951
3638.036	4014
3639.712	3801
3641.385	3890
3643.06	3849
3644.732	3864
3646.405	3922
3648.08	3938
3649.751	3915
3651.424	3901
3653.094	3773
3654.766	3843
3656.436	3854
3658.106	3884
3659.777	3791
3661.446	3848
3663.115	3836
3664.783	3757
3666.452	3859
3668.121	3837
3669.788	3819
3671.454	3944
3673.121	3826
3674.789	3877
3676.455	3801
3678.12	3814
3679.784	3786
3681.45	3789
3683.114	3733
3684.779	3810
3686.442	3826
3688.105	3750
3689.768	3755
3691.43	3883
3693.093	3831
3694.754	3791
3696.415	3726
3698.076	3718
3699.736	3712
3701.396	3773
3703.057	3684
3704.716	3762
3706.375	3738
3708.034	3747
3709.692	3698
3711.351	3632
3713.008	3775
3714.665	3750
3716.321	3727
3717.977	3770
3719.634	3715
3721.29	3729
3722.945	3663
3724.598	3646
3726.253	3746
3727.907	3754
3729.561	3595
3731.214	3653
3732.867	3688
3734.518	3616
3736.171	3691
3737.824	3712
3739.474	3713
3741.125	3610
3742.775	3695
3744.425	3653
3746.074	3685
3747.725	3544
3749.373	3653
3751.022	3598
3752.669	3669
3754.318	3646
3755.966	3645
3757.612	3677
3759.259	3627
3760.905	3701
3762.55	3694
3764.197	3635
3765.842	3606
3767.486	3619
3769.131	3666
3770.774	3580
3772.417	3593
3774.061	3584
3775.705	3639
3777.347	3594
3778.988	3650
3780.629	3592
3782.271	3598
3783.912	3550
3785.552	3533
3787.192	3573
3788.831	3586
3790.472	3607
3792.112	3552
3793.75	3572
3795.388	3601
3797.024	3557
3798.661	3528
3800.3	3519
3801.936	3529
3803.572	3468
3805.208	3567
3806.844	3478
3808.48	3523
3810.115	3556
3811.748	3479
3813.382	3541
3815.016	3509
3816.649	3529
3818.283	3456
3819.914	3496
3821.547	3521
3823.178	3490
3824.809	3460
3826.441	3466
3828.072	3497
3829.701	3445
3831.331	3526
3832.96	3485
3834.591	3453
3836.219	3482
3837.847	3474
3839.475	3441
3841.102	3477
3842.729	3499
3844.357	3499
3845.984	3412
3847.609	3430
3849.234	3439
3850.86	3412
3852.485	3457
3854.11	3460
3855.734	3468
3857.357	3434
3858.981	3423
3860.603	3419
3862.227	3459
3863.848	3447
3865.471	3413
3867.092	3459
3868.713	3424
3870.334	3420
3871.954	3409
3873.575	3422
3875.194	3343
3876.813	3348
3878.433	3362
3880.051	3412
3881.669	3431
3883.286	3400
3884.904	3387
3886.52	3424
3888.138	3363
3889.754	3346
3891.37	3391
3892.985	3391
3894.6	3386
3896.216	3418
3897.831	3356
3899.444	3361
3901.058	3316
3902.67	3423
3904.283	3293
3905.897	3329
3907.509	3412
3909.121	3331
3910.731	3345
3912.342	3343
3913.954	3342
3915.563	3370
3917.174	3307
3918.783	3298
3920.391	3299
3922.002	3402
3923.611	3301
3925.218	3345
3926.826	3366
3928.432	3298
3930.039	3335
3931.647	3311
3933.253	3387
3934.859	3293
3936.464	3268
3938.068	3289
3939.675	3229
3941.278	3285
3942.883	3366
3944.486	3297
3946.089	3276
3947.692	3277
3949.295	3276
3950.898	3269
3952.499	3257
3954.1	3278
3955.7	3279
3957.303	3221
3958.903	3279
3960.502	3294
3962.101	3332
3963.7	3204
3965.301	3337
3966.899	3263
3968.497	3277
3970.094	3241
3971.691	3270
3973.288	3234
3974.885	3309
3976.481	3234
3978.077	3216
3979.672	3280
3981.267	3290
3982.863	3213
3984.457	3163
3986.051	3189
3987.645	3334
3989.238	3184
3990.831	3273
3992.425	3111
3994.017	3113
3995.607	3123
3997.199	3183
3998.79	3157
4000.382	3127
4001.973	3209
4003.561	3151
4005.151	3157
4006.741	3114
4008.331	3135
4009.918	3119
4011.507	3225
4013.095	3087
4014.681	3139
4016.269	3149
4017.856	3175
4019.443	3070
4021.028	3121
4022.614	3097
4024.199	3128
4025.785	3051
4027.37	3017
4028.953	3104
4030.536	3058
4032.12	3046
4033.704	3070
4035.287	3055
4036.869	3102
4038.45	3054
4040.032	3004
4041.613	3060
4043.195	3031
4044.776	2998
4046.356	3025
4047.935	3066
4049.515	3041
4051.095	3075
4052.674	3036
4054.251	2949
4055.829	3030
4057.406	3005
4058.985	3055
4060.562	2997
4062.139	3006
4063.715	3024
4065.29	3091
4066.865	3008
4068.442	2999
4070.016	2998
4071.59	3091
4073.164	3020
4074.738	2932
4076.312	2999
4077.885	2993
4079.458	2946
4081.03	2988
4082.602	2983
4084.173	3008
4085.745	3030
4087.315	2950
4088.886	2974
4090.456	2990
4092.026	2957
4093.596	2982
4095.165	2932
4096.734	2903
4098.301	2962
4099.869	2978
4101.437	2968
4103.006	2932
4104.572	2910
4106.139	2991
4107.704	2948
4109.27	2918
4110.837	2941
4112.401	2970
4113.966	2939
4115.53	2927
4117.094	2900
4118.659	2879
4120.223	3014
4121.785	2841
4123.347	2929
4124.909	2959
4126.471	2952
4128.034	2857
4129.595	2877
4131.155	2894
4132.716	2808
4134.275	2900
4135.836	2903
4137.395	2829
4138.955	2801
4140.513	2847
4142.071	2812
4143.628	2907
4145.188	2768
4146.745	2876
4148.302	2850
4149.858	2846
4151.414	2875
4152.971	2804
4154.526	2781
4156.081	2821
4157.635	2776
4159.189	2826
4160.745	2863
4162.298	2827
4163.852	2777
4165.405	2841
4166.957	2839
4168.51	2777
4170.063	2697
4171.614	2783
4173.166	2756
4174.717	2812
4176.267	2804
4177.817	2855
4179.368	2750
4180.917	2843
4182.466	2708
4184.016	2837
4185.564	2811
4187.112	2685
4188.66	2773
4190.207	2668
4191.754	2751
4193.301	2764
4194.848	2769
4196.394	2716
4197.94	2718
4199.484	2699
4201.03	2787
4202.575	2765
4204.12	2712
4205.663	2741
4207.207	2748
4208.75	2723
4210.292	2783
4211.836	2693
4213.378	2737
4214.92	2691
4216.46	2746
4218.002	2680
4219.544	2736
4221.083	2734
4222.625	2701
4224.164	2710
4225.703	2712
4227.244	2732
4228.782	2720
4230.32	2667
4231.857	2675
4233.395	2734
4234.933	2683
4236.471	2703
4238.007	2636
4239.542	2707
4241.078	2658
4242.614	2667
4244.15	2635
4245.685	2707
4247.219	2645
4248.753	2642
4250.287	2754
4251.82	2660
4253.354	2643
4254.887	2633
4256.419	2680
4257.951	2563
4259.483	2697
4261.016	2537
4262.547	2649
4264.078	2673
4265.608	2628
4267.137	2672
4268.668	2624
4270.197	2645
4271.727	2640
4273.254	2585
4274.783	2616
4276.311	2579
4277.84	2628
4279.366	2633
4280.894	2538
4282.42	2560
4283.946	2615
4285.473	2556
4286.998	2642
4288.523	2560
4290.047	2607
4291.572	2557
4293.096	2624
4294.622	2619
4296.144	2589
4297.668	2531
4299.19	2530
4300.713	2615
4302.236	2522
4303.758	2590
4305.279	2605
4306.799	2589
4308.321	2593
4309.842	2566
4311.361	2554
4312.882	2536
4314.401	2571
