400.0961	4132
402.6185	4135
405.1424	4155
407.6635	4101
410.1838	4062
412.7035	4182
415.2225	4225
417.7388	4185
420.2585	4310
422.7754	4344
425.2917	4194
427.8072	4382
430.3221	4374
432.8363	4446
435.3498	4460
437.8626	4428
440.3727	4456
442.8841	4419
445.3969	4430
447.907	4377
450.4142	4369
452.9229	4417
455.4289	4350
457.9362	4379
460.4449	4317
462.9488	4274
465.454	4398
467.9566	4475
470.4604	4320
472.9637	4325
475.4662	4372
477.966	4426
480.4671	4408
482.9656	4377
485.4633	4421
487.9645	4411
490.4608	4502
492.9566	4408
495.4536	4382
497.948	4452
500.4437	4484
502.9387	4425
505.431	4591
507.9226	4531
510.4136	4430
512.9079	4499
515.3975	4438
517.8864	4508
520.3746	4569
522.8622	4551
525.3491	4487
527.8394	4537
530.3249	4497
532.8098	4531
535.2939	4480
537.7774	4575
540.2623	4630
542.7444	4578
545.2259	4489
547.7067	4525
550.1868	4543
552.6683	4506
555.147	4534
557.6231	4644
560.1005	4551
562.5773	4633
565.0534	4514
567.5308	4628
570.0056	4576
572.4776	4551
574.951	4807
577.4237	4689
579.8978	4781
582.3671	4771
584.8378	4701
587.3079	4724
589.7773	4784
592.244	4670
594.714	4810
597.1793	4774
599.6461	4704
602.1121	4667
604.5754	4753
607.0421	4755
609.5042	4672
611.9675	4773
614.4282	4660
616.8902	4724
619.3515	4657
621.8122	4594
624.2702	4600
626.7296	4611
629.1863	4683
631.6423	4596
634.1017	4597
636.5563	4588
639.0104	4620
641.4658	4651
643.9185	4560
646.3725	4657
648.8239	4672
651.2766	4676
653.7266	4677
656.176	4793
658.6247	4664
661.0748	4727
663.5242	4705
665.9709	4798
668.417	4753
670.8624	4800
673.3092	4749
675.7533	4851
678.1968	4822
680.6395	4822
683.0817	4777
685.5251	4812
687.9659	4770
690.4061	4820
692.8456	4811
695.2844	4891
697.7226	4846
700.1621	4814
702.599	4828
705.0332	4844
707.4688	4890
709.9036	4872
712.3399	4836
714.7735	4914
717.2044	4908
719.6367	4942
722.0683	4864
724.4993	4949
726.9296	4985
729.3593	4895
731.7883	5022
734.2147	4955
736.6423	5049
739.0714	4957
741.4958	4945
743.9216	5086
746.3447	5024
748.7691	5050
751.1929	5102
753.616	5110
756.0366	5158
758.4584	5058
760.8776	5148
763.2982	5096
765.718	5225
768.1373	5108
770.5539	5151
772.9698	5070
775.3871	5212
777.8038	5252
780.2178	5265
782.6332	5233
785.0459	5123
787.458	5139
789.8714	5177
792.2842	5200
794.6943	5205
797.1038	5077
799.5127	5057
801.9209	5155
804.3324	5263
806.7393	5191
809.1456	5187
811.5513	5193
813.9562	5255
816.3625	5191
818.7663	5297
821.1693	5222
823.5718	5204
825.9735	5305
828.3746	5196
830.7771	5279
833.177	5339
835.5762	5165
837.9747	5305
840.3727	5155
842.772	5320
845.1666	5352
847.5626	5414
849.958	5354
852.3527	5518
854.7488	5346
857.1403	5347
859.5331	5412
861.9253	5307
864.3168	5338
866.7057	5373
869.098	5426
871.4876	5396
873.8746	5367
876.263	5356
878.6487	5335
881.0378	5375
883.4243	5337
885.8081	5409
888.1933	5429
890.5759	5386
892.9598	5301
895.343	5335
897.7256	5377
900.1057	5341
902.4871	5394
904.8659	5384
907.246	5415
909.6254	5399
912.0023	5507
914.3786	5562
916.7562	5579
919.1331	5579
921.5074	5667
923.8831	5608
926.2562	5631
928.6287	5626
931.0005	5551
933.3757	5685
935.7462	5658
938.1162	5709
940.4855	5795
942.8542	5824
945.2242	5945
947.5916	6016
949.9584	6147
952.3266	6189
954.6921	6621
957.0571	6774
959.4233	7045
961.787	7291
964.15	7161
966.5125	6874
968.8742	6664
971.2354	6336
973.5959	6094
975.9559	5946
978.3151	5832
980.6738	5741
983.0338	5579
985.3912	5658
987.7461	5652
990.1022	5502
992.4578	5581
994.8127	5605
997.1689	5543
999.5207	5585
1001.874	5533
1004.226	5600
1006.576	5604
1008.929	5563
1011.28	5525
1013.628	5728
1015.977	5683
1018.324	5637
1020.674	5653
1023.019	5648
1025.366	5662
1027.713	5740
1030.056	5614
1032.399	5660
1034.746	5649
1037.087	5769
1039.431	5633
1041.771	5688
1044.113	5614
1046.454	5742
1048.793	5562
1051.133	5756
1053.471	5728
1055.807	5677
1058.146	5721
1060.483	5790
1062.818	5736
1065.153	5868
1067.489	5758
1069.822	5800
1072.156	5845
1074.488	5877
1076.82	5868
1079.15	5850
1081.48	5742
1083.814	5848
1086.143	5806
1088.471	5822
1090.799	5754
1093.126	5696
1095.452	5672
1097.78	5698
1100.105	5729
1102.43	5803
1104.754	5772
1107.077	5666
1109.4	5663
1111.722	5684
1114.044	5670
1116.365	5720
1118.685	5685
1121.005	5740
1123.324	5772
1125.643	5783
1127.961	5695
1130.278	5639
1132.595	5647
1134.911	5735
1137.226	5663
1139.541	5682
1141.854	5700
1144.167	5603
1146.482	5688
1148.793	5659
1151.105	5651
1153.414	5710
1155.725	5735
1158.033	5756
1160.344	5719
1162.651	5722
1164.959	5715
1167.265	5677
1169.572	5765
1171.878	5619
1174.184	5677
1176.488	5689
1178.79	5588
1181.094	5726
1183.396	5789
1185.699	5726
1188.001	5700
1190.301	5684
1192.6	5715
1194.9	5760
1197.2	5759
1199.497	5777
1201.794	5752
1204.09	5724
1206.387	5794
1208.684	5749
1210.978	5664
1213.272	5685
1215.565	5692
1217.858	5713
1220.15	5814
1222.443	5764
1224.734	5765
1227.024	5750
1229.313	5832
1231.602	5868
1233.892	5833
1236.18	5914
1238.467	5956
1240.754	5847
1243.04	5958
1245.325	5989
1247.612	5937
1249.896	5987
1252.178	6018
1254.461	6058
1256.743	6091
1259.027	5908
1261.308	5988
1263.587	6011
1265.867	6034
1268.146	6032
1270.425	5975
1272.703	5948
1274.981	6035
1277.256	6107
1279.532	6066
1281.808	5987
1284.083	5936
1286.358	5979
1288.63	6029
1290.904	5923
1293.175	5853
1295.449	5846
1297.719	5959
1299.99	5831
1302.259	5933
1304.529	5876
1306.798	5935
1309.065	5777
1311.333	5947
1313.599	5977
1315.866	5956
1318.131	6009
1320.396	5852
1322.66	5902
1324.925	5877
1327.187	5929
1329.448	5920
1331.711	5990
1333.974	5903
1336.234	5854
1338.493	5803
1340.752	5893
1343.01	5903
1345.269	5924
1347.526	5840
1349.784	5996
1352.04	5920
1354.295	5828
1356.552	5977
1358.806	5783
1361.059	5957
1363.312	5978
1365.564	5889
1367.818	5918
1370.069	5931
1372.318	5955
1374.568	5895
1376.817	5978
1379.066	5923
1381.316	5851
1383.564	5900
1385.809	5991
1388.056	5950
1390.301	6021
1392.549	5974
1394.793	6057
1397.036	6241
1399.279	6188
1401.522	6116
1403.763	6141
1406.007	6150
1408.248	6154
1410.487	6033
1412.727	6018
1414.965	6149
1417.205	6096
1419.442	6112
1421.68	6028
1423.915	6196
1426.152	6227
1428.388	6131
1430.623	6025
1432.857	6110
1435.091	6174
1437.323	6107
1439.556	6193
1441.789	6278
1444.019	6238
1446.25	6160
1448.48	6209
1450.708	6168
1452.938	6242
1455.167	6356
1457.394	6337
1459.62	6349
1461.846	6313
1464.073	6209
1466.299	6166
1468.523	6203
1470.746	6144
1472.969	6042
1475.191	6046
1477.415	6043
1479.636	6107
1481.858	5975
1484.078	6044
1486.298	5988
1488.518	5875
1490.736	5920
1492.954	5966
1495.169	6001
1497.386	5927
1499.602	5985
1501.819	5949
1504.034	5945
1506.248	5825
1508.462	5929
1510.675	5889
1512.888	5926
1515.1	5947
1517.311	5937
1519.522	5875
1521.732	5976
1523.942	5928
1526.151	5896
1528.36	5874
1530.566	5802
1532.773	5808
1534.98	5995
1537.187	6001
1539.392	5947
1541.596	5886
1543.801	5964
1546.005	5921
1548.208	6010
1550.411	5970
1552.612	6080
1554.814	6020
1557.013	5920
1559.212	6123
1561.414	6019
1563.612	6009
1565.811	5992
1568.007	6036
1570.203	5969
1572.403	6030
1574.598	6122
1576.792	6042
1578.988	6102
1581.181	6044
1583.376	6156
1585.568	6128
1587.761	6110
1589.952	6122
1592.143	6201
1594.333	6045
1596.524	6113
1598.715	6045
1600.903	6097
1603.091	6097
1605.278	6142
1607.466	6071
1609.652	6119
1611.838	6310
1614.023	6176
1616.207	6187
1618.391	6087
1620.576	6183
1622.759	6139
1624.941	6217
1627.123	6250
1629.304	6205
1631.484	6258
1633.664	6155
1635.844	6314
1638.022	6250
1640.201	6212
1642.38	6209
1644.556	6281
1646.732	6192
1648.908	6251
1651.084	6339
1653.257	6219
1655.433	6215
1657.607	6285
1659.779	6306
1661.951	6268
1664.122	6317
1666.295	6279
1668.467	6312
1670.635	6314
1672.805	6341
1674.973	6308
1677.142	6365
1679.31	6222
1681.478	6266
1683.644	6315
1685.81	6284
1687.975	6221
1690.142	6285
1692.305	6302
1694.468	6244
1696.632	6188
1698.794	6231
1700.957	6292
1703.119	6238
1705.279	6108
1707.439	6201
1709.598	6087
1711.758	6187
1713.917	6188
1716.075	6028
1718.231	6067
1720.388	6175
1722.543	6085
1724.702	6124
1726.856	6079
1729.01	6116
1731.164	6079
1733.317	6038
1735.471	6207
1737.623	6176
1739.774	6136
1741.925	6267
1744.075	6161
1746.225	6189
1748.376	6139
1750.524	6216
1752.672	6136
1754.82	6175
1756.965	6008
1759.113	6077
1761.259	6145
1763.405	6186
1765.549	6241
1767.694	6195
1769.836	6128
1771.981	6219
1774.123	6102
1776.264	6033
1778.405	6288
1780.546	6083
1782.687	6148
1784.827	6142
1786.966	6117
1789.103	6140
1791.242	6184
1793.381	6183
1795.517	6285
1797.653	6137
1799.788	6016
1801.923	6224
1804.057	6210
1806.193	6182
1808.326	6032
1810.457	6144
1812.59	6224
1814.721	6239
1816.855	6130
1818.984	6236
1821.113	6071
1823.244	6124
1825.372	6253
1827.499	6174
1829.63	6189
1831.756	6126
1833.882	6189
1836.007	6157
1838.132	6184
1840.26	6068
1842.384	6056
1844.507	6128
1846.63	6113
1848.752	6041
1850.875	6085
1852.996	6078
1855.118	6110
1857.238	6120
1859.358	6053
1861.477	6082
1863.597	6285
1865.715	6082
1867.832	6185
1869.948	6154
1872.064	6183
1874.181	6070
1876.297	6191
1878.411	6054
1880.526	6130
1882.639	6053
1884.752	6158
1886.865	6232
1888.977	5990
1891.089	6172
1893.2	6172
1895.308	5991
1897.42	6146
1899.53	6127
1901.639	6251
1903.745	6041
1905.853	6206
1907.962	6089
1910.067	6088
1912.174	6181
1914.278	6107
1916.383	6228
1918.486	6133
1920.592	6216
1922.694	6224
1924.797	6257
1926.898	6180
1929	6253
1931.102	6204
1933.203	6183
1935.301	6187
1937.401	6235
1939.499	6227
1941.598	6289
1943.697	6237
1945.793	6077
1947.888	6176
1949.985	6245
1952.08	6217
1954.176	6191
1956.269	6239
1958.364	6224
1960.457	6288
1962.549	6070
1964.642	6069
1966.733	6197
1968.823	6197
1970.913	6237
1973.005	6180
1975.093	6177
1977.184	6145
1979.271	6198
1981.359	6284
1983.446	6116
1985.532	6067
1987.619	6140
1989.705	6128
1991.789	6102
1993.874	6015
1995.956	6101
1998.041	6210
2000.123	6216
2002.206	6191
2004.287	6037
2006.368	6147
2008.449	6125
2010.529	6162
2012.609	6134
2014.688	6092
2016.766	6127
2018.843	6145
2020.922	6159
2022.999	6190
2025.074	6117
2027.15	6182
2029.225	6128
2031.299	6040
2033.375	6224
2035.447	6146
2037.52	6114
2039.592	6079
2041.664	6095
2043.736	6138
2045.807	6074
2047.876	6168
2049.947	6152
2052.015	6089
2054.086	6076
2056.153	6184
2058.221	6130
2060.288	6153
2062.353	6166
2064.42	6174
2066.486	5970
2068.55	6210
2070.614	6046
2072.678	6194
2074.741	6075
2076.805	6256
2078.866	6050
2080.929	6115
2082.99	6028
2085.049	6138
2087.109	6117
2089.17	6173
2091.228	6215
2093.286	6177
2095.344	6161
2097.4	6089
2099.46	6142
2101.516	6111
2103.572	6115
2105.626	6108
2107.679	6081
2109.735	6175
2111.788	6187
2113.841	6077
2115.894	6157
2117.945	6059
2119.997	6171
2122.049	6154
2124.1	6151
2126.148	6084
2128.197	6168
2130.246	6206
2132.296	6095
2134.342	6165
2136.39	6111
2138.437	6107
2140.483	6208
2142.527	6136
2144.574	6138
2146.619	6139
2148.661	6137
2150.705	6083
2152.747	6162
2154.792	6129
2156.832	6177
2158.874	5912
2160.915	6074
2162.954	6081
2164.995	6065
2167.034	6018
2169.072	5916
2171.111	6144
2173.148	6194
2175.186	6079
2177.223	6036
2179.258	6154
2181.294	6068
2183.328	6103
2185.362	6110
2187.398	5912
2189.431	6045
2191.463	5990
2193.495	6070
2195.528	6124
2197.56	6135
2199.59	6110
2201.62	5999
2203.649	6005
2205.678	6050
2207.708	5979
2209.737	6048
2211.764	6037
2213.791	6074
2215.817	6071
2217.843	5980
2219.87	5919
2221.895	5930
2223.919	5988
2225.942	6064
2227.966	5903
2229.988	5996
2232.012	5953
2234.032	5977
2236.054	6070
2238.074	5935
2240.095	5901
2242.116	5965
2244.135	6048
2246.153	6019
2248.171	6034
2250.188	6015
2252.208	5985
2254.223	5915
2256.239	5942
2258.255	5974
2260.269	5990
2262.283	5927
2264.3	5933
2266.312	5908
2268.325	6072
2270.336	5922
2272.349	5886
2274.362	5849
2276.372	5906
2278.383	5880
2280.392	6042
2282.402	6008
2284.409	5928
2286.418	5875
2288.427	6023
2290.433	5904
2292.441	5954
2294.446	5930
2296.453	5917
2298.459	6178
2300.463	5988
2302.466	5958
2304.471	5899
2306.475	5946
2308.477	5976
2310.478	5802
2312.481	5968
2314.481	5891
2316.481	5907
2318.482	5894
2320.482	5920
2322.48	5860
2324.48	5960
2326.478	5925
2328.476	5832
2330.473	5866
2332.469	5927
2334.465	5842
2336.46	5865
2338.454	5919
2340.45	5908
2342.444	5902
2344.437	5866
2346.43	5935
2348.421	5820
2350.414	5902
2352.405	5830
2354.396	5780
2356.386	5844
2358.376	5773
2360.366	5772
2362.355	5826
2364.343	5915
2366.331	5716
2368.317	5892
2370.304	5854
2372.292	5736
2374.278	5703
2376.262	5809
2378.247	5836
2380.23	5721
2382.216	5757
2384.199	5718
2386.181	5856
2388.163	5762
2390.144	5697
2392.127	5852
2394.107	5818
2396.087	5656
2398.066	5764
2400.046	5729
2402.023	5771
2404.004	5666
2405.981	5679
2407.957	5757
2409.934	5697
2411.91	5731
2413.886	5785
2415.862	5818
2417.836	5750
2419.809	5775
2421.784	5607
2423.756	5674
2425.73	5789
2427.701	5735
2429.672	5762
2431.644	5734
2433.615	5792
2435.586	5751
2437.555	5785
2439.523	5670
2441.491	5651
2443.459	5797
2445.428	5864
2447.395	5630
2449.361	5675
2451.327	5686
2453.292	5691
2455.257	5710
2457.223	5723
2459.187	5666
2461.15	5676
2463.113	5691
2465.076	5731
2467.039	5631
2468.999	5692
2470.96	5648
2472.921	5697
2474.881	5619
2476.841	5723
2478.8	5729
2480.759	5720
2482.717	5739
2484.675	5690
2486.63	5658
2488.589	5714
2490.545	5664
2492.5	5611
2494.455	5646
2496.408	5632
2498.364	5713
2500.318	5632
2502.27	5599
2504.223	5676
2506.174	5679
2508.126	5713
2510.078	5748
2512.03	5698
2513.979	5685
2515.927	5606
2517.877	5670
2519.826	5615
2521.775	5638
2523.722	5551
2525.668	5678
2527.616	5678
2529.561	5561
2531.508	5581
2533.452	5585
2535.398	5637
2537.342	5580
2539.284	5602
2541.229	5627
2543.173	5585
2545.114	5626
2547.055	5651
2548.996	5566
2550.938	5633
2552.878	5681
2554.817	5611
2556.756	5590
2558.695	5556
2560.633	5682
2562.572	5713
2564.509	5556
2566.445	5582
2568.382	5583
2570.317	5545
2572.254	5668
2574.189	5651
2576.123	5696
2578.057	5672
2579.99	5540
2581.923	5492
2583.855	5625
2585.788	5678
2587.719	5598
2589.65	5594
2591.579	5629
2593.511	5565
2595.44	5605
2597.37	5631
2599.297	5575
2601.225	5606
2603.153	5717
2605.08	5696
2607.007	5702
2608.932	5558
2610.858	5628
2612.782	5647
2614.709	5710
2616.632	5672
2618.556	5552
2620.478	5657
2622.401	5714
2624.324	5640
2626.247	5600
2628.167	5553
2630.088	5717
2632.008	5628
2633.928	5692
2635.848	5545
2637.766	5752
2639.684	5672
2641.603	5611
2643.519	5701
2645.437	5581
2647.353	5720
2649.27	5664
2651.184	5615
2653.099	5528
2655.014	5620
2656.928	5564
2658.842	5616
2660.755	5587
2662.667	5554
2664.579	5630
2666.491	5584
2668.402	5573
2670.312	5641
2672.222	5629
2674.132	5577
2676.042	5534
2677.951	5615
2679.859	5613
2681.766	5496
2683.674	5518
2685.582	5509
2687.488	5626
2689.392	5624
2691.298	5546
2693.202	5549
2695.107	5553
2697.012	5514
2698.914	5576
2700.817	5518
2702.72	5443
2704.622	5562
2706.524	5448
2708.425	5528
2710.326	5422
2712.225	5525
2714.125	5555
2716.024	5607
2717.923	5487
2719.822	5405
2721.719	5516
2723.616	5518
2725.512	5525
2727.41	5413
2729.305	5521
2731.201	5581
2733.095	5464
2734.99	5503
2736.884	5434
2738.778	5501
2740.67	5462
2742.562	5500
2744.455	5488
2746.346	5523
2748.238	5549
2750.129	5509
2752.018	5583
2753.907	5487
2755.797	5518
2757.687	5531
2759.575	5450
2761.462	5438
2763.349	5519
2765.237	5420
2767.124	5405
2769.009	5491
2770.894	5375
2772.779	5540
2774.663	5445
2776.547	5516
2778.431	5540
2780.314	5457
2782.197	5392
2784.078	5384
2785.96	5405
2787.842	5483
2789.723	5432
2791.603	5370
2793.483	5391
2795.362	5283
2797.241	5384
2799.121	5419
2800.997	5299
2802.874	5452
2804.751	5364
2806.628	5326
2808.506	5474
2810.38	5307
2812.255	5342
2814.13	5377
2816.003	5433
2817.878	5352
2819.752	5382
2821.623	5490
2823.496	5377
2825.368	5446
2827.238	5257
2829.111	5431
2830.98	5437
2832.851	5511
2834.719	5492
2836.589	5453
2838.458	5351
2840.327	5311
2842.193	5484
2844.061	5504
2845.927	5361
2847.794	5417
2849.66	5472
2851.525	5514
2853.39	5501
2855.254	5503
2857.117	5467
2858.983	5486
2860.845	5567
2862.707	5672
2864.569	5705
2866.431	5756
2868.293	5578
2870.154	5604
2872.013	5717
2873.873	5854
2875.733	5788
2877.592	5824
2879.451	5830
2881.309	5944
2883.166	6019
2885.022	5893
2886.879	6038
2888.736	6082
2890.591	6006
2892.446	5969
2894.301	6091
2896.155	5964
2898.009	6016
2899.863	6009
2901.716	5954
2903.568	5889
2905.419	5964
2907.27	5886
2909.123	6079
2910.973	5982
2912.824	6219
2914.673	6056
2916.521	6050
2918.372	6222
2920.22	6226
2922.067	6428
2923.914	6348
2925.761	6440
2927.607	6338
2929.455	6460
2931.301	6615
2933.144	6515
2934.99	6553
2936.833	6700
2938.678	6743
2940.522	6708
2942.364	6802
2944.207	6858
2946.048	6847
2947.891	6880
2949.731	6892
2951.571	6851
2953.412	6945
2955.25	6727
2957.09	6842
2958.93	6764
2960.767	6662
2962.606	6569
2964.443	6567
2966.279	6502
2968.116	6296
2969.953	6395
2971.788	6297
2973.623	6187
2975.457	6211
2977.292	6201
2979.127	6186
2980.959	6086
2982.792	6033
2984.624	6107
2986.455	6090
2988.288	6144
2990.119	5944
2991.949	6017
2993.779	5853
2995.608	5885
2997.439	5741
2999.268	5676
3001.096	5798
3002.923	5768
3004.751	5706
3006.578	5543
3008.406	5620
3010.232	5443
3012.057	5527
3013.883	5481
3015.706	5438
3017.532	5417
3019.356	5251
3021.179	5292
3023.002	5319
3024.823	5207
3026.646	5326
3028.469	5215
3030.289	5237
3032.11	5291
3033.93	5141
3035.749	5247
3037.57	5193
3039.39	5196
3041.207	5191
3043.026	5189
3044.842	5199
3046.661	5173
3048.477	5223
3050.294	5150
3052.109	5096
3053.925	5161
3055.739	5133
3057.555	5183
3059.368	5098
3061.181	5169
3062.995	5187
3064.807	5045
3066.62	5180
3068.433	5105
3070.243	5057
3072.054	5130
3073.865	5073
3075.675	5039
3077.485	4993
3079.293	5099
3081.102	5063
3082.911	5041
3084.719	4995
3086.527	5024
3088.333	5048
3090.139	5060
3091.945	4945
3093.75	4993
3095.557	5000
3097.361	4988
3099.165	4869
3100.969	4967
3102.772	4903
3104.575	4972
3106.379	5042
3108.181	4953
3109.982	4905
3111.783	4923
3113.584	5050
3115.386	4987
3117.186	4928
3118.985	4885
3120.783	5033
3122.582	4958
3124.381	4883
3126.179	4991
3127.975	5038
3129.772	4870
3131.569	4873
3133.365	4898
3135.161	4897
3136.956	4933
3138.751	4806
3140.544	4900
3142.338	4844
3144.132	4999
3145.925	4875
3147.717	4839
3149.509	4912
3151.301	4818
3153.091	4950
3154.884	4864
3156.673	4924
3158.462	4855
3160.252	4878
3162.041	4731
3163.831	4844
3165.618	4890
3167.405	4889
3169.193	4878
3170.979	4875
3172.767	4836
3174.553	4703
3176.338	4861
3178.123	4871
3179.907	4786
3181.692	4849
3183.477	4796
3185.259	4887
3187.042	4782
3188.824	4961
3190.607	4846
3192.389	4715
3194.17	4843
3195.951	4783
3197.73	4819
3199.51	4762
3201.289	4786
3203.07	4831
3204.848	4834
3206.626	4902
3208.403	4647
3210.18	4806
3211.959	4728
3213.735	4776
3215.511	4765
3217.285	4682
3219.06	4734
3220.836	4824
3222.611	4653
3224.384	4840
3226.158	4813
3227.929	4753
3229.702	4654
3231.476	4760
3233.248	4762
3235.018	4752
3236.789	4778
3238.56	4847
3240.33	4747
3242.1	4695
3243.869	4666
3245.637	4735
3247.405	4699
3249.172	4783
3250.941	4778
3252.707	4726
3254.474	4788
3256.24	4726
3258.006	4727
3259.772	4783
3261.537	4802
3263.301	4795
3265.065	4716
3266.828	4752
3268.592	4794
3270.355	4715
3272.117	4787
3273.878	4702
3275.64	4778
3277.401	4815
3279.162	4697
3280.922	4791
3282.682	4710
3284.441	4795
3286.199	4765
3287.959	4743
3289.716	4740
3291.475	4777
3293.232	4793
3294.988	4875
3296.744	4779
3298.501	4829
3300.256	4751
3302.011	4835
3303.766	4788
3305.52	4742
3307.275	4825
3309.028	4879
3310.781	4737
3312.533	4811
3314.285	4763
3316.038	4682
3317.789	4781
3319.54	4661
3321.289	4799
3323.039	4730
3324.789	4737
3326.539	4830
3328.288	4723
3330.035	4727
3331.783	4691
3333.531	4643
3335.28	4687
3337.025	4831
3338.771	4776
3340.518	4725
3342.262	4708
3344.009	4775
3345.753	4700
3347.497	4731
3349.24	4738
3350.983	4683
3352.726	4689
3354.469	4703
3356.212	4697
3357.952	4605
3359.694	4544
3361.434	4650
3363.176	4646
3364.916	4657
3366.654	4677
3368.394	4532
3370.132	4691
3371.871	4742
3373.61	4612
3375.346	4666
3377.083	4539
3378.82	4549
3380.556	4559
3382.292	4602
3384.027	4626
3385.763	4558
3387.497	4515
3389.231	4555
3390.965	4539
3392.698	4566
3394.431	4606
3396.164	4589
3397.896	4569
3399.627	4568
3401.36	4569
3403.09	4562
3404.82	4566
3406.55	4599
3408.279	4566
3410.01	4564
3411.738	4500
3413.467	4477
3415.194	4585
3416.92	4501
3418.647	4545
3420.375	4588
3422.102	4542
3423.827	4546
3425.553	4484
3427.277	4491
3429.003	4463
3430.727	4473
3432.451	4507
3434.173	4492
3435.896	4428
3437.62	4462
3439.343	4389
3441.063	4445
3442.785	4475
3444.505	4447
3446.226	4510
3447.948	4379
3449.666	4341
3451.386	4338
3453.104	4412
3454.823	4416
3456.541	4420
3458.259	4372
3459.976	4331
3461.693	4419
3463.408	4331
3465.125	4383
3466.841	4387
3468.556	4329
3470.271	4318
3471.985	4342
3473.698	4349
3475.414	4337
3477.126	4276
3478.838	4396
3480.55	4371
3482.263	4278
3483.975	4368
3485.686	4286
3487.396	4280
3489.106	4293
3490.817	4294
3492.526	4176
3494.236	4256
3495.944	4241
3497.652	4276
3499.359	4203
3501.066	4249
3502.775	4249
3504.481	4191
3506.187	4165
3507.893	4268
3509.598	4179
3511.304	4204
3513.009	4207
3514.713	4225
3516.417	4188
3518.12	4205
3519.821	4216
3521.525	4123
3523.228	4216
3524.929	4147
3526.631	4041
3528.33	4147
3530.032	4184
3531.733	4095
3533.433	4107
3535.131	4117
3536.83	4129
3538.529	4147
3540.227	4064
3541.925	4086
3543.623	4152
3545.319	4125
3547.016	4094
3548.712	4032
3550.408	4116
3552.103	4173
3553.798	4092
3555.491	4036
3557.188	4106
3558.88	4086
3560.574	4067
3562.266	4063
3563.959	4017
3565.651	4016
3567.343	4001
3569.035	4019
3570.725	4026
3572.415	4091
3574.106	4007
3575.797	4007
3577.485	3978
3579.174	3993
3580.863	3998
3582.551	3914
3584.238	3995
3585.926	3950
3587.613	3951
3589.3	3982
3590.986	4030
3592.671	3987
3594.357	3961
3596.042	3977
3597.726	3950
3599.41	3895
3601.094	3876
3602.778	3877
3604.461	3925
3606.143	3833
3607.825	3875
3609.507	3932
3611.188	3858
3612.87	3896
3614.551	3861
3616.229	3921
3617.909	3821
3619.589	3778
3621.269	3839
3622.948	3821
3624.625	3794
3626.302	3832
3627.98	3797
3629.657	3764
3631.334	3891
3633.01	3851
3634.686	3770
3636.361	3775
3638.036	3731
3639.712	3771
3641.385	3907
3643.06	3736
3644.732	3799
3646.405	3792
3648.08	3722
3649.751	3738
3651.424	3708
3653.094	3720
3654.766	3723
3656.436	3729
3658.106	3827
3659.777	3718
3661.446	3735
3663.115	3743
3664.783	3649
3666.452	3720
3668.121	3695
3669.788	3644
3671.454	3670
3673.121	3724
3674.789	3669
3676.455	3617
3678.12	3753
3679.784	3631
3681.45	3697
3683.114	3685
3684.779	3666
3686.442	3712
3688.105	3582
3689.768	3585
3691.43	3695
3693.093	3638
3694.754	3600
3696.415	3665
3698.076	3613
3699.736	3652
3701.396	3677
3703.057	3704
3704.716	3587
3706.375	3649
3708.034	3656
3709.692	3642
3711.351	3504
3713.008	3617
3714.665	3562
3716.321	3653
3717.977	3596
3719.634	3613
3721.29	3611
3722.945	3657
3724.598	3575
3726.253	3562
3727.907	3589
3729.561	3577
3731.214	3531
3732.867	3516
3734.518	3531
3736.171	3594
3737.824	3543
3739.474	3572
3741.125	3517
3742.775	3537
3744.425	3514
3746.074	3544
3747.725	3470
3749.373	3566
3751.022	3543
3752.669	3464
3754.318	3469
3755.966	3504
3757.612	3482
3759.259	3500
3760.905	3595
3762.55	3590
3764.197	3525
3765.842	3456
3767.486	3524
3769.131	3431
3770.774	3471
3772.417	3487
3774.061	3545
3775.705	3504
3777.347	3460
3778.988	3452
3780.629	3564
3782.271	3471
3783.912	3494
3785.552	3547
3787.192	3451
3788.831	3518
3790.472	3435
3792.112	3418
3793.75	3368
3795.388	3430
3797.024	3419
3798.661	3430
3800.3	3372
3801.936	3355
3803.572	3425
3805.208	3418
3806.844	3465
3808.48	3411
3810.115	3495
3811.748	3381
3813.382	3394
3815.016	3360
3816.649	3413
3818.283	3425
3819.914	3419
3821.547	3352
3823.178	3363
3824.809	3411
3826.441	3364
3828.072	3422
3829.701	3360
3831.331	3414
3832.96	3377
3834.591	3376
3836.219	3380
3837.847	3373
3839.475	3345
3841.102	3324
3842.729	3367
3844.357	3399
3845.984	3340
3847.609	3404
3849.234	3328
3850.86	3352
3852.485	3305
3854.11	3351
3855.734	3335
3857.357	3356
3858.981	3239
3860.603	3325
3862.227	3323
3863.848	3262
3865.471	3324
3867.092	3314
3868.713	3220
3870.334	3299
3871.954	3307
3873.575	3337
3875.194	3255
3876.813	3265
3878.433	3260
3880.051	3269
3881.669	3314
3883.286	3245
3884.904	3291
3886.52	3259
3888.138	3239
3889.754	3287
3891.37	3277
3892.985	3193
3894.6	3315
3896.216	3217
3897.831	3195
3899.444	3236
3901.058	3245
3902.67	3191
3904.283	3279
3905.897	3226
3907.509	3193
3909.121	3264
3910.731	3166
3912.342	3320
3913.954	3268
3915.563	3179
3917.174	3193
3918.783	3246
3920.391	3238
3922.002	3210
3923.611	3152
3925.218	3240
3926.826	3224
3928.432	3170
3930.039	3142
3931.647	3279
3933.253	3171
3934.859	3141
3936.464	3209
3938.068	3175
3939.675	3163
3941.278	3122
3942.883	3145
3944.486	3205
3946.089	3224
3947.692	3200
3949.295	3101
3950.898	3181
3952.499	3193
3954.1	3240
3955.7	3103
3957.303	3184
3958.903	3214
3960.502	3170
3962.101	3069
3963.7	3058
3965.301	3083
3966.899	3158
3968.497	3154
3970.094	3129
3971.691	3117
3973.288	3133
3974.885	3128
3976.481	3159
3978.077	3112
3979.672	3133
3981.267	3137
3982.863	3120
3984.457	3090
3986.051	3041
3987.645	3050
3989.238	3130
3990.831	3111
3992.425	3079
3994.017	3067
3995.607	3085
3997.199	3073
3998.79	2983
4000.382	3043
4001.973	3025
4003.561	3080
4005.151	3072
4006.741	3056
4008.331	3006
4009.918	3069
4011.507	3029
4013.095	2981
4014.681	3038
4016.269	3012
4017.856	3056
4019.443	2989
4021.028	2997
4022.614	2939
4024.199	3004
4025.785	2910
4027.37	2978
4028.953	2957
4030.536	2965
4032.12	3017
4033.704	2980
4035.287	2987
4036.869	3045
4038.45	3002
4040.032	2932
4041.613	2942
4043.195	2954
4044.776	2968
4046.356	2911
4047.935	2978
4049.515	2964
4051.095	2921
4052.674	2917
4054.251	2975
4055.829	2913
4057.406	2905
4058.985	2891
4060.562	2930
4062.139	2929
4063.715	2919
4065.29	2918
4066.865	2928
4068.442	2831
4070.016	2891
4071.59	2881
4073.164	2948
4074.738	2905
4076.312	2867
4077.885	2926
4079.458	2887
4081.03	2906
4082.602	2916
4084.173	2922
4085.745	2904
4087.315	2886
4088.886	2909
4090.456	2894
4092.026	2881
4093.596	2827
4095.165	2903
4096.734	2863
4098.301	2867
4099.869	2897
4101.437	2789
4103.006	2835
4104.572	2804
4106.139	2863
4107.704	2899
4109.27	2816
4110.837	2852
4112.401	2869
4113.966	2819
4115.53	2893
4117.094	2844
4118.659	2861
4120.223	2846
4121.785	2846
4123.347	2813
4124.909	2739
4126.471	2792
4128.034	2830
4129.595	2762
4131.155	2784
4132.716	2808
4134.275	2779
4135.836	2781
4137.395	2722
4138.955	2812
4140.513	2725
4142.071	2826
4143.628	2754
4145.188	2723
4146.745	2736
4148.302	2799
4149.858	2829
4151.414	2803
4152.971	2768
4154.526	2691
4156.081	2692
4157.635	2741
4159.189	2769
4160.745	2641
4162.298	2793
4163.852	2752
4165.405	2750
4166.957	2738
4168.51	2710
4170.063	2673
4171.614	2717
4173.166	2686
4174.717	2673
4176.267	2722
4177.817	2657
4179.368	2683
4180.917	2683
4182.466	2712
4184.016	2700
4185.564	2725
4187.112	2670
4188.66	2637
4190.207	2663
4191.754	2670
4193.301	2643
4194.848	2687
4196.394	2650
4197.94	2693
4199.484	2665
4201.03	2659
4202.575	2628
4204.12	2646
4205.663	2666
4207.207	2688
4208.75	2565
4210.292	2599
4211.836	2642
4213.378	2591
4214.92	2659
4216.46	2650
4218.002	2649
4219.544	2611
4221.083	2626
4222.625	2646
4224.164	2605
4225.703	2620
4227.244	2602
4228.782	2511
4230.32	2636
4231.857	2630
4233.395	2616
4234.933	2556
4236.471	2595
4238.007	2589
4239.542	2565
4241.078	2581
4242.614	2621
4244.15	2546
4245.685	2536
4247.219	2600
4248.753	2506
4250.287	2586
4251.82	2619
4253.354	2594
4254.887	2607
4256.419	2561
4257.951	2583
4259.483	2615
4261.016	2516
4262.547	2551
4264.078	2610
4265.608	2548
4267.137	2584
4268.668	2520
4270.197	2550
4271.727	2554
4273.254	2530
4274.783	2575
4276.311	2553
4277.84	2577
4279.366	2528
4280.894	2631
4282.42	2465
4283.946	2518
4285.473	2555
4286.998	2521
4288.523	2497
4290.047	2539
4291.572	2478
4293.096	2471
4294.622	2445
4296.144	2551
4297.668	2444
4299.19	2507
4300.713	2468
4302.236	2471
4303.758	2489
4305.279	2498
4306.799	2514
4308.321	2554
4309.842	2541
4311.361	2460
4312.882	2434
4314.401	2473
