400.0961	2432
402.6185	2402
405.1424	2426
407.6635	2388
410.1838	2408
412.7035	2389
415.2225	2537
417.7388	2511
420.2585	2455
422.7754	2502
425.2917	2540
427.8072	2519
430.3221	2548
432.8363	2549
435.3498	2510
437.8626	2568
440.3727	2584
442.8841	2542
445.3969	2621
447.907	2560
450.4142	2616
452.9229	2557
455.4289	2563
457.9362	2564
460.4449	2524
462.9488	2556
465.454	2547
467.9566	2506
470.4604	2564
472.9637	2566
475.4662	2585
477.966	2627
480.4671	2529
482.9656	2554
485.4633	2608
487.9645	2613
490.4608	2640
492.9566	2584
495.4536	2613
497.948	2638
500.4437	2600
502.9387	2602
505.431	2647
507.9226	2680
510.4136	2655
512.9079	2646
515.3975	2608
517.8864	2653
520.3746	2690
522.8622	2651
525.3491	2621
527.8394	2659
530.3249	2682
532.8098	2622
535.2939	2674
537.7774	2667
540.2623	2674
542.7444	2689
545.2259	2638
547.7067	2682
550.1868	2753
552.6683	2673
555.147	2663
557.6231	2679
560.1005	2700
562.5773	2663
565.0534	2681
567.5308	2727
570.0056	2679
572.4776	2679
574.951	2780
577.4237	2761
579.8978	2808
582.3671	2721
584.8378	2775
587.3079	2787
589.7773	2720
592.244	2778
594.714	2755
597.1793	2739
599.6461	2790
602.1121	2825
604.5754	2697
607.0421	2754
609.5042	2731
611.9675	2702
614.4282	2784
616.8902	2682
619.3515	2826
621.8122	2715
624.2702	2755
626.7296	2755
629.1863	2759
631.6423	2724
634.1017	2749
636.5563	2748
639.0104	2788
641.4658	2722
643.9185	2759
646.3725	2757
648.8239	2769
651.2766	2746
653.7266	2762
656.176	2859
658.6247	2756
661.0748	2833
663.5242	2713
665.9709	2783
668.417	2708
670.8624	2769
673.3092	2816
675.7533	2817
678.1968	2777
680.6395	2785
683.0817	2769
685.5251	2832
687.9659	2879
690.4061	2829
692.8456	2776
695.2844	2850
697.7226	2813
700.1621	2867
702.599	2816
705.0332	2855
707.4688	2803
709.9036	2746
712.3399	2928
714.7735	2867
717.2044	2906
719.6367	2817
722.0683	2877
724.4993	2893
726.9296	2912
729.3593	2918
731.7883	2892
734.2147	2913
736.6423	2924
739.0714	2923
741.4958	2945
743.9216	2946
746.3447	3000
748.7691	2944
751.1929	3004
753.616	2943
756.0366	2914
758.4584	3034
760.8776	2901
763.2982	3025
765.718	3014
768.1373	3047
770.5539	2995
772.9698	3058
775.3871	2939
777.8038	2964
780.2178	3021
782.6332	3023
785.0459	3039
787.458	3060
789.8714	2979
792.2842	3036
794.6943	3016
797.1038	3124
799.5127	2939
801.9209	3070
804.3324	2968
806.7393	3016
809.1456	2991
811.5513	3097
813.9562	3018
816.3625	3043
818.7663	3118
821.1693	3092
823.5718	3107
825.9735	3051
828.3746	3079
830.7771	2966
833.177	3128
835.5762	3020
837.9747	3142
840.3727	3080
842.772	3067
845.1666	3047
847.5626	3120
849.958	3162
852.3527	3183
854.7488	3158
857.1403	3148
859.5331	3142
861.9253	3114
864.3168	3121
866.7057	3116
869.098	3096
871.4876	3129
873.8746	3092
876.263	3042
878.6487	3146
881.0378	3078
883.4243	3066
885.8081	3084
888.1933	3074
890.5759	3071
892.9598	3128
895.343	3099
897.7256	3133
900.1057	3091
902.4871	3104
904.8659	3080
907.246	3101
909.6254	3156
912.0023	3178
914.3786	3179
916.7562	3214
919.1331	3246
921.5074	3276
923.8831	3250
926.2562	3323
928.6287	3268
931.0005	3261
933.3757	3290
935.7462	3226
938.1162	3315
940.4855	3279
942.8542	3295
945.2242	3355
947.5916	3380
949.9584	3374
952.3266	3457
954.6921	3537
957.0571	3716
959.4233	3786
961.787	3790
964.15	3705
966.5125	3622
968.8742	3591
971.2354	3424
973.5959	3419
975.9559	3384
978.3151	3427
980.6738	3229
983.0338	3285
985.3912	3161
987.7461	3256
990.1022	3203
992.4578	3291
994.8127	3227
997.1689	3239
999.5207	3211
1001.874	3263
1004.226	3208
1006.576	3232
1008.929	3200
1011.28	3283
1013.628	3246
1015.977	3194
1018.324	3254
1020.674	3310
1023.019	3292
1025.366	3323
1027.713	3233
1030.056	3259
1032.399	3235
1034.746	3329
1037.087	3216
1039.431	3300
1041.771	3268
1044.113	3324
1046.454	3259
1048.793	3258
1051.133	3306
1053.471	3313
1055.807	3381
1058.146	3217
1060.483	3309
1062.818	3444
1065.153	3355
1067.489	3297
1069.822	3276
1072.156	3335
1074.488	3336
1076.82	3425
1079.15	3420
1081.48	3280
1083.814	3304
1086.143	3325
1088.471	3257
1090.799	3355
1093.126	3320
1095.452	3329
1097.78	3352
1100.105	3345
1102.43	3289
1104.754	3252
1107.077	3416
1109.4	3313
1111.722	3369
1114.044	3332
1116.365	3382
1118.685	3286
1121.005	3333
1123.324	3417
1125.643	3358
1127.961	3322
1130.278	3301
1132.595	3332
1134.911	3399
1137.226	3351
1139.541	3369
1141.854	3285
1144.167	3304
1146.482	3393
1148.793	3368
1151.105	3306
1153.414	3348
1155.725	3316
1158.033	3377
1160.344	3252
1162.651	3302
1164.959	3316
1167.265	3441
1169.572	3304
1171.878	3369
1174.184	3348
1176.488	3348
1178.79	3426
1181.094	3330
1183.396	3379
1185.699	3281
1188.001	3357
1190.301	3295
1192.6	3297
1194.9	3380
1197.2	3258
1199.497	3335
1201.794	3383
1204.09	3382
1206.387	3391
1208.684	3306
1210.978	3380
1213.272	3331
1215.565	3409
1217.858	3443
1220.15	3366
1222.443	3344
1224.734	3380
1227.024	3357
1229.313	3425
1231.602	3483
1233.892	3400
1236.18	3412
1238.467	3413
1240.754	3490
1243.04	3428
1245.325	3455
1247.612	3479
1249.896	3441
1252.178	3510
1254.461	3517
1256.743	3510
1259.027	3491
1261.308	3511
1263.587	3473
1265.867	3501
1268.146	3547
1270.425	3469
1272.703	3492
1274.981	3505
1277.256	3460
1279.532	3448
1281.808	3421
1284.083	3516
1286.358	3460
1288.63	3502
1290.904	3432
1293.175	3446
1295.449	3446
1297.719	3546
1299.99	3512
1302.259	3424
1304.529	3377
1306.798	3387
1309.065	3553
1311.333	3537
1313.599	3435
1315.866	3416
1318.131	3481
1320.396	3468
1322.66	3421
1324.925	3517
1327.187	3428
1329.448	3454
1331.711	3500
1333.974	3418
1336.234	3519
1338.493	3526
1340.752	3464
1343.01	3400
1345.269	3472
1347.526	3478
1349.784	3452
1352.04	3465
1354.295	3496
1356.552	3442
1358.806	3387
1361.059	3419
1363.312	3417
1365.564	3516
1367.818	3428
1370.069	3490
1372.318	3501
1374.568	3471
1376.817	3614
1379.066	3555
1381.316	3513
1383.564	3474
1385.809	3483
1388.056	3517
1390.301	3479
1392.549	3494
1394.793	3585
1397.036	3559
1399.279	3602
1401.522	3583
1403.763	3601
1406.007	3563
1408.248	3573
1410.487	3595
1412.727	3538
1414.965	3512
1417.205	3598
1419.442	3656
1421.68	3610
1423.915	3630
1426.152	3628
1428.388	3613
1430.623	3614
1432.857	3641
1435.091	3544
1437.323	3636
1439.556	3601
1441.789	3627
1444.019	3659
1446.25	3579
1448.48	3665
1450.708	3708
1452.938	3722
1455.167	3644
1457.394	3750
1459.62	3731
1461.846	3584
1464.073	3596
1466.299	3700
1468.523	3685
1470.746	3565
1472.969	3561
1475.191	3503
1477.415	3616
1479.636	3490
1481.858	3586
1484.078	3523
1486.298	3566
1488.518	3544
1490.736	3573
1492.954	3565
1495.169	3463
1497.386	3553
1499.602	3508
1501.819	3434
1504.034	3523
1506.248	3556
1508.462	3487
1510.675	3438
1512.888	3530
1515.1	3537
1517.311	3469
1519.522	3446
1521.732	3466
1523.942	3511
1526.151	3454
1528.36	3435
1530.566	3545
1532.773	3534
1534.98	3508
1537.187	3544
1539.392	3506
1541.596	3438
1543.801	3590
1546.005	3468
1548.208	3490
1550.411	3531
1552.612	3601
1554.814	3490
1557.013	3509
1559.212	3501
1561.414	3560
1563.612	3539
1565.811	3548
1568.007	3564
1570.203	3576
1572.403	3570
1574.598	3672
1576.792	3554
1578.988	3606
1581.181	3607
1583.376	3661
1585.568	3599
1587.761	3539
1589.952	3670
1592.143	3576
1594.333	3636
1596.524	3660
1598.715	3720
1600.903	3605
1603.091	3661
1605.278	3622
1607.466	3519
1609.652	3669
1611.838	3672
1614.023	3689
1616.207	3599
1618.391	3585
1620.576	3612
1622.759	3529
1624.941	3620
1627.123	3582
1629.304	3659
1631.484	3659
1633.664	3696
1635.844	3656
1638.022	3715
1640.201	3726
1642.38	3574
1644.556	3729
1646.732	3667
1648.908	3656
1651.084	3690
1653.257	3664
1655.433	3714
1657.607	3672
1659.779	3697
1661.951	3671
1664.122	3686
1666.295	3707
1668.467	3714
1670.635	3652
1672.805	3641
1674.973	3659
1677.142	3771
1679.31	3656
1681.478	3673
1683.644	3758
1685.81	3700
1687.975	3782
1690.142	3704
1692.305	3680
1694.468	3639
1696.632	3659
1698.794	3682
1700.957	3662
1703.119	3678
1705.279	3618
1707.439	3659
1709.598	3623
1711.758	3683
1713.917	3563
1716.075	3617
1718.231	3726
1720.388	3712
1722.543	3680
1724.702	3631
1726.856	3602
1729.01	3614
1731.164	3598
1733.317	3544
1735.471	3668
1737.623	3544
1739.774	3674
1741.925	3608
1744.075	3603
1746.225	3627
1748.376	3626
1750.524	3597
1752.672	3669
1754.82	3659
1756.965	3555
1759.113	3639
1761.259	3636
1763.405	3631
1765.549	3641
1767.694	3621
1769.836	3630
1771.981	3618
1774.123	3686
1776.264	3629
1778.405	3681
1780.546	3716
1782.687	3627
1784.827	3706
1786.966	3732
1789.103	3670
1791.242	3746
1793.381	3634
1795.517	3686
1797.653	3672
1799.788	3664
1801.923	3643
1804.057	3662
1806.193	3625
1808.326	3784
1810.457	3569
1812.59	3712
1814.721	3717
1816.855	3724
1818.984	3635
1821.113	3700
1823.244	3616
1825.372	3705
1827.499	3597
1829.63	3703
1831.756	3687
1833.882	3650
1836.007	3689
1838.132	3631
1840.26	3620
1842.384	3678
1844.507	3673
1846.63	3574
1848.752	3653
1850.875	3631
1852.996	3633
1855.118	3624
1857.238	3646
1859.358	3584
1861.477	3672
1863.597	3630
1865.715	3637
1867.832	3715
1869.948	3604
1872.064	3671
1874.181	3727
1876.297	3651
1878.411	3647
1880.526	3740
1882.639	3624
1884.752	3647
1886.865	3639
1888.977	3656
1891.089	3722
1893.2	3611
1895.308	3644
1897.42	3679
1899.53	3690
1901.639	3638
1903.745	3548
1905.853	3738
1907.962	3620
1910.067	3681
1912.174	3659
1914.278	3747
1916.383	3666
1918.486	3684
1920.592	3759
1922.694	3702
1924.797	3699
1926.898	3698
1929	3643
1931.102	3649
1933.203	3747
1935.301	3696
1937.401	3711
1939.499	3598
1941.598	3778
1943.697	3685
1945.793	3742
1947.888	3725
1949.985	3681
1952.08	3831
1954.176	3726
1956.269	3734
1958.364	3658
1960.457	3726
1962.549	3662
1964.642	3701
1966.733	3647
1968.823	3724
1970.913	3664
1973.005	3739
1975.093	3679
1977.184	3676
1979.271	3611
1981.359	3662
1983.446	3671
1985.532	3692
1987.619	3686
1989.705	3664
1991.789	3684
1993.874	3663
1995.956	3670
1998.041	3683
2000.123	3753
2002.206	3668
2004.287	3678
2006.368	3698
2008.449	3612
2010.529	3600
2012.609	3653
2014.688	3643
2016.766	3703
2018.843	3657
2020.922	3658
2022.999	3717
2025.074	3690
2027.15	3685
2029.225	3588
2031.299	3632
2033.375	3667
2035.447	3638
2037.52	3674
2039.592	3647
2041.664	3620
2043.736	3728
2045.807	3705
2047.876	3730
2049.947	3587
2052.015	3656
2054.086	3648
2056.153	3677
2058.221	3743
2060.288	3684
2062.353	3732
2064.42	3661
2066.486	3693
2068.55	3633
2070.614	3745
2072.678	3752
2074.741	3673
2076.805	3763
2078.866	3701
2080.929	3626
2082.99	3713
2085.049	3707
2087.109	3713
2089.17	3695
2091.228	3657
2093.286	3656
2095.344	3701
2097.4	3694
2099.46	3768
2101.516	3637
2103.572	3794
2105.626	3696
2107.679	3708
2109.735	3715
2111.788	3719
2113.841	3684
2115.894	3753
2117.945	3720
2119.997	3670
2122.049	3655
2124.1	3772
2126.148	3692
2128.197	3691
2130.246	3646
2132.296	3772
2134.342	3649
2136.39	3668
2138.437	3672
2140.483	3653
2142.527	3651
2144.574	3697
2146.619	3659
2148.661	3648
2150.705	3645
2152.747	3684
2154.792	3601
2156.832	3652
2158.874	3721
2160.915	3575
2162.954	3687
2164.995	3692
2167.034	3576
2169.072	3617
2171.111	3708
2173.148	3729
2175.186	3651
2177.223	3631
2179.258	3641
2181.294	3639
2183.328	3685
2185.362	3651
2187.398	3620
2189.431	3631
2191.463	3634
2193.495	3622
2195.528	3635
2197.56	3655
2199.59	3525
2201.62	3680
2203.649	3558
2205.678	3520
2207.708	3715
2209.737	3640
2211.764	3649
2213.791	3584
2215.817	3536
2217.843	3647
2219.87	3586
2221.895	3643
2223.919	3605
2225.942	3617
2227.966	3601
2229.988	3621
2232.012	3611
2234.032	3582
2236.054	3571
2238.074	3577
2240.095	3603
2242.116	3580
2244.135	3634
2246.153	3675
2248.171	3643
2250.188	3568
2252.208	3622
2254.223	3616
2256.239	3543
2258.255	3524
2260.269	3638
2262.283	3531
2264.3	3624
2266.312	3525
2268.325	3508
2270.336	3566
2272.349	3571
2274.362	3641
2276.372	3554
2278.383	3587
2280.392	3615
2282.402	3733
2284.409	3607
2286.418	3656
2288.427	3601
2290.433	3647
2292.441	3668
2294.446	3585
2296.453	3667
2298.459	3594
2300.463	3599
2302.466	3625
2304.471	3537
2306.475	3636
2308.477	3576
2310.478	3521
2312.481	3604
2314.481	3565
2316.481	3603
2318.482	3465
2320.482	3523
2322.48	3532
2324.48	3595
2326.478	3580
2328.476	3686
2330.473	3579
2332.469	3630
2334.465	3569
2336.46	3573
2338.454	3612
2340.45	3546
2342.444	3586
2344.437	3572
2346.43	3551
2348.421	3586
2350.414	3497
2352.405	3624
2354.396	3499
2356.386	3513
2358.376	3524
2360.366	3571
2362.355	3547
2364.343	3621
2366.331	3573
2368.317	3585
2370.304	3588
2372.292	3524
2374.278	3517
2376.262	3550
2378.247	3526
2380.23	3482
2382.216	3496
2384.199	3533
2386.181	3451
2388.163	3566
2390.144	3513
2392.127	3502
2394.107	3605
2396.087	3617
2398.066	3469
2400.046	3557
2402.023	3515
2404.004	3545
2405.981	3486
2407.957	3443
2409.934	3511
2411.91	3515
2413.886	3532
2415.862	3524
2417.836	3468
2419.809	3500
2421.784	3535
2423.756	3451
2425.73	3485
2427.701	3450
2429.672	3467
2431.644	3538
2433.615	3572
2435.586	3467
2437.555	3448
2439.523	3573
2441.491	3575
2443.459	3592
2445.428	3461
2447.395	3538
2449.361	3609
2451.327	3446
2453.292	3469
2455.257	3408
2457.223	3524
2459.187	3422
2461.15	3476
2463.113	3516
2465.076	3483
2467.039	3431
2468.999	3578
2470.96	3476
2472.921	3449
2474.881	3433
2476.841	3471
2478.8	3487
2480.759	3467
2482.717	3469
2484.675	3466
2486.63	3409
2488.589	3417
2490.545	3569
2492.5	3464
2494.455	3473
2496.408	3419
2498.364	3498
2500.318	3487
2502.27	3455
2504.223	3485
2506.174	3469
2508.126	3445
2510.078	3443
2512.03	3444
2513.979	3384
2515.927	3438
2517.877	3404
2519.826	3416
2521.775	3430
2523.722	3460
2525.668	3462
2527.616	3347
2529.561	3445
2531.508	3468
2533.452	3413
2535.398	3502
2537.342	3413
2539.284	3330
2541.229	3426
2543.173	3366
2545.114	3396
2547.055	3473
2548.996	3456
2550.938	3481
2552.878	3478
2554.817	3465
2556.756	3431
2558.695	3469
2560.633	3508
2562.572	3474
2564.509	3401
2566.445	3440
2568.382	3486
2570.317	3445
2572.254	3393
2574.189	3433
2576.123	3431
2578.057	3409
2579.99	3466
2581.923	3405
2583.855	3505
2585.788	3439
2587.719	3447
2589.65	3421
2591.579	3414
2593.511	3439
2595.44	3406
2597.37	3450
2599.297	3419
2601.225	3379
2603.153	3514
2605.08	3444
2607.007	3456
2608.932	3441
2610.858	3459
2612.782	3409
2614.709	3481
2616.632	3474
2618.556	3457
2620.478	3378
2622.401	3504
2624.324	3472
2626.247	3432
2628.167	3439
2630.088	3497
2632.008	3401
2633.928	3393
2635.848	3480
2637.766	3479
2639.684	3461
2641.603	3566
2643.519	3510
2645.437	3447
2647.353	3478
2649.27	3401
2651.184	3499
2653.099	3441
2655.014	3467
2656.928	3397
2658.842	3469
2660.755	3457
2662.667	3499
2664.579	3450
2666.491	3407
2668.402	3436
2670.312	3438
2672.222	3417
2674.132	3489
2676.042	3460
2677.951	3492
2679.859	3452
2681.766	3386
2683.674	3429
2685.582	3366
2687.488	3391
2689.392	3439
2691.298	3443
2693.202	3406
2695.107	3382
2697.012	3353
2698.914	3437
2700.817	3468
2702.72	3437
2704.622	3446
2706.524	3383
2708.425	3378
2710.326	3360
2712.225	3417
2714.125	3296
2716.024	3426
2717.923	3324
2719.822	3369
2721.719	3403
2723.616	3450
2725.512	3312
2727.41	3367
2729.305	3352
2731.201	3314
2733.095	3386
2734.99	3345
2736.884	3361
2738.778	3404
2740.67	3359
2742.562	3360
2744.455	3423
2746.346	3362
2748.238	3398
2750.129	3339
2752.018	3352
2753.907	3414
2755.797	3346
2757.687	3326
2759.575	3407
2761.462	3305
2763.349	3327
2765.237	3415
2767.124	3341
2769.009	3401
2770.894	3445
2772.779	3376
2774.663	3427
2776.547	3415
2778.431	3352
2780.314	3352
2782.197	3405
2784.078	3393
2785.96	3335
2787.842	3337
2789.723	3402
2791.603	3364
2793.483	3376
2795.362	3388
2797.241	3346
2799.121	3442
2800.997	3291
2802.874	3335
2804.751	3277
2806.628	3333
2808.506	3427
2810.38	3322
2812.255	3272
2814.13	3318
2816.003	3401
2817.878	3296
2819.752	3459
2821.623	3387
2823.496	3364
2825.368	3368
2827.238	3382
2829.111	3423
2830.98	3300
2832.851	3304
2834.719	3423
2836.589	3329
2838.458	3376
2840.327	3367
2842.193	3349
2844.061	3386
2845.927	3353
2847.794	3372
2849.66	3382
2851.525	3331
2853.39	3315
2855.254	3392
2857.117	3397
2858.983	3401
2860.845	3372
2862.707	3470
2864.569	3444
2866.431	3387
2868.293	3398
2870.154	3405
2872.013	3393
2873.873	3497
2875.733	3458
2877.592	3568
2879.451	3561
2881.309	3504
2883.166	3545
2885.022	3589
2886.879	3582
2888.736	3514
2890.591	3623
2892.446	3594
2894.301	3616
2896.155	3572
2898.009	3600
2899.863	3620
2901.716	3598
2903.568	3641
2905.419	3546
2907.27	3551
2909.123	3588
2910.973	3619
2912.824	3640
2914.673	3677
2916.521	3574
2918.372	3585
2920.22	3650
2922.067	3620
2923.914	3698
2925.761	3720
2927.607	3788
2929.455	3683
2931.301	3667
2933.144	3807
2934.99	3787
2936.833	3864
2938.678	3811
2940.522	3863
2942.364	3858
2944.207	3959
2946.048	3947
2947.891	3917
2949.731	3942
2951.571	3983
2953.412	3882
2955.25	3874
2957.09	3953
2958.93	3800
2960.767	3847
2962.606	3821
2964.443	3816
2966.279	3839
2968.116	3742
2969.953	3714
2971.788	3750
2973.623	3692
2975.457	3636
2977.292	3690
2979.127	3625
2980.959	3676
2982.792	3563
2984.624	3569
2986.455	3583
2988.288	3561
2990.119	3600
2991.949	3467
2993.779	3472
2995.608	3446
2997.439	3477
2999.268	3470
3001.096	3385
3002.923	3488
3004.751	3371
3006.578	3328
3008.406	3377
3010.232	3319
3012.057	3317
3013.883	3314
3015.706	3301
3017.532	3269
3019.356	3265
3021.179	3322
3023.002	3261
3024.823	3218
3026.646	3191
3028.469	3248
3030.289	3248
3032.11	3169
3033.93	3202
3035.749	3178
3037.57	3164
3039.39	3154
3041.207	3155
3043.026	3160
3044.842	3158
3046.661	3178
3048.477	3191
3050.294	3117
3052.109	3245
3053.925	3201
3055.739	3187
3057.555	3171
3059.368	3211
3061.181	3144
3062.995	3191
3064.807	3050
3066.62	3177
3068.433	3193
3070.243	3159
3072.054	3157
3073.865	3210
3075.675	3223
3077.485	3124
3079.293	3068
3081.102	3145
3082.911	3142
3084.719	3155
3086.527	3076
3088.333	3158
3090.139	3227
3091.945	3116
3093.75	3127
3095.557	3141
3097.361	3071
3099.165	3118
3100.969	3125
3102.772	3013
3104.575	3125
3106.379	3057
3108.181	3187
3109.982	3049
3111.783	3090
3113.584	3107
3115.386	3007
3117.186	3018
3118.985	3049
3120.783	3054
3122.582	3081
3124.381	3047
3126.179	3103
3127.975	3121
3129.772	3071
3131.569	3079
3133.365	3051
3135.161	3015
3136.956	2993
3138.751	3028
3140.544	3029
3142.338	2990
3144.132	3092
3145.925	3086
3147.717	3003
3149.509	2960
3151.301	3021
3153.091	3000
3154.884	3032
3156.673	3034
3158.462	2996
3160.252	3031
3162.041	3016
3163.831	3049
3165.618	2968
3167.405	3028
3169.193	2979
3170.979	3009
3172.767	3010
3174.553	3026
3176.338	3067
3178.123	2870
3179.907	2979
3181.692	3015
3183.477	3003
3185.259	3018
3187.042	2949
3188.824	3060
3190.607	2990
3192.389	2997
3194.17	2972
3195.951	2985
3197.73	2980
3199.51	3007
3201.289	2945
3203.07	2985
3204.848	3005
3206.626	2945
3208.403	2985
3210.18	2905
3211.959	3008
3213.735	2974
3215.511	2932
3217.285	3020
3219.06	2942
3220.836	3005
3222.611	2952
3224.384	2875
3226.158	2915
3227.929	2940
3229.702	2900
3231.476	2956
3233.248	3003
3235.018	2992
3236.789	2971
3238.56	2955
3240.33	2955
3242.1	2969
3243.869	2951
3245.637	2980
3247.405	2918
3249.172	2969
3250.941	2912
3252.707	2907
3254.474	2888
3256.24	2892
3258.006	2896
3259.772	2946
3261.537	2946
3263.301	2907
3265.065	2917
3266.828	3014
3268.592	2915
3270.355	2966
3272.117	2945
3273.878	2931
3275.64	2913
3277.401	2959
3279.162	2921
3280.922	2948
3282.682	2973
3284.441	2977
3286.199	2919
3287.959	2918
3289.716	2954
3291.475	2932
3293.232	2960
3294.988	2970
3296.744	2878
3298.501	2886
3300.256	3012
3302.011	2968
3303.766	2899
3305.52	2847
3307.275	2908
3309.028	2873
3310.781	2973
3312.533	2956
3314.285	2989
3316.038	2954
3317.789	2899
3319.54	2891
3321.289	2971
3323.039	2875
3324.789	3020
3326.539	2912
3328.288	2864
3330.035	2879
3331.783	2995
3333.531	2934
3335.28	2921
3337.025	2845
3338.771	2935
3340.518	2885
3342.262	2875
3344.009	2887
3345.753	2946
3347.497	2874
3349.24	2873
3350.983	2876
3352.726	2867
3354.469	2865
3356.212	2859
3357.952	2930
3359.694	2800
3361.434	2909
3363.176	2890
3364.916	2793
3366.654	2897
3368.394	2847
3370.132	2875
3371.871	2868
3373.61	2782
3375.346	2822
3377.083	2858
3378.82	2762
3380.556	2858
3382.292	2861
3384.027	2796
3385.763	2836
3387.497	2834
3389.231	2768
3390.965	2836
3392.698	2878
3394.431	2816
3396.164	2819
3397.896	2858
3399.627	2798
3401.36	2756
3403.09	2829
3404.82	2859
3406.55	2797
3408.279	2789
3410.01	2777
3411.738	2730
3413.467	2742
3415.194	2817
3416.92	2751
3418.647	2802
3420.375	2807
3422.102	2796
3423.827	2767
3425.553	2745
3427.277	2744
3429.003	2725
3430.727	2822
3432.451	2824
3434.173	2754
3435.896	2790
3437.62	2748
3439.343	2790
3441.063	2737
3442.785	2692
3444.505	2732
3446.226	2688
3447.948	2744
3449.666	2799
3451.386	2779
3453.104	2762
3454.823	2797
3456.541	2705
3458.259	2721
3459.976	2696
3461.693	2703
3463.408	2760
3465.125	2761
3466.841	2773
3468.556	2695
3470.271	2721
3471.985	2660
3473.698	2721
3475.414	2724
3477.126	2670
3478.838	2703
3480.55	2717
3482.263	2679
3483.975	2740
3485.686	2684
3487.396	2683
3489.106	2676
3490.817	2733
3492.526	2652
3494.236	2652
3495.944	2687
3497.652	2715
3499.359	2716
3501.066	2691
3502.775	2681
3504.481	2648
3506.187	2654
3507.893	2645
3509.598	2585
3511.304	2619
3513.009	2692
3514.713	2660
3516.417	2666
3518.12	2641
3519.821	2649
3521.525	2623
3523.228	2632
3524.929	2634
3526.631	2555
3528.33	2685
3530.032	2653
3531.733	2559
3533.433	2656
3535.131	2557
3536.83	2606
3538.529	2580
3540.227	2588
3541.925	2579
3543.623	2602
3545.319	2589
3547.016	2615
3548.712	2566
3550.408	2531
3552.103	2523
3553.798	2618
3555.491	2579
3557.188	2589
3558.88	2572
3560.574	2558
3562.266	2593
3563.959	2626
3565.651	2578
3567.343	2555
3569.035	2605
3570.725	2572
3572.415	2534
3574.106	2530
3575.797	2573
3577.485	2607
3579.174	2543
3580.863	2641
3582.551	2593
3584.238	2566
3585.926	2517
3587.613	2544
3589.3	2460
3590.986	2501
3592.671	2478
3594.357	2527
3596.042	2471
3597.726	2510
3599.41	2437
3601.094	2499
3602.778	2478
3604.461	2487
3606.143	2480
3607.825	2590
3609.507	2579
3611.188	2434
3612.87	2524
3614.551	2459
3616.229	2427
3617.909	2482
3619.589	2541
3621.269	2489
3622.948	2508
3624.625	2429
3626.302	2466
3627.98	2429
3629.657	2439
3631.334	2522
3633.01	2417
3634.686	2497
3636.361	2460
3638.036	2426
3639.712	2475
3641.385	2487
3643.06	2444
3644.732	2376
3646.405	2401
3648.08	2374
3649.751	2389
3651.424	2384
3653.094	2356
3654.766	2406
3656.436	2418
3658.106	2438
3659.777	2428
3661.446	2407
3663.115	2386
3664.783	2433
3666.452	2341
3668.121	2398
3669.788	2388
3671.454	2417
3673.121	2384
3674.789	2379
3676.455	2342
3678.12	2364
3679.784	2336
3681.45	2426
3683.114	2419
3684.779	2422
3686.442	2361
3688.105	2360
3689.768	2402
3691.43	2350
3693.093	2339
3694.754	2401
3696.415	2362
3698.076	2372
3699.736	2353
3701.396	2378
3703.057	2348
3704.716	2375
3706.375	2358
3708.034	2346
3709.692	2365
3711.351	2322
3713.008	2376
3714.665	2406
3716.321	2327
3717.977	2397
3719.634	2331
3721.29	2316
3722.945	2333
3724.598	2282
3726.253	2398
3727.907	2325
3729.561	2378
3731.214	2341
3732.867	2290
3734.518	2343
3736.171	2342
3737.824	2287
3739.474	2296
3741.125	2310
3742.775	2278
3744.425	2367
3746.074	2276
3747.725	2365
3749.373	2317
3751.022	2343
3752.669	2332
3754.318	2342
3755.966	2316
3757.612	2336
3759.259	2288
3760.905	2311
3762.55	2319
3764.197	2286
3765.842	2320
3767.486	2257
3769.131	2263
3770.774	2288
3772.417	2272
3774.061	2305
3775.705	2306
3777.347	2312
3778.988	2334
3780.629	2305
3782.271	2348
3783.912	2262
3785.552	2272
3787.192	2235
3788.831	2296
3790.472	2255
3792.112	2266
3793.75	2252
3795.388	2228
3797.024	2221
3798.661	2246
3800.3	2226
3801.936	2213
3803.572	2271
3805.208	2212
3806.844	2257
3808.48	2285
3810.115	2268
3811.748	2206
3813.382	2247
3815.016	2243
3816.649	2283
3818.283	2192
3819.914	2241
3821.547	2179
3823.178	2253
3824.809	2189
3826.441	2179
3828.072	2254
3829.701	2205
3831.331	2257
3832.96	2253
3834.591	2157
3836.219	2237
3837.847	2197
3839.475	2217
3841.102	2211
3842.729	2198
3844.357	2214
3845.984	2238
3847.609	2235
3849.234	2197
3850.86	2180
3852.485	2197
3854.11	2236
3855.734	2209
3857.357	2219
3858.981	2166
3860.603	2268
3862.227	2214
3863.848	2187
3865.471	2190
3867.092	2258
3868.713	2204
3870.334	2179
3871.954	2213
3873.575	2209
3875.194	2143
3876.813	2170
3878.433	2133
3880.051	2168
3881.669	2135
3883.286	2179
3884.904	2124
3886.52	2219
3888.138	2056
3889.754	2199
3891.37	2146
3892.985	2137
3894.6	2185
3896.216	2113
3897.831	2178
3899.444	2173
3901.058	2154
3902.67	2203
3904.283	2096
3905.897	2167
3907.509	2126
3909.121	2148
3910.731	2197
3912.342	2186
3913.954	2108
3915.563	2182
3917.174	2112
3918.783	2092
3920.391	2172
3922.002	2118
3923.611	2108
3925.218	2129
3926.826	2154
3928.432	2127
3930.039	2133
3931.647	2145
3933.253	2092
3934.859	2172
3936.464	2116
3938.068	2128
3939.675	2090
3941.278	2069
3942.883	2105
3944.486	2126
3946.089	2174
3947.692	2115
3949.295	2173
3950.898	2176
3952.499	2129
3954.1	2109
3955.7	2110
3957.303	2102
3958.903	2119
3960.502	2093
3962.101	2022
3963.7	2153
3965.301	2140
3966.899	2057
3968.497	2065
3970.094	2073
3971.691	2101
3973.288	2030
3974.885	2096
3976.481	2030
3978.077	2029
3979.672	2159
3981.267	2031
3982.863	2116
3984.457	2079
3986.051	2100
3987.645	2094
3989.238	2043
3990.831	2104
3992.425	2041
3994.017	2083
3995.607	2040
3997.199	2028
3998.79	2031
4000.382	2032
4001.973	2061
4003.561	2068
4005.151	2040
4006.741	2024
4008.331	2033
4009.918	2021
4011.507	2034
4013.095	1992
4014.681	2077
4016.269	2037
4017.856	2018
4019.443	1992
4021.028	2037
4022.614	2016
4024.199	2022
4025.785	1948
4027.37	1958
4028.953	1991
4030.536	1995
4032.12	2001
4033.704	2019
4035.287	2023
4036.869	1990
4038.45	2016
4040.032	1934
4041.613	2022
4043.195	2008
4044.776	2037
4046.356	1925
4047.935	2011
4049.515	2029
4051.095	1973
4052.674	1973
4054.251	1993
4055.829	1960
4057.406	1972
4058.985	2000
4060.562	2005
4062.139	1994
4063.715	1960
4065.29	2022
4066.865	1959
4068.442	1982
4070.016	1954
4071.59	1950
4073.164	1904
4074.738	1954
4076.312	1926
4077.885	1980
4079.458	1981
4081.03	1953
4082.602	1957
4084.173	1997
4085.745	1933
4087.315	1979
4088.886	1924
4090.456	1934
4092.026	1946
4093.596	1947
4095.165	1913
4096.734	1955
4098.301	1938
4099.869	1963
4101.437	1878
4103.006	1922
4104.572	1980
4106.139	1880
4107.704	1932
4109.27	1896
4110.837	1907
4112.401	1908
4113.966	1948
4115.53	1956
4117.094	1915
4118.659	1916
4120.223	1862
4121.785	1899
4123.347	1899
4124.909	1919
4126.471	1928
4128.034	1863
4129.595	1896
4131.155	1894
4132.716	1894
4134.275	1881
4135.836	1880
4137.395	1933
4138.955	1890
4140.513	1885
4142.071	1869
4143.628	1900
4145.188	1869
4146.745	1899
4148.302	1895
4149.858	1844
4151.414	1861
4152.971	1886
4154.526	1848
4156.081	1844
4157.635	1861
4159.189	1882
4160.745	1857
4162.298	1816
4163.852	1850
4165.405	1864
4166.957	1819
4168.51	1864
4170.063	1868
4171.614	1793
4173.166	1856
4174.717	1847
4176.267	1810
4177.817	1823
4179.368	1807
4180.917	1849
4182.466	1853
4184.016	1835
4185.564	1868
4187.112	1850
4188.66	1803
4190.207	1780
4191.754	1833
4193.301	1811
4194.848	1844
4196.394	1758
4197.94	1769
4199.484	1757
4201.03	1778
4202.575	1790
4204.12	1791
4205.663	1819
4207.207	1848
4208.75	1806
4210.292	1803
4211.836	1825
4213.378	1777
4214.92	1793
4216.46	1829
4218.002	1863
4219.544	1804
4221.083	1806
4222.625	1809
4224.164	1784
4225.703	1770
4227.244	1802
4228.782	1765
4230.32	1776
4231.857	1761
4233.395	1802
4234.933	1774
4236.471	1757
4238.007	1808
4239.542	1787
4241.078	1725
4242.614	1835
4244.15	1757
4245.685	1743
4247.219	1804
4248.753	1820
4250.287	1807
4251.82	1783
4253.354	1771
4254.887	1778
4256.419	1778
4257.951	1739
4259.483	1734
4261.016	1771
4262.547	1762
4264.078	1758
4265.608	1768
4267.137	1719
4268.668	1765
4270.197	1768
4271.727	1769
4273.254	1755
4274.783	1738
4276.311	1761
4277.84	1735
4279.366	1707
4280.894	1733
4282.42	1686
4283.946	1813
4285.473	1749
4286.998	1748
4288.523	1748
4290.047	1706
4291.572	1717
4293.096	1738
4294.622	1735
4296.144	1722
4297.668	1716
4299.19	1729
4300.713	1697
4302.236	1745
4303.758	1698
4305.279	1702
4306.799	1666
4308.321	1716
4309.842	1715
4311.361	1699
4312.882	1719
4314.401	1714
