400.0961	3045
402.6185	3052
405.1424	3090
407.6635	3028
410.1838	3059
412.7035	3070
415.2225	3075
417.7388	3102
420.2585	3122
422.7754	3092
425.2917	3137
427.8072	3173
430.3221	3186
432.8363	3229
435.3498	3175
437.8626	3198
440.3727	3230
442.8841	3207
445.3969	3215
447.907	3287
450.4142	3215
452.9229	3252
455.4289	3227
457.9362	3254
460.4449	3201
462.9488	3179
465.454	3229
467.9566	3241
470.4604	3251
472.9637	3200
475.4662	3209
477.966	3218
480.4671	3170
482.9656	3227
485.4633	3305
487.9645	3226
490.4608	3253
492.9566	3238
495.4536	3275
497.948	3275
500.4437	3241
502.9387	3354
505.431	3282
507.9226	3268
510.4136	3286
512.9079	3326
515.3975	3295
517.8864	3392
520.3746	3287
522.8622	3331
525.3491	3423
527.8394	3319
530.3249	3318
532.8098	3308
535.2939	3311
537.7774	3390
540.2623	3331
542.7444	3298
545.2259	3379
547.7067	3396
550.1868	3320
552.6683	3300
555.147	3420
557.6231	3395
560.1005	3306
562.5773	3358
565.0534	3346
567.5308	3427
570.0056	3334
572.4776	3408
574.951	3413
577.4237	3459
579.8978	3523
582.3671	3430
584.8378	3440
587.3079	3410
589.7773	3512
592.244	3504
594.714	3444
597.1793	3522
599.6461	3436
602.1121	3341
604.5754	3471
607.0421	3440
609.5042	3490
611.9675	3465
614.4282	3364
616.8902	3463
619.3515	3382
621.8122	3483
624.2702	3392
626.7296	3455
629.1863	3467
631.6423	3428
634.1017	3395
636.5563	3451
639.0104	3446
641.4658	3440
643.9185	3459
646.3725	3389
648.8239	3474
651.2766	3495
653.7266	3495
656.176	3479
658.6247	3406
661.0748	3428
663.5242	3500
665.9709	3493
668.417	3532
670.8624	3505
673.3092	3500
675.7533	3557
678.1968	3526
680.6395	3603
683.0817	3522
685.5251	3489
687.9659	3555
690.4061	3571
692.8456	3545
695.2844	3595
697.7226	3578
700.1621	3605
702.599	3586
705.0332	3620
707.4688	3543
709.9036	3701
712.3399	3654
714.7735	3574
717.2044	3585
719.6367	3698
722.0683	3661
724.4993	3603
726.9296	3690
729.3593	3647
731.7883	3632
734.2147	3695
736.6423	3644
739.0714	3668
741.4958	3739
743.9216	3703
746.3447	3709
748.7691	3697
751.1929	3750
753.616	3759
756.0366	3752
758.4584	3793
760.8776	3758
763.2982	3729
765.718	3839
768.1373	3749
770.5539	3806
772.9698	3843
775.3871	3844
777.8038	3750
780.2178	3778
782.6332	3823
785.0459	3759
787.458	3784
789.8714	3793
792.2842	3802
794.6943	3820
797.1038	3761
799.5127	3716
801.9209	3783
804.3324	3776
806.7393	3825
809.1456	3693
811.5513	3803
813.9562	3756
816.3625	3915
818.7663	3887
821.1693	3863
823.5718	3846
825.9735	3793
828.3746	3797
830.7771	3897
833.177	3993
835.5762	3828
837.9747	3925
840.3727	3813
842.772	3840
845.1666	3943
847.5626	3904
849.958	3972
852.3527	3865
854.7488	4043
857.1403	3917
859.5331	3909
861.9253	3943
864.3168	3911
866.7057	3887
869.098	4021
871.4876	3940
873.8746	3985
876.263	3914
878.6487	3875
881.0378	3946
883.4243	3995
885.8081	3920
888.1933	3878
890.5759	3963
892.9598	4013
895.343	3982
897.7256	3859
900.1057	3892
902.4871	3891
904.8659	3876
907.246	3904
909.6254	4016
912.0023	4054
914.3786	4005
916.7562	4087
919.1331	4102
921.5074	4105
923.8831	4097
926.2562	4118
928.6287	4043
931.0005	4058
933.3757	4109
935.7462	4093
938.1162	4085
940.4855	4229
942.8542	4200
945.2242	4273
947.5916	4361
949.9584	4377
952.3266	4400
954.6921	4566
957.0571	4650
959.4233	4789
961.787	4986
964.15	4859
966.5125	4770
968.8742	4640
971.2354	4541
973.5959	4402
975.9559	4258
978.3151	4230
980.6738	4024
983.0338	4078
985.3912	4015
987.7461	4025
990.1022	3986
992.4578	4071
994.8127	4071
997.1689	4119
999.5207	4056
1001.874	4078
1004.226	4128
1006.576	4085
1008.929	4178
1011.28	4192
1013.628	4077
1015.977	4105
1018.324	4080
1020.674	4018
1023.019	4077
1025.366	4069
1027.713	4203
1030.056	4117
1032.399	4117
1034.746	4189
1037.087	4146
1039.431	4150
1041.771	4209
1044.113	4185
1046.454	4170
1048.793	4156
1051.133	4116
1053.471	4099
1055.807	4183
1058.146	4119
1060.483	4198
1062.818	4183
1065.153	4154
1067.489	4162
1069.822	4158
1072.156	4197
1074.488	4214
1076.82	4280
1079.15	4173
1081.48	4260
1083.814	4194
1086.143	4214
1088.471	4204
1090.799	4177
1093.126	4125
1095.452	4254
1097.78	4122
1100.105	4130
1102.43	4209
1104.754	4221
1107.077	4168
1109.4	4150
1111.722	4137
1114.044	4177
1116.365	4171
1118.685	4206
1121.005	4258
1123.324	4054
1125.643	4210
1127.961	4239
1130.278	4279
1132.595	4180
1134.911	4187
1137.226	4143
1139.541	4151
1141.854	4191
1144.167	4108
1146.482	4252
1148.793	4154
1151.105	4207
1153.414	4184
1155.725	4227
1158.033	4204
1160.344	4268
1162.651	4264
1164.959	4200
1167.265	4198
1169.572	4270
1171.878	4256
1174.184	4256
1176.488	4173
1178.79	4218
1181.094	4214
1183.396	4230
1185.699	4170
1188.001	4263
1190.301	4256
1192.6	4118
1194.9	4220
1197.2	4278
1199.497	4256
1201.794	4190
1204.09	4179
1206.387	4193
1208.684	4233
1210.978	4272
1213.272	4194
1215.565	4255
1217.858	4245
1220.15	4198
1222.443	4278
1224.734	4260
1227.024	4240
1229.313	4213
1231.602	4321
1233.892	4252
1236.18	4297
1238.467	4413
1240.754	4353
1243.04	4426
1245.325	4449
1247.612	4391
1249.896	4431
1252.178	4372
1254.461	4414
1256.743	4385
1259.027	4379
1261.308	4368
1263.587	4409
1265.867	4423
1268.146	4410
1270.425	4430
1272.703	4464
1274.981	4379
1277.256	4370
1279.532	4464
1281.808	4354
1284.083	4393
1286.358	4480
1288.63	4424
1290.904	4433
1293.175	4269
1295.449	4360
1297.719	4291
1299.99	4387
1302.259	4348
1304.529	4330
1306.798	4345
1309.065	4351
1311.333	4275
1313.599	4342
1315.866	4361
1318.131	4396
1320.396	4322
1322.66	4459
1324.925	4278
1327.187	4328
1329.448	4402
1331.711	4314
1333.974	4346
1336.234	4372
1338.493	4354
1340.752	4399
1343.01	4212
1345.269	4402
1347.526	4391
1349.784	4405
1352.04	4280
1354.295	4335
1356.552	4400
1358.806	4300
1361.059	4350
1363.312	4363
1365.564	4313
1367.818	4408
1370.069	4339
1372.318	4376
1374.568	4429
1376.817	4370
1379.066	4424
1381.316	4407
1383.564	4443
1385.809	4399
1388.056	4356
1390.301	4313
1392.549	4442
1394.793	4502
1397.036	4470
1399.279	4399
1401.522	4513
1403.763	4570
1406.007	4595
1408.248	4477
1410.487	4470
1412.727	4525
1414.965	4506
1417.205	4428
1419.442	4512
1421.68	4517
1423.915	4533
1426.152	4520
1428.388	4493
1430.623	4490
1432.857	4503
1435.091	4541
1437.323	4590
1439.556	4507
1441.789	4570
1444.019	4571
1446.25	4528
1448.48	4661
1450.708	4534
1452.938	4632
1455.167	4582
1457.394	4596
1459.62	4583
1461.846	4612
1464.073	4623
1466.299	4634
1468.523	4463
1470.746	4541
1472.969	4488
1475.191	4543
1477.415	4504
1479.636	4503
1481.858	4418
1484.078	4383
1486.298	4479
1488.518	4365
1490.736	4316
1492.954	4354
1495.169	4401
1497.386	4398
1499.602	4411
1501.819	4266
1504.034	4418
1506.248	4446
1508.462	4375
1510.675	4479
1512.888	4422
1515.1	4410
1517.311	4398
1519.522	4329
1521.732	4384
1523.942	4317
1526.151	4389
1528.36	4302
1530.566	4385
1532.773	4278
1534.98	4390
1537.187	4407
1539.392	4471
1541.596	4363
1543.801	4449
1546.005	4476
1548.208	4361
1550.411	4430
1552.612	4504
1554.814	4493
1557.013	4446
1559.212	4394
1561.414	4504
1563.612	4499
1565.811	4454
1568.007	4496
1570.203	4404
1572.403	4533
1574.598	4440
1576.792	4503
1578.988	4570
1581.181	4450
1583.376	4498
1585.568	4526
1587.761	4558
1589.952	4428
1592.143	4535
1594.333	4513
1596.524	4560
1598.715	4483
1600.903	4505
1603.091	4552
1605.278	4521
1607.466	4461
1609.652	4593
1611.838	4501
1614.023	4549
1616.207	4529
1618.391	4558
1620.576	4530
1622.759	4561
1624.941	4546
1627.123	4496
1629.304	4562
1631.484	4609
1633.664	4647
1635.844	4613
1638.022	4653
1640.201	4545
1642.38	4538
1644.556	4579
1646.732	4611
1648.908	4539
1651.084	4640
1653.257	4557
1655.433	4607
1657.607	4499
1659.779	4744
1661.951	4642
1664.122	4598
1666.295	4692
1668.467	4672
1670.635	4579
1672.805	4593
1674.973	4704
1677.142	4719
1679.31	4592
1681.478	4622
1683.644	4628
1685.81	4652
1687.975	4622
1690.142	4634
1692.305	4613
1694.468	4535
1696.632	4681
1698.794	4510
1700.957	4523
1703.119	4440
1705.279	4662
1707.439	4544
1709.598	4494
1711.758	4663
1713.917	4562
1716.075	4529
1718.231	4491
1720.388	4469
1722.543	4410
1724.702	4592
1726.856	4583
1729.01	4521
1731.164	4580
1733.317	4490
1735.471	4519
1737.623	4490
1739.774	4514
1741.925	4531
1744.075	4541
1746.225	4492
1748.376	4460
1750.524	4503
1752.672	4515
1754.82	4571
1756.965	4543
1759.113	4596
1761.259	4524
1763.405	4529
1765.549	4551
1767.694	4582
1769.836	4614
1771.981	4609
1774.123	4531
1776.264	4573
1778.405	4628
1780.546	4551
1782.687	4573
1784.827	4567
1786.966	4536
1789.103	4583
1791.242	4639
1793.381	4572
1795.517	4592
1797.653	4613
1799.788	4523
1801.923	4516
1804.057	4584
1806.193	4554
1808.326	4522
1810.457	4558
1812.59	4564
1814.721	4582
1816.855	4641
1818.984	4515
1821.113	4519
1823.244	4513
1825.372	4609
1827.499	4568
1829.63	4531
1831.756	4640
1833.882	4561
1836.007	4569
1838.132	4554
1840.26	4641
1842.384	4525
1844.507	4575
1846.63	4549
1848.752	4476
1850.875	4488
1852.996	4470
1855.118	4525
1857.238	4482
1859.358	4514
1861.477	4578
1863.597	4558
1865.715	4524
1867.832	4486
1869.948	4568
1872.064	4577
1874.181	4577
1876.297	4595
1878.411	4513
1880.526	4538
1882.639	4509
1884.752	4516
1886.865	4612
1888.977	4547
1891.089	4600
1893.2	4509
1895.308	4491
1897.42	4554
1899.53	4627
1901.639	4624
1903.745	4584
1905.853	4580
1907.962	4420
1910.067	4572
1912.174	4589
1914.278	4559
1916.383	4615
1918.486	4616
1920.592	4584
1922.694	4570
1924.797	4541
1926.898	4624
1929	4577
1931.102	4651
1933.203	4563
1935.301	4645
1937.401	4726
1939.499	4563
1941.598	4573
1943.697	4618
1945.793	4654
1947.888	4572
1949.985	4550
1952.08	4619
1954.176	4613
1956.269	4650
1958.364	4566
1960.457	4598
1962.549	4560
1964.642	4613
1966.733	4581
1968.823	4608
1970.913	4567
1973.005	4603
1975.093	4596
1977.184	4584
1979.271	4667
1981.359	4586
1983.446	4557
1985.532	4502
1987.619	4614
1989.705	4586
1991.789	4621
1993.874	4572
1995.956	4540
1998.041	4588
2000.123	4516
2002.206	4644
2004.287	4480
2006.368	4653
2008.449	4520
2010.529	4593
2012.609	4556
2014.688	4630
2016.766	4551
2018.843	4516
2020.922	4603
2022.999	4554
2025.074	4549
2027.15	4528
2029.225	4564
2031.299	4583
2033.375	4625
2035.447	4691
2037.52	4491
2039.592	4605
2041.664	4457
2043.736	4599
2045.807	4525
2047.876	4522
2049.947	4601
2052.015	4634
2054.086	4651
2056.153	4646
2058.221	4523
2060.288	4604
2062.353	4690
2064.42	4557
2066.486	4581
2068.55	4489
2070.614	4642
2072.678	4604
2074.741	4472
2076.805	4580
2078.866	4593
2080.929	4573
2082.99	4597
2085.049	4501
2087.109	4587
2089.17	4548
2091.228	4537
2093.286	4591
2095.344	4545
2097.4	4467
2099.46	4555
2101.516	4561
2103.572	4583
2105.626	4620
2107.679	4540
2109.735	4727
2111.788	4651
2113.841	4524
2115.894	4613
2117.945	4594
2119.997	4535
2122.049	4452
2124.1	4557
2126.148	4501
2128.197	4534
2130.246	4664
2132.296	4538
2134.342	4567
2136.39	4492
2138.437	4539
2140.483	4549
2142.527	4590
2144.574	4595
2146.619	4580
2148.661	4506
2150.705	4538
2152.747	4448
2154.792	4571
2156.832	4530
2158.874	4541
2160.915	4495
2162.954	4559
2164.995	4457
2167.034	4501
2169.072	4524
2171.111	4537
2173.148	4533
2175.186	4503
2177.223	4522
2179.258	4421
2181.294	4597
2183.328	4455
2185.362	4489
2187.398	4450
2189.431	4599
2191.463	4522
2193.495	4534
2195.528	4407
2197.56	4561
2199.59	4436
2201.62	4469
2203.649	4414
2205.678	4435
2207.708	4489
2209.737	4422
2211.764	4449
2213.791	4446
2215.817	4390
2217.843	4386
2219.87	4521
2221.895	4444
2223.919	4479
2225.942	4499
2227.966	4376
2229.988	4527
2232.012	4471
2234.032	4501
2236.054	4449
2238.074	4515
2240.095	4462
2242.116	4529
2244.135	4512
2246.153	4451
2248.171	4463
2250.188	4427
2252.208	4469
2254.223	4442
2256.239	4546
2258.255	4379
2260.269	4503
2262.283	4403
2264.3	4417
2266.312	4495
2268.325	4435
2270.336	4450
2272.349	4470
2274.362	4437
2276.372	4534
2278.383	4416
2280.392	4449
2282.402	4379
2284.409	4466
2286.418	4435
2288.427	4519
2290.433	4455
2292.441	4428
2294.446	4484
2296.453	4462
2298.459	4479
2300.463	4377
2302.466	4423
2304.471	4463
2306.475	4373
2308.477	4479
2310.478	4487
2312.481	4401
2314.481	4489
2316.481	4374
2318.482	4367
2320.482	4411
2322.48	4363
2324.48	4434
2326.478	4319
2328.476	4422
2330.473	4435
2332.469	4394
2334.465	4394
2336.46	4373
2338.454	4443
2340.45	4502
2342.444	4424
2344.437	4329
2346.43	4421
2348.421	4312
2350.414	4335
2352.405	4486
2354.396	4359
2356.386	4356
2358.376	4363
2360.366	4313
2362.355	4253
2364.343	4399
2366.331	4337
2368.317	4347
2370.304	4259
2372.292	4311
2374.278	4403
2376.262	4422
2378.247	4383
2380.23	4363
2382.216	4309
2384.199	4293
2386.181	4374
2388.163	4321
2390.144	4336
2392.127	4373
2394.107	4296
2396.087	4359
2398.066	4327
2400.046	4276
2402.023	4251
2404.004	4307
2405.981	4276
2407.957	4304
2409.934	4259
2411.91	4237
2413.886	4289
2415.862	4421
2417.836	4312
2419.809	4383
2421.784	4254
2423.756	4273
2425.73	4350
2427.701	4252
2429.672	4269
2431.644	4286
2433.615	4319
2435.586	4219
2437.555	4212
2439.523	4399
2441.491	4228
2443.459	4294
2445.428	4277
2447.395	4349
2449.361	4301
2451.327	4263
2453.292	4231
2455.257	4295
2457.223	4267
2459.187	4236
2461.15	4343
2463.113	4283
2465.076	4224
2467.039	4308
2468.999	4370
2470.96	4212
2472.921	4266
2474.881	4163
2476.841	4159
2478.8	4293
2480.759	4291
2482.717	4247
2484.675	4311
2486.63	4185
2488.589	4313
2490.545	4225
2492.5	4180
2494.455	4352
2496.408	4185
2498.364	4222
2500.318	4167
2502.27	4229
2504.223	4233
2506.174	4229
2508.126	4280
2510.078	4238
2512.03	4383
2513.979	4164
2515.927	4130
2517.877	4308
2519.826	4284
2521.775	4186
2523.722	4230
2525.668	4151
2527.616	4263
2529.561	4222
2531.508	4229
2533.452	4172
2535.398	4210
2537.342	4213
2539.284	4231
2541.229	4252
2543.173	4257
2545.114	4144
2547.055	4160
2548.996	4246
2550.938	4123
2552.878	4236
2554.817	4172
2556.756	4225
2558.695	4129
2560.633	4161
2562.572	4238
2564.509	4236
2566.445	4208
2568.382	4158
2570.317	4094
2572.254	4162
2574.189	4189
2576.123	4219
2578.057	4217
2579.99	4193
2581.923	4208
2583.855	4148
2585.788	4227
2587.719	4178
2589.65	4243
2591.579	4246
2593.511	4235
2595.44	4107
2597.37	4163
2599.297	4246
2601.225	4230
2603.153	4178
2605.08	4234
2607.007	4221
2608.932	4188
2610.858	4139
2612.782	4223
2614.709	4246
2616.632	4133
2618.556	4192
2620.478	4105
2622.401	4206
2624.324	4270
2626.247	4229
2628.167	4216
2630.088	4210
2632.008	4255
2633.928	4223
2635.848	4243
2637.766	4096
2639.684	4206
2641.603	4291
2643.519	4168
2645.437	4233
2647.353	4219
2649.27	4183
2651.184	4218
2653.099	4191
2655.014	4166
2656.928	4208
2658.842	4229
2660.755	4159
2662.667	4189
2664.579	4186
2666.491	4213
2668.402	4158
2670.312	4111
2672.222	4137
2674.132	4240
2676.042	4134
2677.951	4183
2679.859	4243
2681.766	4097
2683.674	4175
2685.582	4169
2687.488	4278
2689.392	4126
2691.298	4338
2693.202	4135
2695.107	4214
2697.012	4068
2698.914	4125
2700.817	4103
2702.72	4200
2704.622	4146
2706.524	4176
2708.425	4163
2710.326	4076
2712.225	4069
2714.125	4120
2716.024	4083
2717.923	4038
2719.822	4235
2721.719	4090
2723.616	4096
2725.512	4179
2727.41	4171
2729.305	4149
2731.201	4063
2733.095	4129
2734.99	4087
2736.884	4043
2738.778	4120
2740.67	4070
2742.562	4163
2744.455	4096
2746.346	4183
2748.238	4046
2750.129	4140
2752.018	4134
2753.907	4070
2755.797	4114
2757.687	4117
2759.575	4098
2761.462	4153
2763.349	4129
2765.237	4119
2767.124	4113
2769.009	4077
2770.894	4123
2772.779	4093
2774.663	4066
2776.547	4117
2778.431	3949
2780.314	4066
2782.197	4087
2784.078	4052
2785.96	4089
2787.842	4100
2789.723	4119
2791.603	4064
2793.483	4032
2795.362	4044
2797.241	4079
2799.121	4070
2800.997	4120
2802.874	4023
2804.751	4045
2806.628	4141
2808.506	4020
2810.38	4079
2812.255	4030
2814.13	4065
2816.003	4068
2817.878	4066
2819.752	3975
2821.623	4096
2823.496	4012
2825.368	4121
2827.238	4035
2829.111	4090
2830.98	4076
2832.851	4022
2834.719	4075
2836.589	3963
2838.458	4059
2840.327	4092
2842.193	4154
2844.061	4053
2845.927	4078
2847.794	4034
2849.66	4133
2851.525	4030
2853.39	3954
2855.254	4083
2857.117	4080
2858.983	4137
2860.845	4148
2862.707	4160
2864.569	4182
2866.431	4245
2868.293	4160
2870.154	4183
2872.013	4191
2873.873	4230
2875.733	4282
2877.592	4288
2879.451	4214
2881.309	4305
2883.166	4348
2885.022	4389
2886.879	4404
2888.736	4307
2890.591	4410
2892.446	4358
2894.301	4430
2896.155	4421
2898.009	4355
2899.863	4392
2901.716	4365
2903.568	4347
2905.419	4336
2907.27	4405
2909.123	4311
2910.973	4378
2912.824	4544
2914.673	4328
2916.521	4425
2918.372	4500
2920.22	4535
2922.067	4457
2923.914	4484
2925.761	4579
2927.607	4548
2929.455	4554
2931.301	4627
2933.144	4659
2934.99	4530
2936.833	4735
2938.678	4753
2940.522	4684
2942.364	4770
2944.207	4832
2946.048	4786
2947.891	4795
2949.731	4762
2951.571	4895
2953.412	4802
2955.25	4825
2957.09	4741
2958.93	4736
2960.767	4740
2962.606	4769
2964.443	4671
2966.279	4609
2968.116	4549
2969.953	4568
2971.788	4404
2973.623	4529
2975.457	4472
2977.292	4340
2979.127	4386
2980.959	4434
2982.792	4332
2984.624	4237
2986.455	4394
2988.288	4343
2990.119	4299
2991.949	4211
2993.779	4325
2995.608	4318
2997.439	4228
2999.268	4140
3001.096	4179
3002.923	4245
3004.751	4141
3006.578	4023
3008.406	3996
3010.232	4081
3012.057	3999
3013.883	4042
3015.706	4058
3017.532	4014
3019.356	3996
3021.179	3958
3023.002	4052
3024.823	3907
3026.646	3899
3028.469	3925
3030.289	3905
3032.11	3849
3033.93	3964
3035.749	3883
3037.57	3791
3039.39	3982
3041.207	3798
3043.026	3843
3044.842	3830
3046.661	3922
3048.477	3855
3050.294	3834
3052.109	3910
3053.925	3825
3055.739	3802
3057.555	3916
3059.368	3913
3061.181	3899
3062.995	3885
3064.807	3879
3066.62	3835
3068.433	3918
3070.243	3764
3072.054	3864
3073.865	3830
3075.675	3729
3077.485	3869
3079.293	3835
3081.102	3819
3082.911	3873
3084.719	3694
3086.527	3788
3088.333	3817
3090.139	3717
3091.945	3794
3093.75	3732
3095.557	3688
3097.361	3761
3099.165	3661
3100.969	3741
3102.772	3712
3104.575	3702
3106.379	3780
3108.181	3721
3109.982	3722
3111.783	3728
3113.584	3830
3115.386	3743
3117.186	3696
3118.985	3655
3120.783	3739
3122.582	3772
3124.381	3657
3126.179	3645
3127.975	3676
3129.772	3744
3131.569	3678
3133.365	3640
3135.161	3680
3136.956	3678
3138.751	3689
3140.544	3644
3142.338	3717
3144.132	3651
3145.925	3573
3147.717	3675
3149.509	3596
3151.301	3616
3153.091	3661
3154.884	3677
3156.673	3620
3158.462	3660
3160.252	3714
3162.041	3613
3163.831	3647
3165.618	3613
3167.405	3656
3169.193	3690
3170.979	3586
3172.767	3606
3174.553	3645
3176.338	3548
3178.123	3639
3179.907	3505
3181.692	3532
3183.477	3646
3185.259	3583
3187.042	3657
3188.824	3608
3190.607	3622
3192.389	3602
3194.17	3633
3195.951	3650
3197.73	3557
3199.51	3602
3201.289	3559
3203.07	3593
3204.848	3575
3206.626	3614
3208.403	3557
3210.18	3511
3211.959	3615
3213.735	3533
3215.511	3581
3217.285	3538
3219.06	3590
3220.836	3523
3222.611	3576
3224.384	3523
3226.158	3598
3227.929	3603
3229.702	3564
3231.476	3527
3233.248	3518
3235.018	3516
3236.789	3587
3238.56	3644
3240.33	3601
3242.1	3573
3243.869	3564
3245.637	3548
3247.405	3526
3249.172	3530
3250.941	3639
3252.707	3525
3254.474	3514
3256.24	3578
3258.006	3524
3259.772	3647
3261.537	3533
3263.301	3635
3265.065	3585
3266.828	3574
3268.592	3560
3270.355	3564
3272.117	3539
3273.878	3519
3275.64	3536
3277.401	3529
3279.162	3493
3280.922	3509
3282.682	3600
3284.441	3552
3286.199	3519
3287.959	3560
3289.716	3458
3291.475	3529
3293.232	3574
3294.988	3580
3296.744	3558
3298.501	3541
3300.256	3509
3302.011	3571
3303.766	3490
3305.52	3516
3307.275	3547
3309.028	3602
3310.781	3497
3312.533	3509
3314.285	3583
3316.038	3445
3317.789	3497
3319.54	3492
3321.289	3520
3323.039	3560
3324.789	3489
3326.539	3547
3328.288	3545
3330.035	3621
3331.783	3463
3333.531	3596
3335.28	3542
3337.025	3517
3338.771	3456
3340.518	3511
3342.262	3456
3344.009	3528
3345.753	3502
3347.497	3514
3349.24	3526
3350.983	3546
3352.726	3536
3354.469	3471
3356.212	3521
3357.952	3537
3359.694	3453
3361.434	3417
3363.176	3479
3364.916	3407
3366.654	3445
3368.394	3418
3370.132	3429
3371.871	3440
3373.61	3440
3375.346	3510
3377.083	3428
3378.82	3425
3380.556	3441
3382.292	3430
3384.027	3415
3385.763	3422
3387.497	3472
3389.231	3476
3390.965	3402
3392.698	3501
3394.431	3375
3396.164	3289
3397.896	3430
3399.627	3342
3401.36	3352
3403.09	3396
3404.82	3334
3406.55	3346
3408.279	3440
3410.01	3432
3411.738	3414
3413.467	3327
3415.194	3383
3416.92	3312
3418.647	3325
3420.375	3412
3422.102	3350
3423.827	3418
3425.553	3384
3427.277	3403
3429.003	3353
3430.727	3299
3432.451	3332
3434.173	3444
3435.896	3307
3437.62	3436
3439.343	3307
3441.063	3277
3442.785	3298
3444.505	3270
3446.226	3267
3447.948	3349
3449.666	3357
3451.386	3270
3453.104	3334
3454.823	3303
3456.541	3325
3458.259	3309
3459.976	3292
3461.693	3275
3463.408	3313
3465.125	3197
3466.841	3184
3468.556	3277
3470.271	3274
3471.985	3251
3473.698	3243
3475.414	3218
3477.126	3185
3478.838	3262
3480.55	3245
3482.263	3246
3483.975	3220
3485.686	3231
3487.396	3280
3489.106	3150
3490.817	3188
3492.526	3223
3494.236	3231
3495.944	3212
3497.652	3238
3499.359	3231
3501.066	3204
3502.775	3295
3504.481	3217
3506.187	3163
3507.893	3208
3509.598	3156
3511.304	3065
3513.009	3159
3514.713	3141
3516.417	3214
3518.12	3174
3519.821	3155
3521.525	3167
3523.228	3137
3524.929	3150
3526.631	3134
3528.33	3124
3530.032	3134
3531.733	3097
3533.433	3151
3535.131	3069
3536.83	3062
3538.529	3119
3540.227	3115
3541.925	3009
3543.623	3131
3545.319	3108
3547.016	3066
3548.712	3171
3550.408	3119
3552.103	3126
3553.798	3052
3555.491	3075
3557.188	3090
3558.88	3099
3560.574	3075
3562.266	3100
3563.959	3132
3565.651	3115
3567.343	3011
3569.035	3105
3570.725	3049
3572.415	3047
3574.106	3055
3575.797	3066
3577.485	3053
3579.174	3069
3580.863	2971
3582.551	2976
3584.238	3022
3585.926	2901
3587.613	3018
3589.3	2979
3590.986	3014
3592.671	3042
3594.357	3065
3596.042	3006
3597.726	2948
3599.41	3013
3601.094	2997
3602.778	2981
3604.461	3067
3606.143	2919
3607.825	2956
3609.507	2987
3611.188	2952
3612.87	2971
3614.551	2864
3616.229	2912
3617.909	2942
3619.589	2975
3621.269	2965
3622.948	2919
3624.625	3009
3626.302	2929
3627.98	2947
3629.657	2883
3631.334	2933
3633.01	2862
3634.686	2911
3636.361	2907
3638.036	2916
3639.712	2967
3641.385	2854
3643.06	2926
3644.732	2825
3646.405	2872
3648.08	2813
3649.751	2908
3651.424	2902
3653.094	2899
3654.766	2916
3656.436	2907
3658.106	2880
3659.777	2852
3661.446	2787
3663.115	2790
3664.783	2849
3666.452	2877
3668.121	2868
3669.788	2795
3671.454	2867
3673.121	2903
3674.789	2761
3676.455	2800
3678.12	2819
3679.784	2868
3681.45	2825
3683.114	2840
3684.779	2793
3686.442	2764
3688.105	2764
3689.768	2786
3691.43	2886
3693.093	2796
3694.754	2845
3696.415	2865
3698.076	2864
3699.736	2832
3701.396	2879
3703.057	2874
3704.716	2798
3706.375	2801
3708.034	2749
3709.692	2792
3711.351	2768
3713.008	2783
3714.665	2833
3716.321	2827
3717.977	2783
3719.634	2812
3721.29	2682
3722.945	2818
3724.598	2762
3726.253	2847
3727.907	2788
3729.561	2728
3731.214	2713
3732.867	2786
3734.518	2769
3736.171	2748
3737.824	2727
3739.474	2676
3741.125	2782
3742.775	2733
3744.425	2736
3746.074	2712
3747.725	2728
3749.373	2692
3751.022	2807
3752.669	2721
3754.318	2744
3755.966	2843
3757.612	2762
3759.259	2631
3760.905	2725
3762.55	2777
3764.197	2737
3765.842	2693
3767.486	2753
3769.131	2743
3770.774	2737
3772.417	2724
3774.061	2701
3775.705	2732
3777.347	2694
3778.988	2677
3780.629	2739
3782.271	2616
3783.912	2706
3785.552	2639
3787.192	2731
3788.831	2601
3790.472	2656
3792.112	2707
3793.75	2643
3795.388	2637
3797.024	2608
3798.661	2669
3800.3	2660
3801.936	2630
3803.572	2698
3805.208	2608
3806.844	2665
3808.48	2661
3810.115	2615
3811.748	2724
3813.382	2683
3815.016	2618
3816.649	2707
3818.283	2613
3819.914	2594
3821.547	2627
3823.178	2608
3824.809	2670
3826.441	2581
3828.072	2649
3829.701	2625
3831.331	2607
3832.96	2614
3834.591	2558
3836.219	2580
3837.847	2593
3839.475	2597
3841.102	2588
3842.729	2593
3844.357	2608
3845.984	2553
3847.609	2600
3849.234	2581
3850.86	2623
3852.485	2553
3854.11	2558
3855.734	2640
3857.357	2542
3858.981	2557
3860.603	2608
3862.227	2539
3863.848	2602
3865.471	2575
3867.092	2486
3868.713	2570
3870.334	2580
3871.954	2586
3873.575	2581
3875.194	2572
3876.813	2525
3878.433	2568
3880.051	2513
3881.669	2497
3883.286	2514
3884.904	2516
3886.52	2508
3888.138	2522
3889.754	2471
3891.37	2541
3892.985	2598
3894.6	2463
3896.216	2555
3897.831	2494
3899.444	2520
3901.058	2498
3902.67	2507
3904.283	2486
3905.897	2556
3907.509	2471
3909.121	2548
3910.731	2523
3912.342	2536
3913.954	2519
3915.563	2471
3917.174	2553
3918.783	2514
3920.391	2513
3922.002	2500
3923.611	2564
3925.218	2504
3926.826	2477
3928.432	2543
3930.039	2476
3931.647	2483
3933.253	2496
3934.859	2482
3936.464	2547
3938.068	2476
3939.675	2494
3941.278	2460
3942.883	2516
3944.486	2495
3946.089	2452
3947.692	2503
3949.295	2482
3950.898	2483
3952.499	2457
3954.1	2469
3955.7	2420
3957.303	2403
3958.903	2450
3960.502	2453
3962.101	2502
3963.7	2488
3965.301	2434
3966.899	2470
3968.497	2446
3970.094	2457
3971.691	2494
3973.288	2413
3974.885	2507
3976.481	2361
3978.077	2436
3979.672	2410
3981.267	2375
3982.863	2374
3984.457	2443
3986.051	2390
3987.645	2393
3989.238	2465
3990.831	2404
3992.425	2418
3994.017	2402
3995.607	2417
3997.199	2400
3998.79	2328
4000.382	2395
4001.973	2330
4003.561	2332
4005.151	2361
4006.741	2396
4008.331	2401
4009.918	2283
4011.507	2314
4013.095	2414
4014.681	2300
4016.269	2382
4017.856	2279
4019.443	2370
4021.028	2328
4022.614	2299
4024.199	2348
4025.785	2373
4027.37	2298
4028.953	2343
4030.536	2362
4032.12	2340
4033.704	2312
4035.287	2320
4036.869	2304
4038.45	2364
4040.032	2303
4041.613	2332
4043.195	2296
4044.776	2296
4046.356	2290
4047.935	2279
4049.515	2327
4051.095	2285
4052.674	2323
4054.251	2314
4055.829	2317
4057.406	2326
4058.985	2299
4060.562	2349
4062.139	2242
4063.715	2267
4065.29	2333
4066.865	2224
4068.442	2243
4070.016	2261
4071.59	2228
4073.164	2268
4074.738	2292
4076.312	2276
4077.885	2289
4079.458	2240
4081.03	2226
4082.602	2220
4084.173	2309
4085.745	2285
4087.315	2265
4088.886	2267
4090.456	2285
4092.026	2246
4093.596	2236
4095.165	2248
4096.734	2296
4098.301	2289
4099.869	2220
4101.437	2231
4103.006	2230
4104.572	2274
4106.139	2236
4107.704	2223
4109.27	2228
4110.837	2244
4112.401	2208
4113.966	2196
4115.53	2222
4117.094	2171
4118.659	2219
4120.223	2176
4121.785	2182
4123.347	2191
4124.909	2253
4126.471	2171
4128.034	2197
4129.595	2204
4131.155	2150
4132.716	2240
4134.275	2174
4135.836	2187
4137.395	2107
4138.955	2152
4140.513	2204
4142.071	2252
4143.628	2141
4145.188	2196
4146.745	2190
4148.302	2175
4149.858	2119
4151.414	2126
4152.971	2113
4154.526	2106
4156.081	2161
4157.635	2175
4159.189	2168
4160.745	2157
4162.298	2162
4163.852	2183
4165.405	2141
4166.957	2096
4168.51	2170
4170.063	2146
4171.614	2161
4173.166	2166
4174.717	2087
4176.267	2147
4177.817	2143
4179.368	2111
4180.917	2112
4182.466	2118
4184.016	2171
4185.564	2165
4187.112	2111
4188.66	2100
4190.207	2088
4191.754	2059
4193.301	2099
4194.848	2075
4196.394	2106
4197.94	2061
4199.484	2045
4201.03	2127
4202.575	2085
4204.12	2112
4205.663	2075
4207.207	2068
4208.75	2108
4210.292	2026
4211.836	2066
4213.378	2068
4214.92	2108
4216.46	2072
4218.002	2061
4219.544	2043
4221.083	2103
4222.625	2109
4224.164	2069
4225.703	2064
4227.244	2024
4228.782	2077
4230.32	2088
4231.857	2090
4233.395	2111
4234.933	2069
4236.471	2067
4238.007	2081
4239.542	2080
4241.078	2072
4242.614	2119
4244.15	2047
4245.685	2048
4247.219	2071
4248.753	2023
4250.287	2002
4251.82	2057
4253.354	2023
4254.887	2011
4256.419	2078
4257.951	2038
4259.483	2002
4261.016	1982
4262.547	2039
4264.078	2044
4265.608	2044
4267.137	2025
4268.668	2043
4270.197	1993
4271.727	2022
4273.254	2005
4274.783	2007
4276.311	2017
4277.84	2034
4279.366	2031
4280.894	2004
4282.42	1986
4283.946	1993
4285.473	1973
4286.998	2002
4288.523	2011
4290.047	1988
4291.572	2001
4293.096	1983
4294.622	2049
4296.144	1982
4297.668	1957
4299.19	1953
4300.713	1982
4302.236	1965
4303.758	1972
4305.279	1973
4306.799	1961
4308.321	1929
4309.842	2000
4311.361	1996
4312.882	2038
4314.401	1950
