400.0961	2914
402.6185	2938
405.1424	2947
407.6635	2954
410.1838	2991
412.7035	2885
415.2225	2944
417.7388	3042
420.2585	3019
422.7754	3059
425.2917	3175
427.8072	3140
430.3221	3096
432.8363	3171
435.3498	3240
437.8626	3163
440.3727	3116
442.8841	3116
445.3969	3143
447.907	3201
450.4142	3166
452.9229	3146
455.4289	3133
457.9362	3107
460.4449	3106
462.9488	3116
465.454	3045
467.9566	3141
470.4604	3141
472.9637	3140
475.4662	3082
477.966	3126
480.4671	3180
482.9656	3080
485.4633	3073
487.9645	3176
490.4608	3143
492.9566	3090
495.4536	3167
497.948	3178
500.4437	3182
502.9387	3070
505.431	3173
507.9226	3145
510.4136	3152
512.9079	3254
515.3975	3210
517.8864	3189
520.3746	3210
522.8622	3216
525.3491	3215
527.8394	3210
530.3249	3161
532.8098	3240
535.2939	3293
537.7774	3256
540.2623	3234
542.7444	3192
545.2259	3277
547.7067	3202
550.1868	3315
552.6683	3226
555.147	3246
557.6231	3186
560.1005	3190
562.5773	3197
565.0534	3271
567.5308	3286
570.0056	3285
572.4776	3299
574.951	3307
577.4237	3372
579.8978	3352
582.3671	3352
584.8378	3321
587.3079	3408
589.7773	3422
592.244	3456
594.714	3388
597.1793	3369
599.6461	3296
602.1121	3205
604.5754	3352
607.0421	3289
609.5042	3292
611.9675	3342
614.4282	3344
616.8902	3350
619.3515	3358
621.8122	3260
624.2702	3247
626.7296	3336
629.1863	3140
631.6423	3284
634.1017	3254
636.5563	3258
639.0104	3320
641.4658	3271
643.9185	3330
646.3725	3344
648.8239	3293
651.2766	3310
653.7266	3250
656.176	3375
658.6247	3320
661.0748	3297
663.5242	3326
665.9709	3326
668.417	3331
670.8624	3384
673.3092	3289
675.7533	3389
678.1968	3383
680.6395	3368
683.0817	3427
685.5251	3408
687.9659	3410
690.4061	3420
692.8456	3431
695.2844	3395
697.7226	3448
700.1621	3424
702.599	3397
705.0332	3501
707.4688	3408
709.9036	3488
712.3399	3441
714.7735	3434
717.2044	3522
719.6367	3541
722.0683	3478
724.4993	3456
726.9296	3558
729.3593	3483
731.7883	3481
734.2147	3542
736.6423	3596
739.0714	3574
741.4958	3633
743.9216	3537
746.3447	3605
748.7691	3631
751.1929	3626
753.616	3632
756.0366	3646
758.4584	3607
760.8776	3632
763.2982	3658
765.718	3607
768.1373	3613
770.5539	3639
772.9698	3682
775.3871	3590
777.8038	3593
780.2178	3667
782.6332	3724
785.0459	3657
787.458	3721
789.8714	3661
792.2842	3655
794.6943	3668
797.1038	3705
799.5127	3648
801.9209	3530
804.3324	3627
806.7393	3669
809.1456	3641
811.5513	3656
813.9562	3644
816.3625	3653
818.7663	3754
821.1693	3607
823.5718	3665
825.9735	3707
828.3746	3685
830.7771	3654
833.177	3764
835.5762	3650
837.9747	3688
840.3727	3805
842.772	3788
845.1666	3716
847.5626	3718
849.958	3848
852.3527	3823
854.7488	3745
857.1403	3876
859.5331	3841
861.9253	3767
864.3168	3801
866.7057	3815
869.098	3843
871.4876	3776
873.8746	3854
876.263	3788
878.6487	3782
881.0378	3753
883.4243	3800
885.8081	3822
888.1933	3799
890.5759	3786
892.9598	3715
895.343	3737
897.7256	3746
900.1057	3794
902.4871	3801
904.8659	3871
907.246	3768
909.6254	3803
912.0023	3868
914.3786	3905
916.7562	3940
919.1331	3880
921.5074	4011
923.8831	4103
926.2562	3991
928.6287	4076
931.0005	4005
933.3757	4074
935.7462	4028
938.1162	4052
940.4855	4072
942.8542	4163
945.2242	4190
947.5916	4299
949.9584	4464
952.3266	4476
954.6921	4833
957.0571	4984
959.4233	5200
961.787	5331
964.15	5204
966.5125	5169
968.8742	4935
971.2354	4600
973.5959	4461
975.9559	4250
978.3151	4131
980.6738	3969
983.0338	4052
985.3912	3951
987.7461	3963
990.1022	3861
992.4578	3922
994.8127	3963
997.1689	3930
999.5207	3988
1001.874	4090
1004.226	3991
1006.576	3984
1008.929	3958
1011.28	3939
1013.628	3957
1015.977	3941
1018.324	3984
1020.674	3981
1023.019	3927
1025.366	3999
1027.713	4017
1030.056	4046
1032.399	3965
1034.746	4079
1037.087	4129
1039.431	4031
1041.771	3947
1044.113	4092
1046.454	4052
1048.793	4033
1051.133	4138
1053.471	4013
1055.807	4115
1058.146	4069
1060.483	4073
1062.818	4139
1065.153	3990
1067.489	4123
1069.822	4191
1072.156	4178
1074.488	4269
1076.82	4121
1079.15	4132
1081.48	4089
1083.814	4108
1086.143	4085
1088.471	3992
1090.799	4041
1093.126	4030
1095.452	3963
1097.78	4014
1100.105	4051
1102.43	3966
1104.754	4014
1107.077	3951
1109.4	4110
1111.722	4163
1114.044	3993
1116.365	4075
1118.685	4074
1121.005	4065
1123.324	4033
1125.643	4077
1127.961	4031
1130.278	4040
1132.595	3980
1134.911	3976
1137.226	4099
1139.541	4015
1141.854	3951
1144.167	3968
1146.482	3987
1148.793	4012
1151.105	4053
1153.414	4122
1155.725	4108
1158.033	3984
1160.344	4144
1162.651	4053
1164.959	4017
1167.265	4005
1169.572	4040
1171.878	4020
1174.184	4012
1176.488	4021
1178.79	4049
1181.094	4040
1183.396	4016
1185.699	3971
1188.001	4073
1190.301	4020
1192.6	4067
1194.9	4085
1197.2	4068
1199.497	4064
1201.794	4101
1204.09	4054
1206.387	3987
1208.684	4072
1210.978	4124
1213.272	4073
1215.565	4038
1217.858	4035
1220.15	4136
1222.443	4150
1224.734	4012
1227.024	4152
1229.313	4064
1231.602	4212
1233.892	4172
1236.18	4193
1238.467	4117
1240.754	4233
1243.04	4316
1245.325	4160
1247.612	4296
1249.896	4252
1252.178	4244
1254.461	4302
1256.743	4216
1259.027	4321
1261.308	4279
1263.587	4289
1265.867	4174
1268.146	4279
1270.425	4205
1272.703	4260
1274.981	4190
1277.256	4192
1279.532	4239
1281.808	4182
1284.083	4153
1286.358	4207
1288.63	4179
1290.904	4155
1293.175	4165
1295.449	4158
1297.719	4199
1299.99	4150
1302.259	4102
1304.529	4194
1306.798	4157
1309.065	4120
1311.333	4093
1313.599	4211
1315.866	4130
1318.131	4213
1320.396	4186
1322.66	4172
1324.925	4147
1327.187	4136
1329.448	4121
1331.711	4230
1333.974	4197
1336.234	4211
1338.493	4109
1340.752	4144
1343.01	4170
1345.269	4083
1347.526	4040
1349.784	4120
1352.04	4026
1354.295	4206
1356.552	4195
1358.806	4112
1361.059	4204
1363.312	4121
1365.564	4059
1367.818	4084
1370.069	4252
1372.318	4167
1374.568	4210
1376.817	4218
1379.066	4187
1381.316	4133
1383.564	4193
1385.809	4233
1388.056	4257
1390.301	4314
1392.549	4245
1394.793	4366
1397.036	4358
1399.279	4301
1401.522	4248
1403.763	4310
1406.007	4290
1408.248	4303
1410.487	4281
1412.727	4357
1414.965	4385
1417.205	4324
1419.442	4297
1421.68	4379
1423.915	4413
1426.152	4284
1428.388	4335
1430.623	4330
1432.857	4396
1435.091	4351
1437.323	4411
1439.556	4306
1441.789	4456
1444.019	4388
1446.25	4351
1448.48	4434
1450.708	4420
1452.938	4489
1455.167	4439
1457.394	4462
1459.62	4398
1461.846	4443
1464.073	4375
1466.299	4434
1468.523	4422
1470.746	4488
1472.969	4402
1475.191	4323
1477.415	4254
1479.636	4214
1481.858	4234
1484.078	4170
1486.298	4369
1488.518	4244
1490.736	4174
1492.954	4254
1495.169	4230
1497.386	4275
1499.602	4164
1501.819	4138
1504.034	4119
1506.248	4156
1508.462	4124
1510.675	4075
1512.888	4171
1515.1	4058
1517.311	4117
1519.522	4182
1521.732	4172
1523.942	4241
1526.151	4069
1528.36	4180
1530.566	4259
1532.773	4258
1534.98	4100
1537.187	4239
1539.392	4126
1541.596	4266
1543.801	4135
1546.005	4259
1548.208	4160
1550.411	4142
1552.612	4220
1554.814	4286
1557.013	4172
1559.212	4274
1561.414	4284
1563.612	4180
1565.811	4237
1568.007	4256
1570.203	4314
1572.403	4334
1574.598	4281
1576.792	4245
1578.988	4363
1581.181	4296
1583.376	4263
1585.568	4187
1587.761	4244
1589.952	4285
1592.143	4334
1594.333	4353
1596.524	4325
1598.715	4331
1600.903	4338
1603.091	4355
1605.278	4369
1607.466	4282
1609.652	4353
1611.838	4325
1614.023	4356
1616.207	4293
1618.391	4429
1620.576	4299
1622.759	4368
1624.941	4434
1627.123	4382
1629.304	4392
1631.484	4340
1633.664	4455
1635.844	4435
1638.022	4465
1640.201	4403
1642.38	4377
1644.556	4453
1646.732	4448
1648.908	4430
1651.084	4464
1653.257	4515
1655.433	4468
1657.607	4512
1659.779	4514
1661.951	4422
1664.122	4567
1666.295	4536
1668.467	4501
1670.635	4474
1672.805	4515
1674.973	4534
1677.142	4487
1679.31	4497
1681.478	4375
1683.644	4549
1685.81	4491
1687.975	4467
1690.142	4465
1692.305	4377
1694.468	4432
1696.632	4363
1698.794	4354
1700.957	4499
1703.119	4289
1705.279	4404
1707.439	4330
1709.598	4334
1711.758	4308
1713.917	4355
1716.075	4315
1718.231	4292
1720.388	4415
1722.543	4305
1724.702	4244
1726.856	4326
1729.01	4251
1731.164	4326
1733.317	4417
1735.471	4364
1737.623	4316
1739.774	4360
1741.925	4322
1744.075	4381
1746.225	4395
1748.376	4229
1750.524	4241
1752.672	4303
1754.82	4455
1756.965	4318
1759.113	4341
1761.259	4298
1763.405	4310
1765.549	4340
1767.694	4294
1769.836	4364
1771.981	4291
1774.123	4336
1776.264	4304
1778.405	4437
1780.546	4344
1782.687	4423
1784.827	4308
1786.966	4498
1789.103	4292
1791.242	4377
1793.381	4336
1795.517	4399
1797.653	4242
1799.788	4391
1801.923	4310
1804.057	4361
1806.193	4330
1808.326	4381
1810.457	4426
1812.59	4368
1814.721	4400
1816.855	4328
1818.984	4345
1821.113	4328
1823.244	4261
1825.372	4377
1827.499	4309
1829.63	4437
1831.756	4219
1833.882	4418
1836.007	4300
1838.132	4345
1840.26	4346
1842.384	4351
1844.507	4347
1846.63	4322
1848.752	4361
1850.875	4385
1852.996	4331
1855.118	4317
1857.238	4260
1859.358	4283
1861.477	4361
1863.597	4346
1865.715	4314
1867.832	4402
1869.948	4406
1872.064	4271
1874.181	4390
1876.297	4333
1878.411	4337
1880.526	4264
1882.639	4307
1884.752	4391
1886.865	4366
1888.977	4301
1891.089	4368
1893.2	4364
1895.308	4281
1897.42	4365
1899.53	4325
1901.639	4328
1903.745	4287
1905.853	4391
1907.962	4331
1910.067	4433
1912.174	4304
1914.278	4413
1916.383	4357
1918.486	4367
1920.592	4354
1922.694	4299
1924.797	4394
1926.898	4352
1929	4457
1931.102	4350
1933.203	4338
1935.301	4456
1937.401	4449
1939.499	4434
1941.598	4302
1943.697	4391
1945.793	4321
1947.888	4384
1949.985	4400
1952.08	4406
1954.176	4433
1956.269	4406
1958.364	4361
1960.457	4357
1962.549	4390
1964.642	4296
1966.733	4328
1968.823	4335
1970.913	4426
1973.005	4299
1975.093	4348
1977.184	4447
1979.271	4400
1981.359	4320
1983.446	4413
1985.532	4358
1987.619	4318
1989.705	4442
1991.789	4389
1993.874	4386
1995.956	4360
1998.041	4311
2000.123	4433
2002.206	4278
2004.287	4325
2006.368	4315
2008.449	4304
2010.529	4429
2012.609	4370
2014.688	4343
2016.766	4378
2018.843	4285
2020.922	4458
2022.999	4395
2025.074	4313
2027.15	4369
2029.225	4295
2031.299	4327
2033.375	4298
2035.447	4423
2037.52	4434
2039.592	4403
2041.664	4337
2043.736	4319
2045.807	4306
2047.876	4289
2049.947	4386
2052.015	4358
2054.086	4353
2056.153	4379
2058.221	4284
2060.288	4297
2062.353	4347
2064.42	4308
2066.486	4382
2068.55	4379
2070.614	4450
2072.678	4450
2074.741	4375
2076.805	4360
2078.866	4363
2080.929	4328
2082.99	4445
2085.049	4268
2087.109	4239
2089.17	4330
2091.228	4262
2093.286	4340
2095.344	4355
2097.4	4398
2099.46	4319
2101.516	4335
2103.572	4412
2105.626	4297
2107.679	4411
2109.735	4415
2111.788	4321
2113.841	4311
2115.894	4355
2117.945	4361
2119.997	4318
2122.049	4417
2124.1	4364
2126.148	4343
2128.197	4277
2130.246	4396
2132.296	4368
2134.342	4363
2136.39	4398
2138.437	4398
2140.483	4360
2142.527	4367
2144.574	4303
2146.619	4311
2148.661	4413
2150.705	4302
2152.747	4434
2154.792	4248
2156.832	4273
2158.874	4293
2160.915	4343
2162.954	4361
2164.995	4290
2167.034	4282
2169.072	4387
2171.111	4290
2173.148	4241
2175.186	4349
2177.223	4299
2179.258	4241
2181.294	4259
2183.328	4304
2185.362	4243
2187.398	4259
2189.431	4228
2191.463	4323
2193.495	4272
2195.528	4180
2197.56	4349
2199.59	4285
2201.62	4245
2203.649	4204
2205.678	4241
2207.708	4324
2209.737	4243
2211.764	4254
2213.791	4233
2215.817	4250
2217.843	4230
2219.87	4322
2221.895	4202
2223.919	4193
2225.942	4298
2227.966	4285
2229.988	4250
2232.012	4185
2234.032	4220
2236.054	4207
2238.074	4218
2240.095	4120
2242.116	4235
2244.135	4324
2246.153	4223
2248.171	4200
2250.188	4258
2252.208	4104
2254.223	4278
2256.239	4266
2258.255	4271
2260.269	4281
2262.283	4285
2264.3	4309
2266.312	4156
2268.325	4246
2270.336	4273
2272.349	4235
2274.362	4124
2276.372	4160
2278.383	4236
2280.392	4136
2282.402	4310
2284.409	4326
2286.418	4189
2288.427	4286
2290.433	4214
2292.441	4287
2294.446	4235
2296.453	4237
2298.459	4184
2300.463	4165
2302.466	4166
2304.471	4314
2306.475	4236
2308.477	4179
2310.478	4254
2312.481	4324
2314.481	4236
2316.481	4099
2318.482	4189
2320.482	4185
2322.48	4180
2324.48	4200
2326.478	4192
2328.476	4152
2330.473	4182
2332.469	4215
2334.465	4159
2336.46	4196
2338.454	4111
2340.45	4159
2342.444	4197
2344.437	4160
2346.43	4183
2348.421	4188
2350.414	4206
2352.405	4126
2354.396	4249
2356.386	4238
2358.376	4138
2360.366	4069
2362.355	4215
2364.343	4205
2366.331	4161
2368.317	4170
2370.304	4061
2372.292	4149
2374.278	4114
2376.262	4183
2378.247	4132
2380.23	4068
2382.216	4177
2384.199	4073
2386.181	4079
2388.163	4098
2390.144	4199
2392.127	4077
2394.107	4109
2396.087	4099
2398.066	4150
2400.046	4091
2402.023	4112
2404.004	4125
2405.981	4082
2407.957	4136
2409.934	4014
2411.91	4106
2413.886	4110
2415.862	4127
2417.836	4083
2419.809	4117
2421.784	4124
2423.756	4121
2425.73	4066
2427.701	4138
2429.672	4123
2431.644	4077
2433.615	4127
2435.586	4119
2437.555	4032
2439.523	4237
2441.491	4034
2443.459	4131
2445.428	4130
2447.395	4095
2449.361	4109
2451.327	4093
2453.292	4116
2455.257	4086
2457.223	4161
2459.187	4009
2461.15	4054
2463.113	4062
2465.076	4031
2467.039	4073
2468.999	4076
2470.96	4050
2472.921	4164
2474.881	4078
2476.841	4005
2478.8	4040
2480.759	3916
2482.717	4000
2484.675	4120
2486.63	4039
2488.589	4023
2490.545	4058
2492.5	3955
2494.455	4002
2496.408	3983
2498.364	4042
2500.318	3968
2502.27	4037
2504.223	3950
2506.174	4094
2508.126	3987
2510.078	4056
2512.03	4036
2513.979	3978
2515.927	3948
2517.877	4105
2519.826	3987
2521.775	3983
2523.722	3992
2525.668	4045
2527.616	4021
2529.561	4040
2531.508	4003
2533.452	4003
2535.398	4017
2537.342	4077
2539.284	4018
2541.229	4041
2543.173	3965
2545.114	4005
2547.055	3986
2548.996	3970
2550.938	3964
2552.878	4029
2554.817	4007
2556.756	4005
2558.695	3985
2560.633	3979
2562.572	3936
2564.509	4042
2566.445	4111
2568.382	3969
2570.317	3966
2572.254	3957
2574.189	4008
2576.123	3936
2578.057	4022
2579.99	3996
2581.923	4096
2583.855	3975
2585.788	4068
2587.719	4084
2589.65	4037
2591.579	4126
2593.511	3969
2595.44	4061
2597.37	4023
2599.297	4045
2601.225	4063
2603.153	4054
2605.08	3946
2607.007	4072
2608.932	3933
2610.858	4016
2612.782	4010
2614.709	4080
2616.632	4032
2618.556	4022
2620.478	4091
2622.401	4010
2624.324	4079
2626.247	4003
2628.167	4026
2630.088	4032
2632.008	3992
2633.928	4051
2635.848	4102
2637.766	4025
2639.684	4083
2641.603	3945
2643.519	4012
2645.437	4022
2647.353	3961
2649.27	4067
2651.184	4033
2653.099	4055
2655.014	3992
2656.928	4082
2658.842	4031
2660.755	4040
2662.667	4050
2664.579	4107
2666.491	4027
2668.402	4014
2670.312	4041
2672.222	3978
2674.132	4006
2676.042	4014
2677.951	4005
2679.859	4000
2681.766	4004
2683.674	3998
2685.582	3963
2687.488	4012
2689.392	3966
2691.298	3926
2693.202	3967
2695.107	3951
2697.012	4037
2698.914	3952
2700.817	4052
2702.72	4025
2704.622	4049
2706.524	3982
2708.425	4028
2710.326	3943
2712.225	4030
2714.125	3987
2716.024	3875
2717.923	3913
2719.822	3890
2721.719	3976
2723.616	4071
2725.512	3925
2727.41	4029
2729.305	4012
2731.201	3973
2733.095	3951
2734.99	3921
2736.884	3948
2738.778	4084
2740.67	3944
2742.562	3968
2744.455	3976
2746.346	3931
2748.238	3999
2750.129	3938
2752.018	3976
2753.907	3876
2755.797	3935
2757.687	3915
2759.575	3903
2761.462	3946
2763.349	3829
2765.237	3985
2767.124	3934
2769.009	3987
2770.894	3931
2772.779	3938
2774.663	3905
2776.547	3978
2778.431	3873
2780.314	3882
2782.197	3918
2784.078	3911
2785.96	3874
2787.842	3989
2789.723	3949
2791.603	3959
2793.483	3868
2795.362	3890
2797.241	3829
2799.121	3931
2800.997	3913
2802.874	3903
2804.751	3919
2806.628	3882
2808.506	3901
2810.38	3873
2812.255	3883
2814.13	3941
2816.003	3919
2817.878	3864
2819.752	3851
2821.623	3931
2823.496	3800
2825.368	3912
2827.238	3907
2829.111	3986
2830.98	3909
2832.851	3943
2834.719	3971
2836.589	3914
2838.458	3843
2840.327	3918
2842.193	3956
2844.061	4013
2845.927	3978
2847.794	3918
2849.66	3971
2851.525	3913
2853.39	3993
2855.254	3960
2857.117	4012
2858.983	4041
2860.845	4094
2862.707	3963
2864.569	4142
2866.431	4054
2868.293	4111
2870.154	4148
2872.013	4140
2873.873	4258
2875.733	4216
2877.592	4276
2879.451	4370
2881.309	4362
2883.166	4430
2885.022	4506
2886.879	4540
2888.736	4364
2890.591	4440
2892.446	4440
2894.301	4497
2896.155	4407
2898.009	4533
2899.863	4359
2901.716	4377
2903.568	4451
2905.419	4520
2907.27	4392
2909.123	4467
2910.973	4502
2912.824	4413
2914.673	4596
2916.521	4569
2918.372	4593
2920.22	4625
2922.067	4670
2923.914	4756
2925.761	4782
2927.607	4788
2929.455	4835
2931.301	4845
2933.144	4874
2934.99	5018
2936.833	4971
2938.678	4969
2940.522	5080
2942.364	5201
2944.207	5345
2946.048	5197
2947.891	5278
2949.731	5226
2951.571	5202
2953.412	5246
2955.25	5110
2957.09	5123
2958.93	5059
2960.767	5106
2962.606	4998
2964.443	4977
2966.279	4903
2968.116	4731
2969.953	4744
2971.788	4677
2973.623	4672
2975.457	4610
2977.292	4640
2979.127	4652
2980.959	4581
2982.792	4494
2984.624	4460
2986.455	4558
2988.288	4414
2990.119	4440
2991.949	4386
2993.779	4335
2995.608	4354
2997.439	4272
2999.268	4229
3001.096	4275
3002.923	4119
3004.751	4290
3006.578	4138
3008.406	4090
3010.232	4019
3012.057	4099
3013.883	4002
3015.706	4010
3017.532	4013
3019.356	3892
3021.179	3770
3023.002	3857
3024.823	3786
3026.646	3877
3028.469	3801
3030.289	3777
3032.11	3786
3033.93	3826
3035.749	3776
3037.57	3800
3039.39	3793
3041.207	3794
3043.026	3721
3044.842	3764
3046.661	3746
3048.477	3762
3050.294	3684
3052.109	3700
3053.925	3709
3055.739	3674
3057.555	3699
3059.368	3756
3061.181	3779
3062.995	3702
3064.807	3725
3066.62	3739
3068.433	3772
3070.243	3790
3072.054	3714
3073.865	3813
3075.675	3720
3077.485	3685
3079.293	3705
3081.102	3732
3082.911	3665
3084.719	3657
3086.527	3639
3088.333	3664
3090.139	3684
3091.945	3639
3093.75	3659
3095.557	3670
3097.361	3656
3099.165	3670
3100.969	3655
3102.772	3681
3104.575	3609
3106.379	3617
3108.181	3563
3109.982	3635
3111.783	3609
3113.584	3579
3115.386	3648
3117.186	3600
3118.985	3679
3120.783	3590
3122.582	3600
3124.381	3555
3126.179	3526
3127.975	3595
3129.772	3477
3131.569	3505
3133.365	3542
3135.161	3626
3136.956	3528
3138.751	3526
3140.544	3510
3142.338	3549
3144.132	3540
3145.925	3598
3147.717	3627
3149.509	3528
3151.301	3577
3153.091	3470
3154.884	3551
3156.673	3556
3158.462	3509
3160.252	3574
3162.041	3508
3163.831	3512
3165.618	3506
3167.405	3507
3169.193	3584
3170.979	3467
3172.767	3506
3174.553	3571
3176.338	3515
3178.123	3570
3179.907	3509
3181.692	3476
3183.477	3593
3185.259	3535
3187.042	3524
3188.824	3527
3190.607	3526
3192.389	3462
3194.17	3526
3195.951	3520
3197.73	3511
3199.51	3478
3201.289	3512
3203.07	3516
3204.848	3531
3206.626	3489
3208.403	3550
3210.18	3531
3211.959	3495
3213.735	3483
3215.511	3485
3217.285	3514
3219.06	3559
3220.836	3479
3222.611	3542
3224.384	3550
3226.158	3579
3227.929	3400
3229.702	3516
3231.476	3448
3233.248	3429
3235.018	3509
3236.789	3513
3238.56	3508
3240.33	3527
3242.1	3531
3243.869	3479
3245.637	3527
3247.405	3521
3249.172	3530
3250.941	3509
3252.707	3519
3254.474	3547
3256.24	3404
3258.006	3570
3259.772	3526
3261.537	3488
3263.301	3509
3265.065	3633
3266.828	3544
3268.592	3506
3270.355	3565
3272.117	3477
3273.878	3646
3275.64	3540
3277.401	3537
3279.162	3486
3280.922	3432
3282.682	3531
3284.441	3537
3286.199	3534
3287.959	3527
3289.716	3472
3291.475	3605
3293.232	3564
3294.988	3515
3296.744	3526
3298.501	3513
3300.256	3560
3302.011	3548
3303.766	3600
3305.52	3578
3307.275	3506
3309.028	3550
3310.781	3619
3312.533	3529
3314.285	3462
3316.038	3537
3317.789	3573
3319.54	3516
3321.289	3500
3323.039	3519
3324.789	3495
3326.539	3524
3328.288	3517
3330.035	3587
3331.783	3580
3333.531	3598
3335.28	3515
3337.025	3534
3338.771	3564
3340.518	3498
3342.262	3552
3344.009	3527
3345.753	3499
3347.497	3498
3349.24	3479
3350.983	3458
3352.726	3529
3354.469	3439
3356.212	3443
3357.952	3468
3359.694	3504
3361.434	3481
3363.176	3445
3364.916	3484
3366.654	3467
3368.394	3475
3370.132	3533
3371.871	3515
3373.61	3387
3375.346	3431
3377.083	3373
3378.82	3370
3380.556	3430
3382.292	3381
3384.027	3383
3385.763	3464
3387.497	3363
3389.231	3439
3390.965	3372
3392.698	3409
3394.431	3393
3396.164	3369
3397.896	3379
3399.627	3299
3401.36	3368
3403.09	3369
3404.82	3364
3406.55	3429
3408.279	3327
3410.01	3410
3411.738	3301
3413.467	3386
3415.194	3308
3416.92	3376
3418.647	3361
3420.375	3302
3422.102	3326
3423.827	3341
3425.553	3328
3427.277	3301
3429.003	3324
3430.727	3373
3432.451	3374
3434.173	3354
3435.896	3369
3437.62	3298
3439.343	3308
3441.063	3300
3442.785	3280
3444.505	3235
3446.226	3371
3447.948	3284
3449.666	3207
3451.386	3260
3453.104	3283
3454.823	3256
3456.541	3252
3458.259	3219
3459.976	3248
3461.693	3281
3463.408	3243
3465.125	3219
3466.841	3223
3468.556	3263
3470.271	3244
3471.985	3238
3473.698	3229
3475.414	3211
3477.126	3240
3478.838	3195
3480.55	3256
3482.263	3203
3483.975	3200
3485.686	3250
3487.396	3166
3489.106	3171
3490.817	3189
3492.526	3200
3494.236	3159
3495.944	3183
3497.652	3220
3499.359	3138
3501.066	3165
3502.775	3159
3504.481	3161
3506.187	3165
3507.893	3070
3509.598	3060
3511.304	3092
3513.009	3060
3514.713	3154
3516.417	3102
3518.12	3113
3519.821	3113
3521.525	3105
3523.228	3090
3524.929	3046
3526.631	3007
3528.33	3111
3530.032	3087
3531.733	3081
3533.433	3088
3535.131	3050
3536.83	3071
3538.529	3081
3540.227	3055
3541.925	3034
3543.623	2970
3545.319	2961
3547.016	3007
3548.712	3027
3550.408	3011
3552.103	2942
3553.798	2923
3555.491	3073
3557.188	3035
3558.88	2976
3560.574	2963
3562.266	2998
3563.959	3050
3565.651	2968
3567.343	2919
3569.035	3001
3570.725	2950
3572.415	3030
3574.106	3019
3575.797	3037
3577.485	2900
3579.174	2956
3580.863	2939
3582.551	2998
3584.238	2947
3585.926	2943
3587.613	2988
3589.3	2859
3590.986	2938
3592.671	2875
3594.357	2948
3596.042	2905
3597.726	2893
3599.41	2936
3601.094	2941
3602.778	2865
3604.461	2860
3606.143	2831
3607.825	2932
3609.507	2892
3611.188	2842
3612.87	2870
3614.551	2886
3616.229	2862
3617.909	2916
3619.589	2776
3621.269	2831
3622.948	2763
3624.625	2839
3626.302	2877
3627.98	2838
3629.657	2815
3631.334	2777
3633.01	2857
3634.686	2861
3636.361	2851
3638.036	2782
3639.712	2840
3641.385	2746
3643.06	2718
3644.732	2685
3646.405	2746
3648.08	2827
3649.751	2746
3651.424	2771
3653.094	2743
3654.766	2806
3656.436	2777
3658.106	2819
3659.777	2758
3661.446	2810
3663.115	2744
3664.783	2726
3666.452	2760
3668.121	2786
3669.788	2793
3671.454	2695
3673.121	2781
3674.789	2730
3676.455	2698
3678.12	2709
3679.784	2707
3681.45	2654
3683.114	2688
3684.779	2754
3686.442	2653
3688.105	2748
3689.768	2708
3691.43	2720
3693.093	2656
3694.754	2744
3696.415	2678
3698.076	2672
3699.736	2700
3701.396	2696
3703.057	2671
3704.716	2710
3706.375	2674
3708.034	2677
3709.692	2715
3711.351	2691
3713.008	2717
3714.665	2669
3716.321	2694
3717.977	2589
3719.634	2632
3721.29	2670
3722.945	2644
3724.598	2697
3726.253	2684
3727.907	2644
3729.561	2656
3731.214	2706
3732.867	2654
3734.518	2605
3736.171	2652
3737.824	2601
3739.474	2674
3741.125	2693
3742.775	2650
3744.425	2638
3746.074	2654
3747.725	2639
3749.373	2678
3751.022	2570
3752.669	2647
3754.318	2626
3755.966	2606
3757.612	2558
3759.259	2568
3760.905	2598
3762.55	2620
3764.197	2602
3765.842	2594
3767.486	2612
3769.131	2632
3770.774	2581
3772.417	2623
3774.061	2618
3775.705	2573
3777.347	2624
3778.988	2584
3780.629	2577
3782.271	2547
3783.912	2566
3785.552	2592
3787.192	2573
3788.831	2529
3790.472	2523
3792.112	2556
3793.75	2523
3795.388	2548
3797.024	2585
3798.661	2564
3800.3	2496
3801.936	2564
3803.572	2453
3805.208	2542
3806.844	2497
3808.48	2549
3810.115	2510
3811.748	2539
3813.382	2541
3815.016	2522
3816.649	2515
3818.283	2478
3819.914	2531
3821.547	2540
3823.178	2553
3824.809	2502
3826.441	2484
3828.072	2477
3829.701	2510
3831.331	2448
3832.96	2469
3834.591	2568
3836.219	2488
3837.847	2487
3839.475	2484
3841.102	2517
3842.729	2478
3844.357	2493
3845.984	2450
3847.609	2480
3849.234	2455
3850.86	2448
3852.485	2517
3854.11	2460
3855.734	2435
3857.357	2491
3858.981	2467
3860.603	2444
3862.227	2427
3863.848	2438
3865.471	2452
3867.092	2491
3868.713	2475
3870.334	2444
3871.954	2462
3873.575	2414
3875.194	2430
3876.813	2420
3878.433	2478
3880.051	2417
3881.669	2409
3883.286	2426
3884.904	2506
3886.52	2413
3888.138	2440
3889.754	2409
3891.37	2489
3892.985	2461
3894.6	2390
3896.216	2438
3897.831	2402
3899.444	2397
3901.058	2439
3902.67	2465
3904.283	2435
3905.897	2394
3907.509	2366
3909.121	2416
3910.731	2417
3912.342	2408
3913.954	2421
3915.563	2442
3917.174	2359
3918.783	2366
3920.391	2389
3922.002	2383
3923.611	2394
3925.218	2426
3926.826	2381
3928.432	2410
3930.039	2412
3931.647	2358
3933.253	2435
3934.859	2402
3936.464	2439
3938.068	2364
3939.675	2354
3941.278	2408
3942.883	2419
3944.486	2402
3946.089	2414
3947.692	2400
3949.295	2394
3950.898	2379
3952.499	2355
3954.1	2333
3955.7	2356
3957.303	2327
3958.903	2343
3960.502	2346
3962.101	2373
3963.7	2335
3965.301	2287
3966.899	2282
3968.497	2319
3970.094	2359
3971.691	2368
3973.288	2370
3974.885	2340
3976.481	2252
3978.077	2320
3979.672	2280
3981.267	2330
3982.863	2324
3984.457	2341
3986.051	2247
3987.645	2323
3989.238	2331
3990.831	2231
3992.425	2285
3994.017	2314
3995.607	2233
3997.199	2278
3998.79	2276
4000.382	2231
4001.973	2286
4003.561	2271
4005.151	2293
4006.741	2199
4008.331	2306
4009.918	2312
4011.507	2272
4013.095	2236
4014.681	2277
4016.269	2246
4017.856	2178
4019.443	2287
4021.028	2301
4022.614	2265
4024.199	2239
4025.785	2215
4027.37	2228
4028.953	2218
4030.536	2258
4032.12	2254
4033.704	2257
4035.287	2230
4036.869	2223
4038.45	2262
4040.032	2252
4041.613	2224
4043.195	2197
4044.776	2181
4046.356	2178
4047.935	2208
4049.515	2190
4051.095	2211
4052.674	2236
4054.251	2236
4055.829	2199
4057.406	2198
4058.985	2209
4060.562	2176
4062.139	2204
4063.715	2213
4065.29	2144
4066.865	2186
4068.442	2181
4070.016	2141
4071.59	2204
4073.164	2134
4074.738	2174
4076.312	2196
4077.885	2142
4079.458	2202
4081.03	2153
4082.602	2231
4084.173	2148
4085.745	2188
4087.315	2198
4088.886	2164
4090.456	2181
4092.026	2137
4093.596	2188
4095.165	2134
4096.734	2149
4098.301	2212
4099.869	2194
4101.437	2166
4103.006	2145
4104.572	2133
4106.139	2142
4107.704	2117
4109.27	2151
4110.837	2142
4112.401	2186
4113.966	2108
4115.53	2125
4117.094	2147
4118.659	2147
4120.223	2063
4121.785	2127
4123.347	2155
4124.909	2149
4126.471	2072
4128.034	2048
4129.595	2132
4131.155	2107
4132.716	2100
4134.275	2163
4135.836	2085
4137.395	2084
4138.955	2099
4140.513	2079
4142.071	2080
4143.628	2059
4145.188	2087
4146.745	2064
4148.302	2079
4149.858	2083
4151.414	2094
4152.971	2079
4154.526	2103
4156.081	2005
4157.635	2050
4159.189	2047
4160.745	2025
4162.298	2090
4163.852	2048
4165.405	2132
4166.957	2061
4168.51	2014
4170.063	2086
4171.614	2078
4173.166	2121
4174.717	2100
4176.267	2053
4177.817	2014
4179.368	1991
4180.917	2026
4182.466	2009
4184.016	2025
4185.564	2038
4187.112	2005
4188.66	2015
4190.207	2037
4191.754	2013
4193.301	2011
4194.848	2021
4196.394	2021
4197.94	2013
4199.484	2022
4201.03	2028
4202.575	1996
4204.12	2048
4205.663	2039
4207.207	1959
4208.75	2053
4210.292	2003
4211.836	2027
4213.378	1963
4214.92	2023
4216.46	2019
4218.002	2020
4219.544	1989
4221.083	1939
4222.625	1980
4224.164	1905
4225.703	1983
4227.244	2007
4228.782	2009
4230.32	1975
4231.857	2004
4233.395	2005
4234.933	1978
4236.471	1961
4238.007	2012
4239.542	1958
4241.078	1979
4242.614	1942
4244.15	1989
4245.685	1961
4247.219	1986
4248.753	1950
4250.287	1926
4251.82	1950
4253.354	1967
4254.887	1929
4256.419	1975
4257.951	1918
4259.483	1998
4261.016	1949
4262.547	1947
4264.078	1970
4265.608	2007
4267.137	1916
4268.668	1934
4270.197	1935
4271.727	1958
4273.254	1974
4274.783	1961
4276.311	1937
4277.84	1930
4279.366	1925
4280.894	1914
4282.42	1948
4283.946	1900
4285.473	1902
4286.998	1863
4288.523	1878
4290.047	1934
4291.572	1910
4293.096	1972
4294.622	1887
4296.144	1918
4297.668	1934
4299.19	1908
4300.713	1896
4302.236	1848
4303.758	1887
4305.279	1942
4306.799	1911
4308.321	1917
4309.842	1875
4311.361	1889
4312.882	1865
4314.401	1894
