400.0961	3566
402.6185	3668
405.1424	3685
407.6635	3665
410.1838	3672
412.7035	3614
415.2225	3707
417.7388	3719
420.2585	3747
422.7754	3822
425.2917	3885
427.8072	3848
430.3221	4059
432.8363	3927
435.3498	3949
437.8626	3895
440.3727	3862
442.8841	3929
445.3969	3994
447.907	3998
450.4142	3890
452.9229	3930
455.4289	3885
457.9362	3897
460.4449	3850
462.9488	3841
465.454	3795
467.9566	3858
470.4604	3863
472.9637	3832
475.4662	3884
477.966	3892
480.4671	3784
482.9656	3800
485.4633	3861
487.9645	3830
490.4608	3898
492.9566	3907
495.4536	3801
497.948	3877
500.4437	3871
502.9387	3865
505.431	3857
507.9226	3839
510.4136	3836
512.9079	3836
515.3975	3885
517.8864	3897
520.3746	3876
522.8622	3965
525.3491	3958
527.8394	3995
530.3249	3925
532.8098	3986
535.2939	3893
537.7774	3927
540.2623	3977
542.7444	4006
545.2259	3995
547.7067	3967
550.1868	3987
552.6683	4003
555.147	4041
557.6231	3928
560.1005	3967
562.5773	4059
565.0534	4012
567.5308	4062
570.0056	4093
572.4776	4202
574.951	4068
577.4237	4200
579.8978	4176
582.3671	4199
584.8378	4117
587.3079	4242
589.7773	4199
592.244	4221
594.714	4125
597.1793	4151
599.6461	4109
602.1121	4136
604.5754	4030
607.0421	4112
609.5042	4202
611.9675	4066
614.4282	4190
616.8902	4086
619.3515	4082
621.8122	4139
624.2702	4074
626.7296	4008
629.1863	4057
631.6423	3999
634.1017	4034
636.5563	4012
639.0104	4012
641.4658	4058
643.9185	4001
646.3725	4049
648.8239	4108
651.2766	4051
653.7266	4054
656.176	4096
658.6247	4045
661.0748	4054
663.5242	4082
665.9709	4121
668.417	4133
670.8624	4084
673.3092	4186
675.7533	4139
678.1968	4176
680.6395	4294
683.0817	4127
685.5251	4184
687.9659	4150
690.4061	4121
692.8456	4197
695.2844	4200
697.7226	4195
700.1621	4256
702.599	4221
705.0332	4217
707.4688	4156
709.9036	4152
712.3399	4268
714.7735	4217
717.2044	4162
719.6367	4355
722.0683	4273
724.4993	4316
726.9296	4383
729.3593	4266
731.7883	4262
734.2147	4373
736.6423	4342
739.0714	4333
741.4958	4417
743.9216	4360
746.3447	4363
748.7691	4403
751.1929	4424
753.616	4439
756.0366	4499
758.4584	4505
760.8776	4506
763.2982	4432
765.718	4414
768.1373	4487
770.5539	4449
772.9698	4558
775.3871	4479
777.8038	4530
780.2178	4515
782.6332	4529
785.0459	4541
787.458	4534
789.8714	4514
792.2842	4472
794.6943	4527
797.1038	4455
799.5127	4462
801.9209	4488
804.3324	4543
806.7393	4490
809.1456	4573
811.5513	4492
813.9562	4561
816.3625	4661
818.7663	4537
821.1693	4465
823.5718	4524
825.9735	4634
828.3746	4578
830.7771	4605
833.177	4641
835.5762	4583
837.9747	4604
840.3727	4548
842.772	4637
845.1666	4628
847.5626	4607
849.958	4680
852.3527	4696
854.7488	4633
857.1403	4784
859.5331	4735
861.9253	4654
864.3168	4655
866.7057	4747
869.098	4678
871.4876	4652
873.8746	4666
876.263	4675
878.6487	4735
881.0378	4640
883.4243	4713
885.8081	4564
888.1933	4700
890.5759	4667
892.9598	4682
895.343	4625
897.7256	4703
900.1057	4579
902.4871	4718
904.8659	4812
907.246	4664
909.6254	4777
912.0023	4777
914.3786	4802
916.7562	4903
919.1331	4902
921.5074	4994
923.8831	5043
926.2562	4993
928.6287	5013
931.0005	5013
933.3757	4993
935.7462	5024
938.1162	5033
940.4855	5146
942.8542	5310
945.2242	5311
947.5916	5450
949.9584	5692
952.3266	5907
954.6921	6106
957.0571	6529
959.4233	6792
961.787	6863
964.15	6780
966.5125	6483
968.8742	6104
971.2354	5858
973.5959	5569
975.9559	5337
978.3151	5197
980.6738	4965
983.0338	5002
985.3912	4930
987.7461	4944
990.1022	4775
992.4578	4890
994.8127	4801
997.1689	4885
999.5207	4935
1001.874	4969
1004.226	4969
1006.576	4841
1008.929	4914
1011.28	4870
1013.628	4908
1015.977	5070
1018.324	4870
1020.674	4881
1023.019	4848
1025.366	5011
1027.713	4956
1030.056	4891
1032.399	5017
1034.746	4929
1037.087	5035
1039.431	5128
1041.771	5029
1044.113	4992
1046.454	4982
1048.793	5098
1051.133	4992
1053.471	5021
1055.807	4995
1058.146	5001
1060.483	5125
1062.818	5101
1065.153	5167
1067.489	5110
1069.822	5227
1072.156	5141
1074.488	5169
1076.82	5218
1079.15	5146
1081.48	5059
1083.814	5115
1086.143	5021
1088.471	5024
1090.799	5129
1093.126	5059
1095.452	5119
1097.78	5004
1100.105	5051
1102.43	4948
1104.754	4970
1107.077	4985
1109.4	5040
1111.722	4965
1114.044	4912
1116.365	5034
1118.685	4885
1121.005	4933
1123.324	4938
1125.643	4963
1127.961	5060
1130.278	5003
1132.595	4934
1134.911	5003
1137.226	4945
1139.541	4924
1141.854	4931
1144.167	4911
1146.482	4942
1148.793	4941
1151.105	5019
1153.414	4951
1155.725	4855
1158.033	4889
1160.344	5013
1162.651	4946
1164.959	4933
1167.265	4976
1169.572	4988
1171.878	4996
1174.184	4920
1176.488	4871
1178.79	5008
1181.094	4981
1183.396	5030
1185.699	4952
1188.001	4964
1190.301	4925
1192.6	4993
1194.9	5023
1197.2	5047
1199.497	4888
1201.794	5001
1204.09	4946
1206.387	4984
1208.684	5016
1210.978	4990
1213.272	5020
1215.565	4965
1217.858	5020
1220.15	4988
1222.443	5088
1224.734	5162
1227.024	5050
1229.313	5079
1231.602	5135
1233.892	5136
1236.18	5197
1238.467	5127
1240.754	5228
1243.04	5150
1245.325	5213
1247.612	5324
1249.896	5121
1252.178	5210
1254.461	5232
1256.743	5272
1259.027	5177
1261.308	5171
1263.587	5294
1265.867	5210
1268.146	5217
1270.425	5217
1272.703	5293
1274.981	5298
1277.256	5322
1279.532	5219
1281.808	5182
1284.083	5292
1286.358	5222
1288.63	5105
1290.904	5177
1293.175	5200
1295.449	5039
1297.719	5234
1299.99	5097
1302.259	5177
1304.529	5221
1306.798	5116
1309.065	5128
1311.333	5214
1313.599	5163
1315.866	5239
1318.131	5074
1320.396	5152
1322.66	5129
1324.925	5164
1327.187	5157
1329.448	5193
1331.711	5193
1333.974	5170
1336.234	5149
1338.493	5209
1340.752	5201
1343.01	5171
1345.269	5159
1347.526	5093
1349.784	5115
1352.04	5053
1354.295	5052
1356.552	5238
1358.806	5086
1361.059	5201
1363.312	5237
1365.564	5256
1367.818	5221
1370.069	5207
1372.318	5102
1374.568	5173
1376.817	5189
1379.066	5185
1381.316	5182
1383.564	5206
1385.809	5204
1388.056	5206
1390.301	5199
1392.549	5286
1394.793	5275
1397.036	5270
1399.279	5344
1401.522	5260
1403.763	5338
1406.007	5411
1408.248	5399
1410.487	5265
1412.727	5270
1414.965	5315
1417.205	5371
1419.442	5383
1421.68	5253
1423.915	5360
1426.152	5355
1428.388	5304
1430.623	5376
1432.857	5416
1435.091	5429
1437.323	5415
1439.556	5468
1441.789	5417
1444.019	5444
1446.25	5501
1448.48	5514
1450.708	5397
1452.938	5546
1455.167	5455
1457.394	5592
1459.62	5461
1461.846	5573
1464.073	5471
1466.299	5531
1468.523	5522
1470.746	5309
1472.969	5304
1475.191	5228
1477.415	5329
1479.636	5277
1481.858	5239
1484.078	5190
1486.298	5233
1488.518	5117
1490.736	5189
1492.954	5156
1495.169	5048
1497.386	5124
1499.602	5109
1501.819	5170
1504.034	5148
1506.248	5054
1508.462	5173
1510.675	5117
1512.888	5087
1515.1	5075
1517.311	5189
1519.522	5156
1521.732	5191
1523.942	5140
1526.151	5196
1528.36	5136
1530.566	5152
1532.773	5212
1534.98	5221
1537.187	5140
1539.392	5140
1541.596	5120
1543.801	5094
1546.005	5100
1548.208	5211
1550.411	5137
1552.612	5164
1554.814	5253
1557.013	5124
1559.212	5170
1561.414	5251
1563.612	5117
1565.811	5312
1568.007	5261
1570.203	5295
1572.403	5264
1574.598	5316
1576.792	5267
1578.988	5345
1581.181	5282
1583.376	5321
1585.568	5262
1587.761	5305
1589.952	5307
1592.143	5299
1594.333	5246
1596.524	5370
1598.715	5320
1600.903	5377
1603.091	5305
1605.278	5360
1607.466	5341
1609.652	5341
1611.838	5223
1614.023	5440
1616.207	5343
1618.391	5309
1620.576	5367
1622.759	5443
1624.941	5390
1627.123	5381
1629.304	5380
1631.484	5364
1633.664	5516
1635.844	5400
1638.022	5514
1640.201	5506
1642.38	5505
1644.556	5454
1646.732	5509
1648.908	5453
1651.084	5436
1653.257	5347
1655.433	5481
1657.607	5471
1659.779	5556
1661.951	5491
1664.122	5486
1666.295	5559
1668.467	5631
1670.635	5446
1672.805	5574
1674.973	5518
1677.142	5539
1679.31	5552
1681.478	5443
1683.644	5579
1685.81	5425
1687.975	5565
1690.142	5445
1692.305	5502
1694.468	5336
1696.632	5363
1698.794	5455
1700.957	5294
1703.119	5293
1705.279	5318
1707.439	5285
1709.598	5353
1711.758	5302
1713.917	5322
1716.075	5350
1718.231	5240
1720.388	5266
1722.543	5308
1724.702	5360
1726.856	5303
1729.01	5399
1731.164	5369
1733.317	5301
1735.471	5200
1737.623	5303
1739.774	5259
1741.925	5319
1744.075	5358
1746.225	5339
1748.376	5270
1750.524	5238
1752.672	5319
1754.82	5178
1756.965	5273
1759.113	5362
1761.259	5295
1763.405	5329
1765.549	5230
1767.694	5248
1769.836	5317
1771.981	5373
1774.123	5233
1776.264	5359
1778.405	5366
1780.546	5294
1782.687	5334
1784.827	5335
1786.966	5420
1789.103	5293
1791.242	5397
1793.381	5394
1795.517	5391
1797.653	5342
1799.788	5274
1801.923	5337
1804.057	5360
1806.193	5275
1808.326	5352
1810.457	5315
1812.59	5370
1814.721	5395
1816.855	5363
1818.984	5370
1821.113	5328
1823.244	5356
1825.372	5355
1827.499	5352
1829.63	5254
1831.756	5315
1833.882	5351
1836.007	5366
1838.132	5331
1840.26	5337
1842.384	5328
1844.507	5332
1846.63	5301
1848.752	5251
1850.875	5313
1852.996	5241
1855.118	5288
1857.238	5339
1859.358	5188
1861.477	5346
1863.597	5372
1865.715	5383
1867.832	5235
1869.948	5363
1872.064	5334
1874.181	5362
1876.297	5247
1878.411	5315
1880.526	5434
1882.639	5375
1884.752	5325
1886.865	5345
1888.977	5243
1891.089	5447
1893.2	5309
1895.308	5328
1897.42	5351
1899.53	5158
1901.639	5402
1903.745	5260
1905.853	5395
1907.962	5317
1910.067	5375
1912.174	5352
1914.278	5316
1916.383	5353
1918.486	5394
1920.592	5423
1922.694	5374
1924.797	5374
1926.898	5494
1929	5449
1931.102	5478
1933.203	5406
1935.301	5407
1937.401	5342
1939.499	5430
1941.598	5397
1943.697	5540
1945.793	5358
1947.888	5336
1949.985	5377
1952.08	5436
1954.176	5424
1956.269	5322
1958.364	5327
1960.457	5447
1962.549	5405
1964.642	5406
1966.733	5303
1968.823	5266
1970.913	5394
1973.005	5482
1975.093	5307
1977.184	5365
1979.271	5336
1981.359	5421
1983.446	5307
1985.532	5287
1987.619	5339
1989.705	5304
1991.789	5260
1993.874	5374
1995.956	5343
1998.041	5274
2000.123	5412
2002.206	5475
2004.287	5428
2006.368	5332
2008.449	5433
2010.529	5257
2012.609	5371
2014.688	5402
2016.766	5311
2018.843	5331
2020.922	5241
2022.999	5348
2025.074	5295
2027.15	5342
2029.225	5247
2031.299	5421
2033.375	5337
2035.447	5335
2037.52	5328
2039.592	5341
2041.664	5358
2043.736	5238
2045.807	5398
2047.876	5265
2049.947	5285
2052.015	5322
2054.086	5372
2056.153	5425
2058.221	5427
2060.288	5426
2062.353	5288
2064.42	5354
2066.486	5395
2068.55	5336
2070.614	5264
2072.678	5311
2074.741	5381
2076.805	5336
2078.866	5361
2080.929	5439
2082.99	5381
2085.049	5268
2087.109	5309
2089.17	5436
2091.228	5279
2093.286	5424
2095.344	5304
2097.4	5417
2099.46	5420
2101.516	5399
2103.572	5325
2105.626	5385
2107.679	5216
2109.735	5402
2111.788	5376
2113.841	5470
2115.894	5232
2117.945	5301
2119.997	5293
2122.049	5329
2124.1	5375
2126.148	5345
2128.197	5383
2130.246	5307
2132.296	5297
2134.342	5390
2136.39	5319
2138.437	5226
2140.483	5374
2142.527	5343
2144.574	5320
2146.619	5275
2148.661	5375
2150.705	5328
2152.747	5375
2154.792	5269
2156.832	5306
2158.874	5382
2160.915	5395
2162.954	5369
2164.995	5275
2167.034	5292
2169.072	5380
2171.111	5303
2173.148	5291
2175.186	5329
2177.223	5291
2179.258	5277
2181.294	5268
2183.328	5236
2185.362	5275
2187.398	5263
2189.431	5311
2191.463	5208
2193.495	5310
2195.528	5309
2197.56	5251
2199.59	5317
2201.62	5275
2203.649	5205
2205.678	5293
2207.708	5175
2209.737	5175
2211.764	5215
2213.791	5242
2215.817	5265
2217.843	5273
2219.87	5137
2221.895	5201
2223.919	5095
2225.942	5132
2227.966	5213
2229.988	5232
2232.012	5147
2234.032	5146
2236.054	5272
2238.074	5199
2240.095	5233
2242.116	5267
2244.135	5314
2246.153	5279
2248.171	5315
2250.188	5324
2252.208	5135
2254.223	5329
2256.239	5199
2258.255	5193
2260.269	5132
2262.283	5208
2264.3	5274
2266.312	5163
2268.325	5262
2270.336	5311
2272.349	5202
2274.362	5280
2276.372	5162
2278.383	5276
2280.392	5213
2282.402	5254
2284.409	5343
2286.418	5211
2288.427	5255
2290.433	5246
2292.441	5258
2294.446	5160
2296.453	5180
2298.459	5216
2300.463	5308
2302.466	5169
2304.471	5176
2306.475	5181
2308.477	5239
2310.478	5139
2312.481	5236
2314.481	5220
2316.481	5277
2318.482	5220
2320.482	5058
2322.48	5163
2324.48	5200
2326.478	5037
2328.476	5205
2330.473	5161
2332.469	5133
2334.465	5201
2336.46	5063
2338.454	5076
2340.45	5192
2342.444	5039
2344.437	5045
2346.43	5042
2348.421	5041
2350.414	5033
2352.405	5112
2354.396	5157
2356.386	5066
2358.376	5152
2360.366	5122
2362.355	5115
2364.343	5046
2366.331	5112
2368.317	5055
2370.304	5099
2372.292	5126
2374.278	5085
2376.262	5259
2378.247	5080
2380.23	5046
2382.216	5118
2384.199	5140
2386.181	5045
2388.163	5108
2390.144	4999
2392.127	5125
2394.107	5010
2396.087	5083
2398.066	5110
2400.046	5138
2402.023	5058
2404.004	5013
2405.981	5080
2407.957	5074
2409.934	4991
2411.91	5054
2413.886	5006
2415.862	5112
2417.836	5044
2419.809	5086
2421.784	4908
2423.756	5103
2425.73	4981
2427.701	5119
2429.672	5050
2431.644	5053
2433.615	4967
2435.586	5039
2437.555	5013
2439.523	5093
2441.491	5081
2443.459	5053
2445.428	5079
2447.395	4952
2449.361	4982
2451.327	5000
2453.292	5047
2455.257	5097
2457.223	5090
2459.187	5058
2461.15	5017
2463.113	5060
2465.076	4980
2467.039	5026
2468.999	5108
2470.96	4990
2472.921	4973
2474.881	5049
2476.841	5001
2478.8	5041
2480.759	4964
2482.717	5032
2484.675	4959
2486.63	4998
2488.589	4979
2490.545	5023
2492.5	4903
2494.455	4994
2496.408	4952
2498.364	4968
2500.318	5019
2502.27	4973
2504.223	4924
2506.174	4933
2508.126	4984
2510.078	4880
2512.03	4996
2513.979	4850
2515.927	4913
2517.877	4916
2519.826	4843
2521.775	4908
2523.722	5003
2525.668	4905
2527.616	4968
2529.561	5020
2531.508	4940
2533.452	4975
2535.398	4899
2537.342	5001
2539.284	4981
2541.229	5015
2543.173	4875
2545.114	4874
2547.055	4978
2548.996	4886
2550.938	4924
2552.878	4899
2554.817	4938
2556.756	4854
2558.695	4950
2560.633	4871
2562.572	4842
2564.509	4965
2566.445	4946
2568.382	4910
2570.317	4976
2572.254	4921
2574.189	4911
2576.123	4977
2578.057	4889
2579.99	5033
2581.923	4906
2583.855	4912
2585.788	4933
2587.719	4923
2589.65	4925
2591.579	4970
2593.511	4894
2595.44	5028
2597.37	4932
2599.297	5035
2601.225	5004
2603.153	4974
2605.08	4958
2607.007	4981
2608.932	4921
2610.858	4988
2612.782	4957
2614.709	4990
2616.632	4958
2618.556	4884
2620.478	4958
2622.401	4975
2624.324	4953
2626.247	4913
2628.167	4959
2630.088	5050
2632.008	4894
2633.928	4961
2635.848	4953
2637.766	5018
2639.684	4942
2641.603	5027
2643.519	5014
2645.437	4964
2647.353	4878
2649.27	4920
2651.184	4981
2653.099	4874
2655.014	4970
2656.928	4991
2658.842	4984
2660.755	4904
2662.667	4959
2664.579	4918
2666.491	4882
2668.402	4950
2670.312	4982
2672.222	4934
2674.132	4974
2676.042	4970
2677.951	4858
2679.859	5014
2681.766	4984
2683.674	4943
2685.582	4880
2687.488	4923
2689.392	4951
2691.298	5003
2693.202	4906
2695.107	4897
2697.012	4939
2698.914	4934
2700.817	4846
2702.72	4893
2704.622	4854
2706.524	4902
2708.425	4793
2710.326	4841
2712.225	4802
2714.125	4796
2716.024	4930
2717.923	4867
2719.822	4863
2721.719	4857
2723.616	4871
2725.512	4946
2727.41	4867
2729.305	4915
2731.201	4902
2733.095	4751
2734.99	4856
2736.884	4986
2738.778	4938
2740.67	4876
2742.562	4961
2744.455	4909
2746.346	4803
2748.238	4789
2750.129	4877
2752.018	4849
2753.907	4788
2755.797	4806
2757.687	4895
2759.575	4844
2761.462	4822
2763.349	4820
2765.237	4840
2767.124	4906
2769.009	4781
2770.894	4815
2772.779	4899
2774.663	4886
2776.547	4847
2778.431	4818
2780.314	4885
2782.197	4819
2784.078	4831
2785.96	4747
2787.842	4807
2789.723	4853
2791.603	4782
2793.483	4818
2795.362	4802
2797.241	4820
2799.121	4784
2800.997	4798
2802.874	4865
2804.751	4866
2806.628	4768
2808.506	4843
2810.38	4746
2812.255	4807
2814.13	4770
2816.003	4813
2817.878	4791
2819.752	4788
2821.623	4845
2823.496	4760
2825.368	4796
2827.238	4869
2829.111	4736
2830.98	4817
2832.851	4806
2834.719	4718
2836.589	4855
2838.458	4742
2840.327	4806
2842.193	4868
2844.061	4830
2845.927	4896
2847.794	4848
2849.66	4880
2851.525	4920
2853.39	4787
2855.254	4962
2857.117	4900
2858.983	4858
2860.845	4868
2862.707	4977
2864.569	4991
2866.431	5030
2868.293	5054
2870.154	5151
2872.013	5118
2873.873	5092
2875.733	5162
2877.592	5299
2879.451	5296
2881.309	5346
2883.166	5338
2885.022	5388
2886.879	5416
2888.736	5473
2890.591	5482
2892.446	5346
2894.301	5435
2896.155	5436
2898.009	5477
2899.863	5455
2901.716	5431
2903.568	5378
2905.419	5391
2907.27	5483
2909.123	5389
2910.973	5402
2912.824	5586
2914.673	5503
2916.521	5553
2918.372	5652
2920.22	5664
2922.067	5694
2923.914	5724
2925.761	5774
2927.607	5880
2929.455	5905
2931.301	5917
2933.144	6045
2934.99	6208
2936.833	6208
2938.678	6277
2940.522	6261
2942.364	6310
2944.207	6508
2946.048	6298
2947.891	6308
2949.731	6313
2951.571	6396
2953.412	6315
2955.25	6234
2957.09	6308
2958.93	6148
2960.767	6106
2962.606	5936
2964.443	5992
2966.279	5937
2968.116	5699
2969.953	5822
2971.788	5754
2973.623	5690
2975.457	5544
2977.292	5546
2979.127	5578
2980.959	5626
2982.792	5499
2984.624	5482
2986.455	5464
2988.288	5580
2990.119	5448
2991.949	5360
2993.779	5396
2995.608	5361
2997.439	5248
2999.268	5280
3001.096	5125
3002.923	5188
3004.751	5047
3006.578	5149
3008.406	5048
3010.232	4933
3012.057	4821
3013.883	4774
3015.706	4931
3017.532	4885
3019.356	4810
3021.179	4755
3023.002	4711
3024.823	4776
3026.646	4705
3028.469	4648
3030.289	4638
3032.11	4725
3033.93	4655
3035.749	4620
3037.57	4661
3039.39	4662
3041.207	4578
3043.026	4586
3044.842	4697
3046.661	4724
3048.477	4604
3050.294	4664
3052.109	4539
3053.925	4555
3055.739	4592
3057.555	4674
3059.368	4567
3061.181	4667
3062.995	4629
3064.807	4641
3066.62	4619
3068.433	4661
3070.243	4614
3072.054	4487
3073.865	4594
3075.675	4633
3077.485	4633
3079.293	4491
3081.102	4605
3082.911	4578
3084.719	4526
3086.527	4511
3088.333	4592
3090.139	4524
3091.945	4515
3093.75	4516
3095.557	4496
3097.361	4428
3099.165	4441
3100.969	4483
3102.772	4525
3104.575	4484
3106.379	4443
3108.181	4357
3109.982	4392
3111.783	4472
3113.584	4506
3115.386	4463
3117.186	4381
3118.985	4444
3120.783	4500
3122.582	4443
3124.381	4412
3126.179	4356
3127.975	4332
3129.772	4365
3131.569	4370
3133.365	4407
3135.161	4414
3136.956	4359
3138.751	4312
3140.544	4292
3142.338	4366
3144.132	4369
3145.925	4343
3147.717	4426
3149.509	4365
3151.301	4376
3153.091	4331
3154.884	4375
3156.673	4348
3158.462	4444
3160.252	4349
3162.041	4424
3163.831	4349
3165.618	4347
3167.405	4326
3169.193	4318
3170.979	4346
3172.767	4307
3174.553	4397
3176.338	4328
3178.123	4336
3179.907	4322
3181.692	4325
3183.477	4347
3185.259	4366
3187.042	4292
3188.824	4345
3190.607	4372
3192.389	4191
3194.17	4290
3195.951	4382
3197.73	4342
3199.51	4330
3201.289	4257
3203.07	4261
3204.848	4412
3206.626	4308
3208.403	4291
3210.18	4279
3211.959	4338
3213.735	4346
3215.511	4421
3217.285	4315
3219.06	4328
3220.836	4339
3222.611	4422
3224.384	4319
3226.158	4354
3227.929	4321
3229.702	4356
3231.476	4212
3233.248	4347
3235.018	4292
3236.789	4355
3238.56	4365
3240.33	4299
3242.1	4236
3243.869	4284
3245.637	4259
3247.405	4205
3249.172	4268
3250.941	4286
3252.707	4328
3254.474	4254
3256.24	4318
3258.006	4392
3259.772	4263
3261.537	4313
3263.301	4301
3265.065	4346
3266.828	4366
3268.592	4355
3270.355	4299
3272.117	4239
3273.878	4360
3275.64	4312
3277.401	4445
3279.162	4263
3280.922	4349
3282.682	4217
3284.441	4372
3286.199	4308
3287.959	4438
3289.716	4290
3291.475	4297
3293.232	4308
3294.988	4339
3296.744	4326
3298.501	4284
3300.256	4339
3302.011	4343
3303.766	4307
3305.52	4352
3307.275	4249
3309.028	4312
3310.781	4346
3312.533	4338
3314.285	4413
3316.038	4372
3317.789	4387
3319.54	4360
3321.289	4360
3323.039	4372
3324.789	4332
3326.539	4237
3328.288	4309
3330.035	4352
3331.783	4315
3333.531	4308
3335.28	4295
3337.025	4291
3338.771	4318
3340.518	4273
3342.262	4360
3344.009	4329
3345.753	4316
3347.497	4248
3349.24	4295
3350.983	4226
3352.726	4228
3354.469	4301
3356.212	4252
3357.952	4248
3359.694	4224
3361.434	4202
3363.176	4199
3364.916	4290
3366.654	4139
3368.394	4235
3370.132	4261
3371.871	4179
3373.61	4180
3375.346	4232
3377.083	4122
3378.82	4163
3380.556	4201
3382.292	4293
3384.027	4104
3385.763	4192
3387.497	4186
3389.231	4172
3390.965	4200
3392.698	4158
3394.431	4052
3396.164	4187
3397.896	4134
3399.627	4142
3401.36	4211
3403.09	4204
3404.82	4227
3406.55	4131
3408.279	4159
3410.01	4154
3411.738	4154
3413.467	4128
3415.194	4047
3416.92	4110
3418.647	4122
3420.375	4021
3422.102	4112
3423.827	4098
3425.553	4151
3427.277	4100
3429.003	4065
3430.727	4018
3432.451	4051
3434.173	4091
3435.896	4064
3437.62	4130
3439.343	4090
3441.063	4074
3442.785	4006
3444.505	4022
3446.226	3987
3447.948	3966
3449.666	3968
3451.386	3970
3453.104	3991
3454.823	3982
3456.541	4027
3458.259	3888
3459.976	4073
3461.693	3925
3463.408	3936
3465.125	3977
3466.841	3855
3468.556	3987
3470.271	3970
3471.985	3925
3473.698	3854
3475.414	3941
3477.126	3847
3478.838	3837
3480.55	3885
3482.263	3917
3483.975	3888
3485.686	3936
3487.396	3832
3489.106	3987
3490.817	3829
3492.526	3948
3494.236	3857
3495.944	3895
3497.652	3933
3499.359	3762
3501.066	3846
3502.775	3835
3504.481	3848
3506.187	3718
3507.893	3897
3509.598	3796
3511.304	3730
3513.009	3792
3514.713	3732
3516.417	3753
3518.12	3738
3519.821	3721
3521.525	3774
3523.228	3788
3524.929	3777
3526.631	3710
3528.33	3790
3530.032	3848
3531.733	3774
3533.433	3673
3535.131	3786
3536.83	3794
3538.529	3739
3540.227	3674
3541.925	3729
3543.623	3750
3545.319	3653
3547.016	3648
3548.712	3700
3550.408	3769
3552.103	3748
3553.798	3696
3555.491	3698
3557.188	3717
3558.88	3740
3560.574	3594
3562.266	3657
3563.959	3642
3565.651	3681
3567.343	3638
3569.035	3600
3570.725	3659
3572.415	3747
3574.106	3624
3575.797	3602
3577.485	3628
3579.174	3614
3580.863	3633
3582.551	3677
3584.238	3600
3585.926	3591
3587.613	3514
3589.3	3608
3590.986	3644
3592.671	3570
3594.357	3589
3596.042	3541
3597.726	3614
3599.41	3529
3601.094	3491
3602.778	3503
3604.461	3485
3606.143	3489
3607.825	3602
3609.507	3520
3611.188	3483
3612.87	3437
3614.551	3544
3616.229	3517
3617.909	3457
3619.589	3448
3621.269	3468
3622.948	3426
3624.625	3410
3626.302	3417
3627.98	3427
3629.657	3479
3631.334	3420
3633.01	3402
3634.686	3423
3636.361	3435
3638.036	3422
3639.712	3486
3641.385	3432
3643.06	3409
3644.732	3367
3646.405	3456
3648.08	3363
3649.751	3399
3651.424	3394
3653.094	3437
3654.766	3426
3656.436	3345
3658.106	3388
3659.777	3308
3661.446	3361
3663.115	3315
3664.783	3349
3666.452	3380
3668.121	3383
3669.788	3263
3671.454	3299
3673.121	3343
3674.789	3324
3676.455	3314
3678.12	3371
3679.784	3278
3681.45	3307
3683.114	3327
3684.779	3265
3686.442	3225
3688.105	3331
3689.768	3339
3691.43	3307
3693.093	3204
3694.754	3265
3696.415	3165
3698.076	3314
3699.736	3325
3701.396	3260
3703.057	3291
3704.716	3269
3706.375	3275
3708.034	3281
3709.692	3361
3711.351	3278
3713.008	3227
3714.665	3250
3716.321	3266
3717.977	3230
3719.634	3222
3721.29	3288
3722.945	3261
3724.598	3289
3726.253	3276
3727.907	3220
3729.561	3254
3731.214	3218
3732.867	3264
3734.518	3148
3736.171	3228
3737.824	3302
3739.474	3196
3741.125	3152
3742.775	3178
3744.425	3235
3746.074	3247
3747.725	3177
3749.373	3222
3751.022	3195
3752.669	3163
3754.318	3180
3755.966	3239
3757.612	3148
3759.259	3180
3760.905	3205
3762.55	3259
3764.197	3187
3765.842	3190
3767.486	3198
3769.131	3152
3770.774	3051
3772.417	3109
3774.061	3047
3775.705	3116
3777.347	3178
3778.988	3179
3780.629	3110
3782.271	3191
3783.912	3169
3785.552	3196
3787.192	3135
3788.831	3186
3790.472	3144
3792.112	3123
3793.75	3075
3795.388	3153
3797.024	3197
3798.661	3126
3800.3	3128
3801.936	3094
3803.572	3077
3805.208	3045
3806.844	3140
3808.48	3043
3810.115	3101
3811.748	3083
3813.382	3106
3815.016	3103
3816.649	3035
3818.283	3101
3819.914	3030
3821.547	3009
3823.178	3099
3824.809	3052
3826.441	3065
3828.072	3100
3829.701	2977
3831.331	3029
3832.96	3003
3834.591	2987
3836.219	3040
3837.847	2992
3839.475	2999
3841.102	2995
3842.729	2982
3844.357	3063
3845.984	3037
3847.609	3025
3849.234	2959
3850.86	3027
3852.485	3009
3854.11	2931
3855.734	3009
3857.357	2982
3858.981	3018
3860.603	2999
3862.227	2960
3863.848	3018
3865.471	3087
3867.092	2992
3868.713	2930
3870.334	2996
3871.954	2983
3873.575	2980
3875.194	3004
3876.813	2888
3878.433	2920
3880.051	2962
3881.669	2993
3883.286	3001
3884.904	2995
3886.52	2913
3888.138	2907
3889.754	2990
3891.37	2931
3892.985	2957
3894.6	2983
3896.216	2959
3897.831	2947
3899.444	2921
3901.058	2984
3902.67	2959
3904.283	2936
3905.897	2878
3907.509	2932
3909.121	2897
3910.731	2908
3912.342	2935
3913.954	2962
3915.563	2957
3917.174	2909
3918.783	2887
3920.391	2914
3922.002	2878
3923.611	2918
3925.218	2968
3926.826	2953
3928.432	2874
3930.039	2927
3931.647	2966
3933.253	2916
3934.859	2885
3936.464	2898
3938.068	2886
3939.675	2951
3941.278	2902
3942.883	2926
3944.486	2885
3946.089	2856
3947.692	2829
3949.295	2891
3950.898	2827
3952.499	2823
3954.1	2871
3955.7	2906
3957.303	2852
3958.903	2844
3960.502	2814
3962.101	2870
3963.7	2883
3965.301	2840
3966.899	2807
3968.497	2836
3970.094	2832
3971.691	2862
3973.288	2851
3974.885	2829
3976.481	2867
3978.077	2818
3979.672	2853
3981.267	2756
3982.863	2863
3984.457	2734
3986.051	2766
3987.645	2803
3989.238	2909
3990.831	2746
3992.425	2836
3994.017	2755
3995.607	2840
3997.199	2761
3998.79	2724
4000.382	2773
4001.973	2762
4003.561	2690
4005.151	2748
4006.741	2765
4008.331	2729
4009.918	2733
4011.507	2788
4013.095	2793
4014.681	2743
4016.269	2764
4017.856	2703
4019.443	2743
4021.028	2755
4022.614	2686
4024.199	2741
4025.785	2703
4027.37	2780
4028.953	2762
4030.536	2751
4032.12	2709
4033.704	2754
4035.287	2697
4036.869	2691
4038.45	2702
4040.032	2707
4041.613	2639
4043.195	2652
4044.776	2712
4046.356	2729
4047.935	2668
4049.515	2674
4051.095	2652
4052.674	2649
4054.251	2712
4055.829	2646
4057.406	2674
4058.985	2677
4060.562	2655
4062.139	2663
4063.715	2658
4065.29	2660
4066.865	2634
4068.442	2688
4070.016	2664
4071.59	2631
4073.164	2672
4074.738	2657
4076.312	2635
4077.885	2693
4079.458	2703
4081.03	2638
4082.602	2696
4084.173	2622
4085.745	2679
4087.315	2691
4088.886	2657
4090.456	2603
4092.026	2686
4093.596	2582
4095.165	2611
4096.734	2602
4098.301	2665
4099.869	2572
4101.437	2585
4103.006	2573
4104.572	2548
4106.139	2556
4107.704	2597
4109.27	2594
4110.837	2663
4112.401	2622
4113.966	2570
4115.53	2541
4117.094	2603
4118.659	2577
4120.223	2553
4121.785	2618
4123.347	2591
4124.909	2577
4126.471	2573
4128.034	2552
4129.595	2560
4131.155	2562
4132.716	2553
4134.275	2544
4135.836	2515
4137.395	2558
4138.955	2554
4140.513	2590
4142.071	2493
4143.628	2489
4145.188	2501
4146.745	2565
4148.302	2532
4149.858	2511
4151.414	2510
4152.971	2522
4154.526	2477
4156.081	2471
4157.635	2524
4159.189	2471
4160.745	2495
4162.298	2536
4163.852	2474
4165.405	2462
4166.957	2492
4168.51	2442
4170.063	2506
4171.614	2472
4173.166	2457
4174.717	2494
4176.267	2490
4177.817	2496
4179.368	2430
4180.917	2426
4182.466	2450
4184.016	2431
4185.564	2464
4187.112	2429
4188.66	2382
4190.207	2439
4191.754	2476
4193.301	2428
4194.848	2437
4196.394	2426
4197.94	2394
4199.484	2454
4201.03	2436
4202.575	2484
4204.12	2434
4205.663	2375
4207.207	2446
4208.75	2393
4210.292	2397
4211.836	2432
4213.378	2365
4214.92	2398
4216.46	2448
4218.002	2436
4219.544	2445
4221.083	2483
4222.625	2379
4224.164	2414
4225.703	2453
4227.244	2403
4228.782	2421
4230.32	2452
4231.857	2390
4233.395	2376
4234.933	2367
4236.471	2393
4238.007	2388
4239.542	2358
4241.078	2381
4242.614	2354
4244.15	2322
4245.685	2437
4247.219	2409
4248.753	2322
4250.287	2402
4251.82	2289
4253.354	2338
4254.887	2411
4256.419	2328
4257.951	2363
4259.483	2401
4261.016	2331
4262.547	2355
4264.078	2386
4265.608	2391
4267.137	2291
4268.668	2341
4270.197	2357
4271.727	2320
4273.254	2363
4274.783	2276
4276.311	2388
4277.84	2316
4279.366	2359
4280.894	2332
4282.42	2382
4283.946	2317
4285.473	2349
4286.998	2302
4288.523	2346
4290.047	2341
4291.572	2266
4293.096	2340
4294.622	2305
4296.144	2296
4297.668	2289
4299.19	2320
4300.713	2343
4302.236	2280
4303.758	2319
4305.279	2237
4306.799	2270
4308.321	2223
4309.842	2316
4311.361	2337
4312.882	2274
4314.401	2253
