400.0961	2840
402.6185	2870
405.1424	2848
407.6635	2822
410.1838	2818
412.7035	2911
415.2225	2964
417.7388	2909
420.2585	3016
422.7754	3035
425.2917	2956
427.8072	3080
430.3221	3057
432.8363	3115
435.3498	3086
437.8626	3069
440.3727	3090
442.8841	3051
445.3969	3053
447.907	3038
450.4142	3116
452.9229	3063
455.4289	2996
457.9362	3110
460.4449	3025
462.9488	3105
465.454	3009
467.9566	2965
470.4604	2950
472.9637	2921
475.4662	2969
477.966	2959
480.4671	2980
482.9656	2994
485.4633	3048
487.9645	3035
490.4608	2946
492.9566	2976
495.4536	3008
497.948	3094
500.4437	3015
502.9387	3034
505.431	3023
507.9226	2970
510.4136	3099
512.9079	2978
515.3975	3020
517.8864	3125
520.3746	3019
522.8622	3004
525.3491	3155
527.8394	3138
530.3249	3053
532.8098	3082
535.2939	3134
537.7774	3055
540.2623	3039
542.7444	3135
545.2259	3036
547.7067	3082
550.1868	3062
552.6683	3079
555.147	3186
557.6231	3061
560.1005	3114
562.5773	3115
565.0534	3126
567.5308	3128
570.0056	3218
572.4776	3154
574.951	3122
577.4237	3267
579.8978	3188
582.3671	3309
584.8378	3275
587.3079	3254
589.7773	3280
592.244	3268
594.714	3239
597.1793	3220
599.6461	3281
602.1121	3214
604.5754	3235
607.0421	3258
609.5042	3240
611.9675	3234
614.4282	3217
616.8902	3238
619.3515	3272
621.8122	3218
624.2702	3185
626.7296	3165
629.1863	3141
631.6423	3110
634.1017	3102
636.5563	3075
639.0104	3132
641.4658	3127
643.9185	3142
646.3725	3211
648.8239	3154
651.2766	3186
653.7266	3063
656.176	3237
658.6247	3200
661.0748	3205
663.5242	3200
665.9709	3276
668.417	3139
670.8624	3165
673.3092	3279
675.7533	3171
678.1968	3229
680.6395	3156
683.0817	3278
685.5251	3174
687.9659	3268
690.4061	3348
692.8456	3280
695.2844	3250
697.7226	3219
700.1621	3228
702.599	3230
705.0332	3256
707.4688	3287
709.9036	3230
712.3399	3352
714.7735	3233
717.2044	3262
719.6367	3337
722.0683	3315
724.4993	3280
726.9296	3257
729.3593	3325
731.7883	3286
734.2147	3387
736.6423	3409
739.0714	3315
741.4958	3379
743.9216	3387
746.3447	3387
748.7691	3425
751.1929	3409
753.616	3489
756.0366	3444
758.4584	3376
760.8776	3485
763.2982	3480
765.718	3443
768.1373	3433
770.5539	3398
772.9698	3533
775.3871	3412
777.8038	3527
780.2178	3449
782.6332	3490
785.0459	3448
787.458	3394
789.8714	3475
792.2842	3442
794.6943	3477
797.1038	3537
799.5127	3522
801.9209	3501
804.3324	3485
806.7393	3493
809.1456	3516
811.5513	3575
813.9562	3526
816.3625	3556
818.7663	3485
821.1693	3586
823.5718	3578
825.9735	3582
828.3746	3540
830.7771	3514
833.177	3504
835.5762	3463
837.9747	3515
840.3727	3610
842.772	3564
845.1666	3552
847.5626	3604
849.958	3625
852.3527	3674
854.7488	3645
857.1403	3608
859.5331	3731
861.9253	3620
864.3168	3678
866.7057	3628
869.098	3656
871.4876	3676
873.8746	3650
876.263	3688
878.6487	3631
881.0378	3688
883.4243	3669
885.8081	3693
888.1933	3676
890.5759	3598
892.9598	3650
895.343	3658
897.7256	3629
900.1057	3685
902.4871	3619
904.8659	3632
907.246	3710
909.6254	3675
912.0023	3700
914.3786	3779
916.7562	3788
919.1331	3834
921.5074	3846
923.8831	3888
926.2562	3893
928.6287	3891
931.0005	3933
933.3757	3964
935.7462	3917
938.1162	3936
940.4855	4094
942.8542	4067
945.2242	4202
947.5916	4307
949.9584	4430
952.3266	4602
954.6921	4944
957.0571	5220
959.4233	5474
961.787	5677
964.15	5533
966.5125	5355
968.8742	4979
971.2354	4662
973.5959	4350
975.9559	4130
978.3151	4040
980.6738	3966
983.0338	3891
985.3912	3792
987.7461	3870
990.1022	3845
992.4578	3767
994.8127	3774
997.1689	3791
999.5207	3741
1001.874	3741
1004.226	3848
1006.576	3900
1008.929	3883
1011.28	3816
1013.628	3760
1015.977	3814
1018.324	3831
1020.674	3845
1023.019	3811
1025.366	3850
1027.713	3844
1030.056	3991
1032.399	3875
1034.746	3989
1037.087	3885
1039.431	3938
1041.771	3924
1044.113	3900
1046.454	3853
1048.793	3898
1051.133	3906
1053.471	3856
1055.807	3951
1058.146	3926
1060.483	3911
1062.818	3984
1065.153	4134
1067.489	3987
1069.822	4039
1072.156	4054
1074.488	4010
1076.82	4174
1079.15	4048
1081.48	3984
1083.814	3922
1086.143	3850
1088.471	3903
1090.799	3981
1093.126	3896
1095.452	3850
1097.78	3912
1100.105	3949
1102.43	3896
1104.754	3846
1107.077	3870
1109.4	3949
1111.722	3853
1114.044	3865
1116.365	3735
1118.685	3922
1121.005	3831
1123.324	3905
1125.643	3868
1127.961	3845
1130.278	3782
1132.595	3769
1134.911	3778
1137.226	3849
1139.541	3913
1141.854	3762
1144.167	3872
1146.482	3807
1148.793	3723
1151.105	3836
1153.414	3928
1155.725	3833
1158.033	3893
1160.344	3781
1162.651	3949
1164.959	3826
1167.265	3827
1169.572	3889
1171.878	3932
1174.184	3835
1176.488	3847
1178.79	3893
1181.094	3868
1183.396	3904
1185.699	3843
1188.001	3877
1190.301	3851
1192.6	3920
1194.9	3807
1197.2	3799
1199.497	3837
1201.794	3876
1204.09	3870
1206.387	3903
1208.684	3860
1210.978	3837
1213.272	3922
1215.565	3839
1217.858	3862
1220.15	3968
1222.443	3962
1224.734	3876
1227.024	3969
1229.313	3985
1231.602	4007
1233.892	3962
1236.18	3990
1238.467	4003
1240.754	4137
1243.04	4044
1245.325	4110
1247.612	4041
1249.896	4166
1252.178	4038
1254.461	4129
1256.743	4080
1259.027	4129
1261.308	3987
1263.587	4056
1265.867	4074
1268.146	3969
1270.425	4120
1272.703	4102
1274.981	4101
1277.256	4126
1279.532	4074
1281.808	4057
1284.083	4060
1286.358	4052
1288.63	4097
1290.904	3986
1293.175	3990
1295.449	3950
1297.719	3965
1299.99	3944
1302.259	4014
1304.529	3993
1306.798	4013
1309.065	4027
1311.333	4004
1313.599	4031
1315.866	4017
1318.131	3950
1320.396	3933
1322.66	3982
1324.925	3996
1327.187	3969
1329.448	3981
1331.711	3966
1333.974	3987
1336.234	3910
1338.493	3952
1340.752	4055
1343.01	3997
1345.269	4008
1347.526	3996
1349.784	3964
1352.04	3979
1354.295	3947
1356.552	3855
1358.806	3920
1361.059	4028
1363.312	3955
1365.564	3954
1367.818	3975
1370.069	4119
1372.318	3942
1374.568	4024
1376.817	4011
1379.066	3984
1381.316	4027
1383.564	4099
1385.809	4004
1388.056	4074
1390.301	4090
1392.549	4140
1394.793	4117
1397.036	4079
1399.279	4151
1401.522	4280
1403.763	4219
1406.007	4223
1408.248	4153
1410.487	4181
1412.727	4200
1414.965	4103
1417.205	4171
1419.442	4170
1421.68	4143
1423.915	4176
1426.152	4209
1428.388	4108
1430.623	4161
1432.857	4151
1435.091	4274
1437.323	4296
1439.556	4231
1441.789	4245
1444.019	4295
1446.25	4276
1448.48	4250
1450.708	4192
1452.938	4233
1455.167	4347
1457.394	4287
1459.62	4286
1461.846	4269
1464.073	4266
1466.299	4270
1468.523	4260
1470.746	4184
1472.969	4166
1475.191	4153
1477.415	4120
1479.636	4106
1481.858	4094
1484.078	4148
1486.298	4009
1488.518	4064
1490.736	4047
1492.954	3979
1495.169	4022
1497.386	3979
1499.602	4062
1501.819	4015
1504.034	3995
1506.248	3911
1508.462	4015
1510.675	4036
1512.888	4002
1515.1	3926
1517.311	4003
1519.522	3982
1521.732	3917
1523.942	3907
1526.151	3929
1528.36	3901
1530.566	3915
1532.773	3990
1534.98	4026
1537.187	3950
1539.392	4072
1541.596	3950
1543.801	3966
1546.005	3916
1548.208	4014
1550.411	4098
1552.612	4071
1554.814	4040
1557.013	4053
1559.212	4017
1561.414	4049
1563.612	4076
1565.811	4012
1568.007	4075
1570.203	4125
1572.403	4023
1574.598	4094
1576.792	4056
1578.988	4127
1581.181	4081
1583.376	4087
1585.568	4095
1587.761	4113
1589.952	4079
1592.143	4086
1594.333	4060
1596.524	4090
1598.715	4122
1600.903	4141
1603.091	4150
1605.278	4085
1607.466	4109
1609.652	4180
1611.838	4168
1614.023	4135
1616.207	4145
1618.391	4196
1620.576	4136
1622.759	4211
1624.941	4191
1627.123	4112
1629.304	4183
1631.484	4192
1633.664	4258
1635.844	4252
1638.022	4292
1640.201	4303
1642.38	4195
1644.556	4278
1646.732	4201
1648.908	4292
1651.084	4295
1653.257	4233
1655.433	4285
1657.607	4214
1659.779	4322
1661.951	4324
1664.122	4349
1666.295	4371
1668.467	4304
1670.635	4261
1672.805	4381
1674.973	4280
1677.142	4329
1679.31	4313
1681.478	4311
1683.644	4343
1685.81	4361
1687.975	4313
1690.142	4267
1692.305	4337
1694.468	4232
1696.632	4199
1698.794	4233
1700.957	4160
1703.119	4143
1705.279	4148
1707.439	4196
1709.598	4120
1711.758	4166
1713.917	4164
1716.075	4134
1718.231	4123
1720.388	4138
1722.543	4073
1724.702	4150
1726.856	4055
1729.01	4157
1731.164	4134
1733.317	4097
1735.471	4141
1737.623	4070
1739.774	4108
1741.925	4119
1744.075	4111
1746.225	4183
1748.376	4131
1750.524	4129
1752.672	4126
1754.82	4136
1756.965	4099
1759.113	4118
1761.259	4090
1763.405	4135
1765.549	4254
1767.694	4049
1769.836	4137
1771.981	4166
1774.123	4162
1776.264	4164
1778.405	4207
1780.546	4160
1782.687	4109
1784.827	4172
1786.966	4198
1789.103	4144
1791.242	4165
1793.381	4167
1795.517	4237
1797.653	4154
1799.788	4138
1801.923	4157
1804.057	4191
1806.193	4144
1808.326	4169
1810.457	4171
1812.59	4149
1814.721	4162
1816.855	4173
1818.984	4165
1821.113	4054
1823.244	4142
1825.372	4163
1827.499	4094
1829.63	4122
1831.756	4130
1833.882	4242
1836.007	4135
1838.132	4166
1840.26	4119
1842.384	4140
1844.507	4119
1846.63	4154
1848.752	4062
1850.875	4152
1852.996	4151
1855.118	4060
1857.238	4042
1859.358	4207
1861.477	4127
1863.597	4176
1865.715	4106
1867.832	4101
1869.948	4129
1872.064	4143
1874.181	4118
1876.297	4119
1878.411	4149
1880.526	4226
1882.639	4151
1884.752	4170
1886.865	4156
1888.977	4191
1891.089	4044
1893.2	4024
1895.308	4101
1897.42	4144
1899.53	4139
1901.639	4192
1903.745	4207
1905.853	4188
1907.962	4181
1910.067	4146
1912.174	4155
1914.278	4193
1916.383	4179
1918.486	4121
1920.592	4193
1922.694	4188
1924.797	4178
1926.898	4260
1929	4159
1931.102	4178
1933.203	4222
1935.301	4155
1937.401	4277
1939.499	4233
1941.598	4291
1943.697	4213
1945.793	4210
1947.888	4211
1949.985	4190
1952.08	4253
1954.176	4196
1956.269	4213
1958.364	4163
1960.457	4181
1962.549	4116
1964.642	4178
1966.733	4202
1968.823	4153
1970.913	4233
1973.005	4191
1975.093	4203
1977.184	4164
1979.271	4183
1981.359	4245
1983.446	4136
1985.532	4190
1987.619	4158
1989.705	4107
1991.789	4090
1993.874	4212
1995.956	4219
1998.041	4096
2000.123	4079
2002.206	4246
2004.287	4216
2006.368	4124
2008.449	4160
2010.529	4120
2012.609	4105
2014.688	4134
2016.766	4155
2018.843	4179
2020.922	4125
2022.999	4164
2025.074	4173
2027.15	4134
2029.225	4138
2031.299	4177
2033.375	4094
2035.447	4161
2037.52	4089
2039.592	4138
2041.664	4159
2043.736	4115
2045.807	4143
2047.876	4203
2049.947	4232
2052.015	4196
2054.086	4212
2056.153	4135
2058.221	4199
2060.288	4140
2062.353	4093
2064.42	4097
2066.486	4173
2068.55	4150
2070.614	4195
2072.678	4257
2074.741	4237
2076.805	4238
2078.866	4222
2080.929	4151
2082.99	4114
2085.049	4156
2087.109	4163
2089.17	4194
2091.228	4141
2093.286	4113
2095.344	4148
2097.4	4226
2099.46	4213
2101.516	4177
2103.572	4110
2105.626	4174
2107.679	4235
2109.735	4179
2111.788	4134
2113.841	4180
2115.894	4160
2117.945	4192
2119.997	4241
2122.049	4203
2124.1	4227
2126.148	4108
2128.197	4197
2130.246	4218
2132.296	4148
2134.342	4198
2136.39	4202
2138.437	4236
2140.483	4236
2142.527	4120
2144.574	4179
2146.619	4177
2148.661	4013
2150.705	4193
2152.747	4140
2154.792	4139
2156.832	4186
2158.874	4167
2160.915	4189
2162.954	4166
2164.995	4133
2167.034	4128
2169.072	4117
2171.111	4154
2173.148	4240
2175.186	4121
2177.223	4171
2179.258	4112
2181.294	4057
2183.328	4140
2185.362	4140
2187.398	4136
2189.431	4040
2191.463	4111
2193.495	4144
2195.528	4167
2197.56	4146
2199.59	4062
2201.62	4103
2203.649	4074
2205.678	4098
2207.708	4127
2209.737	4040
2211.764	4031
2213.791	4096
2215.817	4041
2217.843	4008
2219.87	4110
2221.895	4082
2223.919	4033
2225.942	4127
2227.966	3972
2229.988	4144
2232.012	4100
2234.032	4115
2236.054	4046
2238.074	4024
2240.095	4138
2242.116	4094
2244.135	4082
2246.153	4056
2248.171	4033
2250.188	4156
2252.208	4040
2254.223	4100
2256.239	4077
2258.255	4191
2260.269	4160
2262.283	4093
2264.3	4113
2266.312	4145
2268.325	4173
2270.336	4060
2272.349	4103
2274.362	4002
2276.372	4054
2278.383	4031
2280.392	4024
2282.402	4068
2284.409	4040
2286.418	4001
2288.427	4184
2290.433	4076
2292.441	4100
2294.446	4057
2296.453	4015
2298.459	3965
2300.463	4085
2302.466	4086
2304.471	4005
2306.475	4116
2308.477	4039
2310.478	4092
2312.481	4175
2314.481	4079
2316.481	4067
2318.482	4082
2320.482	4035
2322.48	4001
2324.48	4102
2326.478	4024
2328.476	3992
2330.473	4071
2332.469	4051
2334.465	4069
2336.46	4118
2338.454	4050
2340.45	4050
2342.444	4036
2344.437	3959
2346.43	4124
2348.421	4015
2350.414	4040
2352.405	4036
2354.396	4111
2356.386	3955
2358.376	4075
2360.366	4036
2362.355	4018
2364.343	4047
2366.331	3887
2368.317	4033
2370.304	3997
2372.292	4004
2374.278	3968
2376.262	4072
2378.247	3989
2380.23	4062
2382.216	3910
2384.199	3922
2386.181	3968
2388.163	4027
2390.144	3947
2392.127	4071
2394.107	3936
2396.087	4000
2398.066	4019
2400.046	3983
2402.023	4000
2404.004	3938
2405.981	4039
2407.957	4019
2409.934	4005
2411.91	3848
2413.886	3999
2415.862	3958
2417.836	3951
2419.809	3971
2421.784	4012
2423.756	4027
2425.73	3947
2427.701	3932
2429.672	3925
2431.644	3970
2433.615	3983
2435.586	3948
2437.555	3969
2439.523	3957
2441.491	3998
2443.459	3989
2445.428	3965
2447.395	3961
2449.361	3914
2451.327	3855
2453.292	3929
2455.257	3971
2457.223	3877
2459.187	3951
2461.15	4006
2463.113	3936
2465.076	3946
2467.039	3950
2468.999	3997
2470.96	3894
2472.921	3920
2474.881	3908
2476.841	3909
2478.8	4004
2480.759	3938
2482.717	3950
2484.675	3959
2486.63	3868
2488.589	3930
2490.545	3912
2492.5	3983
2494.455	3897
2496.408	3829
2498.364	3970
2500.318	3872
2502.27	3869
2504.223	3891
2506.174	3873
2508.126	3950
2510.078	3887
2512.03	3964
2513.979	3997
2515.927	3934
2517.877	3870
2519.826	3840
2521.775	3936
2523.722	3929
2525.668	3847
2527.616	3976
2529.561	3887
2531.508	3833
2533.452	3940
2535.398	3832
2537.342	3829
2539.284	3934
2541.229	3876
2543.173	3959
2545.114	3870
2547.055	3899
2548.996	3880
2550.938	3902
2552.878	3904
2554.817	3899
2556.756	3899
2558.695	3820
2560.633	3814
2562.572	3854
2564.509	3896
2566.445	3823
2568.382	3900
2570.317	3882
2572.254	3885
2574.189	3856
2576.123	3842
2578.057	3843
2579.99	3929
2581.923	3903
2583.855	3887
2585.788	3851
2587.719	3866
2589.65	3968
2591.579	3926
2593.511	3884
2595.44	3906
2597.37	3895
2599.297	3906
2601.225	3920
2603.153	3876
2605.08	3971
2607.007	3934
2608.932	3845
2610.858	3978
2612.782	3924
2614.709	3951
2616.632	3884
2618.556	3836
2620.478	3952
2622.401	3879
2624.324	3852
2626.247	3953
2628.167	3918
2630.088	3903
2632.008	3880
2633.928	3963
2635.848	3926
2637.766	3964
2639.684	3870
2641.603	3962
2643.519	3864
2645.437	3937
2647.353	3911
2649.27	3958
2651.184	3925
2653.099	3948
2655.014	3988
2656.928	3785
2658.842	3896
2660.755	3875
2662.667	3904
2664.579	4015
2666.491	3871
2668.402	3903
2670.312	3957
2672.222	3956
2674.132	3848
2676.042	3924
2677.951	3882
2679.859	3892
2681.766	3811
2683.674	3923
2685.582	3802
2687.488	3846
2689.392	3950
2691.298	3858
2693.202	3865
2695.107	3941
2697.012	3911
2698.914	3886
2700.817	3878
2702.72	3881
2704.622	3792
2706.524	3917
2708.425	3853
2710.326	3906
2712.225	3931
2714.125	3872
2716.024	3857
2717.923	3858
2719.822	3845
2721.719	3795
2723.616	3817
2725.512	3842
2727.41	3806
2729.305	3895
2731.201	3828
2733.095	3807
2734.99	3801
2736.884	3916
2738.778	3847
2740.67	3909
2742.562	3853
2744.455	3939
2746.346	3802
2748.238	3851
2750.129	3850
2752.018	3941
2753.907	3810
2755.797	3886
2757.687	3872
2759.575	3796
2761.462	3936
2763.349	3822
2765.237	3795
2767.124	3861
2769.009	3775
2770.894	3916
2772.779	3834
2774.663	3822
2776.547	3783
2778.431	3806
2780.314	3833
2782.197	3836
2784.078	3790
2785.96	3845
2787.842	3840
2789.723	3862
2791.603	3906
2793.483	3794
2795.362	3722
2797.241	3864
2799.121	3885
2800.997	3797
2802.874	3869
2804.751	3805
2806.628	3812
2808.506	3880
2810.38	3850
2812.255	3759
2814.13	3865
2816.003	3865
2817.878	3831
2819.752	3739
2821.623	3857
2823.496	3817
2825.368	3728
2827.238	3780
2829.111	3819
2830.98	3732
2832.851	3795
2834.719	3787
2836.589	3823
2838.458	3839
2840.327	3847
2842.193	3903
2844.061	3802
2845.927	3821
2847.794	3828
2849.66	3932
2851.525	3843
2853.39	3868
2855.254	3862
2857.117	3913
2858.983	3911
2860.845	3980
2862.707	3855
2864.569	4014
2866.431	4075
2868.293	4114
2870.154	4017
2872.013	4096
2873.873	4293
2875.733	4221
2877.592	4312
2879.451	4328
2881.309	4356
2883.166	4347
2885.022	4391
2886.879	4384
2888.736	4443
2890.591	4378
2892.446	4388
2894.301	4339
2896.155	4401
2898.009	4355
2899.863	4438
2901.716	4365
2903.568	4402
2905.419	4394
2907.27	4421
2909.123	4479
2910.973	4492
2912.824	4370
2914.673	4462
2916.521	4509
2918.372	4630
2920.22	4579
2922.067	4682
2923.914	4709
2925.761	4740
2927.607	4795
2929.455	4893
2931.301	4886
2933.144	5007
2934.99	4922
2936.833	5225
2938.678	5138
2940.522	5195
2942.364	5338
2944.207	5220
2946.048	5363
2947.891	5273
2949.731	5305
2951.571	5237
2953.412	5237
2955.25	5169
2957.09	5156
2958.93	5101
2960.767	5037
2962.606	5044
2964.443	4962
2966.279	4926
2968.116	4862
2969.953	4725
2971.788	4637
2973.623	4756
2975.457	4713
2977.292	4601
2979.127	4555
2980.959	4583
2982.792	4506
2984.624	4547
2986.455	4472
2988.288	4471
2990.119	4597
2991.949	4467
2993.779	4424
2995.608	4388
2997.439	4248
2999.268	4296
3001.096	4212
3002.923	4171
3004.751	4118
3006.578	4098
3008.406	4160
3010.232	4017
3012.057	4076
3013.883	4054
3015.706	3917
3017.532	3868
3019.356	3930
3021.179	3898
3023.002	3804
3024.823	3880
3026.646	3812
3028.469	3772
3030.289	3770
3032.11	3715
3033.93	3749
3035.749	3665
3037.57	3700
3039.39	3677
3041.207	3729
3043.026	3731
3044.842	3733
3046.661	3747
3048.477	3652
3050.294	3667
3052.109	3768
3053.925	3702
3055.739	3717
3057.555	3729
3059.368	3699
3061.181	3677
3062.995	3683
3064.807	3786
3066.62	3661
3068.433	3714
3070.243	3705
3072.054	3689
3073.865	3596
3075.675	3681
3077.485	3657
3079.293	3626
3081.102	3701
3082.911	3725
3084.719	3666
3086.527	3637
3088.333	3664
3090.139	3585
3091.945	3610
3093.75	3671
3095.557	3650
3097.361	3674
3099.165	3637
3100.969	3576
3102.772	3557
3104.575	3597
3106.379	3661
3108.181	3610
3109.982	3659
3111.783	3614
3113.584	3608
3115.386	3546
3117.186	3630
3118.985	3507
3120.783	3526
3122.582	3633
3124.381	3509
3126.179	3550
3127.975	3538
3129.772	3597
3131.569	3596
3133.365	3506
3135.161	3494
3136.956	3536
3138.751	3528
3140.544	3541
3142.338	3481
3144.132	3571
3145.925	3537
3147.717	3507
3149.509	3538
3151.301	3557
3153.091	3503
3154.884	3501
3156.673	3526
3158.462	3504
3160.252	3590
3162.041	3576
3163.831	3573
3165.618	3497
3167.405	3556
3169.193	3581
3170.979	3435
3172.767	3510
3174.553	3572
3176.338	3475
3178.123	3489
3179.907	3496
3181.692	3645
3183.477	3462
3185.259	3472
3187.042	3485
3188.824	3499
3190.607	3524
3192.389	3511
3194.17	3476
3195.951	3554
3197.73	3473
3199.51	3493
3201.289	3500
3203.07	3520
3204.848	3476
3206.626	3440
3208.403	3570
3210.18	3485
3211.959	3480
3213.735	3492
3215.511	3550
3217.285	3526
3219.06	3519
3220.836	3502
3222.611	3528
3224.384	3561
3226.158	3486
3227.929	3532
3229.702	3492
3231.476	3517
3233.248	3587
3235.018	3513
3236.789	3439
3238.56	3560
3240.33	3547
3242.1	3549
3243.869	3507
3245.637	3506
3247.405	3467
3249.172	3529
3250.941	3535
3252.707	3510
3254.474	3582
3256.24	3486
3258.006	3475
3259.772	3429
3261.537	3463
3263.301	3477
3265.065	3571
3266.828	3517
3268.592	3560
3270.355	3529
3272.117	3560
3273.878	3570
3275.64	3650
3277.401	3574
3279.162	3551
3280.922	3562
3282.682	3614
3284.441	3560
3286.199	3521
3287.959	3525
3289.716	3578
3291.475	3564
3293.232	3527
3294.988	3459
3296.744	3503
3298.501	3533
3300.256	3490
3302.011	3590
3303.766	3505
3305.52	3649
3307.275	3566
3309.028	3607
3310.781	3525
3312.533	3573
3314.285	3611
3316.038	3547
3317.789	3519
3319.54	3466
3321.289	3553
3323.039	3490
3324.789	3536
3326.539	3548
3328.288	3566
3330.035	3603
3331.783	3559
3333.531	3554
3335.28	3525
3337.025	3545
3338.771	3517
3340.518	3502
3342.262	3527
3344.009	3556
3345.753	3516
3347.497	3419
3349.24	3513
3350.983	3473
3352.726	3528
3354.469	3614
3356.212	3460
3357.952	3500
3359.694	3441
3361.434	3516
3363.176	3384
3364.916	3432
3366.654	3504
3368.394	3494
3370.132	3434
3371.871	3433
3373.61	3467
3375.346	3480
3377.083	3464
3378.82	3386
3380.556	3420
3382.292	3434
3384.027	3449
3385.763	3418
3387.497	3422
3389.231	3421
3390.965	3453
3392.698	3462
3394.431	3424
3396.164	3419
3397.896	3493
3399.627	3349
3401.36	3348
3403.09	3396
3404.82	3476
3406.55	3358
3408.279	3353
3410.01	3447
3411.738	3323
3413.467	3361
3415.194	3399
3416.92	3367
3418.647	3294
3420.375	3407
3422.102	3357
3423.827	3400
3425.553	3338
3427.277	3308
3429.003	3326
3430.727	3321
3432.451	3482
3434.173	3304
3435.896	3318
3437.62	3347
3439.343	3301
3441.063	3323
3442.785	3287
3444.505	3251
3446.226	3318
3447.948	3315
3449.666	3268
3451.386	3289
3453.104	3302
3454.823	3336
3456.541	3281
3458.259	3257
3459.976	3207
3461.693	3261
3463.408	3246
3465.125	3278
3466.841	3252
3468.556	3245
3470.271	3363
3471.985	3238
3473.698	3230
3475.414	3216
3477.126	3266
3478.838	3272
3480.55	3164
3482.263	3231
3483.975	3173
3485.686	3228
3487.396	3125
3489.106	3275
3490.817	3197
3492.526	3125
3494.236	3167
3495.944	3098
3497.652	3162
3499.359	3152
3501.066	3169
3502.775	3088
3504.481	3067
3506.187	3105
3507.893	3119
3509.598	3145
3511.304	3112
3513.009	3083
3514.713	3166
3516.417	3163
3518.12	3124
3519.821	3103
3521.525	3133
3523.228	3108
3524.929	3135
3526.631	3079
3528.33	3052
3530.032	3027
3531.733	3136
3533.433	3096
3535.131	3092
3536.83	3087
3538.529	3045
3540.227	3021
3541.925	3073
3543.623	3023
3545.319	3028
3547.016	3063
3548.712	2995
3550.408	3056
3552.103	3010
3553.798	3049
3555.491	3037
3557.188	3036
3558.88	3060
3560.574	2997
3562.266	3024
3563.959	2988
3565.651	3010
3567.343	2970
3569.035	3014
3570.725	3032
3572.415	2998
3574.106	2905
3575.797	2933
3577.485	3017
3579.174	2983
3580.863	2999
3582.551	2943
3584.238	2963
3585.926	2923
3587.613	2933
3589.3	2848
3590.986	2988
3592.671	3000
3594.357	2940
3596.042	2959
3597.726	2928
3599.41	2959
3601.094	2828
3602.778	2893
3604.461	2887
3606.143	2912
3607.825	2925
3609.507	2868
3611.188	2890
3612.87	2834
3614.551	2854
3616.229	2862
3617.909	2774
3619.589	2826
3621.269	2822
3622.948	2915
3624.625	2790
3626.302	2806
3627.98	2855
3629.657	2905
3631.334	2828
3633.01	2878
3634.686	2749
3636.361	2759
3638.036	2854
3639.712	2726
3641.385	2809
3643.06	2717
3644.732	2815
3646.405	2728
3648.08	2770
3649.751	2777
3651.424	2723
3653.094	2757
3654.766	2770
3656.436	2806
3658.106	2796
3659.777	2759
3661.446	2727
3663.115	2718
3664.783	2795
3666.452	2756
3668.121	2691
3669.788	2656
3671.454	2682
3673.121	2791
3674.789	2756
3676.455	2652
3678.12	2734
3679.784	2693
3681.45	2698
3683.114	2670
3684.779	2704
3686.442	2758
3688.105	2684
3689.768	2730
3691.43	2748
3693.093	2629
3694.754	2773
3696.415	2659
3698.076	2683
3699.736	2651
3701.396	2662
3703.057	2662
3704.716	2665
3706.375	2701
3708.034	2673
3709.692	2683
3711.351	2652
3713.008	2697
3714.665	2589
3716.321	2645
3717.977	2647
3719.634	2626
3721.29	2649
3722.945	2647
3724.598	2635
3726.253	2668
3727.907	2706
3729.561	2699
3731.214	2638
3732.867	2635
3734.518	2558
3736.171	2662
3737.824	2593
3739.474	2639
3741.125	2661
3742.775	2597
3744.425	2572
3746.074	2611
3747.725	2655
3749.373	2541
3751.022	2586
3752.669	2621
3754.318	2602
3755.966	2563
3757.612	2602
3759.259	2622
3760.905	2629
3762.55	2612
3764.197	2618
3765.842	2633
3767.486	2601
3769.131	2595
3770.774	2617
3772.417	2571
3774.061	2549
3775.705	2525
3777.347	2547
3778.988	2611
3780.629	2585
3782.271	2538
3783.912	2592
3785.552	2560
3787.192	2603
3788.831	2559
3790.472	2545
3792.112	2582
3793.75	2539
3795.388	2530
3797.024	2502
3798.661	2533
3800.3	2545
3801.936	2479
3803.572	2520
3805.208	2498
3806.844	2486
3808.48	2519
3810.115	2469
3811.748	2536
3813.382	2501
3815.016	2511
3816.649	2488
3818.283	2481
3819.914	2498
3821.547	2485
3823.178	2509
3824.809	2529
3826.441	2477
3828.072	2522
3829.701	2517
3831.331	2496
3832.96	2439
3834.591	2516
3836.219	2487
3837.847	2444
3839.475	2499
3841.102	2512
3842.729	2455
3844.357	2540
3845.984	2442
3847.609	2469
3849.234	2475
3850.86	2420
3852.485	2460
3854.11	2466
3855.734	2464
3857.357	2467
3858.981	2403
3860.603	2468
3862.227	2463
3863.848	2441
3865.471	2440
3867.092	2466
3868.713	2418
3870.334	2486
3871.954	2440
3873.575	2432
3875.194	2471
3876.813	2455
3878.433	2431
3880.051	2430
3881.669	2408
3883.286	2444
3884.904	2437
3886.52	2386
3888.138	2447
3889.754	2313
3891.37	2464
3892.985	2434
3894.6	2412
3896.216	2396
3897.831	2421
3899.444	2410
3901.058	2414
3902.67	2451
3904.283	2394
3905.897	2337
3907.509	2427
3909.121	2373
3910.731	2412
3912.342	2405
3913.954	2393
3915.563	2398
3917.174	2462
3918.783	2463
3920.391	2410
3922.002	2427
3923.611	2420
3925.218	2471
3926.826	2397
3928.432	2393
3930.039	2439
3931.647	2359
3933.253	2370
3934.859	2397
3936.464	2377
3938.068	2409
3939.675	2374
3941.278	2378
3942.883	2413
3944.486	2339
3946.089	2420
3947.692	2382
3949.295	2414
3950.898	2367
3952.499	2420
3954.1	2316
3955.7	2347
3957.303	2377
3958.903	2391
3960.502	2369
3962.101	2352
3963.7	2376
3965.301	2389
3966.899	2324
3968.497	2337
3970.094	2311
3971.691	2347
3973.288	2341
3974.885	2340
3976.481	2336
3978.077	2381
3979.672	2319
3981.267	2361
3982.863	2302
3984.457	2387
3986.051	2328
3987.645	2307
3989.238	2320
3990.831	2340
3992.425	2291
3994.017	2308
3995.607	2270
3997.199	2289
3998.79	2250
4000.382	2264
4001.973	2289
4003.561	2311
4005.151	2261
4006.741	2287
4008.331	2285
4009.918	2316
4011.507	2291
4013.095	2165
4014.681	2251
4016.269	2307
4017.856	2197
4019.443	2278
4021.028	2291
4022.614	2239
4024.199	2292
4025.785	2246
4027.37	2270
4028.953	2186
4030.536	2269
4032.12	2264
4033.704	2275
4035.287	2143
4036.869	2253
4038.45	2144
4040.032	2236
4041.613	2217
4043.195	2179
4044.776	2213
4046.356	2222
4047.935	2178
4049.515	2185
4051.095	2242
4052.674	2265
4054.251	2207
4055.829	2232
4057.406	2217
4058.985	2177
4060.562	2207
4062.139	2160
4063.715	2218
4065.29	2183
4066.865	2155
4068.442	2147
4070.016	2192
4071.59	2170
4073.164	2199
4074.738	2198
4076.312	2235
4077.885	2109
4079.458	2192
4081.03	2176
4082.602	2144
4084.173	2174
4085.745	2108
4087.315	2149
4088.886	2252
4090.456	2148
4092.026	2149
4093.596	2188
4095.165	2124
4096.734	2156
4098.301	2158
4099.869	2180
4101.437	2176
4103.006	2182
4104.572	2153
4106.139	2149
4107.704	2160
4109.27	2144
4110.837	2063
4112.401	2137
4113.966	2117
4115.53	2110
4117.094	2135
4118.659	2146
4120.223	2211
4121.785	2112
4123.347	2148
4124.909	2089
4126.471	2086
4128.034	2082
4129.595	2147
4131.155	2130
4132.716	2125
4134.275	2084
4135.836	2116
4137.395	2137
4138.955	2113
4140.513	2140
4142.071	2090
4143.628	2110
4145.188	2115
4146.745	2024
4148.302	2067
4149.858	2122
4151.414	2133
4152.971	2091
4154.526	2037
4156.081	2100
4157.635	2034
4159.189	2102
4160.745	2098
4162.298	2072
4163.852	2071
4165.405	2070
4166.957	2062
4168.51	2031
4170.063	2038
4171.614	2043
4173.166	2032
4174.717	1985
4176.267	2055
4177.817	2023
4179.368	2032
4180.917	2024
4182.466	2014
4184.016	2025
4185.564	2075
4187.112	2050
4188.66	2024
4190.207	2055
4191.754	2040
4193.301	2058
4194.848	2041
4196.394	2044
4197.94	1986
4199.484	2004
4201.03	2019
4202.575	2020
4204.12	2084
4205.663	2005
4207.207	2022
4208.75	2029
4210.292	1927
4211.836	1939
4213.378	2065
4214.92	2008
4216.46	1981
4218.002	1985
4219.544	1965
4221.083	2029
4222.625	1956
4224.164	1979
4225.703	1982
4227.244	1940
4228.782	1948
4230.32	1948
4231.857	2016
4233.395	1963
4234.933	1946
4236.471	2006
4238.007	2043
4239.542	2017
4241.078	1980
4242.614	1926
4244.15	1927
4245.685	1964
4247.219	2009
4248.753	1951
4250.287	1944
4251.82	1958
4253.354	1939
4254.887	2026
4256.419	1991
4257.951	1981
4259.483	1988
4261.016	1982
4262.547	1975
4264.078	1961
4265.608	1914
4267.137	1925
4268.668	1911
4270.197	1947
4271.727	1972
4273.254	1910
4274.783	1973
4276.311	1911
4277.84	1988
4279.366	1955
4280.894	1933
4282.42	1943
4283.946	1930
4285.473	1939
4286.998	1947
4288.523	1951
4290.047	1952
4291.572	1890
4293.096	1966
4294.622	1927
4296.144	1906
4297.668	1966
4299.19	1860
4300.713	1929
4302.236	1937
4303.758	1903
4305.279	1853
4306.799	1917
4308.321	1905
4309.842	1889
4311.361	1897
4312.882	1882
4314.401	1877
