400.0961	2817
402.6185	2847
405.1424	2779
407.6635	2782
410.1838	2878
412.7035	2830
415.2225	2871
417.7388	2845
420.2585	3003
422.7754	2988
425.2917	3020
427.8072	3037
430.3221	3030
432.8363	3029
435.3498	3031
437.8626	3059
440.3727	3029
442.8841	3070
445.3969	3023
447.907	3025
450.4142	2993
452.9229	3003
455.4289	3011
457.9362	3108
460.4449	3037
462.9488	3014
465.454	2979
467.9566	2986
470.4604	2927
472.9637	2910
475.4662	3021
477.966	2958
480.4671	2940
482.9656	2921
485.4633	3057
487.9645	2968
490.4608	2963
492.9566	2966
495.4536	2885
497.948	2992
500.4437	3052
502.9387	3004
505.431	3007
507.9226	3006
510.4136	2991
512.9079	3012
515.3975	3051
517.8864	3038
520.3746	3049
522.8622	3077
525.3491	2986
527.8394	3118
530.3249	3057
532.8098	3033
535.2939	3034
537.7774	3008
540.2623	3112
542.7444	3037
545.2259	3017
547.7067	3081
550.1868	3078
552.6683	3026
555.147	3081
557.6231	3128
560.1005	3062
562.5773	3143
565.0534	3180
567.5308	3176
570.0056	3108
572.4776	3128
574.951	3165
577.4237	3225
579.8978	3249
582.3671	3239
584.8378	3265
587.3079	3282
589.7773	3129
592.244	3281
594.714	3252
597.1793	3261
599.6461	3217
602.1121	3183
604.5754	3106
607.0421	3104
609.5042	3214
611.9675	3099
614.4282	3182
616.8902	3179
619.3515	3154
621.8122	3129
624.2702	3115
626.7296	3135
629.1863	3090
631.6423	3107
634.1017	2993
636.5563	3136
639.0104	3108
641.4658	3103
643.9185	3202
646.3725	3185
648.8239	3205
651.2766	3110
653.7266	3106
656.176	3045
658.6247	3124
661.0748	3092
663.5242	3143
665.9709	3096
668.417	3168
670.8624	3151
673.3092	3197
675.7533	3166
678.1968	3193
680.6395	3120
683.0817	3116
685.5251	3173
687.9659	3209
690.4061	3190
692.8456	3226
695.2844	3223
697.7226	3122
700.1621	3208
702.599	3216
705.0332	3310
707.4688	3351
709.9036	3219
712.3399	3298
714.7735	3270
717.2044	3331
719.6367	3250
722.0683	3212
724.4993	3291
726.9296	3252
729.3593	3221
731.7883	3238
734.2147	3392
736.6423	3280
739.0714	3355
741.4958	3295
743.9216	3355
746.3447	3338
748.7691	3382
751.1929	3347
753.616	3414
756.0366	3408
758.4584	3368
760.8776	3377
763.2982	3373
765.718	3492
768.1373	3511
770.5539	3395
772.9698	3427
775.3871	3383
777.8038	3407
780.2178	3381
782.6332	3398
785.0459	3440
787.458	3492
789.8714	3405
792.2842	3460
794.6943	3497
797.1038	3398
799.5127	3481
801.9209	3394
804.3324	3438
806.7393	3388
809.1456	3544
811.5513	3463
813.9562	3497
816.3625	3494
818.7663	3470
821.1693	3472
823.5718	3486
825.9735	3531
828.3746	3490
830.7771	3477
833.177	3501
835.5762	3542
837.9747	3534
840.3727	3544
842.772	3600
845.1666	3534
847.5626	3550
849.958	3678
852.3527	3671
854.7488	3719
857.1403	3548
859.5331	3640
861.9253	3570
864.3168	3636
866.7057	3623
869.098	3472
871.4876	3607
873.8746	3579
876.263	3501
878.6487	3620
881.0378	3636
883.4243	3639
885.8081	3605
888.1933	3561
890.5759	3552
892.9598	3591
895.343	3611
897.7256	3548
900.1057	3638
902.4871	3679
904.8659	3594
907.246	3734
909.6254	3715
912.0023	3672
914.3786	3799
916.7562	3799
919.1331	3745
921.5074	3849
923.8831	3891
926.2562	3832
928.6287	3737
931.0005	3855
933.3757	3811
935.7462	3843
938.1162	3897
940.4855	3930
942.8542	4036
945.2242	4072
947.5916	4205
949.9584	4250
952.3266	4430
954.6921	4768
957.0571	5143
959.4233	5291
961.787	5357
964.15	5196
966.5125	4990
968.8742	4794
971.2354	4513
973.5959	4252
975.9559	3996
978.3151	4009
980.6738	3847
983.0338	3781
985.3912	3726
987.7461	3818
990.1022	3784
992.4578	3793
994.8127	3824
997.1689	3848
999.5207	3762
1001.874	3844
1004.226	3811
1006.576	3865
1008.929	3756
1011.28	3757
1013.628	3817
1015.977	3855
1018.324	3821
1020.674	3751
1023.019	3818
1025.366	3800
1027.713	3818
1030.056	3850
1032.399	3866
1034.746	3840
1037.087	3796
1039.431	3822
1041.771	3933
1044.113	3990
1046.454	3850
1048.793	3811
1051.133	3951
1053.471	3906
1055.807	3919
1058.146	3967
1060.483	3873
1062.818	3886
1065.153	3934
1067.489	3961
1069.822	3955
1072.156	4012
1074.488	4008
1076.82	4012
1079.15	3923
1081.48	3958
1083.814	3902
1086.143	3895
1088.471	3879
1090.799	3855
1093.126	3793
1095.452	3886
1097.78	3872
1100.105	3781
1102.43	3841
1104.754	3794
1107.077	3913
1109.4	3827
1111.722	3759
1114.044	3813
1116.365	3805
1118.685	3891
1121.005	3890
1123.324	3858
1125.643	3832
1127.961	3817
1130.278	3788
1132.595	3853
1134.911	3885
1137.226	3815
1139.541	3799
1141.854	3783
1144.167	3799
1146.482	3801
1148.793	3830
1151.105	3873
1153.414	3926
1155.725	3841
1158.033	3838
1160.344	3866
1162.651	3884
1164.959	3803
1167.265	3806
1169.572	3782
1171.878	3855
1174.184	3892
1176.488	3873
1178.79	3889
1181.094	3831
1183.396	3871
1185.699	3845
1188.001	3817
1190.301	3870
1192.6	3844
1194.9	3954
1197.2	3830
1199.497	3901
1201.794	3919
1204.09	3921
1206.387	3868
1208.684	3840
1210.978	3875
1213.272	3782
1215.565	3973
1217.858	3846
1220.15	3936
1222.443	3863
1224.734	3919
1227.024	3997
1229.313	3894
1231.602	4033
1233.892	4105
1236.18	4020
1238.467	4062
1240.754	4072
1243.04	4102
1245.325	4122
1247.612	4111
1249.896	4091
1252.178	4062
1254.461	4068
1256.743	4014
1259.027	4123
1261.308	4097
1263.587	4064
1265.867	4155
1268.146	4017
1270.425	4037
1272.703	4207
1274.981	4075
1277.256	4086
1279.532	4099
1281.808	4088
1284.083	3966
1286.358	4064
1288.63	4082
1290.904	3983
1293.175	4114
1295.449	4061
1297.719	3985
1299.99	3984
1302.259	3976
1304.529	3992
1306.798	4054
1309.065	3986
1311.333	4026
1313.599	3949
1315.866	3965
1318.131	3982
1320.396	4037
1322.66	3925
1324.925	4025
1327.187	4030
1329.448	4033
1331.711	4041
1333.974	4048
1336.234	4060
1338.493	4064
1340.752	3980
1343.01	4048
1345.269	4041
1347.526	3975
1349.784	3905
1352.04	4029
1354.295	3979
1356.552	4007
1358.806	3962
1361.059	3998
1363.312	4020
1365.564	4039
1367.818	4070
1370.069	4037
1372.318	4104
1374.568	3982
1376.817	4107
1379.066	4053
1381.316	4099
1383.564	4113
1385.809	4128
1388.056	4122
1390.301	4114
1392.549	4167
1394.793	4168
1397.036	4216
1399.279	4244
1401.522	4104
1403.763	4239
1406.007	4166
1408.248	4129
1410.487	4169
1412.727	4170
1414.965	4157
1417.205	4173
1419.442	4163
1421.68	4232
1423.915	4224
1426.152	4231
1428.388	4129
1430.623	4276
1432.857	4275
1435.091	4190
1437.323	4241
1439.556	4276
1441.789	4282
1444.019	4247
1446.25	4293
1448.48	4303
1450.708	4237
1452.938	4234
1455.167	4340
1457.394	4469
1459.62	4332
1461.846	4357
1464.073	4360
1466.299	4332
1468.523	4266
1470.746	4229
1472.969	4254
1475.191	4106
1477.415	4211
1479.636	4050
1481.858	4098
1484.078	4038
1486.298	4050
1488.518	4046
1490.736	4056
1492.954	3960
1495.169	4092
1497.386	3947
1499.602	3930
1501.819	4062
1504.034	4020
1506.248	3993
1508.462	3994
1510.675	4117
1512.888	4048
1515.1	3907
1517.311	3927
1519.522	3963
1521.732	4010
1523.942	4039
1526.151	3918
1528.36	3976
1530.566	3943
1532.773	4063
1534.98	3942
1537.187	3944
1539.392	3960
1541.596	4084
1543.801	4028
1546.005	4001
1548.208	3995
1550.411	4089
1552.612	3938
1554.814	4022
1557.013	4012
1559.212	4093
1561.414	4101
1563.612	4063
1565.811	4079
1568.007	4148
1570.203	4128
1572.403	4069
1574.598	4131
1576.792	4033
1578.988	4087
1581.181	3992
1583.376	4087
1585.568	4099
1587.761	4098
1589.952	4116
1592.143	4094
1594.333	4123
1596.524	4030
1598.715	4168
1600.903	4199
1603.091	4181
1605.278	4127
1607.466	4158
1609.652	4193
1611.838	4184
1614.023	4091
1616.207	4176
1618.391	4151
1620.576	4140
1622.759	4208
1624.941	4165
1627.123	4218
1629.304	4340
1631.484	4153
1633.664	4316
1635.844	4236
1638.022	4336
1640.201	4260
1642.38	4214
1644.556	4246
1646.732	4284
1648.908	4244
1651.084	4239
1653.257	4298
1655.433	4313
1657.607	4291
1659.779	4367
1661.951	4297
1664.122	4338
1666.295	4364
1668.467	4264
1670.635	4292
1672.805	4352
1674.973	4264
1677.142	4309
1679.31	4352
1681.478	4236
1683.644	4282
1685.81	4279
1687.975	4303
1690.142	4377
1692.305	4266
1694.468	4303
1696.632	4235
1698.794	4241
1700.957	4140
1703.119	4129
1705.279	4133
1707.439	4233
1709.598	4156
1711.758	4154
1713.917	4233
1716.075	4149
1718.231	4094
1720.388	4142
1722.543	4130
1724.702	4159
1726.856	4095
1729.01	4220
1731.164	4116
1733.317	4023
1735.471	4080
1737.623	4095
1739.774	4108
1741.925	4112
1744.075	4068
1746.225	4069
1748.376	4097
1750.524	4232
1752.672	4107
1754.82	4112
1756.965	4197
1759.113	4088
1761.259	4220
1763.405	4123
1765.549	4083
1767.694	4218
1769.836	4145
1771.981	4124
1774.123	4145
1776.264	4194
1778.405	4127
1780.546	4214
1782.687	4095
1784.827	4155
1786.966	4115
1789.103	4147
1791.242	4143
1793.381	4106
1795.517	4140
1797.653	4151
1799.788	4116
1801.923	4142
1804.057	4182
1806.193	4139
1808.326	4120
1810.457	4246
1812.59	4119
1814.721	4130
1816.855	4119
1818.984	4157
1821.113	4214
1823.244	4174
1825.372	4140
1827.499	4104
1829.63	4053
1831.756	4079
1833.882	4121
1836.007	4148
1838.132	4056
1840.26	4171
1842.384	4137
1844.507	4158
1846.63	4241
1848.752	4110
1850.875	4088
1852.996	4122
1855.118	4131
1857.238	4101
1859.358	4121
1861.477	4079
1863.597	4163
1865.715	4055
1867.832	4132
1869.948	4195
1872.064	4112
1874.181	4103
1876.297	4038
1878.411	4049
1880.526	4137
1882.639	4119
1884.752	4127
1886.865	4073
1888.977	4142
1891.089	4084
1893.2	4109
1895.308	4143
1897.42	4164
1899.53	4149
1901.639	4093
1903.745	4138
1905.853	4161
1907.962	4118
1910.067	4090
1912.174	4158
1914.278	4233
1916.383	4163
1918.486	4207
1920.592	4189
1922.694	4231
1924.797	4123
1926.898	4162
1929	4229
1931.102	4234
1933.203	4176
1935.301	4214
1937.401	4127
1939.499	4203
1941.598	4250
1943.697	4262
1945.793	4155
1947.888	4165
1949.985	4214
1952.08	4131
1954.176	4215
1956.269	4250
1958.364	4152
1960.457	4259
1962.549	4131
1964.642	4160
1966.733	4211
1968.823	4203
1970.913	4244
1973.005	4187
1975.093	4150
1977.184	4129
1979.271	4233
1981.359	4149
1983.446	4171
1985.532	4179
1987.619	4189
1989.705	4188
1991.789	4202
1993.874	4160
1995.956	4225
1998.041	4197
2000.123	4092
2002.206	4203
2004.287	4212
2006.368	4199
2008.449	4147
2010.529	4189
2012.609	4068
2014.688	4098
2016.766	4077
2018.843	4158
2020.922	4237
2022.999	4116
2025.074	4067
2027.15	4138
2029.225	4062
2031.299	4195
2033.375	4161
2035.447	4133
2037.52	4165
2039.592	4149
2041.664	4243
2043.736	4124
2045.807	4172
2047.876	4102
2049.947	4112
2052.015	4099
2054.086	4142
2056.153	4259
2058.221	4122
2060.288	4115
2062.353	4147
2064.42	4165
2066.486	4091
2068.55	4126
2070.614	4179
2072.678	4126
2074.741	4122
2076.805	4168
2078.866	4203
2080.929	4178
2082.99	4162
2085.049	4029
2087.109	4241
2089.17	4175
2091.228	4212
2093.286	4163
2095.344	4168
2097.4	4204
2099.46	4192
2101.516	4147
2103.572	4202
2105.626	4080
2107.679	4131
2109.735	4134
2111.788	4081
2113.841	4188
2115.894	4127
2117.945	4154
2119.997	4132
2122.049	4162
2124.1	4096
2126.148	4185
2128.197	4192
2130.246	4175
2132.296	4164
2134.342	4173
2136.39	4150
2138.437	4099
2140.483	4246
2142.527	4146
2144.574	4140
2146.619	4143
2148.661	4185
2150.705	4118
2152.747	4105
2154.792	4168
2156.832	4135
2158.874	4066
2160.915	4101
2162.954	4120
2164.995	4190
2167.034	4127
2169.072	4110
2171.111	4106
2173.148	4086
2175.186	4186
2177.223	4053
2179.258	4101
2181.294	4138
2183.328	4098
2185.362	4074
2187.398	4083
2189.431	4106
2191.463	4096
2193.495	4084
2195.528	4100
2197.56	4107
2199.59	4060
2201.62	4047
2203.649	4181
2205.678	4158
2207.708	4034
2209.737	4050
2211.764	4097
2213.791	4072
2215.817	4066
2217.843	3949
2219.87	4022
2221.895	4133
2223.919	4037
2225.942	4085
2227.966	4151
2229.988	4104
2232.012	3980
2234.032	4086
2236.054	4108
2238.074	4004
2240.095	4060
2242.116	4147
2244.135	4035
2246.153	4099
2248.171	4065
2250.188	4041
2252.208	3988
2254.223	4100
2256.239	4033
2258.255	4102
2260.269	4106
2262.283	4137
2264.3	4119
2266.312	4108
2268.325	4009
2270.336	4143
2272.349	4121
2274.362	4068
2276.372	4059
2278.383	4064
2280.392	4020
2282.402	4071
2284.409	4152
2286.418	4023
2288.427	4081
2290.433	4073
2292.441	4075
2294.446	3993
2296.453	4063
2298.459	3998
2300.463	3987
2302.466	4100
2304.471	4088
2306.475	4058
2308.477	4006
2310.478	4068
2312.481	3949
2314.481	4077
2316.481	4076
2318.482	4067
2320.482	4040
2322.48	4168
2324.48	3983
2326.478	4015
2328.476	4142
2330.473	3956
2332.469	4039
2334.465	4047
2336.46	4090
2338.454	3967
2340.45	3981
2342.444	4005
2344.437	4127
2346.43	4044
2348.421	4050
2350.414	4099
2352.405	3962
2354.396	3999
2356.386	3972
2358.376	3978
2360.366	4091
2362.355	4021
2364.343	3945
2366.331	3951
2368.317	4103
2370.304	3963
2372.292	4009
2374.278	3879
2376.262	4015
2378.247	4020
2380.23	3934
2382.216	3938
2384.199	3960
2386.181	3941
2388.163	3895
2390.144	3907
2392.127	3922
2394.107	3939
2396.087	3976
2398.066	4027
2400.046	3934
2402.023	4008
2404.004	3982
2405.981	3964
2407.957	3946
2409.934	3971
2411.91	3939
2413.886	3915
2415.862	3989
2417.836	3988
2419.809	3871
2421.784	3954
2423.756	3884
2425.73	3982
2427.701	3940
2429.672	3920
2431.644	4006
2433.615	3927
2435.586	3876
2437.555	3957
2439.523	3963
2441.491	3865
2443.459	4017
2445.428	3928
2447.395	3918
2449.361	3858
2451.327	3961
2453.292	3988
2455.257	3933
2457.223	3985
2459.187	3936
2461.15	3923
2463.113	3921
2465.076	3983
2467.039	3877
2468.999	4003
2470.96	3785
2472.921	3862
2474.881	3903
2476.841	3894
2478.8	3890
2480.759	3909
2482.717	3923
2484.675	3899
2486.63	3804
2488.589	3954
2490.545	3954
2492.5	3928
2494.455	3965
2496.408	3896
2498.364	3955
2500.318	3904
2502.27	3824
2504.223	3876
2506.174	3853
2508.126	3949
2510.078	3884
2512.03	3887
2513.979	3840
2515.927	3861
2517.877	3870
2519.826	3933
2521.775	3954
2523.722	3916
2525.668	3909
2527.616	3963
2529.561	3866
2531.508	3887
2533.452	3886
2535.398	3885
2537.342	3857
2539.284	3819
2541.229	3847
2543.173	3946
2545.114	3887
2547.055	3950
2548.996	3940
2550.938	3861
2552.878	3873
2554.817	3870
2556.756	3916
2558.695	3867
2560.633	3843
2562.572	3831
2564.509	3887
2566.445	3884
2568.382	3942
2570.317	3929
2572.254	3901
2574.189	3915
2576.123	3869
2578.057	3972
2579.99	3904
2581.923	3839
2583.855	3965
2585.788	3976
2587.719	3895
2589.65	3910
2591.579	3865
2593.511	3949
2595.44	3827
2597.37	3880
2599.297	3940
2601.225	3966
2603.153	3847
2605.08	3898
2607.007	3902
2608.932	3954
2610.858	3892
2612.782	3805
2614.709	3869
2616.632	3785
2618.556	3884
2620.478	3927
2622.401	4002
2624.324	3884
2626.247	3984
2628.167	3971
2630.088	3930
2632.008	3947
2633.928	3888
2635.848	3913
2637.766	3890
2639.684	3898
2641.603	4005
2643.519	3917
2645.437	3910
2647.353	3913
2649.27	4009
2651.184	3922
2653.099	3933
2655.014	4011
2656.928	3901
2658.842	3886
2660.755	3836
2662.667	3981
2664.579	3920
2666.491	3894
2668.402	3904
2670.312	3837
2672.222	3942
2674.132	3995
2676.042	4026
2677.951	3920
2679.859	3837
2681.766	3997
2683.674	3879
2685.582	3896
2687.488	3863
2689.392	3850
2691.298	3961
2693.202	3879
2695.107	3940
2697.012	3912
2698.914	3967
2700.817	3958
2702.72	3808
2704.622	3890
2706.524	3836
2708.425	3889
2710.326	3921
2712.225	3845
2714.125	3913
2716.024	3833
2717.923	3860
2719.822	3824
2721.719	3831
2723.616	3890
2725.512	3921
2727.41	3869
2729.305	3800
2731.201	3869
2733.095	3938
2734.99	3901
2736.884	3829
2738.778	3912
2740.67	3722
2742.562	3779
2744.455	3867
2746.346	3845
2748.238	3877
2750.129	3909
2752.018	3818
2753.907	3863
2755.797	3811
2757.687	3905
2759.575	3862
2761.462	3780
2763.349	3908
2765.237	3828
2767.124	3887
2769.009	3939
2770.894	3882
2772.779	3793
2774.663	3843
2776.547	3894
2778.431	3921
2780.314	3847
2782.197	3819
2784.078	3823
2785.96	3866
2787.842	3840
2789.723	3789
2791.603	3831
2793.483	3835
2795.362	3842
2797.241	3846
2799.121	3840
2800.997	3901
2802.874	3820
2804.751	3889
2806.628	3784
2808.506	3881
2810.38	3777
2812.255	3765
2814.13	3841
2816.003	3874
2817.878	3805
2819.752	3856
2821.623	3834
2823.496	3845
2825.368	3801
2827.238	3798
2829.111	3914
2830.98	3831
2832.851	3804
2834.719	3762
2836.589	3864
2838.458	3898
2840.327	3927
2842.193	3870
2844.061	3826
2845.927	3844
2847.794	3927
2849.66	3909
2851.525	3917
2853.39	3914
2855.254	3895
2857.117	4009
2858.983	4047
2860.845	3961
2862.707	4059
2864.569	4072
2866.431	4069
2868.293	4097
2870.154	4138
2872.013	4145
2873.873	4211
2875.733	4198
2877.592	4331
2879.451	4320
2881.309	4293
2883.166	4456
2885.022	4509
2886.879	4532
2888.736	4408
2890.591	4512
2892.446	4545
2894.301	4472
2896.155	4445
2898.009	4406
2899.863	4519
2901.716	4450
2903.568	4447
2905.419	4511
2907.27	4440
2909.123	4516
2910.973	4442
2912.824	4595
2914.673	4601
2916.521	4574
2918.372	4621
2920.22	4656
2922.067	4702
2923.914	4901
2925.761	4888
2927.607	4897
2929.455	4883
2931.301	4958
2933.144	4971
2934.99	5027
2936.833	5162
2938.678	5218
2940.522	5204
2942.364	5311
2944.207	5339
2946.048	5363
2947.891	5445
2949.731	5312
2951.571	5375
2953.412	5356
2955.25	5231
2957.09	5201
2958.93	5126
2960.767	5068
2962.606	5049
2964.443	4943
2966.279	5024
2968.116	4897
2969.953	4888
2971.788	4879
2973.623	4669
2975.457	4646
2977.292	4682
2979.127	4672
2980.959	4682
2982.792	4621
2984.624	4585
2986.455	4538
2988.288	4502
2990.119	4376
2991.949	4453
2993.779	4459
2995.608	4367
2997.439	4320
2999.268	4387
3001.096	4301
3002.923	4220
3004.751	4211
3006.578	4120
3008.406	4055
3010.232	4067
3012.057	4061
3013.883	4003
3015.706	3927
3017.532	3902
3019.356	3916
3021.179	3850
3023.002	3896
3024.823	3742
3026.646	3861
3028.469	3770
3030.289	3836
3032.11	3812
3033.93	3793
3035.749	3728
3037.57	3691
3039.39	3727
3041.207	3751
3043.026	3757
3044.842	3670
3046.661	3688
3048.477	3704
3050.294	3661
3052.109	3738
3053.925	3732
3055.739	3672
3057.555	3794
3059.368	3760
3061.181	3711
3062.995	3745
3064.807	3687
3066.62	3738
3068.433	3703
3070.243	3737
3072.054	3650
3073.865	3738
3075.675	3705
3077.485	3717
3079.293	3687
3081.102	3747
3082.911	3664
3084.719	3654
3086.527	3676
3088.333	3647
3090.139	3645
3091.945	3697
3093.75	3694
3095.557	3666
3097.361	3708
3099.165	3598
3100.969	3662
3102.772	3586
3104.575	3588
3106.379	3657
3108.181	3645
3109.982	3686
3111.783	3592
3113.584	3596
3115.386	3560
3117.186	3618
3118.985	3562
3120.783	3560
3122.582	3622
3124.381	3568
3126.179	3567
3127.975	3583
3129.772	3477
3131.569	3592
3133.365	3563
3135.161	3470
3136.956	3556
3138.751	3552
3140.544	3485
3142.338	3586
3144.132	3573
3145.925	3552
3147.717	3508
3149.509	3568
3151.301	3520
3153.091	3512
3154.884	3520
3156.673	3559
3158.462	3582
3160.252	3523
3162.041	3493
3163.831	3543
3165.618	3519
3167.405	3468
3169.193	3601
3170.979	3507
3172.767	3498
3174.553	3528
3176.338	3543
3178.123	3533
3179.907	3554
3181.692	3453
3183.477	3516
3185.259	3583
3187.042	3491
3188.824	3506
3190.607	3503
3192.389	3456
3194.17	3533
3195.951	3479
3197.73	3483
3199.51	3533
3201.289	3483
3203.07	3472
3204.848	3488
3206.626	3516
3208.403	3482
3210.18	3557
3211.959	3449
3213.735	3476
3215.511	3543
3217.285	3455
3219.06	3525
3220.836	3458
3222.611	3526
3224.384	3520
3226.158	3501
3227.929	3584
3229.702	3529
3231.476	3450
3233.248	3620
3235.018	3558
3236.789	3511
3238.56	3551
3240.33	3511
3242.1	3547
3243.869	3528
3245.637	3561
3247.405	3525
3249.172	3541
3250.941	3591
3252.707	3567
3254.474	3505
3256.24	3540
3258.006	3491
3259.772	3554
3261.537	3594
3263.301	3544
3265.065	3488
3266.828	3521
3268.592	3553
3270.355	3612
3272.117	3493
3273.878	3551
3275.64	3521
3277.401	3490
3279.162	3601
3280.922	3509
3282.682	3496
3284.441	3578
3286.199	3552
3287.959	3550
3289.716	3578
3291.475	3537
3293.232	3551
3294.988	3636
3296.744	3623
3298.501	3507
3300.256	3502
3302.011	3606
3303.766	3590
3305.52	3583
3307.275	3562
3309.028	3535
3310.781	3598
3312.533	3535
3314.285	3561
3316.038	3574
3317.789	3589
3319.54	3543
3321.289	3566
3323.039	3578
3324.789	3583
3326.539	3573
3328.288	3614
3330.035	3551
3331.783	3594
3333.531	3522
3335.28	3526
3337.025	3505
3338.771	3548
3340.518	3565
3342.262	3479
3344.009	3580
3345.753	3509
3347.497	3512
3349.24	3519
3350.983	3481
3352.726	3543
3354.469	3542
3356.212	3546
3357.952	3502
3359.694	3460
3361.434	3498
3363.176	3476
3364.916	3470
3366.654	3497
3368.394	3452
3370.132	3417
3371.871	3431
3373.61	3562
3375.346	3515
3377.083	3493
3378.82	3464
3380.556	3431
3382.292	3413
3384.027	3497
3385.763	3435
3387.497	3441
3389.231	3444
3390.965	3444
3392.698	3425
3394.431	3473
3396.164	3496
3397.896	3498
3399.627	3452
3401.36	3416
3403.09	3480
3404.82	3387
3406.55	3443
3408.279	3384
3410.01	3399
3411.738	3358
3413.467	3451
3415.194	3405
3416.92	3401
3418.647	3363
3420.375	3331
3422.102	3363
3423.827	3347
3425.553	3459
3427.277	3404
3429.003	3401
3430.727	3319
3432.451	3371
3434.173	3372
3435.896	3332
3437.62	3349
3439.343	3313
3441.063	3319
3442.785	3340
3444.505	3410
3446.226	3281
3447.948	3410
3449.666	3325
3451.386	3269
3453.104	3341
3454.823	3351
3456.541	3308
3458.259	3245
3459.976	3319
3461.693	3247
3463.408	3290
3465.125	3294
3466.841	3280
3468.556	3352
3470.271	3283
3471.985	3198
3473.698	3321
3475.414	3234
3477.126	3240
3478.838	3209
3480.55	3278
3482.263	3248
3483.975	3196
3485.686	3247
3487.396	3222
3489.106	3192
3490.817	3187
3492.526	3192
3494.236	3162
3495.944	3212
3497.652	3244
3499.359	3192
3501.066	3138
3502.775	3223
3504.481	3165
3506.187	3160
3507.893	3196
3509.598	3171
3511.304	3187
3513.009	3164
3514.713	3180
3516.417	3135
3518.12	3121
3519.821	3226
3521.525	3069
3523.228	3093
3524.929	3100
3526.631	3053
3528.33	3102
3530.032	3165
3531.733	3090
3533.433	3119
3535.131	3131
3536.83	3113
3538.529	3016
3540.227	3078
3541.925	3084
3543.623	3103
3545.319	3114
3547.016	3125
3548.712	3124
3550.408	3026
3552.103	3066
3553.798	3032
3555.491	3026
3557.188	3063
3558.88	3091
3560.574	3065
3562.266	3054
3563.959	3013
3565.651	3027
3567.343	2940
3569.035	3005
3570.725	2959
3572.415	3009
3574.106	3071
3575.797	3122
3577.485	3026
3579.174	2969
3580.863	3142
3582.551	2999
3584.238	3002
3585.926	3027
3587.613	3015
3589.3	3011
3590.986	2961
3592.671	2931
3594.357	2955
3596.042	2862
3597.726	2920
3599.41	2933
3601.094	2942
3602.778	2936
3604.461	2872
3606.143	2914
3607.825	2932
3609.507	2836
3611.188	2904
3612.87	2937
3614.551	2908
3616.229	2911
3617.909	2838
3619.589	2880
3621.269	2857
3622.948	2871
3624.625	2845
3626.302	2894
3627.98	2836
3629.657	2819
3631.334	2896
3633.01	2832
3634.686	2842
3636.361	2909
3638.036	2869
3639.712	2853
3641.385	2827
3643.06	2825
3644.732	2820
3646.405	2834
3648.08	2761
3649.751	2812
3651.424	2750
3653.094	2831
3654.766	2775
3656.436	2786
3658.106	2748
3659.777	2864
3661.446	2847
3663.115	2801
3664.783	2802
3666.452	2795
3668.121	2782
3669.788	2761
3671.454	2764
3673.121	2723
3674.789	2739
3676.455	2771
3678.12	2821
3679.784	2780
3681.45	2784
3683.114	2711
3684.779	2799
3686.442	2663
3688.105	2680
3689.768	2776
3691.43	2759
3693.093	2790
3694.754	2729
3696.415	2723
3698.076	2764
3699.736	2747
3701.396	2729
3703.057	2711
3704.716	2724
3706.375	2741
3708.034	2735
3709.692	2676
3711.351	2673
3713.008	2735
3714.665	2700
3716.321	2762
3717.977	2673
3719.634	2733
3721.29	2674
3722.945	2706
3724.598	2656
3726.253	2687
3727.907	2684
3729.561	2664
3731.214	2724
3732.867	2664
3734.518	2674
3736.171	2690
3737.824	2732
3739.474	2649
3741.125	2662
3742.775	2697
3744.425	2634
3746.074	2688
3747.725	2610
3749.373	2679
3751.022	2614
3752.669	2619
3754.318	2642
3755.966	2616
3757.612	2662
3759.259	2688
3760.905	2601
3762.55	2738
3764.197	2609
3765.842	2701
3767.486	2666
3769.131	2694
3770.774	2669
3772.417	2597
3774.061	2676
3775.705	2574
3777.347	2666
3778.988	2622
3780.629	2609
3782.271	2582
3783.912	2701
3785.552	2625
3787.192	2563
3788.831	2583
3790.472	2678
3792.112	2660
3793.75	2651
3795.388	2625
3797.024	2570
3798.661	2615
3800.3	2620
3801.936	2562
3803.572	2564
3805.208	2591
3806.844	2556
3808.48	2591
3810.115	2572
3811.748	2581
3813.382	2648
3815.016	2622
3816.649	2601
3818.283	2568
3819.914	2567
3821.547	2609
3823.178	2504
3824.809	2572
3826.441	2622
3828.072	2622
3829.701	2532
3831.331	2570
3832.96	2578
3834.591	2529
3836.219	2532
3837.847	2524
3839.475	2508
3841.102	2532
3842.729	2586
3844.357	2553
3845.984	2572
3847.609	2586
3849.234	2541
3850.86	2546
3852.485	2489
3854.11	2540
3855.734	2564
3857.357	2520
3858.981	2488
3860.603	2543
3862.227	2602
3863.848	2515
3865.471	2609
3867.092	2526
3868.713	2560
3870.334	2470
3871.954	2558
3873.575	2522
3875.194	2570
3876.813	2526
3878.433	2533
3880.051	2540
3881.669	2502
3883.286	2539
3884.904	2512
3886.52	2539
3888.138	2569
3889.754	2445
3891.37	2504
3892.985	2509
3894.6	2530
3896.216	2451
3897.831	2498
3899.444	2470
3901.058	2469
3902.67	2507
3904.283	2499
3905.897	2455
3907.509	2514
3909.121	2537
3910.731	2415
3912.342	2452
3913.954	2494
3915.563	2470
3917.174	2521
3918.783	2497
3920.391	2500
3922.002	2444
3923.611	2421
3925.218	2485
3926.826	2507
3928.432	2431
3930.039	2513
3931.647	2444
3933.253	2468
3934.859	2479
3936.464	2421
3938.068	2410
3939.675	2468
3941.278	2425
3942.883	2511
3944.486	2515
3946.089	2449
3947.692	2439
3949.295	2405
3950.898	2479
3952.499	2446
3954.1	2481
3955.7	2396
3957.303	2478
3958.903	2387
3960.502	2422
3962.101	2410
3963.7	2428
3965.301	2425
3966.899	2406
3968.497	2417
3970.094	2383
3971.691	2440
3973.288	2354
3974.885	2438
3976.481	2360
3978.077	2443
3979.672	2449
3981.267	2351
3982.863	2417
3984.457	2421
3986.051	2432
3987.645	2467
3989.238	2357
3990.831	2395
3992.425	2422
3994.017	2403
3995.607	2394
3997.199	2352
3998.79	2355
4000.382	2463
4001.973	2332
4003.561	2421
4005.151	2339
4006.741	2432
4008.331	2389
4009.918	2295
4011.507	2379
4013.095	2342
4014.681	2351
4016.269	2290
4017.856	2362
4019.443	2288
4021.028	2358
4022.614	2320
4024.199	2304
4025.785	2275
4027.37	2352
4028.953	2365
4030.536	2349
4032.12	2324
4033.704	2366
4035.287	2338
4036.869	2301
4038.45	2264
4040.032	2248
4041.613	2339
4043.195	2334
4044.776	2338
4046.356	2316
4047.935	2258
4049.515	2357
4051.095	2319
4052.674	2282
4054.251	2291
4055.829	2286
4057.406	2313
4058.985	2309
4060.562	2348
4062.139	2267
4063.715	2252
4065.29	2292
4066.865	2329
4068.442	2257
4070.016	2332
4071.59	2288
4073.164	2254
4074.738	2304
4076.312	2248
4077.885	2291
4079.458	2238
4081.03	2276
4082.602	2271
4084.173	2267
4085.745	2261
4087.315	2301
4088.886	2282
4090.456	2247
4092.026	2311
4093.596	2243
4095.165	2234
4096.734	2213
4098.301	2278
4099.869	2256
4101.437	2252
4103.006	2245
4104.572	2323
4106.139	2227
4107.704	2251
4109.27	2266
4110.837	2242
4112.401	2256
4113.966	2200
4115.53	2312
4117.094	2238
4118.659	2245
4120.223	2202
4121.785	2290
4123.347	2172
4124.909	2172
4126.471	2206
4128.034	2226
4129.595	2185
4131.155	2212
4132.716	2171
4134.275	2181
4135.836	2254
4137.395	2179
4138.955	2215
4140.513	2202
4142.071	2194
4143.628	2197
4145.188	2189
4146.745	2206
4148.302	2171
4149.858	2166
4151.414	2205
4152.971	2241
4154.526	2117
4156.081	2129
4157.635	2183
4159.189	2180
4160.745	2193
4162.298	2166
4163.852	2201
4165.405	2145
4166.957	2139
4168.51	2209
4170.063	2201
4171.614	2135
4173.166	2185
4174.717	2082
4176.267	2127
4177.817	2152
4179.368	2158
4180.917	2118
4182.466	2149
4184.016	2159
4185.564	2150
4187.112	2151
4188.66	2073
4190.207	2156
4191.754	2170
4193.301	2119
4194.848	2139
4196.394	2079
4197.94	2151
4199.484	2153
4201.03	2079
4202.575	2092
4204.12	2119
4205.663	2202
4207.207	2166
4208.75	2028
4210.292	2100
4211.836	2148
4213.378	2116
4214.92	2094
4216.46	2097
4218.002	2084
4219.544	2168
4221.083	2069
4222.625	2122
4224.164	2133
4225.703	2121
4227.244	2167
4228.782	2098
4230.32	2134
4231.857	2071
4233.395	2078
4234.933	2092
4236.471	2105
4238.007	2092
4239.542	2107
4241.078	2046
4242.614	2060
4244.15	2142
4245.685	2076
4247.219	2056
4248.753	2055
4250.287	2101
4251.82	2078
4253.354	2064
4254.887	2094
4256.419	2117
4257.951	2084
4259.483	2039
4261.016	2084
4262.547	2085
4264.078	2064
4265.608	2063
4267.137	2069
4268.668	2076
4270.197	2040
4271.727	1988
4273.254	2047
4274.783	2055
4276.311	2053
4277.84	2125
4279.366	2025
4280.894	2044
4282.42	2016
4283.946	2028
4285.473	2017
4286.998	2018
4288.523	2040
4290.047	2040
4291.572	2070
4293.096	2052
4294.622	2034
4296.144	2041
4297.668	2089
4299.19	2030
4300.713	2024
4302.236	2040
4303.758	1996
4305.279	2021
4306.799	2022
4308.321	2022
4309.842	1982
4311.361	2079
4312.882	1959
4314.401	1957
