400.0961	2275
402.6185	2302
405.1424	2329
407.6635	2283
410.1838	2288
412.7035	2284
415.2225	2365
417.7388	2323
420.2585	2374
422.7754	2422
425.2917	2375
427.8072	2403
430.3221	2423
432.8363	2491
435.3498	2410
437.8626	2450
440.3727	2405
442.8841	2453
445.3969	2381
447.907	2516
450.4142	2471
452.9229	2470
455.4289	2420
457.9362	2426
460.4449	2484
462.9488	2450
465.454	2401
467.9566	2343
470.4604	2372
472.9637	2432
475.4662	2381
477.966	2419
480.4671	2472
482.9656	2453
485.4633	2445
487.9645	2394
490.4608	2451
492.9566	2473
495.4536	2461
497.948	2503
500.4437	2434
502.9387	2487
505.431	2403
507.9226	2455
510.4136	2453
512.9079	2471
515.3975	2493
517.8864	2413
520.3746	2479
522.8622	2405
525.3491	2480
527.8394	2491
530.3249	2474
532.8098	2535
535.2939	2511
537.7774	2475
540.2623	2513
542.7444	2527
545.2259	2462
547.7067	2474
550.1868	2506
552.6683	2559
555.147	2538
557.6231	2458
560.1005	2482
562.5773	2567
565.0534	2557
567.5308	2512
570.0056	2560
572.4776	2520
574.951	2536
577.4237	2593
579.8978	2589
582.3671	2645
584.8378	2595
587.3079	2619
589.7773	2572
592.244	2627
594.714	2569
597.1793	2611
599.6461	2531
602.1121	2576
604.5754	2588
607.0421	2604
609.5042	2569
611.9675	2490
614.4282	2575
616.8902	2592
619.3515	2553
621.8122	2594
624.2702	2561
626.7296	2547
629.1863	2548
631.6423	2473
634.1017	2546
636.5563	2576
639.0104	2575
641.4658	2589
643.9185	2602
646.3725	2572
648.8239	2598
651.2766	2609
653.7266	2540
656.176	2570
658.6247	2589
661.0748	2633
663.5242	2557
665.9709	2593
668.417	2643
670.8624	2587
673.3092	2609
675.7533	2636
678.1968	2652
680.6395	2636
683.0817	2620
685.5251	2666
687.9659	2654
690.4061	2705
692.8456	2572
695.2844	2624
697.7226	2644
700.1621	2665
702.599	2649
705.0332	2579
707.4688	2633
709.9036	2647
712.3399	2691
714.7735	2648
717.2044	2644
719.6367	2689
722.0683	2725
724.4993	2632
726.9296	2768
729.3593	2686
731.7883	2773
734.2147	2740
736.6423	2678
739.0714	2713
741.4958	2792
743.9216	2738
746.3447	2713
748.7691	2737
751.1929	2752
753.616	2738
756.0366	2805
758.4584	2780
760.8776	2781
763.2982	2846
765.718	2922
768.1373	2811
770.5539	2848
772.9698	2800
775.3871	2809
777.8038	2752
780.2178	2757
782.6332	2902
785.0459	2859
787.458	2759
789.8714	2743
792.2842	2811
794.6943	2835
797.1038	2919
799.5127	2806
801.9209	2833
804.3324	2827
806.7393	2815
809.1456	2780
811.5513	2870
813.9562	2819
816.3625	2856
818.7663	2895
821.1693	2831
823.5718	2840
825.9735	2821
828.3746	2809
830.7771	2844
833.177	2888
835.5762	2836
837.9747	2930
840.3727	2876
842.772	2870
845.1666	2850
847.5626	2895
849.958	2882
852.3527	2848
854.7488	2943
857.1403	2917
859.5331	2968
861.9253	2887
864.3168	2880
866.7057	2941
869.098	2924
871.4876	2908
873.8746	2897
876.263	2991
878.6487	2862
881.0378	2915
883.4243	2933
885.8081	2969
888.1933	2900
890.5759	2892
892.9598	2959
895.343	2924
897.7256	2917
900.1057	2858
902.4871	2936
904.8659	2873
907.246	2964
909.6254	2931
912.0023	3000
914.3786	2967
916.7562	2961
919.1331	2988
921.5074	3104
923.8831	3043
926.2562	2960
928.6287	3059
931.0005	3027
933.3757	3039
935.7462	3045
938.1162	3046
940.4855	3068
942.8542	3125
945.2242	3160
947.5916	3245
949.9584	3311
952.3266	3414
954.6921	3461
957.0571	3558
959.4233	3665
961.787	3712
964.15	3677
966.5125	3624
968.8742	3404
971.2354	3404
973.5959	3203
975.9559	3226
978.3151	3083
980.6738	3044
983.0338	3019
985.3912	3078
987.7461	3050
990.1022	2990
992.4578	3010
994.8127	2999
997.1689	3002
999.5207	3010
1001.874	3066
1004.226	3045
1006.576	3050
1008.929	3038
1011.28	3056
1013.628	3011
1015.977	3024
1018.324	3065
1020.674	3024
1023.019	3114
1025.366	3133
1027.713	3096
1030.056	3097
1032.399	3037
1034.746	3148
1037.087	3078
1039.431	3146
1041.771	3091
1044.113	3121
1046.454	3088
1048.793	3100
1051.133	3036
1053.471	3113
1055.807	3140
1058.146	3068
1060.483	3151
1062.818	3073
1065.153	3123
1067.489	3107
1069.822	3185
1072.156	3194
1074.488	3134
1076.82	3202
1079.15	3135
1081.48	3179
1083.814	3110
1086.143	3104
1088.471	3070
1090.799	3183
1093.126	3093
1095.452	3079
1097.78	3083
1100.105	3064
1102.43	3058
1104.754	3119
1107.077	3151
1109.4	3051
1111.722	3126
1114.044	3125
1116.365	3096
1118.685	3092
1121.005	3101
1123.324	3140
1125.643	3143
1127.961	3152
1130.278	3078
1132.595	3035
1134.911	3041
1137.226	3127
1139.541	3092
1141.854	3061
1144.167	3084
1146.482	3060
1148.793	3070
1151.105	3121
1153.414	3145
1155.725	3089
1158.033	3123
1160.344	3158
1162.651	3118
1164.959	3135
1167.265	3139
1169.572	3143
1171.878	3135
1174.184	3069
1176.488	3094
1178.79	3218
1181.094	3142
1183.396	3124
1185.699	3125
1188.001	3099
1190.301	3148
1192.6	3101
1194.9	3148
1197.2	3129
1199.497	3113
1201.794	3103
1204.09	3081
1206.387	3125
1208.684	3145
1210.978	3145
1213.272	3097
1215.565	3165
1217.858	3200
1220.15	3112
1222.443	3177
1224.734	3161
1227.024	3193
1229.313	3167
1231.602	3254
1233.892	3216
1236.18	3279
1238.467	3202
1240.754	3299
1243.04	3272
1245.325	3267
1247.612	3266
1249.896	3287
1252.178	3325
1254.461	3277
1256.743	3229
1259.027	3194
1261.308	3223
1263.587	3321
1265.867	3277
1268.146	3374
1270.425	3263
1272.703	3266
1274.981	3209
1277.256	3324
1279.532	3251
1281.808	3324
1284.083	3255
1286.358	3271
1288.63	3334
1290.904	3227
1293.175	3256
1295.449	3234
1297.719	3242
1299.99	3146
1302.259	3230
1304.529	3216
1306.798	3204
1309.065	3157
1311.333	3237
1313.599	3264
1315.866	3222
1318.131	3246
1320.396	3276
1322.66	3270
1324.925	3198
1327.187	3236
1329.448	3237
1331.711	3295
1333.974	3239
1336.234	3193
1338.493	3232
1340.752	3124
1343.01	3320
1345.269	3196
1347.526	3245
1349.784	3213
1352.04	3230
1354.295	3192
1356.552	3240
1358.806	3253
1361.059	3256
1363.312	3237
1365.564	3200
1367.818	3286
1370.069	3237
1372.318	3254
1374.568	3276
1376.817	3286
1379.066	3278
1381.316	3283
1383.564	3279
1385.809	3272
1388.056	3241
1390.301	3275
1392.549	3325
1394.793	3282
1397.036	3347
1399.279	3408
1401.522	3304
1403.763	3288
1406.007	3406
1408.248	3316
1410.487	3305
1412.727	3369
1414.965	3393
1417.205	3338
1419.442	3330
1421.68	3347
1423.915	3305
1426.152	3353
1428.388	3375
1430.623	3319
1432.857	3407
1435.091	3445
1437.323	3357
1439.556	3371
1441.789	3392
1444.019	3372
1446.25	3384
1448.48	3362
1450.708	3387
1452.938	3360
1455.167	3407
1457.394	3339
1459.62	3390
1461.846	3451
1464.073	3425
1466.299	3356
1468.523	3445
1470.746	3397
1472.969	3338
1475.191	3377
1477.415	3321
1479.636	3297
1481.858	3231
1484.078	3308
1486.298	3231
1488.518	3359
1490.736	3262
1492.954	3293
1495.169	3258
1497.386	3263
1499.602	3194
1501.819	3266
1504.034	3194
1506.248	3241
1508.462	3195
1510.675	3192
1512.888	3170
1515.1	3187
1517.311	3256
1519.522	3170
1521.732	3266
1523.942	3274
1526.151	3270
1528.36	3249
1530.566	3156
1532.773	3247
1534.98	3262
1537.187	3230
1539.392	3243
1541.596	3225
1543.801	3252
1546.005	3281
1548.208	3304
1550.411	3270
1552.612	3285
1554.814	3300
1557.013	3307
1559.212	3290
1561.414	3331
1563.612	3310
1565.811	3248
1568.007	3232
1570.203	3275
1572.403	3378
1574.598	3332
1576.792	3369
1578.988	3286
1581.181	3323
1583.376	3343
1585.568	3362
1587.761	3255
1589.952	3255
1592.143	3388
1594.333	3332
1596.524	3354
1598.715	3382
1600.903	3458
1603.091	3352
1605.278	3419
1607.466	3387
1609.652	3318
1611.838	3405
1614.023	3368
1616.207	3381
1618.391	3320
1620.576	3379
1622.759	3350
1624.941	3426
1627.123	3350
1629.304	3442
1631.484	3435
1633.664	3414
1635.844	3432
1638.022	3393
1640.201	3446
1642.38	3460
1644.556	3417
1646.732	3428
1648.908	3424
1651.084	3410
1653.257	3392
1655.433	3484
1657.607	3439
1659.779	3491
1661.951	3452
1664.122	3443
1666.295	3475
1668.467	3422
1670.635	3478
1672.805	3358
1674.973	3454
1677.142	3540
1679.31	3494
1681.478	3474
1683.644	3455
1685.81	3387
1687.975	3480
1690.142	3442
1692.305	3471
1694.468	3487
1696.632	3451
1698.794	3381
1700.957	3369
1703.119	3407
1705.279	3454
1707.439	3281
1709.598	3398
1711.758	3396
1713.917	3373
1716.075	3364
1718.231	3364
1720.388	3275
1722.543	3262
1724.702	3396
1726.856	3348
1729.01	3353
1731.164	3344
1733.317	3387
1735.471	3349
1737.623	3330
1739.774	3352
1741.925	3337
1744.075	3386
1746.225	3445
1748.376	3332
1750.524	3402
1752.672	3409
1754.82	3381
1756.965	3365
1759.113	3351
1761.259	3399
1763.405	3457
1765.549	3370
1767.694	3389
1769.836	3327
1771.981	3334
1774.123	3359
1776.264	3335
1778.405	3346
1780.546	3421
1782.687	3413
1784.827	3415
1786.966	3327
1789.103	3387
1791.242	3356
1793.381	3381
1795.517	3436
1797.653	3474
1799.788	3436
1801.923	3387
1804.057	3328
1806.193	3331
1808.326	3390
1810.457	3395
1812.59	3381
1814.721	3395
1816.855	3460
1818.984	3486
1821.113	3435
1823.244	3388
1825.372	3407
1827.499	3412
1829.63	3433
1831.756	3368
1833.882	3355
1836.007	3360
1838.132	3389
1840.26	3394
1842.384	3470
1844.507	3402
1846.63	3369
1848.752	3458
1850.875	3416
1852.996	3408
1855.118	3402
1857.238	3426
1859.358	3379
1861.477	3362
1863.597	3327
1865.715	3391
1867.832	3349
1869.948	3453
1872.064	3458
1874.181	3372
1876.297	3332
1878.411	3347
1880.526	3408
1882.639	3458
1884.752	3411
1886.865	3402
1888.977	3388
1891.089	3421
1893.2	3374
1895.308	3408
1897.42	3389
1899.53	3404
1901.639	3483
1903.745	3465
1905.853	3467
1907.962	3534
1910.067	3359
1912.174	3378
1914.278	3458
1916.383	3449
1918.486	3376
1920.592	3462
1922.694	3422
1924.797	3490
1926.898	3398
1929	3421
1931.102	3349
1933.203	3513
1935.301	3479
1937.401	3448
1939.499	3424
1941.598	3516
1943.697	3422
1945.793	3455
1947.888	3460
1949.985	3486
1952.08	3408
1954.176	3486
1956.269	3415
1958.364	3583
1960.457	3419
1962.549	3436
1964.642	3483
1966.733	3531
1968.823	3435
1970.913	3424
1973.005	3424
1975.093	3431
1977.184	3476
1979.271	3494
1981.359	3409
1983.446	3573
1985.532	3440
1987.619	3449
1989.705	3476
1991.789	3433
1993.874	3458
1995.956	3416
1998.041	3357
2000.123	3388
2002.206	3495
2004.287	3477
2006.368	3330
2008.449	3471
2010.529	3433
2012.609	3508
2014.688	3442
2016.766	3384
2018.843	3375
2020.922	3454
2022.999	3386
2025.074	3432
2027.15	3454
2029.225	3464
2031.299	3485
2033.375	3470
2035.447	3426
2037.52	3393
2039.592	3441
2041.664	3509
2043.736	3431
2045.807	3467
2047.876	3449
2049.947	3452
2052.015	3453
2054.086	3498
2056.153	3410
2058.221	3395
2060.288	3427
2062.353	3410
2064.42	3470
2066.486	3474
2068.55	3403
2070.614	3511
2072.678	3424
2074.741	3473
2076.805	3512
2078.866	3515
2080.929	3497
2082.99	3394
2085.049	3443
2087.109	3376
2089.17	3432
2091.228	3395
2093.286	3420
2095.344	3531
2097.4	3392
2099.46	3487
2101.516	3414
2103.572	3434
2105.626	3449
2107.679	3441
2109.735	3509
2111.788	3460
2113.841	3425
2115.894	3516
2117.945	3452
2119.997	3447
2122.049	3433
2124.1	3447
2126.148	3487
2128.197	3427
2130.246	3488
2132.296	3446
2134.342	3409
2136.39	3488
2138.437	3458
2140.483	3467
2142.527	3416
2144.574	3462
2146.619	3427
2148.661	3379
2150.705	3489
2152.747	3482
2154.792	3487
2156.832	3399
2158.874	3450
2160.915	3497
2162.954	3349
2164.995	3446
2167.034	3384
2169.072	3434
2171.111	3356
2173.148	3445
2175.186	3402
2177.223	3423
2179.258	3445
2181.294	3420
2183.328	3463
2185.362	3445
2187.398	3375
2189.431	3402
2191.463	3409
2193.495	3384
2195.528	3353
2197.56	3373
2199.59	3367
2201.62	3425
2203.649	3434
2205.678	3416
2207.708	3349
2209.737	3463
2211.764	3458
2213.791	3359
2215.817	3321
2217.843	3395
2219.87	3371
2221.895	3373
2223.919	3360
2225.942	3352
2227.966	3406
2229.988	3384
2232.012	3316
2234.032	3396
2236.054	3323
2238.074	3385
2240.095	3382
2242.116	3394
2244.135	3447
2246.153	3387
2248.171	3416
2250.188	3253
2252.208	3309
2254.223	3351
2256.239	3407
2258.255	3373
2260.269	3263
2262.283	3390
2264.3	3263
2266.312	3347
2268.325	3312
2270.336	3356
2272.349	3353
2274.362	3408
2276.372	3376
2278.383	3367
2280.392	3415
2282.402	3394
2284.409	3393
2286.418	3376
2288.427	3385
2290.433	3412
2292.441	3388
2294.446	3391
2296.453	3290
2298.459	3441
2300.463	3451
2302.466	3301
2304.471	3432
2306.475	3348
2308.477	3456
2310.478	3311
2312.481	3458
2314.481	3449
2316.481	3386
2318.482	3412
2320.482	3382
2322.48	3394
2324.48	3319
2326.478	3362
2328.476	3323
2330.473	3341
2332.469	3432
2334.465	3412
2336.46	3382
2338.454	3446
2340.45	3248
2342.444	3359
2344.437	3272
2346.43	3329
2348.421	3325
2350.414	3354
2352.405	3342
2354.396	3343
2356.386	3293
2358.376	3283
2360.366	3363
2362.355	3333
2364.343	3366
2366.331	3335
2368.317	3312
2370.304	3372
2372.292	3327
2374.278	3366
2376.262	3320
2378.247	3253
2380.23	3378
2382.216	3326
2384.199	3304
2386.181	3292
2388.163	3353
2390.144	3392
2392.127	3319
2394.107	3302
2396.087	3188
2398.066	3295
2400.046	3397
2402.023	3252
2404.004	3272
2405.981	3228
2407.957	3314
2409.934	3317
2411.91	3333
2413.886	3353
2415.862	3238
2417.836	3317
2419.809	3286
2421.784	3375
2423.756	3306
2425.73	3296
2427.701	3269
2429.672	3360
2431.644	3315
2433.615	3272
2435.586	3322
2437.555	3343
2439.523	3322
2441.491	3253
2443.459	3371
2445.428	3260
2447.395	3212
2449.361	3270
2451.327	3353
2453.292	3216
2455.257	3278
2457.223	3284
2459.187	3269
2461.15	3241
2463.113	3269
2465.076	3281
2467.039	3345
2468.999	3260
2470.96	3257
2472.921	3285
2474.881	3313
2476.841	3239
2478.8	3280
2480.759	3308
2482.717	3238
2484.675	3286
2486.63	3310
2488.589	3205
2490.545	3282
2492.5	3280
2494.455	3265
2496.408	3250
2498.364	3225
2500.318	3305
2502.27	3197
2504.223	3289
2506.174	3290
2508.126	3317
2510.078	3266
2512.03	3215
2513.979	3220
2515.927	3237
2517.877	3382
2519.826	3298
2521.775	3235
2523.722	3268
2525.668	3252
2527.616	3251
2529.561	3317
2531.508	3239
2533.452	3231
2535.398	3227
2537.342	3335
2539.284	3287
2541.229	3257
2543.173	3233
2545.114	3297
2547.055	3238
2548.996	3299
2550.938	3195
2552.878	3281
2554.817	3268
2556.756	3294
2558.695	3298
2560.633	3327
2562.572	3255
2564.509	3261
2566.445	3318
2568.382	3276
2570.317	3239
2572.254	3232
2574.189	3208
2576.123	3215
2578.057	3346
2579.99	3310
2581.923	3280
2583.855	3203
2585.788	3281
2587.719	3241
2589.65	3293
2591.579	3197
2593.511	3302
2595.44	3221
2597.37	3268
2599.297	3254
2601.225	3233
2603.153	3274
2605.08	3275
2607.007	3222
2608.932	3272
2610.858	3224
2612.782	3207
2614.709	3224
2616.632	3230
2618.556	3248
2620.478	3324
2622.401	3280
2624.324	3179
2626.247	3245
2628.167	3234
2630.088	3240
2632.008	3250
2633.928	3237
2635.848	3351
2637.766	3341
2639.684	3333
2641.603	3346
2643.519	3287
2645.437	3231
2647.353	3164
2649.27	3194
2651.184	3309
2653.099	3306
2655.014	3284
2656.928	3327
2658.842	3311
2660.755	3325
2662.667	3184
2664.579	3241
2666.491	3260
2668.402	3326
2670.312	3285
2672.222	3162
2674.132	3238
2676.042	3211
2677.951	3186
2679.859	3223
2681.766	3197
2683.674	3205
2685.582	3217
2687.488	3253
2689.392	3283
2691.298	3268
2693.202	3303
2695.107	3273
2697.012	3249
2698.914	3184
2700.817	3173
2702.72	3284
2704.622	3203
2706.524	3284
2708.425	3216
2710.326	3208
2712.225	3218
2714.125	3158
2716.024	3286
2717.923	3158
2719.822	3279
2721.719	3250
2723.616	3191
2725.512	3236
2727.41	3210
2729.305	3185
2731.201	3260
2733.095	3186
2734.99	3327
2736.884	3171
2738.778	3330
2740.67	3125
2742.562	3218
2744.455	3227
2746.346	3185
2748.238	3212
2750.129	3255
2752.018	3270
2753.907	3239
2755.797	3268
2757.687	3233
2759.575	3162
2761.462	3201
2763.349	3227
2765.237	3242
2767.124	3238
2769.009	3164
2770.894	3193
2772.779	3236
2774.663	3291
2776.547	3216
2778.431	3240
2780.314	3211
2782.197	3175
2784.078	3229
2785.96	3199
2787.842	3214
2789.723	3221
2791.603	3201
2793.483	3183
2795.362	3201
2797.241	3214
2799.121	3163
2800.997	3249
2802.874	3154
2804.751	3215
2806.628	3179
2808.506	3206
2810.38	3137
2812.255	3162
2814.13	3224
2816.003	3202
2817.878	3187
2819.752	3179
2821.623	3203
2823.496	3202
2825.368	3168
2827.238	3261
2829.111	3221
2830.98	3272
2832.851	3200
2834.719	3224
2836.589	3226
2838.458	3243
2840.327	3160
2842.193	3146
2844.061	3190
2845.927	3165
2847.794	3257
2849.66	3146
2851.525	3301
2853.39	3252
2855.254	3255
2857.117	3290
2858.983	3279
2860.845	3334
2862.707	3317
2864.569	3350
2866.431	3327
2868.293	3288
2870.154	3307
2872.013	3337
2873.873	3356
2875.733	3421
2877.592	3419
2879.451	3419
2881.309	3478
2883.166	3423
2885.022	3436
2886.879	3524
2888.736	3485
2890.591	3515
2892.446	3573
2894.301	3458
2896.155	3592
2898.009	3644
2899.863	3488
2901.716	3452
2903.568	3439
2905.419	3530
2907.27	3512
2909.123	3532
2910.973	3496
2912.824	3550
2914.673	3557
2916.521	3543
2918.372	3598
2920.22	3558
2922.067	3592
2923.914	3662
2925.761	3672
2927.607	3769
2929.455	3652
2931.301	3754
2933.144	3768
2934.99	3857
2936.833	3815
2938.678	3874
2940.522	3831
2942.364	3928
2944.207	3830
2946.048	3913
2947.891	3990
2949.731	4006
2951.571	3954
2953.412	3981
2955.25	3978
2957.09	3877
2958.93	3786
2960.767	3873
2962.606	3924
2964.443	3793
2966.279	3832
2968.116	3722
2969.953	3662
2971.788	3721
2973.623	3603
2975.457	3607
2977.292	3561
2979.127	3555
2980.959	3499
2982.792	3530
2984.624	3535
2986.455	3454
2988.288	3561
2990.119	3565
2991.949	3518
2993.779	3451
2995.608	3461
2997.439	3397
2999.268	3378
3001.096	3438
3002.923	3331
3004.751	3326
3006.578	3302
3008.406	3304
3010.232	3282
3012.057	3266
3013.883	3178
3015.706	3138
3017.532	3119
3019.356	3168
3021.179	3117
3023.002	3137
3024.823	3162
3026.646	3122
3028.469	3086
3030.289	3100
3032.11	3222
3033.93	3090
3035.749	3154
3037.57	3083
3039.39	3062
3041.207	3046
3043.026	3088
3044.842	3152
3046.661	3050
3048.477	3031
3050.294	3091
3052.109	3030
3053.925	3146
3055.739	3050
3057.555	3094
3059.368	3035
3061.181	3034
3062.995	3053
3064.807	3164
3066.62	2979
3068.433	3045
3070.243	3092
3072.054	2996
3073.865	3026
3075.675	3103
3077.485	3073
3079.293	3062
3081.102	3049
3082.911	3065
3084.719	3033
3086.527	3047
3088.333	3047
3090.139	3036
3091.945	2973
3093.75	3022
3095.557	2977
3097.361	3018
3099.165	2985
3100.969	2977
3102.772	2959
3104.575	2976
3106.379	2976
3108.181	2951
3109.982	2984
3111.783	3028
3113.584	2943
3115.386	2948
3117.186	2974
3118.985	2982
3120.783	3003
3122.582	2999
3124.381	2951
3126.179	2932
3127.975	2884
3129.772	2929
3131.569	2892
3133.365	2937
3135.161	2923
3136.956	2897
3138.751	2978
3140.544	2869
3142.338	2940
3144.132	2900
3145.925	3007
3147.717	2913
3149.509	2898
3151.301	2898
3153.091	2951
3154.884	2948
3156.673	2895
3158.462	2868
3160.252	2950
3162.041	2944
3163.831	2898
3165.618	2856
3167.405	2895
3169.193	2878
3170.979	2895
3172.767	2900
3174.553	2886
3176.338	2903
3178.123	2918
3179.907	2898
3181.692	2903
3183.477	2912
3185.259	2835
3187.042	2924
3188.824	2909
3190.607	2900
3192.389	2841
3194.17	2893
3195.951	2901
3197.73	2805
3199.51	2895
3201.289	2911
3203.07	2920
3204.848	2884
3206.626	2802
3208.403	2885
3210.18	2861
3211.959	2876
3213.735	2885
3215.511	2847
3217.285	2942
3219.06	2935
3220.836	2906
3222.611	2822
3224.384	2840
3226.158	2860
3227.929	2889
3229.702	2882
3231.476	2901
3233.248	2846
3235.018	2901
3236.789	2932
3238.56	2896
3240.33	2834
3242.1	2864
3243.869	2868
3245.637	2876
3247.405	2879
3249.172	2883
3250.941	2918
3252.707	2847
3254.474	2907
3256.24	2890
3258.006	2848
3259.772	2896
3261.537	2876
3263.301	2925
3265.065	2895
3266.828	2966
3268.592	2813
3270.355	2857
3272.117	2794
3273.878	2890
3275.64	2932
3277.401	2877
3279.162	2837
3280.922	2873
3282.682	2839
3284.441	2876
3286.199	2879
3287.959	2905
3289.716	2860
3291.475	2926
3293.232	2830
3294.988	2883
3296.744	2881
3298.501	2889
3300.256	2805
3302.011	2828
3303.766	2843
3305.52	2923
3307.275	2886
3309.028	2836
3310.781	2812
3312.533	2919
3314.285	2918
3316.038	2889
3317.789	2890
3319.54	2900
3321.289	2912
3323.039	2920
3324.789	2899
3326.539	2846
3328.288	2918
3330.035	2914
3331.783	2925
3333.531	2799
3335.28	2863
3337.025	2823
3338.771	2830
3340.518	2847
3342.262	2886
3344.009	2918
3345.753	2854
3347.497	2894
3349.24	2866
3350.983	2782
3352.726	2965
3354.469	2843
3356.212	2847
3357.952	2798
3359.694	2885
3361.434	2832
3363.176	2845
3364.916	2887
3366.654	2804
3368.394	2768
3370.132	2886
3371.871	2791
3373.61	2798
3375.346	2698
3377.083	2802
3378.82	2798
3380.556	2858
3382.292	2848
3384.027	2733
3385.763	2825
3387.497	2784
3389.231	2712
3390.965	2761
3392.698	2825
3394.431	2740
3396.164	2846
3397.896	2767
3399.627	2747
3401.36	2801
3403.09	2787
3404.82	2774
3406.55	2809
3408.279	2754
3410.01	2727
3411.738	2828
3413.467	2832
3415.194	2754
3416.92	2821
3418.647	2741
3420.375	2691
3422.102	2766
3423.827	2770
3425.553	2759
3427.277	2775
3429.003	2762
3430.727	2807
3432.451	2770
3434.173	2784
3435.896	2741
3437.62	2751
3439.343	2752
3441.063	2714
3442.785	2693
3444.505	2737
3446.226	2748
3447.948	2721
3449.666	2746
3451.386	2722
3453.104	2668
3454.823	2797
3456.541	2706
3458.259	2635
3459.976	2741
3461.693	2686
3463.408	2678
3465.125	2684
3466.841	2659
3468.556	2747
3470.271	2670
3471.985	2714
3473.698	2610
3475.414	2611
3477.126	2620
3478.838	2632
3480.55	2682
3482.263	2672
3483.975	2642
3485.686	2680
3487.396	2617
3489.106	2635
3490.817	2639
3492.526	2588
3494.236	2707
3495.944	2591
3497.652	2607
3499.359	2619
3501.066	2614
3502.775	2611
3504.481	2613
3506.187	2636
3507.893	2580
3509.598	2543
3511.304	2590
3513.009	2595
3514.713	2607
3516.417	2588
3518.12	2541
3519.821	2538
3521.525	2592
3523.228	2551
3524.929	2591
3526.631	2543
3528.33	2557
3530.032	2554
3531.733	2530
3533.433	2519
3535.131	2511
3536.83	2536
3538.529	2550
3540.227	2617
3541.925	2533
3543.623	2568
3545.319	2591
3547.016	2595
3548.712	2577
3550.408	2532
3552.103	2606
3553.798	2571
3555.491	2506
3557.188	2495
3558.88	2544
3560.574	2499
3562.266	2551
3563.959	2587
3565.651	2557
3567.343	2529
3569.035	2506
3570.725	2563
3572.415	2514
3574.106	2491
3575.797	2518
3577.485	2507
3579.174	2474
3580.863	2516
3582.551	2449
3584.238	2491
3585.926	2487
3587.613	2494
3589.3	2484
3590.986	2458
3592.671	2468
3594.357	2515
3596.042	2466
3597.726	2494
3599.41	2479
3601.094	2413
3602.778	2573
3604.461	2423
3606.143	2489
3607.825	2379
3609.507	2515
3611.188	2399
3612.87	2384
3614.551	2469
3616.229	2461
3617.909	2362
3619.589	2457
3621.269	2446
3622.948	2422
3624.625	2413
3626.302	2374
3627.98	2405
3629.657	2415
3631.334	2423
3633.01	2382
3634.686	2450
3636.361	2437
3638.036	2406
3639.712	2346
3641.385	2442
3643.06	2353
3644.732	2433
3646.405	2367
3648.08	2459
3649.751	2431
3651.424	2408
3653.094	2330
3654.766	2319
3656.436	2333
3658.106	2387
3659.777	2320
3661.446	2390
3663.115	2427
3664.783	2287
3666.452	2328
3668.121	2336
3669.788	2349
3671.454	2317
3673.121	2299
3674.789	2333
3676.455	2292
3678.12	2344
3679.784	2247
3681.45	2346
3683.114	2332
3684.779	2427
3686.442	2301
3688.105	2359
3689.768	2305
3691.43	2318
3693.093	2319
3694.754	2299
3696.415	2301
3698.076	2350
3699.736	2308
3701.396	2298
3703.057	2323
3704.716	2313
3706.375	2322
3708.034	2321
3709.692	2292
3711.351	2289
3713.008	2261
3714.665	2347
3716.321	2314
3717.977	2317
3719.634	2261
3721.29	2233
3722.945	2334
3724.598	2322
3726.253	2238
3727.907	2342
3729.561	2303
3731.214	2292
3732.867	2249
3734.518	2294
3736.171	2276
3737.824	2311
3739.474	2204
3741.125	2262
3742.775	2280
3744.425	2285
3746.074	2318
3747.725	2253
3749.373	2266
3751.022	2250
3752.669	2235
3754.318	2277
3755.966	2290
3757.612	2253
3759.259	2233
3760.905	2206
3762.55	2232
3764.197	2242
3765.842	2245
3767.486	2268
3769.131	2250
3770.774	2279
3772.417	2263
3774.061	2231
3775.705	2246
3777.347	2234
3778.988	2256
3780.629	2256
3782.271	2225
3783.912	2205
3785.552	2219
3787.192	2233
3788.831	2217
3790.472	2244
3792.112	2261
3793.75	2219
3795.388	2236
3797.024	2263
3798.661	2207
3800.3	2184
3801.936	2199
3803.572	2292
3805.208	2228
3806.844	2180
3808.48	2164
3810.115	2179
3811.748	2260
3813.382	2244
3815.016	2202
3816.649	2210
3818.283	2174
3819.914	2181
3821.547	2170
3823.178	2240
3824.809	2210
3826.441	2152
3828.072	2275
3829.701	2191
3831.331	2204
3832.96	2181
3834.591	2157
3836.219	2163
3837.847	2171
3839.475	2114
3841.102	2163
3842.729	2156
3844.357	2187
3845.984	2135
3847.609	2177
3849.234	2152
3850.86	2217
3852.485	2159
3854.11	2193
3855.734	2152
3857.357	2168
3858.981	2123
3860.603	2141
3862.227	2168
3863.848	2121
3865.471	2145
3867.092	2158
3868.713	2063
3870.334	2172
3871.954	2084
3873.575	2182
3875.194	2099
3876.813	2025
3878.433	2125
3880.051	2059
3881.669	2098
3883.286	2127
3884.904	2086
3886.52	2108
3888.138	2103
3889.754	2117
3891.37	2137
3892.985	2199
3894.6	2084
3896.216	2129
3897.831	2148
3899.444	2067
3901.058	2143
3902.67	2101
3904.283	1992
3905.897	2126
3907.509	2068
3909.121	2170
3910.731	2124
3912.342	2070
3913.954	2118
3915.563	2153
3917.174	2094
3918.783	2121
3920.391	2079
3922.002	2139
3923.611	2056
3925.218	2088
3926.826	2129
3928.432	2079
3930.039	2072
3931.647	2120
3933.253	2093
3934.859	2079
3936.464	2135
3938.068	2126
3939.675	2104
3941.278	2054
3942.883	2061
3944.486	2086
3946.089	2069
3947.692	2103
3949.295	2055
3950.898	2104
3952.499	2110
3954.1	2019
3955.7	2107
3957.303	2093
3958.903	2066
3960.502	2052
3962.101	2019
3963.7	2106
3965.301	2094
3966.899	2068
3968.497	2108
3970.094	2051
3971.691	2059
3973.288	2036
3974.885	2031
3976.481	2065
3978.077	2089
3979.672	2050
3981.267	2014
3982.863	2039
3984.457	2058
3986.051	1947
3987.645	2037
3989.238	2074
3990.831	2026
3992.425	2002
3994.017	2046
3995.607	2047
3997.199	1981
3998.79	2016
4000.382	1930
4001.973	2012
4003.561	2018
4005.151	2047
4006.741	2038
4008.331	2045
4009.918	2009
4011.507	1924
4013.095	1989
4014.681	1986
4016.269	2003
4017.856	1960
4019.443	1903
4021.028	1943
4022.614	1963
4024.199	2016
4025.785	2019
4027.37	1987
4028.953	2014
4030.536	1956
4032.12	1968
4033.704	1937
4035.287	2025
4036.869	2042
4038.45	1940
4040.032	1951
4041.613	1960
4043.195	1950
4044.776	1948
4046.356	1971
4047.935	1921
4049.515	1913
4051.095	1913
4052.674	1937
4054.251	1958
4055.829	1938
4057.406	1944
4058.985	1918
4060.562	1977
4062.139	1951
4063.715	1951
4065.29	1987
4066.865	1933
4068.442	1932
4070.016	1928
4071.59	1974
4073.164	1916
4074.738	1963
4076.312	1931
4077.885	1952
4079.458	1962
4081.03	1903
4082.602	1970
4084.173	1883
4085.745	1885
4087.315	1942
4088.886	1916
4090.456	1954
4092.026	1934
4093.596	1940
4095.165	1906
4096.734	1978
4098.301	1912
4099.869	1904
4101.437	1929
4103.006	1962
4104.572	1897
4106.139	1980
4107.704	1911
4109.27	1943
4110.837	1838
4112.401	1949
4113.966	1919
4115.53	1888
4117.094	1955
4118.659	1904
4120.223	1885
4121.785	1891
4123.347	1911
4124.909	1839
4126.471	1870
4128.034	1928
4129.595	1825
4131.155	1851
4132.716	1869
4134.275	1864
4135.836	1885
4137.395	1873
4138.955	1845
4140.513	1871
4142.071	1899
4143.628	1868
4145.188	1830
4146.745	1936
4148.302	1838
4149.858	1872
4151.414	1848
4152.971	1881
4154.526	1819
4156.081	1878
4157.635	1827
4159.189	1830
4160.745	1833
4162.298	1876
4163.852	1841
4165.405	1877
4166.957	1789
4168.51	1865
4170.063	1826
4171.614	1826
4173.166	1787
4174.717	1878
4176.267	1820
4177.817	1867
4179.368	1793
4180.917	1785
4182.466	1843
4184.016	1800
4185.564	1785
4187.112	1797
4188.66	1782
4190.207	1785
4191.754	1805
4193.301	1820
4194.848	1829
4196.394	1742
4197.94	1784
4199.484	1799
4201.03	1780
4202.575	1767
4204.12	1809
4205.663	1752
4207.207	1826
4208.75	1804
4210.292	1763
4211.836	1802
4213.378	1756
4214.92	1822
4216.46	1761
4218.002	1818
4219.544	1752
4221.083	1763
4222.625	1793
4224.164	1774
4225.703	1802
4227.244	1797
4228.782	1806
4230.32	1719
4231.857	1733
4233.395	1786
4234.933	1726
4236.471	1833
4238.007	1752
4239.542	1778
4241.078	1791
4242.614	1763
4244.15	1757
4245.685	1798
4247.219	1745
4248.753	1783
4250.287	1812
4251.82	1753
4253.354	1787
4254.887	1749
4256.419	1703
4257.951	1742
4259.483	1728
4261.016	1733
4262.547	1805
4264.078	1772
4265.608	1724
4267.137	1757
4268.668	1751
4270.197	1782
4271.727	1804
4273.254	1735
4274.783	1694
4276.311	1740
4277.84	1697
4279.366	1722
4280.894	1694
4282.42	1737
4283.946	1653
4285.473	1725
4286.998	1703
4288.523	1727
4290.047	1728
4291.572	1668
4293.096	1728
4294.622	1734
4296.144	1714
4297.668	1729
4299.19	1696
4300.713	1744
4302.236	1672
4303.758	1714
4305.279	1645
4306.799	1713
4308.321	1686
4309.842	1684
4311.361	1746
4312.882	1693
4314.401	1706
