400.0961	5145
402.6185	5123
405.1424	5097
407.6635	5150
410.1838	5129
412.7035	5171
415.2225	5186
417.7388	5248
420.2585	5278
422.7754	5240
425.2917	5408
427.8072	5395
430.3221	5549
432.8363	5403
435.3498	5459
437.8626	5362
440.3727	5390
442.8841	5555
445.3969	5413
447.907	5466
450.4142	5365
452.9229	5432
455.4289	5430
457.9362	5481
460.4449	5469
462.9488	5342
465.454	5459
467.9566	5515
470.4604	5449
472.9637	5420
475.4662	5489
477.966	5472
480.4671	5533
482.9656	5509
485.4633	5523
487.9645	5498
490.4608	5555
492.9566	5580
495.4536	5575
497.948	5529
500.4437	5647
502.9387	5604
505.431	5649
507.9226	5569
510.4136	5676
512.9079	5691
515.3975	5739
517.8864	5793
520.3746	5707
522.8622	5622
525.3491	5637
527.8394	5606
530.3249	5770
532.8098	5609
535.2939	5682
537.7774	5700
540.2623	5650
542.7444	5555
545.2259	5611
547.7067	5705
550.1868	5739
552.6683	5728
555.147	5688
557.6231	5743
560.1005	5722
562.5773	5795
565.0534	5767
567.5308	5732
570.0056	5757
572.4776	5878
574.951	5828
577.4237	5909
579.8978	5924
582.3671	5926
584.8378	5883
587.3079	5907
589.7773	5977
592.244	5929
594.714	5819
597.1793	5954
599.6461	5980
602.1121	5827
604.5754	5895
607.0421	5837
609.5042	5847
611.9675	5865
614.4282	5839
616.8902	5953
619.3515	5904
621.8122	5840
624.2702	5885
626.7296	5847
629.1863	5785
631.6423	5854
634.1017	5870
636.5563	5833
639.0104	5789
641.4658	5805
643.9185	5895
646.3725	5979
648.8239	5915
651.2766	5963
653.7266	5942
656.176	5927
658.6247	5950
661.0748	5949
663.5242	6115
665.9709	5909
668.417	6015
670.8624	6097
673.3092	5967
675.7533	6032
678.1968	6030
680.6395	6019
683.0817	6122
685.5251	6025
687.9659	6152
690.4061	6071
692.8456	6045
695.2844	6130
697.7226	6204
700.1621	6160
702.599	6213
705.0332	6118
707.4688	6129
709.9036	6191
712.3399	6352
714.7735	6151
717.2044	6178
719.6367	6074
722.0683	6102
724.4993	6245
726.9296	6311
729.3593	6232
731.7883	6211
734.2147	6335
736.6423	6338
739.0714	6290
741.4958	6278
743.9216	6380
746.3447	6361
748.7691	6420
751.1929	6353
753.616	6483
756.0366	6356
758.4584	6510
760.8776	6369
763.2982	6380
765.718	6507
768.1373	6567
770.5539	6571
772.9698	6581
775.3871	6439
777.8038	6522
780.2178	6573
782.6332	6423
785.0459	6535
787.458	6474
789.8714	6601
792.2842	6576
794.6943	6512
797.1038	6615
799.5127	6493
801.9209	6576
804.3324	6561
806.7393	6665
809.1456	6655
811.5513	6627
813.9562	6624
816.3625	6618
818.7663	6636
821.1693	6528
823.5718	6643
825.9735	6534
828.3746	6571
830.7771	6707
833.177	6618
835.5762	6548
837.9747	6610
840.3727	6676
842.772	6594
845.1666	6770
847.5626	6679
849.958	6684
852.3527	6732
854.7488	6728
857.1403	6797
859.5331	6713
861.9253	6703
864.3168	6655
866.7057	6800
869.098	6628
871.4876	6725
873.8746	6563
876.263	6647
878.6487	6731
881.0378	6736
883.4243	6730
885.8081	6756
888.1933	6651
890.5759	6713
892.9598	6672
895.343	6649
897.7256	6664
900.1057	6744
902.4871	6777
904.8659	6863
907.246	6709
909.6254	6866
912.0023	6832
914.3786	6759
916.7562	6923
919.1331	6917
921.5074	7068
923.8831	7068
926.2562	6966
928.6287	7064
931.0005	7143
933.3757	7109
935.7462	7106
938.1162	7093
940.4855	7340
942.8542	7280
945.2242	7372
947.5916	7581
949.9584	7505
952.3266	7820
954.6921	8088
957.0571	8208
959.4233	8523
961.787	8656
964.15	8526
966.5125	8218
968.8742	7809
971.2354	7649
973.5959	7372
975.9559	7219
978.3151	7172
980.6738	7205
983.0338	7061
985.3912	6982
987.7461	7055
990.1022	6952
992.4578	6920
994.8127	6911
997.1689	6968
999.5207	6980
1001.874	7020
1004.226	7045
1006.576	7012
1008.929	7022
1011.28	7016
1013.628	6935
1015.977	6810
1018.324	6981
1020.674	6922
1023.019	6988
1025.366	7029
1027.713	7073
1030.056	7063
1032.399	7002
1034.746	7095
1037.087	7096
1039.431	7142
1041.771	7139
1044.113	7065
1046.454	7123
1048.793	7202
1051.133	7114
1053.471	7198
1055.807	7135
1058.146	7198
1060.483	7131
1062.818	7307
1065.153	7288
1067.489	7215
1069.822	7208
1072.156	7320
1074.488	7366
1076.82	7310
1079.15	7328
1081.48	7199
1083.814	7230
1086.143	7168
1088.471	7160
1090.799	7122
1093.126	7261
1095.452	7199
1097.78	7218
1100.105	7197
1102.43	7105
1104.754	7244
1107.077	7147
1109.4	7143
1111.722	7121
1114.044	7141
1116.365	7193
1118.685	7209
1121.005	7088
1123.324	7176
1125.643	7119
1127.961	7152
1130.278	7260
1132.595	7077
1134.911	7238
1137.226	7152
1139.541	7244
1141.854	7151
1144.167	7205
1146.482	7050
1148.793	7163
1151.105	7174
1153.414	7103
1155.725	7158
1158.033	7255
1160.344	7290
1162.651	7420
1164.959	7067
1167.265	7311
1169.572	7214
1171.878	7265
1174.184	7236
1176.488	7230
1178.79	7283
1181.094	7262
1183.396	7313
1185.699	7177
1188.001	7155
1190.301	7136
1192.6	7147
1194.9	7268
1197.2	7224
1199.497	7215
1201.794	7472
1204.09	7115
1206.387	7273
1208.684	7179
1210.978	7297
1213.272	7105
1215.565	7367
1217.858	7421
1220.15	7260
1222.443	7228
1224.734	7317
1227.024	7380
1229.313	7387
1231.602	7435
1233.892	7318
1236.18	7460
1238.467	7486
1240.754	7487
1243.04	7595
1245.325	7600
1247.612	7414
1249.896	7470
1252.178	7577
1254.461	7672
1256.743	7494
1259.027	7424
1261.308	7567
1263.587	7447
1265.867	7600
1268.146	7507
1270.425	7537
1272.703	7581
1274.981	7549
1277.256	7423
1279.532	7541
1281.808	7468
1284.083	7444
1286.358	7441
1288.63	7493
1290.904	7443
1293.175	7445
1295.449	7483
1297.719	7428
1299.99	7467
1302.259	7487
1304.529	7381
1306.798	7310
1309.065	7453
1311.333	7543
1313.599	7398
1315.866	7443
1318.131	7486
1320.396	7425
1322.66	7459
1324.925	7526
1327.187	7433
1329.448	7375
1331.711	7449
1333.974	7571
1336.234	7450
1338.493	7459
1340.752	7493
1343.01	7274
1345.269	7475
1347.526	7393
1349.784	7382
1352.04	7453
1354.295	7501
1356.552	7405
1358.806	7470
1361.059	7427
1363.312	7376
1365.564	7351
1367.818	7461
1370.069	7513
1372.318	7454
1374.568	7377
1376.817	7569
1379.066	7539
1381.316	7431
1383.564	7562
1385.809	7515
1388.056	7396
1390.301	7638
1392.549	7598
1394.793	7568
1397.036	7713
1399.279	7643
1401.522	7634
1403.763	7741
1406.007	7582
1408.248	7650
1410.487	7559
1412.727	7635
1414.965	7647
1417.205	7582
1419.442	7774
1421.68	7592
1423.915	7742
1426.152	7713
1428.388	7539
1430.623	7590
1432.857	7678
1435.091	7817
1437.323	7731
1439.556	7739
1441.789	7676
1444.019	7638
1446.25	7731
1448.48	7782
1450.708	7827
1452.938	7809
1455.167	7854
1457.394	7857
1459.62	7838
1461.846	7819
1464.073	7917
1466.299	7762
1468.523	7742
1470.746	7717
1472.969	7694
1475.191	7645
1477.415	7620
1479.636	7579
1481.858	7563
1484.078	7588
1486.298	7448
1488.518	7389
1490.736	7518
1492.954	7567
1495.169	7516
1497.386	7443
1499.602	7495
1501.819	7399
1504.034	7449
1506.248	7439
1508.462	7400
1510.675	7503
1512.888	7329
1515.1	7445
1517.311	7526
1519.522	7396
1521.732	7428
1523.942	7493
1526.151	7478
1528.36	7469
1530.566	7387
1532.773	7566
1534.98	7440
1537.187	7389
1539.392	7428
1541.596	7535
1543.801	7564
1546.005	7593
1548.208	7558
1550.411	7452
1552.612	7575
1554.814	7573
1557.013	7586
1559.212	7584
1561.414	7572
1563.612	7599
1565.811	7527
1568.007	7648
1570.203	7653
1572.403	7477
1574.598	7586
1576.792	7649
1578.988	7638
1581.181	7650
1583.376	7615
1585.568	7716
1587.761	7685
1589.952	7655
1592.143	7754
1594.333	7782
1596.524	7787
1598.715	7758
1600.903	7701
1603.091	7643
1605.278	7764
1607.466	7682
1609.652	7818
1611.838	7698
1614.023	7692
1616.207	7793
1618.391	7701
1620.576	7805
1622.759	7674
1624.941	7800
1627.123	7787
1629.304	7653
1631.484	7735
1633.664	7864
1635.844	7733
1638.022	7858
1640.201	7884
1642.38	7888
1644.556	7864
1646.732	7827
1648.908	7822
1651.084	7951
1653.257	7718
1655.433	7932
1657.607	7837
1659.779	7976
1661.951	7921
1664.122	7942
1666.295	7918
1668.467	8080
1670.635	7961
1672.805	7757
1674.973	7922
1677.142	7888
1679.31	7899
1681.478	7974
1683.644	7840
1685.81	7862
1687.975	7768
1690.142	7939
1692.305	7919
1694.468	7627
1696.632	7796
1698.794	7733
1700.957	7857
1703.119	7662
1705.279	7582
1707.439	7789
1709.598	7832
1711.758	7654
1713.917	7705
1716.075	7710
1718.231	7732
1720.388	7745
1722.543	7798
1724.702	7707
1726.856	7744
1729.01	7620
1731.164	7652
1733.317	7793
1735.471	7662
1737.623	7675
1739.774	7709
1741.925	7677
1744.075	7601
1746.225	7720
1748.376	7679
1750.524	7717
1752.672	7571
1754.82	7750
1756.965	7760
1759.113	7674
1761.259	7740
1763.405	7727
1765.549	7836
1767.694	7730
1769.836	7634
1771.981	7836
1774.123	7689
1776.264	7854
1778.405	7705
1780.546	7838
1782.687	7733
1784.827	7705
1786.966	7698
1789.103	7794
1791.242	7864
1793.381	7775
1795.517	7883
1797.653	7732
1799.788	7729
1801.923	7889
1804.057	7814
1806.193	7687
1808.326	7802
1810.457	7737
1812.59	7621
1814.721	7801
1816.855	7968
1818.984	7779
1821.113	7755
1823.244	7679
1825.372	7762
1827.499	7760
1829.63	7796
1831.756	7791
1833.882	7721
1836.007	7726
1838.132	7712
1840.26	7830
1842.384	7675
1844.507	7638
1846.63	7672
1848.752	7676
1850.875	7670
1852.996	7749
1855.118	7729
1857.238	7684
1859.358	7761
1861.477	7628
1863.597	7652
1865.715	7687
1867.832	7728
1869.948	7757
1872.064	7684
1874.181	7662
1876.297	7713
1878.411	7559
1880.526	7701
1882.639	7594
1884.752	7733
1886.865	7674
1888.977	7749
1891.089	7646
1893.2	7805
1895.308	7767
1897.42	7812
1899.53	7648
1901.639	7775
1903.745	7762
1905.853	7808
1907.962	7799
1910.067	7641
1912.174	7885
1914.278	7888
1916.383	7777
1918.486	7907
1920.592	7797
1922.694	7815
1924.797	7820
1926.898	7730
1929	7891
1931.102	7773
1933.203	7743
1935.301	7795
1937.401	7833
1939.499	7838
1941.598	7877
1943.697	7861
1945.793	7765
1947.888	7849
1949.985	7891
1952.08	7827
1954.176	7843
1956.269	7790
1958.364	7782
1960.457	7777
1962.549	7776
1964.642	7746
1966.733	7732
1968.823	7795
1970.913	7717
1973.005	7904
1975.093	7774
1977.184	7712
1979.271	7748
1981.359	7688
1983.446	7754
1985.532	7773
1987.619	7802
1989.705	7754
1991.789	7699
1993.874	7736
1995.956	7764
1998.041	7696
2000.123	7783
2002.206	7746
2004.287	7647
2006.368	7696
2008.449	7533
2010.529	7627
2012.609	7749
2014.688	7627
2016.766	7662
2018.843	7741
2020.922	7741
2022.999	7679
2025.074	7708
2027.15	7609
2029.225	7618
2031.299	7644
2033.375	7751
2035.447	7701
2037.52	7624
2039.592	7658
2041.664	7728
2043.736	7679
2045.807	7553
2047.876	7708
2049.947	7706
2052.015	7721
2054.086	7648
2056.153	7639
2058.221	7740
2060.288	7820
2062.353	7772
2064.42	7683
2066.486	7678
2068.55	7774
2070.614	7789
2072.678	7786
2074.741	7650
2076.805	7687
2078.866	7744
2080.929	7744
2082.99	7714
2085.049	7761
2087.109	7662
2089.17	7580
2091.228	7651
2093.286	7698
2095.344	7680
2097.4	7750
2099.46	7580
2101.516	7793
2103.572	7815
2105.626	7652
2107.679	7606
2109.735	7637
2111.788	7650
2113.841	7633
2115.894	7756
2117.945	7690
2119.997	7563
2122.049	7680
2124.1	7759
2126.148	7684
2128.197	7602
2130.246	7648
2132.296	7598
2134.342	7773
2136.39	7758
2138.437	7717
2140.483	7625
2142.527	7589
2144.574	7642
2146.619	7597
2148.661	7799
2150.705	7617
2152.747	7670
2154.792	7717
2156.832	7680
2158.874	7663
2160.915	7640
2162.954	7641
2164.995	7708
2167.034	7542
2169.072	7637
2171.111	7668
2173.148	7498
2175.186	7661
2177.223	7534
2179.258	7610
2181.294	7621
2183.328	7636
2185.362	7575
2187.398	7466
2189.431	7560
2191.463	7590
2193.495	7541
2195.528	7532
2197.56	7538
2199.59	7559
2201.62	7455
2203.649	7477
2205.678	7576
2207.708	7489
2209.737	7582
2211.764	7459
2213.791	7428
2215.817	7419
2217.843	7456
2219.87	7573
2221.895	7587
2223.919	7553
2225.942	7561
2227.966	7515
2229.988	7459
2232.012	7473
2234.032	7524
2236.054	7432
2238.074	7389
2240.095	7593
2242.116	7407
2244.135	7476
2246.153	7468
2248.171	7503
2250.188	7443
2252.208	7403
2254.223	7484
2256.239	7467
2258.255	7544
2260.269	7479
2262.283	7470
2264.3	7404
2266.312	7432
2268.325	7465
2270.336	7358
2272.349	7717
2274.362	7454
2276.372	7468
2278.383	7518
2280.392	7468
2282.402	7520
2284.409	7468
2286.418	7427
2288.427	7578
2290.433	7364
2292.441	7568
2294.446	7412
2296.453	7422
2298.459	7572
2300.463	7446
2302.466	7491
2304.471	7601
2306.475	7564
2308.477	7433
2310.478	7388
2312.481	7307
2314.481	7437
2316.481	7303
2318.482	7259
2320.482	7423
2322.48	7434
2324.48	7475
2326.478	7305
2328.476	7364
2330.473	7333
2332.469	7241
2334.465	7307
2336.46	7380
2338.454	7352
2340.45	7328
2342.444	7260
2344.437	7288
2346.43	7332
2348.421	7329
2350.414	7356
2352.405	7326
2354.396	7263
2356.386	7362
2358.376	7315
2360.366	7253
2362.355	7190
2364.343	7342
2366.331	7238
2368.317	7378
2370.304	7307
2372.292	7326
2374.278	7166
2376.262	7333
2378.247	7302
2380.23	7156
2382.216	7157
2384.199	7297
2386.181	7128
2388.163	7145
2390.144	7269
2392.127	7335
2394.107	7248
2396.087	7140
2398.066	7258
2400.046	7179
2402.023	7151
2404.004	7185
2405.981	7086
2407.957	7192
2409.934	7218
2411.91	7236
2413.886	7138
2415.862	7206
2417.836	7126
2419.809	7377
2421.784	7077
2423.756	7375
2425.73	7252
2427.701	7199
2429.672	7194
2431.644	7129
2433.615	7208
2435.586	7163
2437.555	7112
2439.523	7206
2441.491	7245
2443.459	7218
2445.428	7209
2447.395	7145
2449.361	7180
2451.327	7114
2453.292	7144
2455.257	7124
2457.223	7131
2459.187	7178
2461.15	7136
2463.113	7151
2465.076	7226
2467.039	7141
2468.999	7220
2470.96	7078
2472.921	7063
2474.881	7071
2476.841	7023
2478.8	7123
2480.759	7044
2482.717	7018
2484.675	7145
2486.63	6997
2488.589	7030
2490.545	7035
2492.5	7098
2494.455	7086
2496.408	7012
2498.364	6974
2500.318	7015
2502.27	7051
2504.223	7021
2506.174	6988
2508.126	7028
2510.078	6990
2512.03	7104
2513.979	7114
2515.927	6965
2517.877	6967
2519.826	7009
2521.775	7013
2523.722	7106
2525.668	7045
2527.616	7000
2529.561	7064
2531.508	7027
2533.452	6929
2535.398	6936
2537.342	7029
2539.284	6988
2541.229	7033
2543.173	7032
2545.114	6961
2547.055	7028
2548.996	6971
2550.938	6985
2552.878	7023
2554.817	6986
2556.756	6952
2558.695	6907
2560.633	6884
2562.572	6880
2564.509	7046
2566.445	6991
2568.382	6978
2570.317	6919
2572.254	7084
2574.189	6994
2576.123	6857
2578.057	7029
2579.99	6986
2581.923	6926
2583.855	7079
2585.788	7008
2587.719	6912
2589.65	6996
2591.579	6983
2593.511	6801
2595.44	6957
2597.37	6922
2599.297	6956
2601.225	6990
2603.153	6979
2605.08	6969
2607.007	7038
2608.932	6958
2610.858	7045
2612.782	6847
2614.709	6960
2616.632	6985
2618.556	7024
2620.478	6999
2622.401	7056
2624.324	7057
2626.247	6888
2628.167	6944
2630.088	7078
2632.008	6981
2633.928	6938
2635.848	6882
2637.766	7001
2639.684	7048
2641.603	6983
2643.519	6929
2645.437	7053
2647.353	6978
2649.27	6927
2651.184	7035
2653.099	7042
2655.014	7005
2656.928	6828
2658.842	6936
2660.755	6917
2662.667	6872
2664.579	7048
2666.491	7041
2668.402	6914
2670.312	7048
2672.222	6928
2674.132	6820
2676.042	6822
2677.951	7030
2679.859	6993
2681.766	6883
2683.674	6962
2685.582	6870
2687.488	6999
2689.392	6901
2691.298	6936
2693.202	6810
2695.107	6861
2697.012	6802
2698.914	6901
2700.817	6920
2702.72	6862
2704.622	6837
2706.524	6832
2708.425	6768
2710.326	6836
2712.225	6952
2714.125	6714
2716.024	6828
2717.923	6870
2719.822	6802
2721.719	6866
2723.616	6816
2725.512	6809
2727.41	6844
2729.305	6812
2731.201	6769
2733.095	6813
2734.99	6819
2736.884	6759
2738.778	6813
2740.67	6958
2742.562	6783
2744.455	6916
2746.346	6870
2748.238	6786
2750.129	6787
2752.018	6764
2753.907	6791
2755.797	6785
2757.687	6813
2759.575	6757
2761.462	6793
2763.349	6670
2765.237	6856
2767.124	6768
2769.009	6794
2770.894	6701
2772.779	6918
2774.663	6699
2776.547	6738
2778.431	6661
2780.314	6761
2782.197	6728
2784.078	6653
2785.96	6651
2787.842	6796
2789.723	6800
2791.603	6808
2793.483	6648
2795.362	6743
2797.241	6848
2799.121	6646
2800.997	6655
2802.874	6766
2804.751	6681
2806.628	6734
2808.506	6696
2810.38	6864
2812.255	6652
2814.13	6667
2816.003	6661
2817.878	6749
2819.752	6786
2821.623	6779
2823.496	6648
2825.368	6776
2827.238	6743
2829.111	6589
2830.98	6687
2832.851	6754
2834.719	6706
2836.589	6721
2838.458	6666
2840.327	6677
2842.193	6734
2844.061	6646
2845.927	6678
2847.794	6801
2849.66	6743
2851.525	6660
2853.39	6568
2855.254	6825
2857.117	6743
2858.983	6771
2860.845	6761
2862.707	6806
2864.569	6850
2866.431	6934
2868.293	6822
2870.154	6859
2872.013	7023
2873.873	6998
2875.733	7169
2877.592	7082
2879.451	7085
2881.309	7160
2883.166	7171
2885.022	7132
2886.879	7204
2888.736	7261
2890.591	7294
2892.446	7110
2894.301	7195
2896.155	7190
2898.009	7164
2899.863	7145
2901.716	7247
2903.568	7166
2905.419	7185
2907.27	7205
2909.123	7116
2910.973	7096
2912.824	7270
2914.673	7354
2916.521	7260
2918.372	7365
2920.22	7374
2922.067	7348
2923.914	7528
2925.761	7597
2927.607	7671
2929.455	7603
2931.301	7582
2933.144	7742
2934.99	7709
2936.833	7707
2938.678	7818
2940.522	7826
2942.364	8056
2944.207	7913
2946.048	8155
2947.891	8098
2949.731	8118
2951.571	7917
2953.412	8018
2955.25	7756
2957.09	7709
2958.93	7817
2960.767	7665
2962.606	7742
2964.443	7673
2966.279	7702
2968.116	7569
2969.953	7429
2971.788	7367
2973.623	7273
2975.457	7293
2977.292	7195
2979.127	7295
2980.959	7322
2982.792	7183
2984.624	7097
2986.455	7121
2988.288	7173
2990.119	7169
2991.949	6988
2993.779	7066
2995.608	7151
2997.439	6899
2999.268	7069
3001.096	6864
3002.923	6909
3004.751	6761
3006.578	6672
3008.406	6708
3010.232	6546
3012.057	6569
3013.883	6585
3015.706	6598
3017.532	6618
3019.356	6515
3021.179	6352
3023.002	6466
3024.823	6426
3026.646	6446
3028.469	6342
3030.289	6464
3032.11	6500
3033.93	6409
3035.749	6299
3037.57	6367
3039.39	6347
3041.207	6417
3043.026	6194
3044.842	6361
3046.661	6418
3048.477	6289
3050.294	6241
3052.109	6314
3053.925	6184
3055.739	6222
3057.555	6232
3059.368	6207
3061.181	6314
3062.995	6269
3064.807	6261
3066.62	6279
3068.433	6373
3070.243	6268
3072.054	6405
3073.865	6235
3075.675	6284
3077.485	6241
3079.293	6197
3081.102	6183
3082.911	6133
3084.719	6125
3086.527	6139
3088.333	6079
3090.139	6174
3091.945	6103
3093.75	6142
3095.557	6030
3097.361	6241
3099.165	6177
3100.969	6184
3102.772	6041
3104.575	6116
3106.379	6145
3108.181	6039
3109.982	5952
3111.783	6052
3113.584	6047
3115.386	5996
3117.186	6089
3118.985	5996
3120.783	5943
3122.582	6063
3124.381	5980
3126.179	6046
3127.975	6040
3129.772	6034
3131.569	6050
3133.365	5829
3135.161	5971
3136.956	5866
3138.751	5901
3140.544	6017
3142.338	5885
3144.132	5936
3145.925	5895
3147.717	5911
3149.509	5940
3151.301	6021
3153.091	5932
3154.884	5874
3156.673	5850
3158.462	5974
3160.252	6011
3162.041	5828
3163.831	6003
3165.618	5870
3167.405	5884
3169.193	5783
3170.979	5850
3172.767	5890
3174.553	5846
3176.338	5756
3178.123	5841
3179.907	5909
3181.692	5777
3183.477	5780
3185.259	5878
3187.042	5876
3188.824	5891
3190.607	5845
3192.389	5860
3194.17	5815
3195.951	5879
3197.73	5905
3199.51	5919
3201.289	5828
3203.07	5938
3204.848	5840
3206.626	5841
3208.403	5798
3210.18	5815
3211.959	5771
3213.735	5764
3215.511	5894
3217.285	5874
3219.06	5805
3220.836	5896
3222.611	5808
3224.384	5800
3226.158	5781
3227.929	5854
3229.702	5772
3231.476	5694
3233.248	5725
3235.018	5751
3236.789	5811
3238.56	5868
3240.33	5873
3242.1	5740
3243.869	5765
3245.637	5812
3247.405	5775
3249.172	5822
3250.941	5773
3252.707	5763
3254.474	5734
3256.24	5680
3258.006	5709
3259.772	5832
3261.537	5753
3263.301	5707
3265.065	5829
3266.828	5836
3268.592	5671
3270.355	5840
3272.117	5783
3273.878	5707
3275.64	5697
3277.401	5851
3279.162	5795
3280.922	5724
3282.682	5721
3284.441	5842
3286.199	5734
3287.959	5827
3289.716	5731
3291.475	5827
3293.232	5667
3294.988	5824
3296.744	5728
3298.501	5737
3300.256	5769
3302.011	5794
3303.766	5800
3305.52	5653
3307.275	5683
3309.028	5667
3310.781	5754
3312.533	5758
3314.285	5670
3316.038	5824
3317.789	5751
3319.54	5668
3321.289	5714
3323.039	5748
3324.789	5660
3326.539	5684
3328.288	5714
3330.035	5712
3331.783	5776
3333.531	5690
3335.28	5660
3337.025	5728
3338.771	5612
3340.518	5638
3342.262	5593
3344.009	5785
3345.753	5728
3347.497	5663
3349.24	5743
3350.983	5638
3352.726	5554
3354.469	5687
3356.212	5664
3357.952	5665
3359.694	5567
3361.434	5527
3363.176	5599
3364.916	5630
3366.654	5551
3368.394	5546
3370.132	5554
3371.871	5584
3373.61	5637
3375.346	5473
3377.083	5619
3378.82	5534
3380.556	5543
3382.292	5539
3384.027	5328
3385.763	5477
3387.497	5544
3389.231	5613
3390.965	5544
3392.698	5552
3394.431	5547
3396.164	5560
3397.896	5499
3399.627	5465
3401.36	5564
3403.09	5503
3404.82	5552
3406.55	5489
3408.279	5489
3410.01	5483
3411.738	5297
3413.467	5463
3415.194	5337
3416.92	5453
3418.647	5406
3420.375	5457
3422.102	5368
3423.827	5459
3425.553	5416
3427.277	5326
3429.003	5452
3430.727	5341
3432.451	5328
3434.173	5385
3435.896	5398
3437.62	5339
3439.343	5403
3441.063	5350
3442.785	5390
3444.505	5197
3446.226	5326
3447.948	5300
3449.666	5280
3451.386	5308
3453.104	5382
3454.823	5259
3456.541	5281
3458.259	5201
3459.976	5267
3461.693	5220
3463.408	5187
3465.125	5241
3466.841	5261
3468.556	5252
3470.271	5190
3471.985	5251
3473.698	5248
3475.414	5229
3477.126	5197
3478.838	5237
3480.55	5137
3482.263	5266
3483.975	5224
3485.686	5230
3487.396	5057
3489.106	5127
3490.817	5192
3492.526	5087
3494.236	5060
3495.944	5110
3497.652	5098
3499.359	5141
3501.066	5157
3502.775	5177
3504.481	5118
3506.187	5074
3507.893	5173
3509.598	5017
3511.304	5116
3513.009	5031
3514.713	5051
3516.417	4951
3518.12	5074
3519.821	5035
3521.525	5098
3523.228	5013
3524.929	5006
3526.631	4933
3528.33	4981
3530.032	4956
3531.733	5012
3533.433	5015
3535.131	4949
3536.83	4948
3538.529	4956
3540.227	4988
3541.925	4932
3543.623	4917
3545.319	4994
3547.016	4948
3548.712	4966
3550.408	4901
3552.103	4899
3553.798	4900
3555.491	4854
3557.188	4873
3558.88	4796
3560.574	4848
3562.266	4937
3563.959	4977
3565.651	4819
3567.343	4808
3569.035	4966
3570.725	4824
3572.415	4839
3574.106	4771
3575.797	4832
3577.485	4895
3579.174	4935
3580.863	4916
3582.551	4872
3584.238	4834
3585.926	4844
3587.613	4752
3589.3	4811
3590.986	4827
3592.671	4706
3594.357	4856
3596.042	4780
3597.726	4735
3599.41	4810
3601.094	4747
3602.778	4742
3604.461	4622
3606.143	4634
3607.825	4714
3609.507	4712
3611.188	4658
3612.87	4713
3614.551	4709
3616.229	4616
3617.909	4675
3619.589	4678
3621.269	4734
3622.948	4611
3624.625	4625
3626.302	4765
3627.98	4633
3629.657	4632
3631.334	4658
3633.01	4567
3634.686	4739
3636.361	4530
3638.036	4609
3639.712	4628
3641.385	4573
3643.06	4617
3644.732	4530
3646.405	4496
3648.08	4514
3649.751	4668
3651.424	4592
3653.094	4502
3654.766	4473
3656.436	4496
3658.106	4547
3659.777	4537
3661.446	4612
3663.115	4483
3664.783	4575
3666.452	4536
3668.121	4542
3669.788	4487
3671.454	4576
3673.121	4369
3674.789	4474
3676.455	4462
3678.12	4576
3679.784	4443
3681.45	4490
3683.114	4535
3684.779	4438
3686.442	4465
3688.105	4492
3689.768	4514
3691.43	4488
3693.093	4467
3694.754	4457
3696.415	4437
3698.076	4451
3699.736	4477
3701.396	4389
3703.057	4472
3704.716	4347
3706.375	4448
3708.034	4520
3709.692	4435
3711.351	4359
3713.008	4431
3714.665	4406
3716.321	4315
3717.977	4508
3719.634	4534
3721.29	4331
3722.945	4301
3724.598	4403
3726.253	4349
3727.907	4272
3729.561	4376
3731.214	4380
3732.867	4377
3734.518	4376
3736.171	4360
3737.824	4312
3739.474	4270
3741.125	4303
3742.775	4284
3744.425	4300
3746.074	4309
3747.725	4315
3749.373	4259
3751.022	4349
3752.669	4338
3754.318	4329
3755.966	4290
3757.612	4333
3759.259	4399
3760.905	4295
3762.55	4304
3764.197	4272
3765.842	4280
3767.486	4386
3769.131	4278
3770.774	4308
3772.417	4199
3774.061	4289
3775.705	4262
3777.347	4305
3778.988	4256
3780.629	4251
3782.271	4222
3783.912	4172
3785.552	4394
3787.192	4192
3788.831	4198
3790.472	4213
3792.112	4161
3793.75	4136
3795.388	4234
3797.024	4180
3798.661	4159
3800.3	4173
3801.936	4276
3803.572	4299
3805.208	4194
3806.844	4153
3808.48	4177
3810.115	4177
3811.748	4156
3813.382	4109
3815.016	4147
3816.649	4077
3818.283	4180
3819.914	4207
3821.547	4094
3823.178	4086
3824.809	4008
3826.441	4166
3828.072	4046
3829.701	4033
3831.331	4071
3832.96	4118
3834.591	4086
3836.219	4077
3837.847	4128
3839.475	4084
3841.102	4113
3842.729	4126
3844.357	4040
3845.984	4109
3847.609	3973
3849.234	4115
3850.86	4061
3852.485	4018
3854.11	4047
3855.734	4131
3857.357	3988
3858.981	3993
3860.603	4001
3862.227	3907
3863.848	4014
3865.471	4047
3867.092	4011
3868.713	4069
3870.334	4011
3871.954	4023
3873.575	4000
3875.194	3981
3876.813	4047
3878.433	4001
3880.051	3999
3881.669	3952
3883.286	4020
3884.904	3908
3886.52	3977
3888.138	3924
3889.754	4005
3891.37	3924
3892.985	4014
3894.6	3974
3896.216	3846
3897.831	3884
3899.444	3956
3901.058	3938
3902.67	3906
3904.283	4006
3905.897	3916
3907.509	3983
3909.121	3989
3910.731	3978
3912.342	3969
3913.954	3949
3915.563	3901
3917.174	3924
3918.783	3905
3920.391	3869
3922.002	3895
3923.611	3934
3925.218	3901
3926.826	3895
3928.432	3946
3930.039	3923
3931.647	3931
3933.253	3892
3934.859	3889
3936.464	3876
3938.068	3892
3939.675	3892
3941.278	3798
3942.883	3900
3944.486	3873
3946.089	3880
3947.692	3811
3949.295	3819
3950.898	3837
3952.499	3799
3954.1	3930
3955.7	3831
3957.303	3846
3958.903	3862
3960.502	3834
3962.101	3834
3963.7	3779
3965.301	3858
3966.899	3824
3968.497	3733
3970.094	3717
3971.691	3768
3973.288	3856
3974.885	3781
3976.481	3847
3978.077	3816
3979.672	3717
3981.267	3717
3982.863	3807
3984.457	3840
3986.051	3697
3987.645	3715
3989.238	3728
3990.831	3681
3992.425	3752
3994.017	3713
3995.607	3771
3997.199	3785
3998.79	3749
4000.382	3665
4001.973	3774
4003.561	3679
4005.151	3692
4006.741	3648
4008.331	3712
4009.918	3617
4011.507	3627
4013.095	3647
4014.681	3709
4016.269	3595
4017.856	3673
4019.443	3664
4021.028	3756
4022.614	3684
4024.199	3688
4025.785	3686
4027.37	3646
4028.953	3683
4030.536	3534
4032.12	3635
4033.704	3575
4035.287	3554
4036.869	3584
4038.45	3619
4040.032	3657
4041.613	3554
4043.195	3608
4044.776	3612
4046.356	3584
4047.935	3598
4049.515	3610
4051.095	3563
4052.674	3564
4054.251	3561
4055.829	3507
4057.406	3519
4058.985	3417
4060.562	3532
4062.139	3575
4063.715	3524
4065.29	3477
4066.865	3488
4068.442	3609
4070.016	3496
4071.59	3559
4073.164	3425
4074.738	3477
4076.312	3429
4077.885	3545
4079.458	3580
4081.03	3492
4082.602	3515
4084.173	3582
4085.745	3562
4087.315	3531
4088.886	3502
4090.456	3454
4092.026	3476
4093.596	3429
4095.165	3486
4096.734	3480
4098.301	3420
4099.869	3478
4101.437	3424
4103.006	3438
4104.572	3505
4106.139	3421
4107.704	3483
4109.27	3389
4110.837	3415
4112.401	3447
4113.966	3458
4115.53	3478
4117.094	3436
4118.659	3352
4120.223	3371
4121.785	3428
4123.347	3434
4124.909	3379
4126.471	3446
4128.034	3375
4129.595	3392
4131.155	3322
4132.716	3420
4134.275	3302
4135.836	3463
4137.395	3340
4138.955	3349
4140.513	3309
4142.071	3286
4143.628	3309
4145.188	3330
4146.745	3374
4148.302	3317
4149.858	3363
4151.414	3315
4152.971	3305
4154.526	3326
4156.081	3352
4157.635	3344
4159.189	3355
4160.745	3312
4162.298	3260
4163.852	3290
4165.405	3303
4166.957	3232
4168.51	3268
4170.063	3281
4171.614	3252
4173.166	3300
4174.717	3263
4176.267	3286
4177.817	3343
4179.368	3231
4180.917	3281
4182.466	3220
4184.016	3216
4185.564	3256
4187.112	3223
4188.66	3208
4190.207	3237
4191.754	3224
4193.301	3214
4194.848	3193
4196.394	3268
4197.94	3218
4199.484	3206
4201.03	3142
4202.575	3264
4204.12	3172
4205.663	3122
4207.207	3163
4208.75	3164
4210.292	3184
4211.836	3194
4213.378	3201
4214.92	3132
4216.46	3161
4218.002	3123
4219.544	3211
4221.083	3135
4222.625	3156
4224.164	3108
4225.703	3122
4227.244	3175
4228.782	3250
4230.32	3129
4231.857	3154
4233.395	3124
4234.933	3172
4236.471	3139
4238.007	3135
4239.542	3138
4241.078	3109
4242.614	3099
4244.15	3074
4245.685	3130
4247.219	3158
4248.753	3106
4250.287	3120
4251.82	3077
4253.354	3100
4254.887	3129
4256.419	3192
4257.951	3069
4259.483	3083
4261.016	3135
4262.547	3118
4264.078	3068
4265.608	3108
4267.137	3127
4268.668	3142
4270.197	3106
4271.727	2983
4273.254	3148
4274.783	3084
4276.311	3057
4277.84	3085
4279.366	3047
4280.894	3037
4282.42	3006
4283.946	3022
4285.473	3113
4286.998	3004
4288.523	3121
4290.047	2998
4291.572	2957
4293.096	3021
4294.622	3110
4296.144	3024
4297.668	2970
4299.19	3009
4300.713	2984
4302.236	2973
4303.758	3020
4305.279	2949
4306.799	3077
4308.321	3063
4309.842	3014
4311.361	3017
4312.882	3038
4314.401	3036
