400.0745	5346
402.597	5554
405.1208	5565
407.6419	5550
410.1623	5547
412.6819	5590
415.201	5610
417.7172	5680
420.2369	5787
422.7538	5801
425.2701	5859
427.7856	5928
430.3005	5931
432.8147	6002
435.3282	5840
437.841	5917
440.3511	5909
442.8625	5880
445.3753	5878
447.8854	5885
450.3927	6086
452.9014	5929
455.4073	5943
457.9146	5985
460.4233	5925
462.9272	5922
465.4325	5908
467.935	6016
470.4389	5992
472.9421	5888
475.4446	6028
477.9444	5983
480.4456	5999
482.944	6028
485.4417	6060
487.9429	5998
490.4393	6008
492.935	6108
495.4321	6038
497.9264	6210
500.4221	6081
502.9171	6060
505.4094	6174
507.9011	6176
510.392	6205
512.8864	6160
515.3759	6038
517.8649	6151
520.3531	6139
522.8406	6211
525.3275	6256
527.8178	6194
530.3033	6072
532.7881	6231
535.2723	6194
537.7558	6139
540.2407	6185
542.7228	6157
545.2043	6240
547.6851	6251
550.1652	6335
552.6467	6295
555.1255	6403
557.6016	6320
560.079	6306
562.5557	6285
565.0318	6285
567.5092	6350
569.984	6423
572.456	6378
574.9294	6379
577.4022	6414
579.8762	6489
582.3456	6518
584.8163	6580
587.2863	6613
589.7557	6451
592.2224	6490
594.6924	6527
597.1578	6426
599.6245	6423
602.0905	6505
604.5538	6488
607.0206	6428
609.4825	6371
611.9459	6442
614.4066	6541
616.8686	6539
619.33	6468
621.7906	6581
624.2487	6410
626.708	6555
629.1647	6461
631.6207	6481
634.0801	6504
636.5348	6461
638.9888	6513
641.4442	6479
643.8969	6417
646.3509	6357
648.8022	6559
651.255	6561
653.705	6445
656.1544	6549
658.6031	6463
661.0532	6540
663.5026	6517
665.9493	6561
668.3954	6616
670.8409	6709
673.2877	6622
675.7318	6635
678.1752	6605
680.618	6589
683.0601	6568
685.5035	6640
687.9444	6802
690.3845	6672
692.824	6620
695.2628	6577
697.701	6775
700.1406	6675
702.5774	6602
705.0116	6776
707.4472	6735
709.8821	6798
712.3183	6813
714.7519	6711
717.1829	6815
719.6151	6816
722.0468	6855
724.4777	6871
726.908	6943
729.3377	6925
731.7667	6865
734.1931	6999
736.6208	6911
739.0498	7013
741.4742	7005
743.9	7041
746.3231	7001
748.7476	7175
751.1713	7117
753.5945	7125
756.015	7086
758.4368	7056
760.856	7078
763.2766	7193
765.6965	7133
768.1157	7359
770.5323	7261
772.9483	7194
775.3656	7180
777.7822	7054
780.1963	7170
782.6116	7257
785.0244	7147
787.4365	7140
789.8499	7160
792.2626	7149
794.6728	7233
797.0823	7176
799.4911	7307
801.8994	7191
804.3109	7125
806.7178	7302
809.124	7219
811.5297	7231
813.9347	7250
816.341	7312
818.7447	7306
821.1478	7421
823.5502	7304
825.952	7268
828.3531	7198
830.7556	7233
833.1554	7113
835.5546	7369
837.9532	7226
840.3511	7282
842.7504	7366
845.1451	7341
847.5411	7531
849.9365	7440
852.3312	7523
854.7272	7476
857.1187	7399
859.5115	7381
861.9037	7435
864.2952	7361
866.6842	7232
869.0764	7406
871.4661	7358
873.8531	7332
876.2415	7181
878.6272	7445
881.0162	7287
883.4026	7362
885.7866	7346
888.1717	7318
890.5543	7349
892.9382	7449
895.3215	7375
897.7041	7533
900.0842	7377
902.4655	7450
904.8443	7361
907.2244	7336
909.6039	7518
911.9808	7439
914.357	7566
916.7346	7470
919.1115	7632
921.4859	7723
923.8616	7590
926.2347	7646
928.6071	7605
930.979	7825
933.3541	7782
935.7247	7760
938.0946	7738
940.4639	7832
942.8326	7906
945.2026	8102
947.5701	8200
949.9369	8407
952.305	8466
954.6705	8670
957.0355	9136
959.4017	9421
961.7654	9508
964.1284	9301
966.4908	9293
968.8527	8718
971.2138	8612
973.5743	8208
975.9343	7997
978.2936	7933
980.6522	7854
983.0122	7730
985.3696	7828
987.7245	7694
990.0807	7643
992.4362	7627
994.7911	7617
997.1474	7798
999.4991	7669
1001.852	7697
1004.205	7700
1006.555	7753
1008.908	7626
1011.258	7723
1013.606	7803
1015.956	7628
1018.302	7731
1020.652	7745
1022.998	7771
1025.345	7651
1027.691	7627
1030.035	7804
1032.378	7745
1034.724	7716
1037.066	7808
1039.409	7683
1041.75	7879
1044.092	7817
1046.433	7724
1048.771	7788
1051.112	7775
1053.449	7783
1055.786	7840
1058.124	7917
1060.462	7888
1062.797	7909
1065.131	7898
1067.467	7896
1069.8	7971
1072.135	7954
1074.467	8048
1076.798	8006
1079.129	7901
1081.459	7962
1083.792	7996
1086.121	7871
1088.449	7884
1090.777	7789
1093.104	7682
1095.431	7809
1097.759	7742
1100.084	7804
1102.408	7830
1104.732	7896
1107.056	7857
1109.379	7999
1111.701	7727
1114.022	7889
1116.343	7875
1118.664	7849
1120.983	7896
1123.303	7897
1125.621	7873
1127.939	7924
1130.256	7935
1132.573	7881
1134.889	7794
1137.205	7879
1139.52	7921
1141.832	7826
1144.146	7964
1146.461	7827
1148.771	7863
1151.083	7828
1153.392	7940
1155.703	7959
1158.011	7954
1160.323	7985
1162.629	7860
1164.938	7912
1167.243	7800
1169.55	7939
1171.857	7875
1174.163	7914
1176.466	7754
1178.769	7819
1181.073	7906
1183.374	7847
1185.677	7782
1187.979	7876
1190.279	7885
1192.578	7864
1194.878	7915
1197.178	7918
1199.476	7706
1201.772	7839
1204.068	7813
1206.366	7863
1208.663	7877
1210.957	7755
1213.251	7770
1215.544	7947
1217.836	7944
1220.128	7865
1222.421	7902
1224.712	7978
1227.002	8009
1229.292	7934
1231.581	8083
1233.871	8031
1236.159	8186
1238.446	8153
1240.732	8092
1243.018	8096
1245.304	8048
1247.59	8044
1249.874	8157
1252.156	8105
1254.439	8166
1256.721	8074
1259.005	8111
1261.286	8188
1263.565	8093
1265.845	8099
1268.125	8115
1270.403	7973
1272.682	8307
1274.959	8158
1277.234	8038
1279.511	7875
1281.787	8131
1284.062	7973
1286.337	8001
1288.609	8082
1290.882	8050
1293.153	8115
1295.428	8002
1297.698	7978
1299.969	7932
1302.237	7919
1304.507	7881
1306.777	8008
1309.044	7963
1311.312	7927
1313.578	8115
1315.844	8060
1318.109	7988
1320.375	8069
1322.638	7913
1324.903	8076
1327.165	7950
1329.427	7939
1331.69	7962
1333.952	8009
1336.212	7981
1338.471	7969
1340.73	7972
1342.988	8021
1345.248	8097
1347.505	8074
1349.763	7984
1352.019	7966
1354.274	7832
1356.53	8047
1358.784	7978
1361.038	8012
1363.291	8098
1365.543	7867
1367.797	8116
1370.048	8052
1372.296	8119
1374.546	8153
1376.796	8074
1379.045	8066
1381.295	8055
1383.542	8028
1385.787	8172
1388.034	7993
1390.28	8089
1392.527	8213
1394.772	8039
1397.014	8047
1399.258	8087
1401.501	8183
1403.741	8163
1405.985	8106
1408.226	8114
1410.465	8176
1412.705	8229
1414.943	8144
1417.184	8195
1419.42	8241
1421.658	8207
1423.894	8342
1426.13	8224
1428.366	8336
1430.602	8236
1432.835	8202
1435.069	8312
1437.301	8293
1439.535	8241
1441.767	8249
1443.997	8191
1446.229	8261
1448.458	8259
1450.687	8340
1452.916	8404
1455.146	8315
1457.372	8336
1459.599	8396
1461.824	8390
1464.051	8246
1466.277	8286
1468.501	8372
1470.725	8338
1472.948	8216
1475.17	8158
1477.393	8108
1479.614	8095
1481.837	8077
1484.057	8137
1486.276	8049
1488.497	8055
1490.715	8106
1492.932	8059
1495.148	7989
1497.364	8049
1499.58	8058
1501.798	7955
1504.012	7898
1506.227	8019
1508.44	7845
1510.653	7985
1512.866	7961
1515.078	7961
1517.289	8018
1519.5	7821
1521.711	7910
1523.92	8015
1526.13	8078
1528.338	7923
1530.544	7878
1532.752	8079
1534.959	7991
1537.165	7938
1539.371	8025
1541.574	7941
1543.779	8045
1545.983	8066
1548.187	8013
1550.39	8103
1552.59	8054
1554.792	8124
1556.991	8114
1559.19	7995
1561.392	7957
1563.59	8035
1565.789	7989
1567.986	8046
1570.182	8061
1572.381	8153
1574.576	8275
1576.771	8164
1578.966	8179
1581.16	8099
1583.354	8164
1585.546	8304
1587.74	8291
1589.931	8173
1592.121	8344
1594.311	8162
1596.502	8280
1598.693	8120
1600.881	8229
1603.069	8281
1605.256	8228
1607.445	8252
1609.631	8243
1611.816	8358
1614.001	8261
1616.186	8225
1618.37	8251
1620.555	8226
1622.737	8247
1624.919	8296
1627.101	8241
1629.282	8328
1631.463	8360
1633.643	8159
1635.822	8288
1638.001	8380
1640.179	8334
1642.359	8245
1644.534	8379
1646.711	8495
1648.887	8285
1651.062	8327
1653.235	8363
1655.412	8300
1657.586	8321
1659.757	8367
1661.93	8278
1664.1	8393
1666.274	8331
1668.445	8276
1670.614	8386
1672.784	8322
1674.951	8329
1677.12	8315
1679.289	8390
1681.457	8368
1683.622	8297
1685.789	8505
1687.953	8303
1690.121	8365
1692.284	8355
1694.447	8299
1696.611	8213
1698.772	8339
1700.935	8265
1703.098	8301
1705.258	8160
1707.417	8263
1709.576	8208
1711.736	8233
1713.896	8229
1716.053	8294
1718.21	8228
1720.366	8234
1722.522	8187
1724.68	8239
1726.835	8140
1728.989	8124
1731.142	8315
1733.295	8138
1735.449	8180
1737.601	7994
1739.753	8197
1741.903	8220
1744.054	8192
1746.203	8101
1748.354	8135
1750.503	8205
1752.651	8384
1754.798	8274
1756.944	8096
1759.092	8338
1761.238	8154
1763.383	8205
1765.528	8267
1767.672	8219
1769.814	8273
1771.959	8090
1774.102	8295
1776.242	8183
1778.384	8222
1780.525	8232
1782.665	8189
1784.805	8234
1786.945	8276
1789.082	8291
1791.22	8302
1793.36	8289
1795.495	8281
1797.632	8278
1799.766	8290
1801.902	8225
1804.035	8354
1806.172	8174
1808.304	8292
1810.436	8249
1812.569	8175
1814.699	8417
1816.833	8285
1818.963	8273
1821.092	8283
1823.222	8179
1825.35	8320
1827.478	8126
1829.608	8193
1831.734	8019
1833.86	8215
1835.986	8133
1838.11	8151
1840.238	8163
1842.362	8134
1844.485	8207
1846.608	8191
1848.73	8237
1850.853	8066
1852.974	8059
1855.097	8253
1857.217	8134
1859.336	8112
1861.455	8185
1863.576	8115
1865.693	8243
1867.811	8076
1869.926	8213
1872.042	8141
1874.16	8144
1876.275	8142
1878.39	8178
1880.504	8172
1882.618	8159
1884.731	8100
1886.843	8149
1888.956	8137
1891.067	8159
1893.178	8267
1895.287	8115
1897.399	8200
1899.508	8146
1901.617	8124
1903.724	8135
1905.832	8360
1907.941	8120
1910.046	8149
1912.152	8175
1914.256	8290
1916.361	8158
1918.464	8351
1920.57	8168
1922.672	8283
1924.775	8243
1926.876	8208
1928.978	8293
1931.08	8271
1933.181	8221
1935.28	8338
1937.38	8319
1939.478	8358
1941.577	8265
1943.675	8273
1945.771	8186
1947.867	8285
1949.964	8298
1952.058	8305
1954.154	8245
1956.248	8376
1958.343	8277
1960.435	8171
1962.527	8284
1964.62	8210
1966.711	8348
1968.802	8256
1970.892	8178
1972.983	8288
1975.072	8205
1977.162	8310
1979.25	8147
1981.337	8180
1983.424	8231
1985.51	8201
1987.598	8065
1989.683	8209
1991.768	8175
1993.852	8117
1995.934	8133
1998.019	8139
2000.102	8163
2002.184	8073
2004.266	8133
2006.347	8198
2008.427	8140
2010.508	8121
2012.587	8066
2014.666	8188
2016.745	8067
2018.821	8159
2020.9	8074
2022.977	8261
2025.052	8232
2027.128	8149
2029.204	8032
2031.277	8117
2033.353	8005
2035.425	8221
2037.499	8236
2039.57	8050
2041.642	8072
2043.714	8034
2045.786	8091
2047.855	8224
2049.925	8109
2051.993	8117
2054.064	8049
2056.132	8145
2058.2	8180
2060.266	8070
2062.332	8141
2064.398	8096
2066.465	8141
2068.529	8088
2070.592	8060
2072.657	8211
2074.719	8148
2076.783	8109
2078.845	8184
2080.907	8141
2082.968	8150
2085.028	7986
2087.087	8199
2089.148	8153
2091.207	8239
2093.264	8096
2095.322	8104
2097.379	8180
2099.439	8037
2101.495	8187
2103.55	8086
2105.605	8190
2107.658	8189
2109.713	8282
2111.767	8048
2113.82	8096
2115.872	8088
2117.924	8118
2119.975	8212
2122.028	7945
2124.078	8088
2126.126	8033
2128.176	8140
2130.225	8075
2132.275	8253
2134.321	8048
2136.368	8162
2138.415	8112
2140.461	8065
2142.505	8168
2144.552	8023
2146.597	8154
2148.64	8029
2150.684	7975
2152.725	8073
2154.77	8141
2156.811	7966
2158.852	8056
2160.894	8045
2162.933	8040
2164.973	8021
2167.013	8072
2169.051	7915
2171.089	8071
2173.126	7984
2175.164	7878
2177.201	8021
2179.236	7971
2181.273	7939
2183.307	8013
2185.341	7949
2187.377	7937
2189.41	7875
2191.442	7943
2193.473	7802
2195.506	7908
2197.539	7937
2199.569	7862
2201.598	7908
2203.628	7764
2205.656	7869
2207.686	7992
2209.716	7770
2211.743	7864
2213.769	7877
2215.796	7845
2217.821	7842
2219.848	7841
2221.873	7826
2223.897	7934
2225.921	7855
2227.944	7817
2229.967	7799
2231.991	7862
2234.011	7750
2236.032	7803
2238.053	7713
2240.073	7818
2242.094	7813
2244.114	7967
2246.131	7742
2248.149	7883
2250.167	7834
2252.186	7758
2254.201	7678
2256.218	7922
2258.233	7715
2260.247	7791
2262.262	7793
2264.278	7802
2266.29	7848
2268.303	7822
2270.315	7777
2272.327	7807
2274.341	7941
2276.35	7872
2278.361	7852
2280.37	7885
2282.38	7785
2284.388	7673
2286.397	7700
2288.405	7781
2290.412	7712
2292.419	8024
2294.425	7719
2296.431	7928
2298.437	7882
2300.441	7707
2302.445	7750
2304.449	7876
2306.453	7758
2308.455	7773
2310.457	7804
2312.459	7789
2314.46	7774
2316.46	7723
2318.461	7713
2320.46	7834
2322.458	7615
2324.458	7820
2326.456	7629
2328.455	7745
2330.451	7671
2332.447	7593
2334.443	7751
2336.438	7687
2338.433	7733
2340.429	7711
2342.422	7664
2344.416	7658
2346.408	7713
2348.399	7532
2350.393	7589
2352.384	7644
2354.375	7603
2356.365	7542
2358.355	7588
2360.344	7629
2362.333	7540
2364.322	7535
2366.309	7654
2368.295	7586
2370.282	7631
2372.27	7662
2374.256	7518
2376.24	7544
2378.225	7728
2380.208	7469
2382.194	7648
2384.177	7493
2386.159	7497
2388.142	7505
2390.122	7441
2392.105	7646
2394.085	7539
2396.066	7473
2398.044	7376
2400.024	7518
2402.002	7450
2403.982	7510
2405.959	7485
2407.935	7544
2409.913	7451
2411.888	7472
2413.865	7569
2415.84	7590
2417.814	7429
2419.788	7498
2421.762	7480
2423.735	7489
2425.708	7534
2427.68	7442
2429.651	7456
2431.623	7505
2433.593	7507
2435.564	7459
2437.533	7644
2439.502	7463
2441.47	7404
2443.438	7435
2445.406	7497
2447.373	7421
2449.34	7502
2451.305	7501
2453.271	7432
2455.235	7529
2457.201	7389
2459.165	7371
2461.129	7359
2463.092	7393
2465.054	7394
2467.018	7418
2468.978	7339
2470.939	7351
2472.899	7329
2474.86	7454
2476.819	7348
2478.778	7428
2480.737	7342
2482.695	7274
2484.653	7421
2486.609	7427
2488.567	7432
2490.524	7249
2492.478	7287
2494.433	7371
2496.387	7252
2498.343	7335
2500.297	7491
2502.249	7339
2504.202	7335
2506.153	7302
2508.105	7418
2510.057	7268
2512.008	7408
2513.957	7390
2515.906	7344
2517.855	7302
2519.805	7284
2521.754	7236
2523.7	7272
2525.647	7221
2527.594	7232
2529.54	7309
2531.486	7192
2533.431	7244
2535.376	7263
2537.32	7336
2539.263	7341
2541.207	7214
2543.151	7180
2545.093	7309
2547.034	7247
2548.975	7315
2550.917	7407
2552.856	7270
2554.796	7229
2556.735	7151
2558.673	7297
2560.611	7140
2562.55	7204
2564.487	7224
2566.424	7230
2568.36	7254
2570.296	7238
2572.232	7333
2574.167	7390
2576.101	7169
2578.035	7225
2579.969	7217
2581.902	7150
2583.834	7317
2585.766	7305
2587.698	7129
2589.628	7264
2591.557	7296
2593.489	7261
2595.419	7318
2597.348	7241
2599.275	7217
2601.204	7249
2603.131	7208
2605.059	7199
2606.986	7161
2608.911	7277
2610.837	7240
2612.76	7315
2614.687	7153
2616.61	7380
2618.534	7212
2620.457	7315
2622.38	7297
2624.302	7215
2626.225	7237
2628.145	7257
2630.067	7354
2631.986	7351
2633.906	7287
2635.827	7329
2637.745	7150
2639.662	7272
2641.581	7182
2643.498	7267
2645.415	7252
2647.331	7279
2649.248	7271
2651.163	7224
2653.077	7324
2654.993	7143
2656.906	7169
2658.821	7304
2660.733	7211
2662.646	7200
2664.557	7174
2666.47	7160
2668.381	7246
2670.291	7232
2672.201	7180
2674.11	7080
2676.021	7078
2677.929	7250
2679.837	7185
2681.745	7046
2683.652	7225
2685.56	7090
2687.466	7151
2689.371	7018
2691.276	7072
2693.181	7154
2695.085	7082
2696.991	7163
2698.893	7157
2700.796	7168
2702.698	7120
2704.601	7181
2706.502	7082
2708.404	6959
2710.304	7081
2712.203	6996
2714.103	6958
2716.003	7055
2717.902	7035
2719.8	7061
2721.697	7001
2723.594	7038
2725.49	7129
2727.389	6951
2729.283	7060
2731.179	6974
2733.073	7079
2734.968	7189
2736.863	7215
2738.757	7012
2740.649	7170
2742.541	6999
2744.433	7013
2746.324	7028
2748.216	6924
2750.107	6984
2751.997	6914
2753.886	6930
2755.776	7012
2757.666	6951
2759.553	7031
2761.44	6964
2763.327	6963
2765.215	7064
2767.102	7011
2768.988	6968
2770.873	6884
2772.757	6941
2774.641	7077
2776.525	6984
2778.41	7005
2780.292	6823
2782.175	7041
2784.057	7015
2785.938	6909
2787.821	6986
2789.701	7052
2791.581	7015
2793.461	6912
2795.34	6878
2797.219	7051
2799.099	6844
2800.975	6806
2802.853	6978
2804.73	6807
2806.606	6962
2808.484	6959
2810.358	6850
2812.233	7009
2814.108	6843
2815.981	6935
2817.857	6801
2819.73	6879
2821.602	6879
2823.474	6792
2825.346	6726
2827.217	6801
2829.089	7019
2830.959	6864
2832.829	6879
2834.698	6882
2836.567	6861
2838.436	6886
2840.305	6727
2842.172	6912
2844.04	6876
2845.905	6903
2847.772	6915
2849.639	6885
2851.503	6941
2853.369	6808
2855.232	7027
2857.096	6781
2858.961	6919
2860.824	6900
2862.686	7046
2864.547	7060
2866.41	7013
2868.272	7040
2870.132	6941
2871.992	7222
2873.851	7107
2875.711	7134
2877.57	7179
2879.429	7200
2881.287	7270
2883.144	7332
2885.001	7344
2886.857	7245
2888.714	7350
2890.57	7374
2892.425	7338
2894.279	7276
2896.133	7269
2897.987	7398
2899.842	7249
2901.694	7316
2903.547	7220
2905.397	7196
2907.249	7240
2909.101	7218
2910.952	7161
2912.802	7359
2914.652	7345
2916.5	7205
2918.35	7424
2920.198	7587
2922.045	7527
2923.893	7530
2925.74	7538
2927.585	7640
2929.433	7581
2931.279	7806
2933.123	7791
2934.968	7874
2936.811	7710
2938.656	7979
2940.5	7855
2942.342	7971
2944.185	7901
2946.026	8100
2947.87	7890
2949.71	7982
2951.549	8031
2953.39	7959
2955.229	7732
2957.069	7775
2958.908	7774
2960.746	7620
2962.584	7645
2964.421	7628
2966.257	7554
2968.094	7531
2969.931	7405
2971.766	7294
2973.601	7351
2975.435	7440
2977.27	7392
2979.105	7248
2980.938	7401
2982.77	7281
2984.602	7321
2986.434	7207
2988.267	7260
2990.097	7114
2991.927	7149
2993.757	7181
2995.587	7059
2997.417	7024
2999.246	6979
3001.074	6965
3002.902	7012
3004.729	6789
3006.556	6812
3008.384	6835
3010.21	6736
3012.036	6689
3013.861	6733
3015.684	6579
3017.51	6626
3019.334	6711
3021.157	6583
3022.981	6555
3024.802	6562
3026.624	6438
3028.448	6492
3030.267	6467
3032.088	6383
3033.909	6500
3035.728	6379
3037.549	6454
3039.368	6460
3041.186	6365
3043.004	6355
3044.821	6537
3046.64	6359
3048.455	6341
3050.272	6273
3052.087	6470
3053.903	6403
3055.717	6344
3057.534	6417
3059.347	6343
3061.16	6351
3062.974	6486
3064.785	6399
3066.598	6333
3068.411	6421
3070.222	6309
3072.032	6466
3073.844	6481
3075.653	6197
3077.463	6413
3079.272	6402
3081.08	6262
3082.889	6206
3084.697	6325
3086.505	6132
3088.312	6268
3090.118	6266
3091.924	6294
3093.729	6142
3095.535	6149
3097.34	6136
3099.144	6203
3100.947	6154
3102.75	6221
3104.553	6074
3106.357	6172
3108.159	6200
3109.961	6119
3111.762	6111
3113.562	6187
3115.365	6047
3117.164	6109
3118.964	6168
3120.761	6095
3122.56	6081
3124.36	6136
3126.158	6004
3127.954	6059
3129.75	5997
3131.547	6074
3133.343	6121
3135.139	6068
3136.934	6000
3138.729	6034
3140.522	6083
3142.317	5942
3144.11	5919
3145.904	6037
3147.695	6094
3149.488	6030
3151.28	6042
3153.07	5927
3154.863	5968
3156.652	5997
3158.441	5870
3160.231	6043
3162.019	5941
3163.81	5969
3165.597	5859
3167.384	5984
3169.172	6017
3170.958	5915
3172.745	5939
3174.532	5930
3176.317	5923
3178.101	5881
3179.885	5966
3181.67	5921
3183.455	5955
3185.238	5962
3187.02	6010
3188.802	5841
3190.585	5797
3192.368	5897
3194.149	5808
3195.929	5859
3197.709	5857
3199.489	5856
3201.268	5831
3203.048	5885
3204.826	5910
3206.604	5906
3208.382	5885
3210.159	5861
3211.937	5956
3213.713	6001
3215.489	5899
3217.263	5838
3219.038	5973
3220.815	5809
3222.589	5751
3224.363	5881
3226.136	5783
3227.908	5820
3229.681	5878
3231.454	5833
3233.226	5884
3234.996	5884
3236.767	5938
3238.538	5741
3240.308	5832
3242.078	5804
3243.847	5975
3245.615	5848
3247.384	5784
3249.15	5851
3250.92	5747
3252.686	5801
3254.453	5850
3256.218	5672
3257.984	5722
3259.75	5648
3261.515	5743
3263.279	5762
3265.044	5833
3266.806	5730
3268.57	5807
3270.334	5830
3272.095	5890
3273.856	5882
3275.619	5840
3277.379	5812
3279.14	5856
3280.9	5921
3282.661	5737
3284.419	5807
3286.178	5692
3287.937	5739
3289.695	5756
3291.453	5906
3293.21	5754
3294.967	5817
3296.723	5822
3298.48	5723
3300.235	5859
3301.99	5813
3303.744	5913
3305.498	5813
3307.253	5762
3309.006	5753
3310.759	5654
3312.511	5789
3314.263	5847
3316.017	5755
3317.768	5801
3319.519	5781
3321.268	5760
3323.018	5831
3324.767	5713
3326.518	5787
3328.267	5747
3330.014	5835
3331.762	5767
3333.509	5766
3335.258	5775
3337.003	5664
3338.75	5784
3340.496	5726
3342.24	5839
3343.987	5849
3345.732	5697
3347.475	5796
3349.219	5726
3350.961	5753
3352.705	5661
3354.448	5756
3356.19	5666
3357.931	5736
3359.672	5590
3361.412	5683
3363.155	5703
3364.894	5751
3366.633	5674
3368.372	5637
3370.11	5767
3371.849	5532
3373.588	5582
3375.325	5648
3377.061	5681
3378.799	5598
3380.534	5580
3382.271	5535
3384.006	5556
3385.741	5636
3387.475	5608
3389.209	5588
3390.944	5485
3392.677	5601
3394.409	5596
3396.143	5547
3397.874	5551
3399.606	5489
3401.338	5531
3403.069	5562
3404.799	5479
3406.528	5569
3408.258	5474
3409.988	5544
3411.717	5516
3413.445	5448
3415.173	5515
3416.899	5517
3418.626	5440
3420.354	5391
3422.08	5450
3423.806	5493
3425.531	5484
3427.255	5409
3428.981	5470
3430.705	5470
3432.429	5476
3434.151	5437
3435.875	5344
3437.599	5442
3439.321	5505
3441.042	5557
3442.763	5426
3444.483	5334
3446.204	5282
3447.926	5408
3449.645	5401
3451.364	5352
3453.082	5424
3454.801	5341
3456.52	5426
3458.238	5321
3459.954	5341
3461.671	5355
3463.387	5310
3465.104	5337
3466.82	5313
3468.534	5367
3470.25	5280
3471.963	5175
3473.676	5340
3475.392	5289
3477.104	5329
3478.817	5320
3480.528	5173
3482.241	5186
3483.954	5226
3485.664	5375
3487.374	5201
3489.084	5184
3490.795	5249
3492.504	5252
3494.214	5156
3495.922	5273
3497.63	5236
3499.338	5169
3501.045	5088
3502.753	5146
3504.459	5183
3506.166	5109
3507.871	5080
3509.576	5141
3511.283	5111
3512.987	5091
3514.691	5140
3516.395	5079
3518.098	5115
3519.8	5090
3521.504	5218
3523.206	5000
3524.908	5167
3526.609	5129
3528.309	5030
3530.011	5044
3531.711	5118
3533.411	4995
3535.109	5078
3536.808	5082
3538.507	5042
3540.206	5073
3541.904	5016
3543.601	4985
3545.297	5028
3546.994	4996
3548.69	4977
3550.387	4946
3552.081	4988
3553.776	5041
3555.47	4986
3557.166	4927
3558.859	4843
3560.553	5013
3562.245	4912
3563.938	4981
3565.629	4956
3567.322	4878
3569.014	4978
3570.704	4889
3572.394	4937
3574.084	4899
3575.775	4945
3577.464	5004
3579.152	4820
3580.842	4898
3582.529	4884
3584.216	4901
3585.905	4843
3587.591	4913
3589.279	4913
3590.964	4912
3592.649	4822
3594.336	4760
3596.021	4781
3597.705	4904
3599.388	4885
3601.072	4737
3602.757	4833
3604.439	4710
3606.122	4795
3607.803	4830
3609.485	4828
3611.167	4780
3612.849	4755
3614.529	4734
3616.208	4670
3617.888	4733
3619.567	4690
3621.247	4796
3622.926	4704
3624.603	4699
3626.281	4697
3627.958	4596
3629.635	4700
3631.312	4647
3632.989	4675
3634.665	4706
3636.339	4560
3638.014	4518
3639.691	4664
3641.364	4590
3643.038	4645
3644.71	4597
3646.384	4531
3648.058	4532
3649.729	4695
3651.402	4689
3653.073	4532
3654.744	4618
3656.414	4561
3658.085	4517
3659.755	4622
3661.424	4633
3663.094	4486
3664.762	4528
3666.431	4562
3668.099	4495
3669.766	4587
3671.433	4501
3673.099	4522
3674.768	4475
3676.433	4605
3678.098	4560
3679.763	4488
3681.428	4550
3683.093	4540
3684.757	4569
3686.421	4495
3688.083	4514
3689.746	4558
3691.408	4415
3693.071	4431
3694.733	4467
3696.394	4515
3698.054	4456
3699.715	4505
3701.375	4463
3703.036	4478
3704.695	4485
3706.354	4454
3708.012	4465
3709.67	4473
3711.329	4481
3712.987	4499
3714.644	4488
3716.299	4365
3717.955	4452
3719.613	4414
3721.268	4469
3722.923	4481
3724.577	4439
3726.231	4498
3727.885	4422
3729.539	4378
3731.192	4385
3732.845	4384
3734.497	4383
3736.149	4383
3737.802	4442
3739.453	4316
3741.104	4302
3742.753	4354
3744.404	4308
3746.052	4435
3747.704	4401
3749.352	4336
3751	4372
3752.648	4351
3754.296	4374
3755.944	4344
3757.59	4345
3759.238	4288
3760.883	4381
3762.528	4414
3764.176	4433
3765.82	4355
3767.464	4332
3769.109	4276
3770.753	4295
3772.396	4276
3774.04	4388
3775.683	4247
3777.325	4268
3778.967	4286
3780.608	4196
3782.25	4363
3783.89	4199
3785.531	4298
3787.17	4272
3788.81	4172
3790.45	4180
3792.09	4165
3793.729	4238
3795.366	4221
3797.003	4228
3798.64	4245
3800.278	4241
3801.915	4278
3803.551	4251
3805.187	4135
3806.822	4116
3808.458	4176
3810.093	4169
3811.726	4187
3813.36	4109
3814.994	4152
3816.627	4199
3818.262	4248
3819.893	4181
3821.525	4158
3823.157	4179
3824.787	4138
3826.42	4091
3828.051	4133
3829.68	4189
3831.31	4119
3832.938	4132
3834.569	4078
3836.198	4054
3837.825	4113
3839.454	4120
3841.08	4076
3842.708	4083
3844.335	4136
3845.962	3981
3847.587	4091
3849.212	4117
3850.838	4057
3852.463	4121
3854.089	4125
3855.712	4068
3857.335	4111
3858.959	4015
3860.582	4108
3862.205	3994
3863.827	4126
3865.449	4054
3867.07	4117
3868.691	4054
3870.312	4082
3871.933	4103
3873.553	4019
3875.173	4006
3876.792	3977
3878.411	3929
3880.03	3986
3881.647	4130
3883.265	3966
3884.882	3962
3886.499	3925
3888.116	4104
3889.732	4075
3891.348	4011
3892.964	4020
3894.579	4006
3896.195	4040
3897.809	3933
3899.423	4020
3901.036	4018
3902.648	4043
3904.261	3987
3905.875	3965
3907.487	3965
3909.099	3891
3910.709	3875
3912.321	3982
3913.933	3964
3915.542	3900
3917.152	3932
3918.762	3876
3920.37	3958
3921.98	3958
3923.589	4003
3925.196	3899
3926.804	3905
3928.41	3971
3930.018	3876
3931.626	3940
3933.231	3862
3934.838	3962
3936.442	3932
3938.046	3898
3939.653	3937
3941.257	3922
3942.861	3893
3944.464	3853
3946.068	3874
3947.67	3900
3949.273	3878
3950.876	3885
3952.477	3854
3954.078	3826
3955.678	3831
3957.281	3880
3958.881	3819
3960.48	3856
3962.079	3824
3963.678	3730
3965.279	3805
3966.877	3908
3968.475	3898
3970.072	3783
3971.669	3882
3973.266	3746
3974.864	3869
3976.459	3871
3978.055	3793
3979.65	3744
3981.245	3799
3982.841	3713
3984.436	3807
3986.03	3719
3987.623	3802
3989.216	3787
3990.809	3729
3992.403	3768
3993.995	3716
3995.586	3690
3997.177	3822
3998.768	3688
4000.361	3769
4001.951	3707
4003.54	3685
4005.13	3732
4006.719	3784
4008.31	3768
4009.897	3682
4011.485	3605
4013.073	3673
4014.66	3680
4016.247	3640
4017.834	3769
4019.421	3650
4021.006	3684
4022.592	3681
4024.178	3634
4025.763	3631
4027.348	3668
4028.932	3640
4030.515	3660
4032.099	3674
4033.682	3644
4035.266	3582
4036.847	3606
4038.429	3646
4040.011	3647
4041.592	3592
4043.173	3620
4044.755	3531
4046.334	3599
4047.913	3594
4049.494	3585
4051.074	3576
4052.652	3576
4054.23	3603
4055.807	3581
4057.385	3587
4058.963	3541
4060.541	3576
4062.117	3561
4063.693	3578
4065.269	3576
4066.844	3481
4068.42	3529
4069.995	3502
4071.569	3511
4073.143	3544
4074.716	3508
4076.291	3546
4077.864	3473
4079.436	3529
4081.009	3563
4082.58	3502
4084.152	3551
4085.723	3513
4087.294	3523
4088.865	3577
4090.435	3537
4092.005	3481
4093.574	3450
4095.143	3501
4096.712	3456
4098.279	3456
4099.848	3490
4101.416	3483
4102.984	3496
4104.55	3541
4106.117	3419
4107.682	3469
4109.248	3480
4110.815	3518
4112.379	3467
4113.945	3410
4115.508	3441
4117.073	3409
4118.637	3425
4120.201	3381
4121.763	3354
4123.325	3386
4124.888	3369
4126.449	3378
4128.013	3407
4129.573	3489
4131.133	3400
4132.694	3364
4134.254	3412
4135.814	3329
4137.374	3359
4138.933	3323
4140.491	3419
4142.049	3214
4143.607	3447
4145.167	3376
4146.724	3313
4148.28	3376
4149.836	3377
4151.392	3361
4152.949	3338
4154.504	3340
4156.059	3369
4157.614	3326
4159.168	3380
4160.723	3352
4162.277	3341
4163.83	3271
4165.383	3311
4166.936	3256
4168.488	3281
4170.041	3240
4171.593	3291
4173.144	3231
4174.695	3273
4176.246	3235
4177.796	3289
4179.346	3265
4180.896	3246
4182.445	3246
4183.994	3246
4185.542	3300
4187.091	3229
4188.639	3197
4190.185	3290
4191.732	3304
4193.279	3162
4194.826	3257
4196.373	3287
4197.918	3293
4199.463	3254
4201.008	3226
4202.553	3212
4204.098	3215
4205.641	3183
4207.185	3228
4208.728	3235
4210.271	3227
4211.814	3180
4213.357	3174
4214.898	3221
4216.439	3253
4217.98	3110
4219.522	3242
4221.062	3117
4222.603	3134
4224.142	3192
4225.681	3147
4227.222	3153
4228.76	3085
4230.298	3194
4231.835	3244
4233.373	3135
4234.911	3148
4236.449	3219
4237.985	3090
4239.521	3148
4241.057	3141
4242.592	3156
4244.128	3105
4245.663	3192
4247.197	3099
4248.731	3072
4250.265	3135
4251.798	3182
4253.333	3099
4254.865	3036
4256.397	3149
4257.93	3093
4259.461	3111
4260.994	3136
4262.525	3126
4264.056	3139
4265.586	3008
4267.115	3146
4268.646	3028
4270.176	3194
4271.705	3019
4273.232	3062
4274.761	3099
4276.289	3033
4277.818	3022
4279.345	2955
4280.872	3059
4282.399	3047
4283.924	3078
4285.452	3087
4286.976	3041
4288.502	3075
4290.026	3042
4291.551	3001
4293.074	3032
4294.6	2955
4296.123	3025
4297.646	3073
4299.168	3018
4300.691	3103
4302.214	2999
4303.736	3068
4305.257	2957
4306.778	3006
4308.299	3086
4309.82	3046
4311.34	2964
4312.86	2967
4314.379	2906
