400.0745	6144
402.597	6196
405.1208	6236
407.6419	6317
410.1623	6075
412.6819	6188
415.201	6222
417.7172	6443
420.2369	6301
422.7538	6478
425.2701	6425
427.7856	6553
430.3005	6612
432.8147	6571
435.3282	6680
437.841	6674
440.3511	6606
442.8625	6614
445.3753	6677
447.8854	6594
450.3927	6742
452.9014	6655
455.4073	6558
457.9146	6603
460.4233	6643
462.9272	6575
465.4325	6503
467.935	6675
470.4389	6588
472.9421	6580
475.4446	6653
477.9444	6665
480.4456	6552
482.944	6585
485.4417	6675
487.9429	6643
490.4393	6708
492.935	6754
495.4321	6801
497.9264	6801
500.4221	6852
502.9171	6776
505.4094	6853
507.9011	6760
510.392	6926
512.8864	6894
515.3759	6790
517.8649	6794
520.3531	6848
522.8406	6987
525.3275	6927
527.8178	6927
530.3033	6910
532.7881	6872
535.2723	6908
537.7558	6922
540.2407	6814
542.7228	6891
545.2043	6915
547.6851	6938
550.1652	6948
552.6467	6994
555.1255	7012
557.6016	6944
560.079	7038
562.5557	7023
565.0318	7036
567.5092	6954
569.984	7091
572.456	7252
574.9294	7134
577.4022	7249
579.8762	7251
582.3456	7225
584.8163	7363
587.2863	7324
589.7557	7231
592.2224	7303
594.6924	7308
597.1578	7387
599.6245	7213
602.0905	7225
604.5538	7311
607.0206	7161
609.4825	7208
611.9459	7275
614.4066	7167
616.8686	7179
619.33	7243
621.7906	7206
624.2487	7108
626.708	7218
629.1647	7169
631.6207	7094
634.0801	7211
636.5348	7081
638.9888	7157
641.4442	7159
643.8969	7192
646.3509	7143
648.8022	7168
651.255	7291
653.705	7268
656.1544	7350
658.6031	7388
661.0532	7314
663.5026	7347
665.9493	7354
668.3954	7332
670.8409	7295
673.2877	7486
675.7318	7410
678.1752	7399
680.618	7431
683.0601	7352
685.5035	7357
687.9444	7509
690.3845	7490
692.824	7410
695.2628	7362
697.701	7522
700.1406	7484
702.5774	7381
705.0116	7442
707.4472	7443
709.8821	7450
712.3183	7464
714.7519	7506
717.1829	7554
719.6151	7739
722.0468	7640
724.4777	7619
726.908	7588
729.3377	7674
731.7667	7660
734.1931	7775
736.6208	7679
739.0498	7780
741.4742	7766
743.9	7821
746.3231	7725
748.7476	7854
751.1713	7934
753.5945	7981
756.015	8003
758.4368	7957
760.856	7842
763.2766	7991
765.6965	8023
768.1157	7917
770.5323	7957
772.9483	8044
775.3656	7840
777.7822	7926
780.1963	8041
782.6116	8022
785.0244	7954
787.4365	7913
789.8499	7940
792.2626	7928
794.6728	8026
797.0823	8044
799.4911	8028
801.8994	8164
804.3109	7999
806.7178	8052
809.124	8060
811.5297	8212
813.9347	8133
816.341	7989
818.7447	8019
821.1478	8190
823.5502	8192
825.952	8156
828.3531	8182
830.7556	8130
833.1554	8131
835.5546	8126
837.9532	8213
840.3511	8149
842.7504	8225
845.1451	8232
847.5411	8248
849.9365	8281
852.3312	8315
854.7272	8374
857.1187	8313
859.5115	8404
861.9037	8214
864.2952	8288
866.6842	8352
869.0764	8224
871.4661	8291
873.8531	8266
876.2415	8274
878.6272	8195
881.0162	8235
883.4026	8323
885.7866	8295
888.1717	8312
890.5543	8295
892.9382	8350
895.3215	8116
897.7041	8221
900.0842	8040
902.4655	8195
904.8443	8256
907.2244	8207
909.6039	8349
911.9808	8346
914.357	8345
916.7346	8419
919.1115	8559
921.4859	8517
923.8616	8575
926.2347	8668
928.6071	8620
930.979	8764
933.3541	8696
935.7247	8736
938.0946	8719
940.4639	8836
942.8326	8913
945.2026	9040
947.5701	9212
949.9369	9330
952.305	9486
954.6705	9895
957.0355	10307
959.4017	10410
961.7654	10763
964.1284	10614
966.4908	10508
968.8527	9957
971.2138	9627
973.5743	9110
975.9343	9058
978.2936	8817
980.6522	8655
983.0122	8557
985.3696	8549
987.7245	8570
990.0807	8480
992.4362	8463
994.7911	8486
997.1474	8501
999.4991	8652
1001.852	8607
1004.205	8696
1006.555	8608
1008.908	8635
1011.258	8710
1013.606	8463
1015.956	8572
1018.302	8494
1020.652	8430
1022.998	8485
1025.345	8770
1027.691	8591
1030.035	8727
1032.378	8704
1034.724	8728
1037.066	8640
1039.409	8739
1041.75	8654
1044.092	8604
1046.433	8717
1048.771	8619
1051.112	8710
1053.449	8687
1055.786	8796
1058.124	8780
1060.462	8678
1062.797	8666
1065.131	8860
1067.467	8800
1069.8	8990
1072.135	8998
1074.467	8840
1076.798	8966
1079.129	8872
1081.459	8872
1083.792	8854
1086.121	8753
1088.449	8839
1090.777	8795
1093.104	8669
1095.431	8708
1097.759	8751
1100.084	8730
1102.408	8705
1104.732	8722
1107.056	8675
1109.379	8790
1111.701	8706
1114.022	8853
1116.343	8760
1118.664	8681
1120.983	8677
1123.303	8715
1125.621	8746
1127.939	8841
1130.256	8660
1132.573	8730
1134.889	8635
1137.205	8693
1139.52	8715
1141.832	8611
1144.146	8642
1146.461	8808
1148.771	8703
1151.083	8734
1153.392	8670
1155.703	8806
1158.011	8801
1160.323	8703
1162.629	8883
1164.938	8745
1167.243	8722
1169.55	8698
1171.857	8763
1174.163	8724
1176.466	8838
1178.769	8690
1181.073	8619
1183.374	8703
1185.677	8631
1187.979	8626
1190.279	8791
1192.578	8641
1194.878	8794
1197.178	8636
1199.476	8786
1201.772	8704
1204.068	8885
1206.366	8741
1208.663	8876
1210.957	8768
1213.251	8746
1215.544	8646
1217.836	8889
1220.128	8814
1222.421	8793
1224.712	8768
1227.002	8917
1229.292	8925
1231.581	8843
1233.871	9093
1236.159	9017
1238.446	8976
1240.732	9190
1243.018	9047
1245.304	9057
1247.59	9183
1249.874	9206
1252.156	9087
1254.439	9058
1256.721	9043
1259.005	9052
1261.286	9084
1263.565	9074
1265.845	9038
1268.125	9051
1270.403	9203
1272.682	9030
1274.959	9063
1277.234	9165
1279.511	8945
1281.787	9051
1284.062	9020
1286.337	9063
1288.609	9056
1290.882	9003
1293.153	8942
1295.428	8913
1297.698	8956
1299.969	9000
1302.237	8860
1304.507	8855
1306.777	9077
1309.044	8834
1311.312	8834
1313.578	8993
1315.844	8905
1318.109	8902
1320.375	8870
1322.638	8810
1324.903	9062
1327.165	8775
1329.427	8956
1331.69	8950
1333.952	8935
1336.212	8901
1338.471	9128
1340.73	8936
1342.988	8880
1345.248	8870
1347.505	9029
1349.763	8929
1352.019	9041
1354.274	8820
1356.53	8921
1358.784	8812
1361.038	8972
1363.291	8982
1365.543	8944
1367.797	8963
1370.048	8934
1372.296	8934
1374.546	8823
1376.796	9014
1379.045	8809
1381.295	8880
1383.542	8950
1385.787	8969
1388.034	8962
1390.28	9031
1392.527	9106
1394.772	9013
1397.014	9092
1399.258	9030
1401.501	9096
1403.741	9170
1405.985	9170
1408.226	9078
1410.465	8991
1412.705	9199
1414.943	9056
1417.184	9027
1419.42	9183
1421.658	9200
1423.894	9282
1426.13	9177
1428.366	9182
1430.602	9212
1432.835	9094
1435.069	9208
1437.301	9196
1439.535	9155
1441.767	9332
1443.997	9314
1446.229	9360
1448.458	9232
1450.687	9359
1452.916	9545
1455.146	9373
1457.372	9431
1459.599	9394
1461.824	9224
1464.051	9358
1466.277	9328
1468.501	9263
1470.725	9260
1472.948	9282
1475.17	9200
1477.393	9152
1479.614	9091
1481.837	9059
1484.057	8892
1486.276	8819
1488.497	8942
1490.715	8980
1492.932	8952
1495.148	8759
1497.364	8946
1499.58	8993
1501.798	8983
1504.012	8868
1506.227	8848
1508.44	8962
1510.653	8826
1512.866	8838
1515.078	8906
1517.289	8845
1519.5	8707
1521.711	8787
1523.92	8873
1526.13	8777
1528.338	8857
1530.544	8830
1532.752	8904
1534.959	8819
1537.165	8823
1539.371	8970
1541.574	8859
1543.779	8812
1545.983	8877
1548.187	8937
1550.39	8996
1552.59	8902
1554.792	8846
1556.991	8904
1559.19	8986
1561.392	8995
1563.59	9215
1565.789	8989
1567.986	9109
1570.182	9115
1572.381	9043
1574.576	8975
1576.771	9033
1578.966	9118
1581.16	9088
1583.354	9049
1585.546	9019
1587.74	9026
1589.931	9079
1592.121	9208
1594.311	9074
1596.502	9227
1598.693	9058
1600.881	9232
1603.069	9117
1605.256	9103
1607.445	9198
1609.631	9215
1611.816	9152
1614.001	9241
1616.186	9133
1618.37	9125
1620.555	9286
1622.737	9227
1624.919	9210
1627.101	9109
1629.282	9300
1631.463	9122
1633.643	9289
1635.822	9210
1638.001	9128
1640.179	9374
1642.359	9163
1644.534	9349
1646.711	9174
1648.887	9290
1651.062	9422
1653.235	9379
1655.412	9385
1657.586	9330
1659.757	9401
1661.93	9463
1664.1	9346
1666.274	9478
1668.445	9418
1670.614	9539
1672.784	9363
1674.951	9426
1677.12	9345
1679.289	9370
1681.457	9343
1683.622	9315
1685.789	9384
1687.953	9355
1690.121	9294
1692.284	9292
1694.447	9241
1696.611	9140
1698.772	9171
1700.935	9186
1703.098	9189
1705.258	9104
1707.417	9163
1709.576	9103
1711.736	8983
1713.896	9033
1716.053	9109
1718.21	9086
1720.366	9063
1722.522	8966
1724.68	9123
1726.835	9021
1728.989	9044
1731.142	9097
1733.295	9027
1735.449	8969
1737.601	8946
1739.753	8919
1741.903	8997
1744.054	9134
1746.203	9170
1748.354	8990
1750.503	9125
1752.651	9123
1754.798	9089
1756.944	9187
1759.092	8980
1761.238	9126
1763.383	9167
1765.528	9083
1767.672	9026
1769.814	9166
1771.959	9130
1774.102	9171
1776.242	9178
1778.384	9150
1780.525	9040
1782.665	9073
1784.805	9013
1786.945	9300
1789.082	8999
1791.22	9158
1793.36	9131
1795.495	9283
1797.632	9127
1799.766	9083
1801.902	9126
1804.035	9170
1806.172	9119
1808.304	9158
1810.436	9180
1812.569	9048
1814.699	9205
1816.833	9069
1818.963	9218
1821.092	9100
1823.222	8990
1825.35	9140
1827.478	8966
1829.608	9189
1831.734	9026
1833.86	9011
1835.986	9050
1838.11	9080
1840.238	9107
1842.362	9047
1844.485	9015
1846.608	9103
1848.73	9013
1850.853	9054
1852.974	8948
1855.097	8952
1857.217	9012
1859.336	9133
1861.455	8993
1863.576	8990
1865.693	8984
1867.811	8949
1869.926	9038
1872.042	8918
1874.16	8970
1876.275	8921
1878.39	8985
1880.504	9004
1882.618	8947
1884.731	8976
1886.843	8952
1888.956	9057
1891.067	9042
1893.178	9072
1895.287	9101
1897.399	9045
1899.508	8941
1901.617	8967
1903.724	9063
1905.832	9078
1907.941	8970
1910.046	9005
1912.152	8935
1914.256	9070
1916.361	9035
1918.464	9144
1920.57	9126
1922.672	9131
1924.775	9194
1926.876	9086
1928.978	9077
1931.08	9129
1933.181	9225
1935.28	9152
1937.38	9114
1939.478	9162
1941.577	9086
1943.675	9179
1945.771	8988
1947.867	9052
1949.964	9033
1952.058	9215
1954.154	9092
1956.248	9130
1958.343	9100
1960.435	9131
1962.527	9115
1964.62	9117
1966.711	9146
1968.802	9083
1970.892	9116
1972.983	8992
1975.072	9177
1977.162	9109
1979.25	9196
1981.337	9101
1983.424	9034
1985.51	9056
1987.598	8962
1989.683	9099
1991.768	9051
1993.852	8991
1995.934	9084
1998.019	8926
2000.102	8937
2002.184	9137
2004.266	8968
2006.347	8911
2008.427	9020
2010.508	8935
2012.587	9010
2014.666	9149
2016.745	8975
2018.821	9031
2020.9	8941
2022.977	8914
2025.052	8943
2027.128	9015
2029.204	8930
2031.277	8903
2033.353	8892
2035.425	9030
2037.499	8778
2039.57	9035
2041.642	8936
2043.714	9012
2045.786	9010
2047.855	8982
2049.925	8956
2051.993	8806
2054.064	9043
2056.132	9178
2058.2	9041
2060.266	8992
2062.332	9099
2064.398	9026
2066.465	9024
2068.529	8955
2070.592	8956
2072.657	9038
2074.719	9148
2076.783	9170
2078.845	8922
2080.907	9005
2082.968	9068
2085.028	9003
2087.087	9061
2089.148	8853
2091.207	9026
2093.264	8993
2095.322	8950
2097.379	8928
2099.439	9048
2101.495	9031
2103.55	9097
2105.605	9010
2107.658	8878
2109.713	8972
2111.767	8921
2113.82	8992
2115.872	9013
2117.924	8839
2119.975	8971
2122.028	8769
2124.078	8919
2126.126	8918
2128.176	8900
2130.225	8958
2132.275	8948
2134.321	8872
2136.368	8869
2138.415	8901
2140.461	8941
2142.505	8863
2144.552	8942
2146.597	8846
2148.64	8932
2150.684	8856
2152.725	9015
2154.77	8900
2156.811	8905
2158.852	8849
2160.894	8827
2162.933	8829
2164.973	8853
2167.013	8858
2169.051	8836
2171.089	8869
2173.126	8749
2175.164	8768
2177.201	8817
2179.236	8755
2181.273	8948
2183.307	8729
2185.341	8756
2187.377	8635
2189.41	8768
2191.442	8672
2193.473	8837
2195.506	8703
2197.539	8781
2199.569	8639
2201.598	8634
2203.628	8748
2205.656	8631
2207.686	8741
2209.716	8682
2211.743	8703
2213.769	8628
2215.796	8565
2217.821	8598
2219.848	8574
2221.873	8669
2223.897	8689
2225.921	8779
2227.944	8581
2229.967	8728
2231.991	8564
2234.011	8655
2236.032	8680
2238.053	8565
2240.073	8778
2242.094	8643
2244.114	8619
2246.131	8643
2248.149	8640
2250.167	8660
2252.186	8542
2254.201	8578
2256.218	8661
2258.233	8633
2260.247	8648
2262.262	8648
2264.278	8614
2266.29	8718
2268.303	8595
2270.315	8572
2272.327	8678
2274.341	8697
2276.35	8569
2278.361	8693
2280.37	8707
2282.38	8676
2284.388	8622
2286.397	8484
2288.405	8652
2290.412	8596
2292.419	8742
2294.425	8528
2296.431	8557
2298.437	8511
2300.441	8456
2302.445	8600
2304.449	8644
2306.453	8702
2308.455	8581
2310.457	8509
2312.459	8638
2314.46	8607
2316.46	8500
2318.461	8548
2320.46	8503
2322.458	8623
2324.458	8565
2326.456	8383
2328.455	8529
2330.451	8557
2332.447	8480
2334.443	8621
2336.438	8496
2338.433	8288
2340.429	8555
2342.422	8370
2344.416	8506
2346.408	8380
2348.399	8455
2350.393	8465
2352.384	8474
2354.375	8347
2356.365	8343
2358.355	8324
2360.344	8262
2362.333	8294
2364.322	8391
2366.309	8348
2368.295	8470
2370.282	8378
2372.27	8366
2374.256	8284
2376.24	8300
2378.225	8285
2380.208	8243
2382.194	8352
2384.177	8330
2386.159	8309
2388.142	8337
2390.122	8259
2392.105	8445
2394.085	8187
2396.066	8290
2398.044	8232
2400.024	8338
2402.002	8209
2403.982	8254
2405.959	8333
2407.935	8301
2409.913	8152
2411.888	8081
2413.865	8240
2415.84	8199
2417.814	8291
2419.788	8269
2421.762	8279
2423.735	8286
2425.708	8252
2427.68	8219
2429.651	8191
2431.623	8183
2433.593	8278
2435.564	8181
2437.533	8252
2439.502	8226
2441.47	8290
2443.438	8245
2445.406	8191
2447.373	8179
2449.34	8154
2451.305	8220
2453.271	8118
2455.235	8114
2457.201	8332
2459.165	8228
2461.129	8182
2463.092	8056
2465.054	8278
2467.018	8104
2468.978	8206
2470.939	8120
2472.899	8127
2474.86	8174
2476.819	7923
2478.778	8171
2480.737	8139
2482.695	8140
2484.653	8076
2486.609	8159
2488.567	8200
2490.524	7992
2492.478	8114
2494.433	8070
2496.387	7985
2498.343	7992
2500.297	8122
2502.249	8106
2504.202	8054
2506.153	8104
2508.105	8031
2510.057	8040
2512.008	8120
2513.957	8073
2515.906	7955
2517.855	8081
2519.805	8072
2521.754	8069
2523.7	7932
2525.647	7963
2527.594	8048
2529.54	8041
2531.486	8061
2533.431	8091
2535.376	7964
2537.32	8059
2539.263	7941
2541.207	7991
2543.151	8008
2545.093	8047
2547.034	8013
2548.975	8035
2550.917	8014
2552.856	7987
2554.796	8006
2556.735	8097
2558.673	7942
2560.611	7925
2562.55	7969
2564.487	7941
2566.424	8042
2568.36	8019
2570.296	8037
2572.232	7857
2574.167	7948
2576.101	7888
2578.035	7966
2579.969	8012
2581.902	7944
2583.834	8034
2585.766	7968
2587.698	7955
2589.628	7966
2591.557	7937
2593.489	8049
2595.419	8047
2597.348	7924
2599.275	8028
2601.204	7891
2603.131	8006
2605.059	7935
2606.986	7977
2608.911	8050
2610.837	8053
2612.76	7913
2614.687	7967
2616.61	8057
2618.534	7992
2620.457	8119
2622.38	7891
2624.302	7923
2626.225	7931
2628.145	7898
2630.067	7928
2631.986	7989
2633.906	8011
2635.827	7975
2637.745	8017
2639.662	8061
2641.581	7968
2643.498	8030
2645.415	8083
2647.331	7957
2649.248	7935
2651.163	7861
2653.077	8019
2654.993	7897
2656.906	7841
2658.821	7887
2660.733	7996
2662.646	7878
2664.557	7932
2666.47	8072
2668.381	8067
2670.291	7935
2672.201	7934
2674.11	8098
2676.021	7919
2677.929	7871
2679.837	7982
2681.745	8048
2683.652	7913
2685.56	7874
2687.466	7767
2689.371	7935
2691.276	7772
2693.181	7715
2695.085	7856
2696.991	7860
2698.893	7943
2700.796	7942
2702.698	7849
2704.601	7847
2706.502	7893
2708.404	7706
2710.304	7757
2712.203	7809
2714.103	7708
2716.003	7757
2717.902	7767
2719.8	7870
2721.697	7779
2723.594	7698
2725.49	7761
2727.389	7746
2729.283	7755
2731.179	7716
2733.073	7823
2734.968	7882
2736.863	7745
2738.757	7746
2740.649	7786
2742.541	7806
2744.433	7754
2746.324	7714
2748.216	7824
2750.107	7725
2751.997	7787
2753.886	7717
2755.776	7591
2757.666	7705
2759.553	7668
2761.44	7844
2763.327	7721
2765.215	7609
2767.102	7807
2768.988	7627
2770.873	7724
2772.757	7693
2774.641	7741
2776.525	7543
2778.41	7675
2780.292	7668
2782.175	7738
2784.057	7746
2785.938	7650
2787.821	7730
2789.701	7725
2791.581	7713
2793.461	7645
2795.34	7606
2797.219	7638
2799.099	7697
2800.975	7636
2802.853	7727
2804.73	7518
2806.606	7624
2808.484	7716
2810.358	7535
2812.233	7588
2814.108	7627
2815.981	7542
2817.857	7723
2819.73	7605
2821.602	7576
2823.474	7605
2825.346	7635
2827.217	7492
2829.089	7640
2830.959	7541
2832.829	7435
2834.698	7464
2836.567	7578
2838.436	7646
2840.305	7721
2842.172	7719
2844.04	7538
2845.905	7547
2847.772	7566
2849.639	7588
2851.503	7674
2853.369	7695
2855.232	7667
2857.096	7761
2858.961	7747
2860.824	7789
2862.686	7821
2864.547	7785
2866.41	7766
2868.272	7774
2870.132	7827
2871.992	8016
2873.851	7952
2875.711	8244
2877.57	8148
2879.429	8180
2881.287	8261
2883.144	8268
2885.001	8158
2886.857	8272
2888.714	8245
2890.57	8170
2892.425	8273
2894.279	8182
2896.133	8400
2897.987	8172
2899.842	8231
2901.694	8203
2903.547	8190
2905.397	8221
2907.249	8180
2909.101	8115
2910.952	8297
2912.802	8335
2914.652	8391
2916.5	8370
2918.35	8450
2920.198	8520
2922.045	8607
2923.893	8665
2925.74	8616
2927.585	8822
2929.433	8941
2931.279	8966
2933.123	9141
2934.968	9019
2936.811	9262
2938.656	9155
2940.5	9296
2942.342	9406
2944.185	9455
2946.026	9495
2947.87	9411
2949.71	9468
2951.549	9239
2953.39	9235
2955.229	9191
2957.069	9169
2958.908	9154
2960.746	9092
2962.584	8834
2964.421	8776
2966.257	8751
2968.094	8571
2969.931	8601
2971.766	8553
2973.601	8477
2975.435	8453
2977.27	8510
2979.105	8463
2980.938	8414
2982.77	8180
2984.602	8277
2986.434	8339
2988.267	8175
2990.097	8347
2991.927	8155
2993.757	8228
2995.587	8037
2997.417	7923
2999.246	7878
3001.074	7873
3002.902	7971
3004.729	7842
3006.556	7637
3008.384	7625
3010.21	7598
3012.036	7457
3013.861	7606
3015.684	7403
3017.51	7335
3019.334	7288
3021.157	7337
3022.981	7388
3024.802	7259
3026.624	7179
3028.448	7233
3030.267	7185
3032.088	7187
3033.909	7259
3035.728	7130
3037.549	7227
3039.368	7022
3041.186	7110
3043.004	6938
3044.821	7076
3046.64	7194
3048.455	6980
3050.272	7028
3052.087	7070
3053.903	7122
3055.717	6963
3057.534	7057
3059.347	6921
3061.16	7048
3062.974	7052
3064.785	7059
3066.598	7078
3068.411	7110
3070.222	7069
3072.032	7045
3073.844	7061
3075.653	7042
3077.463	6965
3079.272	6845
3081.08	7088
3082.889	6928
3084.697	6896
3086.505	6842
3088.312	6970
3090.118	6913
3091.924	6818
3093.729	6990
3095.535	6803
3097.34	6785
3099.144	6992
3100.947	6875
3102.75	6745
3104.553	6828
3106.357	6659
3108.159	6799
3109.961	6822
3111.762	6591
3113.562	6728
3115.365	6814
3117.164	6758
3118.964	6755
3120.761	6730
3122.56	6677
3124.36	6797
3126.158	6691
3127.954	6750
3129.75	6638
3131.547	6821
3133.343	6744
3135.139	6739
3136.934	6649
3138.729	6642
3140.522	6594
3142.317	6670
3144.11	6706
3145.904	6862
3147.695	6588
3149.488	6604
3151.28	6625
3153.07	6650
3154.863	6704
3156.652	6597
3158.441	6560
3160.231	6728
3162.019	6640
3163.81	6645
3165.597	6600
3167.384	6656
3169.172	6610
3170.958	6565
3172.745	6430
3174.532	6528
3176.317	6686
3178.101	6537
3179.885	6561
3181.67	6545
3183.455	6587
3185.238	6606
3187.02	6610
3188.802	6549
3190.585	6559
3192.368	6458
3194.149	6500
3195.929	6565
3197.709	6366
3199.489	6555
3201.268	6559
3203.048	6536
3204.826	6482
3206.604	6530
3208.382	6540
3210.159	6492
3211.937	6517
3213.713	6656
3215.489	6496
3217.263	6415
3219.038	6401
3220.815	6553
3222.589	6480
3224.363	6541
3226.136	6499
3227.908	6523
3229.681	6549
3231.454	6486
3233.226	6430
3234.996	6508
3236.767	6467
3238.538	6447
3240.308	6337
3242.078	6532
3243.847	6421
3245.615	6462
3247.384	6398
3249.15	6496
3250.92	6542
3252.686	6476
3254.453	6528
3256.218	6505
3257.984	6410
3259.75	6528
3261.515	6430
3263.279	6470
3265.044	6424
3266.806	6333
3268.57	6533
3270.334	6406
3272.095	6422
3273.856	6523
3275.619	6511
3277.379	6498
3279.14	6420
3280.9	6440
3282.661	6406
3284.419	6328
3286.178	6483
3287.937	6472
3289.695	6413
3291.453	6507
3293.21	6418
3294.967	6481
3296.723	6404
3298.48	6594
3300.235	6418
3301.99	6571
3303.744	6459
3305.498	6432
3307.253	6386
3309.006	6455
3310.759	6474
3312.511	6559
3314.263	6485
3316.017	6456
3317.768	6361
3319.519	6341
3321.268	6379
3323.018	6348
3324.767	6497
3326.518	6408
3328.267	6492
3330.014	6512
3331.762	6508
3333.509	6402
3335.258	6630
3337.003	6417
3338.75	6366
3340.496	6390
3342.24	6368
3343.987	6332
3345.732	6403
3347.475	6380
3349.219	6402
3350.961	6454
3352.705	6371
3354.448	6248
3356.19	6291
3357.931	6312
3359.672	6372
3361.412	6364
3363.155	6286
3364.894	6347
3366.633	6340
3368.372	6260
3370.11	6306
3371.849	6217
3373.588	6284
3375.325	6287
3377.061	6221
3378.799	6280
3380.534	6279
3382.271	6310
3384.006	6225
3385.741	6270
3387.475	6302
3389.209	6297
3390.944	6197
3392.677	6242
3394.409	6138
3396.143	6104
3397.874	6254
3399.606	6182
3401.338	6067
3403.069	6208
3404.799	6162
3406.528	6178
3408.258	6117
3409.988	6157
3411.717	6017
3413.445	6197
3415.173	6138
3416.899	6129
3418.626	6135
3420.354	6003
3422.08	6050
3423.806	6044
3425.531	6093
3427.255	6099
3428.981	5997
3430.705	6103
3432.429	6166
3434.151	6016
3435.875	6014
3437.599	6075
3439.321	6047
3441.042	6041
3442.763	5989
3444.483	6029
3446.204	6111
3447.926	6020
3449.645	5987
3451.364	5984
3453.082	5929
3454.801	6070
3456.52	6068
3458.238	5962
3459.954	5878
3461.671	5828
3463.387	5874
3465.104	5825
3466.82	5887
3468.534	5939
3470.25	5815
3471.963	5789
3473.676	5815
3475.392	5909
3477.104	5852
3478.817	5836
3480.528	5671
3482.241	5719
3483.954	5791
3485.664	5857
3487.374	5721
3489.084	5728
3490.795	5752
3492.504	5741
3494.214	5736
3495.922	5792
3497.63	5771
3499.338	5651
3501.045	5827
3502.753	5725
3504.459	5747
3506.166	5693
3507.871	5742
3509.576	5546
3511.283	5765
3512.987	5613
3514.691	5773
3516.395	5564
3518.098	5641
3519.8	5644
3521.504	5552
3523.206	5603
3524.908	5568
3526.609	5617
3528.309	5618
3530.011	5581
3531.711	5528
3533.411	5486
3535.109	5542
3536.808	5456
3538.507	5701
3540.206	5498
3541.904	5515
3543.601	5551
3545.297	5525
3546.994	5527
3548.69	5478
3550.387	5463
3552.081	5562
3553.776	5474
3555.47	5405
3557.166	5446
3558.859	5524
3560.553	5377
3562.245	5439
3563.938	5497
3565.629	5447
3567.322	5449
3569.014	5466
3570.704	5461
3572.394	5314
3574.084	5388
3575.775	5506
3577.464	5397
3579.152	5357
3580.842	5389
3582.529	5354
3584.216	5390
3585.905	5337
3587.591	5322
3589.279	5379
3590.964	5324
3592.649	5198
3594.336	5317
3596.021	5310
3597.705	5343
3599.388	5404
3601.072	5250
3602.757	5316
3604.439	5207
3606.122	5255
3607.803	5341
3609.485	5207
3611.167	5276
3612.849	5193
3614.529	5145
3616.208	5265
3617.888	5137
3619.567	5048
3621.247	5175
3622.926	5179
3624.603	5192
3626.281	5093
3627.958	5202
3629.635	5203
3631.312	5105
3632.989	5061
3634.665	5024
3636.339	5114
3638.014	5111
3639.691	5179
3641.364	5001
3643.038	4918
3644.71	5026
3646.384	5011
3648.058	5013
3649.729	5033
3651.402	5092
3653.073	5059
3654.744	4964
3656.414	5011
3658.085	5034
3659.755	5051
3661.424	5011
3663.094	4970
3664.762	5036
3666.431	4997
3668.099	5016
3669.766	4959
3671.433	4943
3673.099	4959
3674.768	4934
3676.433	4870
3678.098	4911
3679.763	5020
3681.428	4961
3683.093	5017
3684.757	4891
3686.421	4992
3688.083	4888
3689.746	4924
3691.408	4851
3693.071	4883
3694.733	4860
3696.394	4944
3698.054	4960
3699.715	4926
3701.375	4835
3703.036	4909
3704.695	4861
3706.354	4936
3708.012	4918
3709.67	4772
3711.329	4751
3712.987	4921
3714.644	4786
3716.299	4764
3717.955	4867
3719.613	4831
3721.268	4864
3722.923	4750
3724.577	4842
3726.231	4758
3727.885	4841
3729.539	4830
3731.192	4858
3732.845	4692
3734.497	4681
3736.149	4736
3737.802	4818
3739.453	4883
3741.104	4798
3742.753	4807
3744.404	4771
3746.052	4847
3747.704	4749
3749.352	4702
3751	4746
3752.648	4701
3754.296	4857
3755.944	4714
3757.59	4737
3759.238	4733
3760.883	4674
3762.528	4663
3764.176	4645
3765.82	4757
3767.464	4749
3769.109	4721
3770.753	4690
3772.396	4617
3774.04	4661
3775.683	4628
3777.325	4617
3778.967	4667
3780.608	4708
3782.25	4644
3783.89	4613
3785.531	4605
3787.17	4660
3788.81	4536
3790.45	4618
3792.09	4671
3793.729	4642
3795.366	4645
3797.003	4587
3798.64	4631
3800.278	4643
3801.915	4594
3803.551	4620
3805.187	4542
3806.822	4575
3808.458	4536
3810.093	4587
3811.726	4566
3813.36	4533
3814.994	4567
3816.627	4544
3818.262	4510
3819.893	4543
3821.525	4476
3823.157	4551
3824.787	4577
3826.42	4487
3828.051	4616
3829.68	4477
3831.31	4468
3832.938	4491
3834.569	4498
3836.198	4539
3837.825	4465
3839.454	4410
3841.08	4417
3842.708	4587
3844.335	4480
3845.962	4467
3847.587	4460
3849.212	4442
3850.838	4497
3852.463	4361
3854.089	4406
3855.712	4415
3857.335	4450
3858.959	4443
3860.582	4310
3862.205	4368
3863.827	4323
3865.449	4343
3867.07	4333
3868.691	4360
3870.312	4353
3871.933	4396
3873.553	4358
3875.173	4443
3876.792	4436
3878.411	4342
3880.03	4291
3881.647	4349
3883.265	4433
3884.882	4420
3886.499	4358
3888.116	4347
3889.732	4355
3891.348	4347
3892.964	4324
3894.579	4286
3896.195	4336
3897.809	4267
3899.423	4249
3901.036	4400
3902.648	4259
3904.261	4275
3905.875	4291
3907.487	4239
3909.099	4309
3910.709	4238
3912.321	4281
3913.933	4242
3915.542	4353
3917.152	4252
3918.762	4176
3920.37	4294
3921.98	4347
3923.589	4220
3925.196	4193
3926.804	4381
3928.41	4269
3930.018	4265
3931.626	4201
3933.231	4230
3934.838	4241
3936.442	4236
3938.046	4229
3939.653	4237
3941.257	4258
3942.861	4327
3944.464	4182
3946.068	4244
3947.67	4223
3949.273	4206
3950.876	4240
3952.477	4258
3954.078	4249
3955.678	4134
3957.281	4138
3958.881	4175
3960.48	4135
3962.079	4242
3963.678	4221
3965.279	4154
3966.877	4172
3968.475	4186
3970.072	4178
3971.669	4119
3973.266	4180
3974.864	4153
3976.459	4118
3978.055	4134
3979.65	4199
3981.245	4082
3982.841	4063
3984.436	4137
3986.03	4119
3987.623	4039
3989.216	4055
3990.809	4072
3992.403	4018
3993.995	4033
3995.586	4086
3997.177	4056
3998.768	4099
4000.361	4061
4001.951	3946
4003.54	3984
4005.13	3989
4006.719	4038
4008.31	3997
4009.897	4003
4011.485	4014
4013.073	3995
4014.66	3944
4016.247	3968
4017.834	3945
4019.421	4011
4021.006	4032
4022.592	3873
4024.178	3986
4025.763	3944
4027.348	3995
4028.932	3913
4030.515	3906
4032.099	3872
4033.682	3912
4035.266	3905
4036.847	3980
4038.429	3875
4040.011	3874
4041.592	3898
4043.173	3941
4044.755	3890
4046.334	3929
4047.913	3883
4049.494	3905
4051.074	3911
4052.652	3892
4054.23	3826
4055.807	3853
4057.385	3935
4058.963	3840
4060.541	3824
4062.117	3804
4063.693	3827
4065.269	3902
4066.844	3908
4068.42	3854
4069.995	3841
4071.569	3893
4073.143	3884
4074.716	3742
4076.291	3828
4077.864	3720
4079.436	3822
4081.009	3723
4082.58	3764
4084.152	3841
4085.723	3829
4087.294	3881
4088.865	3774
4090.435	3775
4092.005	3808
4093.574	3759
4095.143	3771
4096.712	3817
4098.279	3777
4099.848	3802
4101.416	3808
4102.984	3657
4104.55	3760
4106.117	3834
4107.682	3704
4109.248	3747
4110.815	3799
4112.379	3687
4113.945	3699
4115.508	3696
4117.073	3672
4118.637	3748
4120.201	3697
4121.763	3811
4123.325	3782
4124.888	3615
4126.449	3715
4128.013	3629
4129.573	3690
4131.133	3696
4132.694	3624
4134.254	3707
4135.814	3664
4137.374	3693
4138.933	3612
4140.491	3690
4142.049	3619
4143.607	3636
4145.167	3574
4146.724	3580
4148.28	3715
4149.836	3680
4151.392	3618
4152.949	3665
4154.504	3638
4156.059	3620
4157.614	3526
4159.168	3594
4160.723	3505
4162.277	3604
4163.83	3580
4165.383	3594
4166.936	3524
4168.488	3639
4170.041	3524
4171.593	3637
4173.144	3535
4174.695	3532
4176.246	3577
4177.796	3597
4179.346	3527
4180.896	3502
4182.445	3533
4183.994	3557
4185.542	3482
4187.091	3471
4188.639	3473
4190.185	3448
4191.732	3484
4193.279	3533
4194.826	3539
4196.373	3462
4197.918	3422
4199.463	3524
4201.008	3509
4202.553	3492
4204.098	3442
4205.641	3562
4207.185	3385
4208.728	3439
4210.271	3497
4211.814	3440
4213.357	3395
4214.898	3514
4216.439	3383
4217.98	3421
4219.522	3443
4221.062	3403
4222.603	3432
4224.142	3429
4225.681	3376
4227.222	3383
4228.76	3437
4230.298	3466
4231.835	3316
4233.373	3414
4234.911	3518
4236.449	3361
4237.985	3350
4239.521	3361
4241.057	3413
4242.592	3441
4244.128	3399
4245.663	3471
4247.197	3427
4248.731	3501
4250.265	3373
4251.798	3414
4253.333	3406
4254.865	3403
4256.397	3384
4257.93	3387
4259.461	3296
4260.994	3411
4262.525	3408
4264.056	3380
4265.586	3315
4267.115	3377
4268.646	3320
4270.176	3276
4271.705	3396
4273.232	3342
4274.761	3344
4276.289	3251
4277.818	3334
4279.345	3386
4280.872	3350
4282.399	3298
4283.924	3336
4285.452	3316
4286.976	3301
4288.502	3320
4290.026	3280
4291.551	3297
4293.074	3226
4294.6	3363
4296.123	3278
4297.646	3255
4299.168	3252
4300.691	3274
4302.214	3208
4303.736	3239
4305.257	3215
4306.778	3281
4308.299	3219
4309.82	3201
4311.34	3284
4312.86	3192
4314.379	3179
