400.0745	4213
402.597	4198
405.1208	4179
407.6419	4212
410.1623	4223
412.6819	4185
415.201	4283
417.7172	4334
420.2369	4441
422.7538	4402
425.2701	4497
427.7856	4515
430.3005	4523
432.8147	4546
435.3282	4470
437.841	4521
440.3511	4472
442.8625	4506
445.3753	4562
447.8854	4473
450.3927	4562
452.9014	4482
455.4073	4446
457.9146	4525
460.4233	4418
462.9272	4452
465.4325	4409
467.935	4443
470.4389	4465
472.9421	4442
475.4446	4462
477.9444	4352
480.4456	4409
482.944	4467
485.4417	4425
487.9429	4440
490.4393	4416
492.935	4552
495.4321	4465
497.9264	4460
500.4221	4399
502.9171	4506
505.4094	4582
507.9011	4455
510.392	4565
512.8864	4588
515.3759	4607
517.8649	4570
520.3531	4594
522.8406	4635
525.3275	4612
527.8178	4673
530.3033	4653
532.7881	4686
535.2723	4606
537.7558	4532
540.2407	4642
542.7228	4611
545.2043	4666
547.6851	4635
550.1652	4608
552.6467	4661
555.1255	4654
557.6016	4669
560.079	4675
562.5557	4696
565.0318	4771
567.5092	4704
569.984	4785
572.456	4835
574.9294	4865
577.4022	4769
579.8762	4887
582.3456	4860
584.8163	4920
587.2863	4911
589.7557	4959
592.2224	4923
594.6924	4920
597.1578	4956
599.6245	4863
602.0905	4818
604.5538	4890
607.0206	4822
609.4825	4764
611.9459	4841
614.4066	4802
616.8686	4851
619.33	4824
621.7906	4876
624.2487	4755
626.708	4731
629.1647	4653
631.6207	4684
634.0801	4735
636.5348	4768
638.9888	4684
641.4442	4774
643.8969	4764
646.3509	4794
648.8022	4745
651.255	4835
653.705	4760
656.1544	4893
658.6031	4860
661.0532	4722
663.5026	4909
665.9493	4920
668.3954	4868
670.8409	4848
673.2877	4859
675.7318	4885
678.1752	4891
680.618	4821
683.0601	4855
685.5035	4924
687.9444	4848
690.3845	4938
692.824	4960
695.2628	4888
697.701	5024
700.1406	4883
702.5774	4900
705.0116	5027
707.4472	4956
709.8821	4941
712.3183	5053
714.7519	5039
717.1829	4969
719.6151	5035
722.0468	5028
724.4777	4937
726.908	5048
729.3377	4974
731.7667	5056
734.1931	5066
736.6208	5106
739.0498	5209
741.4742	5102
743.9	5047
746.3231	5263
748.7476	5250
751.1713	5239
753.5945	5195
756.015	5256
758.4368	5235
760.856	5285
763.2766	5201
765.6965	5236
768.1157	5322
770.5323	5307
772.9483	5331
775.3656	5287
777.7822	5306
780.1963	5217
782.6116	5342
785.0244	5322
787.4365	5273
789.8499	5285
792.2626	5251
794.6728	5305
797.0823	5264
799.4911	5298
801.8994	5269
804.3109	5352
806.7178	5297
809.124	5396
811.5297	5351
813.9347	5473
816.341	5411
818.7447	5359
821.1478	5371
823.5502	5417
825.952	5336
828.3531	5240
830.7556	5358
833.1554	5345
835.5546	5455
837.9532	5375
840.3511	5453
842.7504	5538
845.1451	5392
847.5411	5485
849.9365	5516
852.3312	5603
854.7272	5580
857.1187	5566
859.5115	5566
861.9037	5467
864.2952	5585
866.6842	5531
869.0764	5601
871.4661	5559
873.8531	5493
876.2415	5592
878.6272	5589
881.0162	5452
883.4026	5463
885.7866	5509
888.1717	5446
890.5543	5526
892.9382	5402
895.3215	5432
897.7041	5517
900.0842	5472
902.4655	5341
904.8443	5454
907.2244	5528
909.6039	5675
911.9808	5567
914.357	5768
916.7346	5670
919.1115	5692
921.4859	5756
923.8616	5799
926.2347	5796
928.6071	5870
930.979	5770
933.3541	5794
935.7247	5806
938.0946	5878
940.4639	5973
942.8326	6134
945.2026	6209
947.5701	6412
949.9369	6655
952.305	6802
954.6705	7253
957.0355	7728
959.4017	8026
961.7654	8243
964.1284	8175
966.4908	7946
968.8527	7332
971.2138	6944
973.5743	6604
975.9343	6305
978.2936	6187
980.6522	5950
983.0122	5836
985.3696	5904
987.7245	5850
990.0807	5686
992.4362	5706
994.7911	5693
997.1474	5808
999.4991	5670
1001.852	5792
1004.205	5868
1006.555	5755
1008.908	5826
1011.258	5740
1013.606	5794
1015.956	5763
1018.302	5844
1020.652	5787
1022.998	5780
1025.345	5826
1027.691	5894
1030.035	5950
1032.378	5908
1034.724	5813
1037.066	5938
1039.409	5841
1041.75	5900
1044.092	6018
1046.433	5868
1048.771	5951
1051.112	5955
1053.449	5894
1055.786	5901
1058.124	5934
1060.462	5952
1062.797	5999
1065.131	5941
1067.467	6078
1069.8	6103
1072.135	6093
1074.467	6065
1076.798	6043
1079.129	5970
1081.459	6097
1083.792	6085
1086.121	5934
1088.449	5948
1090.777	5786
1093.104	5844
1095.431	5861
1097.759	5769
1100.084	5814
1102.408	5886
1104.732	5831
1107.056	5805
1109.379	5943
1111.701	5843
1114.022	5916
1116.343	5748
1118.664	5773
1120.983	5820
1123.303	5813
1125.621	5768
1127.939	5848
1130.256	5874
1132.573	5777
1134.889	5723
1137.205	5789
1139.52	5755
1141.832	5775
1144.146	5754
1146.461	5811
1148.771	5804
1151.083	5814
1153.392	5825
1155.703	5667
1158.011	5760
1160.323	5755
1162.629	5810
1164.938	5804
1167.243	5818
1169.55	5759
1171.857	5883
1174.163	5801
1176.466	5817
1178.769	5897
1181.073	5767
1183.374	5815
1185.677	5780
1187.979	5833
1190.279	5823
1192.578	5766
1194.878	5741
1197.178	5724
1199.476	5870
1201.772	5763
1204.068	5831
1206.366	5883
1208.663	5881
1210.957	5903
1213.251	5894
1215.544	5845
1217.836	5852
1220.128	5747
1222.421	5835
1224.712	5898
1227.002	5944
1229.292	5867
1231.581	5949
1233.871	5992
1236.159	6054
1238.446	6049
1240.732	6087
1243.018	5963
1245.304	6094
1247.59	6119
1249.874	6107
1252.156	6145
1254.439	6001
1256.721	6127
1259.005	6047
1261.286	6115
1263.565	6064
1265.845	5993
1268.125	6140
1270.403	6146
1272.682	6068
1274.959	6118
1277.234	5987
1279.511	6055
1281.787	6023
1284.062	6100
1286.337	6052
1288.609	6038
1290.882	5955
1293.153	5969
1295.428	5902
1297.698	5966
1299.969	5905
1302.237	5893
1304.507	5960
1306.777	5976
1309.044	5872
1311.312	5923
1313.578	5847
1315.844	5980
1318.109	6019
1320.375	5889
1322.638	5952
1324.903	5841
1327.165	5990
1329.427	5825
1331.69	5904
1333.952	5957
1336.212	6006
1338.471	5967
1340.73	5868
1342.988	5918
1345.248	5752
1347.505	5877
1349.763	5955
1352.019	5810
1354.274	5943
1356.53	5874
1358.784	5862
1361.038	5940
1363.291	5852
1365.543	5901
1367.797	5991
1370.048	5919
1372.296	5922
1374.546	5882
1376.796	6017
1379.045	5972
1381.295	5861
1383.542	5990
1385.787	5989
1388.034	5872
1390.28	6054
1392.527	5994
1394.772	6016
1397.014	5810
1399.258	6030
1401.501	5972
1403.741	6072
1405.985	6140
1408.226	6037
1410.465	6046
1412.705	6062
1414.943	6080
1417.184	5998
1419.42	6090
1421.658	6039
1423.894	6111
1426.13	6154
1428.366	6145
1430.602	6085
1432.835	6197
1435.069	6218
1437.301	6220
1439.535	6194
1441.767	6189
1443.997	6235
1446.229	6312
1448.458	6268
1450.687	6336
1452.916	6330
1455.146	6302
1457.372	6254
1459.599	6271
1461.824	6233
1464.051	6207
1466.277	6236
1468.501	6258
1470.725	6217
1472.948	6183
1475.17	6144
1477.393	6108
1479.614	6040
1481.837	6056
1484.057	6087
1486.276	5889
1488.497	5959
1490.715	6064
1492.932	5833
1495.148	5987
1497.364	5881
1499.58	5874
1501.798	5863
1504.012	5873
1506.227	5935
1508.44	5875
1510.653	5884
1512.866	5864
1515.078	5946
1517.289	5857
1519.5	5873
1521.711	5884
1523.92	5945
1526.13	5801
1528.338	5927
1530.544	5775
1532.752	5842
1534.959	5865
1537.165	5938
1539.371	5988
1541.574	5827
1543.779	5790
1545.983	5817
1548.187	5964
1550.39	5986
1552.59	5957
1554.792	6005
1556.991	5997
1559.19	5914
1561.392	5975
1563.59	6017
1565.789	6025
1567.986	5996
1570.182	5973
1572.381	6035
1574.576	5988
1576.771	6070
1578.966	5947
1581.16	5946
1583.354	6022
1585.546	6074
1587.74	6039
1589.931	5913
1592.121	5951
1594.311	6170
1596.502	6020
1598.693	6054
1600.881	6144
1603.069	6121
1605.256	6064
1607.445	6115
1609.631	6110
1611.816	6144
1614.001	6197
1616.186	6132
1618.37	6098
1620.555	6030
1622.737	6134
1624.919	6137
1627.101	6058
1629.282	6193
1631.463	6131
1633.643	6240
1635.822	6049
1638.001	6229
1640.179	6172
1642.359	6285
1644.534	6283
1646.711	6288
1648.887	6251
1651.062	6280
1653.235	6259
1655.412	6220
1657.586	6347
1659.757	6416
1661.93	6262
1664.1	6364
1666.274	6309
1668.445	6322
1670.614	6341
1672.784	6413
1674.951	6449
1677.12	6377
1679.289	6297
1681.457	6273
1683.622	6403
1685.789	6354
1687.953	6319
1690.121	6297
1692.284	6227
1694.447	6205
1696.611	6063
1698.772	6123
1700.935	6097
1703.098	6104
1705.258	6156
1707.417	6096
1709.576	6143
1711.736	6010
1713.896	6165
1716.053	6060
1718.21	5975
1720.366	6041
1722.522	6116
1724.68	5965
1726.835	6041
1728.989	6022
1731.142	5985
1733.295	5997
1735.449	5995
1737.601	5934
1739.753	5962
1741.903	6007
1744.054	5997
1746.203	6046
1748.354	5981
1750.503	6131
1752.651	6026
1754.798	6021
1756.944	5959
1759.092	5993
1761.238	6086
1763.383	5988
1765.528	6181
1767.672	6103
1769.814	6057
1771.959	6037
1774.102	5970
1776.242	6008
1778.384	6120
1780.525	6102
1782.665	6068
1784.805	6046
1786.945	6036
1789.082	6120
1791.22	6113
1793.36	6097
1795.495	5977
1797.632	6033
1799.766	6009
1801.902	6067
1804.035	6103
1806.172	6056
1808.304	6115
1810.436	5995
1812.569	6093
1814.699	6119
1816.833	6072
1818.963	6092
1821.092	6089
1823.222	6009
1825.35	6067
1827.478	6061
1829.608	5994
1831.734	6002
1833.86	6026
1835.986	6089
1838.11	6065
1840.238	5998
1842.362	5989
1844.485	5916
1846.608	6038
1848.73	6078
1850.853	6063
1852.974	6031
1855.097	6090
1857.217	5938
1859.336	6031
1861.455	6010
1863.576	6035
1865.693	6031
1867.811	6068
1869.926	5991
1872.042	5930
1874.16	6048
1876.275	5948
1878.39	5964
1880.504	6102
1882.618	5978
1884.731	5882
1886.843	6053
1888.956	6034
1891.067	5911
1893.178	6061
1895.287	5906
1897.399	5945
1899.508	6106
1901.617	5877
1903.724	6107
1905.832	5953
1907.941	6120
1910.046	6054
1912.152	6134
1914.256	6136
1916.361	6135
1918.464	6090
1920.57	5983
1922.672	6126
1924.775	6030
1926.876	6091
1928.978	6106
1931.08	6142
1933.181	6080
1935.28	6171
1937.38	6112
1939.478	6110
1941.577	6034
1943.675	5990
1945.771	6037
1947.867	6123
1949.964	6090
1952.058	6186
1954.154	6080
1956.248	6137
1958.343	6132
1960.435	6055
1962.527	6081
1964.62	6104
1966.711	6177
1968.802	6002
1970.892	6166
1972.983	6039
1975.072	6121
1977.162	6111
1979.25	6066
1981.337	6001
1983.424	5985
1985.51	5927
1987.598	6007
1989.683	6001
1991.768	5970
1993.852	6054
1995.934	6118
1998.019	5986
2000.102	6069
2002.184	5996
2004.266	6028
2006.347	6014
2008.427	6030
2010.508	6027
2012.587	6009
2014.666	6071
2016.745	5972
2018.821	5930
2020.9	6034
2022.977	6088
2025.052	5965
2027.128	5895
2029.204	6118
2031.277	5982
2033.353	6029
2035.425	6052
2037.499	6011
2039.57	6064
2041.642	6031
2043.714	5979
2045.786	6049
2047.855	6018
2049.925	6084
2051.993	6068
2054.064	5920
2056.132	6027
2058.2	5983
2060.266	6077
2062.332	5991
2064.398	6021
2066.465	5982
2068.529	6032
2070.592	5979
2072.657	6102
2074.719	6016
2076.783	5979
2078.845	6071
2080.907	6019
2082.968	5973
2085.028	6033
2087.087	5988
2089.148	6075
2091.207	6121
2093.264	6009
2095.322	6054
2097.379	5919
2099.439	6043
2101.495	5995
2103.55	5994
2105.605	6018
2107.658	6095
2109.713	5922
2111.767	6052
2113.82	5978
2115.872	5985
2117.924	5899
2119.975	6065
2122.028	6062
2124.078	6054
2126.126	6064
2128.176	6062
2130.225	6020
2132.275	5894
2134.321	6116
2136.368	6006
2138.415	5973
2140.461	5930
2142.505	6035
2144.552	5986
2146.597	5931
2148.64	6088
2150.684	5897
2152.725	6056
2154.77	5929
2156.811	5965
2158.852	5970
2160.894	5901
2162.933	5955
2164.973	6032
2167.013	6001
2169.051	5947
2171.089	5998
2173.126	5907
2175.164	6020
2177.201	5982
2179.236	5969
2181.273	5983
2183.307	5826
2185.341	5936
2187.377	5873
2189.41	5899
2191.442	5809
2193.473	5857
2195.506	5929
2197.539	5915
2199.569	5895
2201.598	5862
2203.628	5940
2205.656	5936
2207.686	5740
2209.716	5841
2211.743	5751
2213.769	5929
2215.796	5739
2217.821	5885
2219.848	5796
2221.873	5864
2223.897	5866
2225.921	5984
2227.944	5810
2229.967	5818
2231.991	5842
2234.011	5866
2236.032	5740
2238.053	5846
2240.073	5878
2242.094	5738
2244.114	5808
2246.131	5814
2248.149	5781
2250.167	5802
2252.186	5846
2254.201	5946
2256.218	5913
2258.233	5791
2260.247	5818
2262.262	5917
2264.278	5818
2266.29	5818
2268.303	5815
2270.315	5819
2272.327	5708
2274.341	5831
2276.35	5782
2278.361	5823
2280.37	5828
2282.38	5774
2284.388	5830
2286.397	5797
2288.405	5881
2290.412	5704
2292.419	5801
2294.425	5807
2296.431	5826
2298.437	5760
2300.441	5784
2302.445	5789
2304.449	5806
2306.453	5861
2308.455	5849
2310.457	5812
2312.459	5787
2314.46	5760
2316.46	5761
2318.461	5746
2320.46	5870
2322.458	5744
2324.458	5769
2326.456	5746
2328.455	5750
2330.451	5767
2332.447	5765
2334.443	5837
2336.438	5697
2338.433	5805
2340.429	5785
2342.422	5676
2344.416	5674
2346.408	5696
2348.399	5657
2350.393	5698
2352.384	5691
2354.375	5772
2356.365	5641
2358.355	5732
2360.344	5638
2362.333	5714
2364.322	5635
2366.309	5615
2368.295	5758
2370.282	5626
2372.27	5675
2374.256	5625
2376.24	5598
2378.225	5556
2380.208	5654
2382.194	5505
2384.177	5614
2386.159	5696
2388.142	5640
2390.122	5614
2392.105	5661
2394.085	5667
2396.066	5579
2398.044	5612
2400.024	5586
2402.002	5524
2403.982	5541
2405.959	5609
2407.935	5668
2409.913	5595
2411.888	5598
2413.865	5635
2415.84	5544
2417.814	5638
2419.788	5650
2421.762	5595
2423.735	5625
2425.708	5631
2427.68	5567
2429.651	5624
2431.623	5605
2433.593	5613
2435.564	5524
2437.533	5599
2439.502	5584
2441.47	5559
2443.438	5657
2445.406	5607
2447.373	5595
2449.34	5717
2451.305	5640
2453.271	5507
2455.235	5477
2457.201	5615
2459.165	5613
2461.129	5622
2463.092	5552
2465.054	5598
2467.018	5533
2468.978	5608
2470.939	5615
2472.899	5577
2474.86	5487
2476.819	5591
2478.778	5482
2480.737	5521
2482.695	5412
2484.653	5494
2486.609	5458
2488.567	5552
2490.524	5460
2492.478	5496
2494.433	5514
2496.387	5507
2498.343	5458
2500.297	5449
2502.249	5425
2504.202	5446
2506.153	5534
2508.105	5468
2510.057	5494
2512.008	5534
2513.957	5335
2515.906	5465
2517.855	5472
2519.805	5464
2521.754	5553
2523.7	5553
2525.647	5461
2527.594	5556
2529.54	5493
2531.486	5480
2533.431	5459
2535.376	5437
2537.32	5390
2539.263	5447
2541.207	5475
2543.151	5527
2545.093	5431
2547.034	5486
2548.975	5527
2550.917	5445
2552.856	5470
2554.796	5471
2556.735	5385
2558.673	5451
2560.611	5507
2562.55	5448
2564.487	5612
2566.424	5351
2568.36	5504
2570.296	5431
2572.232	5342
2574.167	5493
2576.101	5421
2578.035	5471
2579.969	5435
2581.902	5430
2583.834	5427
2585.766	5594
2587.698	5427
2589.628	5380
2591.557	5381
2593.489	5517
2595.419	5442
2597.348	5461
2599.275	5400
2601.204	5485
2603.131	5476
2605.059	5443
2606.986	5511
2608.911	5477
2610.837	5588
2612.76	5436
2614.687	5452
2616.61	5417
2618.534	5432
2620.457	5418
2622.38	5471
2624.302	5485
2626.225	5487
2628.145	5419
2630.067	5452
2631.986	5481
2633.906	5446
2635.827	5493
2637.745	5564
2639.662	5453
2641.581	5449
2643.498	5523
2645.415	5541
2647.331	5441
2649.248	5378
2651.163	5487
2653.077	5410
2654.993	5445
2656.906	5559
2658.821	5453
2660.733	5403
2662.646	5479
2664.557	5380
2666.47	5454
2668.381	5420
2670.291	5437
2672.201	5422
2674.11	5415
2676.021	5410
2677.929	5444
2679.837	5329
2681.745	5352
2683.652	5375
2685.56	5315
2687.466	5378
2689.371	5429
2691.276	5323
2693.181	5463
2695.085	5406
2696.991	5371
2698.893	5345
2700.796	5408
2702.698	5398
2704.601	5287
2706.502	5384
2708.404	5374
2710.304	5338
2712.203	5331
2714.103	5363
2716.003	5398
2717.902	5441
2719.8	5336
2721.697	5297
2723.594	5337
2725.49	5383
2727.389	5293
2729.283	5233
2731.179	5340
2733.073	5307
2734.968	5404
2736.863	5326
2738.757	5357
2740.649	5350
2742.541	5385
2744.433	5327
2746.324	5272
2748.216	5338
2750.107	5325
2751.997	5246
2753.886	5359
2755.776	5341
2757.666	5386
2759.553	5314
2761.44	5347
2763.327	5380
2765.215	5234
2767.102	5376
2768.988	5374
2770.873	5316
2772.757	5263
2774.641	5408
2776.525	5461
2778.41	5286
2780.292	5294
2782.175	5368
2784.057	5333
2785.938	5206
2787.821	5352
2789.701	5219
2791.581	5223
2793.461	5278
2795.34	5191
2797.219	5281
2799.099	5267
2800.975	5198
2802.853	5284
2804.73	5194
2806.606	5201
2808.484	5281
2810.358	5205
2812.233	5226
2814.108	5235
2815.981	5175
2817.857	5239
2819.73	5260
2821.602	5187
2823.474	5199
2825.346	5235
2827.217	5231
2829.089	5288
2830.959	5279
2832.829	5232
2834.698	5224
2836.567	5224
2838.436	5342
2840.305	5122
2842.172	5218
2844.04	5306
2845.905	5296
2847.772	5337
2849.639	5297
2851.503	5318
2853.369	5400
2855.232	5333
2857.096	5318
2858.961	5335
2860.824	5406
2862.686	5327
2864.547	5470
2866.41	5551
2868.272	5541
2870.132	5519
2871.992	5672
2873.851	5649
2875.711	5793
2877.57	5746
2879.429	5749
2881.287	5908
2883.144	5863
2885.001	5885
2886.857	5831
2888.714	6002
2890.57	5802
2892.425	5926
2894.279	5728
2896.133	5857
2897.987	5737
2899.842	5825
2901.694	5818
2903.547	5852
2905.397	5772
2907.249	5865
2909.101	5827
2910.952	5840
2912.802	5947
2914.652	6093
2916.5	5939
2918.35	6231
2920.198	6268
2922.045	6301
2923.893	6359
2925.74	6357
2927.585	6461
2929.433	6631
2931.279	6643
2933.123	6705
2934.968	6872
2936.811	6952
2938.656	6929
2940.5	6997
2942.342	6969
2944.185	7077
2946.026	7025
2947.87	7099
2949.71	7028
2951.549	6844
2953.39	6774
2955.229	6744
2957.069	6624
2958.908	6779
2960.746	6569
2962.584	6524
2964.421	6336
2966.257	6429
2968.094	6230
2969.931	6169
2971.766	6171
2973.601	6116
2975.435	6174
2977.27	6042
2979.105	6187
2980.938	6106
2982.77	6200
2984.602	6180
2986.434	6035
2988.267	5998
2990.097	6026
2991.927	5926
2993.757	5976
2995.587	5904
2997.417	5834
2999.246	5828
3001.074	5660
3002.902	5599
3004.729	5513
3006.556	5502
3008.384	5500
3010.21	5452
3012.036	5236
3013.861	5311
3015.684	5252
3017.51	5285
3019.334	5222
3021.157	5176
3022.981	5243
3024.802	5127
3026.624	5026
3028.448	5049
3030.267	5118
3032.088	5031
3033.909	5088
3035.728	5001
3037.549	5028
3039.368	5046
3041.186	4963
3043.004	5007
3044.821	4936
3046.64	5096
3048.455	5019
3050.272	4896
3052.087	4945
3053.903	4949
3055.717	4933
3057.534	4988
3059.347	4969
3061.16	5052
3062.974	4929
3064.785	4962
3066.598	4846
3068.411	5068
3070.222	4984
3072.032	4980
3073.844	4981
3075.653	4891
3077.463	4875
3079.272	4868
3081.08	4921
3082.889	4861
3084.697	4901
3086.505	4857
3088.312	4920
3090.118	4823
3091.924	4792
3093.729	4842
3095.535	4913
3097.34	4759
3099.144	4856
3100.947	4759
3102.75	4852
3104.553	4849
3106.357	4765
3108.159	4897
3109.961	4857
3111.762	4783
3113.562	4798
3115.365	4736
3117.164	4774
3118.964	4812
3120.761	4786
3122.56	4731
3124.36	4709
3126.158	4667
3127.954	4704
3129.75	4664
3131.547	4871
3133.343	4610
3135.139	4719
3136.934	4683
3138.729	4644
3140.522	4750
3142.317	4765
3144.11	4736
3145.904	4676
3147.695	4614
3149.488	4693
3151.28	4706
3153.07	4595
3154.863	4717
3156.652	4737
3158.441	4665
3160.231	4745
3162.019	4630
3163.81	4611
3165.597	4672
3167.384	4659
3169.172	4705
3170.958	4708
3172.745	4721
3174.532	4580
3176.317	4742
3178.101	4690
3179.885	4645
3181.67	4703
3183.455	4612
3185.238	4609
3187.02	4645
3188.802	4554
3190.585	4590
3192.368	4699
3194.149	4642
3195.929	4682
3197.709	4656
3199.489	4637
3201.268	4644
3203.048	4640
3204.826	4662
3206.604	4545
3208.382	4660
3210.159	4627
3211.937	4620
3213.713	4616
3215.489	4567
3217.263	4604
3219.038	4635
3220.815	4597
3222.589	4591
3224.363	4632
3226.136	4667
3227.908	4641
3229.681	4554
3231.454	4590
3233.226	4630
3234.996	4579
3236.767	4634
3238.538	4663
3240.308	4621
3242.078	4623
3243.847	4611
3245.615	4697
3247.384	4592
3249.15	4570
3250.92	4604
3252.686	4648
3254.453	4568
3256.218	4607
3257.984	4624
3259.75	4684
3261.515	4684
3263.279	4746
3265.044	4687
3266.806	4673
3268.57	4662
3270.334	4679
3272.095	4679
3273.856	4723
3275.619	4640
3277.379	4660
3279.14	4719
3280.9	4622
3282.661	4540
3284.419	4606
3286.178	4651
3287.937	4592
3289.695	4633
3291.453	4692
3293.21	4619
3294.967	4588
3296.723	4686
3298.48	4658
3300.235	4691
3301.99	4757
3303.744	4684
3305.498	4696
3307.253	4628
3309.006	4600
3310.759	4701
3312.511	4609
3314.263	4645
3316.017	4611
3317.768	4633
3319.519	4706
3321.268	4611
3323.018	4491
3324.767	4725
3326.518	4661
3328.267	4553
3330.014	4682
3331.762	4611
3333.509	4688
3335.258	4697
3337.003	4720
3338.75	4650
3340.496	4674
3342.24	4604
3343.987	4672
3345.732	4608
3347.475	4655
3349.219	4677
3350.961	4561
3352.705	4653
3354.448	4644
3356.19	4521
3357.931	4681
3359.672	4544
3361.412	4550
3363.155	4526
3364.894	4518
3366.633	4579
3368.372	4512
3370.11	4552
3371.849	4580
3373.588	4622
3375.325	4511
3377.061	4470
3378.799	4476
3380.534	4531
3382.271	4564
3384.006	4498
3385.741	4527
3387.475	4537
3389.209	4441
3390.944	4532
3392.677	4534
3394.409	4493
3396.143	4470
3397.874	4468
3399.606	4495
3401.338	4437
3403.069	4408
3404.799	4385
3406.528	4454
3408.258	4420
3409.988	4474
3411.717	4449
3413.445	4435
3415.173	4439
3416.899	4404
3418.626	4474
3420.354	4433
3422.08	4455
3423.806	4370
3425.531	4359
3427.255	4400
3428.981	4384
3430.705	4421
3432.429	4443
3434.151	4289
3435.875	4300
3437.599	4379
3439.321	4385
3441.042	4350
3442.763	4364
3444.483	4388
3446.204	4349
3447.926	4327
3449.645	4243
3451.364	4378
3453.082	4349
3454.801	4327
3456.52	4324
3458.238	4201
3459.954	4288
3461.671	4324
3463.387	4285
3465.104	4334
3466.82	4297
3468.534	4202
3470.25	4243
3471.963	4205
3473.676	4277
3475.392	4299
3477.104	4276
3478.817	4201
3480.528	4117
3482.241	4191
3483.954	4222
3485.664	4278
3487.374	4155
3489.084	4259
3490.795	4161
3492.504	4191
3494.214	4143
3495.922	4186
3497.63	4219
3499.338	4108
3501.045	4128
3502.753	4150
3504.459	4198
3506.166	4052
3507.871	4155
3509.576	4064
3511.283	4083
3512.987	4142
3514.691	4140
3516.395	4162
3518.098	4050
3519.8	3997
3521.504	4177
3523.206	4051
3524.908	4015
3526.609	3954
3528.309	4059
3530.011	3931
3531.711	3946
3533.411	4071
3535.109	3945
3536.808	4032
3538.507	4014
3540.206	3936
3541.904	3984
3543.601	4002
3545.297	3968
3546.994	4043
3548.69	4023
3550.387	3912
3552.081	3964
3553.776	3995
3555.47	3998
3557.166	3881
3558.859	3937
3560.553	3899
3562.245	3862
3563.938	3985
3565.629	3973
3567.322	3926
3569.014	3958
3570.704	3951
3572.394	3942
3574.084	3929
3575.775	3928
3577.464	3898
3579.152	3898
3580.842	3867
3582.529	3924
3584.216	3884
3585.905	3856
3587.591	3799
3589.279	3867
3590.964	3863
3592.649	3934
3594.336	3917
3596.021	3809
3597.705	3831
3599.388	3801
3601.072	3805
3602.757	3831
3604.439	3778
3606.122	3783
3607.803	3774
3609.485	3729
3611.167	3824
3612.849	3711
3614.529	3733
3616.208	3717
3617.888	3776
3619.567	3685
3621.247	3715
3622.926	3642
3624.603	3618
3626.281	3709
3627.958	3724
3629.635	3639
3631.312	3734
3632.989	3638
3634.665	3646
3636.339	3613
3638.014	3678
3639.691	3630
3641.364	3669
3643.038	3695
3644.71	3672
3646.384	3606
3648.058	3628
3649.729	3637
3651.402	3618
3653.073	3498
3654.744	3607
3656.414	3596
3658.085	3546
3659.755	3571
3661.424	3569
3663.094	3556
3664.762	3602
3666.431	3555
3668.099	3638
3669.766	3622
3671.433	3520
3673.099	3581
3674.768	3590
3676.433	3531
3678.098	3543
3679.763	3542
3681.428	3608
3683.093	3536
3684.757	3480
3686.421	3604
3688.083	3502
3689.746	3504
3691.408	3562
3693.071	3525
3694.733	3480
3696.394	3494
3698.054	3590
3699.715	3500
3701.375	3437
3703.036	3500
3704.695	3521
3706.354	3460
3708.012	3555
3709.67	3498
3711.329	3428
3712.987	3434
3714.644	3424
3716.299	3493
3717.955	3470
3719.613	3397
3721.268	3451
3722.923	3422
3724.577	3425
3726.231	3400
3727.885	3395
3729.539	3413
3731.192	3405
3732.845	3417
3734.497	3432
3736.149	3475
3737.802	3402
3739.453	3461
3741.104	3373
3742.753	3418
3744.404	3402
3746.052	3436
3747.704	3430
3749.352	3395
3751	3485
3752.648	3386
3754.296	3398
3755.944	3396
3757.59	3336
3759.238	3369
3760.883	3352
3762.528	3358
3764.176	3351
3765.82	3359
3767.464	3397
3769.109	3416
3770.753	3428
3772.396	3300
3774.04	3363
3775.683	3375
3777.325	3338
3778.967	3367
3780.608	3294
3782.25	3282
3783.89	3258
3785.531	3360
3787.17	3278
3788.81	3258
3790.45	3333
3792.09	3275
3793.729	3352
3795.366	3372
3797.003	3303
3798.64	3322
3800.278	3351
3801.915	3269
3803.551	3321
3805.187	3289
3806.822	3310
3808.458	3236
3810.093	3285
3811.726	3282
3813.36	3330
3814.994	3208
3816.627	3220
3818.262	3307
3819.893	3249
3821.525	3160
3823.157	3315
3824.787	3269
3826.42	3290
3828.051	3233
3829.68	3259
3831.31	3202
3832.938	3141
3834.569	3234
3836.198	3229
3837.825	3227
3839.454	3215
3841.08	3266
3842.708	3187
3844.335	3247
3845.962	3199
3847.587	3274
3849.212	3179
3850.838	3238
3852.463	3225
3854.089	3183
3855.712	3222
3857.335	3171
3858.959	3196
3860.582	3123
3862.205	3246
3863.827	3211
3865.449	3179
3867.07	3146
3868.691	3259
3870.312	3174
3871.933	3087
3873.553	3221
3875.173	3138
3876.792	3151
3878.411	3182
3880.03	3166
3881.647	3099
3883.265	3113
3884.882	3088
3886.499	3036
3888.116	3191
3889.732	3138
3891.348	3082
3892.964	3160
3894.579	3103
3896.195	3113
3897.809	3131
3899.423	3088
3901.036	3151
3902.648	3054
3904.261	3162
3905.875	3096
3907.487	3133
3909.099	3158
3910.709	3117
3912.321	3119
3913.933	3127
3915.542	3149
3917.152	3036
3918.762	3102
3920.37	3098
3921.98	3124
3923.589	3113
3925.196	3120
3926.804	3087
3928.41	3128
3930.018	3083
3931.626	3028
3933.231	3026
3934.838	3051
3936.442	3110
3938.046	3028
3939.653	3093
3941.257	3050
3942.861	3086
3944.464	3023
3946.068	3020
3947.67	2960
3949.273	3031
3950.876	3005
3952.477	3038
3954.078	3087
3955.678	3008
3957.281	3084
3958.881	3046
3960.48	3016
3962.079	3033
3963.678	3071
3965.279	3011
3966.877	2950
3968.475	2977
3970.072	3028
3971.669	3019
3973.266	2923
3974.864	2983
3976.459	2977
3978.055	3000
3979.65	2929
3981.245	3039
3982.841	2976
3984.436	2978
3986.03	3023
3987.623	2978
3989.216	2951
3990.809	2960
3992.403	2938
3993.995	2973
3995.586	2940
3997.177	2964
3998.768	2969
4000.361	2931
4001.951	2908
4003.54	2928
4005.13	2926
4006.719	2920
4008.31	2904
4009.897	2921
4011.485	2979
4013.073	2844
4014.66	2906
4016.247	2867
4017.834	2871
4019.421	2923
4021.006	2833
4022.592	2882
4024.178	2880
4025.763	2890
4027.348	2910
4028.932	2861
4030.515	2864
4032.099	2860
4033.682	2829
4035.266	2829
4036.847	2877
4038.429	2798
4040.011	2868
4041.592	2870
4043.173	2866
4044.755	2851
4046.334	2790
4047.913	2741
4049.494	2857
4051.074	2806
4052.652	2879
4054.23	2789
4055.807	2871
4057.385	2797
4058.963	2789
4060.541	2852
4062.117	2858
4063.693	2825
4065.269	2788
4066.844	2808
4068.42	2805
4069.995	2767
4071.569	2797
4073.143	2809
4074.716	2832
4076.291	2750
4077.864	2780
4079.436	2811
4081.009	2838
4082.58	2816
4084.152	2778
4085.723	2824
4087.294	2776
4088.865	2770
4090.435	2831
4092.005	2740
4093.574	2748
4095.143	2813
4096.712	2750
4098.279	2687
4099.848	2730
4101.416	2722
4102.984	2740
4104.55	2709
4106.117	2745
4107.682	2766
4109.248	2753
4110.815	2770
4112.379	2745
4113.945	2706
4115.508	2660
4117.073	2703
4118.637	2698
4120.201	2731
4121.763	2654
4123.325	2685
4124.888	2661
4126.449	2750
4128.013	2663
4129.573	2664
4131.133	2656
4132.694	2715
4134.254	2674
4135.814	2727
4137.374	2639
4138.933	2616
4140.491	2690
4142.049	2691
4143.607	2614
4145.167	2654
4146.724	2656
4148.28	2648
4149.836	2617
4151.392	2613
4152.949	2651
4154.504	2628
4156.059	2682
4157.614	2553
4159.168	2568
4160.723	2593
4162.277	2563
4163.83	2653
4165.383	2631
4166.936	2679
4168.488	2634
4170.041	2580
4171.593	2541
4173.144	2536
4174.695	2582
4176.246	2568
4177.796	2588
4179.346	2633
4180.896	2607
4182.445	2586
4183.994	2617
4185.542	2557
4187.091	2573
4188.639	2574
4190.185	2542
4191.732	2592
4193.279	2581
4194.826	2568
4196.373	2555
4197.918	2562
4199.463	2574
4201.008	2569
4202.553	2559
4204.098	2572
4205.641	2548
4207.185	2554
4208.728	2582
4210.271	2582
4211.814	2532
4213.357	2537
4214.898	2536
4216.439	2462
4217.98	2467
4219.522	2533
4221.062	2549
4222.603	2604
4224.142	2519
4225.681	2501
4227.222	2527
4228.76	2548
4230.298	2545
4231.835	2504
4233.373	2422
4234.911	2532
4236.449	2500
4237.985	2486
4239.521	2428
4241.057	2454
4242.592	2511
4244.128	2493
4245.663	2450
4247.197	2519
4248.731	2536
4250.265	2492
4251.798	2456
4253.333	2483
4254.865	2473
4256.397	2480
4257.93	2410
4259.461	2497
4260.994	2493
4262.525	2453
4264.056	2476
4265.586	2489
4267.115	2403
4268.646	2430
4270.176	2437
4271.705	2444
4273.232	2395
4274.761	2476
4276.289	2457
4277.818	2455
4279.345	2420
4280.872	2429
4282.399	2442
4283.924	2418
4285.452	2451
4286.976	2385
4288.502	2404
4290.026	2424
4291.551	2443
4293.074	2384
4294.6	2363
4296.123	2434
4297.646	2364
4299.168	2443
4300.691	2361
4302.214	2359
4303.736	2341
4305.257	2383
4306.778	2510
4308.299	2429
4309.82	2346
4311.34	2430
4312.86	2325
4314.379	2376
