400.0745	3504
402.597	3511
405.1208	3509
407.6419	3543
410.1623	3494
412.6819	3555
415.201	3663
417.7172	3597
420.2369	3637
422.7538	3602
425.2701	3680
427.7856	3685
430.3005	3731
432.8147	3751
435.3282	3813
437.841	3785
440.3511	3720
442.8625	3718
445.3753	3785
447.8854	3747
450.3927	3806
452.9014	3737
455.4073	3827
457.9146	3878
460.4233	3728
462.9272	3817
465.4325	3788
467.935	3729
470.4389	3662
472.9421	3760
475.4446	3804
477.9444	3756
480.4456	3748
482.944	3768
485.4417	3789
487.9429	3851
490.4393	3892
492.935	3846
495.4321	3896
497.9264	3949
500.4221	3877
502.9171	3883
505.4094	3949
507.9011	3863
510.392	3904
512.8864	3940
515.3759	3912
517.8649	3958
520.3531	3911
522.8406	4066
525.3275	3911
527.8178	3886
530.3033	3855
532.7881	3930
535.2723	3922
537.7558	3987
540.2407	3947
542.7228	3918
545.2043	3956
547.6851	3991
550.1652	3948
552.6467	3934
555.1255	3926
557.6016	4036
560.079	4007
562.5557	3985
565.0318	3952
567.5092	4034
569.984	3988
572.456	4000
574.9294	4047
577.4022	4062
579.8762	4024
582.3456	4076
584.8163	4018
587.2863	4071
589.7557	4029
592.2224	4152
594.6924	4129
597.1578	4126
599.6245	4040
602.0905	4118
604.5538	4055
607.0206	4145
609.4825	4067
611.9459	4039
614.4066	4053
616.8686	4042
619.33	3964
621.7906	4122
624.2487	4102
626.708	4134
629.1647	4098
631.6207	4028
634.0801	4120
636.5348	4128
638.9888	4117
641.4442	4055
643.8969	4073
646.3509	4105
648.8022	4148
651.255	4254
653.705	4200
656.1544	4131
658.6031	4140
661.0532	4151
663.5026	4151
665.9493	4199
668.3954	4152
670.8409	4155
673.2877	4261
675.7318	4210
678.1752	4224
680.618	4215
683.0601	4301
685.5035	4134
687.9444	4215
690.3845	4313
692.824	4265
695.2628	4270
697.701	4268
700.1406	4283
702.5774	4228
705.0116	4285
707.4472	4297
709.8821	4297
712.3183	4253
714.7519	4369
717.1829	4267
719.6151	4361
722.0468	4345
724.4777	4376
726.908	4383
729.3377	4319
731.7667	4389
734.1931	4304
736.6208	4453
739.0498	4371
741.4742	4354
743.9	4355
746.3231	4406
748.7476	4427
751.1713	4382
753.5945	4464
756.015	4588
758.4368	4443
760.856	4426
763.2766	4489
765.6965	4508
768.1157	4467
770.5323	4477
772.9483	4559
775.3656	4459
777.7822	4512
780.1963	4471
782.6116	4528
785.0244	4543
787.4365	4548
789.8499	4572
792.2626	4538
794.6728	4492
797.0823	4574
799.4911	4462
801.8994	4534
804.3109	4537
806.7178	4524
809.124	4455
811.5297	4551
813.9347	4575
816.341	4628
818.7447	4584
821.1478	4513
823.5502	4620
825.952	4624
828.3531	4579
830.7556	4655
833.1554	4564
835.5546	4628
837.9532	4715
840.3511	4650
842.7504	4660
845.1451	4685
847.5411	4650
849.9365	4686
852.3312	4676
854.7272	4627
857.1187	4707
859.5115	4760
861.9037	4685
864.2952	4636
866.6842	4572
869.0764	4656
871.4661	4621
873.8531	4563
876.2415	4684
878.6272	4630
881.0162	4599
883.4026	4598
885.7866	4647
888.1717	4759
890.5543	4649
892.9382	4616
895.3215	4625
897.7041	4722
900.0842	4677
902.4655	4613
904.8443	4651
907.2244	4606
909.6039	4635
911.9808	4765
914.357	4682
916.7346	4807
919.1115	4919
921.4859	4799
923.8616	4917
926.2347	4928
928.6071	4877
930.979	5019
933.3541	4831
935.7247	4935
938.0946	4893
940.4639	4903
942.8326	4966
945.2026	4857
947.5701	4994
949.9369	4980
952.305	4995
954.6705	5154
957.0355	5271
959.4017	5422
961.7654	5461
964.1284	5517
966.4908	5435
968.8527	5318
971.2138	5056
973.5743	5068
975.9343	4865
978.2936	4888
980.6522	4820
983.0122	4960
985.3696	4789
987.7245	4807
990.0807	4739
992.4362	4852
994.7911	4823
997.1474	4795
999.4991	4835
1001.852	4799
1004.205	4885
1006.555	4823
1008.908	4844
1011.258	4895
1013.606	4795
1015.956	4762
1018.302	4782
1020.652	4871
1022.998	4851
1025.345	4848
1027.691	4930
1030.035	4903
1032.378	4798
1034.724	4848
1037.066	4856
1039.409	4950
1041.75	4944
1044.092	4941
1046.433	4842
1048.771	4822
1051.112	4883
1053.449	4902
1055.786	4905
1058.124	4927
1060.462	4811
1062.797	4979
1065.131	4985
1067.467	4945
1069.8	4961
1072.135	5023
1074.467	4955
1076.798	4891
1079.129	4940
1081.459	4961
1083.792	4943
1086.121	4927
1088.449	4962
1090.777	4876
1093.104	4872
1095.431	4983
1097.759	4941
1100.084	4911
1102.408	4834
1104.732	4925
1107.056	4959
1109.379	4958
1111.701	4923
1114.022	4926
1116.343	4967
1118.664	4999
1120.983	4966
1123.303	4986
1125.621	5013
1127.939	4926
1130.256	5048
1132.573	5008
1134.889	4979
1137.205	4967
1139.52	4975
1141.832	5000
1144.146	4871
1146.461	4988
1148.771	4887
1151.083	4874
1153.392	4935
1155.703	5042
1158.011	5018
1160.323	5029
1162.629	5031
1164.938	4822
1167.243	4903
1169.55	4967
1171.857	4996
1174.163	4978
1176.466	4960
1178.769	5088
1181.073	4982
1183.374	4992
1185.677	4973
1187.979	4918
1190.279	4969
1192.578	4931
1194.878	5088
1197.178	5016
1199.476	4911
1201.772	5064
1204.068	4969
1206.366	5034
1208.663	4886
1210.957	4989
1213.251	5034
1215.544	5000
1217.836	5017
1220.128	4930
1222.421	4921
1224.712	4948
1227.002	5113
1229.292	5055
1231.581	5077
1233.871	5084
1236.159	5086
1238.446	5120
1240.732	5142
1243.018	5070
1245.304	5230
1247.59	5116
1249.874	5187
1252.156	5210
1254.439	5154
1256.721	5160
1259.005	5124
1261.286	5134
1263.565	5176
1265.845	5229
1268.125	5136
1270.403	5222
1272.682	5104
1274.959	5157
1277.234	5069
1279.511	5149
1281.787	5105
1284.062	5235
1286.337	5132
1288.609	5082
1290.882	5130
1293.153	5061
1295.428	5072
1297.698	5145
1299.969	5055
1302.237	5073
1304.507	5118
1306.777	5082
1309.044	5046
1311.312	5142
1313.578	5050
1315.844	5116
1318.109	5124
1320.375	5082
1322.638	5058
1324.903	5158
1327.165	5033
1329.427	5188
1331.69	5221
1333.952	5074
1336.212	5025
1338.471	5141
1340.73	5220
1342.988	5149
1345.248	5036
1347.505	5133
1349.763	5093
1352.019	5056
1354.274	5058
1356.53	5069
1358.784	5111
1361.038	5124
1363.291	5141
1365.543	5047
1367.797	5100
1370.048	5172
1372.296	5125
1374.546	5167
1376.796	5107
1379.045	5126
1381.295	5059
1383.542	5122
1385.787	5165
1388.034	5144
1390.28	5153
1392.527	5193
1394.772	5184
1397.014	5192
1399.258	5166
1401.501	5218
1403.741	5330
1405.985	5208
1408.226	5240
1410.465	5133
1412.705	5297
1414.943	5228
1417.184	5259
1419.42	5306
1421.658	5179
1423.894	5301
1426.13	5236
1428.366	5321
1430.602	5206
1432.835	5259
1435.069	5238
1437.301	5291
1439.535	5306
1441.767	5386
1443.997	5331
1446.229	5335
1448.458	5338
1450.687	5330
1452.916	5424
1455.146	5346
1457.372	5335
1459.599	5361
1461.824	5273
1464.051	5328
1466.277	5376
1468.501	5343
1470.725	5218
1472.948	5165
1475.17	5188
1477.393	5139
1479.614	5185
1481.837	5218
1484.057	5234
1486.276	5204
1488.497	5117
1490.715	5103
1492.932	5027
1495.148	5149
1497.364	5019
1499.58	5121
1501.798	5131
1504.012	5168
1506.227	5049
1508.44	5130
1510.653	5058
1512.866	5147
1515.078	4921
1517.289	5121
1519.5	5100
1521.711	5068
1523.92	5054
1526.13	5157
1528.338	5081
1530.544	5046
1532.752	5092
1534.959	5137
1537.165	5076
1539.371	5171
1541.574	5146
1543.779	5065
1545.983	5102
1548.187	5127
1550.39	5141
1552.59	5138
1554.792	5131
1556.991	5129
1559.19	5161
1561.392	5182
1563.59	5166
1565.789	5180
1567.986	5098
1570.182	5263
1572.381	5252
1574.576	5164
1576.771	5219
1578.966	5230
1581.16	5238
1583.354	5265
1585.546	5289
1587.74	5202
1589.931	5256
1592.121	5257
1594.311	5249
1596.502	5287
1598.693	5279
1600.881	5195
1603.069	5302
1605.256	5204
1607.445	5260
1609.631	5279
1611.816	5206
1614.001	5277
1616.186	5311
1618.37	5189
1620.555	5144
1622.737	5289
1624.919	5276
1627.101	5247
1629.282	5322
1631.463	5284
1633.643	5378
1635.822	5326
1638.001	5288
1640.179	5248
1642.359	5302
1644.534	5251
1646.711	5242
1648.887	5325
1651.062	5237
1653.235	5200
1655.412	5299
1657.586	5273
1659.757	5320
1661.93	5344
1664.1	5315
1666.274	5403
1668.445	5389
1670.614	5425
1672.784	5394
1674.951	5338
1677.12	5425
1679.289	5316
1681.457	5269
1683.622	5283
1685.789	5316
1687.953	5290
1690.121	5251
1692.284	5257
1694.447	5358
1696.611	5271
1698.772	5265
1700.935	5317
1703.098	5197
1705.258	5276
1707.417	5258
1709.576	5244
1711.736	5217
1713.896	5148
1716.053	5189
1718.21	5117
1720.366	5240
1722.522	5182
1724.68	5149
1726.835	5255
1728.989	5178
1731.142	5202
1733.295	5201
1735.449	5206
1737.601	5055
1739.753	5162
1741.903	5253
1744.054	5258
1746.203	5193
1748.354	5259
1750.503	5313
1752.651	5273
1754.798	5231
1756.944	5165
1759.092	5275
1761.238	5300
1763.383	5217
1765.528	5301
1767.672	5249
1769.814	5281
1771.959	5160
1774.102	5194
1776.242	5184
1778.384	5331
1780.525	5368
1782.665	5220
1784.805	5235
1786.945	5278
1789.082	5273
1791.22	5182
1793.36	5224
1795.495	5346
1797.632	5256
1799.766	5291
1801.902	5231
1804.035	5197
1806.172	5224
1808.304	5214
1810.436	5263
1812.569	5169
1814.699	5304
1816.833	5254
1818.963	5243
1821.092	5185
1823.222	5214
1825.35	5332
1827.478	5207
1829.608	5189
1831.734	5161
1833.86	5169
1835.986	5357
1838.11	5306
1840.238	5248
1842.362	5289
1844.485	5216
1846.608	5309
1848.73	5127
1850.853	5127
1852.974	5229
1855.097	5218
1857.217	5203
1859.336	5145
1861.455	5127
1863.576	5191
1865.693	5179
1867.811	5228
1869.926	5281
1872.042	5235
1874.16	5235
1876.275	5080
1878.39	5206
1880.504	5169
1882.618	5169
1884.731	5176
1886.843	5224
1888.956	5125
1891.067	5179
1893.178	5213
1895.287	5105
1897.399	5214
1899.508	5266
1901.617	5185
1903.724	5204
1905.832	5237
1907.941	5216
1910.046	5206
1912.152	5265
1914.256	5271
1916.361	5309
1918.464	5160
1920.57	5358
1922.672	5176
1924.775	5286
1926.876	5212
1928.978	5259
1931.08	5244
1933.181	5247
1935.28	5388
1937.38	5166
1939.478	5313
1941.577	5238
1943.675	5289
1945.771	5172
1947.867	5329
1949.964	5299
1952.058	5355
1954.154	5220
1956.248	5218
1958.343	5208
1960.435	5341
1962.527	5259
1964.62	5256
1966.711	5213
1968.802	5281
1970.892	5269
1972.983	5234
1975.072	5221
1977.162	5219
1979.25	5241
1981.337	5223
1983.424	5262
1985.51	5098
1987.598	5211
1989.683	5168
1991.768	5244
1993.852	5189
1995.934	5224
1998.019	5158
2000.102	5222
2002.184	5285
2004.266	5236
2006.347	5250
2008.427	5191
2010.508	5174
2012.587	5215
2014.666	5254
2016.745	5116
2018.821	5151
2020.9	5148
2022.977	5208
2025.052	5173
2027.128	5138
2029.204	5145
2031.277	5148
2033.353	5189
2035.425	5193
2037.499	5173
2039.57	5144
2041.642	5253
2043.714	5253
2045.786	5257
2047.855	5273
2049.925	5194
2051.993	5193
2054.064	5239
2056.132	5213
2058.2	5167
2060.266	5180
2062.332	5252
2064.398	5212
2066.465	5219
2068.529	5257
2070.592	5280
2072.657	5237
2074.719	5134
2076.783	5197
2078.845	5241
2080.907	5234
2082.968	5239
2085.028	5215
2087.087	5153
2089.148	5220
2091.207	5062
2093.264	5206
2095.322	5159
2097.379	5177
2099.439	5192
2101.495	5171
2103.55	5295
2105.605	5180
2107.658	5190
2109.713	5129
2111.767	5107
2113.82	5278
2115.872	5191
2117.924	5212
2119.975	5219
2122.028	5168
2124.078	5222
2126.126	5183
2128.176	5194
2130.225	5180
2132.275	5156
2134.321	5092
2136.368	5190
2138.415	5205
2140.461	5188
2142.505	5136
2144.552	5120
2146.597	5190
2148.64	5175
2150.684	5130
2152.725	5182
2154.77	5128
2156.811	5147
2158.852	5146
2160.894	5135
2162.933	5154
2164.973	5123
2167.013	5145
2169.051	5181
2171.089	5128
2173.126	5083
2175.164	5174
2177.201	5019
2179.236	5067
2181.273	5086
2183.307	5106
2185.341	5151
2187.377	5069
2189.41	5074
2191.442	5145
2193.473	5106
2195.506	5163
2197.539	5062
2199.569	5130
2201.598	5093
2203.628	5075
2205.656	5103
2207.686	4979
2209.716	5076
2211.743	5020
2213.769	5090
2215.796	4977
2217.821	5064
2219.848	4989
2221.873	5096
2223.897	5037
2225.921	5087
2227.944	4973
2229.967	5028
2231.991	5047
2234.011	5034
2236.032	5050
2238.053	5035
2240.073	5100
2242.094	4995
2244.114	5038
2246.131	5006
2248.149	5069
2250.167	4964
2252.186	5045
2254.201	5023
2256.218	5009
2258.233	5098
2260.247	4984
2262.262	5017
2264.278	5039
2266.29	5028
2268.303	5070
2270.315	5054
2272.327	4997
2274.341	5038
2276.35	5024
2278.361	5091
2280.37	5069
2282.38	5040
2284.388	5033
2286.397	5096
2288.405	5050
2290.412	5019
2292.419	5129
2294.425	5018
2296.431	5023
2298.437	5024
2300.441	4995
2302.445	4973
2304.449	4961
2306.453	5039
2308.455	4912
2310.457	4964
2312.459	5124
2314.46	5051
2316.46	4993
2318.461	5028
2320.46	5118
2322.458	4959
2324.458	5048
2326.456	4968
2328.455	4953
2330.451	4939
2332.447	4945
2334.443	4868
2336.438	5007
2338.433	4906
2340.429	4965
2342.422	5009
2344.416	4980
2346.408	4945
2348.399	4914
2350.393	4999
2352.384	4897
2354.375	4925
2356.365	4911
2358.355	4900
2360.344	4850
2362.333	4979
2364.322	4962
2366.309	4902
2368.295	4861
2370.282	4889
2372.27	4916
2374.256	4805
2376.24	4976
2378.225	4966
2380.208	4953
2382.194	5012
2384.177	4846
2386.159	4866
2388.142	4946
2390.122	4830
2392.105	4889
2394.085	4806
2396.066	4870
2398.044	4827
2400.024	4828
2402.002	4754
2403.982	4802
2405.959	4836
2407.935	4855
2409.913	4781
2411.888	4781
2413.865	4879
2415.84	4866
2417.814	4855
2419.788	4939
2421.762	4795
2423.735	4862
2425.708	4836
2427.68	4813
2429.651	4780
2431.623	4877
2433.593	4851
2435.564	4800
2437.533	4774
2439.502	4869
2441.47	4826
2443.438	4807
2445.406	4802
2447.373	4726
2449.34	4834
2451.305	4796
2453.271	4805
2455.235	4879
2457.201	4851
2459.165	4786
2461.129	4751
2463.092	4818
2465.054	4759
2467.018	4730
2468.978	4833
2470.939	4861
2472.899	4836
2474.86	4804
2476.819	4790
2478.778	4790
2480.737	4762
2482.695	4784
2484.653	4829
2486.609	4784
2488.567	4700
2490.524	4740
2492.478	4697
2494.433	4718
2496.387	4806
2498.343	4738
2500.297	4712
2502.249	4794
2504.202	4754
2506.153	4731
2508.105	4675
2510.057	4695
2512.008	4835
2513.957	4818
2515.906	4805
2517.855	4775
2519.805	4709
2521.754	4735
2523.7	4671
2525.647	4708
2527.594	4722
2529.54	4710
2531.486	4738
2533.431	4778
2535.376	4786
2537.32	4732
2539.263	4783
2541.207	4706
2543.151	4781
2545.093	4624
2547.034	4706
2548.975	4639
2550.917	4617
2552.856	4651
2554.796	4755
2556.735	4697
2558.673	4651
2560.611	4616
2562.55	4588
2564.487	4753
2566.424	4748
2568.36	4749
2570.296	4744
2572.232	4705
2574.167	4727
2576.101	4749
2578.035	4744
2579.969	4621
2581.902	4714
2583.834	4679
2585.766	4678
2587.698	4623
2589.628	4753
2591.557	4741
2593.489	4651
2595.419	4697
2597.348	4638
2599.275	4673
2601.204	4796
2603.131	4598
2605.059	4704
2606.986	4823
2608.911	4732
2610.837	4643
2612.76	4683
2614.687	4694
2616.61	4709
2618.534	4719
2620.457	4764
2622.38	4617
2624.302	4789
2626.225	4714
2628.145	4688
2630.067	4656
2631.986	4654
2633.906	4691
2635.827	4797
2637.745	4658
2639.662	4806
2641.581	4715
2643.498	4697
2645.415	4789
2647.331	4707
2649.248	4730
2651.163	4738
2653.077	4690
2654.993	4660
2656.906	4698
2658.821	4655
2660.733	4629
2662.646	4700
2664.557	4614
2666.47	4748
2668.381	4697
2670.291	4687
2672.201	4623
2674.11	4724
2676.021	4576
2677.929	4658
2679.837	4653
2681.745	4675
2683.652	4628
2685.56	4703
2687.466	4624
2689.371	4759
2691.276	4629
2693.181	4643
2695.085	4624
2696.991	4569
2698.893	4656
2700.796	4615
2702.698	4547
2704.601	4571
2706.502	4696
2708.404	4616
2710.304	4669
2712.203	4626
2714.103	4557
2716.003	4552
2717.902	4634
2719.8	4651
2721.697	4644
2723.594	4510
2725.49	4583
2727.389	4677
2729.283	4646
2731.179	4560
2733.073	4550
2734.968	4581
2736.863	4573
2738.757	4617
2740.649	4549
2742.541	4610
2744.433	4592
2746.324	4542
2748.216	4569
2750.107	4570
2751.997	4573
2753.886	4589
2755.776	4521
2757.666	4601
2759.553	4629
2761.44	4487
2763.327	4584
2765.215	4600
2767.102	4532
2768.988	4475
2770.873	4535
2772.757	4630
2774.641	4528
2776.525	4635
2778.41	4492
2780.292	4472
2782.175	4580
2784.057	4586
2785.938	4488
2787.821	4551
2789.701	4514
2791.581	4486
2793.461	4550
2795.34	4434
2797.219	4534
2799.099	4469
2800.975	4525
2802.853	4506
2804.73	4462
2806.606	4556
2808.484	4509
2810.358	4568
2812.233	4618
2814.108	4534
2815.981	4554
2817.857	4432
2819.73	4543
2821.602	4579
2823.474	4439
2825.346	4506
2827.217	4525
2829.089	4558
2830.959	4442
2832.829	4588
2834.698	4520
2836.567	4530
2838.436	4484
2840.305	4393
2842.172	4580
2844.04	4513
2845.905	4593
2847.772	4524
2849.639	4580
2851.503	4583
2853.369	4604
2855.232	4555
2857.096	4634
2858.961	4608
2860.824	4607
2862.686	4666
2864.547	4664
2866.41	4628
2868.272	4653
2870.132	4748
2871.992	4752
2873.851	4733
2875.711	4763
2877.57	4814
2879.429	4850
2881.287	4725
2883.144	4780
2885.001	4799
2886.857	4836
2888.714	4816
2890.57	4880
2892.425	4978
2894.279	4885
2896.133	4878
2897.987	4892
2899.842	4815
2901.694	4857
2903.547	4933
2905.397	4805
2907.249	4822
2909.101	4854
2910.952	4814
2912.802	4984
2914.652	4993
2916.5	4852
2918.35	4984
2920.198	5057
2922.045	4896
2923.893	5013
2925.74	5052
2927.585	5187
2929.433	5137
2931.279	5043
2933.123	5136
2934.968	5105
2936.811	5296
2938.656	5290
2940.5	5232
2942.342	5348
2944.185	5237
2946.026	5314
2947.87	5378
2949.71	5374
2951.549	5290
2953.39	5322
2955.229	5276
2957.069	5240
2958.908	5172
2960.746	5138
2962.584	5187
2964.421	5287
2966.257	5098
2968.094	5206
2969.931	5031
2971.766	4909
2973.601	4956
2975.435	4944
2977.27	4895
2979.105	4880
2980.938	4859
2982.77	4765
2984.602	4902
2986.434	4804
2988.267	4822
2990.097	4724
2991.927	4668
2993.757	4716
2995.587	4594
2997.417	4651
2999.246	4622
3001.074	4541
3002.902	4506
3004.729	4557
3006.556	4463
3008.384	4477
3010.21	4500
3012.036	4376
3013.861	4424
3015.684	4405
3017.51	4314
3019.334	4375
3021.157	4320
3022.981	4337
3024.802	4212
3026.624	4232
3028.448	4300
3030.267	4277
3032.088	4264
3033.909	4347
3035.728	4236
3037.549	4196
3039.368	4277
3041.186	4241
3043.004	4227
3044.821	4202
3046.64	4206
3048.455	4197
3050.272	4220
3052.087	4119
3053.903	4115
3055.717	4199
3057.534	4223
3059.347	4217
3061.16	4185
3062.974	4140
3064.785	4258
3066.598	4178
3068.411	4285
3070.222	4133
3072.032	4121
3073.844	4131
3075.653	4128
3077.463	4235
3079.272	4157
3081.08	4094
3082.889	4177
3084.697	4068
3086.505	4122
3088.312	4083
3090.118	4103
3091.924	4133
3093.729	4070
3095.535	4181
3097.34	4023
3099.144	4234
3100.947	4097
3102.75	4081
3104.553	4163
3106.357	4027
3108.159	4111
3109.961	4067
3111.762	4010
3113.562	4069
3115.365	4064
3117.164	4022
3118.964	3996
3120.761	4114
3122.56	4015
3124.36	3960
3126.158	3997
3127.954	3965
3129.75	4015
3131.547	4027
3133.343	3993
3135.139	3957
3136.934	4042
3138.729	3950
3140.522	4002
3142.317	3941
3144.11	3984
3145.904	3938
3147.695	3964
3149.488	3933
3151.28	4027
3153.07	3914
3154.863	3993
3156.652	4065
3158.441	3905
3160.231	3894
3162.019	3943
3163.81	4023
3165.597	3926
3167.384	3802
3169.172	3963
3170.958	3871
3172.745	3974
3174.532	3967
3176.317	3925
3178.101	3891
3179.885	3949
3181.67	3893
3183.455	3916
3185.238	3916
3187.02	3929
3188.802	3941
3190.585	3874
3192.368	3931
3194.149	3913
3195.929	3858
3197.709	3940
3199.489	3935
3201.268	3875
3203.048	3873
3204.826	3787
3206.604	3832
3208.382	3856
3210.159	3850
3211.937	3901
3213.713	3855
3215.489	3874
3217.263	3755
3219.038	3903
3220.815	3864
3222.589	3902
3224.363	3811
3226.136	3869
3227.908	3807
3229.681	3868
3231.454	3845
3233.226	3873
3234.996	3879
3236.767	3900
3238.538	3897
3240.308	3854
3242.078	3910
3243.847	3819
3245.615	3944
3247.384	3806
3249.15	3817
3250.92	3815
3252.686	3836
3254.453	3852
3256.218	3796
3257.984	3771
3259.75	3852
3261.515	3771
3263.279	3845
3265.044	3819
3266.806	3841
3268.57	3917
3270.334	3868
3272.095	3880
3273.856	3882
3275.619	3793
3277.379	3830
3279.14	3841
3280.9	3860
3282.661	3804
3284.419	3819
3286.178	3782
3287.937	3752
3289.695	3806
3291.453	3809
3293.21	3739
3294.967	3822
3296.723	3886
3298.48	3843
3300.235	3957
3301.99	3809
3303.744	3728
3305.498	3790
3307.253	3796
3309.006	3834
3310.759	3740
3312.511	3877
3314.263	3786
3316.017	3805
3317.768	3810
3319.519	3808
3321.268	3803
3323.018	3818
3324.767	3767
3326.518	3780
3328.267	3706
3330.014	3819
3331.762	3779
3333.509	3764
3335.258	3791
3337.003	3775
3338.75	3804
3340.496	3811
3342.24	3762
3343.987	3823
3345.732	3902
3347.475	3701
3349.219	3797
3350.961	3694
3352.705	3793
3354.448	3788
3356.19	3701
3357.931	3753
3359.672	3741
3361.412	3814
3363.155	3660
3364.894	3789
3366.633	3734
3368.372	3716
3370.11	3718
3371.849	3750
3373.588	3631
3375.325	3631
3377.061	3687
3378.799	3654
3380.534	3732
3382.271	3721
3384.006	3713
3385.741	3652
3387.475	3720
3389.209	3709
3390.944	3643
3392.677	3682
3394.409	3628
3396.143	3696
3397.874	3590
3399.606	3685
3401.338	3644
3403.069	3586
3404.799	3703
3406.528	3667
3408.258	3624
3409.988	3624
3411.717	3695
3413.445	3584
3415.173	3579
3416.899	3675
3418.626	3750
3420.354	3588
3422.08	3626
3423.806	3566
3425.531	3682
3427.255	3577
3428.981	3663
3430.705	3539
3432.429	3709
3434.151	3651
3435.875	3581
3437.599	3626
3439.321	3618
3441.042	3569
3442.763	3513
3444.483	3532
3446.204	3522
3447.926	3545
3449.645	3521
3451.364	3610
3453.082	3609
3454.801	3572
3456.52	3623
3458.238	3531
3459.954	3548
3461.671	3452
3463.387	3508
3465.104	3527
3466.82	3497
3468.534	3548
3470.25	3449
3471.963	3521
3473.676	3425
3475.392	3504
3477.104	3561
3478.817	3524
3480.528	3480
3482.241	3420
3483.954	3395
3485.664	3429
3487.374	3470
3489.084	3426
3490.795	3411
3492.504	3450
3494.214	3417
3495.922	3463
3497.63	3378
3499.338	3475
3501.045	3463
3502.753	3403
3504.459	3459
3506.166	3404
3507.871	3429
3509.576	3407
3511.283	3395
3512.987	3308
3514.691	3383
3516.395	3451
3518.098	3446
3519.8	3442
3521.504	3354
3523.206	3401
3524.908	3393
3526.609	3387
3528.309	3441
3530.011	3409
3531.711	3342
3533.411	3350
3535.109	3368
3536.808	3405
3538.507	3362
3540.206	3342
3541.904	3379
3543.601	3384
3545.297	3384
3546.994	3309
3548.69	3304
3550.387	3300
3552.081	3283
3553.776	3281
3555.47	3365
3557.166	3307
3558.859	3372
3560.553	3375
3562.245	3313
3563.938	3392
3565.629	3202
3567.322	3330
3569.014	3348
3570.704	3256
3572.394	3283
3574.084	3289
3575.775	3237
3577.464	3271
3579.152	3337
3580.842	3257
3582.529	3292
3584.216	3294
3585.905	3260
3587.591	3281
3589.279	3191
3590.964	3275
3592.649	3166
3594.336	3307
3596.021	3247
3597.705	3201
3599.388	3277
3601.072	3153
3602.757	3274
3604.439	3176
3606.122	3229
3607.803	3239
3609.485	3133
3611.167	3208
3612.849	3157
3614.529	3234
3616.208	3208
3617.888	3247
3619.567	3228
3621.247	3110
3622.926	3233
3624.603	3108
3626.281	3240
3627.958	3094
3629.635	3188
3631.312	3166
3632.989	3130
3634.665	3180
3636.339	3169
3638.014	3130
3639.691	3090
3641.364	3088
3643.038	3142
3644.71	3098
3646.384	3136
3648.058	3126
3649.729	3124
3651.402	3193
3653.073	3076
3654.744	3135
3656.414	3024
3658.085	3157
3659.755	3030
3661.424	3156
3663.094	3141
3664.762	3070
3666.431	3186
3668.099	3032
3669.766	2959
3671.433	3157
3673.099	3047
3674.768	3018
3676.433	3026
3678.098	3064
3679.763	3019
3681.428	2995
3683.093	3132
3684.757	3066
3686.421	3050
3688.083	3037
3689.746	3016
3691.408	3086
3693.071	3060
3694.733	3068
3696.394	3055
3698.054	3067
3699.715	2979
3701.375	3013
3703.036	2950
3704.695	2983
3706.354	2991
3708.012	3024
3709.67	2977
3711.329	3029
3712.987	3006
3714.644	3096
3716.299	3037
3717.955	2994
3719.613	3059
3721.268	3006
3722.923	3058
3724.577	3060
3726.231	2983
3727.885	2974
3729.539	2943
3731.192	2970
3732.845	2951
3734.497	3005
3736.149	2955
3737.802	3010
3739.453	2900
3741.104	2981
3742.753	2923
3744.404	2935
3746.052	3017
3747.704	2915
3749.352	3010
3751	3033
3752.648	2989
3754.296	2875
3755.944	2974
3757.59	2890
3759.238	2881
3760.883	2961
3762.528	2887
3764.176	2905
3765.82	2955
3767.464	2891
3769.109	2894
3770.753	2871
3772.396	2874
3774.04	2923
3775.683	2920
3777.325	2892
3778.967	2879
3780.608	2897
3782.25	2913
3783.89	2879
3785.531	2853
3787.17	2937
3788.81	2917
3790.45	2865
3792.09	2891
3793.729	2864
3795.366	2838
3797.003	2839
3798.64	2836
3800.278	2864
3801.915	2879
3803.551	2871
3805.187	2870
3806.822	2878
3808.458	2817
3810.093	2873
3811.726	2780
3813.36	2830
3814.994	2873
3816.627	2778
3818.262	2814
3819.893	2841
3821.525	2804
3823.157	2874
3824.787	2792
3826.42	2814
3828.051	2858
3829.68	2868
3831.31	2868
3832.938	2815
3834.569	2789
3836.198	2815
3837.825	2826
3839.454	2819
3841.08	2783
3842.708	2761
3844.335	2760
3845.962	2773
3847.587	2815
3849.212	2797
3850.838	2804
3852.463	2771
3854.089	2696
3855.712	2676
3857.335	2719
3858.959	2777
3860.582	2770
3862.205	2779
3863.827	2723
3865.449	2703
3867.07	2753
3868.691	2711
3870.312	2666
3871.933	2824
3873.553	2753
3875.173	2793
3876.792	2817
3878.411	2760
3880.03	2760
3881.647	2685
3883.265	2776
3884.882	2776
3886.499	2689
3888.116	2700
3889.732	2700
3891.348	2737
3892.964	2754
3894.579	2781
3896.195	2758
3897.809	2758
3899.423	2700
3901.036	2754
3902.648	2672
3904.261	2691
3905.875	2709
3907.487	2701
3909.099	2713
3910.709	2680
3912.321	2689
3913.933	2724
3915.542	2682
3917.152	2697
3918.762	2672
3920.37	2663
3921.98	2688
3923.589	2636
3925.196	2732
3926.804	2662
3928.41	2703
3930.018	2661
3931.626	2738
3933.231	2683
3934.838	2686
3936.442	2660
3938.046	2678
3939.653	2683
3941.257	2603
3942.861	2731
3944.464	2672
3946.068	2727
3947.67	2694
3949.273	2678
3950.876	2668
3952.477	2701
3954.078	2657
3955.678	2574
3957.281	2672
3958.881	2714
3960.48	2635
3962.079	2608
3963.678	2696
3965.279	2611
3966.877	2635
3968.475	2650
3970.072	2636
3971.669	2604
3973.266	2670
3974.864	2623
3976.459	2586
3978.055	2612
3979.65	2597
3981.245	2692
3982.841	2643
3984.436	2643
3986.03	2560
3987.623	2589
3989.216	2572
3990.809	2575
3992.403	2574
3993.995	2557
3995.586	2504
3997.177	2514
3998.768	2528
4000.361	2537
4001.951	2531
4003.54	2556
4005.13	2573
4006.719	2506
4008.31	2552
4009.897	2504
4011.485	2566
4013.073	2529
4014.66	2471
4016.247	2547
4017.834	2520
4019.421	2485
4021.006	2534
4022.592	2512
4024.178	2493
4025.763	2468
4027.348	2468
4028.932	2524
4030.515	2484
4032.099	2544
4033.682	2491
4035.266	2503
4036.847	2512
4038.429	2476
4040.011	2486
4041.592	2527
4043.173	2528
4044.755	2495
4046.334	2444
4047.913	2448
4049.494	2470
4051.074	2468
4052.652	2466
4054.23	2498
4055.807	2433
4057.385	2486
4058.963	2473
4060.541	2459
4062.117	2446
4063.693	2414
4065.269	2488
4066.844	2430
4068.42	2465
4069.995	2474
4071.569	2415
4073.143	2390
4074.716	2464
4076.291	2415
4077.864	2436
4079.436	2443
4081.009	2428
4082.58	2468
4084.152	2427
4085.723	2389
4087.294	2383
4088.865	2487
4090.435	2419
4092.005	2396
4093.574	2378
4095.143	2425
4096.712	2414
4098.279	2465
4099.848	2395
4101.416	2424
4102.984	2400
4104.55	2364
4106.117	2424
4107.682	2438
4109.248	2367
4110.815	2355
4112.379	2414
4113.945	2363
4115.508	2361
4117.073	2407
4118.637	2412
4120.201	2380
4121.763	2280
4123.325	2395
4124.888	2344
4126.449	2395
4128.013	2349
4129.573	2358
4131.133	2371
4132.694	2423
4134.254	2319
4135.814	2353
4137.374	2296
4138.933	2391
4140.491	2358
4142.049	2332
4143.607	2395
4145.167	2329
4146.724	2322
4148.28	2351
4149.836	2295
4151.392	2354
4152.949	2358
4154.504	2258
4156.059	2360
4157.614	2319
4159.168	2283
4160.723	2272
4162.277	2245
4163.83	2284
4165.383	2275
4166.936	2296
4168.488	2304
4170.041	2309
4171.593	2274
4173.144	2261
4174.695	2260
4176.246	2271
4177.796	2253
4179.346	2293
4180.896	2241
4182.445	2276
4183.994	2238
4185.542	2258
4187.091	2212
4188.639	2313
4190.185	2248
4191.732	2265
4193.279	2274
4194.826	2300
4196.373	2213
4197.918	2251
4199.463	2289
4201.008	2277
4202.553	2231
4204.098	2222
4205.641	2279
4207.185	2238
4208.728	2217
4210.271	2302
4211.814	2233
4213.357	2233
4214.898	2209
4216.439	2207
4217.98	2212
4219.522	2235
4221.062	2272
4222.603	2243
4224.142	2230
4225.681	2180
4227.222	2217
4228.76	2187
4230.298	2214
4231.835	2221
4233.373	2162
4234.911	2198
4236.449	2201
4237.985	2254
4239.521	2174
4241.057	2222
4242.592	2180
4244.128	2202
4245.663	2159
4247.197	2198
4248.731	2248
4250.265	2161
4251.798	2168
4253.333	2145
4254.865	2143
4256.397	2148
4257.93	2148
4259.461	2226
4260.994	2210
4262.525	2172
4264.056	2133
4265.586	2140
4267.115	2123
4268.646	2145
4270.176	2107
4271.705	2154
4273.232	2151
4274.761	2139
4276.289	2173
4277.818	2209
4279.345	2156
4280.872	2169
4282.399	2157
4283.924	2114
4285.452	2141
4286.976	2096
4288.502	2171
4290.026	2083
4291.551	2202
4293.074	2105
4294.6	2152
4296.123	2108
4297.646	2075
4299.168	2126
4300.691	2139
4302.214	2089
4303.736	2190
4305.257	2123
4306.778	2124
4308.299	2112
4309.82	2112
4311.34	2128
4312.86	2067
4314.379	2071
