400.0745	4298
402.597	4358
405.1208	4230
407.6419	4305
410.1623	4352
412.6819	4258
415.201	4446
417.7172	4376
420.2369	4395
422.7538	4383
425.2701	4427
427.7856	4524
430.3005	4544
432.8147	4553
435.3282	4532
437.841	4575
440.3511	4546
442.8625	4567
445.3753	4611
447.8854	4549
450.3927	4600
452.9014	4522
455.4073	4560
457.9146	4610
460.4233	4431
462.9272	4675
465.4325	4539
467.935	4620
470.4389	4596
472.9421	4579
475.4446	4566
477.9444	4566
480.4456	4696
482.944	4721
485.4417	4692
487.9429	4640
490.4393	4777
492.935	4692
495.4321	4760
497.9264	4726
500.4221	4664
502.9171	4666
505.4094	4757
507.9011	4741
510.392	4794
512.8864	4829
515.3759	4798
517.8649	4737
520.3531	4683
522.8406	4771
525.3275	4727
527.8178	4870
530.3033	4773
532.7881	4774
535.2723	4838
537.7558	4902
540.2407	4812
542.7228	4783
545.2043	4762
547.6851	4872
550.1652	4826
552.6467	4894
555.1255	4797
557.6016	4786
560.079	4865
562.5557	4856
565.0318	4857
567.5092	4958
569.984	4905
572.456	4926
574.9294	4925
577.4022	5003
579.8762	5082
582.3456	4938
584.8163	5022
587.2863	4980
589.7557	4978
592.2224	4968
594.6924	5073
597.1578	5042
599.6245	5110
602.0905	5013
604.5538	4977
607.0206	4979
609.4825	4957
611.9459	4986
614.4066	5007
616.8686	4976
619.33	5019
621.7906	4961
624.2487	5055
626.708	5009
629.1647	4922
631.6207	4918
634.0801	4994
636.5348	4942
638.9888	4930
641.4442	4894
643.8969	4936
646.3509	5012
648.8022	4975
651.255	5060
653.705	4932
656.1544	5041
658.6031	5123
661.0532	5057
663.5026	5145
665.9493	5072
668.3954	5133
670.8409	5173
673.2877	5031
675.7318	5181
678.1752	5113
680.618	5171
683.0601	5106
685.5035	5124
687.9444	5187
690.3845	5153
692.824	5094
695.2628	5190
697.701	5086
700.1406	5236
702.5774	5210
705.0116	5245
707.4472	5166
709.8821	5224
712.3183	5335
714.7519	5268
717.1829	5192
719.6151	5278
722.0468	5255
724.4777	5343
726.908	5278
729.3377	5444
731.7667	5329
734.1931	5233
736.6208	5386
739.0498	5320
741.4742	5403
743.9	5363
746.3231	5352
748.7476	5419
751.1713	5432
753.5945	5490
756.015	5448
758.4368	5520
760.856	5439
763.2766	5603
765.6965	5488
768.1157	5513
770.5323	5591
772.9483	5480
775.3656	5445
777.7822	5610
780.1963	5527
782.6116	5567
785.0244	5527
787.4365	5583
789.8499	5490
792.2626	5553
794.6728	5477
797.0823	5549
799.4911	5512
801.8994	5539
804.3109	5607
806.7178	5533
809.124	5575
811.5297	5574
813.9347	5593
816.341	5604
818.7447	5627
821.1478	5634
823.5502	5522
825.952	5612
828.3531	5612
830.7556	5488
833.1554	5653
835.5546	5656
837.9532	5681
840.3511	5542
842.7504	5552
845.1451	5787
847.5411	5653
849.9365	5749
852.3312	5824
854.7272	5736
857.1187	5642
859.5115	5729
861.9037	5694
864.2952	5761
866.6842	5576
869.0764	5747
871.4661	5700
873.8531	5585
876.2415	5730
878.6272	5723
881.0162	5720
883.4026	5730
885.7866	5682
888.1717	5657
890.5543	5701
892.9382	5606
895.3215	5709
897.7041	5790
900.0842	5789
902.4655	5653
904.8443	5709
907.2244	5792
909.6039	5774
911.9808	5786
914.357	5766
916.7346	5823
919.1115	5925
921.4859	5868
923.8616	6031
926.2347	5915
928.6071	5941
930.979	5911
933.3541	6015
935.7247	5964
938.0946	6008
940.4639	6117
942.8326	6036
945.2026	6105
947.5701	6251
949.9369	6288
952.305	6473
954.6705	6697
957.0355	6742
959.4017	6975
961.7654	7108
964.1284	6953
966.4908	6832
968.8527	6717
971.2138	6437
973.5743	6251
975.9343	6127
978.2936	6091
980.6522	5938
983.0122	5937
985.3696	5946
987.7245	5835
990.0807	5850
992.4362	5960
994.7911	6005
997.1474	5843
999.4991	5932
1001.852	5953
1004.205	5947
1006.555	5832
1008.908	5968
1011.258	5930
1013.606	5827
1015.956	5939
1018.302	5948
1020.652	6055
1022.998	5951
1025.345	5924
1027.691	5895
1030.035	6080
1032.378	6023
1034.724	6018
1037.066	6038
1039.409	6014
1041.75	5980
1044.092	6012
1046.433	6101
1048.771	6019
1051.112	5986
1053.449	6116
1055.786	6002
1058.124	6011
1060.462	5998
1062.797	6175
1065.131	6163
1067.467	6117
1069.8	6177
1072.135	6099
1074.467	6158
1076.798	6192
1079.129	6072
1081.459	6107
1083.792	6083
1086.121	6103
1088.449	6028
1090.777	6034
1093.104	5946
1095.431	6067
1097.759	5992
1100.084	5996
1102.408	5939
1104.732	5982
1107.056	6043
1109.379	5984
1111.701	6019
1114.022	6019
1116.343	6067
1118.664	6001
1120.983	6106
1123.303	6172
1125.621	6086
1127.939	6056
1130.256	6003
1132.573	6179
1134.889	6161
1137.205	6070
1139.52	6058
1141.832	6173
1144.146	6073
1146.461	6018
1148.771	6150
1151.083	6055
1153.392	6097
1155.703	6026
1158.011	6075
1160.323	6041
1162.629	6141
1164.938	6013
1167.243	6087
1169.55	6099
1171.857	6020
1174.163	6098
1176.466	6087
1178.769	6080
1181.073	6123
1183.374	6023
1185.677	6059
1187.979	5962
1190.279	6085
1192.578	6021
1194.878	5997
1197.178	6074
1199.476	6170
1201.772	6069
1204.068	6001
1206.366	6104
1208.663	6142
1210.957	6096
1213.251	6094
1215.544	6164
1217.836	6181
1220.128	6133
1222.421	6051
1224.712	6175
1227.002	6130
1229.292	6094
1231.581	6264
1233.871	6186
1236.159	6140
1238.446	6271
1240.732	6130
1243.018	6317
1245.304	6254
1247.59	6277
1249.874	6396
1252.156	6264
1254.439	6266
1256.721	6366
1259.005	6276
1261.286	6386
1263.565	6334
1265.845	6321
1268.125	6378
1270.403	6287
1272.682	6251
1274.959	6374
1277.234	6278
1279.511	6352
1281.787	6236
1284.062	6111
1286.337	6251
1288.609	6265
1290.882	6310
1293.153	6312
1295.428	6324
1297.698	6221
1299.969	6177
1302.237	6257
1304.507	6078
1306.777	6249
1309.044	6178
1311.312	6150
1313.578	6168
1315.844	6145
1318.109	6228
1320.375	6164
1322.638	6126
1324.903	6303
1327.165	6116
1329.427	6219
1331.69	6130
1333.952	6195
1336.212	6240
1338.471	6349
1340.73	6216
1342.988	6164
1345.248	6261
1347.505	6224
1349.763	6188
1352.019	6315
1354.274	6196
1356.53	6201
1358.784	6231
1361.038	6251
1363.291	6112
1365.543	6205
1367.797	6393
1370.048	6151
1372.296	6233
1374.546	6230
1376.796	6192
1379.045	6202
1381.295	6277
1383.542	6259
1385.787	6253
1388.034	6255
1390.28	6272
1392.527	6193
1394.772	6424
1397.014	6275
1399.258	6347
1401.501	6310
1403.741	6256
1405.985	6305
1408.226	6379
1410.465	6212
1412.705	6271
1414.943	6422
1417.184	6340
1419.42	6408
1421.658	6443
1423.894	6396
1426.13	6388
1428.366	6491
1430.602	6504
1432.835	6324
1435.069	6440
1437.301	6466
1439.535	6457
1441.767	6547
1443.997	6454
1446.229	6492
1448.458	6515
1450.687	6349
1452.916	6449
1455.146	6417
1457.372	6496
1459.599	6473
1461.824	6569
1464.051	6472
1466.277	6517
1468.501	6384
1470.725	6392
1472.948	6505
1475.17	6322
1477.393	6266
1479.614	6403
1481.837	6472
1484.057	6340
1486.276	6316
1488.497	6354
1490.715	6206
1492.932	6292
1495.148	6081
1497.364	6196
1499.58	6215
1501.798	6275
1504.012	6330
1506.227	6216
1508.44	6211
1510.653	6164
1512.866	6273
1515.078	6237
1517.289	6169
1519.5	6137
1521.711	6195
1523.92	6082
1526.13	6257
1528.338	6182
1530.544	6216
1532.752	6301
1534.959	6249
1537.165	6117
1539.371	6130
1541.574	6202
1543.779	6259
1545.983	6396
1548.187	6334
1550.39	6351
1552.59	6234
1554.792	6267
1556.991	6337
1559.19	6315
1561.392	6320
1563.59	6208
1565.789	6359
1567.986	6361
1570.182	6291
1572.381	6271
1574.576	6326
1576.771	6330
1578.966	6402
1581.16	6352
1583.354	6485
1585.546	6374
1587.74	6345
1589.931	6461
1592.121	6414
1594.311	6383
1596.502	6482
1598.693	6387
1600.881	6450
1603.069	6390
1605.256	6383
1607.445	6345
1609.631	6529
1611.816	6320
1614.001	6476
1616.186	6434
1618.37	6347
1620.555	6450
1622.737	6466
1624.919	6398
1627.101	6531
1629.282	6488
1631.463	6482
1633.643	6363
1635.822	6551
1638.001	6406
1640.179	6536
1642.359	6392
1644.534	6538
1646.711	6511
1648.887	6323
1651.062	6460
1653.235	6546
1655.412	6477
1657.586	6402
1659.757	6508
1661.93	6474
1664.1	6526
1666.274	6545
1668.445	6473
1670.614	6570
1672.784	6502
1674.951	6444
1677.12	6470
1679.289	6517
1681.457	6492
1683.622	6450
1685.789	6470
1687.953	6550
1690.121	6614
1692.284	6372
1694.447	6484
1696.611	6448
1698.772	6526
1700.935	6474
1703.098	6458
1705.258	6482
1707.417	6373
1709.576	6375
1711.736	6409
1713.896	6247
1716.053	6436
1718.21	6387
1720.366	6419
1722.522	6259
1724.68	6252
1726.835	6380
1728.989	6404
1731.142	6268
1733.295	6459
1735.449	6276
1737.601	6334
1739.753	6339
1741.903	6245
1744.054	6376
1746.203	6398
1748.354	6284
1750.503	6459
1752.651	6329
1754.798	6356
1756.944	6328
1759.092	6390
1761.238	6482
1763.383	6360
1765.528	6314
1767.672	6308
1769.814	6410
1771.959	6469
1774.102	6425
1776.242	6382
1778.384	6438
1780.525	6363
1782.665	6466
1784.805	6438
1786.945	6435
1789.082	6430
1791.22	6477
1793.36	6354
1795.495	6402
1797.632	6472
1799.766	6475
1801.902	6403
1804.035	6416
1806.172	6485
1808.304	6417
1810.436	6435
1812.569	6382
1814.699	6396
1816.833	6370
1818.963	6375
1821.092	6496
1823.222	6471
1825.35	6427
1827.478	6433
1829.608	6261
1831.734	6374
1833.86	6444
1835.986	6506
1838.11	6396
1840.238	6311
1842.362	6431
1844.485	6364
1846.608	6438
1848.73	6368
1850.853	6273
1852.974	6340
1855.097	6362
1857.217	6450
1859.336	6476
1861.455	6394
1863.576	6291
1865.693	6378
1867.811	6407
1869.926	6402
1872.042	6308
1874.16	6343
1876.275	6437
1878.39	6425
1880.504	6242
1882.618	6353
1884.731	6343
1886.843	6348
1888.956	6381
1891.067	6340
1893.178	6460
1895.287	6370
1897.399	6392
1899.508	6470
1901.617	6354
1903.724	6284
1905.832	6444
1907.941	6388
1910.046	6338
1912.152	6458
1914.256	6473
1916.361	6362
1918.464	6423
1920.57	6568
1922.672	6446
1924.775	6488
1926.876	6493
1928.978	6456
1931.08	6437
1933.181	6427
1935.28	6507
1937.38	6467
1939.478	6429
1941.577	6510
1943.675	6546
1945.771	6448
1947.867	6398
1949.964	6442
1952.058	6398
1954.154	6402
1956.248	6474
1958.343	6379
1960.435	6400
1962.527	6399
1964.62	6307
1966.711	6422
1968.802	6319
1970.892	6509
1972.983	6472
1975.072	6334
1977.162	6326
1979.25	6371
1981.337	6439
1983.424	6295
1985.51	6385
1987.598	6300
1989.683	6395
1991.768	6348
1993.852	6373
1995.934	6329
1998.019	6312
2000.102	6349
2002.184	6364
2004.266	6374
2006.347	6434
2008.427	6320
2010.508	6322
2012.587	6426
2014.666	6385
2016.745	6367
2018.821	6460
2020.9	6373
2022.977	6484
2025.052	6386
2027.128	6456
2029.204	6277
2031.277	6350
2033.353	6348
2035.425	6361
2037.499	6234
2039.57	6382
2041.642	6275
2043.714	6331
2045.786	6378
2047.855	6432
2049.925	6305
2051.993	6237
2054.064	6403
2056.132	6398
2058.2	6264
2060.266	6468
2062.332	6437
2064.398	6285
2066.465	6319
2068.529	6355
2070.592	6352
2072.657	6418
2074.719	6321
2076.783	6457
2078.845	6311
2080.907	6281
2082.968	6307
2085.028	6409
2087.087	6263
2089.148	6383
2091.207	6447
2093.264	6329
2095.322	6328
2097.379	6320
2099.439	6455
2101.495	6472
2103.55	6374
2105.605	6327
2107.658	6291
2109.713	6234
2111.767	6237
2113.82	6397
2115.872	6331
2117.924	6326
2119.975	6322
2122.028	6258
2124.078	6387
2126.126	6319
2128.176	6454
2130.225	6357
2132.275	6279
2134.321	6347
2136.368	6317
2138.415	6303
2140.461	6444
2142.505	6265
2144.552	6450
2146.597	6304
2148.64	6307
2150.684	6256
2152.725	6228
2154.77	6215
2156.811	6364
2158.852	6280
2160.894	6171
2162.933	6253
2164.973	6251
2167.013	6400
2169.051	6336
2171.089	6208
2173.126	6296
2175.164	6294
2177.201	6251
2179.236	6195
2181.273	6261
2183.307	6181
2185.341	6298
2187.377	6112
2189.41	6240
2191.442	6226
2193.473	6100
2195.506	6202
2197.539	6263
2199.569	6302
2201.598	6132
2203.628	6151
2205.656	6125
2207.686	6032
2209.716	6138
2211.743	6145
2213.769	6159
2215.796	6231
2217.821	6132
2219.848	6247
2221.873	6182
2223.897	6107
2225.921	6202
2227.944	6230
2229.967	5994
2231.991	6023
2234.011	6200
2236.032	6196
2238.053	6138
2240.073	6173
2242.094	6088
2244.114	6113
2246.131	6147
2248.149	6268
2250.167	6115
2252.186	6025
2254.201	6148
2256.218	6146
2258.233	6226
2260.247	6137
2262.262	6128
2264.278	6125
2266.29	6181
2268.303	6102
2270.315	6097
2272.327	6169
2274.341	6169
2276.35	6071
2278.361	6166
2280.37	6128
2282.38	6187
2284.388	6186
2286.397	6224
2288.405	6176
2290.412	6052
2292.419	6116
2294.425	6128
2296.431	6122
2298.437	6046
2300.441	6084
2302.445	6213
2304.449	6205
2306.453	6036
2308.455	6116
2310.457	6180
2312.459	5985
2314.46	6172
2316.46	5975
2318.461	6074
2320.46	5940
2322.458	6028
2324.458	6126
2326.456	6163
2328.455	6097
2330.451	6058
2332.447	5910
2334.443	6076
2336.438	5986
2338.433	6080
2340.429	6013
2342.422	6044
2344.416	6111
2346.408	6080
2348.399	6022
2350.393	5891
2352.384	6015
2354.375	5935
2356.365	6093
2358.355	5853
2360.344	5954
2362.333	5895
2364.322	6028
2366.309	5938
2368.295	5961
2370.282	5925
2372.27	5907
2374.256	5906
2376.24	6018
2378.225	6043
2380.208	6026
2382.194	5949
2384.177	6019
2386.159	5850
2388.142	5940
2390.122	5897
2392.105	6024
2394.085	6021
2396.066	5847
2398.044	5756
2400.024	5821
2402.002	5912
2403.982	5877
2405.959	5756
2407.935	5846
2409.913	5876
2411.888	5981
2413.865	5893
2415.84	5906
2417.814	5874
2419.788	5800
2421.762	5888
2423.735	5837
2425.708	5927
2427.68	5796
2429.651	6001
2431.623	5880
2433.593	5922
2435.564	5814
2437.533	5924
2439.502	5800
2441.47	5853
2443.438	5933
2445.406	5823
2447.373	5962
2449.34	5912
2451.305	5890
2453.271	5800
2455.235	5885
2457.201	5827
2459.165	5824
2461.129	5862
2463.092	5864
2465.054	5806
2467.018	5788
2468.978	5944
2470.939	5843
2472.899	5830
2474.86	5917
2476.819	5878
2478.778	5788
2480.737	5749
2482.695	5838
2484.653	5814
2486.609	5783
2488.567	5841
2490.524	5846
2492.478	5782
2494.433	5778
2496.387	5690
2498.343	5777
2500.297	5710
2502.249	5704
2504.202	5788
2506.153	5836
2508.105	5737
2510.057	5894
2512.008	5767
2513.957	5663
2515.906	5809
2517.855	5786
2519.805	5717
2521.754	5800
2523.7	5761
2525.647	5782
2527.594	5722
2529.54	5757
2531.486	5721
2533.431	5733
2535.376	5712
2537.32	5689
2539.263	5812
2541.207	5814
2543.151	5768
2545.093	5705
2547.034	5787
2548.975	5663
2550.917	5697
2552.856	5722
2554.796	5828
2556.735	5740
2558.673	5680
2560.611	5740
2562.55	5675
2564.487	5735
2566.424	5782
2568.36	5721
2570.296	5585
2572.232	5693
2574.167	5715
2576.101	5616
2578.035	5748
2579.969	5757
2581.902	5788
2583.834	5765
2585.766	5666
2587.698	5718
2589.628	5667
2591.557	5708
2593.489	5755
2595.419	5680
2597.348	5702
2599.275	5710
2601.204	5698
2603.131	5753
2605.059	5672
2606.986	5668
2608.911	5654
2610.837	5701
2612.76	5718
2614.687	5730
2616.61	5710
2618.534	5799
2620.457	5771
2622.38	5722
2624.302	5778
2626.225	5718
2628.145	5727
2630.067	5762
2631.986	5638
2633.906	5763
2635.827	5696
2637.745	5687
2639.662	5702
2641.581	5757
2643.498	5747
2645.415	5767
2647.331	5789
2649.248	5711
2651.163	5712
2653.077	5730
2654.993	5707
2656.906	5639
2658.821	5685
2660.733	5710
2662.646	5699
2664.557	5724
2666.47	5722
2668.381	5684
2670.291	5758
2672.201	5719
2674.11	5664
2676.021	5742
2677.929	5646
2679.837	5704
2681.745	5643
2683.652	5673
2685.56	5707
2687.466	5726
2689.371	5692
2691.276	5653
2693.181	5693
2695.085	5752
2696.991	5591
2698.893	5647
2700.796	5651
2702.698	5627
2704.601	5517
2706.502	5592
2708.404	5622
2710.304	5677
2712.203	5580
2714.103	5714
2716.003	5663
2717.902	5596
2719.8	5625
2721.697	5630
2723.594	5587
2725.49	5702
2727.389	5499
2729.283	5580
2731.179	5584
2733.073	5532
2734.968	5483
2736.863	5542
2738.757	5533
2740.649	5586
2742.541	5569
2744.433	5648
2746.324	5565
2748.216	5657
2750.107	5600
2751.997	5522
2753.886	5642
2755.776	5515
2757.666	5548
2759.553	5547
2761.44	5529
2763.327	5529
2765.215	5540
2767.102	5561
2768.988	5509
2770.873	5519
2772.757	5547
2774.641	5630
2776.525	5562
2778.41	5403
2780.292	5527
2782.175	5453
2784.057	5531
2785.938	5546
2787.821	5564
2789.701	5455
2791.581	5468
2793.461	5548
2795.34	5458
2797.219	5581
2799.099	5529
2800.975	5469
2802.853	5508
2804.73	5461
2806.606	5469
2808.484	5493
2810.358	5533
2812.233	5575
2814.108	5457
2815.981	5523
2817.857	5492
2819.73	5396
2821.602	5515
2823.474	5414
2825.346	5519
2827.217	5484
2829.089	5534
2830.959	5496
2832.829	5377
2834.698	5404
2836.567	5433
2838.436	5423
2840.305	5451
2842.172	5443
2844.04	5454
2845.905	5502
2847.772	5492
2849.639	5456
2851.503	5500
2853.369	5495
2855.232	5587
2857.096	5518
2858.961	5492
2860.824	5534
2862.686	5472
2864.547	5469
2866.41	5587
2868.272	5494
2870.132	5666
2871.992	5696
2873.851	5755
2875.711	5673
2877.57	5813
2879.429	5856
2881.287	5873
2883.144	5721
2885.001	5871
2886.857	5880
2888.714	5891
2890.57	5961
2892.425	5853
2894.279	5944
2896.133	5941
2897.987	5917
2899.842	5842
2901.694	5879
2903.547	5876
2905.397	5715
2907.249	5837
2909.101	5875
2910.952	5795
2912.802	5904
2914.652	5916
2916.5	5886
2918.35	5946
2920.198	5926
2922.045	6097
2923.893	6145
2925.74	6161
2927.585	6168
2929.433	6126
2931.279	6258
2933.123	6333
2934.968	6392
2936.811	6479
2938.656	6316
2940.5	6435
2942.342	6573
2944.185	6508
2946.026	6458
2947.87	6583
2949.71	6426
2951.549	6450
2953.39	6597
2955.229	6290
2957.069	6284
2958.908	6247
2960.746	6147
2962.584	6167
2964.421	6133
2966.257	6143
2968.094	6025
2969.931	6009
2971.766	5882
2973.601	5944
2975.435	5872
2977.27	5918
2979.105	5942
2980.938	5850
2982.77	5778
2984.602	5801
2986.434	5694
2988.267	5837
2990.097	5803
2991.927	5675
2993.757	5713
2995.587	5713
2997.417	5696
2999.246	5733
3001.074	5524
3002.902	5585
3004.729	5508
3006.556	5497
3008.384	5412
3010.21	5442
3012.036	5502
3013.861	5317
3015.684	5330
3017.51	5388
3019.334	5263
3021.157	5282
3022.981	5235
3024.802	5179
3026.624	5184
3028.448	5130
3030.267	5234
3032.088	5072
3033.909	5251
3035.728	5137
3037.549	5092
3039.368	5102
3041.186	5201
3043.004	5101
3044.821	5136
3046.64	5147
3048.455	5078
3050.272	5008
3052.087	5086
3053.903	5085
3055.717	5093
3057.534	5114
3059.347	5082
3061.16	5064
3062.974	5173
3064.785	5057
3066.598	5149
3068.411	5063
3070.222	5029
3072.032	5076
3073.844	5002
3075.653	5057
3077.463	5021
3079.272	5098
3081.08	5008
3082.889	4987
3084.697	5048
3086.505	5028
3088.312	5066
3090.118	4984
3091.924	4980
3093.729	5026
3095.535	4986
3097.34	4940
3099.144	4933
3100.947	4963
3102.75	4931
3104.553	4907
3106.357	4895
3108.159	4861
3109.961	4889
3111.762	4900
3113.562	4911
3115.365	4820
3117.164	4847
3118.964	4929
3120.761	4937
3122.56	4786
3124.36	4846
3126.158	4797
3127.954	4802
3129.75	4860
3131.547	4794
3133.343	4852
3135.139	4739
3136.934	4784
3138.729	4818
3140.522	4836
3142.317	4883
3144.11	4772
3145.904	4780
3147.695	4861
3149.488	4747
3151.28	4776
3153.07	4728
3154.863	4693
3156.652	4851
3158.441	4840
3160.231	4732
3162.019	4780
3163.81	4808
3165.597	4728
3167.384	4785
3169.172	4812
3170.958	4818
3172.745	4678
3174.532	4700
3176.317	4744
3178.101	4714
3179.885	4711
3181.67	4763
3183.455	4796
3185.238	4747
3187.02	4638
3188.802	4763
3190.585	4743
3192.368	4709
3194.149	4748
3195.929	4691
3197.709	4635
3199.489	4702
3201.268	4692
3203.048	4733
3204.826	4739
3206.604	4612
3208.382	4773
3210.159	4715
3211.937	4712
3213.713	4716
3215.489	4791
3217.263	4651
3219.038	4739
3220.815	4651
3222.589	4679
3224.363	4712
3226.136	4761
3227.908	4762
3229.681	4733
3231.454	4712
3233.226	4662
3234.996	4772
3236.767	4660
3238.538	4733
3240.308	4738
3242.078	4631
3243.847	4752
3245.615	4614
3247.384	4600
3249.15	4711
3250.92	4761
3252.686	4698
3254.453	4657
3256.218	4739
3257.984	4660
3259.75	4678
3261.515	4711
3263.279	4603
3265.044	4693
3266.806	4742
3268.57	4627
3270.334	4672
3272.095	4704
3273.856	4738
3275.619	4613
3277.379	4634
3279.14	4701
3280.9	4727
3282.661	4634
3284.419	4678
3286.178	4776
3287.937	4655
3289.695	4640
3291.453	4605
3293.21	4632
3294.967	4676
3296.723	4675
3298.48	4691
3300.235	4659
3301.99	4643
3303.744	4665
3305.498	4685
3307.253	4706
3309.006	4616
3310.759	4749
3312.511	4662
3314.263	4701
3316.017	4663
3317.768	4713
3319.519	4763
3321.268	4577
3323.018	4524
3324.767	4787
3326.518	4640
3328.267	4570
3330.014	4665
3331.762	4600
3333.509	4636
3335.258	4599
3337.003	4666
3338.75	4604
3340.496	4667
3342.24	4635
3343.987	4596
3345.732	4642
3347.475	4579
3349.219	4571
3350.961	4596
3352.705	4628
3354.448	4591
3356.19	4514
3357.931	4581
3359.672	4672
3361.412	4551
3363.155	4581
3364.894	4642
3366.633	4519
3368.372	4565
3370.11	4446
3371.849	4576
3373.588	4543
3375.325	4440
3377.061	4601
3378.799	4448
3380.534	4474
3382.271	4379
3384.006	4355
3385.741	4462
3387.475	4482
3389.209	4535
3390.944	4549
3392.677	4483
3394.409	4503
3396.143	4433
3397.874	4527
3399.606	4449
3401.338	4462
3403.069	4549
3404.799	4411
3406.528	4512
3408.258	4378
3409.988	4468
3411.717	4435
3413.445	4442
3415.173	4427
3416.899	4486
3418.626	4438
3420.354	4453
3422.08	4484
3423.806	4488
3425.531	4512
3427.255	4534
3428.981	4393
3430.705	4372
3432.429	4440
3434.151	4365
3435.875	4434
3437.599	4343
3439.321	4359
3441.042	4258
3442.763	4364
3444.483	4295
3446.204	4270
3447.926	4340
3449.645	4291
3451.364	4377
3453.082	4338
3454.801	4238
3456.52	4262
3458.238	4217
3459.954	4329
3461.671	4244
3463.387	4379
3465.104	4256
3466.82	4208
3468.534	4288
3470.25	4347
3471.963	4241
3473.676	4321
3475.392	4263
3477.104	4297
3478.817	4204
3480.528	4191
3482.241	4167
3483.954	4187
3485.664	4277
3487.374	4179
3489.084	4169
3490.795	4226
3492.504	4219
3494.214	4208
3495.922	4145
3497.63	4124
3499.338	4120
3501.045	4129
3502.753	4185
3504.459	4174
3506.166	4199
3507.871	4148
3509.576	4061
3511.283	4124
3512.987	4027
3514.691	4213
3516.395	4057
3518.098	4061
3519.8	4217
3521.504	4057
3523.206	4125
3524.908	4099
3526.609	4057
3528.309	4091
3530.011	4190
3531.711	4078
3533.411	4114
3535.109	4132
3536.808	4018
3538.507	4069
3540.206	4082
3541.904	4104
3543.601	4032
3545.297	4088
3546.994	4006
3548.69	4005
3550.387	4063
3552.081	4005
3553.776	3992
3555.47	3999
3557.166	4060
3558.859	3968
3560.553	4004
3562.245	3954
3563.938	3968
3565.629	3930
3567.322	4006
3569.014	4029
3570.704	3966
3572.394	3935
3574.084	3970
3575.775	3992
3577.464	4005
3579.152	3994
3580.842	3971
3582.529	3873
3584.216	3987
3585.905	3956
3587.591	3912
3589.279	3905
3590.964	3941
3592.649	3855
3594.336	3947
3596.021	3911
3597.705	3880
3599.388	3910
3601.072	3924
3602.757	3849
3604.439	3857
3606.122	3847
3607.803	3878
3609.485	3865
3611.167	3832
3612.849	3754
3614.529	3820
3616.208	3848
3617.888	3767
3619.567	3791
3621.247	3761
3622.926	3743
3624.603	3863
3626.281	3872
3627.958	3826
3629.635	3832
3631.312	3780
3632.989	3741
3634.665	3786
3636.339	3769
3638.014	3764
3639.691	3873
3641.364	3751
3643.038	3716
3644.71	3723
3646.384	3673
3648.058	3791
3649.729	3729
3651.402	3676
3653.073	3733
3654.744	3768
3656.414	3667
3658.085	3684
3659.755	3645
3661.424	3786
3663.094	3710
3664.762	3699
3666.431	3705
3668.099	3726
3669.766	3717
3671.433	3654
3673.099	3672
3674.768	3648
3676.433	3676
3678.098	3576
3679.763	3710
3681.428	3628
3683.093	3726
3684.757	3650
3686.421	3579
3688.083	3640
3689.746	3670
3691.408	3683
3693.071	3669
3694.733	3632
3696.394	3643
3698.054	3589
3699.715	3671
3701.375	3675
3703.036	3644
3704.695	3568
3706.354	3555
3708.012	3615
3709.67	3540
3711.329	3603
3712.987	3525
3714.644	3580
3716.299	3630
3717.955	3623
3719.613	3625
3721.268	3600
3722.923	3645
3724.577	3612
3726.231	3589
3727.885	3623
3729.539	3619
3731.192	3516
3732.845	3576
3734.497	3559
3736.149	3545
3737.802	3591
3739.453	3518
3741.104	3578
3742.753	3526
3744.404	3582
3746.052	3616
3747.704	3509
3749.352	3604
3751	3611
3752.648	3477
3754.296	3460
3755.944	3605
3757.59	3519
3759.238	3550
3760.883	3494
3762.528	3512
3764.176	3493
3765.82	3514
3767.464	3430
3769.109	3428
3770.753	3507
3772.396	3412
3774.04	3504
3775.683	3451
3777.325	3480
3778.967	3447
3780.608	3504
3782.25	3528
3783.89	3475
3785.531	3479
3787.17	3446
3788.81	3481
3790.45	3459
3792.09	3470
3793.729	3479
3795.366	3412
3797.003	3482
3798.64	3390
3800.278	3342
3801.915	3460
3803.551	3459
3805.187	3368
3806.822	3412
3808.458	3389
3810.093	3409
3811.726	3475
3813.36	3402
3814.994	3437
3816.627	3369
3818.262	3367
3819.893	3402
3821.525	3354
3823.157	3420
3824.787	3367
3826.42	3405
3828.051	3367
3829.68	3377
3831.31	3372
3832.938	3339
3834.569	3350
3836.198	3369
3837.825	3393
3839.454	3301
3841.08	3368
3842.708	3359
3844.335	3448
3845.962	3254
3847.587	3310
3849.212	3346
3850.838	3377
3852.463	3267
3854.089	3298
3855.712	3283
3857.335	3251
3858.959	3305
3860.582	3287
3862.205	3267
3863.827	3281
3865.449	3302
3867.07	3281
3868.691	3209
3870.312	3220
3871.933	3341
3873.553	3322
3875.173	3250
3876.792	3281
3878.411	3237
3880.03	3291
3881.647	3233
3883.265	3251
3884.882	3268
3886.499	3294
3888.116	3239
3889.732	3282
3891.348	3267
3892.964	3239
3894.579	3240
3896.195	3228
3897.809	3239
3899.423	3239
3901.036	3285
3902.648	3300
3904.261	3229
3905.875	3290
3907.487	3206
3909.099	3204
3910.709	3243
3912.321	3330
3913.933	3249
3915.542	3189
3917.152	3193
3918.762	3240
3920.37	3286
3921.98	3261
3923.589	3207
3925.196	3212
3926.804	3182
3928.41	3137
3930.018	3226
3931.626	3285
3933.231	3220
3934.838	3219
3936.442	3137
3938.046	3158
3939.653	3149
3941.257	3248
3942.861	3232
3944.464	3144
3946.068	3207
3947.67	3143
3949.273	3163
3950.876	3168
3952.477	3193
3954.078	3168
3955.678	3144
3957.281	3131
3958.881	3172
3960.48	3110
3962.079	3048
3963.678	3114
3965.279	3213
3966.877	3191
3968.475	3105
3970.072	3137
3971.669	3119
3973.266	3218
3974.864	3102
3976.459	3023
3978.055	3093
3979.65	3096
3981.245	3041
3982.841	3130
3984.436	3147
3986.03	3093
3987.623	3075
3989.216	3093
3990.809	3063
3992.403	3006
3993.995	3055
3995.586	3003
3997.177	3072
3998.768	3017
4000.361	2986
4001.951	3081
4003.54	3069
4005.13	2992
4006.719	3045
4008.31	3093
4009.897	2995
4011.485	3033
4013.073	3015
4014.66	3011
4016.247	3037
4017.834	2959
4019.421	3002
4021.006	3014
4022.592	2972
4024.178	2952
4025.763	3040
4027.348	2910
4028.932	3081
4030.515	2920
4032.099	2940
4033.682	2907
4035.266	2928
4036.847	2891
4038.429	3049
4040.011	2995
4041.592	3003
4043.173	2963
4044.755	2994
4046.334	2926
4047.913	2935
4049.494	2955
4051.074	2960
4052.652	2963
4054.23	2879
4055.807	2909
4057.385	2989
4058.963	2902
4060.541	2976
4062.117	2965
4063.693	2954
4065.269	2876
4066.844	2827
4068.42	2869
4069.995	2930
4071.569	2876
4073.143	2850
4074.716	2888
4076.291	2856
4077.864	2852
4079.436	2849
4081.009	2894
4082.58	2974
4084.152	2805
4085.723	2954
4087.294	2921
4088.865	2894
4090.435	2886
4092.005	2921
4093.574	2898
4095.143	2870
4096.712	2796
4098.279	2850
4099.848	2871
4101.416	2837
4102.984	2827
4104.55	2802
4106.117	2787
4107.682	2844
4109.248	2747
4110.815	2767
4112.379	2847
4113.945	2835
4115.508	2859
4117.073	2834
4118.637	2805
4120.201	2791
4121.763	2795
4123.325	2786
4124.888	2791
4126.449	2847
4128.013	2771
4129.573	2809
4131.133	2807
4132.694	2775
4134.254	2764
4135.814	2785
4137.374	2697
4138.933	2730
4140.491	2787
4142.049	2777
4143.607	2787
4145.167	2739
4146.724	2763
4148.28	2729
4149.836	2763
4151.392	2735
4152.949	2725
4154.504	2675
4156.059	2758
4157.614	2802
4159.168	2742
4160.723	2760
4162.277	2708
4163.83	2681
4165.383	2722
4166.936	2693
4168.488	2662
4170.041	2662
4171.593	2705
4173.144	2662
4174.695	2701
4176.246	2680
4177.796	2717
4179.346	2682
4180.896	2656
4182.445	2689
4183.994	2658
4185.542	2748
4187.091	2621
4188.639	2601
4190.185	2692
4191.732	2643
4193.279	2677
4194.826	2700
4196.373	2664
4197.918	2630
4199.463	2626
4201.008	2635
4202.553	2612
4204.098	2637
4205.641	2637
4207.185	2633
4208.728	2645
4210.271	2668
4211.814	2625
4213.357	2657
4214.898	2608
4216.439	2621
4217.98	2682
4219.522	2560
4221.062	2603
4222.603	2551
4224.142	2570
4225.681	2602
4227.222	2587
4228.76	2626
4230.298	2595
4231.835	2591
4233.373	2542
4234.911	2590
4236.449	2600
4237.985	2583
4239.521	2601
4241.057	2568
4242.592	2631
4244.128	2612
4245.663	2549
4247.197	2559
4248.731	2603
4250.265	2524
4251.798	2563
4253.333	2612
4254.865	2584
4256.397	2544
4257.93	2647
4259.461	2637
4260.994	2528
4262.525	2523
4264.056	2576
4265.586	2500
4267.115	2576
4268.646	2597
4270.176	2571
4271.705	2520
4273.232	2574
4274.761	2521
4276.289	2522
4277.818	2574
4279.345	2522
4280.872	2548
4282.399	2502
4283.924	2506
4285.452	2536
4286.976	2518
4288.502	2552
4290.026	2508
4291.551	2511
4293.074	2511
4294.6	2509
4296.123	2476
4297.646	2472
4299.168	2514
4300.691	2432
4302.214	2502
4303.736	2460
4305.257	2491
4306.778	2476
4308.299	2520
4309.82	2454
4311.34	2545
4312.86	2510
4314.379	2483
