400.0745	4373
402.597	4351
405.1208	4367
407.6419	4405
410.1623	4445
412.6819	4346
415.201	4370
417.7172	4373
420.2369	4482
422.7538	4537
425.2701	4616
427.7856	4555
430.3005	4568
432.8147	4662
435.3282	4679
437.841	4663
440.3511	4636
442.8625	4561
445.3753	4637
447.8854	4574
450.3927	4615
452.9014	4619
455.4073	4609
457.9146	4612
460.4233	4707
462.9272	4614
465.4325	4653
467.935	4654
470.4389	4551
472.9421	4686
475.4446	4563
477.9444	4755
480.4456	4685
482.944	4651
485.4417	4717
487.9429	4696
490.4393	4693
492.935	4740
495.4321	4705
497.9264	4676
500.4221	4773
502.9171	4816
505.4094	4737
507.9011	4821
510.392	4828
512.8864	4824
515.3759	4753
517.8649	4876
520.3531	4783
522.8406	4835
525.3275	4800
527.8178	4844
530.3033	4752
532.7881	4858
535.2723	4914
537.7558	4936
540.2407	4843
542.7228	4841
545.2043	4798
547.6851	4916
550.1652	4832
552.6467	4900
555.1255	4833
557.6016	4824
560.079	4872
562.5557	4860
565.0318	4937
567.5092	4900
569.984	4983
572.456	4961
574.9294	5064
577.4022	5013
579.8762	5077
582.3456	5108
584.8163	5003
587.2863	5088
589.7557	5106
592.2224	5137
594.6924	5077
597.1578	5070
599.6245	5048
602.0905	4953
604.5538	5053
607.0206	5125
609.4825	5101
611.9459	4949
614.4066	4935
616.8686	5082
619.33	5056
621.7906	4972
624.2487	5015
626.708	5056
629.1647	5020
631.6207	4988
634.0801	5036
636.5348	4990
638.9888	5038
641.4442	5049
643.8969	5126
646.3509	5060
648.8022	5026
651.255	5051
653.705	5066
656.1544	4975
658.6031	5130
661.0532	5069
663.5026	5149
665.9493	5164
668.3954	5265
670.8409	5083
673.2877	5120
675.7318	5262
678.1752	5151
680.618	5237
683.0601	5089
685.5035	5205
687.9444	5069
690.3845	5282
692.824	5165
695.2628	5192
697.701	5279
700.1406	5242
702.5774	5237
705.0116	5351
707.4472	5246
709.8821	5294
712.3183	5258
714.7519	5298
717.1829	5336
719.6151	5270
722.0468	5337
724.4777	5300
726.908	5414
729.3377	5423
731.7667	5388
734.1931	5390
736.6208	5442
739.0498	5425
741.4742	5524
743.9	5332
746.3231	5422
748.7476	5486
751.1713	5548
753.5945	5499
756.015	5514
758.4368	5483
760.856	5575
763.2766	5448
765.6965	5661
768.1157	5650
770.5323	5552
772.9483	5590
775.3656	5531
777.7822	5615
780.1963	5550
782.6116	5662
785.0244	5602
787.4365	5541
789.8499	5501
792.2626	5612
794.6728	5687
797.0823	5652
799.4911	5609
801.8994	5581
804.3109	5554
806.7178	5685
809.124	5576
811.5297	5737
813.9347	5574
816.341	5691
818.7447	5704
821.1478	5777
823.5502	5601
825.952	5670
828.3531	5607
830.7556	5671
833.1554	5856
835.5546	5666
837.9532	5674
840.3511	5640
842.7504	5637
845.1451	5834
847.5411	5710
849.9365	5730
852.3312	5846
854.7272	5830
857.1187	5781
859.5115	5859
861.9037	5736
864.2952	5749
866.6842	5816
869.0764	5800
871.4661	5769
873.8531	5744
876.2415	5776
878.6272	5760
881.0162	5668
883.4026	5790
885.7866	5691
888.1717	5811
890.5543	5799
892.9382	5749
895.3215	5739
897.7041	5809
900.0842	5792
902.4655	5798
904.8443	5727
907.2244	5852
909.6039	5810
911.9808	5796
914.357	5876
916.7346	5901
919.1115	5907
921.4859	6033
923.8616	5990
926.2347	6085
928.6071	5985
930.979	5867
933.3541	6004
935.7247	6064
938.0946	6081
940.4639	6207
942.8326	6094
945.2026	6384
947.5701	6361
949.9369	6444
952.305	6608
954.6705	6921
957.0355	6979
959.4017	7249
961.7654	7314
964.1284	7307
966.4908	6991
968.8527	6864
971.2138	6663
973.5743	6429
975.9343	6207
978.2936	6072
980.6522	6166
983.0122	6008
985.3696	5974
987.7245	5998
990.0807	5908
992.4362	5885
994.7911	5958
997.1474	5898
999.4991	5962
1001.852	6022
1004.205	5981
1006.555	5865
1008.908	6063
1011.258	6083
1013.606	5937
1015.956	6017
1018.302	6032
1020.652	5976
1022.998	6051
1025.345	6048
1027.691	6025
1030.035	6155
1032.378	6048
1034.724	6046
1037.066	6044
1039.409	6138
1041.75	6161
1044.092	6105
1046.433	6151
1048.771	6102
1051.112	6113
1053.449	6109
1055.786	6124
1058.124	6037
1060.462	5965
1062.797	6143
1065.131	6104
1067.467	6134
1069.8	6248
1072.135	6102
1074.467	6246
1076.798	6282
1079.129	6161
1081.459	6265
1083.792	6254
1086.121	6128
1088.449	6274
1090.777	6094
1093.104	6214
1095.431	6057
1097.759	6117
1100.084	6191
1102.408	6188
1104.732	6098
1107.056	6178
1109.379	6033
1111.701	6180
1114.022	6209
1116.343	6035
1118.664	6112
1120.983	6041
1123.303	6166
1125.621	6204
1127.939	6225
1130.256	6126
1132.573	6152
1134.889	6149
1137.205	6188
1139.52	6208
1141.832	6204
1144.146	6127
1146.461	5974
1148.771	6023
1151.083	6093
1153.392	6152
1155.703	6080
1158.011	6052
1160.323	6104
1162.629	6208
1164.938	6149
1167.243	6177
1169.55	6177
1171.857	6137
1174.163	6079
1176.466	6117
1178.769	6183
1181.073	6188
1183.374	6085
1185.677	6084
1187.979	6064
1190.279	6083
1192.578	6101
1194.878	6174
1197.178	6202
1199.476	6206
1201.772	6059
1204.068	6114
1206.366	6125
1208.663	6192
1210.957	6098
1213.251	6097
1215.544	6156
1217.836	6134
1220.128	6094
1222.421	6088
1224.712	6205
1227.002	6281
1229.292	6211
1231.581	6280
1233.871	6194
1236.159	6330
1238.446	6368
1240.732	6422
1243.018	6335
1245.304	6442
1247.59	6262
1249.874	6465
1252.156	6357
1254.439	6317
1256.721	6525
1259.005	6334
1261.286	6299
1263.565	6350
1265.845	6389
1268.125	6392
1270.403	6412
1272.682	6365
1274.959	6434
1277.234	6402
1279.511	6433
1281.787	6192
1284.062	6350
1286.337	6319
1288.609	6230
1290.882	6269
1293.153	6203
1295.428	6224
1297.698	6251
1299.969	6169
1302.237	6175
1304.507	6227
1306.777	6303
1309.044	6153
1311.312	6404
1313.578	6256
1315.844	6323
1318.109	6305
1320.375	6260
1322.638	6091
1324.903	6321
1327.165	6275
1329.427	6284
1331.69	6411
1333.952	6344
1336.212	6259
1338.471	6287
1340.73	6213
1342.988	6200
1345.248	6274
1347.505	6245
1349.763	6256
1352.019	6266
1354.274	6283
1356.53	6311
1358.784	6197
1361.038	6299
1363.291	6300
1365.543	6255
1367.797	6255
1370.048	6213
1372.296	6262
1374.546	6264
1376.796	6295
1379.045	6324
1381.295	6273
1383.542	6410
1385.787	6276
1388.034	6343
1390.28	6355
1392.527	6327
1394.772	6399
1397.014	6303
1399.258	6291
1401.501	6393
1403.741	6341
1405.985	6370
1408.226	6340
1410.465	6398
1412.705	6354
1414.943	6437
1417.184	6450
1419.42	6498
1421.658	6458
1423.894	6436
1426.13	6416
1428.366	6354
1430.602	6461
1432.835	6451
1435.069	6509
1437.301	6444
1439.535	6495
1441.767	6532
1443.997	6549
1446.229	6477
1448.458	6489
1450.687	6509
1452.916	6643
1455.146	6627
1457.372	6644
1459.599	6669
1461.824	6542
1464.051	6577
1466.277	6508
1468.501	6468
1470.725	6410
1472.948	6428
1475.17	6537
1477.393	6481
1479.614	6520
1481.837	6389
1484.057	6331
1486.276	6433
1488.497	6442
1490.715	6326
1492.932	6294
1495.148	6222
1497.364	6224
1499.58	6299
1501.798	6363
1504.012	6273
1506.227	6323
1508.44	6239
1510.653	6230
1512.866	6244
1515.078	6198
1517.289	6337
1519.5	6182
1521.711	6197
1523.92	6294
1526.13	6139
1528.338	6224
1530.544	6240
1532.752	6330
1534.959	6303
1537.165	6289
1539.371	6320
1541.574	6301
1543.779	6296
1545.983	6349
1548.187	6309
1550.39	6370
1552.59	6272
1554.792	6394
1556.991	6340
1559.19	6292
1561.392	6322
1563.59	6366
1565.789	6319
1567.986	6374
1570.182	6334
1572.381	6303
1574.576	6402
1576.771	6284
1578.966	6371
1581.16	6473
1583.354	6289
1585.546	6462
1587.74	6434
1589.931	6506
1592.121	6640
1594.311	6459
1596.502	6505
1598.693	6504
1600.881	6394
1603.069	6449
1605.256	6472
1607.445	6534
1609.631	6484
1611.816	6510
1614.001	6526
1616.186	6483
1618.37	6547
1620.555	6579
1622.737	6478
1624.919	6533
1627.101	6358
1629.282	6468
1631.463	6535
1633.643	6525
1635.822	6573
1638.001	6544
1640.179	6648
1642.359	6478
1644.534	6495
1646.711	6490
1648.887	6572
1651.062	6575
1653.235	6531
1655.412	6558
1657.586	6644
1659.757	6519
1661.93	6514
1664.1	6538
1666.274	6568
1668.445	6707
1670.614	6642
1672.784	6571
1674.951	6682
1677.12	6670
1679.289	6628
1681.457	6543
1683.622	6581
1685.789	6585
1687.953	6498
1690.121	6551
1692.284	6539
1694.447	6602
1696.611	6400
1698.772	6487
1700.935	6500
1703.098	6500
1705.258	6392
1707.417	6503
1709.576	6373
1711.736	6415
1713.896	6358
1716.053	6560
1718.21	6385
1720.366	6485
1722.522	6487
1724.68	6412
1726.835	6508
1728.989	6370
1731.142	6518
1733.295	6459
1735.449	6428
1737.601	6501
1739.753	6436
1741.903	6507
1744.054	6494
1746.203	6537
1748.354	6423
1750.503	6531
1752.651	6506
1754.798	6463
1756.944	6450
1759.092	6527
1761.238	6464
1763.383	6479
1765.528	6496
1767.672	6468
1769.814	6516
1771.959	6491
1774.102	6409
1776.242	6557
1778.384	6502
1780.525	6461
1782.665	6507
1784.805	6510
1786.945	6550
1789.082	6559
1791.22	6566
1793.36	6523
1795.495	6506
1797.632	6503
1799.766	6511
1801.902	6512
1804.035	6592
1806.172	6576
1808.304	6534
1810.436	6407
1812.569	6471
1814.699	6550
1816.833	6597
1818.963	6447
1821.092	6482
1823.222	6496
1825.35	6632
1827.478	6410
1829.608	6357
1831.734	6387
1833.86	6389
1835.986	6393
1838.11	6430
1840.238	6521
1842.362	6420
1844.485	6491
1846.608	6500
1848.73	6437
1850.853	6493
1852.974	6426
1855.097	6380
1857.217	6488
1859.336	6378
1861.455	6488
1863.576	6321
1865.693	6291
1867.811	6484
1869.926	6446
1872.042	6536
1874.16	6374
1876.275	6450
1878.39	6367
1880.504	6517
1882.618	6447
1884.731	6314
1886.843	6311
1888.956	6518
1891.067	6479
1893.178	6518
1895.287	6329
1897.399	6488
1899.508	6445
1901.617	6494
1903.724	6525
1905.832	6605
1907.941	6514
1910.046	6353
1912.152	6488
1914.256	6530
1916.361	6433
1918.464	6475
1920.57	6492
1922.672	6498
1924.775	6530
1926.876	6468
1928.978	6546
1931.08	6502
1933.181	6577
1935.28	6511
1937.38	6589
1939.478	6647
1941.577	6585
1943.675	6549
1945.771	6435
1947.867	6511
1949.964	6612
1952.058	6512
1954.154	6503
1956.248	6542
1958.343	6487
1960.435	6624
1962.527	6547
1964.62	6406
1966.711	6588
1968.802	6583
1970.892	6614
1972.983	6461
1975.072	6497
1977.162	6468
1979.25	6561
1981.337	6554
1983.424	6490
1985.51	6472
1987.598	6431
1989.683	6587
1991.768	6341
1993.852	6380
1995.934	6396
1998.019	6484
2000.102	6424
2002.184	6376
2004.266	6397
2006.347	6412
2008.427	6373
2010.508	6481
2012.587	6513
2014.666	6407
2016.745	6419
2018.821	6369
2020.9	6324
2022.977	6445
2025.052	6534
2027.128	6380
2029.204	6288
2031.277	6394
2033.353	6337
2035.425	6366
2037.499	6349
2039.57	6478
2041.642	6423
2043.714	6365
2045.786	6478
2047.855	6419
2049.925	6512
2051.993	6475
2054.064	6398
2056.132	6427
2058.2	6403
2060.266	6537
2062.332	6375
2064.398	6495
2066.465	6381
2068.529	6362
2070.592	6479
2072.657	6389
2074.719	6482
2076.783	6472
2078.845	6435
2080.907	6445
2082.968	6416
2085.028	6396
2087.087	6337
2089.148	6548
2091.207	6353
2093.264	6498
2095.322	6421
2097.379	6461
2099.439	6394
2101.495	6359
2103.55	6441
2105.605	6606
2107.658	6523
2109.713	6511
2111.767	6463
2113.82	6449
2115.872	6356
2117.924	6363
2119.975	6378
2122.028	6470
2124.078	6426
2126.126	6432
2128.176	6476
2130.225	6529
2132.275	6372
2134.321	6370
2136.368	6349
2138.415	6414
2140.461	6393
2142.505	6329
2144.552	6515
2146.597	6393
2148.64	6504
2150.684	6299
2152.725	6370
2154.77	6361
2156.811	6279
2158.852	6474
2160.894	6421
2162.933	6428
2164.973	6333
2167.013	6315
2169.051	6290
2171.089	6377
2173.126	6296
2175.164	6261
2177.201	6400
2179.236	6388
2181.273	6379
2183.307	6268
2185.341	6296
2187.377	6230
2189.41	6193
2191.442	6258
2193.473	6314
2195.506	6268
2197.539	6224
2199.569	6287
2201.598	6322
2203.628	6314
2205.656	6280
2207.686	6323
2209.716	6303
2211.743	6343
2213.769	6226
2215.796	6263
2217.821	6103
2219.848	6290
2221.873	6345
2223.897	6165
2225.921	6222
2227.944	6228
2229.967	6281
2231.991	6181
2234.011	6266
2236.032	6244
2238.053	6252
2240.073	6204
2242.094	6250
2244.114	6216
2246.131	6156
2248.149	6317
2250.167	6299
2252.186	6164
2254.201	6204
2256.218	6262
2258.233	6320
2260.247	6181
2262.262	6228
2264.278	6365
2266.29	6233
2268.303	6302
2270.315	6153
2272.327	6215
2274.341	6328
2276.35	6249
2278.361	6312
2280.37	6112
2282.38	6221
2284.388	6238
2286.397	6226
2288.405	6235
2290.412	6138
2292.419	6198
2294.425	6271
2296.431	6286
2298.437	6243
2300.441	6195
2302.445	6119
2304.449	6221
2306.453	6232
2308.455	6141
2310.457	6286
2312.459	6247
2314.46	6134
2316.46	6225
2318.461	6244
2320.46	6209
2322.458	6177
2324.458	6134
2326.456	6210
2328.455	6291
2330.451	6151
2332.447	6141
2334.443	6170
2336.438	6178
2338.433	6160
2340.429	6076
2342.422	6135
2344.416	6011
2346.408	6148
2348.399	6102
2350.393	6146
2352.384	6087
2354.375	6024
2356.365	6004
2358.355	6060
2360.344	5979
2362.333	6153
2364.322	6102
2366.309	6152
2368.295	5954
2370.282	6062
2372.27	6097
2374.256	5958
2376.24	6133
2378.225	6094
2380.208	6052
2382.194	6186
2384.177	6054
2386.159	6068
2388.142	6012
2390.122	6011
2392.105	6040
2394.085	6062
2396.066	5957
2398.044	5975
2400.024	6114
2402.002	5974
2403.982	5956
2405.959	6076
2407.935	5927
2409.913	6078
2411.888	5921
2413.865	5880
2415.84	5981
2417.814	5918
2419.788	5969
2421.762	5991
2423.735	6012
2425.708	6049
2427.68	6009
2429.651	5969
2431.623	6000
2433.593	5931
2435.564	6049
2437.533	5993
2439.502	5950
2441.47	6061
2443.438	5958
2445.406	5849
2447.373	6001
2449.34	6060
2451.305	5945
2453.271	6016
2455.235	6015
2457.201	6073
2459.165	5838
2461.129	6009
2463.092	5877
2465.054	5895
2467.018	5838
2468.978	5911
2470.939	5866
2472.899	5952
2474.86	6011
2476.819	5819
2478.778	6012
2480.737	6010
2482.695	5827
2484.653	5919
2486.609	5832
2488.567	5856
2490.524	5928
2492.478	6025
2494.433	5895
2496.387	5757
2498.343	5895
2500.297	5837
2502.249	5858
2504.202	5960
2506.153	5868
2508.105	5930
2510.057	5867
2512.008	5875
2513.957	5892
2515.906	5885
2517.855	5790
2519.805	5829
2521.754	5781
2523.7	5769
2525.647	5916
2527.594	5852
2529.54	5842
2531.486	5860
2533.431	5829
2535.376	5781
2537.32	5812
2539.263	5891
2541.207	5943
2543.151	5839
2545.093	5742
2547.034	5859
2548.975	5887
2550.917	5854
2552.856	5891
2554.796	5862
2556.735	5842
2558.673	5782
2560.611	5793
2562.55	5753
2564.487	5855
2566.424	5902
2568.36	5874
2570.296	5791
2572.232	5831
2574.167	5895
2576.101	5819
2578.035	5936
2579.969	5774
2581.902	5890
2583.834	5843
2585.766	5891
2587.698	5760
2589.628	5885
2591.557	5823
2593.489	5773
2595.419	5859
2597.348	5853
2599.275	5722
2601.204	5814
2603.131	5820
2605.059	5866
2606.986	5845
2608.911	5832
2610.837	5891
2612.76	5992
2614.687	5817
2616.61	5811
2618.534	5836
2620.457	5883
2622.38	5881
2624.302	5923
2626.225	5798
2628.145	5904
2630.067	5795
2631.986	5809
2633.906	5899
2635.827	5779
2637.745	5868
2639.662	5799
2641.581	5815
2643.498	5885
2645.415	5776
2647.331	5861
2649.248	5881
2651.163	5797
2653.077	5939
2654.993	5730
2656.906	5819
2658.821	5746
2660.733	5795
2662.646	5878
2664.557	5795
2666.47	5788
2668.381	5776
2670.291	5766
2672.201	5743
2674.11	5833
2676.021	5878
2677.929	5744
2679.837	5778
2681.745	5796
2683.652	5808
2685.56	5812
2687.466	5717
2689.371	5725
2691.276	5773
2693.181	5705
2695.085	5778
2696.991	5657
2698.893	5709
2700.796	5813
2702.698	5719
2704.601	5708
2706.502	5704
2708.404	5716
2710.304	5678
2712.203	5743
2714.103	5748
2716.003	5683
2717.902	5641
2719.8	5739
2721.697	5619
2723.594	5751
2725.49	5792
2727.389	5730
2729.283	5693
2731.179	5698
2733.073	5718
2734.968	5755
2736.863	5647
2738.757	5618
2740.649	5703
2742.541	5628
2744.433	5664
2746.324	5703
2748.216	5633
2750.107	5610
2751.997	5682
2753.886	5564
2755.776	5683
2757.666	5724
2759.553	5576
2761.44	5641
2763.327	5676
2765.215	5795
2767.102	5695
2768.988	5565
2770.873	5606
2772.757	5597
2774.641	5685
2776.525	5600
2778.41	5591
2780.292	5613
2782.175	5675
2784.057	5617
2785.938	5615
2787.821	5637
2789.701	5586
2791.581	5638
2793.461	5636
2795.34	5537
2797.219	5701
2799.099	5538
2800.975	5537
2802.853	5519
2804.73	5594
2806.606	5556
2808.484	5562
2810.358	5467
2812.233	5515
2814.108	5540
2815.981	5588
2817.857	5540
2819.73	5633
2821.602	5552
2823.474	5582
2825.346	5557
2827.217	5598
2829.089	5580
2830.959	5492
2832.829	5642
2834.698	5549
2836.567	5577
2838.436	5555
2840.305	5559
2842.172	5539
2844.04	5548
2845.905	5578
2847.772	5540
2849.639	5649
2851.503	5539
2853.369	5627
2855.232	5639
2857.096	5712
2858.961	5644
2860.824	5546
2862.686	5567
2864.547	5704
2866.41	5762
2868.272	5565
2870.132	5674
2871.992	5755
2873.851	5768
2875.711	5736
2877.57	5908
2879.429	5814
2881.287	5906
2883.144	5931
2885.001	5914
2886.857	6026
2888.714	5913
2890.57	5911
2892.425	5974
2894.279	5943
2896.133	5882
2897.987	6026
2899.842	5868
2901.694	5946
2903.547	5813
2905.397	5931
2907.249	5868
2909.101	5931
2910.952	5825
2912.802	5919
2914.652	5957
2916.5	6011
2918.35	6057
2920.198	6139
2922.045	6116
2923.893	6001
2925.74	6254
2927.585	6248
2929.433	6316
2931.279	6310
2933.123	6433
2934.968	6345
2936.811	6384
2938.656	6429
2940.5	6476
2942.342	6460
2944.185	6683
2946.026	6520
2947.87	6593
2949.71	6483
2951.549	6512
2953.39	6445
2955.229	6314
2957.069	6324
2958.908	6299
2960.746	6220
2962.584	6318
2964.421	6142
2966.257	6202
2968.094	6117
2969.931	6024
2971.766	6073
2973.601	5915
2975.435	5952
2977.27	6041
2979.105	5902
2980.938	5929
2982.77	5918
2984.602	5947
2986.434	5830
2988.267	5910
2990.097	5792
2991.927	5772
2993.757	5747
2995.587	5830
2997.417	5791
2999.246	5750
3001.074	5640
3002.902	5528
3004.729	5559
3006.556	5453
3008.384	5423
3010.21	5535
3012.036	5415
3013.861	5455
3015.684	5423
3017.51	5393
3019.334	5391
3021.157	5403
3022.981	5311
3024.802	5271
3026.624	5295
3028.448	5280
3030.267	5251
3032.088	5213
3033.909	5275
3035.728	5275
3037.549	5242
3039.368	5258
3041.186	5241
3043.004	5129
3044.821	5179
3046.64	5244
3048.455	5305
3050.272	5252
3052.087	5182
3053.903	5195
3055.717	5034
3057.534	5297
3059.347	5264
3061.16	5202
3062.974	5139
3064.785	5089
3066.598	5192
3068.411	5179
3070.222	5101
3072.032	5126
3073.844	5211
3075.653	5099
3077.463	5095
3079.272	5106
3081.08	5037
3082.889	5082
3084.697	5042
3086.505	5082
3088.312	5048
3090.118	5107
3091.924	5050
3093.729	5020
3095.535	5086
3097.34	5148
3099.144	5092
3100.947	5052
3102.75	5001
3104.553	4976
3106.357	5035
3108.159	4926
3109.961	4986
3111.762	4949
3113.562	4998
3115.365	5031
3117.164	4990
3118.964	5003
3120.761	5001
3122.56	4960
3124.36	4961
3126.158	4888
3127.954	4935
3129.75	4876
3131.547	4900
3133.343	4907
3135.139	4918
3136.934	4948
3138.729	4841
3140.522	4934
3142.317	5020
3144.11	4943
3145.904	4866
3147.695	4783
3149.488	4893
3151.28	4913
3153.07	4910
3154.863	4933
3156.652	4941
3158.441	4860
3160.231	4836
3162.019	4752
3163.81	4869
3165.597	4830
3167.384	4918
3169.172	4904
3170.958	4814
3172.745	4772
3174.532	4786
3176.317	4784
3178.101	4831
3179.885	4832
3181.67	4902
3183.455	4868
3185.238	4880
3187.02	4884
3188.802	4748
3190.585	4749
3192.368	4663
3194.149	4755
3195.929	4723
3197.709	4778
3199.489	4707
3201.268	4778
3203.048	4817
3204.826	4736
3206.604	4714
3208.382	4783
3210.159	4729
3211.937	4787
3213.713	4828
3215.489	4762
3217.263	4693
3219.038	4856
3220.815	4774
3222.589	4804
3224.363	4841
3226.136	4816
3227.908	4864
3229.681	4702
3231.454	4745
3233.226	4809
3234.996	4789
3236.767	4696
3238.538	4870
3240.308	4683
3242.078	4776
3243.847	4714
3245.615	4669
3247.384	4748
3249.15	4854
3250.92	4760
3252.686	4717
3254.453	4723
3256.218	4687
3257.984	4756
3259.75	4703
3261.515	4767
3263.279	4843
3265.044	4660
3266.806	4775
3268.57	4737
3270.334	4803
3272.095	4725
3273.856	4731
3275.619	4757
3277.379	4720
3279.14	4682
3280.9	4773
3282.661	4660
3284.419	4744
3286.178	4718
3287.937	4792
3289.695	4763
3291.453	4693
3293.21	4783
3294.967	4745
3296.723	4736
3298.48	4733
3300.235	4751
3301.99	4757
3303.744	4730
3305.498	4754
3307.253	4691
3309.006	4743
3310.759	4779
3312.511	4707
3314.263	4796
3316.017	4760
3317.768	4682
3319.519	4748
3321.268	4700
3323.018	4772
3324.767	4778
3326.518	4726
3328.267	4737
3330.014	4835
3331.762	4730
3333.509	4611
3335.258	4729
3337.003	4759
3338.75	4617
3340.496	4714
3342.24	4644
3343.987	4646
3345.732	4691
3347.475	4612
3349.219	4716
3350.961	4597
3352.705	4816
3354.448	4694
3356.19	4623
3357.931	4671
3359.672	4621
3361.412	4578
3363.155	4593
3364.894	4720
3366.633	4719
3368.372	4535
3370.11	4664
3371.849	4513
3373.588	4622
3375.325	4567
3377.061	4570
3378.799	4574
3380.534	4701
3382.271	4626
3384.006	4581
3385.741	4502
3387.475	4559
3389.209	4637
3390.944	4505
3392.677	4514
3394.409	4497
3396.143	4616
3397.874	4614
3399.606	4580
3401.338	4526
3403.069	4485
3404.799	4565
3406.528	4453
3408.258	4559
3409.988	4502
3411.717	4541
3413.445	4422
3415.173	4551
3416.899	4520
3418.626	4504
3420.354	4462
3422.08	4565
3423.806	4490
3425.531	4430
3427.255	4489
3428.981	4437
3430.705	4507
3432.429	4491
3434.151	4450
3435.875	4452
3437.599	4429
3439.321	4464
3441.042	4391
3442.763	4481
3444.483	4436
3446.204	4426
3447.926	4524
3449.645	4413
3451.364	4495
3453.082	4430
3454.801	4451
3456.52	4458
3458.238	4406
3459.954	4354
3461.671	4304
3463.387	4471
3465.104	4359
3466.82	4388
3468.534	4312
3470.25	4276
3471.963	4290
3473.676	4291
3475.392	4383
3477.104	4369
3478.817	4297
3480.528	4322
3482.241	4254
3483.954	4317
3485.664	4284
3487.374	4313
3489.084	4342
3490.795	4230
3492.504	4264
3494.214	4247
3495.922	4392
3497.63	4248
3499.338	4214
3501.045	4182
3502.753	4319
3504.459	4277
3506.166	4206
3507.871	4189
3509.576	4170
3511.283	4226
3512.987	4199
3514.691	4220
3516.395	4142
3518.098	4250
3519.8	4174
3521.504	4259
3523.206	4175
3524.908	4161
3526.609	4062
3528.309	4080
3530.011	4203
3531.711	4133
3533.411	4218
3535.109	4139
3536.808	4076
3538.507	4110
3540.206	4202
3541.904	4099
3543.601	4109
3545.297	4042
3546.994	4188
3548.69	4100
3550.387	4025
3552.081	4090
3553.776	4124
3555.47	4116
3557.166	4071
3558.859	4069
3560.553	4088
3562.245	4135
3563.938	4054
3565.629	4102
3567.322	4123
3569.014	4023
3570.704	4084
3572.394	4046
3574.084	4054
3575.775	3990
3577.464	4014
3579.152	4005
3580.842	4086
3582.529	4049
3584.216	4097
3585.905	3967
3587.591	3970
3589.279	3980
3590.964	4040
3592.649	3936
3594.336	4040
3596.021	3959
3597.705	3935
3599.388	3885
3601.072	3968
3602.757	3921
3604.439	3952
3606.122	3938
3607.803	3966
3609.485	4015
3611.167	4040
3612.849	3869
3614.529	3878
3616.208	3791
3617.888	3863
3619.567	3904
3621.247	3873
3622.926	3869
3624.603	3901
3626.281	3802
3627.958	3847
3629.635	3894
3631.312	3906
3632.989	3834
3634.665	3878
3636.339	3846
3638.014	3815
3639.691	3895
3641.364	3872
3643.038	3708
3644.71	3777
3646.384	3812
3648.058	3911
3649.729	3820
3651.402	3766
3653.073	3742
3654.744	3779
3656.414	3773
3658.085	3790
3659.755	3727
3661.424	3846
3663.094	3751
3664.762	3736
3666.431	3718
3668.099	3788
3669.766	3783
3671.433	3803
3673.099	3785
3674.768	3763
3676.433	3687
3678.098	3763
3679.763	3700
3681.428	3719
3683.093	3668
3684.757	3773
3686.421	3740
3688.083	3645
3689.746	3796
3691.408	3763
3693.071	3784
3694.733	3694
3696.394	3748
3698.054	3717
3699.715	3718
3701.375	3694
3703.036	3684
3704.695	3619
3706.354	3705
3708.012	3674
3709.67	3708
3711.329	3639
3712.987	3672
3714.644	3661
3716.299	3646
3717.955	3702
3719.613	3759
3721.268	3682
3722.923	3653
3724.577	3606
3726.231	3689
3727.885	3597
3729.539	3648
3731.192	3609
3732.845	3653
3734.497	3633
3736.149	3572
3737.802	3685
3739.453	3635
3741.104	3583
3742.753	3602
3744.404	3627
3746.052	3598
3747.704	3637
3749.352	3589
3751	3569
3752.648	3595
3754.296	3589
3755.944	3595
3757.59	3626
3759.238	3563
3760.883	3692
3762.528	3597
3764.176	3567
3765.82	3582
3767.464	3491
3769.109	3528
3770.753	3547
3772.396	3540
3774.04	3528
3775.683	3522
3777.325	3562
3778.967	3486
3780.608	3480
3782.25	3540
3783.89	3558
3785.531	3556
3787.17	3501
3788.81	3469
3790.45	3511
3792.09	3502
3793.729	3493
3795.366	3479
3797.003	3456
3798.64	3413
3800.278	3482
3801.915	3475
3803.551	3510
3805.187	3476
3806.822	3466
3808.458	3519
3810.093	3417
3811.726	3506
3813.36	3506
3814.994	3479
3816.627	3416
3818.262	3431
3819.893	3423
3821.525	3511
3823.157	3466
3824.787	3491
3826.42	3419
3828.051	3411
3829.68	3411
3831.31	3449
3832.938	3360
3834.569	3418
3836.198	3437
3837.825	3356
3839.454	3411
3841.08	3456
3842.708	3435
3844.335	3429
3845.962	3402
3847.587	3392
3849.212	3449
3850.838	3382
3852.463	3389
3854.089	3373
3855.712	3371
3857.335	3395
3858.959	3331
3860.582	3421
3862.205	3320
3863.827	3439
3865.449	3323
3867.07	3397
3868.691	3328
3870.312	3399
3871.933	3280
3873.553	3394
3875.173	3374
3876.792	3358
3878.411	3313
3880.03	3317
3881.647	3301
3883.265	3295
3884.882	3307
3886.499	3336
3888.116	3231
3889.732	3403
3891.348	3350
3892.964	3296
3894.579	3327
3896.195	3320
3897.809	3344
3899.423	3312
3901.036	3325
3902.648	3236
3904.261	3281
3905.875	3264
3907.487	3363
3909.099	3298
3910.709	3281
3912.321	3345
3913.933	3383
3915.542	3350
3917.152	3187
3918.762	3336
3920.37	3343
3921.98	3240
3923.589	3341
3925.196	3316
3926.804	3287
3928.41	3286
3930.018	3258
3931.626	3253
3933.231	3233
3934.838	3249
3936.442	3274
3938.046	3253
3939.653	3319
3941.257	3270
3942.861	3242
3944.464	3256
3946.068	3285
3947.67	3321
3949.273	3301
3950.876	3223
3952.477	3161
3954.078	3212
3955.678	3171
3957.281	3244
3958.881	3164
3960.48	3253
3962.079	3221
3963.678	3285
3965.279	3207
3966.877	3218
3968.475	3227
3970.072	3117
3971.669	3141
3973.266	3225
3974.864	3167
3976.459	3168
3978.055	3175
3979.65	3191
3981.245	3120
3982.841	3137
3984.436	3177
3986.03	3151
3987.623	3142
3989.216	3136
3990.809	3202
3992.403	3128
3993.995	3217
3995.586	3096
3997.177	3144
3998.768	3153
4000.361	3106
4001.951	3068
4003.54	3098
4005.13	3064
4006.719	3127
4008.31	3114
4009.897	3060
4011.485	3080
4013.073	3097
4014.66	3037
4016.247	3059
4017.834	3030
4019.421	3056
4021.006	3046
4022.592	3091
4024.178	3063
4025.763	3071
4027.348	3141
4028.932	3033
4030.515	3057
4032.099	3050
4033.682	3109
4035.266	3031
4036.847	3071
4038.429	2953
4040.011	2994
4041.592	2963
4043.173	3040
4044.755	3065
4046.334	2987
4047.913	3039
4049.494	3011
4051.074	3027
4052.652	3006
4054.23	2932
4055.807	2987
4057.385	3020
4058.963	2981
4060.541	2980
4062.117	2955
4063.693	2985
4065.269	3006
4066.844	3056
4068.42	2987
4069.995	2930
4071.569	2989
4073.143	2915
4074.716	2929
4076.291	2903
4077.864	2984
4079.436	3027
4081.009	2985
4082.58	2935
4084.152	2974
4085.723	2989
4087.294	2929
4088.865	2897
4090.435	2907
4092.005	2927
4093.574	2941
4095.143	2902
4096.712	2897
4098.279	2892
4099.848	2888
4101.416	2930
4102.984	2880
4104.55	2893
4106.117	2913
4107.682	2947
4109.248	2851
4110.815	2853
4112.379	2829
4113.945	2909
4115.508	2826
4117.073	2820
4118.637	2822
4120.201	2869
4121.763	2911
4123.325	2880
4124.888	2863
4126.449	2803
4128.013	2803
4129.573	2826
4131.133	2834
4132.694	2873
4134.254	2817
4135.814	2788
4137.374	2823
4138.933	2776
4140.491	2775
4142.049	2824
4143.607	2803
4145.167	2746
4146.724	2818
4148.28	2829
4149.836	2775
4151.392	2780
4152.949	2902
4154.504	2735
4156.059	2775
4157.614	2791
4159.168	2796
4160.723	2736
4162.277	2721
4163.83	2767
4165.383	2767
4166.936	2796
4168.488	2715
4170.041	2716
4171.593	2750
4173.144	2766
4174.695	2648
4176.246	2764
4177.796	2730
4179.346	2705
4180.896	2745
4182.445	2740
4183.994	2750
4185.542	2792
4187.091	2751
4188.639	2623
4190.185	2672
4191.732	2680
4193.279	2679
4194.826	2661
4196.373	2691
4197.918	2747
4199.463	2669
4201.008	2659
4202.553	2672
4204.098	2643
4205.641	2733
4207.185	2659
4208.728	2674
4210.271	2687
4211.814	2628
4213.357	2764
4214.898	2677
4216.439	2647
4217.98	2660
4219.522	2665
4221.062	2613
4222.603	2650
4224.142	2661
4225.681	2591
4227.222	2594
4228.76	2596
4230.298	2619
4231.835	2599
4233.373	2621
4234.911	2583
4236.449	2729
4237.985	2676
4239.521	2725
4241.057	2662
4242.592	2673
4244.128	2598
4245.663	2632
4247.197	2614
4248.731	2604
4250.265	2612
4251.798	2660
4253.333	2633
4254.865	2626
4256.397	2593
4257.93	2641
4259.461	2606
4260.994	2614
4262.525	2620
4264.056	2563
4265.586	2565
4267.115	2617
4268.646	2599
4270.176	2511
4271.705	2515
4273.232	2568
4274.761	2556
4276.289	2538
4277.818	2515
4279.345	2589
4280.872	2549
4282.399	2592
4283.924	2589
4285.452	2606
4286.976	2484
4288.502	2614
4290.026	2551
4291.551	2576
4293.074	2603
4294.6	2534
4296.123	2567
4297.646	2582
4299.168	2518
4300.691	2559
4302.214	2532
4303.736	2532
4305.257	2535
4306.778	2493
4308.299	2559
4309.82	2457
4311.34	2520
4312.86	2499
4314.379	2543
