400.0745	6491
402.597	6505
405.1208	6495
407.6419	6538
410.1623	6666
412.6819	6535
415.201	6540
417.7172	6549
420.2369	6673
422.7538	6782
425.2701	6809
427.7856	6692
430.3005	6822
432.8147	6851
435.3282	6832
437.841	6880
440.3511	6906
442.8625	6898
445.3753	6912
447.8854	6988
450.3927	6917
452.9014	6913
455.4073	6892
457.9146	7038
460.4233	6977
462.9272	6992
465.4325	7052
467.935	6919
470.4389	6915
472.9421	7059
475.4446	7089
477.9444	7013
480.4456	7138
482.944	7168
485.4417	7145
487.9429	7116
490.4393	7014
492.935	7176
495.4321	7139
497.9264	7253
500.4221	7303
502.9171	7312
505.4094	7309
507.9011	7315
510.392	7214
512.8864	7367
515.3759	7345
517.8649	7225
520.3531	7398
522.8406	7229
525.3275	7343
527.8178	7401
530.3033	7425
532.7881	7390
535.2723	7353
537.7558	7320
540.2407	7273
542.7228	7365
545.2043	7387
547.6851	7290
550.1652	7341
552.6467	7388
555.1255	7424
557.6016	7356
560.079	7514
562.5557	7380
565.0318	7393
567.5092	7441
569.984	7495
572.456	7502
574.9294	7476
577.4022	7494
579.8762	7559
582.3456	7685
584.8163	7445
587.2863	7591
589.7557	7575
592.2224	7618
594.6924	7514
597.1578	7709
599.6245	7552
602.0905	7585
604.5538	7574
607.0206	7555
609.4825	7640
611.9459	7465
614.4066	7672
616.8686	7690
619.33	7596
621.7906	7632
624.2487	7670
626.708	7607
629.1647	7515
631.6207	7512
634.0801	7613
636.5348	7587
638.9888	7727
641.4442	7749
643.8969	7600
646.3509	7726
648.8022	7768
651.255	7704
653.705	7706
656.1544	7649
658.6031	7957
661.0532	7801
663.5026	7870
665.9493	7839
668.3954	7816
670.8409	7799
673.2877	7910
675.7318	7733
678.1752	7815
680.618	7838
683.0601	7884
685.5035	7862
687.9444	7877
690.3845	7772
692.824	7978
695.2628	7946
697.701	7934
700.1406	7877
702.5774	7819
705.0116	8034
707.4472	8041
709.8821	8002
712.3183	7956
714.7519	8158
717.1829	7979
719.6151	8118
722.0468	8109
724.4777	8073
726.908	8323
729.3377	8098
731.7667	8158
734.1931	8405
736.6208	8223
739.0498	8293
741.4742	8306
743.9	8261
746.3231	8271
748.7476	8407
751.1713	8434
753.5945	8423
756.015	8318
758.4368	8581
760.856	8480
763.2766	8560
765.6965	8573
768.1157	8363
770.5323	8497
772.9483	8373
775.3656	8522
777.7822	8421
780.1963	8345
782.6116	8516
785.0244	8416
787.4365	8673
789.8499	8515
792.2626	8508
794.6728	8516
797.0823	8463
799.4911	8518
801.8994	8489
804.3109	8549
806.7178	8772
809.124	8581
811.5297	8538
813.9347	8615
816.341	8591
818.7447	8669
821.1478	8547
823.5502	8614
825.952	8711
828.3531	8534
830.7556	8623
833.1554	8621
835.5546	8661
837.9532	8670
840.3511	8648
842.7504	8661
845.1451	8588
847.5411	8591
849.9365	8628
852.3312	8747
854.7272	8683
857.1187	8763
859.5115	8707
861.9037	8787
864.2952	8684
866.6842	8700
869.0764	8670
871.4661	8750
873.8531	8698
876.2415	8842
878.6272	8741
881.0162	8707
883.4026	8600
885.7866	8653
888.1717	8815
890.5543	8776
892.9382	8596
895.3215	8660
897.7041	8712
900.0842	8772
902.4655	8692
904.8443	8864
907.2244	8781
909.6039	8847
911.9808	8746
914.357	8893
916.7346	8982
919.1115	8999
921.4859	9185
923.8616	9109
926.2347	9001
928.6071	9109
930.979	9082
933.3541	8994
935.7247	9107
938.0946	8992
940.4639	9171
942.8326	9236
945.2026	9107
947.5701	9208
949.9369	9182
952.305	9336
954.6705	9460
957.0355	9600
959.4017	9689
961.7654	9873
964.1284	9721
966.4908	9700
968.8527	9564
971.2138	9515
973.5743	9288
975.9343	9137
978.2936	9195
980.6522	9097
983.0122	8961
985.3696	9008
987.7245	8988
990.0807	8916
992.4362	8930
994.7911	8920
997.1474	9050
999.4991	9079
1001.852	9118
1004.205	9060
1006.555	8916
1008.908	9010
1011.258	8994
1013.606	9021
1015.956	8938
1018.302	9125
1020.652	9000
1022.998	9023
1025.345	9066
1027.691	9061
1030.035	9072
1032.378	9083
1034.724	9135
1037.066	9215
1039.409	9057
1041.75	9153
1044.092	9154
1046.433	9124
1048.771	9003
1051.112	9054
1053.449	9140
1055.786	9079
1058.124	9107
1060.462	9073
1062.797	9285
1065.131	9147
1067.467	9232
1069.8	9175
1072.135	9215
1074.467	9400
1076.798	9211
1079.129	9153
1081.459	9218
1083.792	9230
1086.121	9274
1088.449	9291
1090.777	9167
1093.104	9125
1095.431	9217
1097.759	9314
1100.084	9349
1102.408	9158
1104.732	9301
1107.056	9269
1109.379	9219
1111.701	9247
1114.022	9133
1116.343	9332
1118.664	9210
1120.983	9252
1123.303	9340
1125.621	9310
1127.939	9359
1130.256	9440
1132.573	9357
1134.889	9468
1137.205	9317
1139.52	9228
1141.832	9342
1144.146	9397
1146.461	9308
1148.771	9499
1151.083	9311
1153.392	9397
1155.703	9347
1158.011	9223
1160.323	9356
1162.629	9331
1164.938	9388
1167.243	9227
1169.55	9286
1171.857	9230
1174.163	9414
1176.466	9269
1178.769	9416
1181.073	9347
1183.374	9374
1185.677	9316
1187.979	9419
1190.279	9302
1192.578	9481
1194.878	9258
1197.178	9393
1199.476	9308
1201.772	9400
1204.068	9292
1206.366	9323
1208.663	9240
1210.957	9351
1213.251	9432
1215.544	9266
1217.836	9320
1220.128	9509
1222.421	9270
1224.712	9519
1227.002	9455
1229.292	9633
1231.581	9496
1233.871	9495
1236.159	9491
1238.446	9476
1240.732	9635
1243.018	9595
1245.304	9631
1247.59	9532
1249.874	9626
1252.156	9570
1254.439	9600
1256.721	9738
1259.005	9571
1261.286	9541
1263.565	9688
1265.845	9419
1268.125	9566
1270.403	9598
1272.682	9599
1274.959	9647
1277.234	9773
1279.511	9659
1281.787	9581
1284.062	9455
1286.337	9543
1288.609	9588
1290.882	9508
1293.153	9451
1295.428	9520
1297.698	9550
1299.969	9504
1302.237	9493
1304.507	9387
1306.777	9426
1309.044	9539
1311.312	9453
1313.578	9454
1315.844	9527
1318.109	9388
1320.375	9512
1322.638	9485
1324.903	9508
1327.165	9444
1329.427	9475
1331.69	9447
1333.952	9574
1336.212	9562
1338.471	9553
1340.73	9494
1342.988	9375
1345.248	9408
1347.505	9537
1349.763	9603
1352.019	9499
1354.274	9467
1356.53	9605
1358.784	9447
1361.038	9530
1363.291	9442
1365.543	9436
1367.797	9496
1370.048	9478
1372.296	9493
1374.546	9597
1376.796	9634
1379.045	9497
1381.295	9567
1383.542	9533
1385.787	9637
1388.034	9611
1390.28	9659
1392.527	9625
1394.772	9688
1397.014	9622
1399.258	9610
1401.501	9754
1403.741	9629
1405.985	9677
1408.226	9700
1410.465	9856
1412.705	9639
1414.943	9688
1417.184	9723
1419.42	9722
1421.658	9584
1423.894	9840
1426.13	9746
1428.366	9679
1430.602	9714
1432.835	9865
1435.069	9773
1437.301	9928
1439.535	9803
1441.767	10004
1443.997	9879
1446.229	9754
1448.458	9772
1450.687	9923
1452.916	9929
1455.146	9875
1457.372	9837
1459.599	10015
1461.824	9933
1464.051	9887
1466.277	9809
1468.501	9918
1470.725	9855
1472.948	9808
1475.17	9676
1477.393	9633
1479.614	9692
1481.837	9677
1484.057	9496
1486.276	9546
1488.497	9612
1490.715	9538
1492.932	9583
1495.148	9523
1497.364	9526
1499.58	9529
1501.798	9533
1504.012	9358
1506.227	9590
1508.44	9458
1510.653	9486
1512.866	9624
1515.078	9415
1517.289	9380
1519.5	9472
1521.711	9442
1523.92	9541
1526.13	9524
1528.338	9413
1530.544	9566
1532.752	9536
1534.959	9496
1537.165	9426
1539.371	9535
1541.574	9677
1543.779	9589
1545.983	9438
1548.187	9513
1550.39	9633
1552.59	9484
1554.792	9640
1556.991	9567
1559.19	9645
1561.392	9698
1563.59	9560
1565.789	9598
1567.986	9752
1570.182	9677
1572.381	9703
1574.576	9671
1576.771	9684
1578.966	9696
1581.16	9664
1583.354	9829
1585.546	9622
1587.74	9709
1589.931	9735
1592.121	9770
1594.311	9753
1596.502	9776
1598.693	9805
1600.881	9823
1603.069	9739
1605.256	9665
1607.445	9647
1609.631	9822
1611.816	9736
1614.001	9715
1616.186	9733
1618.37	9689
1620.555	9804
1622.737	9824
1624.919	9779
1627.101	9678
1629.282	9699
1631.463	9727
1633.643	9802
1635.822	9755
1638.001	9875
1640.179	9902
1642.359	9798
1644.534	9743
1646.711	9776
1648.887	9787
1651.062	9803
1653.235	9846
1655.412	9785
1657.586	9743
1659.757	9926
1661.93	9722
1664.1	9988
1666.274	9932
1668.445	9780
1670.614	9864
1672.784	9974
1674.951	9856
1677.12	9829
1679.289	9901
1681.457	9727
1683.622	9725
1685.789	9811
1687.953	9824
1690.121	9686
1692.284	9740
1694.447	9828
1696.611	9620
1698.772	9733
1700.935	9780
1703.098	9613
1705.258	9670
1707.417	9688
1709.576	9762
1711.736	9920
1713.896	9733
1716.053	9671
1718.21	9683
1720.366	9676
1722.522	9666
1724.68	9652
1726.835	9729
1728.989	9614
1731.142	9700
1733.295	9776
1735.449	9725
1737.601	9579
1739.753	9613
1741.903	9761
1744.054	9657
1746.203	9824
1748.354	9606
1750.503	9746
1752.651	9666
1754.798	9667
1756.944	9640
1759.092	9785
1761.238	9675
1763.383	9589
1765.528	9822
1767.672	9782
1769.814	9749
1771.959	9721
1774.102	9745
1776.242	9720
1778.384	9718
1780.525	9850
1782.665	9696
1784.805	9799
1786.945	9749
1789.082	9906
1791.22	9765
1793.36	9823
1795.495	9793
1797.632	9816
1799.766	9799
1801.902	9824
1804.035	9854
1806.172	9645
1808.304	9913
1810.436	9711
1812.569	9620
1814.699	9890
1816.833	9830
1818.963	9642
1821.092	9680
1823.222	9745
1825.35	9662
1827.478	9684
1829.608	9625
1831.734	9708
1833.86	9726
1835.986	9771
1838.11	9746
1840.238	9647
1842.362	9666
1844.485	9759
1846.608	9705
1848.73	9795
1850.853	9530
1852.974	9691
1855.097	9587
1857.217	9629
1859.336	9671
1861.455	9468
1863.576	9564
1865.693	9725
1867.811	9572
1869.926	9505
1872.042	9629
1874.16	9674
1876.275	9526
1878.39	9574
1880.504	9570
1882.618	9692
1884.731	9653
1886.843	9763
1888.956	9585
1891.067	9712
1893.178	9611
1895.287	9469
1897.399	9730
1899.508	9657
1901.617	9775
1903.724	9613
1905.832	9842
1907.941	9794
1910.046	9863
1912.152	9709
1914.256	9592
1916.361	9660
1918.464	9832
1920.57	9716
1922.672	9692
1924.775	9672
1926.876	9599
1928.978	9696
1931.08	9889
1933.181	9607
1935.28	9742
1937.38	9920
1939.478	9842
1941.577	9857
1943.675	9885
1945.771	9764
1947.867	9742
1949.964	9836
1952.058	9847
1954.154	9677
1956.248	9702
1958.343	9734
1960.435	9711
1962.527	9869
1964.62	9608
1966.711	9900
1968.802	9748
1970.892	9612
1972.983	9700
1975.072	9674
1977.162	9734
1979.25	9726
1981.337	9674
1983.424	9734
1985.51	9658
1987.598	9696
1989.683	9691
1991.768	9554
1993.852	9596
1995.934	9736
1998.019	9579
2000.102	9604
2002.184	9786
2004.266	9616
2006.347	9496
2008.427	9621
2010.508	9636
2012.587	9708
2014.666	9609
2016.745	9572
2018.821	9642
2020.9	9545
2022.977	9769
2025.052	9593
2027.128	9568
2029.204	9593
2031.277	9754
2033.353	9558
2035.425	9560
2037.499	9524
2039.57	9600
2041.642	9637
2043.714	9584
2045.786	9680
2047.855	9548
2049.925	9514
2051.993	9585
2054.064	9747
2056.132	9685
2058.2	9680
2060.266	9557
2062.332	9614
2064.398	9476
2066.465	9600
2068.529	9486
2070.592	9502
2072.657	9596
2074.719	9541
2076.783	9737
2078.845	9607
2080.907	9785
2082.968	9458
2085.028	9609
2087.087	9586
2089.148	9622
2091.207	9531
2093.264	9544
2095.322	9624
2097.379	9693
2099.439	9572
2101.495	9568
2103.55	9635
2105.605	9504
2107.658	9565
2109.713	9468
2111.767	9557
2113.82	9564
2115.872	9530
2117.924	9618
2119.975	9512
2122.028	9478
2124.078	9627
2126.126	9631
2128.176	9479
2130.225	9636
2132.275	9474
2134.321	9539
2136.368	9590
2138.415	9569
2140.461	9560
2142.505	9547
2144.552	9493
2146.597	9452
2148.64	9649
2150.684	9460
2152.725	9459
2154.77	9592
2156.811	9470
2158.852	9453
2160.894	9492
2162.933	9474
2164.973	9450
2167.013	9442
2169.051	9509
2171.089	9494
2173.126	9528
2175.164	9419
2177.201	9416
2179.236	9306
2181.273	9469
2183.307	9511
2185.341	9559
2187.377	9374
2189.41	9210
2191.442	9535
2193.473	9428
2195.506	9353
2197.539	9312
2199.569	9336
2201.598	9425
2203.628	9354
2205.656	9381
2207.686	9315
2209.716	9431
2211.743	9244
2213.769	9287
2215.796	9318
2217.821	9193
2219.848	9323
2221.873	9114
2223.897	9250
2225.921	9142
2227.944	9196
2229.967	9223
2231.991	9248
2234.011	9207
2236.032	9064
2238.053	9231
2240.073	9254
2242.094	9187
2244.114	9221
2246.131	9166
2248.149	9274
2250.167	9282
2252.186	9090
2254.201	9278
2256.218	9209
2258.233	9407
2260.247	9358
2262.262	9300
2264.278	9205
2266.29	9274
2268.303	9193
2270.315	9227
2272.327	9336
2274.341	9174
2276.35	9209
2278.361	9283
2280.37	9170
2282.38	9227
2284.388	9185
2286.397	9184
2288.405	9251
2290.412	9175
2292.419	9275
2294.425	9232
2296.431	9250
2298.437	9342
2300.441	9184
2302.445	9074
2304.449	9218
2306.453	9110
2308.455	9119
2310.457	9066
2312.459	9189
2314.46	9191
2316.46	9141
2318.461	9114
2320.46	9122
2322.458	9108
2324.458	9087
2326.456	9073
2328.455	9215
2330.451	9094
2332.447	9091
2334.443	9017
2336.438	9177
2338.433	8941
2340.429	8956
2342.422	9105
2344.416	9123
2346.408	9073
2348.399	8989
2350.393	9028
2352.384	9056
2354.375	8997
2356.365	8945
2358.355	9005
2360.344	9030
2362.333	8924
2364.322	8946
2366.309	9007
2368.295	8956
2370.282	8967
2372.27	8936
2374.256	8902
2376.24	9007
2378.225	8776
2380.208	8935
2382.194	8924
2384.177	8957
2386.159	9012
2388.142	8896
2390.122	8964
2392.105	8800
2394.085	8908
2396.066	8912
2398.044	8855
2400.024	8974
2402.002	8907
2403.982	8815
2405.959	8879
2407.935	8930
2409.913	8848
2411.888	8793
2413.865	8830
2415.84	8603
2417.814	8883
2419.788	8831
2421.762	8762
2423.735	8769
2425.708	8621
2427.68	8805
2429.651	8974
2431.623	8787
2433.593	8887
2435.564	8849
2437.533	8829
2439.502	8932
2441.47	8702
2443.438	8894
2445.406	8838
2447.373	8609
2449.34	8773
2451.305	8736
2453.271	8768
2455.235	8716
2457.201	8638
2459.165	8742
2461.129	8812
2463.092	8730
2465.054	8686
2467.018	8627
2468.978	8751
2470.939	8662
2472.899	8741
2474.86	8635
2476.819	8744
2478.778	8648
2480.737	8498
2482.695	8626
2484.653	8671
2486.609	8637
2488.567	8693
2490.524	8693
2492.478	8737
2494.433	8555
2496.387	8679
2498.343	8601
2500.297	8707
2502.249	8748
2504.202	8605
2506.153	8569
2508.105	8472
2510.057	8534
2512.008	8615
2513.957	8691
2515.906	8647
2517.855	8539
2519.805	8511
2521.754	8517
2523.7	8571
2525.647	8653
2527.594	8572
2529.54	8627
2531.486	8556
2533.431	8512
2535.376	8677
2537.32	8508
2539.263	8530
2541.207	8531
2543.151	8601
2545.093	8518
2547.034	8428
2548.975	8418
2550.917	8483
2552.856	8583
2554.796	8531
2556.735	8492
2558.673	8583
2560.611	8536
2562.55	8557
2564.487	8648
2566.424	8554
2568.36	8645
2570.296	8458
2572.232	8606
2574.167	8534
2576.101	8460
2578.035	8457
2579.969	8492
2581.902	8545
2583.834	8465
2585.766	8466
2587.698	8461
2589.628	8483
2591.557	8531
2593.489	8617
2595.419	8542
2597.348	8404
2599.275	8593
2601.204	8554
2603.131	8563
2605.059	8467
2606.986	8544
2608.911	8610
2610.837	8582
2612.76	8466
2614.687	8592
2616.61	8390
2618.534	8601
2620.457	8676
2622.38	8510
2624.302	8520
2626.225	8437
2628.145	8556
2630.067	8625
2631.986	8609
2633.906	8531
2635.827	8564
2637.745	8542
2639.662	8458
2641.581	8665
2643.498	8589
2645.415	8588
2647.331	8616
2649.248	8488
2651.163	8400
2653.077	8414
2654.993	8505
2656.906	8383
2658.821	8470
2660.733	8479
2662.646	8529
2664.557	8425
2666.47	8475
2668.381	8359
2670.291	8459
2672.201	8413
2674.11	8594
2676.021	8512
2677.929	8412
2679.837	8432
2681.745	8393
2683.652	8477
2685.56	8304
2687.466	8366
2689.371	8378
2691.276	8324
2693.181	8286
2695.085	8402
2696.991	8311
2698.893	8329
2700.796	8345
2702.698	8334
2704.601	8194
2706.502	8314
2708.404	8116
2710.304	8292
2712.203	8298
2714.103	8293
2716.003	8315
2717.902	8205
2719.8	8146
2721.697	8290
2723.594	8178
2725.49	8311
2727.389	8206
2729.283	8249
2731.179	8262
2733.073	8222
2734.968	8224
2736.863	8290
2738.757	8187
2740.649	8269
2742.541	8274
2744.433	8207
2746.324	8291
2748.216	8141
2750.107	8207
2751.997	8073
2753.886	8051
2755.776	8157
2757.666	8311
2759.553	8257
2761.44	8320
2763.327	8204
2765.215	8084
2767.102	8143
2768.988	8087
2770.873	8067
2772.757	8255
2774.641	8084
2776.525	8102
2778.41	7961
2780.292	8083
2782.175	8121
2784.057	8113
2785.938	8019
2787.821	8225
2789.701	8258
2791.581	8246
2793.461	8141
2795.34	8128
2797.219	8007
2799.099	8122
2800.975	7954
2802.853	8151
2804.73	8050
2806.606	8026
2808.484	8134
2810.358	8117
2812.233	8141
2814.108	8083
2815.981	7985
2817.857	7999
2819.73	7804
2821.602	8192
2823.474	8081
2825.346	8163
2827.217	7881
2829.089	8061
2830.959	7958
2832.829	8051
2834.698	7981
2836.567	8029
2838.436	8023
2840.305	8113
2842.172	8013
2844.04	8075
2845.905	8033
2847.772	8061
2849.639	8108
2851.503	8251
2853.369	8124
2855.232	8077
2857.096	8188
2858.961	8133
2860.824	8146
2862.686	8180
2864.547	8102
2866.41	8108
2868.272	8152
2870.132	8340
2871.992	8187
2873.851	8200
2875.711	8223
2877.57	8312
2879.429	8378
2881.287	8361
2883.144	8348
2885.001	8510
2886.857	8381
2888.714	8527
2890.57	8493
2892.425	8441
2894.279	8485
2896.133	8433
2897.987	8506
2899.842	8401
2901.694	8496
2903.547	8484
2905.397	8304
2907.249	8258
2909.101	8304
2910.952	8365
2912.802	8524
2914.652	8394
2916.5	8363
2918.35	8577
2920.198	8514
2922.045	8443
2923.893	8637
2925.74	8567
2927.585	8613
2929.433	8593
2931.279	8631
2933.123	8664
2934.968	8757
2936.811	8648
2938.656	8630
2940.5	8677
2942.342	8808
2944.185	8862
2946.026	8736
2947.87	8878
2949.71	8831
2951.549	8725
2953.39	8754
2955.229	8867
2957.069	8714
2958.908	8691
2960.746	8725
2962.584	8581
2964.421	8648
2966.257	8539
2968.094	8534
2969.931	8503
2971.766	8561
2973.601	8504
2975.435	8226
2977.27	8299
2979.105	8175
2980.938	8256
2982.77	8222
2984.602	8109
2986.434	8124
2988.267	8207
2990.097	8027
2991.927	8009
2993.757	8014
2995.587	8082
2997.417	7948
2999.246	8009
3001.074	7968
3002.902	7827
3004.729	7692
3006.556	7804
3008.384	7812
3010.21	7618
3012.036	7767
3013.861	7550
3015.684	7678
3017.51	7690
3019.334	7645
3021.157	7617
3022.981	7623
3024.802	7393
3026.624	7585
3028.448	7498
3030.267	7628
3032.088	7438
3033.909	7462
3035.728	7535
3037.549	7499
3039.368	7468
3041.186	7406
3043.004	7462
3044.821	7530
3046.64	7386
3048.455	7276
3050.272	7302
3052.087	7291
3053.903	7369
3055.717	7367
3057.534	7554
3059.347	7201
3061.16	7430
3062.974	7370
3064.785	7383
3066.598	7378
3068.411	7484
3070.222	7357
3072.032	7386
3073.844	7280
3075.653	7296
3077.463	7355
3079.272	7263
3081.08	7253
3082.889	7342
3084.697	7145
3086.505	7264
3088.312	7137
3090.118	7234
3091.924	7184
3093.729	7244
3095.535	7167
3097.34	7086
3099.144	7194
3100.947	7162
3102.75	7137
3104.553	7128
3106.357	7103
3108.159	7182
3109.961	7144
3111.762	7161
3113.562	7125
3115.365	7079
3117.164	7033
3118.964	7032
3120.761	7115
3122.56	7100
3124.36	6988
3126.158	6957
3127.954	7083
3129.75	7089
3131.547	7129
3133.343	7011
3135.139	7064
3136.934	7007
3138.729	6945
3140.522	6959
3142.317	7124
3144.11	6940
3145.904	6900
3147.695	6813
3149.488	6937
3151.28	6959
3153.07	6908
3154.863	6950
3156.652	6824
3158.441	6902
3160.231	6918
3162.019	6801
3163.81	6842
3165.597	6897
3167.384	6836
3169.172	6960
3170.958	6952
3172.745	6918
3174.532	6932
3176.317	6833
3178.101	6902
3179.885	6758
3181.67	6814
3183.455	6862
3185.238	6827
3187.02	6800
3188.802	6831
3190.585	6831
3192.368	6800
3194.149	6934
3195.929	6806
3197.709	6730
3199.489	6698
3201.268	6751
3203.048	6804
3204.826	6760
3206.604	6715
3208.382	6653
3210.159	6724
3211.937	6725
3213.713	6788
3215.489	6817
3217.263	6728
3219.038	6666
3220.815	6639
3222.589	6755
3224.363	6728
3226.136	6691
3227.908	6676
3229.681	6638
3231.454	6712
3233.226	6729
3234.996	6838
3236.767	6755
3238.538	6711
3240.308	6598
3242.078	6720
3243.847	6703
3245.615	6598
3247.384	6774
3249.15	6671
3250.92	6609
3252.686	6750
3254.453	6597
3256.218	6628
3257.984	6613
3259.75	6653
3261.515	6721
3263.279	6654
3265.044	6582
3266.806	6767
3268.57	6639
3270.334	6639
3272.095	6515
3273.856	6632
3275.619	6606
3277.379	6633
3279.14	6620
3280.9	6585
3282.661	6563
3284.419	6652
3286.178	6705
3287.937	6503
3289.695	6659
3291.453	6617
3293.21	6647
3294.967	6582
3296.723	6573
3298.48	6611
3300.235	6642
3301.99	6475
3303.744	6565
3305.498	6581
3307.253	6529
3309.006	6503
3310.759	6523
3312.511	6655
3314.263	6481
3316.017	6648
3317.768	6535
3319.519	6518
3321.268	6482
3323.018	6502
3324.767	6536
3326.518	6577
3328.267	6422
3330.014	6341
3331.762	6395
3333.509	6433
3335.258	6505
3337.003	6460
3338.75	6467
3340.496	6496
3342.24	6406
3343.987	6462
3345.732	6403
3347.475	6395
3349.219	6393
3350.961	6422
3352.705	6452
3354.448	6464
3356.19	6455
3357.931	6463
3359.672	6423
3361.412	6372
3363.155	6449
3364.894	6393
3366.633	6387
3368.372	6364
3370.11	6269
3371.849	6315
3373.588	6429
3375.325	6434
3377.061	6385
3378.799	6380
3380.534	6320
3382.271	6385
3384.006	6328
3385.741	6220
3387.475	6379
3389.209	6227
3390.944	6267
3392.677	6334
3394.409	6278
3396.143	6372
3397.874	6195
3399.606	6337
3401.338	6286
3403.069	6233
3404.799	6249
3406.528	6300
3408.258	6260
3409.988	6144
3411.717	6229
3413.445	6178
3415.173	6265
3416.899	6277
3418.626	6256
3420.354	6195
3422.08	6239
3423.806	6260
3425.531	6254
3427.255	6204
3428.981	6168
3430.705	6182
3432.429	6199
3434.151	6213
3435.875	6210
3437.599	6172
3439.321	6186
3441.042	6178
3442.763	6124
3444.483	6056
3446.204	6068
3447.926	6078
3449.645	6037
3451.364	6089
3453.082	6016
3454.801	6085
3456.52	6075
3458.238	5939
3459.954	6004
3461.671	5940
3463.387	6059
3465.104	6029
3466.82	5961
3468.534	6021
3470.25	6039
3471.963	5978
3473.676	5991
3475.392	5952
3477.104	5971
3478.817	6087
3480.528	5900
3482.241	5999
3483.954	5944
3485.664	6003
3487.374	5859
3489.084	5898
3490.795	5974
3492.504	5947
3494.214	5872
3495.922	5852
3497.63	5756
3499.338	5843
3501.045	5925
3502.753	5844
3504.459	5943
3506.166	5943
3507.871	5822
3509.576	5843
3511.283	5933
3512.987	5790
3514.691	5818
3516.395	5832
3518.098	5748
3519.8	5749
3521.504	5741
3523.206	5790
3524.908	5775
3526.609	5708
3528.309	5741
3530.011	5643
3531.711	5748
3533.411	5738
3535.109	5771
3536.808	5775
3538.507	5772
3540.206	5714
3541.904	5726
3543.601	5698
3545.297	5821
3546.994	5782
3548.69	5710
3550.387	5697
3552.081	5782
3553.776	5718
3555.47	5651
3557.166	5717
3558.859	5577
3560.553	5663
3562.245	5598
3563.938	5677
3565.629	5611
3567.322	5645
3569.014	5583
3570.704	5625
3572.394	5473
3574.084	5625
3575.775	5604
3577.464	5541
3579.152	5526
3580.842	5524
3582.529	5555
3584.216	5609
3585.905	5595
3587.591	5598
3589.279	5569
3590.964	5477
3592.649	5560
3594.336	5624
3596.021	5626
3597.705	5507
3599.388	5448
3601.072	5543
3602.757	5422
3604.439	5576
3606.122	5460
3607.803	5471
3609.485	5484
3611.167	5499
3612.849	5424
3614.529	5465
3616.208	5387
3617.888	5457
3619.567	5382
3621.247	5372
3622.926	5415
3624.603	5379
3626.281	5378
3627.958	5405
3629.635	5376
3631.312	5442
3632.989	5359
3634.665	5439
3636.339	5408
3638.014	5339
3639.691	5292
3641.364	5330
3643.038	5297
3644.71	5259
3646.384	5322
3648.058	5254
3649.729	5335
3651.402	5302
3653.073	5285
3654.744	5256
3656.414	5257
3658.085	5217
3659.755	5242
3661.424	5281
3663.094	5292
3664.762	5283
3666.431	5309
3668.099	5179
3669.766	5258
3671.433	5221
3673.099	5222
3674.768	5151
3676.433	5154
3678.098	5257
3679.763	5092
3681.428	5183
3683.093	5183
3684.757	5177
3686.421	5151
3688.083	5195
3689.746	5226
3691.408	5253
3693.071	5219
3694.733	5153
3696.394	5159
3698.054	5230
3699.715	5130
3701.375	5191
3703.036	5201
3704.695	5243
3706.354	5069
3708.012	5136
3709.67	5041
3711.329	5163
3712.987	5161
3714.644	5158
3716.299	5095
3717.955	5246
3719.613	5064
3721.268	5136
3722.923	5139
3724.577	5093
3726.231	5090
3727.885	5166
3729.539	5115
3731.192	5095
3732.845	5053
3734.497	5240
3736.149	5022
3737.802	5031
3739.453	5102
3741.104	5069
3742.753	5121
3744.404	5089
3746.052	5013
3747.704	4973
3749.352	5053
3751	4957
3752.648	5022
3754.296	5084
3755.944	5098
3757.59	4897
3759.238	5023
3760.883	4950
3762.528	4981
3764.176	4966
3765.82	4998
3767.464	4997
3769.109	5002
3770.753	4949
3772.396	4968
3774.04	4994
3775.683	4917
3777.325	4907
3778.967	4852
3780.608	4941
3782.25	4966
3783.89	4938
3785.531	4950
3787.17	4887
3788.81	4887
3790.45	4885
3792.09	4847
3793.729	4816
3795.366	4929
3797.003	4881
3798.64	4829
3800.278	4855
3801.915	4794
3803.551	4886
3805.187	4911
3806.822	4788
3808.458	4905
3810.093	4750
3811.726	4849
3813.36	4834
3814.994	4733
3816.627	4904
3818.262	4798
3819.893	4877
3821.525	4914
3823.157	4821
3824.787	4800
3826.42	4749
3828.051	4851
3829.68	4887
3831.31	4779
3832.938	4723
3834.569	4749
3836.198	4772
3837.825	4692
3839.454	4816
3841.08	4777
3842.708	4690
3844.335	4743
3845.962	4646
3847.587	4706
3849.212	4759
3850.838	4664
3852.463	4724
3854.089	4730
3855.712	4682
3857.335	4638
3858.959	4769
3860.582	4591
3862.205	4604
3863.827	4635
3865.449	4638
3867.07	4613
3868.691	4615
3870.312	4591
3871.933	4611
3873.553	4657
3875.173	4645
3876.792	4605
3878.411	4658
3880.03	4674
3881.647	4494
3883.265	4673
3884.882	4641
3886.499	4559
3888.116	4639
3889.732	4547
3891.348	4572
3892.964	4609
3894.579	4594
3896.195	4546
3897.809	4559
3899.423	4570
3901.036	4602
3902.648	4529
3904.261	4573
3905.875	4639
3907.487	4591
3909.099	4503
3910.709	4556
3912.321	4563
3913.933	4635
3915.542	4659
3917.152	4581
3918.762	4558
3920.37	4571
3921.98	4586
3923.589	4531
3925.196	4468
3926.804	4542
3928.41	4548
3930.018	4535
3931.626	4560
3933.231	4462
3934.838	4562
3936.442	4475
3938.046	4455
3939.653	4432
3941.257	4431
3942.861	4475
3944.464	4469
3946.068	4457
3947.67	4461
3949.273	4476
3950.876	4404
3952.477	4501
3954.078	4558
3955.678	4442
3957.281	4373
3958.881	4439
3960.48	4419
3962.079	4395
3963.678	4379
3965.279	4347
3966.877	4350
3968.475	4384
3970.072	4416
3971.669	4464
3973.266	4319
3974.864	4414
3976.459	4316
3978.055	4317
3979.65	4318
3981.245	4333
3982.841	4327
3984.436	4355
3986.03	4300
3987.623	4397
3989.216	4332
3990.809	4335
3992.403	4315
3993.995	4308
3995.586	4283
3997.177	4273
3998.768	4298
4000.361	4252
4001.951	4302
4003.54	4316
4005.13	4302
4006.719	4322
4008.31	4342
4009.897	4234
4011.485	4236
4013.073	4297
4014.66	4216
4016.247	4301
4017.834	4192
4019.421	4237
4021.006	4072
4022.592	4120
4024.178	4250
4025.763	4208
4027.348	4187
4028.932	4090
4030.515	4155
4032.099	4143
4033.682	4203
4035.266	4158
4036.847	4183
4038.429	4136
4040.011	4076
4041.592	4118
4043.173	4098
4044.755	4154
4046.334	4112
4047.913	4137
4049.494	4089
4051.074	4187
4052.652	4097
4054.23	4102
4055.807	4076
4057.385	4063
4058.963	4087
4060.541	4059
4062.117	4032
4063.693	3971
4065.269	4063
4066.844	4038
4068.42	4066
4069.995	4068
4071.569	4020
4073.143	4061
4074.716	4036
4076.291	4037
4077.864	3982
4079.436	4044
4081.009	4002
4082.58	4071
4084.152	4103
4085.723	3996
4087.294	4008
4088.865	4008
4090.435	3847
4092.005	3944
4093.574	3990
4095.143	4017
4096.712	4031
4098.279	4007
4099.848	3981
4101.416	3960
4102.984	4005
4104.55	3946
4106.117	3981
4107.682	3992
4109.248	3879
4110.815	3972
4112.379	3944
4113.945	3946
4115.508	3970
4117.073	3963
4118.637	3925
4120.201	3968
4121.763	3867
4123.325	3896
4124.888	3951
4126.449	3931
4128.013	3988
4129.573	3867
4131.133	3908
4132.694	3871
4134.254	3921
4135.814	3930
4137.374	3810
4138.933	3848
4140.491	3920
4142.049	3796
4143.607	3882
4145.167	3856
4146.724	3771
4148.28	3875
4149.836	3787
4151.392	3861
4152.949	3852
4154.504	3843
4156.059	3813
4157.614	3824
4159.168	3871
4160.723	3761
4162.277	3762
4163.83	3773
4165.383	3788
4166.936	3813
4168.488	3736
4170.041	3806
4171.593	3744
4173.144	3741
4174.695	3697
4176.246	3790
4177.796	3711
4179.346	3779
4180.896	3743
4182.445	3725
4183.994	3750
4185.542	3785
4187.091	3689
4188.639	3659
4190.185	3660
4191.732	3767
4193.279	3763
4194.826	3651
4196.373	3723
4197.918	3653
4199.463	3682
4201.008	3697
4202.553	3612
4204.098	3622
4205.641	3723
4207.185	3685
4208.728	3701
4210.271	3695
4211.814	3649
4213.357	3742
4214.898	3637
4216.439	3606
4217.98	3632
4219.522	3645
4221.062	3657
4222.603	3660
4224.142	3665
4225.681	3545
4227.222	3589
4228.76	3536
4230.298	3514
4231.835	3659
4233.373	3682
4234.911	3629
4236.449	3564
4237.985	3607
4239.521	3649
4241.057	3563
4242.592	3576
4244.128	3558
4245.663	3527
4247.197	3602
4248.731	3407
4250.265	3582
4251.798	3581
4253.333	3607
4254.865	3549
4256.397	3528
4257.93	3563
4259.461	3506
4260.994	3575
4262.525	3506
4264.056	3586
4265.586	3521
4267.115	3504
4268.646	3515
4270.176	3483
4271.705	3609
4273.232	3499
4274.761	3544
4276.289	3524
4277.818	3436
4279.345	3476
4280.872	3429
4282.399	3513
4283.924	3483
4285.452	3533
4286.976	3437
4288.502	3433
4290.026	3506
4291.551	3489
4293.074	3523
4294.6	3422
4296.123	3455
4297.646	3409
4299.168	3543
4300.691	3421
4302.214	3474
4303.736	3523
4305.257	3463
4306.778	3420
4308.299	3385
4309.82	3453
4311.34	3400
4312.86	3391
4314.379	3467
