400.0745	6054
402.597	5968
405.1208	5958
407.6419	5889
410.1623	5964
412.6819	5967
415.201	5974
417.7172	6083
420.2369	6145
422.7538	6197
425.2701	6171
427.7856	6312
430.3005	6315
432.8147	6288
435.3282	6372
437.841	6387
440.3511	6363
442.8625	6331
445.3753	6356
447.8854	6317
450.3927	6444
452.9014	6352
455.4073	6380
457.9146	6462
460.4233	6266
462.9272	6349
465.4325	6393
467.935	6307
470.4389	6382
472.9421	6483
475.4446	6465
477.9444	6319
480.4456	6467
482.944	6533
485.4417	6402
487.9429	6470
490.4393	6580
492.935	6488
495.4321	6504
497.9264	6515
500.4221	6530
502.9171	6585
505.4094	6579
507.9011	6521
510.392	6645
512.8864	6567
515.3759	6664
517.8649	6556
520.3531	6636
522.8406	6642
525.3275	6680
527.8178	6591
530.3033	6588
532.7881	6557
535.2723	6663
537.7558	6626
540.2407	6719
542.7228	6624
545.2043	6524
547.6851	6718
550.1652	6633
552.6467	6692
555.1255	6671
557.6016	6730
560.079	6669
562.5557	6607
565.0318	6772
567.5092	6708
569.984	6776
572.456	6790
574.9294	6825
577.4022	6898
579.8762	6957
582.3456	6931
584.8163	7002
587.2863	6984
589.7557	6940
592.2224	7039
594.6924	6906
597.1578	6936
599.6245	7021
602.0905	6868
604.5538	6944
607.0206	6904
609.4825	6883
611.9459	6978
614.4066	6948
616.8686	6890
619.33	6829
621.7906	6882
624.2487	6819
626.708	6860
629.1647	6874
631.6207	6760
634.0801	6800
636.5348	6901
638.9888	6901
641.4442	6913
643.8969	6862
646.3509	6977
648.8022	6993
651.255	6961
653.705	6974
656.1544	7007
658.6031	7037
661.0532	7064
663.5026	7021
665.9493	7012
668.3954	7102
670.8409	6894
673.2877	7069
675.7318	7171
678.1752	7067
680.618	7191
683.0601	7066
685.5035	7077
687.9444	7060
690.3845	7213
692.824	7156
695.2628	7172
697.701	7175
700.1406	7211
702.5774	7117
705.0116	7176
707.4472	7260
709.8821	7291
712.3183	7338
714.7519	7147
717.1829	7321
719.6151	7421
722.0468	7268
724.4777	7341
726.908	7351
729.3377	7322
731.7667	7408
734.1931	7428
736.6208	7385
739.0498	7327
741.4742	7433
743.9	7457
746.3231	7486
748.7476	7506
751.1713	7628
753.5945	7557
756.015	7608
758.4368	7604
760.856	7568
763.2766	7588
765.6965	7586
768.1157	7626
770.5323	7650
772.9483	7703
775.3656	7795
777.7822	7663
780.1963	7678
782.6116	7619
785.0244	7774
787.4365	7821
789.8499	7769
792.2626	7609
794.6728	7653
797.0823	7794
799.4911	7794
801.8994	7680
804.3109	7646
806.7178	7763
809.124	7759
811.5297	7742
813.9347	7672
816.341	7726
818.7447	7707
821.1478	7730
823.5502	7771
825.952	7806
828.3531	7841
830.7556	7839
833.1554	7836
835.5546	7770
837.9532	7859
840.3511	7662
842.7504	7929
845.1451	7986
847.5411	7891
849.9365	7852
852.3312	7867
854.7272	8053
857.1187	8035
859.5115	8024
861.9037	7940
864.2952	7841
866.6842	7942
869.0764	7875
871.4661	7889
873.8531	7777
876.2415	7991
878.6272	7912
881.0162	7778
883.4026	7826
885.7866	7862
888.1717	7831
890.5543	7784
892.9382	7903
895.3215	7926
897.7041	7944
900.0842	7899
902.4655	7911
904.8443	8021
907.2244	8049
909.6039	7980
911.9808	8022
914.357	8029
916.7346	8061
919.1115	8124
921.4859	8189
923.8616	8176
926.2347	8346
928.6071	8322
930.979	8215
933.3541	8253
935.7247	8366
938.0946	8159
940.4639	8328
942.8326	8367
945.2026	8487
947.5701	8591
949.9369	8774
952.305	8955
954.6705	9244
957.0355	9398
959.4017	9770
961.7654	9982
964.1284	10099
966.4908	9751
968.8527	9452
971.2138	9227
973.5743	8778
975.9343	8708
978.2936	8400
980.6522	8273
983.0122	8230
985.3696	8098
987.7245	8259
990.0807	8186
992.4362	8123
994.7911	8204
997.1474	8110
999.4991	8121
1001.852	8341
1004.205	8208
1006.555	8191
1008.908	8322
1011.258	8278
1013.606	8199
1015.956	8423
1018.302	8114
1020.652	8329
1022.998	8296
1025.345	8320
1027.691	8373
1030.035	8300
1032.378	8329
1034.724	8424
1037.066	8309
1039.409	8468
1041.75	8427
1044.092	8355
1046.433	8427
1048.771	8336
1051.112	8443
1053.449	8420
1055.786	8314
1058.124	8380
1060.462	8357
1062.797	8502
1065.131	8365
1067.467	8533
1069.8	8585
1072.135	8459
1074.467	8624
1076.798	8512
1079.129	8465
1081.459	8500
1083.792	8546
1086.121	8477
1088.449	8405
1090.777	8358
1093.104	8297
1095.431	8368
1097.759	8531
1100.084	8478
1102.408	8464
1104.732	8445
1107.056	8470
1109.379	8430
1111.701	8386
1114.022	8586
1116.343	8398
1118.664	8420
1120.983	8396
1123.303	8470
1125.621	8490
1127.939	8460
1130.256	8420
1132.573	8347
1134.889	8360
1137.205	8300
1139.52	8488
1141.832	8390
1144.146	8262
1146.461	8446
1148.771	8466
1151.083	8479
1153.392	8498
1155.703	8560
1158.011	8393
1160.323	8457
1162.629	8510
1164.938	8435
1167.243	8472
1169.55	8498
1171.857	8472
1174.163	8357
1176.466	8401
1178.769	8430
1181.073	8491
1183.374	8451
1185.677	8394
1187.979	8420
1190.279	8312
1192.578	8441
1194.878	8370
1197.178	8485
1199.476	8443
1201.772	8416
1204.068	8479
1206.366	8362
1208.663	8348
1210.957	8433
1213.251	8346
1215.544	8457
1217.836	8524
1220.128	8677
1222.421	8584
1224.712	8424
1227.002	8638
1229.292	8567
1231.581	8642
1233.871	8513
1236.159	8608
1238.446	8667
1240.732	8739
1243.018	8755
1245.304	8728
1247.59	8954
1249.874	8647
1252.156	8878
1254.439	8688
1256.721	8648
1259.005	8694
1261.286	8757
1263.565	8837
1265.845	8761
1268.125	8646
1270.403	8517
1272.682	8679
1274.959	8836
1277.234	8808
1279.511	8760
1281.787	8603
1284.062	8607
1286.337	8680
1288.609	8574
1290.882	8721
1293.153	8698
1295.428	8649
1297.698	8520
1299.969	8604
1302.237	8737
1304.507	8619
1306.777	8493
1309.044	8580
1311.312	8666
1313.578	8605
1315.844	8661
1318.109	8467
1320.375	8690
1322.638	8664
1324.903	8507
1327.165	8602
1329.427	8570
1331.69	8588
1333.952	8564
1336.212	8671
1338.471	8522
1340.73	8458
1342.988	8648
1345.248	8780
1347.505	8572
1349.763	8635
1352.019	8652
1354.274	8416
1356.53	8565
1358.784	8512
1361.038	8628
1363.291	8625
1365.543	8684
1367.797	8528
1370.048	8567
1372.296	8579
1374.546	8487
1376.796	8704
1379.045	8683
1381.295	8738
1383.542	8655
1385.787	8530
1388.034	8587
1390.28	8835
1392.527	8775
1394.772	8780
1397.014	8751
1399.258	8686
1401.501	8833
1403.741	8868
1405.985	8886
1408.226	8748
1410.465	8801
1412.705	8826
1414.943	8827
1417.184	8733
1419.42	8857
1421.658	8966
1423.894	8888
1426.13	8835
1428.366	8779
1430.602	8882
1432.835	8934
1435.069	8856
1437.301	9036
1439.535	8774
1441.767	9057
1443.997	8835
1446.229	9103
1448.458	8921
1450.687	8918
1452.916	9001
1455.146	9024
1457.372	9040
1459.599	9058
1461.824	8989
1464.051	8932
1466.277	9006
1468.501	9030
1470.725	8905
1472.948	8761
1475.17	8807
1477.393	8778
1479.614	8829
1481.837	8813
1484.057	8690
1486.276	8774
1488.497	8727
1490.715	8666
1492.932	8576
1495.148	8540
1497.364	8667
1499.58	8582
1501.798	8650
1504.012	8585
1506.227	8406
1508.44	8685
1510.653	8502
1512.866	8510
1515.078	8534
1517.289	8622
1519.5	8680
1521.711	8612
1523.92	8648
1526.13	8572
1528.338	8516
1530.544	8549
1532.752	8564
1534.959	8558
1537.165	8657
1539.371	8698
1541.574	8539
1543.779	8629
1545.983	8535
1548.187	8652
1550.39	8593
1552.59	8750
1554.792	8714
1556.991	8614
1559.19	8754
1561.392	8696
1563.59	8684
1565.789	8648
1567.986	8802
1570.182	8759
1572.381	8669
1574.576	8781
1576.771	8851
1578.966	8795
1581.16	8780
1583.354	8823
1585.546	8820
1587.74	8783
1589.931	8783
1592.121	8789
1594.311	8800
1596.502	8777
1598.693	8851
1600.881	8939
1603.069	8708
1605.256	8790
1607.445	8828
1609.631	9019
1611.816	8904
1614.001	8863
1616.186	8861
1618.37	8883
1620.555	8950
1622.737	8949
1624.919	8880
1627.101	8983
1629.282	8742
1631.463	9079
1633.643	8936
1635.822	8941
1638.001	8965
1640.179	9013
1642.359	9034
1644.534	8948
1646.711	9186
1648.887	9057
1651.062	8955
1653.235	8999
1655.412	9020
1657.586	8841
1659.757	9116
1661.93	8969
1664.1	9077
1666.274	9006
1668.445	9008
1670.614	8946
1672.784	9100
1674.951	9075
1677.12	9066
1679.289	9060
1681.457	9041
1683.622	9057
1685.789	9067
1687.953	8976
1690.121	8965
1692.284	9011
1694.447	8920
1696.611	9024
1698.772	8986
1700.935	8996
1703.098	8884
1705.258	8892
1707.417	9080
1709.576	8848
1711.736	8625
1713.896	8897
1716.053	8893
1718.21	8927
1720.366	8789
1722.522	8888
1724.68	8708
1726.835	8987
1728.989	8896
1731.142	8852
1733.295	8811
1735.449	8810
1737.601	8768
1739.753	8830
1741.903	8853
1744.054	8764
1746.203	8840
1748.354	8851
1750.503	8791
1752.651	8728
1754.798	8903
1756.944	8904
1759.092	8834
1761.238	8785
1763.383	8905
1765.528	8941
1767.672	8886
1769.814	9007
1771.959	8840
1774.102	8798
1776.242	8701
1778.384	8839
1780.525	8983
1782.665	8835
1784.805	8896
1786.945	8927
1789.082	8910
1791.22	8962
1793.36	8923
1795.495	9003
1797.632	8937
1799.766	8854
1801.902	8957
1804.035	8768
1806.172	8893
1808.304	8958
1810.436	8989
1812.569	8839
1814.699	8935
1816.833	8982
1818.963	8849
1821.092	8937
1823.222	8944
1825.35	8867
1827.478	8765
1829.608	8903
1831.734	8915
1833.86	8881
1835.986	8989
1838.11	8810
1840.238	8887
1842.362	8849
1844.485	8747
1846.608	8867
1848.73	8755
1850.853	8743
1852.974	8841
1855.097	8783
1857.217	8831
1859.336	8920
1861.455	8710
1863.576	8866
1865.693	8819
1867.811	8829
1869.926	8905
1872.042	8742
1874.16	8860
1876.275	8791
1878.39	8630
1880.504	8852
1882.618	8763
1884.731	8705
1886.843	8802
1888.956	8894
1891.067	8709
1893.178	8760
1895.287	8804
1897.399	8789
1899.508	8838
1901.617	8889
1903.724	8774
1905.832	8812
1907.941	8927
1910.046	8857
1912.152	8867
1914.256	8921
1916.361	8748
1918.464	8898
1920.57	8844
1922.672	8899
1924.775	8790
1926.876	8901
1928.978	8850
1931.08	8886
1933.181	8944
1935.28	8954
1937.38	8843
1939.478	8980
1941.577	8940
1943.675	8876
1945.771	8669
1947.867	8869
1949.964	8929
1952.058	8974
1954.154	8984
1956.248	8869
1958.343	8823
1960.435	8863
1962.527	8949
1964.62	8792
1966.711	8927
1968.802	8933
1970.892	8904
1972.983	8829
1975.072	8931
1977.162	8874
1979.25	8810
1981.337	8981
1983.424	8832
1985.51	8798
1987.598	8839
1989.683	8835
1991.768	8850
1993.852	8716
1995.934	8781
1998.019	8661
2000.102	8726
2002.184	8908
2004.266	8679
2006.347	8958
2008.427	8750
2010.508	8839
2012.587	8783
2014.666	8691
2016.745	8845
2018.821	8792
2020.9	8774
2022.977	8810
2025.052	8607
2027.128	8911
2029.204	8844
2031.277	8782
2033.353	8770
2035.425	8929
2037.499	8639
2039.57	8712
2041.642	8805
2043.714	8902
2045.786	8773
2047.855	8814
2049.925	8832
2051.993	8807
2054.064	8875
2056.132	8846
2058.2	8718
2060.266	8902
2062.332	8772
2064.398	8874
2066.465	8844
2068.529	8808
2070.592	8707
2072.657	8770
2074.719	8806
2076.783	8792
2078.845	8746
2080.907	8892
2082.968	8760
2085.028	8733
2087.087	8841
2089.148	8821
2091.207	8650
2093.264	8735
2095.322	8773
2097.379	8694
2099.439	8868
2101.495	8717
2103.55	8792
2105.605	8880
2107.658	8785
2109.713	8823
2111.767	8737
2113.82	8782
2115.872	8760
2117.924	8796
2119.975	8745
2122.028	8795
2124.078	8755
2126.126	8806
2128.176	8809
2130.225	8665
2132.275	8757
2134.321	8642
2136.368	8668
2138.415	8717
2140.461	8769
2142.505	8631
2144.552	8718
2146.597	8715
2148.64	8686
2150.684	8681
2152.725	8689
2154.77	8700
2156.811	8657
2158.852	8698
2160.894	8667
2162.933	8706
2164.973	8744
2167.013	8739
2169.051	8547
2171.089	8579
2173.126	8573
2175.164	8666
2177.201	8729
2179.236	8575
2181.273	8577
2183.307	8693
2185.341	8653
2187.377	8586
2189.41	8529
2191.442	8554
2193.473	8585
2195.506	8782
2197.539	8675
2199.569	8573
2201.598	8459
2203.628	8574
2205.656	8532
2207.686	8546
2209.716	8588
2211.743	8510
2213.769	8529
2215.796	8643
2217.821	8421
2219.848	8558
2221.873	8453
2223.897	8425
2225.921	8433
2227.944	8335
2229.967	8356
2231.991	8478
2234.011	8494
2236.032	8550
2238.053	8441
2240.073	8454
2242.094	8479
2244.114	8482
2246.131	8455
2248.149	8547
2250.167	8501
2252.186	8486
2254.201	8466
2256.218	8543
2258.233	8402
2260.247	8456
2262.262	8453
2264.278	8482
2266.29	8409
2268.303	8461
2270.315	8515
2272.327	8467
2274.341	8432
2276.35	8536
2278.361	8546
2280.37	8373
2282.38	8478
2284.388	8315
2286.397	8434
2288.405	8504
2290.412	8516
2292.419	8519
2294.425	8433
2296.431	8529
2298.437	8501
2300.441	8570
2302.445	8512
2304.449	8503
2306.453	8502
2308.455	8350
2310.457	8282
2312.459	8507
2314.46	8345
2316.46	8351
2318.461	8378
2320.46	8433
2322.458	8339
2324.458	8348
2326.456	8317
2328.455	8364
2330.451	8399
2332.447	8374
2334.443	8302
2336.438	8445
2338.433	8249
2340.429	8293
2342.422	8363
2344.416	8284
2346.408	8228
2348.399	8288
2350.393	8172
2352.384	8264
2354.375	8264
2356.365	8239
2358.355	8304
2360.344	8254
2362.333	8138
2364.322	8293
2366.309	8226
2368.295	8227
2370.282	8137
2372.27	8285
2374.256	8197
2376.24	8266
2378.225	8215
2380.208	8229
2382.194	8251
2384.177	8159
2386.159	8226
2388.142	8186
2390.122	8191
2392.105	8195
2394.085	8120
2396.066	8068
2398.044	8073
2400.024	8178
2402.002	8076
2403.982	8023
2405.959	7975
2407.935	8188
2409.913	8094
2411.888	8262
2413.865	8060
2415.84	8186
2417.814	8097
2419.788	8300
2421.762	8115
2423.735	8145
2425.708	8109
2427.68	8110
2429.651	8210
2431.623	8057
2433.593	8093
2435.564	8094
2437.533	8157
2439.502	8074
2441.47	8068
2443.438	8220
2445.406	8123
2447.373	8033
2449.34	7942
2451.305	8122
2453.271	8066
2455.235	8127
2457.201	8000
2459.165	7999
2461.129	8009
2463.092	8045
2465.054	8126
2467.018	7982
2468.978	8045
2470.939	8188
2472.899	8075
2474.86	8018
2476.819	7838
2478.778	7913
2480.737	7994
2482.695	7916
2484.653	8054
2486.609	7952
2488.567	8001
2490.524	7996
2492.478	7979
2494.433	7935
2496.387	7871
2498.343	7876
2500.297	7878
2502.249	7873
2504.202	7982
2506.153	8011
2508.105	7970
2510.057	8016
2512.008	8019
2513.957	7937
2515.906	7853
2517.855	7905
2519.805	8039
2521.754	8013
2523.7	7921
2525.647	7889
2527.594	7888
2529.54	7897
2531.486	7803
2533.431	7962
2535.376	7976
2537.32	7967
2539.263	7873
2541.207	7846
2543.151	7904
2545.093	7876
2547.034	8075
2548.975	7919
2550.917	7863
2552.856	7836
2554.796	7897
2556.735	7953
2558.673	7827
2560.611	7862
2562.55	7879
2564.487	7897
2566.424	7847
2568.36	7977
2570.296	7849
2572.232	7862
2574.167	7865
2576.101	7895
2578.035	7941
2579.969	7866
2581.902	7837
2583.834	7932
2585.766	7887
2587.698	7859
2589.628	7935
2591.557	7965
2593.489	7910
2595.419	7863
2597.348	7888
2599.275	7785
2601.204	7785
2603.131	7988
2605.059	7844
2606.986	7992
2608.911	7842
2610.837	7856
2612.76	7774
2614.687	7890
2616.61	7894
2618.534	7931
2620.457	7928
2622.38	7872
2624.302	7861
2626.225	7984
2628.145	7892
2630.067	7962
2631.986	7853
2633.906	7957
2635.827	7896
2637.745	7906
2639.662	7943
2641.581	7844
2643.498	8035
2645.415	7913
2647.331	7860
2649.248	7886
2651.163	7907
2653.077	7872
2654.993	7779
2656.906	7865
2658.821	7812
2660.733	7827
2662.646	7844
2664.557	7843
2666.47	7836
2668.381	7832
2670.291	7875
2672.201	7883
2674.11	7918
2676.021	7860
2677.929	7782
2679.837	7789
2681.745	7805
2683.652	7736
2685.56	7771
2687.466	7734
2689.371	7787
2691.276	7704
2693.181	7795
2695.085	7708
2696.991	7734
2698.893	7750
2700.796	7654
2702.698	7711
2704.601	7686
2706.502	7805
2708.404	7716
2710.304	7800
2712.203	7814
2714.103	7674
2716.003	7765
2717.902	7796
2719.8	7521
2721.697	7731
2723.594	7617
2725.49	7800
2727.389	7697
2729.283	7636
2731.179	7600
2733.073	7693
2734.968	7732
2736.863	7611
2738.757	7778
2740.649	7641
2742.541	7577
2744.433	7529
2746.324	7683
2748.216	7540
2750.107	7766
2751.997	7695
2753.886	7549
2755.776	7621
2757.666	7548
2759.553	7557
2761.44	7612
2763.327	7534
2765.215	7688
2767.102	7572
2768.988	7695
2770.873	7666
2772.757	7635
2774.641	7548
2776.525	7611
2778.41	7676
2780.292	7609
2782.175	7645
2784.057	7607
2785.938	7574
2787.821	7523
2789.701	7628
2791.581	7452
2793.461	7446
2795.34	7540
2797.219	7526
2799.099	7625
2800.975	7602
2802.853	7479
2804.73	7478
2806.606	7543
2808.484	7601
2810.358	7515
2812.233	7511
2814.108	7510
2815.981	7500
2817.857	7530
2819.73	7491
2821.602	7509
2823.474	7464
2825.346	7380
2827.217	7497
2829.089	7561
2830.959	7480
2832.829	7458
2834.698	7637
2836.567	7505
2838.436	7524
2840.305	7418
2842.172	7456
2844.04	7468
2845.905	7455
2847.772	7665
2849.639	7443
2851.503	7464
2853.369	7487
2855.232	7541
2857.096	7473
2858.961	7469
2860.824	7530
2862.686	7552
2864.547	7756
2866.41	7415
2868.272	7545
2870.132	7601
2871.992	7868
2873.851	7772
2875.711	7943
2877.57	7789
2879.429	7781
2881.287	7937
2883.144	7882
2885.001	8086
2886.857	7880
2888.714	7962
2890.57	7798
2892.425	8001
2894.279	7928
2896.133	8036
2897.987	7830
2899.842	8011
2901.694	7730
2903.547	8010
2905.397	7889
2907.249	7900
2909.101	7914
2910.952	8088
2912.802	8021
2914.652	8177
2916.5	8082
2918.35	8135
2920.198	8213
2922.045	8163
2923.893	8327
2925.74	8321
2927.585	8398
2929.433	8379
2931.279	8429
2933.123	8543
2934.968	8467
2936.811	8674
2938.656	8674
2940.5	8635
2942.342	8764
2944.185	8754
2946.026	8789
2947.87	8780
2949.71	8865
2951.549	8620
2953.39	8719
2955.229	8576
2957.069	8465
2958.908	8581
2960.746	8553
2962.584	8453
2964.421	8276
2966.257	8281
2968.094	8203
2969.931	8098
2971.766	8125
2973.601	8061
2975.435	7993
2977.27	8093
2979.105	8116
2980.938	8088
2982.77	7878
2984.602	7996
2986.434	7909
2988.267	8006
2990.097	7820
2991.927	7803
2993.757	7787
2995.587	7694
2997.417	7774
2999.246	7751
3001.074	7508
3002.902	7632
3004.729	7510
3006.556	7510
3008.384	7454
3010.21	7343
3012.036	7417
3013.861	7280
3015.684	7425
3017.51	7320
3019.334	7256
3021.157	7110
3022.981	7212
3024.802	7068
3026.624	7176
3028.448	7047
3030.267	7144
3032.088	7022
3033.909	7103
3035.728	7025
3037.549	7056
3039.368	6928
3041.186	6926
3043.004	7067
3044.821	7077
3046.64	7010
3048.455	7074
3050.272	6871
3052.087	6964
3053.903	6884
3055.717	6995
3057.534	7056
3059.347	6925
3061.16	6953
3062.974	6977
3064.785	7091
3066.598	6908
3068.411	7036
3070.222	6849
3072.032	6974
3073.844	6861
3075.653	6912
3077.463	6989
3079.272	6836
3081.08	6989
3082.889	6863
3084.697	6788
3086.505	6776
3088.312	6913
3090.118	6855
3091.924	6829
3093.729	6963
3095.535	6755
3097.34	6796
3099.144	6710
3100.947	6711
3102.75	6678
3104.553	6717
3106.357	6723
3108.159	6702
3109.961	6817
3111.762	6641
3113.562	6787
3115.365	6649
3117.164	6677
3118.964	6722
3120.761	6645
3122.56	6668
3124.36	6719
3126.158	6687
3127.954	6646
3129.75	6536
3131.547	6567
3133.343	6618
3135.139	6683
3136.934	6684
3138.729	6598
3140.522	6518
3142.317	6584
3144.11	6535
3145.904	6592
3147.695	6604
3149.488	6422
3151.28	6598
3153.07	6520
3154.863	6502
3156.652	6406
3158.441	6582
3160.231	6604
3162.019	6533
3163.81	6558
3165.597	6492
3167.384	6577
3169.172	6515
3170.958	6484
3172.745	6499
3174.532	6469
3176.317	6593
3178.101	6485
3179.885	6415
3181.67	6430
3183.455	6495
3185.238	6373
3187.02	6383
3188.802	6346
3190.585	6388
3192.368	6469
3194.149	6453
3195.929	6525
3197.709	6443
3199.489	6401
3201.268	6429
3203.048	6425
3204.826	6433
3206.604	6422
3208.382	6490
3210.159	6470
3211.937	6407
3213.713	6408
3215.489	6341
3217.263	6391
3219.038	6455
3220.815	6381
3222.589	6457
3224.363	6311
3226.136	6361
3227.908	6326
3229.681	6420
3231.454	6342
3233.226	6278
3234.996	6353
3236.767	6378
3238.538	6371
3240.308	6332
3242.078	6310
3243.847	6445
3245.615	6332
3247.384	6404
3249.15	6405
3250.92	6458
3252.686	6339
3254.453	6432
3256.218	6296
3257.984	6380
3259.75	6388
3261.515	6384
3263.279	6376
3265.044	6417
3266.806	6409
3268.57	6259
3270.334	6303
3272.095	6385
3273.856	6387
3275.619	6256
3277.379	6375
3279.14	6339
3280.9	6404
3282.661	6352
3284.419	6287
3286.178	6347
3287.937	6422
3289.695	6320
3291.453	6353
3293.21	6305
3294.967	6375
3296.723	6376
3298.48	6220
3300.235	6399
3301.99	6257
3303.744	6496
3305.498	6304
3307.253	6351
3309.006	6445
3310.759	6232
3312.511	6322
3314.263	6437
3316.017	6213
3317.768	6366
3319.519	6286
3321.268	6326
3323.018	6417
3324.767	6334
3326.518	6291
3328.267	6325
3330.014	6309
3331.762	6241
3333.509	6231
3335.258	6385
3337.003	6152
3338.75	6251
3340.496	6302
3342.24	6332
3343.987	6309
3345.732	6357
3347.475	6256
3349.219	6296
3350.961	6274
3352.705	6278
3354.448	6315
3356.19	6157
3357.931	6221
3359.672	6163
3361.412	6229
3363.155	6217
3364.894	6357
3366.633	6225
3368.372	6074
3370.11	6262
3371.849	6147
3373.588	6075
3375.325	6039
3377.061	6109
3378.799	6192
3380.534	6170
3382.271	6137
3384.006	6153
3385.741	6013
3387.475	6060
3389.209	6130
3390.944	5977
3392.677	6116
3394.409	6059
3396.143	6043
3397.874	6005
3399.606	6110
3401.338	6096
3403.069	6128
3404.799	6051
3406.528	6035
3408.258	6043
3409.988	6093
3411.717	6135
3413.445	6017
3415.173	6096
3416.899	6067
3418.626	6001
3420.354	6004
3422.08	5965
3423.806	5973
3425.531	6029
3427.255	6062
3428.981	5902
3430.705	5991
3432.429	5965
3434.151	5971
3435.875	5866
3437.599	5890
3439.321	5892
3441.042	6011
3442.763	5960
3444.483	5883
3446.204	5939
3447.926	5925
3449.645	5844
3451.364	5927
3453.082	5869
3454.801	5855
3456.52	5846
3458.238	5762
3459.954	5767
3461.671	5826
3463.387	5834
3465.104	5898
3466.82	5796
3468.534	5709
3470.25	5807
3471.963	5855
3473.676	5850
3475.392	5805
3477.104	5753
3478.817	5723
3480.528	5780
3482.241	5872
3483.954	5676
3485.664	5649
3487.374	5641
3489.084	5651
3490.795	5651
3492.504	5624
3494.214	5619
3495.922	5757
3497.63	5763
3499.338	5536
3501.045	5641
3502.753	5693
3504.459	5503
3506.166	5658
3507.871	5699
3509.576	5649
3511.283	5667
3512.987	5619
3514.691	5585
3516.395	5643
3518.098	5655
3519.8	5691
3521.504	5653
3523.206	5530
3524.908	5575
3526.609	5470
3528.309	5590
3530.011	5510
3531.711	5569
3533.411	5455
3535.109	5435
3536.808	5511
3538.507	5555
3540.206	5597
3541.904	5554
3543.601	5430
3545.297	5468
3546.994	5558
3548.69	5327
3550.387	5447
3552.081	5475
3553.776	5489
3555.47	5367
3557.166	5382
3558.859	5472
3560.553	5448
3562.245	5448
3563.938	5396
3565.629	5474
3567.322	5366
3569.014	5383
3570.704	5413
3572.394	5386
3574.084	5415
3575.775	5330
3577.464	5395
3579.152	5304
3580.842	5409
3582.529	5439
3584.216	5307
3585.905	5394
3587.591	5333
3589.279	5220
3590.964	5277
3592.649	5235
3594.336	5386
3596.021	5296
3597.705	5190
3599.388	5382
3601.072	5222
3602.757	5154
3604.439	5142
3606.122	5160
3607.803	5215
3609.485	5211
3611.167	5176
3612.849	5360
3614.529	5210
3616.208	5229
3617.888	5229
3619.567	5079
3621.247	5110
3622.926	5096
3624.603	5065
3626.281	5037
3627.958	5082
3629.635	5137
3631.312	5181
3632.989	5095
3634.665	5125
3636.339	5044
3638.014	5039
3639.691	5080
3641.364	4990
3643.038	4975
3644.71	5142
3646.384	4982
3648.058	4982
3649.729	5018
3651.402	5097
3653.073	4930
3654.744	5119
3656.414	5014
3658.085	5036
3659.755	4957
3661.424	4975
3663.094	4936
3664.762	4966
3666.431	4892
3668.099	4866
3669.766	5026
3671.433	5050
3673.099	4935
3674.768	4929
3676.433	4911
3678.098	4940
3679.763	4950
3681.428	5011
3683.093	4860
3684.757	5041
3686.421	4965
3688.083	5022
3689.746	4780
3691.408	4922
3693.071	4892
3694.733	4883
3696.394	4875
3698.054	4868
3699.715	5081
3701.375	4910
3703.036	4871
3704.695	4831
3706.354	4886
3708.012	4839
3709.67	4869
3711.329	4828
3712.987	4838
3714.644	4887
3716.299	4936
3717.955	4822
3719.613	4871
3721.268	4773
3722.923	4798
3724.577	4876
3726.231	4866
3727.885	4932
3729.539	4775
3731.192	4877
3732.845	4841
3734.497	4831
3736.149	4791
3737.802	4771
3739.453	4825
3741.104	4800
3742.753	4819
3744.404	4827
3746.052	4861
3747.704	4672
3749.352	4809
3751	4801
3752.648	4821
3754.296	4702
3755.944	4857
3757.59	4702
3759.238	4695
3760.883	4697
3762.528	4703
3764.176	4755
3765.82	4776
3767.464	4814
3769.109	4764
3770.753	4611
3772.396	4617
3774.04	4740
3775.683	4751
3777.325	4721
3778.967	4716
3780.608	4616
3782.25	4588
3783.89	4638
3785.531	4647
3787.17	4649
3788.81	4633
3790.45	4670
3792.09	4608
3793.729	4666
3795.366	4613
3797.003	4685
3798.64	4743
3800.278	4618
3801.915	4467
3803.551	4604
3805.187	4500
3806.822	4602
3808.458	4623
3810.093	4479
3811.726	4637
3813.36	4606
3814.994	4536
3816.627	4628
3818.262	4555
3819.893	4585
3821.525	4558
3823.157	4449
3824.787	4498
3826.42	4561
3828.051	4535
3829.68	4503
3831.31	4628
3832.938	4465
3834.569	4486
3836.198	4505
3837.825	4555
3839.454	4505
3841.08	4530
3842.708	4426
3844.335	4592
3845.962	4540
3847.587	4553
3849.212	4339
3850.838	4382
3852.463	4408
3854.089	4436
3855.712	4440
3857.335	4431
3858.959	4536
3860.582	4401
3862.205	4428
3863.827	4424
3865.449	4461
3867.07	4407
3868.691	4337
3870.312	4495
3871.933	4364
3873.553	4375
3875.173	4368
3876.792	4385
3878.411	4373
3880.03	4545
3881.647	4418
3883.265	4428
3884.882	4462
3886.499	4298
3888.116	4435
3889.732	4391
3891.348	4334
3892.964	4319
3894.579	4311
3896.195	4504
3897.809	4242
3899.423	4376
3901.036	4354
3902.648	4333
3904.261	4347
3905.875	4352
3907.487	4333
3909.099	4304
3910.709	4334
3912.321	4386
3913.933	4344
3915.542	4357
3917.152	4368
3918.762	4217
3920.37	4320
3921.98	4261
3923.589	4287
3925.196	4257
3926.804	4312
3928.41	4322
3930.018	4294
3931.626	4246
3933.231	4274
3934.838	4285
3936.442	4313
3938.046	4270
3939.653	4387
3941.257	4219
3942.861	4276
3944.464	4187
3946.068	4312
3947.67	4215
3949.273	4247
3950.876	4293
3952.477	4320
3954.078	4311
3955.678	4229
3957.281	4266
3958.881	4194
3960.48	4176
3962.079	4244
3963.678	4203
3965.279	4187
3966.877	4247
3968.475	4187
3970.072	4167
3971.669	4187
3973.266	4212
3974.864	4211
3976.459	4130
3978.055	4214
3979.65	4177
3981.245	4116
3982.841	4131
3984.436	4231
3986.03	4166
3987.623	4086
3989.216	4187
3990.809	4121
3992.403	4098
3993.995	4170
3995.586	4080
3997.177	4178
3998.768	4137
4000.361	4102
4001.951	4097
4003.54	4086
4005.13	3980
4006.719	4059
4008.31	4043
4009.897	3972
4011.485	4026
4013.073	4057
4014.66	4037
4016.247	3999
4017.834	4014
4019.421	4046
4021.006	4032
4022.592	4033
4024.178	3973
4025.763	3965
4027.348	4027
4028.932	4002
4030.515	3948
4032.099	3972
4033.682	3964
4035.266	4023
4036.847	3982
4038.429	4027
4040.011	4030
4041.592	3963
4043.173	3913
4044.755	3882
4046.334	3913
4047.913	3953
4049.494	3962
4051.074	3911
4052.652	3820
4054.23	3996
4055.807	3869
4057.385	3926
4058.963	3882
4060.541	3870
4062.117	3944
4063.693	3941
4065.269	3903
4066.844	3851
4068.42	3819
4069.995	3829
4071.569	3859
4073.143	3865
4074.716	3901
4076.291	3838
4077.864	3912
4079.436	3817
4081.009	3831
4082.58	3814
4084.152	3845
4085.723	3963
4087.294	3862
4088.865	3836
4090.435	3770
4092.005	3892
4093.574	3807
4095.143	3843
4096.712	3785
4098.279	3774
4099.848	3844
4101.416	3753
4102.984	3728
4104.55	3793
4106.117	3834
4107.682	3782
4109.248	3791
4110.815	3707
4112.379	3744
4113.945	3769
4115.508	3770
4117.073	3696
4118.637	3734
4120.201	3788
4121.763	3697
4123.325	3773
4124.888	3810
4126.449	3676
4128.013	3734
4129.573	3750
4131.133	3766
4132.694	3736
4134.254	3696
4135.814	3714
4137.374	3703
4138.933	3651
4140.491	3663
4142.049	3694
4143.607	3704
4145.167	3731
4146.724	3667
4148.28	3622
4149.836	3569
4151.392	3605
4152.949	3609
4154.504	3624
4156.059	3635
4157.614	3652
4159.168	3679
4160.723	3671
4162.277	3670
4163.83	3630
4165.383	3574
4166.936	3530
4168.488	3563
4170.041	3610
4171.593	3661
4173.144	3579
4174.695	3549
4176.246	3517
4177.796	3575
4179.346	3565
4180.896	3561
4182.445	3571
4183.994	3630
4185.542	3583
4187.091	3570
4188.639	3611
4190.185	3607
4191.732	3496
4193.279	3458
4194.826	3517
4196.373	3504
4197.918	3515
4199.463	3518
4201.008	3530
4202.553	3538
4204.098	3512
4205.641	3436
4207.185	3546
4208.728	3522
4210.271	3478
4211.814	3530
4213.357	3460
4214.898	3478
4216.439	3479
4217.98	3496
4219.522	3456
4221.062	3464
4222.603	3486
4224.142	3496
4225.681	3432
4227.222	3394
4228.76	3496
4230.298	3400
4231.835	3478
4233.373	3488
4234.911	3435
4236.449	3443
4237.985	3446
4239.521	3459
4241.057	3391
4242.592	3370
4244.128	3412
4245.663	3420
4247.197	3404
4248.731	3332
4250.265	3413
4251.798	3385
4253.333	3386
4254.865	3379
4256.397	3368
4257.93	3363
4259.461	3390
4260.994	3392
4262.525	3357
4264.056	3430
4265.586	3351
4267.115	3344
4268.646	3377
4270.176	3436
4271.705	3325
4273.232	3355
4274.761	3368
4276.289	3429
4277.818	3327
4279.345	3347
4280.872	3381
4282.399	3318
4283.924	3411
4285.452	3395
4286.976	3306
4288.502	3303
4290.026	3313
4291.551	3340
4293.074	3310
4294.6	3337
4296.123	3307
4297.646	3354
4299.168	3293
4300.691	3256
4302.214	3322
4303.736	3310
4305.257	3292
4306.778	3320
4308.299	3277
4309.82	3274
4311.34	3330
4312.86	3244
4314.379	3305
