400.0745	4189
402.597	4279
405.1208	4252
407.6419	4279
410.1623	4207
412.6819	4237
415.201	4277
417.7172	4414
420.2369	4409
422.7538	4488
425.2701	4531
427.7856	4532
430.3005	4567
432.8147	4628
435.3282	4638
437.841	4582
440.3511	4658
442.8625	4582
445.3753	4589
447.8854	4663
450.3927	4670
452.9014	4563
455.4073	4539
457.9146	4524
460.4233	4644
462.9272	4598
465.4325	4521
467.935	4566
470.4389	4671
472.9421	4454
475.4446	4522
477.9444	4500
480.4456	4503
482.944	4568
485.4417	4588
487.9429	4616
490.4393	4605
492.935	4552
495.4321	4611
497.9264	4652
500.4221	4632
502.9171	4746
505.4094	4638
507.9011	4624
510.392	4670
512.8864	4668
515.3759	4690
517.8649	4682
520.3531	4729
522.8406	4686
525.3275	4727
527.8178	4757
530.3033	4775
532.7881	4690
535.2723	4738
537.7558	4737
540.2407	4703
542.7228	4724
545.2043	4725
547.6851	4771
550.1652	4766
552.6467	4818
555.1255	4769
557.6016	4694
560.079	4773
562.5557	4737
565.0318	4748
567.5092	4858
569.984	4840
572.456	4874
574.9294	4959
577.4022	4920
579.8762	5053
582.3456	4984
584.8163	5038
587.2863	4954
589.7557	5002
592.2224	4937
594.6924	4988
597.1578	4969
599.6245	4879
602.0905	4818
604.5538	4876
607.0206	4939
609.4825	4910
611.9459	4968
614.4066	4939
616.8686	4916
619.33	4883
621.7906	4914
624.2487	4833
626.708	4799
629.1647	4868
631.6207	4993
634.0801	4892
636.5348	4889
638.9888	4847
641.4442	4813
643.8969	4928
646.3509	4876
648.8022	4943
651.255	4901
653.705	4997
656.1544	5030
658.6031	5025
661.0532	4911
663.5026	4867
665.9493	5071
668.3954	4964
670.8409	5012
673.2877	4924
675.7318	4954
678.1752	4941
680.618	5109
683.0601	4962
685.5035	5029
687.9444	5039
690.3845	5152
692.824	5014
695.2628	5016
697.701	5102
700.1406	5144
702.5774	5042
705.0116	5140
707.4472	5058
709.8821	5055
712.3183	5161
714.7519	5143
717.1829	4987
719.6151	5095
722.0468	5233
724.4777	5175
726.908	5235
729.3377	5132
731.7667	5169
734.1931	5312
736.6208	5250
739.0498	5229
741.4742	5366
743.9	5388
746.3231	5349
748.7476	5246
751.1713	5315
753.5945	5329
756.015	5442
758.4368	5401
760.856	5385
763.2766	5385
765.6965	5446
768.1157	5442
770.5323	5471
772.9483	5352
775.3656	5430
777.7822	5380
780.1963	5280
782.6116	5481
785.0244	5425
787.4365	5473
789.8499	5455
792.2626	5459
794.6728	5411
797.0823	5466
799.4911	5437
801.8994	5436
804.3109	5410
806.7178	5460
809.124	5488
811.5297	5512
813.9347	5537
816.341	5537
818.7447	5468
821.1478	5465
823.5502	5415
825.952	5598
828.3531	5487
830.7556	5515
833.1554	5591
835.5546	5477
837.9532	5516
840.3511	5473
842.7504	5611
845.1451	5536
847.5411	5548
849.9365	5583
852.3312	5540
854.7272	5620
857.1187	5562
859.5115	5554
861.9037	5562
864.2952	5621
866.6842	5641
869.0764	5704
871.4661	5573
873.8531	5638
876.2415	5742
878.6272	5534
881.0162	5627
883.4026	5582
885.7866	5537
888.1717	5618
890.5543	5711
892.9382	5558
895.3215	5594
897.7041	5635
900.0842	5570
902.4655	5600
904.8443	5703
907.2244	5583
909.6039	5689
911.9808	5735
914.357	5607
916.7346	5785
919.1115	5624
921.4859	5779
923.8616	5728
926.2347	5750
928.6071	5872
930.979	5844
933.3541	5880
935.7247	5969
938.0946	5966
940.4639	5894
942.8326	6075
945.2026	6251
947.5701	6321
949.9369	6551
952.305	6785
954.6705	7141
957.0355	7524
959.4017	7891
961.7654	8020
964.1284	7807
966.4908	7504
968.8527	7166
971.2138	6736
973.5743	6597
975.9343	6341
978.2936	6149
980.6522	5953
983.0122	5846
985.3696	5859
987.7245	5773
990.0807	5806
992.4362	5793
994.7911	5932
997.1474	5865
999.4991	5951
1001.852	6004
1004.205	5862
1006.555	5904
1008.908	5882
1011.258	5855
1013.606	5948
1015.956	5938
1018.302	5931
1020.652	5871
1022.998	5934
1025.345	5870
1027.691	5838
1030.035	5901
1032.378	5870
1034.724	5964
1037.066	5997
1039.409	6024
1041.75	5887
1044.092	5966
1046.433	5994
1048.771	5939
1051.112	6013
1053.449	6034
1055.786	6019
1058.124	6009
1060.462	5953
1062.797	6042
1065.131	6089
1067.467	6168
1069.8	6189
1072.135	6128
1074.467	6213
1076.798	6068
1079.129	6211
1081.459	6053
1083.792	6128
1086.121	6060
1088.449	6056
1090.777	6045
1093.104	5959
1095.431	5947
1097.759	5970
1100.084	6031
1102.408	6056
1104.732	5987
1107.056	6001
1109.379	5802
1111.701	5934
1114.022	5941
1116.343	5916
1118.664	6077
1120.983	6024
1123.303	5965
1125.621	5960
1127.939	5974
1130.256	5932
1132.573	5932
1134.889	5947
1137.205	5902
1139.52	5937
1141.832	5896
1144.146	5903
1146.461	6035
1148.771	5995
1151.083	5938
1153.392	5987
1155.703	5968
1158.011	5990
1160.323	6015
1162.629	6067
1164.938	5972
1167.243	5890
1169.55	5990
1171.857	5953
1174.163	5956
1176.466	5837
1178.769	5852
1181.073	6047
1183.374	5928
1185.677	5967
1187.979	5984
1190.279	5877
1192.578	5915
1194.878	6024
1197.178	6003
1199.476	6024
1201.772	6013
1204.068	5991
1206.366	5965
1208.663	5978
1210.957	5964
1213.251	5984
1215.544	5943
1217.836	6090
1220.128	5983
1222.421	5980
1224.712	6054
1227.002	6096
1229.292	6038
1231.581	6127
1233.871	6071
1236.159	6061
1238.446	6052
1240.732	6147
1243.018	6215
1245.304	6182
1247.59	6161
1249.874	6093
1252.156	6083
1254.439	6184
1256.721	6130
1259.005	6197
1261.286	6185
1263.565	6180
1265.845	6160
1268.125	6210
1270.403	6176
1272.682	6229
1274.959	6207
1277.234	6201
1279.511	6209
1281.787	6174
1284.062	6097
1286.337	6148
1288.609	6188
1290.882	6037
1293.153	6099
1295.428	6169
1297.698	6058
1299.969	6081
1302.237	6109
1304.507	5993
1306.777	6095
1309.044	6064
1311.312	6070
1313.578	6103
1315.844	6084
1318.109	6001
1320.375	6129
1322.638	6033
1324.903	6040
1327.165	6023
1329.427	6089
1331.69	6039
1333.952	6127
1336.212	6111
1338.471	6076
1340.73	6154
1342.988	6113
1345.248	6116
1347.505	6123
1349.763	6209
1352.019	6118
1354.274	6081
1356.53	6094
1358.784	6182
1361.038	6142
1363.291	6162
1365.543	6083
1367.797	6121
1370.048	6075
1372.296	6078
1374.546	6110
1376.796	6118
1379.045	6131
1381.295	6179
1383.542	6080
1385.787	6176
1388.034	6134
1390.28	6079
1392.527	6170
1394.772	6242
1397.014	6178
1399.258	6195
1401.501	6164
1403.741	6108
1405.985	6179
1408.226	6154
1410.465	6145
1412.705	6223
1414.943	6204
1417.184	6163
1419.42	6240
1421.658	6157
1423.894	6288
1426.13	6210
1428.366	6352
1430.602	6235
1432.835	6343
1435.069	6324
1437.301	6321
1439.535	6349
1441.767	6290
1443.997	6311
1446.229	6326
1448.458	6405
1450.687	6369
1452.916	6395
1455.146	6453
1457.372	6352
1459.599	6239
1461.824	6453
1464.051	6397
1466.277	6360
1468.501	6315
1470.725	6243
1472.948	6347
1475.17	6289
1477.393	6191
1479.614	6262
1481.837	6185
1484.057	6238
1486.276	6160
1488.497	6130
1490.715	6093
1492.932	5975
1495.148	6019
1497.364	6164
1499.58	6113
1501.798	6339
1504.012	6139
1506.227	5986
1508.44	6183
1510.653	6144
1512.866	6134
1515.078	6132
1517.289	6084
1519.5	6055
1521.711	6113
1523.92	5937
1526.13	6100
1528.338	6080
1530.544	6145
1532.752	6270
1534.959	6094
1537.165	6102
1539.371	6143
1541.574	6226
1543.779	6067
1545.983	6186
1548.187	6206
1550.39	6147
1552.59	6210
1554.792	6192
1556.991	6236
1559.19	6209
1561.392	6147
1563.59	6279
1565.789	6112
1567.986	6228
1570.182	6325
1572.381	6174
1574.576	6173
1576.771	6216
1578.966	6216
1581.16	6224
1583.354	6252
1585.546	6197
1587.74	6258
1589.931	6369
1592.121	6375
1594.311	6268
1596.502	6299
1598.693	6351
1600.881	6414
1603.069	6305
1605.256	6354
1607.445	6270
1609.631	6313
1611.816	6317
1614.001	6321
1616.186	6340
1618.37	6399
1620.555	6423
1622.737	6293
1624.919	6383
1627.101	6436
1629.282	6399
1631.463	6404
1633.643	6414
1635.822	6419
1638.001	6316
1640.179	6350
1642.359	6467
1644.534	6353
1646.711	6386
1648.887	6322
1651.062	6457
1653.235	6377
1655.412	6578
1657.586	6464
1659.757	6417
1661.93	6491
1664.1	6418
1666.274	6548
1668.445	6421
1670.614	6556
1672.784	6573
1674.951	6445
1677.12	6527
1679.289	6366
1681.457	6416
1683.622	6468
1685.789	6477
1687.953	6449
1690.121	6493
1692.284	6403
1694.447	6411
1696.611	6338
1698.772	6311
1700.935	6329
1703.098	6406
1705.258	6337
1707.417	6285
1709.576	6293
1711.736	6339
1713.896	6174
1716.053	6274
1718.21	6278
1720.366	6335
1722.522	6267
1724.68	6203
1726.835	6250
1728.989	6294
1731.142	6257
1733.295	6207
1735.449	6245
1737.601	6346
1739.753	6208
1741.903	6265
1744.054	6349
1746.203	6384
1748.354	6291
1750.503	6370
1752.651	6271
1754.798	6300
1756.944	6277
1759.092	6272
1761.238	6255
1763.383	6266
1765.528	6374
1767.672	6363
1769.814	6339
1771.959	6240
1774.102	6325
1776.242	6287
1778.384	6328
1780.525	6307
1782.665	6301
1784.805	6399
1786.945	6332
1789.082	6368
1791.22	6306
1793.36	6455
1795.495	6379
1797.632	6364
1799.766	6282
1801.902	6343
1804.035	6314
1806.172	6324
1808.304	6255
1810.436	6230
1812.569	6283
1814.699	6422
1816.833	6195
1818.963	6310
1821.092	6234
1823.222	6273
1825.35	6365
1827.478	6219
1829.608	6357
1831.734	6281
1833.86	6286
1835.986	6195
1838.11	6274
1840.238	6327
1842.362	6159
1844.485	6245
1846.608	6268
1848.73	6219
1850.853	6283
1852.974	6235
1855.097	6162
1857.217	6279
1859.336	6173
1861.455	6257
1863.576	6216
1865.693	6190
1867.811	6327
1869.926	6268
1872.042	6150
1874.16	6201
1876.275	6207
1878.39	6170
1880.504	6283
1882.618	6278
1884.731	6283
1886.843	6194
1888.956	6306
1891.067	6359
1893.178	6324
1895.287	6273
1897.399	6270
1899.508	6274
1901.617	6240
1903.724	6363
1905.832	6433
1907.941	6213
1910.046	6373
1912.152	6323
1914.256	6361
1916.361	6308
1918.464	6429
1920.57	6386
1922.672	6412
1924.775	6365
1926.876	6352
1928.978	6363
1931.08	6293
1933.181	6337
1935.28	6266
1937.38	6300
1939.478	6315
1941.577	6410
1943.675	6308
1945.771	6345
1947.867	6350
1949.964	6452
1952.058	6331
1954.154	6356
1956.248	6347
1958.343	6359
1960.435	6394
1962.527	6409
1964.62	6384
1966.711	6433
1968.802	6473
1970.892	6293
1972.983	6291
1975.072	6345
1977.162	6347
1979.25	6403
1981.337	6332
1983.424	6343
1985.51	6340
1987.598	6228
1989.683	6308
1991.768	6287
1993.852	6259
1995.934	6294
1998.019	6300
2000.102	6296
2002.184	6268
2004.266	6281
2006.347	6285
2008.427	6272
2010.508	6257
2012.587	6215
2014.666	6312
2016.745	6278
2018.821	6405
2020.9	6298
2022.977	6224
2025.052	6278
2027.128	6287
2029.204	6164
2031.277	6266
2033.353	6189
2035.425	6289
2037.499	6212
2039.57	6288
2041.642	6213
2043.714	6161
2045.786	6183
2047.855	6250
2049.925	6343
2051.993	6271
2054.064	6362
2056.132	6208
2058.2	6253
2060.266	6175
2062.332	6287
2064.398	6236
2066.465	6291
2068.529	6198
2070.592	6264
2072.657	6276
2074.719	6354
2076.783	6284
2078.845	6248
2080.907	6209
2082.968	6293
2085.028	6260
2087.087	6277
2089.148	6242
2091.207	6192
2093.264	6229
2095.322	6357
2097.379	6155
2099.439	6257
2101.495	6352
2103.55	6292
2105.605	6240
2107.658	6250
2109.713	6274
2111.767	6241
2113.82	6242
2115.872	6346
2117.924	6484
2119.975	6244
2122.028	6246
2124.078	6274
2126.126	6184
2128.176	6239
2130.225	6229
2132.275	6212
2134.321	6245
2136.368	6271
2138.415	6272
2140.461	6087
2142.505	6286
2144.552	6166
2146.597	6291
2148.64	6269
2150.684	6291
2152.725	6142
2154.77	6180
2156.811	6199
2158.852	6253
2160.894	6264
2162.933	6270
2164.973	6120
2167.013	6232
2169.051	6241
2171.089	6267
2173.126	6224
2175.164	6287
2177.201	6102
2179.236	6246
2181.273	6173
2183.307	6150
2185.341	6222
2187.377	6133
2189.41	6141
2191.442	6158
2193.473	6130
2195.506	6147
2197.539	6132
2199.569	6222
2201.598	6126
2203.628	6165
2205.656	6152
2207.686	6143
2209.716	6091
2211.743	6170
2213.769	6058
2215.796	6193
2217.821	6094
2219.848	6069
2221.873	6121
2223.897	6078
2225.921	6087
2227.944	6222
2229.967	6108
2231.991	6063
2234.011	6183
2236.032	6119
2238.053	6089
2240.073	6108
2242.094	5966
2244.114	6126
2246.131	6089
2248.149	6152
2250.167	6114
2252.186	6014
2254.201	6171
2256.218	6078
2258.233	6067
2260.247	6078
2262.262	5985
2264.278	6081
2266.29	6084
2268.303	6080
2270.315	6061
2272.327	6060
2274.341	6075
2276.35	6136
2278.361	6099
2280.37	6034
2282.38	6099
2284.388	6129
2286.397	6062
2288.405	6106
2290.412	6111
2292.419	6054
2294.425	6130
2296.431	6012
2298.437	6032
2300.441	6061
2302.445	6062
2304.449	5930
2306.453	6002
2308.455	5955
2310.457	6127
2312.459	6046
2314.46	6054
2316.46	6116
2318.461	6029
2320.46	6038
2322.458	5958
2324.458	6039
2326.456	5981
2328.455	6014
2330.451	6051
2332.447	5913
2334.443	6007
2336.438	5935
2338.433	5945
2340.429	5999
2342.422	6061
2344.416	6046
2346.408	6005
2348.399	5965
2350.393	5947
2352.384	5930
2354.375	5976
2356.365	5911
2358.355	5898
2360.344	5858
2362.333	5892
2364.322	5839
2366.309	5924
2368.295	5972
2370.282	5966
2372.27	6007
2374.256	5840
2376.24	5959
2378.225	5917
2380.208	5898
2382.194	5947
2384.177	5892
2386.159	5825
2388.142	5813
2390.122	5822
2392.105	5888
2394.085	5832
2396.066	5890
2398.044	5923
2400.024	5785
2402.002	5798
2403.982	5765
2405.959	5824
2407.935	5942
2409.913	5753
2411.888	5898
2413.865	5854
2415.84	5824
2417.814	5783
2419.788	5865
2421.762	5732
2423.735	5946
2425.708	5792
2427.68	5924
2429.651	5891
2431.623	5870
2433.593	5862
2435.564	5837
2437.533	5818
2439.502	5849
2441.47	5759
2443.438	5872
2445.406	5818
2447.373	5839
2449.34	5827
2451.305	5844
2453.271	5890
2455.235	5964
2457.201	5765
2459.165	5834
2461.129	5765
2463.092	5925
2465.054	5808
2467.018	5660
2468.978	5747
2470.939	5810
2472.899	5803
2474.86	5826
2476.819	5718
2478.778	5691
2480.737	5876
2482.695	5687
2484.653	5781
2486.609	5804
2488.567	5811
2490.524	5702
2492.478	5683
2494.433	5767
2496.387	5806
2498.343	5665
2500.297	5754
2502.249	5764
2504.202	5694
2506.153	5734
2508.105	5792
2510.057	5835
2512.008	5764
2513.957	5710
2515.906	5842
2517.855	5747
2519.805	5666
2521.754	5692
2523.7	5633
2525.647	5745
2527.594	5848
2529.54	5662
2531.486	5765
2533.431	5737
2535.376	5684
2537.32	5676
2539.263	5747
2541.207	5743
2543.151	5700
2545.093	5709
2547.034	5679
2548.975	5599
2550.917	5620
2552.856	5728
2554.796	5633
2556.735	5653
2558.673	5696
2560.611	5670
2562.55	5681
2564.487	5753
2566.424	5725
2568.36	5748
2570.296	5716
2572.232	5772
2574.167	5744
2576.101	5642
2578.035	5633
2579.969	5657
2581.902	5638
2583.834	5763
2585.766	5759
2587.698	5638
2589.628	5670
2591.557	5611
2593.489	5724
2595.419	5754
2597.348	5684
2599.275	5657
2601.204	5697
2603.131	5598
2605.059	5661
2606.986	5637
2608.911	5630
2610.837	5751
2612.76	5681
2614.687	5686
2616.61	5760
2618.534	5662
2620.457	5697
2622.38	5582
2624.302	5754
2626.225	5625
2628.145	5623
2630.067	5728
2631.986	5675
2633.906	5697
2635.827	5751
2637.745	5694
2639.662	5681
2641.581	5632
2643.498	5716
2645.415	5785
2647.331	5672
2649.248	5726
2651.163	5731
2653.077	5710
2654.993	5783
2656.906	5711
2658.821	5669
2660.733	5695
2662.646	5614
2664.557	5650
2666.47	5658
2668.381	5768
2670.291	5581
2672.201	5674
2674.11	5707
2676.021	5567
2677.929	5615
2679.837	5591
2681.745	5524
2683.652	5698
2685.56	5676
2687.466	5592
2689.371	5583
2691.276	5584
2693.181	5616
2695.085	5566
2696.991	5641
2698.893	5652
2700.796	5631
2702.698	5602
2704.601	5557
2706.502	5549
2708.404	5570
2710.304	5635
2712.203	5561
2714.103	5518
2716.003	5607
2717.902	5547
2719.8	5627
2721.697	5512
2723.594	5506
2725.49	5672
2727.389	5438
2729.283	5709
2731.179	5506
2733.073	5617
2734.968	5570
2736.863	5543
2738.757	5565
2740.649	5650
2742.541	5534
2744.433	5582
2746.324	5627
2748.216	5530
2750.107	5565
2751.997	5597
2753.886	5554
2755.776	5488
2757.666	5513
2759.553	5621
2761.44	5585
2763.327	5535
2765.215	5543
2767.102	5611
2768.988	5534
2770.873	5463
2772.757	5528
2774.641	5421
2776.525	5541
2778.41	5472
2780.292	5569
2782.175	5547
2784.057	5514
2785.938	5583
2787.821	5507
2789.701	5511
2791.581	5466
2793.461	5489
2795.34	5413
2797.219	5446
2799.099	5490
2800.975	5526
2802.853	5512
2804.73	5454
2806.606	5432
2808.484	5426
2810.358	5388
2812.233	5467
2814.108	5559
2815.981	5421
2817.857	5485
2819.73	5435
2821.602	5462
2823.474	5459
2825.346	5373
2827.217	5452
2829.089	5418
2830.959	5353
2832.829	5475
2834.698	5473
2836.567	5412
2838.436	5439
2840.305	5305
2842.172	5368
2844.04	5367
2845.905	5385
2847.772	5480
2849.639	5394
2851.503	5506
2853.369	5386
2855.232	5551
2857.096	5494
2858.961	5468
2860.824	5547
2862.686	5554
2864.547	5657
2866.41	5551
2868.272	5528
2870.132	5533
2871.992	5614
2873.851	5671
2875.711	5692
2877.57	5708
2879.429	5788
2881.287	5774
2883.144	5873
2885.001	5824
2886.857	5806
2888.714	5813
2890.57	5816
2892.425	5952
2894.279	5782
2896.133	5777
2897.987	5793
2899.842	5787
2901.694	5677
2903.547	5712
2905.397	5760
2907.249	5834
2909.101	5778
2910.952	5744
2912.802	5767
2914.652	5854
2916.5	5810
2918.35	6021
2920.198	5833
2922.045	6056
2923.893	6049
2925.74	6223
2927.585	6193
2929.433	6213
2931.279	6225
2933.123	6295
2934.968	6355
2936.811	6227
2938.656	6482
2940.5	6464
2942.342	6537
2944.185	6417
2946.026	6383
2947.87	6586
2949.71	6381
2951.549	6461
2953.39	6385
2955.229	6302
2957.069	6235
2958.908	6253
2960.746	6195
2962.584	6135
2964.421	6129
2966.257	6046
2968.094	6025
2969.931	5913
2971.766	5915
2973.601	5997
2975.435	5846
2977.27	5774
2979.105	5855
2980.938	5860
2982.77	5849
2984.602	5887
2986.434	5899
2988.267	5882
2990.097	5752
2991.927	5755
2993.757	5677
2995.587	5758
2997.417	5596
2999.246	5596
3001.074	5502
3002.902	5527
3004.729	5478
3006.556	5461
3008.384	5447
3010.21	5417
3012.036	5433
3013.861	5315
3015.684	5316
3017.51	5282
3019.334	5219
3021.157	5268
3022.981	5302
3024.802	5240
3026.624	5243
3028.448	5166
3030.267	5194
3032.088	5128
3033.909	5163
3035.728	5189
3037.549	5112
3039.368	5176
3041.186	5195
3043.004	5117
3044.821	5161
3046.64	5087
3048.455	5127
3050.272	5036
3052.087	5107
3053.903	5138
3055.717	5091
3057.534	5015
3059.347	5091
3061.16	5058
3062.974	5016
3064.785	5072
3066.598	5045
3068.411	5145
3070.222	5036
3072.032	5023
3073.844	5055
3075.653	5063
3077.463	5054
3079.272	4991
3081.08	5068
3082.889	4967
3084.697	5028
3086.505	4997
3088.312	4943
3090.118	4931
3091.924	5059
3093.729	4937
3095.535	4979
3097.34	4935
3099.144	4970
3100.947	4973
3102.75	4895
3104.553	5004
3106.357	5027
3108.159	4972
3109.961	4933
3111.762	4864
3113.562	4835
3115.365	4917
3117.164	4950
3118.964	4908
3120.761	4882
3122.56	4835
3124.36	4850
3126.158	4984
3127.954	4915
3129.75	4860
3131.547	4911
3133.343	4895
3135.139	4822
3136.934	4831
3138.729	4862
3140.522	4762
3142.317	4940
3144.11	4880
3145.904	4905
3147.695	4786
3149.488	4870
3151.28	4906
3153.07	4778
3154.863	4785
3156.652	4820
3158.441	4828
3160.231	4877
3162.019	4819
3163.81	4866
3165.597	4819
3167.384	4835
3169.172	4811
3170.958	4782
3172.745	4807
3174.532	4765
3176.317	4812
3178.101	4829
3179.885	4817
3181.67	4783
3183.455	4811
3185.238	4790
3187.02	4824
3188.802	4679
3190.585	4685
3192.368	4776
3194.149	4738
3195.929	4727
3197.709	4804
3199.489	4706
3201.268	4754
3203.048	4828
3204.826	4727
3206.604	4745
3208.382	4737
3210.159	4800
3211.937	4673
3213.713	4810
3215.489	4776
3217.263	4693
3219.038	4749
3220.815	4761
3222.589	4713
3224.363	4646
3226.136	4731
3227.908	4714
3229.681	4658
3231.454	4743
3233.226	4759
3234.996	4665
3236.767	4746
3238.538	4801
3240.308	4673
3242.078	4745
3243.847	4634
3245.615	4757
3247.384	4727
3249.15	4703
3250.92	4701
3252.686	4723
3254.453	4739
3256.218	4758
3257.984	4702
3259.75	4700
3261.515	4763
3263.279	4640
3265.044	4730
3266.806	4727
3268.57	4732
3270.334	4720
3272.095	4809
3273.856	4752
3275.619	4727
3277.379	4660
3279.14	4694
3280.9	4672
3282.661	4618
3284.419	4705
3286.178	4704
3287.937	4667
3289.695	4690
3291.453	4772
3293.21	4706
3294.967	4724
3296.723	4716
3298.48	4775
3300.235	4724
3301.99	4782
3303.744	4631
3305.498	4753
3307.253	4765
3309.006	4688
3310.759	4658
3312.511	4738
3314.263	4776
3316.017	4700
3317.768	4713
3319.519	4657
3321.268	4662
3323.018	4651
3324.767	4656
3326.518	4687
3328.267	4629
3330.014	4750
3331.762	4656
3333.509	4732
3335.258	4692
3337.003	4722
3338.75	4666
3340.496	4748
3342.24	4685
3343.987	4687
3345.732	4700
3347.475	4677
3349.219	4665
3350.961	4748
3352.705	4587
3354.448	4601
3356.19	4702
3357.931	4691
3359.672	4640
3361.412	4681
3363.155	4610
3364.894	4672
3366.633	4718
3368.372	4605
3370.11	4644
3371.849	4667
3373.588	4537
3375.325	4540
3377.061	4605
3378.799	4636
3380.534	4675
3382.271	4518
3384.006	4518
3385.741	4620
3387.475	4546
3389.209	4636
3390.944	4546
3392.677	4538
3394.409	4589
3396.143	4551
3397.874	4574
3399.606	4519
3401.338	4523
3403.069	4533
3404.799	4500
3406.528	4476
3408.258	4495
3409.988	4521
3411.717	4464
3413.445	4434
3415.173	4482
3416.899	4455
3418.626	4543
3420.354	4500
3422.08	4497
3423.806	4564
3425.531	4485
3427.255	4500
3428.981	4485
3430.705	4489
3432.429	4416
3434.151	4455
3435.875	4448
3437.599	4456
3439.321	4443
3441.042	4427
3442.763	4387
3444.483	4371
3446.204	4424
3447.926	4434
3449.645	4420
3451.364	4449
3453.082	4344
3454.801	4324
3456.52	4429
3458.238	4296
3459.954	4443
3461.671	4384
3463.387	4450
3465.104	4286
3466.82	4418
3468.534	4340
3470.25	4336
3471.963	4285
3473.676	4331
3475.392	4353
3477.104	4330
3478.817	4319
3480.528	4370
3482.241	4267
3483.954	4291
3485.664	4320
3487.374	4273
3489.084	4303
3490.795	4232
3492.504	4181
3494.214	4284
3495.922	4183
3497.63	4291
3499.338	4192
3501.045	4248
3502.753	4208
3504.459	4176
3506.166	4199
3507.871	4205
3509.576	4161
3511.283	4264
3512.987	4140
3514.691	4229
3516.395	4172
3518.098	4219
3519.8	4176
3521.504	4232
3523.206	4173
3524.908	4096
3526.609	4150
3528.309	4238
3530.011	4160
3531.711	4141
3533.411	4127
3535.109	4158
3536.808	4130
3538.507	4091
3540.206	4233
3541.904	4151
3543.601	4095
3545.297	4072
3546.994	4067
3548.69	4056
3550.387	4121
3552.081	4108
3553.776	4102
3555.47	4098
3557.166	4051
3558.859	4133
3560.553	4069
3562.245	4012
3563.938	4095
3565.629	4121
3567.322	4026
3569.014	4021
3570.704	4023
3572.394	4149
3574.084	4006
3575.775	4020
3577.464	4041
3579.152	4067
3580.842	4004
3582.529	4119
3584.216	3948
3585.905	4034
3587.591	4015
3589.279	4039
3590.964	3980
3592.649	4004
3594.336	3979
3596.021	4008
3597.705	3943
3599.388	3946
3601.072	3865
3602.757	3966
3604.439	3975
3606.122	3921
3607.803	3890
3609.485	3927
3611.167	3848
3612.849	3876
3614.529	3905
3616.208	3929
3617.888	3909
3619.567	3919
3621.247	3846
3622.926	3889
3624.603	3879
3626.281	3860
3627.958	3827
3629.635	3793
3631.312	3864
3632.989	3873
3634.665	3852
3636.339	3793
3638.014	3833
3639.691	3853
3641.364	3843
3643.038	3804
3644.71	3784
3646.384	3754
3648.058	3722
3649.729	3802
3651.402	3750
3653.073	3742
3654.744	3750
3656.414	3747
3658.085	3712
3659.755	3794
3661.424	3823
3663.094	3784
3664.762	3666
3666.431	3728
3668.099	3680
3669.766	3818
3671.433	3767
3673.099	3740
3674.768	3675
3676.433	3767
3678.098	3741
3679.763	3724
3681.428	3743
3683.093	3691
3684.757	3679
3686.421	3586
3688.083	3621
3689.746	3746
3691.408	3661
3693.071	3778
3694.733	3741
3696.394	3773
3698.054	3673
3699.715	3664
3701.375	3655
3703.036	3663
3704.695	3582
3706.354	3750
3708.012	3640
3709.67	3571
3711.329	3689
3712.987	3704
3714.644	3685
3716.299	3622
3717.955	3593
3719.613	3737
3721.268	3704
3722.923	3628
3724.577	3580
3726.231	3542
3727.885	3584
3729.539	3652
3731.192	3588
3732.845	3593
3734.497	3662
3736.149	3588
3737.802	3519
3739.453	3621
3741.104	3582
3742.753	3502
3744.404	3640
3746.052	3532
3747.704	3589
3749.352	3612
3751	3612
3752.648	3563
3754.296	3571
3755.944	3549
3757.59	3605
3759.238	3571
3760.883	3578
3762.528	3549
3764.176	3522
3765.82	3527
3767.464	3607
3769.109	3522
3770.753	3533
3772.396	3546
3774.04	3582
3775.683	3490
3777.325	3561
3778.967	3504
3780.608	3598
3782.25	3571
3783.89	3438
3785.531	3530
3787.17	3574
3788.81	3469
3790.45	3524
3792.09	3477
3793.729	3528
3795.366	3570
3797.003	3487
3798.64	3510
3800.278	3475
3801.915	3466
3803.551	3429
3805.187	3495
3806.822	3394
3808.458	3452
3810.093	3399
3811.726	3475
3813.36	3456
3814.994	3450
3816.627	3499
3818.262	3425
3819.893	3402
3821.525	3413
3823.157	3406
3824.787	3429
3826.42	3401
3828.051	3380
3829.68	3344
3831.31	3436
3832.938	3410
3834.569	3370
3836.198	3416
3837.825	3421
3839.454	3324
3841.08	3368
3842.708	3381
3844.335	3400
3845.962	3460
3847.587	3334
3849.212	3365
3850.838	3399
3852.463	3372
3854.089	3302
3855.712	3319
3857.335	3344
3858.959	3320
3860.582	3347
3862.205	3301
3863.827	3311
3865.449	3388
3867.07	3227
3868.691	3343
3870.312	3241
3871.933	3297
3873.553	3378
3875.173	3397
3876.792	3272
3878.411	3339
3880.03	3278
3881.647	3258
3883.265	3346
3884.882	3254
3886.499	3292
3888.116	3320
3889.732	3314
3891.348	3297
3892.964	3333
3894.579	3362
3896.195	3344
3897.809	3236
3899.423	3246
3901.036	3345
3902.648	3326
3904.261	3310
3905.875	3298
3907.487	3244
3909.099	3206
3910.709	3262
3912.321	3389
3913.933	3337
3915.542	3345
3917.152	3222
3918.762	3218
3920.37	3219
3921.98	3197
3923.589	3233
3925.196	3181
3926.804	3207
3928.41	3282
3930.018	3257
3931.626	3195
3933.231	3239
3934.838	3303
3936.442	3216
3938.046	3185
3939.653	3259
3941.257	3170
3942.861	3289
3944.464	3222
3946.068	3236
3947.67	3213
3949.273	3202
3950.876	3174
3952.477	3234
3954.078	3162
3955.678	3231
3957.281	3193
3958.881	3178
3960.48	3195
3962.079	3172
3963.678	3132
3965.279	3271
3966.877	3137
3968.475	3179
3970.072	3209
3971.669	3163
3973.266	3176
3974.864	3159
3976.459	3171
3978.055	3141
3979.65	3181
3981.245	3102
3982.841	3065
3984.436	3153
3986.03	3070
3987.623	3184
3989.216	3127
3990.809	3143
3992.403	3051
3993.995	3064
3995.586	3020
3997.177	3065
3998.768	3080
4000.361	3109
4001.951	3040
4003.54	3105
4005.13	3017
4006.719	3080
4008.31	3053
4009.897	3061
4011.485	3041
4013.073	3113
4014.66	3081
4016.247	3094
4017.834	3076
4019.421	3073
4021.006	2984
4022.592	2969
4024.178	2979
4025.763	3094
4027.348	3156
4028.932	2973
4030.515	3058
4032.099	2929
4033.682	2945
4035.266	3012
4036.847	2947
4038.429	2929
4040.011	3014
4041.592	2971
4043.173	3032
4044.755	3041
4046.334	2918
4047.913	2958
4049.494	2961
4051.074	2983
4052.652	2977
4054.23	2931
4055.807	2993
4057.385	2979
4058.963	2984
4060.541	3036
4062.117	2955
4063.693	2930
4065.269	2982
4066.844	2912
4068.42	2932
4069.995	2963
4071.569	2971
4073.143	2887
4074.716	2927
4076.291	2966
4077.864	3025
4079.436	2911
4081.009	2827
4082.58	2958
4084.152	2921
4085.723	2909
4087.294	2923
4088.865	2897
4090.435	2905
4092.005	2890
4093.574	2963
4095.143	2930
4096.712	2999
4098.279	2837
4099.848	2856
4101.416	2911
4102.984	2929
4104.55	2825
4106.117	2852
4107.682	2909
4109.248	2789
4110.815	2869
4112.379	2882
4113.945	2855
4115.508	2847
4117.073	2881
4118.637	2858
4120.201	2829
4121.763	2852
4123.325	2896
4124.888	2818
4126.449	2819
4128.013	2825
4129.573	2839
4131.133	2781
4132.694	2794
4134.254	2748
4135.814	2828
4137.374	2811
4138.933	2772
4140.491	2788
4142.049	2858
4143.607	2852
4145.167	2837
4146.724	2757
4148.28	2768
4149.836	2809
4151.392	2772
4152.949	2759
4154.504	2770
4156.059	2805
4157.614	2812
4159.168	2824
4160.723	2804
4162.277	2744
4163.83	2801
4165.383	2717
4166.936	2760
4168.488	2708
4170.041	2760
4171.593	2769
4173.144	2761
4174.695	2691
4176.246	2727
4177.796	2769
4179.346	2768
4180.896	2667
4182.445	2709
4183.994	2703
4185.542	2711
4187.091	2671
4188.639	2685
4190.185	2682
4191.732	2745
4193.279	2665
4194.826	2737
4196.373	2657
4197.918	2693
4199.463	2696
4201.008	2738
4202.553	2690
4204.098	2725
4205.641	2664
4207.185	2643
4208.728	2641
4210.271	2663
4211.814	2680
4213.357	2677
4214.898	2663
4216.439	2597
4217.98	2585
4219.522	2650
4221.062	2647
4222.603	2781
4224.142	2715
4225.681	2651
4227.222	2639
4228.76	2637
4230.298	2678
4231.835	2642
4233.373	2597
4234.911	2661
4236.449	2666
4237.985	2593
4239.521	2606
4241.057	2605
4242.592	2590
4244.128	2626
4245.663	2670
4247.197	2617
4248.731	2620
4250.265	2590
4251.798	2644
4253.333	2564
4254.865	2654
4256.397	2616
4257.93	2604
4259.461	2554
4260.994	2604
4262.525	2610
4264.056	2582
4265.586	2591
4267.115	2579
4268.646	2545
4270.176	2578
4271.705	2557
4273.232	2585
4274.761	2545
4276.289	2542
4277.818	2581
4279.345	2578
4280.872	2575
4282.399	2546
4283.924	2516
4285.452	2625
4286.976	2581
4288.502	2545
4290.026	2578
4291.551	2546
4293.074	2535
4294.6	2570
4296.123	2499
4297.646	2508
4299.168	2525
4300.691	2553
4302.214	2547
4303.736	2502
4305.257	2501
4306.778	2498
4308.299	2569
4309.82	2509
4311.34	2524
4312.86	2533
4314.379	2491
