400.0745	3781
402.597	3782
405.1208	3826
407.6419	3789
410.1623	3761
412.6819	3794
415.201	3828
417.7172	3722
420.2369	3869
422.7538	3898
425.2701	3830
427.7856	3957
430.3005	3874
432.8147	3957
435.3282	3978
437.841	3882
440.3511	3896
442.8625	4017
445.3753	3911
447.8854	4067
450.3927	4066
452.9014	3961
455.4073	4042
457.9146	3975
460.4233	4063
462.9272	3987
465.4325	3935
467.935	4053
470.4389	3972
472.9421	4078
475.4446	4049
477.9444	4057
480.4456	4049
482.944	4051
485.4417	4158
487.9429	4149
490.4393	4178
492.935	4162
495.4321	4216
497.9264	4220
500.4221	4115
502.9171	4210
505.4094	4214
507.9011	4118
510.392	4242
512.8864	4153
515.3759	4215
517.8649	4155
520.3531	4214
522.8406	4168
525.3275	4201
527.8178	4195
530.3033	4286
532.7881	4215
535.2723	4197
537.7558	4279
540.2407	4194
542.7228	4233
545.2043	4194
547.6851	4222
550.1652	4235
552.6467	4317
555.1255	4274
557.6016	4212
560.079	4275
562.5557	4354
565.0318	4299
567.5092	4246
569.984	4266
572.456	4416
574.9294	4335
577.4022	4273
579.8762	4390
582.3456	4429
584.8163	4294
587.2863	4335
589.7557	4322
592.2224	4336
594.6924	4281
597.1578	4469
599.6245	4376
602.0905	4339
604.5538	4457
607.0206	4365
609.4825	4383
611.9459	4307
614.4066	4379
616.8686	4312
619.33	4415
621.7906	4321
624.2487	4367
626.708	4418
629.1647	4320
631.6207	4422
634.0801	4397
636.5348	4416
638.9888	4395
641.4442	4366
643.8969	4425
646.3509	4414
648.8022	4493
651.255	4387
653.705	4393
656.1544	4467
658.6031	4474
661.0532	4460
663.5026	4523
665.9493	4464
668.3954	4553
670.8409	4539
673.2877	4526
675.7318	4484
678.1752	4473
680.618	4559
683.0601	4510
685.5035	4502
687.9444	4593
690.3845	4546
692.824	4410
695.2628	4534
697.701	4508
700.1406	4563
702.5774	4509
705.0116	4565
707.4472	4621
709.8821	4591
712.3183	4662
714.7519	4632
717.1829	4632
719.6151	4686
722.0468	4617
724.4777	4701
726.908	4740
729.3377	4610
731.7667	4628
734.1931	4685
736.6208	4697
739.0498	4753
741.4742	4737
743.9	4764
746.3231	4820
748.7476	4794
751.1713	4750
753.5945	4769
756.015	4848
758.4368	4812
760.856	4815
763.2766	4843
765.6965	4878
768.1157	4864
770.5323	4844
772.9483	4811
775.3656	4890
777.7822	4879
780.1963	4874
782.6116	4868
785.0244	4898
787.4365	4970
789.8499	4781
792.2626	4891
794.6728	4844
797.0823	4913
799.4911	4856
801.8994	4887
804.3109	4897
806.7178	4872
809.124	4905
811.5297	4936
813.9347	4966
816.341	4958
818.7447	4928
821.1478	4935
823.5502	5030
825.952	4824
828.3531	4969
830.7556	5035
833.1554	4924
835.5546	4934
837.9532	5051
840.3511	4952
842.7504	4969
845.1451	5060
847.5411	5021
849.9365	5011
852.3312	5112
854.7272	4967
857.1187	4948
859.5115	4979
861.9037	5016
864.2952	4967
866.6842	4977
869.0764	4921
871.4661	5012
873.8531	5057
876.2415	5041
878.6272	4966
881.0162	4975
883.4026	5073
885.7866	5000
888.1717	5125
890.5543	4955
892.9382	5081
895.3215	4999
897.7041	5061
900.0842	5032
902.4655	5007
904.8443	5074
907.2244	5024
909.6039	5050
911.9808	5160
914.357	5073
916.7346	5096
919.1115	5187
921.4859	5186
923.8616	5142
926.2347	5202
928.6071	5286
930.979	5296
933.3541	5162
935.7247	5131
938.0946	5213
940.4639	5364
942.8326	5150
945.2026	5310
947.5701	5353
949.9369	5329
952.305	5335
954.6705	5579
957.0355	5524
959.4017	5581
961.7654	5630
964.1284	5638
966.4908	5515
968.8527	5594
971.2138	5443
973.5743	5416
975.9343	5193
978.2936	5265
980.6522	5159
983.0122	5162
985.3696	5163
987.7245	5165
990.0807	5200
992.4362	5188
994.7911	5055
997.1474	5223
999.4991	5167
1001.852	5221
1004.205	5238
1006.555	5130
1008.908	5165
1011.258	5184
1013.606	5180
1015.956	5181
1018.302	5217
1020.652	5138
1022.998	5213
1025.345	5278
1027.691	5170
1030.035	5222
1032.378	5234
1034.724	5370
1037.066	5319
1039.409	5194
1041.75	5199
1044.092	5259
1046.433	5268
1048.771	5234
1051.112	5217
1053.449	5262
1055.786	5298
1058.124	5314
1060.462	5262
1062.797	5291
1065.131	5253
1067.467	5241
1069.8	5353
1072.135	5309
1074.467	5309
1076.798	5320
1079.129	5267
1081.459	5363
1083.792	5285
1086.121	5345
1088.449	5364
1090.777	5339
1093.104	5300
1095.431	5340
1097.759	5318
1100.084	5299
1102.408	5280
1104.732	5250
1107.056	5169
1109.379	5285
1111.701	5387
1114.022	5348
1116.343	5393
1118.664	5375
1120.983	5372
1123.303	5347
1125.621	5487
1127.939	5492
1130.256	5357
1132.573	5268
1134.889	5429
1137.205	5396
1139.52	5361
1141.832	5330
1144.146	5361
1146.461	5343
1148.771	5486
1151.083	5288
1153.392	5358
1155.703	5350
1158.011	5323
1160.323	5368
1162.629	5352
1164.938	5478
1167.243	5472
1169.55	5438
1171.857	5308
1174.163	5332
1176.466	5349
1178.769	5335
1181.073	5407
1183.374	5451
1185.677	5359
1187.979	5390
1190.279	5336
1192.578	5376
1194.878	5379
1197.178	5350
1199.476	5344
1201.772	5279
1204.068	5410
1206.366	5404
1208.663	5270
1210.957	5418
1213.251	5386
1215.544	5350
1217.836	5356
1220.128	5376
1222.421	5388
1224.712	5350
1227.002	5443
1229.292	5415
1231.581	5555
1233.871	5521
1236.159	5464
1238.446	5556
1240.732	5545
1243.018	5609
1245.304	5493
1247.59	5446
1249.874	5483
1252.156	5499
1254.439	5531
1256.721	5504
1259.005	5611
1261.286	5667
1263.565	5507
1265.845	5598
1268.125	5550
1270.403	5587
1272.682	5521
1274.959	5579
1277.234	5531
1279.511	5465
1281.787	5462
1284.062	5543
1286.337	5547
1288.609	5478
1290.882	5466
1293.153	5432
1295.428	5517
1297.698	5391
1299.969	5469
1302.237	5557
1304.507	5373
1306.777	5590
1309.044	5385
1311.312	5623
1313.578	5454
1315.844	5457
1318.109	5466
1320.375	5457
1322.638	5483
1324.903	5525
1327.165	5591
1329.427	5490
1331.69	5504
1333.952	5549
1336.212	5501
1338.471	5515
1340.73	5408
1342.988	5509
1345.248	5465
1347.505	5601
1349.763	5522
1352.019	5545
1354.274	5482
1356.53	5554
1358.784	5466
1361.038	5538
1363.291	5394
1365.543	5554
1367.797	5474
1370.048	5508
1372.296	5488
1374.546	5476
1376.796	5634
1379.045	5469
1381.295	5571
1383.542	5578
1385.787	5546
1388.034	5480
1390.28	5569
1392.527	5553
1394.772	5596
1397.014	5575
1399.258	5581
1401.501	5668
1403.741	5648
1405.985	5579
1408.226	5500
1410.465	5627
1412.705	5620
1414.943	5651
1417.184	5534
1419.42	5679
1421.658	5594
1423.894	5626
1426.13	5681
1428.366	5677
1430.602	5653
1432.835	5681
1435.069	5751
1437.301	5629
1439.535	5784
1441.767	5708
1443.997	5646
1446.229	5795
1448.458	5723
1450.687	5688
1452.916	5714
1455.146	5719
1457.372	5793
1459.599	5805
1461.824	5640
1464.051	5692
1466.277	5654
1468.501	5731
1470.725	5638
1472.948	5624
1475.17	5525
1477.393	5628
1479.614	5688
1481.837	5631
1484.057	5607
1486.276	5677
1488.497	5496
1490.715	5604
1492.932	5491
1495.148	5491
1497.364	5516
1499.58	5532
1501.798	5566
1504.012	5515
1506.227	5648
1508.44	5555
1510.653	5526
1512.866	5475
1515.078	5392
1517.289	5506
1519.5	5484
1521.711	5520
1523.92	5461
1526.13	5477
1528.338	5528
1530.544	5551
1532.752	5500
1534.959	5492
1537.165	5551
1539.371	5520
1541.574	5502
1543.779	5571
1545.983	5547
1548.187	5592
1550.39	5597
1552.59	5563
1554.792	5602
1556.991	5521
1559.19	5636
1561.392	5702
1563.59	5638
1565.789	5634
1567.986	5729
1570.182	5631
1572.381	5640
1574.576	5628
1576.771	5627
1578.966	5713
1581.16	5722
1583.354	5649
1585.546	5649
1587.74	5586
1589.931	5644
1592.121	5723
1594.311	5635
1596.502	5657
1598.693	5665
1600.881	5664
1603.069	5727
1605.256	5765
1607.445	5643
1609.631	5722
1611.816	5696
1614.001	5673
1616.186	5731
1618.37	5728
1620.555	5713
1622.737	5798
1624.919	5698
1627.101	5703
1629.282	5768
1631.463	5811
1633.643	5778
1635.822	5704
1638.001	5817
1640.179	5774
1642.359	5732
1644.534	5694
1646.711	5763
1648.887	5626
1651.062	5747
1653.235	5700
1655.412	5777
1657.586	5673
1659.757	5929
1661.93	5720
1664.1	5777
1666.274	5719
1668.445	5784
1670.614	5829
1672.784	5797
1674.951	5692
1677.12	5855
1679.289	5818
1681.457	5688
1683.622	5744
1685.789	5695
1687.953	5700
1690.121	5664
1692.284	5723
1694.447	5889
1696.611	5676
1698.772	5737
1700.935	5751
1703.098	5741
1705.258	5687
1707.417	5706
1709.576	5642
1711.736	5724
1713.896	5792
1716.053	5648
1718.21	5725
1720.366	5625
1722.522	5658
1724.68	5772
1726.835	5639
1728.989	5725
1731.142	5665
1733.295	5709
1735.449	5655
1737.601	5675
1739.753	5723
1741.903	5677
1744.054	5720
1746.203	5630
1748.354	5663
1750.503	5771
1752.651	5701
1754.798	5746
1756.944	5752
1759.092	5664
1761.238	5791
1763.383	5715
1765.528	5788
1767.672	5800
1769.814	5732
1771.959	5707
1774.102	5656
1776.242	5817
1778.384	5758
1780.525	5745
1782.665	5756
1784.805	5786
1786.945	5815
1789.082	5606
1791.22	5743
1793.36	5707
1795.495	5778
1797.632	5914
1799.766	5752
1801.902	5806
1804.035	5810
1806.172	5711
1808.304	5764
1810.436	5711
1812.569	5802
1814.699	5770
1816.833	5628
1818.963	5771
1821.092	5711
1823.222	5717
1825.35	5753
1827.478	5742
1829.608	5769
1831.734	5729
1833.86	5696
1835.986	5663
1838.11	5698
1840.238	5686
1842.362	5673
1844.485	5712
1846.608	5638
1848.73	5664
1850.853	5621
1852.974	5749
1855.097	5799
1857.217	5727
1859.336	5731
1861.455	5675
1863.576	5787
1865.693	5657
1867.811	5687
1869.926	5705
1872.042	5641
1874.16	5641
1876.275	5741
1878.39	5638
1880.504	5731
1882.618	5642
1884.731	5633
1886.843	5798
1888.956	5835
1891.067	5649
1893.178	5732
1895.287	5799
1897.399	5746
1899.508	5766
1901.617	5705
1903.724	5735
1905.832	5813
1907.941	5755
1910.046	5777
1912.152	5667
1914.256	5793
1916.361	5816
1918.464	5839
1920.57	5808
1922.672	5889
1924.775	5865
1926.876	5730
1928.978	5785
1931.08	5751
1933.181	5858
1935.28	5821
1937.38	5770
1939.478	5912
1941.577	5930
1943.675	5883
1945.771	5789
1947.867	5766
1949.964	5861
1952.058	5829
1954.154	5816
1956.248	5810
1958.343	5760
1960.435	5886
1962.527	5932
1964.62	5783
1966.711	5798
1968.802	5867
1970.892	5787
1972.983	5832
1975.072	5842
1977.162	5768
1979.25	5796
1981.337	5786
1983.424	5765
1985.51	5773
1987.598	5836
1989.683	5762
1991.768	5739
1993.852	5715
1995.934	5865
1998.019	5772
2000.102	5759
2002.184	5906
2004.266	5769
2006.347	5830
2008.427	5748
2010.508	5913
2012.587	5759
2014.666	5765
2016.745	5713
2018.821	5748
2020.9	5741
2022.977	5724
2025.052	5757
2027.128	5735
2029.204	5810
2031.277	5785
2033.353	5670
2035.425	5694
2037.499	5753
2039.57	5850
2041.642	5682
2043.714	5703
2045.786	5759
2047.855	5799
2049.925	5790
2051.993	5824
2054.064	5756
2056.132	5889
2058.2	5736
2060.266	5791
2062.332	5822
2064.398	5856
2066.465	5848
2068.529	5811
2070.592	5830
2072.657	5836
2074.719	5769
2076.783	5747
2078.845	5893
2080.907	5831
2082.968	5785
2085.028	5752
2087.087	5734
2089.148	5770
2091.207	5816
2093.264	5811
2095.322	5768
2097.379	5781
2099.439	5706
2101.495	5809
2103.55	5891
2105.605	5749
2107.658	5787
2109.713	5712
2111.767	5770
2113.82	5895
2115.872	5791
2117.924	5759
2119.975	5767
2122.028	5820
2124.078	5695
2126.126	5757
2128.176	5799
2130.225	5819
2132.275	5775
2134.321	5835
2136.368	5839
2138.415	5887
2140.461	5790
2142.505	5734
2144.552	5830
2146.597	5836
2148.64	5712
2150.684	5737
2152.725	5776
2154.77	5723
2156.811	5833
2158.852	5814
2160.894	5727
2162.933	5732
2164.973	5901
2167.013	5780
2169.051	5818
2171.089	5755
2173.126	5701
2175.164	5797
2177.201	5740
2179.236	5751
2181.273	5712
2183.307	5799
2185.341	5673
2187.377	5777
2189.41	5748
2191.442	5717
2193.473	5730
2195.506	5754
2197.539	5606
2199.569	5677
2201.598	5663
2203.628	5702
2205.656	5786
2207.686	5720
2209.716	5641
2211.743	5748
2213.769	5701
2215.796	5724
2217.821	5626
2219.848	5678
2221.873	5696
2223.897	5647
2225.921	5664
2227.944	5765
2229.967	5768
2231.991	5712
2234.011	5761
2236.032	5765
2238.053	5603
2240.073	5717
2242.094	5643
2244.114	5798
2246.131	5624
2248.149	5620
2250.167	5741
2252.186	5670
2254.201	5580
2256.218	5688
2258.233	5676
2260.247	5601
2262.262	5771
2264.278	5735
2266.29	5707
2268.303	5601
2270.315	5710
2272.327	5637
2274.341	5678
2276.35	5634
2278.361	5742
2280.37	5612
2282.38	5838
2284.388	5687
2286.397	5684
2288.405	5768
2290.412	5597
2292.419	5724
2294.425	5735
2296.431	5690
2298.437	5718
2300.441	5744
2302.445	5714
2304.449	5622
2306.453	5698
2308.455	5723
2310.457	5636
2312.459	5687
2314.46	5677
2316.46	5664
2318.461	5662
2320.46	5586
2322.458	5602
2324.458	5635
2326.456	5652
2328.455	5599
2330.451	5660
2332.447	5599
2334.443	5630
2336.438	5810
2338.433	5673
2340.429	5524
2342.422	5640
2344.416	5624
2346.408	5676
2348.399	5659
2350.393	5591
2352.384	5532
2354.375	5546
2356.365	5604
2358.355	5557
2360.344	5654
2362.333	5659
2364.322	5645
2366.309	5592
2368.295	5501
2370.282	5565
2372.27	5556
2374.256	5471
2376.24	5647
2378.225	5541
2380.208	5547
2382.194	5566
2384.177	5560
2386.159	5605
2388.142	5642
2390.122	5562
2392.105	5527
2394.085	5544
2396.066	5579
2398.044	5583
2400.024	5519
2402.002	5485
2403.982	5480
2405.959	5560
2407.935	5452
2409.913	5536
2411.888	5525
2413.865	5535
2415.84	5538
2417.814	5628
2419.788	5539
2421.762	5560
2423.735	5495
2425.708	5445
2427.68	5411
2429.651	5624
2431.623	5597
2433.593	5589
2435.564	5589
2437.533	5647
2439.502	5611
2441.47	5659
2443.438	5633
2445.406	5628
2447.373	5458
2449.34	5616
2451.305	5557
2453.271	5551
2455.235	5614
2457.201	5566
2459.165	5538
2461.129	5459
2463.092	5547
2465.054	5511
2467.018	5557
2468.978	5530
2470.939	5452
2472.899	5537
2474.86	5533
2476.819	5495
2478.778	5506
2480.737	5464
2482.695	5519
2484.653	5402
2486.609	5456
2488.567	5483
2490.524	5498
2492.478	5467
2494.433	5551
2496.387	5420
2498.343	5432
2500.297	5486
2502.249	5518
2504.202	5442
2506.153	5492
2508.105	5528
2510.057	5460
2512.008	5468
2513.957	5559
2515.906	5414
2517.855	5583
2519.805	5447
2521.754	5572
2523.7	5500
2525.647	5571
2527.594	5509
2529.54	5461
2531.486	5469
2533.431	5501
2535.376	5372
2537.32	5565
2539.263	5564
2541.207	5486
2543.151	5510
2545.093	5383
2547.034	5514
2548.975	5423
2550.917	5441
2552.856	5529
2554.796	5545
2556.735	5512
2558.673	5539
2560.611	5470
2562.55	5511
2564.487	5644
2566.424	5519
2568.36	5492
2570.296	5362
2572.232	5506
2574.167	5531
2576.101	5563
2578.035	5401
2579.969	5539
2581.902	5457
2583.834	5537
2585.766	5510
2587.698	5483
2589.628	5524
2591.557	5495
2593.489	5594
2595.419	5580
2597.348	5451
2599.275	5515
2601.204	5517
2603.131	5515
2605.059	5538
2606.986	5500
2608.911	5524
2610.837	5520
2612.76	5490
2614.687	5552
2616.61	5595
2618.534	5503
2620.457	5571
2622.38	5514
2624.302	5688
2626.225	5506
2628.145	5619
2630.067	5582
2631.986	5515
2633.906	5531
2635.827	5521
2637.745	5572
2639.662	5533
2641.581	5583
2643.498	5546
2645.415	5513
2647.331	5606
2649.248	5563
2651.163	5562
2653.077	5643
2654.993	5549
2656.906	5545
2658.821	5573
2660.733	5557
2662.646	5537
2664.557	5469
2666.47	5601
2668.381	5501
2670.291	5606
2672.201	5551
2674.11	5636
2676.021	5520
2677.929	5505
2679.837	5615
2681.745	5556
2683.652	5555
2685.56	5565
2687.466	5448
2689.371	5576
2691.276	5560
2693.181	5586
2695.085	5568
2696.991	5605
2698.893	5386
2700.796	5561
2702.698	5475
2704.601	5473
2706.502	5494
2708.404	5472
2710.304	5553
2712.203	5601
2714.103	5492
2716.003	5559
2717.902	5526
2719.8	5509
2721.697	5572
2723.594	5421
2725.49	5426
2727.389	5557
2729.283	5508
2731.179	5508
2733.073	5509
2734.968	5520
2736.863	5539
2738.757	5540
2740.649	5503
2742.541	5513
2744.433	5605
2746.324	5567
2748.216	5618
2750.107	5428
2751.997	5596
2753.886	5434
2755.776	5447
2757.666	5522
2759.553	5528
2761.44	5503
2763.327	5490
2765.215	5342
2767.102	5637
2768.988	5493
2770.873	5415
2772.757	5507
2774.641	5443
2776.525	5489
2778.41	5606
2780.292	5480
2782.175	5535
2784.057	5504
2785.938	5501
2787.821	5607
2789.701	5547
2791.581	5516
2793.461	5440
2795.34	5532
2797.219	5507
2799.099	5519
2800.975	5390
2802.853	5537
2804.73	5535
2806.606	5503
2808.484	5478
2810.358	5599
2812.233	5457
2814.108	5574
2815.981	5468
2817.857	5533
2819.73	5489
2821.602	5444
2823.474	5470
2825.346	5469
2827.217	5455
2829.089	5565
2830.959	5552
2832.829	5476
2834.698	5539
2836.567	5587
2838.436	5539
2840.305	5436
2842.172	5437
2844.04	5571
2845.905	5517
2847.772	5523
2849.639	5585
2851.503	5584
2853.369	5627
2855.232	5558
2857.096	5547
2858.961	5613
2860.824	5617
2862.686	5600
2864.547	5671
2866.41	5658
2868.272	5670
2870.132	5661
2871.992	5717
2873.851	5651
2875.711	5763
2877.57	5844
2879.429	5737
2881.287	5845
2883.144	5776
2885.001	5821
2886.857	5818
2888.714	5715
2890.57	5834
2892.425	5830
2894.279	5784
2896.133	5837
2897.987	5915
2899.842	5850
2901.694	5787
2903.547	5838
2905.397	5866
2907.249	5766
2909.101	5873
2910.952	5805
2912.802	5857
2914.652	5749
2916.5	5832
2918.35	5914
2920.198	5895
2922.045	5884
2923.893	5982
2925.74	5977
2927.585	5938
2929.433	6078
2931.279	6073
2933.123	6077
2934.968	6116
2936.811	6105
2938.656	6116
2940.5	6093
2942.342	6171
2944.185	6228
2946.026	6254
2947.87	6223
2949.71	6294
2951.549	6236
2953.39	6171
2955.229	6143
2957.069	6095
2958.908	6129
2960.746	6104
2962.584	6111
2964.421	5959
2966.257	6069
2968.094	5974
2969.931	5969
2971.766	5992
2973.601	5855
2975.435	5910
2977.27	5921
2979.105	5895
2980.938	5937
2982.77	5821
2984.602	5854
2986.434	5894
2988.267	5788
2990.097	5808
2991.927	5728
2993.757	5746
2995.587	5699
2997.417	5800
2999.246	5875
3001.074	5678
3002.902	5763
3004.729	5568
3006.556	5623
3008.384	5667
3010.21	5604
3012.036	5646
3013.861	5650
3015.684	5588
3017.51	5518
3019.334	5659
3021.157	5571
3022.981	5521
3024.802	5491
3026.624	5481
3028.448	5524
3030.267	5547
3032.088	5478
3033.909	5515
3035.728	5474
3037.549	5559
3039.368	5536
3041.186	5432
3043.004	5456
3044.821	5478
3046.64	5444
3048.455	5540
3050.272	5565
3052.087	5497
3053.903	5570
3055.717	5354
3057.534	5454
3059.347	5575
3061.16	5492
3062.974	5456
3064.785	5555
3066.598	5515
3068.411	5534
3070.222	5467
3072.032	5489
3073.844	5493
3075.653	5425
3077.463	5459
3079.272	5472
3081.08	5535
3082.889	5594
3084.697	5428
3086.505	5483
3088.312	5417
3090.118	5427
3091.924	5453
3093.729	5480
3095.535	5507
3097.34	5468
3099.144	5444
3100.947	5382
3102.75	5371
3104.553	5451
3106.357	5452
3108.159	5425
3109.961	5424
3111.762	5379
3113.562	5424
3115.365	5426
3117.164	5404
3118.964	5426
3120.761	5474
3122.56	5450
3124.36	5445
3126.158	5483
3127.954	5266
3129.75	5354
3131.547	5307
3133.343	5401
3135.139	5432
3136.934	5394
3138.729	5344
3140.522	5389
3142.317	5392
3144.11	5281
3145.904	5417
3147.695	5349
3149.488	5406
3151.28	5433
3153.07	5452
3154.863	5434
3156.652	5425
3158.441	5447
3160.231	5410
3162.019	5408
3163.81	5410
3165.597	5406
3167.384	5439
3169.172	5452
3170.958	5387
3172.745	5430
3174.532	5398
3176.317	5340
3178.101	5323
3179.885	5497
3181.67	5408
3183.455	5504
3185.238	5337
3187.02	5342
3188.802	5438
3190.585	5467
3192.368	5451
3194.149	5310
3195.929	5395
3197.709	5395
3199.489	5355
3201.268	5462
3203.048	5327
3204.826	5338
3206.604	5461
3208.382	5457
3210.159	5370
3211.937	5476
3213.713	5475
3215.489	5349
3217.263	5374
3219.038	5362
3220.815	5364
3222.589	5344
3224.363	5435
3226.136	5486
3227.908	5444
3229.681	5374
3231.454	5506
3233.226	5356
3234.996	5441
3236.767	5464
3238.538	5479
3240.308	5465
3242.078	5440
3243.847	5364
3245.615	5363
3247.384	5512
3249.15	5414
3250.92	5457
3252.686	5447
3254.453	5445
3256.218	5432
3257.984	5488
3259.75	5474
3261.515	5602
3263.279	5495
3265.044	5597
3266.806	5530
3268.57	5446
3270.334	5521
3272.095	5424
3273.856	5506
3275.619	5454
3277.379	5455
3279.14	5513
3280.9	5468
3282.661	5507
3284.419	5539
3286.178	5521
3287.937	5537
3289.695	5560
3291.453	5632
3293.21	5524
3294.967	5482
3296.723	5533
3298.48	5530
3300.235	5521
3301.99	5523
3303.744	5578
3305.498	5588
3307.253	5526
3309.006	5595
3310.759	5599
3312.511	5587
3314.263	5652
3316.017	5552
3317.768	5595
3319.519	5579
3321.268	5532
3323.018	5582
3324.767	5551
3326.518	5510
3328.267	5523
3330.014	5575
3331.762	5579
3333.509	5540
3335.258	5543
3337.003	5540
3338.75	5601
3340.496	5565
3342.24	5531
3343.987	5632
3345.732	5596
3347.475	5577
3349.219	5593
3350.961	5549
3352.705	5718
3354.448	5600
3356.19	5599
3357.931	5510
3359.672	5570
3361.412	5708
3363.155	5577
3364.894	5596
3366.633	5572
3368.372	5661
3370.11	5713
3371.849	5669
3373.588	5574
3375.325	5679
3377.061	5642
3378.799	5557
3380.534	5641
3382.271	5488
3384.006	5530
3385.741	5717
3387.475	5679
3389.209	5696
3390.944	5644
3392.677	5726
3394.409	5728
3396.143	5575
3397.874	5710
3399.606	5621
3401.338	5664
3403.069	5677
3404.799	5588
3406.528	5788
3408.258	5648
3409.988	5584
3411.717	5608
3413.445	5590
3415.173	5676
3416.899	5688
3418.626	5606
3420.354	5567
3422.08	5663
3423.806	5705
3425.531	5659
3427.255	5684
3428.981	5696
3430.705	5594
3432.429	5681
3434.151	5662
3435.875	5732
3437.599	5650
3439.321	5662
3441.042	5654
3442.763	5692
3444.483	5702
3446.204	5655
3447.926	5720
3449.645	5633
3451.364	5681
3453.082	5624
3454.801	5777
3456.52	5602
3458.238	5618
3459.954	5677
3461.671	5533
3463.387	5701
3465.104	5761
3466.82	5624
3468.534	5713
3470.25	5690
3471.963	5657
3473.676	5728
3475.392	5580
3477.104	5660
3478.817	5637
3480.528	5643
3482.241	5680
3483.954	5659
3485.664	5644
3487.374	5564
3489.084	5726
3490.795	5758
3492.504	5620
3494.214	5695
3495.922	5665
3497.63	5745
3499.338	5665
3501.045	5645
3502.753	5653
3504.459	5593
3506.166	5692
3507.871	5667
3509.576	5739
3511.283	5635
3512.987	5706
3514.691	5656
3516.395	5625
3518.098	5715
3519.8	5761
3521.504	5666
3523.206	5664
3524.908	5813
3526.609	5706
3528.309	5668
3530.011	5731
3531.711	5659
3533.411	5896
3535.109	5589
3536.808	5629
3538.507	5761
3540.206	5828
3541.904	5861
3543.601	5658
3545.297	5727
3546.994	5829
3548.69	5721
3550.387	5850
3552.081	5749
3553.776	5701
3555.47	5671
3557.166	5712
3558.859	5987
3560.553	5743
3562.245	5868
3563.938	5860
3565.629	5709
3567.322	5758
3569.014	5729
3570.704	5870
3572.394	5829
3574.084	5759
3575.775	5741
3577.464	5806
3579.152	5730
3580.842	5683
3582.529	5862
3584.216	5870
3585.905	5851
3587.591	5772
3589.279	5744
3590.964	5902
3592.649	5719
3594.336	5768
3596.021	5801
3597.705	5698
3599.388	5882
3601.072	5930
3602.757	5799
3604.439	5867
3606.122	5744
3607.803	5903
3609.485	5790
3611.167	5792
3612.849	5843
3614.529	5894
3616.208	5773
3617.888	5826
3619.567	5768
3621.247	5799
3622.926	5811
3624.603	5762
3626.281	5792
3627.958	5859
3629.635	5808
3631.312	5861
3632.989	5694
3634.665	5829
3636.339	5876
3638.014	5859
3639.691	5831
3641.364	5792
3643.038	5822
3644.71	5765
3646.384	5804
3648.058	5885
3649.729	5819
3651.402	5764
3653.073	5874
3654.744	5856
3656.414	5877
3658.085	5868
3659.755	5744
3661.424	5883
3663.094	5826
3664.762	5794
3666.431	5923
3668.099	5899
3669.766	5866
3671.433	5936
3673.099	5905
3674.768	5875
3676.433	5864
3678.098	5872
3679.763	5899
3681.428	5951
3683.093	5855
3684.757	5987
3686.421	5944
3688.083	5917
3689.746	5977
3691.408	5945
3693.071	5927
3694.733	5827
3696.394	5981
3698.054	6018
3699.715	5954
3701.375	6021
3703.036	6060
3704.695	5876
3706.354	5954
3708.012	5991
3709.67	5990
3711.329	5966
3712.987	5940
3714.644	6096
3716.299	6032
3717.955	5951
3719.613	5933
3721.268	6029
3722.923	6052
3724.577	5962
3726.231	6163
3727.885	6056
3729.539	5952
3731.192	6010
3732.845	5927
3734.497	6206
3736.149	6017
3737.802	6016
3739.453	6006
3741.104	5999
3742.753	5986
3744.404	6072
3746.052	6077
3747.704	6062
3749.352	6083
3751	6072
3752.648	6085
3754.296	6073
3755.944	6135
3757.59	6045
3759.238	6060
3760.883	6059
3762.528	6051
3764.176	5962
3765.82	6083
3767.464	6161
3769.109	6031
3770.753	6013
3772.396	5970
3774.04	6179
3775.683	6076
3777.325	6048
3778.967	6049
3780.608	6141
3782.25	6143
3783.89	6098
3785.531	6079
3787.17	6171
3788.81	6067
3790.45	6087
3792.09	6140
3793.729	6180
3795.366	6130
3797.003	6191
3798.64	6067
3800.278	6134
3801.915	6073
3803.551	6120
3805.187	6148
3806.822	6222
3808.458	6244
3810.093	6258
3811.726	6206
3813.36	6265
3814.994	6193
3816.627	6236
3818.262	6143
3819.893	6168
3821.525	6167
3823.157	6241
3824.787	6087
3826.42	6279
3828.051	6211
3829.68	6205
3831.31	6244
3832.938	6227
3834.569	6192
3836.198	6195
3837.825	6159
3839.454	6254
3841.08	6213
3842.708	6212
3844.335	6231
3845.962	6149
3847.587	6206
3849.212	6237
3850.838	6217
3852.463	6130
3854.089	6209
3855.712	6184
3857.335	6342
3858.959	6277
3860.582	6252
3862.205	6252
3863.827	6299
3865.449	6318
3867.07	6279
3868.691	6285
3870.312	6272
3871.933	6303
3873.553	6253
3875.173	6323
3876.792	6359
3878.411	6298
3880.03	6366
3881.647	6291
3883.265	6299
3884.882	6417
3886.499	6267
3888.116	6324
3889.732	6311
3891.348	6300
3892.964	6379
3894.579	6404
3896.195	6404
3897.809	6408
3899.423	6385
3901.036	6368
3902.648	6358
3904.261	6312
3905.875	6351
3907.487	6375
3909.099	6350
3910.709	6465
3912.321	6351
3913.933	6433
3915.542	6350
3917.152	6335
3918.762	6380
3920.37	6366
3921.98	6424
3923.589	6555
3925.196	6455
3926.804	6430
3928.41	6499
3930.018	6497
3931.626	6562
3933.231	6442
3934.838	6457
3936.442	6406
3938.046	6462
3939.653	6551
3941.257	6492
3942.861	6544
3944.464	6469
3946.068	6519
3947.67	6419
3949.273	6505
3950.876	6422
3952.477	6469
3954.078	6542
3955.678	6499
3957.281	6507
3958.881	6459
3960.48	6486
3962.079	6471
3963.678	6581
3965.279	6351
3966.877	6529
3968.475	6576
3970.072	6560
3971.669	6500
3973.266	6512
3974.864	6543
3976.459	6392
3978.055	6525
3979.65	6615
3981.245	6534
3982.841	6444
3984.436	6613
3986.03	6497
3987.623	6363
3989.216	6521
3990.809	6568
3992.403	6459
3993.995	6632
3995.586	6446
3997.177	6625
3998.768	6500
4000.361	6524
4001.951	6481
4003.54	6642
4005.13	6434
4006.719	6567
4008.31	6590
4009.897	6566
4011.485	6503
4013.073	6448
4014.66	6477
4016.247	6471
4017.834	6535
4019.421	6598
4021.006	6644
4022.592	6597
4024.178	6575
4025.763	6669
4027.348	6602
4028.932	6405
4030.515	6489
4032.099	6513
4033.682	6528
4035.266	6606
4036.847	6591
4038.429	6565
4040.011	6427
4041.592	6615
4043.173	6506
4044.755	6551
4046.334	6581
4047.913	6508
4049.494	6449
4051.074	6638
4052.652	6571
4054.23	6578
4055.807	6525
4057.385	6573
4058.963	6545
4060.541	6574
4062.117	6696
4063.693	6557
4065.269	6495
4066.844	6536
4068.42	6645
4069.995	6677
4071.569	6680
4073.143	6599
4074.716	6610
4076.291	6611
4077.864	6753
4079.436	6644
4081.009	6668
4082.58	6664
4084.152	6699
4085.723	6722
4087.294	6696
4088.865	6655
4090.435	6815
4092.005	6731
4093.574	6643
4095.143	6679
4096.712	6678
4098.279	6708
4099.848	6695
4101.416	6687
4102.984	6774
4104.55	6739
4106.117	6701
4107.682	6848
4109.248	6761
4110.815	6768
4112.379	6866
4113.945	6853
4115.508	6796
4117.073	6753
4118.637	6708
4120.201	6660
4121.763	6731
4123.325	6966
4124.888	6675
4126.449	6721
4128.013	6779
4129.573	6752
4131.133	6812
4132.694	6676
4134.254	6719
4135.814	6778
4137.374	6768
4138.933	6696
4140.491	6814
4142.049	6711
4143.607	6753
4145.167	6761
4146.724	6738
4148.28	6795
4149.836	6715
4151.392	6753
4152.949	6720
4154.504	6777
4156.059	6781
4157.614	6886
4159.168	6761
4160.723	6858
4162.277	6763
4163.83	6766
4165.383	6750
4166.936	6794
4168.488	6770
4170.041	6778
4171.593	6813
4173.144	6827
4174.695	6775
4176.246	6907
4177.796	6829
4179.346	6768
4180.896	6720
4182.445	6759
4183.994	6832
4185.542	6861
4187.091	6753
4188.639	6828
4190.185	6815
4191.732	6867
4193.279	6944
4194.826	6847
4196.373	6765
4197.918	6862
4199.463	6853
4201.008	6913
4202.553	6866
4204.098	6810
4205.641	6814
4207.185	6849
4208.728	6901
4210.271	6879
4211.814	6879
4213.357	6820
4214.898	6916
4216.439	6942
4217.98	6944
4219.522	6801
4221.062	6919
4222.603	6847
4224.142	6932
4225.681	6903
4227.222	6836
4228.76	7009
4230.298	6896
4231.835	6967
4233.373	7024
4234.911	7094
4236.449	7052
4237.985	6998
4239.521	7011
4241.057	6959
4242.592	6925
4244.128	6966
4245.663	6975
4247.197	7035
4248.731	6974
4250.265	6978
4251.798	7013
4253.333	6920
4254.865	6986
4256.397	7025
4257.93	6991
4259.461	7034
4260.994	7041
4262.525	7097
4264.056	7041
4265.586	7028
4267.115	7073
4268.646	7058
4270.176	7244
4271.705	7160
4273.232	7210
4274.761	7020
4276.289	7118
4277.818	7106
4279.345	7028
4280.872	7035
4282.399	7104
4283.924	7191
4285.452	7215
4286.976	7056
4288.502	7185
4290.026	7190
4291.551	7109
4293.074	7085
4294.6	7133
4296.123	7274
4297.646	7116
4299.168	7062
4300.691	7206
4302.214	7227
4303.736	7199
4305.257	7100
4306.778	7204
4308.299	7285
4309.82	7188
4311.34	7168
4312.86	7174
4314.379	7171
