400.0745	4618
402.597	4556
405.1208	4585
407.6419	4530
410.1623	4618
412.6819	4628
415.201	4660
417.7172	4664
420.2369	4752
422.7538	4820
425.2701	4839
427.7856	4860
430.3005	4920
432.8147	4802
435.3282	4848
437.841	4861
440.3511	4879
442.8625	5018
445.3753	4911
447.8854	4967
450.3927	4829
452.9014	4820
455.4073	4811
457.9146	4841
460.4233	4798
462.9272	4815
465.4325	4860
467.935	4913
470.4389	4796
472.9421	4903
475.4446	4910
477.9444	4917
480.4456	4909
482.944	4921
485.4417	4862
487.9429	4955
490.4393	4931
492.935	4930
495.4321	4996
497.9264	4996
500.4221	4987
502.9171	5086
505.4094	5023
507.9011	5018
510.392	5100
512.8864	5071
515.3759	4983
517.8649	5058
520.3531	5013
522.8406	5050
525.3275	5069
527.8178	5009
530.3033	5119
532.7881	5024
535.2723	5119
537.7558	5059
540.2407	5062
542.7228	5062
545.2043	5079
547.6851	5079
550.1652	5114
552.6467	5070
555.1255	5045
557.6016	5062
560.079	5163
562.5557	5177
565.0318	5150
567.5092	5188
569.984	5268
572.456	5129
574.9294	5272
577.4022	5309
579.8762	5239
582.3456	5188
584.8163	5354
587.2863	5338
589.7557	5325
592.2224	5255
594.6924	5268
597.1578	5424
599.6245	5255
602.0905	5263
604.5538	5341
607.0206	5304
609.4825	5254
611.9459	5331
614.4066	5156
616.8686	5327
619.33	5245
621.7906	5294
624.2487	5225
626.708	5302
629.1647	5315
631.6207	5178
634.0801	5237
636.5348	5298
638.9888	5285
641.4442	5199
643.8969	5323
646.3509	5298
648.8022	5153
651.255	5312
653.705	5247
656.1544	5274
658.6031	5380
661.0532	5304
663.5026	5367
665.9493	5365
668.3954	5436
670.8409	5400
673.2877	5442
675.7318	5441
678.1752	5414
680.618	5321
683.0601	5424
685.5035	5443
687.9444	5455
690.3845	5561
692.824	5478
695.2628	5394
697.701	5400
700.1406	5524
702.5774	5495
705.0116	5543
707.4472	5548
709.8821	5503
712.3183	5537
714.7519	5481
717.1829	5476
719.6151	5584
722.0468	5603
724.4777	5591
726.908	5588
729.3377	5767
731.7667	5684
734.1931	5674
736.6208	5663
739.0498	5698
741.4742	5722
743.9	5756
746.3231	5778
748.7476	5792
751.1713	5800
753.5945	5793
756.015	5700
758.4368	5883
760.856	5769
763.2766	5865
765.6965	5808
768.1157	5805
770.5323	5862
772.9483	5926
775.3656	5803
777.7822	5783
780.1963	5851
782.6116	5816
785.0244	5784
787.4365	5854
789.8499	5781
792.2626	5780
794.6728	5920
797.0823	5882
799.4911	5886
801.8994	5969
804.3109	5886
806.7178	5917
809.124	5941
811.5297	5886
813.9347	5960
816.341	5908
818.7447	5884
821.1478	5753
823.5502	5881
825.952	5942
828.3531	5961
830.7556	5867
833.1554	6029
835.5546	5980
837.9532	5943
840.3511	5982
842.7504	5938
845.1451	6041
847.5411	6039
849.9365	6019
852.3312	6087
854.7272	6063
857.1187	6124
859.5115	6103
861.9037	6153
864.2952	6114
866.6842	5990
869.0764	6002
871.4661	6089
873.8531	6020
876.2415	6120
878.6272	6099
881.0162	6084
883.4026	6017
885.7866	6144
888.1717	5972
890.5543	6132
892.9382	6023
895.3215	6018
897.7041	6120
900.0842	6101
902.4655	6077
904.8443	6000
907.2244	6189
909.6039	6179
911.9808	6207
914.357	6224
916.7346	6252
919.1115	6291
921.4859	6371
923.8616	6383
926.2347	6451
928.6071	6381
930.979	6371
933.3541	6348
935.7247	6391
938.0946	6424
940.4639	6551
942.8326	6427
945.2026	6623
947.5701	6660
949.9369	6754
952.305	6967
954.6705	7177
957.0355	7202
959.4017	7498
961.7654	7558
964.1284	7581
966.4908	7364
968.8527	7216
971.2138	6888
973.5743	6811
975.9343	6567
978.2936	6392
980.6522	6392
983.0122	6332
985.3696	6336
987.7245	6293
990.0807	6201
992.4362	6304
994.7911	6156
997.1474	6326
999.4991	6229
1001.852	6244
1004.205	6434
1006.555	6301
1008.908	6418
1011.258	6274
1013.606	6215
1015.956	6254
1018.302	6256
1020.652	6250
1022.998	6308
1025.345	6246
1027.691	6349
1030.035	6327
1032.378	6348
1034.724	6352
1037.066	6349
1039.409	6357
1041.75	6545
1044.092	6370
1046.433	6504
1048.771	6379
1051.112	6358
1053.449	6408
1055.786	6389
1058.124	6387
1060.462	6493
1062.797	6375
1065.131	6438
1067.467	6492
1069.8	6478
1072.135	6534
1074.467	6459
1076.798	6561
1079.129	6561
1081.459	6415
1083.792	6421
1086.121	6524
1088.449	6435
1090.777	6340
1093.104	6380
1095.431	6450
1097.759	6434
1100.084	6414
1102.408	6534
1104.732	6367
1107.056	6403
1109.379	6396
1111.701	6285
1114.022	6600
1116.343	6426
1118.664	6515
1120.983	6447
1123.303	6346
1125.621	6403
1127.939	6417
1130.256	6484
1132.573	6507
1134.889	6410
1137.205	6464
1139.52	6337
1141.832	6373
1144.146	6490
1146.461	6436
1148.771	6421
1151.083	6329
1153.392	6454
1155.703	6477
1158.011	6490
1160.323	6463
1162.629	6469
1164.938	6414
1167.243	6516
1169.55	6398
1171.857	6557
1174.163	6406
1176.466	6371
1178.769	6407
1181.073	6484
1183.374	6500
1185.677	6360
1187.979	6434
1190.279	6490
1192.578	6528
1194.878	6381
1197.178	6496
1199.476	6368
1201.772	6352
1204.068	6474
1206.366	6476
1208.663	6450
1210.957	6487
1213.251	6471
1215.544	6485
1217.836	6486
1220.128	6534
1222.421	6480
1224.712	6493
1227.002	6503
1229.292	6427
1231.581	6488
1233.871	6471
1236.159	6675
1238.446	6611
1240.732	6579
1243.018	6773
1245.304	6690
1247.59	6707
1249.874	6856
1252.156	6679
1254.439	6727
1256.721	6754
1259.005	6772
1261.286	6736
1263.565	6736
1265.845	6734
1268.125	6826
1270.403	6701
1272.682	6686
1274.959	6738
1277.234	6755
1279.511	6536
1281.787	6703
1284.062	6664
1286.337	6600
1288.609	6587
1290.882	6620
1293.153	6598
1295.428	6717
1297.698	6560
1299.969	6511
1302.237	6493
1304.507	6605
1306.777	6556
1309.044	6566
1311.312	6514
1313.578	6609
1315.844	6620
1318.109	6549
1320.375	6562
1322.638	6594
1324.903	6629
1327.165	6659
1329.427	6635
1331.69	6721
1333.952	6654
1336.212	6674
1338.471	6684
1340.73	6598
1342.988	6557
1345.248	6750
1347.505	6562
1349.763	6696
1352.019	6482
1354.274	6564
1356.53	6704
1358.784	6595
1361.038	6508
1363.291	6596
1365.543	6532
1367.797	6617
1370.048	6538
1372.296	6593
1374.546	6478
1376.796	6727
1379.045	6649
1381.295	6671
1383.542	6694
1385.787	6630
1388.034	6492
1390.28	6653
1392.527	6722
1394.772	6648
1397.014	6757
1399.258	6800
1401.501	6684
1403.741	6837
1405.985	6658
1408.226	6763
1410.465	6707
1412.705	6752
1414.943	6689
1417.184	6909
1419.42	6755
1421.658	6724
1423.894	6831
1426.13	6748
1428.366	6765
1430.602	6750
1432.835	6864
1435.069	6926
1437.301	6845
1439.535	6862
1441.767	6903
1443.997	6933
1446.229	6881
1448.458	6924
1450.687	6940
1452.916	6943
1455.146	7007
1457.372	6888
1459.599	6719
1461.824	6887
1464.051	6834
1466.277	6780
1468.501	6896
1470.725	6852
1472.948	6784
1475.17	6889
1477.393	6782
1479.614	6668
1481.837	6814
1484.057	6674
1486.276	6582
1488.497	6678
1490.715	6583
1492.932	6491
1495.148	6541
1497.364	6595
1499.58	6567
1501.798	6644
1504.012	6566
1506.227	6442
1508.44	6695
1510.653	6458
1512.866	6591
1515.078	6559
1517.289	6580
1519.5	6446
1521.711	6497
1523.92	6616
1526.13	6495
1528.338	6499
1530.544	6467
1532.752	6690
1534.959	6638
1537.165	6640
1539.371	6624
1541.574	6559
1543.779	6558
1545.983	6685
1548.187	6606
1550.39	6638
1552.59	6545
1554.792	6606
1556.991	6561
1559.19	6561
1561.392	6605
1563.59	6556
1565.789	6634
1567.986	6625
1570.182	6738
1572.381	6691
1574.576	6523
1576.771	6623
1578.966	6644
1581.16	6685
1583.354	6774
1585.546	6758
1587.74	6608
1589.931	6819
1592.121	6716
1594.311	6754
1596.502	6683
1598.693	6705
1600.881	6730
1603.069	6796
1605.256	6834
1607.445	6658
1609.631	6809
1611.816	6722
1614.001	6760
1616.186	6827
1618.37	6875
1620.555	6748
1622.737	6723
1624.919	6706
1627.101	6771
1629.282	6809
1631.463	6841
1633.643	6805
1635.822	6863
1638.001	6928
1640.179	6885
1642.359	6879
1644.534	6830
1646.711	6911
1648.887	6778
1651.062	6989
1653.235	6921
1655.412	6875
1657.586	6832
1659.757	6997
1661.93	6923
1664.1	6892
1666.274	6962
1668.445	6940
1670.614	6950
1672.784	6937
1674.951	6811
1677.12	7046
1679.289	6960
1681.457	6879
1683.622	6913
1685.789	6986
1687.953	6939
1690.121	6867
1692.284	6796
1694.447	6972
1696.611	6809
1698.772	6795
1700.935	6867
1703.098	6744
1705.258	6774
1707.417	6686
1709.576	6710
1711.736	6804
1713.896	6690
1716.053	6759
1718.21	6708
1720.366	6605
1722.522	6712
1724.68	6736
1726.835	6613
1728.989	6607
1731.142	6641
1733.295	6648
1735.449	6720
1737.601	6649
1739.753	6694
1741.903	6718
1744.054	6639
1746.203	6678
1748.354	6694
1750.503	6781
1752.651	6719
1754.798	6681
1756.944	6821
1759.092	6735
1761.238	6763
1763.383	6750
1765.528	6664
1767.672	6641
1769.814	6787
1771.959	6783
1774.102	6846
1776.242	6696
1778.384	6663
1780.525	6789
1782.665	6721
1784.805	6720
1786.945	6756
1789.082	6762
1791.22	6759
1793.36	6766
1795.495	6733
1797.632	6880
1799.766	6915
1801.902	6683
1804.035	6901
1806.172	6712
1808.304	6780
1810.436	6726
1812.569	6771
1814.699	6780
1816.833	6697
1818.963	6661
1821.092	6772
1823.222	6659
1825.35	6653
1827.478	6747
1829.608	6770
1831.734	6735
1833.86	6660
1835.986	6709
1838.11	6736
1840.238	6779
1842.362	6727
1844.485	6642
1846.608	6634
1848.73	6705
1850.853	6592
1852.974	6741
1855.097	6593
1857.217	6538
1859.336	6583
1861.455	6669
1863.576	6675
1865.693	6736
1867.811	6607
1869.926	6670
1872.042	6583
1874.16	6668
1876.275	6683
1878.39	6660
1880.504	6698
1882.618	6792
1884.731	6616
1886.843	6799
1888.956	6649
1891.067	6759
1893.178	6656
1895.287	6611
1897.399	6695
1899.508	6682
1901.617	6776
1903.724	6698
1905.832	6663
1907.941	6734
1910.046	6729
1912.152	6640
1914.256	6683
1916.361	6734
1918.464	6712
1920.57	6839
1922.672	6662
1924.775	6741
1926.876	6620
1928.978	6767
1931.08	6728
1933.181	6791
1935.28	6884
1937.38	6850
1939.478	6767
1941.577	6930
1943.675	6853
1945.771	6594
1947.867	6823
1949.964	6745
1952.058	6763
1954.154	6761
1956.248	6829
1958.343	6624
1960.435	6857
1962.527	6779
1964.62	6726
1966.711	6767
1968.802	6635
1970.892	6751
1972.983	6683
1975.072	6744
1977.162	6737
1979.25	6774
1981.337	6718
1983.424	6697
1985.51	6761
1987.598	6695
1989.683	6637
1991.768	6642
1993.852	6758
1995.934	6683
1998.019	6800
2000.102	6613
2002.184	6784
2004.266	6777
2006.347	6654
2008.427	6682
2010.508	6761
2012.587	6702
2014.666	6724
2016.745	6723
2018.821	6587
2020.9	6656
2022.977	6772
2025.052	6639
2027.128	6790
2029.204	6634
2031.277	6691
2033.353	6662
2035.425	6706
2037.499	6645
2039.57	6626
2041.642	6630
2043.714	6685
2045.786	6723
2047.855	6726
2049.925	6726
2051.993	6624
2054.064	6638
2056.132	6545
2058.2	6768
2060.266	6778
2062.332	6749
2064.398	6703
2066.465	6762
2068.529	6628
2070.592	6650
2072.657	6683
2074.719	6623
2076.783	6674
2078.845	6653
2080.907	6702
2082.968	6671
2085.028	6652
2087.087	6617
2089.148	6740
2091.207	6656
2093.264	6752
2095.322	6763
2097.379	6774
2099.439	6600
2101.495	6599
2103.55	6700
2105.605	6562
2107.658	6617
2109.713	6662
2111.767	6735
2113.82	6765
2115.872	6695
2117.924	6556
2119.975	6720
2122.028	6764
2124.078	6725
2126.126	6715
2128.176	6615
2130.225	6801
2132.275	6630
2134.321	6559
2136.368	6749
2138.415	6720
2140.461	6749
2142.505	6607
2144.552	6559
2146.597	6602
2148.64	6526
2150.684	6502
2152.725	6653
2154.77	6609
2156.811	6704
2158.852	6617
2160.894	6507
2162.933	6732
2164.973	6533
2167.013	6677
2169.051	6626
2171.089	6625
2173.126	6561
2175.164	6552
2177.201	6610
2179.236	6612
2181.273	6571
2183.307	6638
2185.341	6466
2187.377	6564
2189.41	6591
2191.442	6528
2193.473	6454
2195.506	6563
2197.539	6467
2199.569	6599
2201.598	6584
2203.628	6427
2205.656	6481
2207.686	6456
2209.716	6617
2211.743	6374
2213.769	6491
2215.796	6359
2217.821	6395
2219.848	6346
2221.873	6485
2223.897	6484
2225.921	6541
2227.944	6419
2229.967	6440
2231.991	6433
2234.011	6536
2236.032	6536
2238.053	6466
2240.073	6471
2242.094	6394
2244.114	6500
2246.131	6479
2248.149	6425
2250.167	6390
2252.186	6495
2254.201	6267
2256.218	6533
2258.233	6436
2260.247	6422
2262.262	6322
2264.278	6452
2266.29	6579
2268.303	6543
2270.315	6310
2272.327	6398
2274.341	6412
2276.35	6420
2278.361	6437
2280.37	6410
2282.38	6626
2284.388	6368
2286.397	6392
2288.405	6466
2290.412	6410
2292.419	6464
2294.425	6363
2296.431	6481
2298.437	6461
2300.441	6412
2302.445	6454
2304.449	6398
2306.453	6509
2308.455	6453
2310.457	6389
2312.459	6422
2314.46	6347
2316.46	6312
2318.461	6397
2320.46	6417
2322.458	6313
2324.458	6374
2326.456	6375
2328.455	6283
2330.451	6386
2332.447	6231
2334.443	6280
2336.438	6416
2338.433	6324
2340.429	6344
2342.422	6332
2344.416	6313
2346.408	6343
2348.399	6315
2350.393	6402
2352.384	6246
2354.375	6246
2356.365	6292
2358.355	6260
2360.344	6334
2362.333	6305
2364.322	6397
2366.309	6205
2368.295	6194
2370.282	6221
2372.27	6253
2374.256	6353
2376.24	6311
2378.225	6181
2380.208	6250
2382.194	6263
2384.177	6208
2386.159	6155
2388.142	6143
2390.122	6224
2392.105	6108
2394.085	6225
2396.066	6315
2398.044	6169
2400.024	6131
2402.002	6292
2403.982	6241
2405.959	6282
2407.935	6160
2409.913	6148
2411.888	6172
2413.865	6170
2415.84	6230
2417.814	6097
2419.788	6125
2421.762	6169
2423.735	6121
2425.708	6204
2427.68	6158
2429.651	6227
2431.623	6213
2433.593	6148
2435.564	6222
2437.533	6068
2439.502	6106
2441.47	6101
2443.438	6306
2445.406	6085
2447.373	6120
2449.34	6079
2451.305	6190
2453.271	6122
2455.235	6211
2457.201	6031
2459.165	6218
2461.129	6241
2463.092	6124
2465.054	6117
2467.018	6120
2468.978	6115
2470.939	6145
2472.899	6200
2474.86	6105
2476.819	6105
2478.778	6016
2480.737	6116
2482.695	6065
2484.653	6065
2486.609	5992
2488.567	6134
2490.524	6141
2492.478	6097
2494.433	6135
2496.387	6111
2498.343	5999
2500.297	5996
2502.249	6033
2504.202	6024
2506.153	6056
2508.105	6171
2510.057	6013
2512.008	6072
2513.957	5964
2515.906	6011
2517.855	6113
2519.805	5972
2521.754	5988
2523.7	6092
2525.647	5959
2527.594	5967
2529.54	6056
2531.486	6081
2533.431	6071
2535.376	6010
2537.32	6030
2539.263	5959
2541.207	6105
2543.151	6109
2545.093	6056
2547.034	6031
2548.975	6048
2550.917	6070
2552.856	6005
2554.796	6009
2556.735	6060
2558.673	6039
2560.611	6058
2562.55	6043
2564.487	6018
2566.424	6006
2568.36	5984
2570.296	5991
2572.232	5979
2574.167	6031
2576.101	6052
2578.035	6049
2579.969	5947
2581.902	5968
2583.834	5935
2585.766	6077
2587.698	6022
2589.628	5990
2591.557	5929
2593.489	6016
2595.419	5974
2597.348	5917
2599.275	6169
2601.204	5951
2603.131	5987
2605.059	5906
2606.986	5981
2608.911	6012
2610.837	6094
2612.76	5915
2614.687	6059
2616.61	5979
2618.534	5961
2620.457	6061
2622.38	6027
2624.302	6024
2626.225	5969
2628.145	5974
2630.067	6112
2631.986	6211
2633.906	6041
2635.827	6033
2637.745	5944
2639.662	6062
2641.581	6071
2643.498	6005
2645.415	6107
2647.331	6181
2649.248	5920
2651.163	6117
2653.077	6013
2654.993	6028
2656.906	5974
2658.821	6003
2660.733	5991
2662.646	6056
2664.557	6002
2666.47	5975
2668.381	5985
2670.291	5940
2672.201	5946
2674.11	5976
2676.021	5975
2677.929	5880
2679.837	5990
2681.745	5983
2683.652	5894
2685.56	5924
2687.466	5967
2689.371	6039
2691.276	5963
2693.181	5895
2695.085	5911
2696.991	5939
2698.893	5899
2700.796	5835
2702.698	5851
2704.601	5859
2706.502	6014
2708.404	5844
2710.304	5904
2712.203	5784
2714.103	5879
2716.003	5991
2717.902	5962
2719.8	5935
2721.697	5773
2723.594	5913
2725.49	5881
2727.389	5882
2729.283	5808
2731.179	5874
2733.073	5847
2734.968	5794
2736.863	5775
2738.757	5736
2740.649	5853
2742.541	5776
2744.433	5820
2746.324	5803
2748.216	5764
2750.107	5899
2751.997	5781
2753.886	5951
2755.776	5875
2757.666	5838
2759.553	5766
2761.44	5841
2763.327	5754
2765.215	5802
2767.102	5888
2768.988	5863
2770.873	5767
2772.757	5802
2774.641	5815
2776.525	5776
2778.41	5858
2780.292	5748
2782.175	5866
2784.057	5750
2785.938	5727
2787.821	5839
2789.701	5811
2791.581	5746
2793.461	5796
2795.34	5891
2797.219	5753
2799.099	5762
2800.975	5748
2802.853	5745
2804.73	5723
2806.606	5813
2808.484	5749
2810.358	5834
2812.233	5793
2814.108	5858
2815.981	5834
2817.857	5792
2819.73	5653
2821.602	5753
2823.474	5755
2825.346	5885
2827.217	5742
2829.089	5807
2830.959	5725
2832.829	5776
2834.698	5805
2836.567	5767
2838.436	5747
2840.305	5712
2842.172	5854
2844.04	5890
2845.905	5713
2847.772	5804
2849.639	5734
2851.503	5776
2853.369	5892
2855.232	5930
2857.096	5838
2858.961	5848
2860.824	5890
2862.686	5964
2864.547	5947
2866.41	6018
2868.272	5999
2870.132	6091
2871.992	6190
2873.851	6175
2875.711	6230
2877.57	6216
2879.429	6332
2881.287	6361
2883.144	6469
2885.001	6413
2886.857	6445
2888.714	6462
2890.57	6385
2892.425	6428
2894.279	6423
2896.133	6436
2897.987	6508
2899.842	6339
2901.694	6299
2903.547	6356
2905.397	6387
2907.249	6360
2909.101	6474
2910.952	6464
2912.802	6432
2914.652	6604
2916.5	6481
2918.35	6584
2920.198	6645
2922.045	6639
2923.893	6804
2925.74	6809
2927.585	6819
2929.433	6839
2931.279	7045
2933.123	7054
2934.968	7184
2936.811	7196
2938.656	7335
2940.5	7248
2942.342	7363
2944.185	7467
2946.026	7456
2947.87	7529
2949.71	7301
2951.549	7311
2953.39	7284
2955.229	7227
2957.069	7140
2958.908	7089
2960.746	7028
2962.584	6993
2964.421	6892
2966.257	6867
2968.094	6845
2969.931	6672
2971.766	6649
2973.601	6585
2975.435	6523
2977.27	6474
2979.105	6517
2980.938	6472
2982.77	6413
2984.602	6455
2986.434	6321
2988.267	6318
2990.097	6401
2991.927	6280
2993.757	6297
2995.587	6192
2997.417	6182
2999.246	6199
3001.074	6067
3002.902	6101
3004.729	6036
3006.556	5971
3008.384	5851
3010.21	5838
3012.036	5859
3013.861	5709
3015.684	5715
3017.51	5690
3019.334	5632
3021.157	5668
3022.981	5616
3024.802	5509
3026.624	5566
3028.448	5588
3030.267	5469
3032.088	5571
3033.909	5504
3035.728	5493
3037.549	5381
3039.368	5479
3041.186	5405
3043.004	5349
3044.821	5442
3046.64	5403
3048.455	5372
3050.272	5410
3052.087	5432
3053.903	5371
3055.717	5417
3057.534	5321
3059.347	5378
3061.16	5406
3062.974	5348
3064.785	5469
3066.598	5396
3068.411	5465
3070.222	5387
3072.032	5439
3073.844	5402
3075.653	5340
3077.463	5449
3079.272	5390
3081.08	5241
3082.889	5382
3084.697	5221
3086.505	5312
3088.312	5317
3090.118	5331
3091.924	5165
3093.729	5241
3095.535	5325
3097.34	5257
3099.144	5222
3100.947	5165
3102.75	5264
3104.553	5273
3106.357	5299
3108.159	5164
3109.961	5197
3111.762	5214
3113.562	5201
3115.365	5097
3117.164	5127
3118.964	5328
3120.761	5158
3122.56	5145
3124.36	5163
3126.158	5163
3127.954	5155
3129.75	5103
3131.547	5211
3133.343	5158
3135.139	5093
3136.934	5082
3138.729	5116
3140.522	5009
3142.317	5119
3144.11	5009
3145.904	5183
3147.695	5097
3149.488	5064
3151.28	5076
3153.07	5106
3154.863	5163
3156.652	5079
3158.441	5083
3160.231	5093
3162.019	5014
3163.81	5031
3165.597	5024
3167.384	5042
3169.172	5022
3170.958	5037
3172.745	5082
3174.532	5086
3176.317	5111
3178.101	5075
3179.885	4993
3181.67	5018
3183.455	5044
3185.238	5029
3187.02	4919
3188.802	5022
3190.585	5001
3192.368	4943
3194.149	5077
3195.929	5059
3197.709	5055
3199.489	5048
3201.268	5037
3203.048	5053
3204.826	5018
3206.604	4999
3208.382	5022
3210.159	4993
3211.937	5057
3213.713	5073
3215.489	4979
3217.263	4937
3219.038	5043
3220.815	5017
3222.589	4948
3224.363	5046
3226.136	5008
3227.908	5000
3229.681	5069
3231.454	4965
3233.226	4895
3234.996	5025
3236.767	4985
3238.538	4978
3240.308	4948
3242.078	4885
3243.847	4978
3245.615	4958
3247.384	5024
3249.15	5046
3250.92	4994
3252.686	5058
3254.453	5006
3256.218	4969
3257.984	4967
3259.75	5023
3261.515	5029
3263.279	5042
3265.044	5029
3266.806	4981
3268.57	4974
3270.334	5054
3272.095	5018
3273.856	4897
3275.619	4986
3277.379	4941
3279.14	5037
3280.9	4951
3282.661	4966
3284.419	4943
3286.178	4980
3287.937	5001
3289.695	4915
3291.453	4988
3293.21	5097
3294.967	4937
3296.723	5028
3298.48	4935
3300.235	5012
3301.99	5027
3303.744	4961
3305.498	5009
3307.253	5057
3309.006	5028
3310.759	4974
3312.511	4949
3314.263	4945
3316.017	5087
3317.768	4909
3319.519	5032
3321.268	4917
3323.018	5022
3324.767	5012
3326.518	4922
3328.267	4932
3330.014	4958
3331.762	5033
3333.509	4963
3335.258	5026
3337.003	4940
3338.75	4830
3340.496	5016
3342.24	4924
3343.987	5036
3345.732	4976
3347.475	5001
3349.219	4807
3350.961	4920
3352.705	4939
3354.448	4930
3356.19	4934
3357.931	4873
3359.672	4906
3361.412	4911
3363.155	4884
3364.894	4963
3366.633	4779
3368.372	4837
3370.11	4782
3371.849	4836
3373.588	4907
3375.325	4741
3377.061	4865
3378.799	4792
3380.534	4926
3382.271	4848
3384.006	4857
3385.741	4798
3387.475	4827
3389.209	4906
3390.944	4869
3392.677	4804
3394.409	4736
3396.143	4778
3397.874	4783
3399.606	4787
3401.338	4697
3403.069	4783
3404.799	4740
3406.528	4748
3408.258	4749
3409.988	4895
3411.717	4775
3413.445	4747
3415.173	4662
3416.899	4775
3418.626	4757
3420.354	4707
3422.08	4702
3423.806	4781
3425.531	4678
3427.255	4657
3428.981	4744
3430.705	4751
3432.429	4734
3434.151	4694
3435.875	4687
3437.599	4719
3439.321	4698
3441.042	4675
3442.763	4696
3444.483	4619
3446.204	4688
3447.926	4650
3449.645	4677
3451.364	4608
3453.082	4656
3454.801	4667
3456.52	4599
3458.238	4545
3459.954	4541
3461.671	4530
3463.387	4632
3465.104	4487
3466.82	4524
3468.534	4539
3470.25	4581
3471.963	4590
3473.676	4538
3475.392	4650
3477.104	4565
3478.817	4512
3480.528	4506
3482.241	4544
3483.954	4514
3485.664	4555
3487.374	4322
3489.084	4474
3490.795	4502
3492.504	4533
3494.214	4495
3495.922	4461
3497.63	4433
3499.338	4443
3501.045	4422
3502.753	4388
3504.459	4378
3506.166	4480
3507.871	4428
3509.576	4326
3511.283	4407
3512.987	4407
3514.691	4429
3516.395	4393
3518.098	4327
3519.8	4346
3521.504	4322
3523.206	4263
3524.908	4412
3526.609	4377
3528.309	4389
3530.011	4417
3531.711	4331
3533.411	4323
3535.109	4331
3536.808	4348
3538.507	4435
3540.206	4429
3541.904	4360
3543.601	4276
3545.297	4220
3546.994	4329
3548.69	4255
3550.387	4245
3552.081	4305
3553.776	4318
3555.47	4276
3557.166	4258
3558.859	4244
3560.553	4261
3562.245	4260
3563.938	4222
3565.629	4295
3567.322	4241
3569.014	4273
3570.704	4145
3572.394	4240
3574.084	4235
3575.775	4189
3577.464	4179
3579.152	4170
3580.842	4245
3582.529	4202
3584.216	4115
3585.905	4133
3587.591	4163
3589.279	4169
3590.964	4048
3592.649	4134
3594.336	4121
3596.021	4098
3597.705	4195
3599.388	4108
3601.072	4057
3602.757	4127
3604.439	4111
3606.122	4120
3607.803	4178
3609.485	3996
3611.167	4046
3612.849	4075
3614.529	4063
3616.208	4017
3617.888	4065
3619.567	3992
3621.247	3977
3622.926	4026
3624.603	3957
3626.281	3992
3627.958	3967
3629.635	4039
3631.312	3992
3632.989	3934
3634.665	4035
3636.339	3972
3638.014	3996
3639.691	3927
3641.364	3935
3643.038	3906
3644.71	3877
3646.384	3908
3648.058	4023
3649.729	3823
3651.402	3869
3653.073	3955
3654.744	3885
3656.414	3929
3658.085	3960
3659.755	3967
3661.424	3810
3663.094	3840
3664.762	3864
3666.431	3880
3668.099	3876
3669.766	3807
3671.433	3837
3673.099	3855
3674.768	3843
3676.433	3871
3678.098	3870
3679.763	3839
3681.428	3774
3683.093	3966
3684.757	3849
3686.421	3875
3688.083	3763
3689.746	3860
3691.408	3858
3693.071	3793
3694.733	3850
3696.394	3784
3698.054	3829
3699.715	3800
3701.375	3879
3703.036	3850
3704.695	3726
3706.354	3828
3708.012	3886
3709.67	3816
3711.329	3788
3712.987	3786
3714.644	3779
3716.299	3743
3717.955	3783
3719.613	3686
3721.268	3779
3722.923	3762
3724.577	3737
3726.231	3786
3727.885	3743
3729.539	3790
3731.192	3693
3732.845	3727
3734.497	3754
3736.149	3665
3737.802	3778
3739.453	3708
3741.104	3702
3742.753	3696
3744.404	3749
3746.052	3809
3747.704	3707
3749.352	3773
3751	3652
3752.648	3625
3754.296	3730
3755.944	3652
3757.59	3685
3759.238	3705
3760.883	3710
3762.528	3689
3764.176	3695
3765.82	3650
3767.464	3676
3769.109	3641
3770.753	3649
3772.396	3637
3774.04	3671
3775.683	3692
3777.325	3710
3778.967	3614
3780.608	3699
3782.25	3698
3783.89	3541
3785.531	3729
3787.17	3616
3788.81	3562
3790.45	3635
3792.09	3590
3793.729	3524
3795.366	3632
3797.003	3604
3798.64	3703
3800.278	3650
3801.915	3563
3803.551	3607
3805.187	3534
3806.822	3528
3808.458	3558
3810.093	3600
3811.726	3597
3813.36	3578
3814.994	3640
3816.627	3578
3818.262	3598
3819.893	3526
3821.525	3540
3823.157	3531
3824.787	3490
3826.42	3589
3828.051	3560
3829.68	3524
3831.31	3593
3832.938	3566
3834.569	3503
3836.198	3494
3837.825	3514
3839.454	3454
3841.08	3504
3842.708	3547
3844.335	3497
3845.962	3502
3847.587	3450
3849.212	3475
3850.838	3438
3852.463	3431
3854.089	3458
3855.712	3491
3857.335	3556
3858.959	3361
3860.582	3469
3862.205	3491
3863.827	3500
3865.449	3439
3867.07	3430
3868.691	3482
3870.312	3548
3871.933	3489
3873.553	3364
3875.173	3393
3876.792	3448
3878.411	3451
3880.03	3417
3881.647	3414
3883.265	3388
3884.882	3409
3886.499	3371
3888.116	3416
3889.732	3363
3891.348	3428
3892.964	3444
3894.579	3432
3896.195	3443
3897.809	3386
3899.423	3378
3901.036	3406
3902.648	3429
3904.261	3375
3905.875	3345
3907.487	3431
3909.099	3324
3910.709	3417
3912.321	3433
3913.933	3395
3915.542	3333
3917.152	3385
3918.762	3391
3920.37	3407
3921.98	3312
3923.589	3348
3925.196	3330
3926.804	3366
3928.41	3411
3930.018	3409
3931.626	3426
3933.231	3346
3934.838	3292
3936.442	3331
3938.046	3392
3939.653	3361
3941.257	3310
3942.861	3376
3944.464	3364
3946.068	3349
3947.67	3308
3949.273	3314
3950.876	3309
3952.477	3305
3954.078	3393
3955.678	3313
3957.281	3352
3958.881	3320
3960.48	3280
3962.079	3275
3963.678	3327
3965.279	3272
3966.877	3334
3968.475	3276
3970.072	3253
3971.669	3307
3973.266	3304
3974.864	3247
3976.459	3282
3978.055	3310
3979.65	3252
3981.245	3221
3982.841	3308
3984.436	3255
3986.03	3307
3987.623	3263
3989.216	3238
3990.809	3163
3992.403	3220
3993.995	3228
3995.586	3177
3997.177	3150
3998.768	3162
4000.361	3217
4001.951	3215
4003.54	3129
4005.13	3218
4006.719	3182
4008.31	3170
4009.897	3171
4011.485	3153
4013.073	3199
4014.66	3098
4016.247	3141
4017.834	3129
4019.421	3192
4021.006	3160
4022.592	3114
4024.178	3060
4025.763	3173
4027.348	3127
4028.932	3101
4030.515	3157
4032.099	3204
4033.682	3143
4035.266	2944
4036.847	3114
4038.429	3032
4040.011	3006
4041.592	3146
4043.173	3152
4044.755	3055
4046.334	3058
4047.913	3096
4049.494	3077
4051.074	2953
4052.652	3080
4054.23	3054
4055.807	3149
4057.385	3035
4058.963	3104
4060.541	3122
4062.117	3117
4063.693	3028
4065.269	3027
4066.844	3089
4068.42	3103
4069.995	3073
4071.569	3017
4073.143	3117
4074.716	2993
4076.291	3004
4077.864	3073
4079.436	3046
4081.009	2955
4082.58	2974
4084.152	3071
4085.723	3026
4087.294	3100
4088.865	3027
4090.435	3065
4092.005	2975
4093.574	2942
4095.143	3098
4096.712	2964
4098.279	2963
4099.848	3037
4101.416	2966
4102.984	2980
4104.55	2998
4106.117	2952
4107.682	3106
4109.248	2913
4110.815	2943
4112.379	2973
4113.945	2961
4115.508	2988
4117.073	2971
4118.637	3014
4120.201	2945
4121.763	2966
4123.325	2931
4124.888	2957
4126.449	2948
4128.013	2904
4129.573	2889
4131.133	2853
4132.694	3002
4134.254	2823
4135.814	2932
4137.374	2917
4138.933	2896
4140.491	2974
4142.049	2902
4143.607	2941
4145.167	2952
4146.724	3008
4148.28	2830
4149.836	2862
4151.392	2854
4152.949	2943
4154.504	2903
4156.059	2844
4157.614	2806
4159.168	2865
4160.723	2867
4162.277	2824
4163.83	2845
4165.383	2807
4166.936	2773
4168.488	2874
4170.041	2803
4171.593	2819
4173.144	2880
4174.695	2772
4176.246	2832
4177.796	2825
4179.346	2747
4180.896	2776
4182.445	2790
4183.994	2788
4185.542	2762
4187.091	2780
4188.639	2818
4190.185	2731
4191.732	2839
4193.279	2821
4194.826	2836
4196.373	2734
4197.918	2734
4199.463	2777
4201.008	2834
4202.553	2765
4204.098	2782
4205.641	2748
4207.185	2789
4208.728	2731
4210.271	2775
4211.814	2753
4213.357	2763
4214.898	2752
4216.439	2740
4217.98	2754
4219.522	2731
4221.062	2697
4222.603	2751
4224.142	2686
4225.681	2758
4227.222	2728
4228.76	2796
4230.298	2764
4231.835	2687
4233.373	2714
4234.911	2783
4236.449	2761
4237.985	2688
4239.521	2731
4241.057	2731
4242.592	2653
4244.128	2738
4245.663	2718
4247.197	2750
4248.731	2703
4250.265	2660
4251.798	2732
4253.333	2749
4254.865	2738
4256.397	2580
4257.93	2623
4259.461	2721
4260.994	2681
4262.525	2709
4264.056	2695
4265.586	2643
4267.115	2724
4268.646	2719
4270.176	2600
4271.705	2687
4273.232	2627
4274.761	2678
4276.289	2598
4277.818	2716
4279.345	2713
4280.872	2590
4282.399	2618
4283.924	2673
4285.452	2617
4286.976	2607
4288.502	2614
4290.026	2619
4291.551	2661
4293.074	2677
4294.6	2607
4296.123	2604
4297.646	2598
4299.168	2619
4300.691	2653
4302.214	2625
4303.736	2644
4305.257	2601
4306.778	2614
4308.299	2593
4309.82	2656
4311.34	2562
4312.86	2602
4314.379	2564
