400.0745	4276
402.597	4247
405.1208	4293
407.6419	4292
410.1623	4419
412.6819	4311
415.201	4305
417.7172	4455
420.2369	4490
422.7538	4418
425.2701	4551
427.7856	4433
430.3005	4472
432.8147	4541
435.3282	4609
437.841	4512
440.3511	4552
442.8625	4546
445.3753	4640
447.8854	4625
450.3927	4601
452.9014	4501
455.4073	4564
457.9146	4562
460.4233	4533
462.9272	4582
465.4325	4637
467.935	4516
470.4389	4664
472.9421	4594
475.4446	4670
477.9444	4514
480.4456	4569
482.944	4635
485.4417	4587
487.9429	4731
490.4393	4563
492.935	4628
495.4321	4648
497.9264	4593
500.4221	4634
502.9171	4655
505.4094	4727
507.9011	4690
510.392	4737
512.8864	4683
515.3759	4774
517.8649	4797
520.3531	4804
522.8406	4776
525.3275	4753
527.8178	4794
530.3033	4705
532.7881	4777
535.2723	4782
537.7558	4817
540.2407	4742
542.7228	4853
545.2043	4747
547.6851	4881
550.1652	4732
552.6467	4670
555.1255	4786
557.6016	4770
560.079	4787
562.5557	4862
565.0318	4793
567.5092	4923
569.984	4894
572.456	4933
574.9294	4936
577.4022	4988
579.8762	4933
582.3456	4979
584.8163	5086
587.2863	5026
589.7557	5002
592.2224	4931
594.6924	4960
597.1578	4955
599.6245	4902
602.0905	4897
604.5538	5054
607.0206	5003
609.4825	5028
611.9459	4927
614.4066	4911
616.8686	4938
619.33	4975
621.7906	4992
624.2487	4950
626.708	4978
629.1647	4845
631.6207	4886
634.0801	4900
636.5348	4918
638.9888	4872
641.4442	4968
643.8969	5045
646.3509	4956
648.8022	4938
651.255	4979
653.705	4946
656.1544	4956
658.6031	4978
661.0532	4970
663.5026	5011
665.9493	5032
668.3954	5091
670.8409	5009
673.2877	5161
675.7318	5148
678.1752	5058
680.618	5069
683.0601	4983
685.5035	5054
687.9444	5045
690.3845	5137
692.824	5147
695.2628	5100
697.701	5150
700.1406	5228
702.5774	5219
705.0116	5222
707.4472	5174
709.8821	5186
712.3183	5201
714.7519	5159
717.1829	5222
719.6151	5227
722.0468	5193
724.4777	5253
726.908	5311
729.3377	5254
731.7667	5359
734.1931	5314
736.6208	5244
739.0498	5325
741.4742	5314
743.9	5352
746.3231	5319
748.7476	5481
751.1713	5422
753.5945	5454
756.015	5452
758.4368	5501
760.856	5445
763.2766	5441
765.6965	5466
768.1157	5416
770.5323	5382
772.9483	5514
775.3656	5493
777.7822	5423
780.1963	5491
782.6116	5482
785.0244	5492
787.4365	5477
789.8499	5504
792.2626	5513
794.6728	5454
797.0823	5478
799.4911	5507
801.8994	5456
804.3109	5684
806.7178	5535
809.124	5533
811.5297	5514
813.9347	5482
816.341	5481
818.7447	5474
821.1478	5584
823.5502	5486
825.952	5577
828.3531	5617
830.7556	5455
833.1554	5541
835.5546	5526
837.9532	5572
840.3511	5550
842.7504	5672
845.1451	5599
847.5411	5682
849.9365	5651
852.3312	5714
854.7272	5731
857.1187	5788
859.5115	5648
861.9037	5687
864.2952	5636
866.6842	5578
869.0764	5652
871.4661	5609
873.8531	5634
876.2415	5708
878.6272	5632
881.0162	5652
883.4026	5591
885.7866	5697
888.1717	5576
890.5543	5598
892.9382	5577
895.3215	5681
897.7041	5590
900.0842	5635
902.4655	5727
904.8443	5641
907.2244	5647
909.6039	5716
911.9808	5695
914.357	5825
916.7346	5916
919.1115	5819
921.4859	5852
923.8616	5853
926.2347	5813
928.6071	5978
930.979	5815
933.3541	5921
935.7247	5930
938.0946	5927
940.4639	6117
942.8326	6109
945.2026	5993
947.5701	6201
949.9369	6365
952.305	6644
954.6705	6735
957.0355	7004
959.4017	7251
961.7654	7288
964.1284	7318
966.4908	6981
968.8527	6889
971.2138	6567
973.5743	6408
975.9343	6208
978.2936	6058
980.6522	5980
983.0122	5881
985.3696	5806
987.7245	5894
990.0807	5843
992.4362	5810
994.7911	5798
997.1474	5932
999.4991	5882
1001.852	5883
1004.205	5862
1006.555	5879
1008.908	5880
1011.258	5849
1013.606	5872
1015.956	5917
1018.302	5913
1020.652	5819
1022.998	5880
1025.345	5836
1027.691	5975
1030.035	5965
1032.378	5974
1034.724	5923
1037.066	6012
1039.409	5995
1041.75	5948
1044.092	5983
1046.433	5961
1048.771	5970
1051.112	6031
1053.449	5926
1055.786	6015
1058.124	6010
1060.462	6055
1062.797	6122
1065.131	6114
1067.467	6116
1069.8	6084
1072.135	6130
1074.467	6246
1076.798	6080
1079.129	6051
1081.459	6088
1083.792	6098
1086.121	6004
1088.449	6044
1090.777	6020
1093.104	5964
1095.431	6139
1097.759	6001
1100.084	6038
1102.408	5962
1104.732	6005
1107.056	5993
1109.379	5961
1111.701	6017
1114.022	6011
1116.343	6037
1118.664	5962
1120.983	5955
1123.303	5938
1125.621	5976
1127.939	6014
1130.256	5961
1132.573	5906
1134.889	6081
1137.205	6004
1139.52	5925
1141.832	5912
1144.146	5920
1146.461	6062
1148.771	6064
1151.083	5984
1153.392	6027
1155.703	6076
1158.011	5989
1160.323	6066
1162.629	5989
1164.938	6015
1167.243	6007
1169.55	6048
1171.857	5997
1174.163	6053
1176.466	6028
1178.769	6033
1181.073	5976
1183.374	6045
1185.677	6140
1187.979	5982
1190.279	5877
1192.578	6040
1194.878	6023
1197.178	5945
1199.476	5884
1201.772	5966
1204.068	6089
1206.366	6024
1208.663	5941
1210.957	6132
1213.251	6110
1215.544	6027
1217.836	6087
1220.128	6019
1222.421	6135
1224.712	6006
1227.002	6120
1229.292	6087
1231.581	6139
1233.871	6129
1236.159	6194
1238.446	6232
1240.732	6219
1243.018	6322
1245.304	6204
1247.59	6238
1249.874	6171
1252.156	6193
1254.439	6220
1256.721	6221
1259.005	6160
1261.286	6225
1263.565	6268
1265.845	6260
1268.125	6219
1270.403	6240
1272.682	6367
1274.959	6185
1277.234	6236
1279.511	6234
1281.787	6337
1284.062	6139
1286.337	6144
1288.609	6188
1290.882	6112
1293.153	6144
1295.428	6165
1297.698	6168
1299.969	6040
1302.237	6039
1304.507	6036
1306.777	6270
1309.044	6020
1311.312	6066
1313.578	6206
1315.844	6183
1318.109	6141
1320.375	6088
1322.638	6054
1324.903	6195
1327.165	5994
1329.427	6158
1331.69	6158
1333.952	6056
1336.212	6178
1338.471	6153
1340.73	6203
1342.988	6265
1345.248	6088
1347.505	6155
1349.763	6105
1352.019	6218
1354.274	6133
1356.53	6233
1358.784	6121
1361.038	6148
1363.291	6142
1365.543	6139
1367.797	6197
1370.048	6077
1372.296	6033
1374.546	6123
1376.796	6071
1379.045	6138
1381.295	6191
1383.542	6238
1385.787	6315
1388.034	6301
1390.28	6203
1392.527	6275
1394.772	6196
1397.014	6339
1399.258	6237
1401.501	6164
1403.741	6291
1405.985	6206
1408.226	6222
1410.465	6196
1412.705	6313
1414.943	6332
1417.184	6328
1419.42	6329
1421.658	6185
1423.894	6372
1426.13	6334
1428.366	6414
1430.602	6343
1432.835	6400
1435.069	6367
1437.301	6419
1439.535	6334
1441.767	6446
1443.997	6442
1446.229	6340
1448.458	6463
1450.687	6406
1452.916	6464
1455.146	6398
1457.372	6386
1459.599	6295
1461.824	6456
1464.051	6504
1466.277	6409
1468.501	6367
1470.725	6350
1472.948	6271
1475.17	6297
1477.393	6278
1479.614	6313
1481.837	6228
1484.057	6263
1486.276	6226
1488.497	6165
1490.715	6143
1492.932	6235
1495.148	6336
1497.364	6251
1499.58	6045
1501.798	6126
1504.012	6092
1506.227	6095
1508.44	6032
1510.653	6191
1512.866	6026
1515.078	6158
1517.289	6100
1519.5	6170
1521.711	6169
1523.92	6182
1526.13	6089
1528.338	6112
1530.544	6139
1532.752	6111
1534.959	6083
1537.165	6040
1539.371	6195
1541.574	6203
1543.779	6082
1545.983	6112
1548.187	6205
1550.39	6159
1552.59	6167
1554.792	6273
1556.991	6086
1559.19	6302
1561.392	6182
1563.59	6185
1565.789	6160
1567.986	6263
1570.182	6276
1572.381	6251
1574.576	6260
1576.771	6236
1578.966	6287
1581.16	6302
1583.354	6361
1585.546	6186
1587.74	6297
1589.931	6376
1592.121	6299
1594.311	6339
1596.502	6301
1598.693	6484
1600.881	6413
1603.069	6278
1605.256	6477
1607.445	6351
1609.631	6305
1611.816	6231
1614.001	6361
1616.186	6310
1618.37	6365
1620.555	6385
1622.737	6416
1624.919	6432
1627.101	6320
1629.282	6477
1631.463	6379
1633.643	6402
1635.822	6473
1638.001	6392
1640.179	6410
1642.359	6495
1644.534	6420
1646.711	6564
1648.887	6371
1651.062	6560
1653.235	6465
1655.412	6498
1657.586	6414
1659.757	6502
1661.93	6365
1664.1	6480
1666.274	6587
1668.445	6498
1670.614	6558
1672.784	6474
1674.951	6480
1677.12	6500
1679.289	6517
1681.457	6308
1683.622	6526
1685.789	6563
1687.953	6502
1690.121	6432
1692.284	6325
1694.447	6427
1696.611	6382
1698.772	6469
1700.935	6475
1703.098	6267
1705.258	6315
1707.417	6389
1709.576	6405
1711.736	6390
1713.896	6372
1716.053	6352
1718.21	6312
1720.366	6292
1722.522	6325
1724.68	6225
1726.835	6273
1728.989	6288
1731.142	6235
1733.295	6221
1735.449	6343
1737.601	6293
1739.753	6408
1741.903	6313
1744.054	6307
1746.203	6368
1748.354	6365
1750.503	6251
1752.651	6481
1754.798	6282
1756.944	6335
1759.092	6355
1761.238	6276
1763.383	6256
1765.528	6323
1767.672	6356
1769.814	6381
1771.959	6301
1774.102	6353
1776.242	6286
1778.384	6350
1780.525	6389
1782.665	6254
1784.805	6217
1786.945	6379
1789.082	6324
1791.22	6376
1793.36	6311
1795.495	6373
1797.632	6321
1799.766	6315
1801.902	6288
1804.035	6417
1806.172	6457
1808.304	6422
1810.436	6370
1812.569	6285
1814.699	6357
1816.833	6238
1818.963	6374
1821.092	6362
1823.222	6226
1825.35	6338
1827.478	6406
1829.608	6290
1831.734	6315
1833.86	6302
1835.986	6248
1838.11	6353
1840.238	6287
1842.362	6287
1844.485	6298
1846.608	6223
1848.73	6333
1850.853	6300
1852.974	6271
1855.097	6277
1857.217	6238
1859.336	6352
1861.455	6209
1863.576	6312
1865.693	6194
1867.811	6231
1869.926	6377
1872.042	6266
1874.16	6305
1876.275	6151
1878.39	6343
1880.504	6348
1882.618	6290
1884.731	6328
1886.843	6196
1888.956	6350
1891.067	6261
1893.178	6215
1895.287	6336
1897.399	6364
1899.508	6258
1901.617	6318
1903.724	6238
1905.832	6495
1907.941	6358
1910.046	6300
1912.152	6439
1914.256	6378
1916.361	6310
1918.464	6343
1920.57	6449
1922.672	6367
1924.775	6357
1926.876	6432
1928.978	6467
1931.08	6345
1933.181	6359
1935.28	6431
1937.38	6330
1939.478	6454
1941.577	6343
1943.675	6365
1945.771	6444
1947.867	6350
1949.964	6338
1952.058	6469
1954.154	6422
1956.248	6312
1958.343	6324
1960.435	6334
1962.527	6368
1964.62	6321
1966.711	6342
1968.802	6292
1970.892	6352
1972.983	6305
1975.072	6415
1977.162	6360
1979.25	6302
1981.337	6284
1983.424	6331
1985.51	6393
1987.598	6367
1989.683	6433
1991.768	6400
1993.852	6402
1995.934	6442
1998.019	6419
2000.102	6283
2002.184	6219
2004.266	6315
2006.347	6436
2008.427	6265
2010.508	6392
2012.587	6285
2014.666	6274
2016.745	6423
2018.821	6272
2020.9	6240
2022.977	6378
2025.052	6189
2027.128	6300
2029.204	6420
2031.277	6365
2033.353	6288
2035.425	6250
2037.499	6316
2039.57	6369
2041.642	6283
2043.714	6286
2045.786	6283
2047.855	6288
2049.925	6368
2051.993	6344
2054.064	6383
2056.132	6428
2058.2	6356
2060.266	6298
2062.332	6377
2064.398	6349
2066.465	6376
2068.529	6300
2070.592	6306
2072.657	6343
2074.719	6347
2076.783	6326
2078.845	6267
2080.907	6218
2082.968	6309
2085.028	6367
2087.087	6324
2089.148	6283
2091.207	6422
2093.264	6239
2095.322	6444
2097.379	6450
2099.439	6288
2101.495	6294
2103.55	6253
2105.605	6273
2107.658	6376
2109.713	6283
2111.767	6350
2113.82	6362
2115.872	6402
2117.924	6370
2119.975	6369
2122.028	6328
2124.078	6283
2126.126	6333
2128.176	6336
2130.225	6311
2132.275	6247
2134.321	6273
2136.368	6323
2138.415	6274
2140.461	6305
2142.505	6261
2144.552	6240
2146.597	6366
2148.64	6375
2150.684	6293
2152.725	6321
2154.77	6258
2156.811	6239
2158.852	6168
2160.894	6238
2162.933	6283
2164.973	6260
2167.013	6279
2169.051	6150
2171.089	6266
2173.126	6280
2175.164	6257
2177.201	6209
2179.236	6205
2181.273	6204
2183.307	6180
2185.341	6144
2187.377	6040
2189.41	6271
2191.442	6212
2193.473	6114
2195.506	6115
2197.539	6078
2199.569	6169
2201.598	6182
2203.628	6227
2205.656	6185
2207.686	6088
2209.716	6111
2211.743	6127
2213.769	6124
2215.796	6017
2217.821	6063
2219.848	6108
2221.873	6194
2223.897	6136
2225.921	6099
2227.944	6072
2229.967	6059
2231.991	6130
2234.011	6246
2236.032	6126
2238.053	6070
2240.073	6022
2242.094	6134
2244.114	6206
2246.131	6133
2248.149	6116
2250.167	6144
2252.186	5968
2254.201	6201
2256.218	6077
2258.233	6115
2260.247	6002
2262.262	6173
2264.278	6131
2266.29	6200
2268.303	6098
2270.315	6044
2272.327	6085
2274.341	6016
2276.35	6176
2278.361	6137
2280.37	6073
2282.38	6096
2284.388	6205
2286.397	6100
2288.405	6141
2290.412	6162
2292.419	6179
2294.425	6178
2296.431	6063
2298.437	6131
2300.441	6207
2302.445	6169
2304.449	6120
2306.453	6103
2308.455	6050
2310.457	6066
2312.459	6064
2314.46	6113
2316.46	6097
2318.461	6001
2320.46	6060
2322.458	6073
2324.458	6057
2326.456	6070
2328.455	5994
2330.451	6124
2332.447	5975
2334.443	5983
2336.438	6055
2338.433	6032
2340.429	5998
2342.422	6059
2344.416	6054
2346.408	5937
2348.399	5974
2350.393	5861
2352.384	5951
2354.375	5905
2356.365	6056
2358.355	5831
2360.344	5936
2362.333	6025
2364.322	6025
2366.309	6010
2368.295	6049
2370.282	6056
2372.27	6030
2374.256	5918
2376.24	5977
2378.225	5955
2380.208	5953
2382.194	5958
2384.177	5902
2386.159	5898
2388.142	5899
2390.122	5933
2392.105	5941
2394.085	6016
2396.066	5872
2398.044	5984
2400.024	5918
2402.002	5978
2403.982	5870
2405.959	5818
2407.935	5831
2409.913	5817
2411.888	5864
2413.865	5850
2415.84	5868
2417.814	5905
2419.788	5899
2421.762	5786
2423.735	5808
2425.708	5903
2427.68	5828
2429.651	5863
2431.623	5861
2433.593	5912
2435.564	5836
2437.533	5859
2439.502	5939
2441.47	5854
2443.438	5875
2445.406	5821
2447.373	5951
2449.34	5862
2451.305	5718
2453.271	5720
2455.235	5828
2457.201	5907
2459.165	5888
2461.129	5884
2463.092	5816
2465.054	5989
2467.018	5842
2468.978	5820
2470.939	5807
2472.899	5684
2474.86	5740
2476.819	5792
2478.778	5765
2480.737	5858
2482.695	5783
2484.653	5800
2486.609	5771
2488.567	5882
2490.524	5819
2492.478	5696
2494.433	5713
2496.387	5753
2498.343	5825
2500.297	5853
2502.249	5730
2504.202	5669
2506.153	5836
2508.105	5787
2510.057	5755
2512.008	5799
2513.957	5787
2515.906	5759
2517.855	5786
2519.805	5797
2521.754	5708
2523.7	5662
2525.647	5749
2527.594	5768
2529.54	5892
2531.486	5724
2533.431	5755
2535.376	5764
2537.32	5755
2539.263	5720
2541.207	5803
2543.151	5771
2545.093	5824
2547.034	5727
2548.975	5751
2550.917	5726
2552.856	5679
2554.796	5832
2556.735	5715
2558.673	5750
2560.611	5721
2562.55	5758
2564.487	5711
2566.424	5643
2568.36	5705
2570.296	5641
2572.232	5774
2574.167	5812
2576.101	5625
2578.035	5818
2579.969	5726
2581.902	5663
2583.834	5752
2585.766	5770
2587.698	5825
2589.628	5770
2591.557	5636
2593.489	5735
2595.419	5856
2597.348	5666
2599.275	5706
2601.204	5753
2603.131	5675
2605.059	5697
2606.986	5832
2608.911	5669
2610.837	5738
2612.76	5692
2614.687	5775
2616.61	5776
2618.534	5778
2620.457	5698
2622.38	5610
2624.302	5683
2626.225	5741
2628.145	5787
2630.067	5766
2631.986	5682
2633.906	5761
2635.827	5841
2637.745	5724
2639.662	5704
2641.581	5758
2643.498	5773
2645.415	5662
2647.331	5766
2649.248	5691
2651.163	5749
2653.077	5746
2654.993	5747
2656.906	5741
2658.821	5697
2660.733	5698
2662.646	5689
2664.557	5574
2666.47	5741
2668.381	5672
2670.291	5703
2672.201	5708
2674.11	5723
2676.021	5805
2677.929	5679
2679.837	5687
2681.745	5702
2683.652	5683
2685.56	5612
2687.466	5602
2689.371	5613
2691.276	5587
2693.181	5664
2695.085	5678
2696.991	5654
2698.893	5726
2700.796	5753
2702.698	5645
2704.601	5607
2706.502	5593
2708.404	5526
2710.304	5614
2712.203	5655
2714.103	5599
2716.003	5632
2717.902	5561
2719.8	5589
2721.697	5623
2723.594	5591
2725.49	5703
2727.389	5515
2729.283	5597
2731.179	5592
2733.073	5541
2734.968	5664
2736.863	5467
2738.757	5481
2740.649	5603
2742.541	5527
2744.433	5592
2746.324	5543
2748.216	5539
2750.107	5574
2751.997	5479
2753.886	5570
2755.776	5592
2757.666	5552
2759.553	5577
2761.44	5483
2763.327	5502
2765.215	5509
2767.102	5659
2768.988	5473
2770.873	5461
2772.757	5505
2774.641	5515
2776.525	5614
2778.41	5524
2780.292	5601
2782.175	5549
2784.057	5599
2785.938	5505
2787.821	5634
2789.701	5530
2791.581	5560
2793.461	5592
2795.34	5504
2797.219	5516
2799.099	5448
2800.975	5359
2802.853	5447
2804.73	5360
2806.606	5403
2808.484	5432
2810.358	5417
2812.233	5441
2814.108	5505
2815.981	5544
2817.857	5435
2819.73	5298
2821.602	5504
2823.474	5505
2825.346	5562
2827.217	5419
2829.089	5432
2830.959	5483
2832.829	5501
2834.698	5428
2836.567	5418
2838.436	5506
2840.305	5444
2842.172	5536
2844.04	5451
2845.905	5564
2847.772	5603
2849.639	5557
2851.503	5355
2853.369	5514
2855.232	5545
2857.096	5454
2858.961	5527
2860.824	5585
2862.686	5645
2864.547	5635
2866.41	5635
2868.272	5655
2870.132	5712
2871.992	5815
2873.851	5715
2875.711	5702
2877.57	5796
2879.429	5803
2881.287	5889
2883.144	5925
2885.001	5891
2886.857	5897
2888.714	5866
2890.57	5851
2892.425	5869
2894.279	5888
2896.133	5805
2897.987	5863
2899.842	5832
2901.694	5790
2903.547	5852
2905.397	5866
2907.249	5882
2909.101	5856
2910.952	5864
2912.802	5905
2914.652	6012
2916.5	6065
2918.35	6047
2920.198	6120
2922.045	6001
2923.893	6180
2925.74	6209
2927.585	6300
2929.433	6312
2931.279	6328
2933.123	6336
2934.968	6446
2936.811	6497
2938.656	6534
2940.5	6471
2942.342	6679
2944.185	6582
2946.026	6636
2947.87	6593
2949.71	6756
2951.549	6637
2953.39	6563
2955.229	6454
2957.069	6352
2958.908	6301
2960.746	6311
2962.584	6206
2964.421	6271
2966.257	6225
2968.094	6172
2969.931	6093
2971.766	6009
2973.601	6048
2975.435	5964
2977.27	6023
2979.105	6011
2980.938	6048
2982.77	5991
2984.602	5901
2986.434	5893
2988.267	5928
2990.097	5911
2991.927	5695
2993.757	5796
2995.587	5782
2997.417	5593
2999.246	5721
3001.074	5615
3002.902	5556
3004.729	5568
3006.556	5570
3008.384	5530
3010.21	5408
3012.036	5488
3013.861	5382
3015.684	5240
3017.51	5272
3019.334	5428
3021.157	5286
3022.981	5340
3024.802	5137
3026.624	5252
3028.448	5254
3030.267	5196
3032.088	5216
3033.909	5162
3035.728	5216
3037.549	5183
3039.368	5117
3041.186	5065
3043.004	5305
3044.821	5157
3046.64	5091
3048.455	5027
3050.272	5043
3052.087	5148
3053.903	5081
3055.717	5103
3057.534	5110
3059.347	5165
3061.16	5138
3062.974	5143
3064.785	5194
3066.598	5140
3068.411	5154
3070.222	5093
3072.032	5096
3073.844	4982
3075.653	5130
3077.463	5130
3079.272	5078
3081.08	5087
3082.889	5000
3084.697	5031
3086.505	5072
3088.312	5004
3090.118	5009
3091.924	4877
3093.729	5005
3095.535	5057
3097.34	5157
3099.144	4971
3100.947	4902
3102.75	4855
3104.553	4970
3106.357	5011
3108.159	4976
3109.961	4930
3111.762	4907
3113.562	4962
3115.365	4918
3117.164	4892
3118.964	4949
3120.761	4970
3122.56	4854
3124.36	4938
3126.158	4860
3127.954	4897
3129.75	4940
3131.547	4936
3133.343	4865
3135.139	4927
3136.934	4913
3138.729	4762
3140.522	4837
3142.317	4907
3144.11	4840
3145.904	4821
3147.695	4842
3149.488	4897
3151.28	4822
3153.07	4880
3154.863	4914
3156.652	4766
3158.441	4890
3160.231	4882
3162.019	4776
3163.81	4809
3165.597	4785
3167.384	4774
3169.172	4804
3170.958	4794
3172.745	4820
3174.532	4731
3176.317	4884
3178.101	4869
3179.885	4809
3181.67	4840
3183.455	4715
3185.238	4797
3187.02	4818
3188.802	4772
3190.585	4804
3192.368	4793
3194.149	4852
3195.929	4873
3197.709	4601
3199.489	4781
3201.268	4791
3203.048	4789
3204.826	4806
3206.604	4748
3208.382	4751
3210.159	4801
3211.937	4846
3213.713	4808
3215.489	4750
3217.263	4781
3219.038	4793
3220.815	4780
3222.589	4677
3224.363	4852
3226.136	4703
3227.908	4659
3229.681	4756
3231.454	4775
3233.226	4719
3234.996	4689
3236.767	4729
3238.538	4705
3240.308	4740
3242.078	4783
3243.847	4671
3245.615	4798
3247.384	4763
3249.15	4709
3250.92	4713
3252.686	4796
3254.453	4834
3256.218	4710
3257.984	4717
3259.75	4801
3261.515	4763
3263.279	4696
3265.044	4733
3266.806	4788
3268.57	4733
3270.334	4764
3272.095	4675
3273.856	4732
3275.619	4797
3277.379	4770
3279.14	4727
3280.9	4721
3282.661	4763
3284.419	4809
3286.178	4669
3287.937	4670
3289.695	4685
3291.453	4786
3293.21	4705
3294.967	4702
3296.723	4760
3298.48	4741
3300.235	4834
3301.99	4758
3303.744	4824
3305.498	4809
3307.253	4602
3309.006	4721
3310.759	4722
3312.511	4748
3314.263	4758
3316.017	4727
3317.768	4735
3319.519	4768
3321.268	4767
3323.018	4701
3324.767	4789
3326.518	4713
3328.267	4705
3330.014	4724
3331.762	4681
3333.509	4825
3335.258	4752
3337.003	4764
3338.75	4729
3340.496	4732
3342.24	4649
3343.987	4697
3345.732	4680
3347.475	4696
3349.219	4613
3350.961	4746
3352.705	4708
3354.448	4726
3356.19	4630
3357.931	4729
3359.672	4643
3361.412	4683
3363.155	4624
3364.894	4644
3366.633	4585
3368.372	4640
3370.11	4625
3371.849	4708
3373.588	4646
3375.325	4582
3377.061	4687
3378.799	4520
3380.534	4566
3382.271	4579
3384.006	4663
3385.741	4575
3387.475	4678
3389.209	4537
3390.944	4475
3392.677	4586
3394.409	4571
3396.143	4583
3397.874	4491
3399.606	4509
3401.338	4524
3403.069	4559
3404.799	4622
3406.528	4586
3408.258	4593
3409.988	4518
3411.717	4478
3413.445	4533
3415.173	4538
3416.899	4451
3418.626	4552
3420.354	4431
3422.08	4510
3423.806	4438
3425.531	4547
3427.255	4511
3428.981	4501
3430.705	4472
3432.429	4366
3434.151	4538
3435.875	4503
3437.599	4485
3439.321	4486
3441.042	4416
3442.763	4427
3444.483	4394
3446.204	4411
3447.926	4463
3449.645	4398
3451.364	4364
3453.082	4411
3454.801	4419
3456.52	4410
3458.238	4431
3459.954	4370
3461.671	4391
3463.387	4407
3465.104	4334
3466.82	4299
3468.534	4416
3470.25	4426
3471.963	4344
3473.676	4280
3475.392	4446
3477.104	4302
3478.817	4293
3480.528	4333
3482.241	4282
3483.954	4285
3485.664	4246
3487.374	4272
3489.084	4322
3490.795	4244
3492.504	4319
3494.214	4230
3495.922	4362
3497.63	4315
3499.338	4255
3501.045	4247
3502.753	4298
3504.459	4199
3506.166	4228
3507.871	4196
3509.576	4184
3511.283	4182
3512.987	4171
3514.691	4247
3516.395	4227
3518.098	4281
3519.8	4187
3521.504	4169
3523.206	4166
3524.908	4190
3526.609	4108
3528.309	4191
3530.011	4258
3531.711	4150
3533.411	4213
3535.109	4076
3536.808	4097
3538.507	4131
3540.206	4039
3541.904	4151
3543.601	4181
3545.297	4175
3546.994	4123
3548.69	4090
3550.387	4022
3552.081	4108
3553.776	4007
3555.47	4137
3557.166	4120
3558.859	4056
3560.553	4082
3562.245	4087
3563.938	4040
3565.629	4144
3567.322	4073
3569.014	3970
3570.704	4032
3572.394	4116
3574.084	4032
3575.775	4022
3577.464	4086
3579.152	3972
3580.842	3982
3582.529	4134
3584.216	4021
3585.905	4013
3587.591	4008
3589.279	3971
3590.964	3994
3592.649	3933
3594.336	4011
3596.021	3986
3597.705	4052
3599.388	3917
3601.072	3885
3602.757	3924
3604.439	3956
3606.122	3933
3607.803	3881
3609.485	3947
3611.167	3971
3612.849	3813
3614.529	4033
3616.208	3857
3617.888	3909
3619.567	3879
3621.247	3859
3622.926	3925
3624.603	3844
3626.281	3874
3627.958	3915
3629.635	3797
3631.312	3829
3632.989	3894
3634.665	3820
3636.339	3828
3638.014	3874
3639.691	3960
3641.364	3856
3643.038	3808
3644.71	3797
3646.384	3839
3648.058	3891
3649.729	3868
3651.402	3765
3653.073	3748
3654.744	3743
3656.414	3768
3658.085	3778
3659.755	3700
3661.424	3757
3663.094	3835
3664.762	3801
3666.431	3848
3668.099	3774
3669.766	3798
3671.433	3791
3673.099	3753
3674.768	3631
3676.433	3821
3678.098	3706
3679.763	3761
3681.428	3801
3683.093	3700
3684.757	3739
3686.421	3711
3688.083	3745
3689.746	3768
3691.408	3798
3693.071	3764
3694.733	3727
3696.394	3706
3698.054	3848
3699.715	3675
3701.375	3706
3703.036	3683
3704.695	3722
3706.354	3719
3708.012	3732
3709.67	3756
3711.329	3655
3712.987	3665
3714.644	3638
3716.299	3674
3717.955	3664
3719.613	3745
3721.268	3694
3722.923	3715
3724.577	3621
3726.231	3779
3727.885	3594
3729.539	3677
3731.192	3632
3732.845	3607
3734.497	3597
3736.149	3678
3737.802	3706
3739.453	3634
3741.104	3604
3742.753	3633
3744.404	3657
3746.052	3604
3747.704	3614
3749.352	3591
3751	3633
3752.648	3654
3754.296	3603
3755.944	3628
3757.59	3512
3759.238	3635
3760.883	3551
3762.528	3619
3764.176	3617
3765.82	3571
3767.464	3483
3769.109	3622
3770.753	3520
3772.396	3618
3774.04	3603
3775.683	3494
3777.325	3492
3778.967	3572
3780.608	3591
3782.25	3530
3783.89	3502
3785.531	3571
3787.17	3483
3788.81	3506
3790.45	3526
3792.09	3495
3793.729	3500
3795.366	3494
3797.003	3479
3798.64	3506
3800.278	3576
3801.915	3522
3803.551	3551
3805.187	3532
3806.822	3514
3808.458	3458
3810.093	3473
3811.726	3466
3813.36	3552
3814.994	3537
3816.627	3458
3818.262	3515
3819.893	3455
3821.525	3446
3823.157	3450
3824.787	3527
3826.42	3359
3828.051	3431
3829.68	3360
3831.31	3438
3832.938	3455
3834.569	3366
3836.198	3343
3837.825	3480
3839.454	3366
3841.08	3418
3842.708	3468
3844.335	3405
3845.962	3445
3847.587	3449
3849.212	3374
3850.838	3371
3852.463	3361
3854.089	3424
3855.712	3450
3857.335	3405
3858.959	3401
3860.582	3335
3862.205	3401
3863.827	3357
3865.449	3389
3867.07	3385
3868.691	3385
3870.312	3380
3871.933	3412
3873.553	3436
3875.173	3363
3876.792	3321
3878.411	3388
3880.03	3318
3881.647	3297
3883.265	3326
3884.882	3352
3886.499	3315
3888.116	3304
3889.732	3326
3891.348	3382
3892.964	3308
3894.579	3293
3896.195	3365
3897.809	3300
3899.423	3382
3901.036	3334
3902.648	3236
3904.261	3411
3905.875	3353
3907.487	3305
3909.099	3327
3910.709	3251
3912.321	3312
3913.933	3357
3915.542	3322
3917.152	3316
3918.762	3346
3920.37	3342
3921.98	3270
3923.589	3318
3925.196	3286
3926.804	3374
3928.41	3308
3930.018	3256
3931.626	3238
3933.231	3302
3934.838	3320
3936.442	3313
3938.046	3328
3939.653	3300
3941.257	3208
3942.861	3231
3944.464	3233
3946.068	3285
3947.67	3263
3949.273	3284
3950.876	3230
3952.477	3267
3954.078	3261
3955.678	3370
3957.281	3173
3958.881	3219
3960.48	3303
3962.079	3266
3963.678	3197
3965.279	3305
3966.877	3211
3968.475	3228
3970.072	3292
3971.669	3220
3973.266	3219
3974.864	3234
3976.459	3141
3978.055	3201
3979.65	3176
3981.245	3164
3982.841	3163
3984.436	3164
3986.03	3173
3987.623	3176
3989.216	3178
3990.809	3133
3992.403	3176
3993.995	3167
3995.586	3177
3997.177	3138
3998.768	3167
4000.361	3096
4001.951	3142
4003.54	3091
4005.13	3103
4006.719	3166
4008.31	3150
4009.897	3115
4011.485	3100
4013.073	3100
4014.66	3136
4016.247	3115
4017.834	3090
4019.421	3101
4021.006	3132
4022.592	3070
4024.178	3099
4025.763	3076
4027.348	3093
4028.932	3100
4030.515	3049
4032.099	3055
4033.682	3053
4035.266	3057
4036.847	3028
4038.429	3023
4040.011	3121
4041.592	3019
4043.173	2994
4044.755	3003
4046.334	3033
4047.913	3068
4049.494	3076
4051.074	2999
4052.652	3029
4054.23	3012
4055.807	3057
4057.385	3016
4058.963	2987
4060.541	2998
4062.117	3004
4063.693	3005
4065.269	2923
4066.844	3018
4068.42	2995
4069.995	2986
4071.569	2943
4073.143	3059
4074.716	3002
4076.291	3027
4077.864	2975
4079.436	3013
4081.009	2983
4082.58	2955
4084.152	2929
4085.723	3034
4087.294	3062
4088.865	2958
4090.435	2957
4092.005	3038
4093.574	2964
4095.143	2939
4096.712	2910
4098.279	2933
4099.848	2914
4101.416	2997
4102.984	2972
4104.55	2933
4106.117	2947
4107.682	2920
4109.248	2876
4110.815	2969
4112.379	2961
4113.945	3002
4115.508	2943
4117.073	2919
4118.637	2891
4120.201	2946
4121.763	2876
4123.325	2922
4124.888	2892
4126.449	2830
4128.013	2972
4129.573	2920
4131.133	2808
4132.694	2893
4134.254	2945
4135.814	2918
4137.374	2863
4138.933	2918
4140.491	2847
4142.049	2909
4143.607	2861
4145.167	2844
4146.724	2860
4148.28	2808
4149.836	2811
4151.392	2812
4152.949	2847
4154.504	2827
4156.059	2851
4157.614	2857
4159.168	2921
4160.723	2841
4162.277	2825
4163.83	2837
4165.383	2838
4166.936	2812
4168.488	2834
4170.041	2787
4171.593	2791
4173.144	2886
4174.695	2725
4176.246	2780
4177.796	2810
4179.346	2769
4180.896	2795
4182.445	2741
4183.994	2813
4185.542	2774
4187.091	2732
4188.639	2820
4190.185	2789
4191.732	2814
4193.279	2734
4194.826	2723
4196.373	2755
4197.918	2826
4199.463	2747
4201.008	2754
4202.553	2807
4204.098	2714
4205.641	2772
4207.185	2729
4208.728	2777
4210.271	2738
4211.814	2761
4213.357	2757
4214.898	2746
4216.439	2804
4217.98	2634
4219.522	2752
4221.062	2745
4222.603	2756
4224.142	2704
4225.681	2729
4227.222	2738
4228.76	2701
4230.298	2721
4231.835	2736
4233.373	2639
4234.911	2659
4236.449	2639
4237.985	2708
4239.521	2710
4241.057	2693
4242.592	2744
4244.128	2703
4245.663	2672
4247.197	2675
4248.731	2674
4250.265	2660
4251.798	2691
4253.333	2733
4254.865	2588
4256.397	2714
4257.93	2623
4259.461	2678
4260.994	2685
4262.525	2677
4264.056	2703
4265.586	2641
4267.115	2728
4268.646	2672
4270.176	2577
4271.705	2595
4273.232	2658
4274.761	2662
4276.289	2665
4277.818	2614
4279.345	2670
4280.872	2642
4282.399	2655
4283.924	2634
4285.452	2685
4286.976	2631
4288.502	2649
4290.026	2715
4291.551	2621
4293.074	2628
4294.6	2550
4296.123	2563
4297.646	2642
4299.168	2628
4300.691	2635
4302.214	2660
4303.736	2631
4305.257	2636
4306.778	2641
4308.299	2564
4309.82	2583
4311.34	2663
4312.86	2530
4314.379	2625
