400.0745	4002
402.597	3981
405.1208	3966
407.6419	3919
410.1623	4117
412.6819	3889
415.201	4073
417.7172	4062
420.2369	4088
422.7538	4169
425.2701	4237
427.7856	4167
430.3005	4273
432.8147	4254
435.3282	4175
437.841	4194
440.3511	4219
442.8625	4254
445.3753	4246
447.8854	4213
450.3927	4253
452.9014	4176
455.4073	4207
457.9146	4222
460.4233	4272
462.9272	4152
465.4325	4197
467.935	4180
470.4389	4232
472.9421	4236
475.4446	4229
477.9444	4191
480.4456	4304
482.944	4335
485.4417	4281
487.9429	4217
490.4393	4281
492.935	4249
495.4321	4222
497.9264	4277
500.4221	4286
502.9171	4298
505.4094	4263
507.9011	4262
510.392	4337
512.8864	4354
515.3759	4387
517.8649	4315
520.3531	4262
522.8406	4401
525.3275	4410
527.8178	4380
530.3033	4333
532.7881	4443
535.2723	4412
537.7558	4509
540.2407	4333
542.7228	4424
545.2043	4393
547.6851	4478
550.1652	4331
552.6467	4377
555.1255	4435
557.6016	4460
560.079	4350
562.5557	4423
565.0318	4373
567.5092	4540
569.984	4510
572.456	4529
574.9294	4553
577.4022	4582
579.8762	4561
582.3456	4577
584.8163	4566
587.2863	4537
589.7557	4605
592.2224	4601
594.6924	4624
597.1578	4570
599.6245	4567
602.0905	4474
604.5538	4600
607.0206	4509
609.4825	4631
611.9459	4590
614.4066	4621
616.8686	4566
619.33	4521
621.7906	4521
624.2487	4568
626.708	4550
629.1647	4508
631.6207	4445
634.0801	4501
636.5348	4550
638.9888	4585
641.4442	4508
643.8969	4542
646.3509	4589
648.8022	4536
651.255	4484
653.705	4583
656.1544	4593
658.6031	4595
661.0532	4613
663.5026	4584
665.9493	4673
668.3954	4609
670.8409	4585
673.2877	4695
675.7318	4615
678.1752	4606
680.618	4618
683.0601	4688
685.5035	4651
687.9444	4722
690.3845	4651
692.824	4672
695.2628	4635
697.701	4650
700.1406	4689
702.5774	4692
705.0116	4697
707.4472	4750
709.8821	4706
712.3183	4686
714.7519	4750
717.1829	4724
719.6151	4867
722.0468	4814
724.4777	4864
726.908	4886
729.3377	4918
731.7667	4881
734.1931	4837
736.6208	4823
739.0498	4908
741.4742	4904
743.9	4851
746.3231	4909
748.7476	4896
751.1713	4994
753.5945	4925
756.015	5003
758.4368	4984
760.856	5051
763.2766	5049
765.6965	5019
768.1157	5017
770.5323	5057
772.9483	5039
775.3656	5079
777.7822	4989
780.1963	4991
782.6116	4987
785.0244	5003
787.4365	5055
789.8499	5065
792.2626	5009
794.6728	5004
797.0823	5000
799.4911	4944
801.8994	5013
804.3109	5089
806.7178	5071
809.124	4947
811.5297	5131
813.9347	5117
816.341	5105
818.7447	5137
821.1478	5090
823.5502	4991
825.952	5097
828.3531	5082
830.7556	5073
833.1554	5120
835.5546	5053
837.9532	5064
840.3511	5168
842.7504	5211
845.1451	5201
847.5411	5134
849.9365	5216
852.3312	5213
854.7272	5270
857.1187	5222
859.5115	5236
861.9037	5177
864.2952	5252
866.6842	5156
869.0764	5243
871.4661	5282
873.8531	5219
876.2415	5274
878.6272	5135
881.0162	5150
883.4026	5181
885.7866	5174
888.1717	5155
890.5543	5286
892.9382	5204
895.3215	5190
897.7041	5316
900.0842	5109
902.4655	5182
904.8443	5249
907.2244	5151
909.6039	5256
911.9808	5254
914.357	5240
916.7346	5392
919.1115	5335
921.4859	5451
923.8616	5476
926.2347	5487
928.6071	5498
930.979	5519
933.3541	5400
935.7247	5524
938.0946	5561
940.4639	5628
942.8326	5583
945.2026	5673
947.5701	5869
949.9369	5903
952.305	6244
954.6705	6286
957.0355	6538
959.4017	6803
961.7654	7014
964.1284	6915
966.4908	6617
968.8527	6306
971.2138	6102
973.5743	5835
975.9343	5727
978.2936	5516
980.6522	5580
983.0122	5479
985.3696	5397
987.7245	5293
990.0807	5409
992.4362	5401
994.7911	5448
997.1474	5412
999.4991	5334
1001.852	5429
1004.205	5443
1006.555	5377
1008.908	5381
1011.258	5347
1013.606	5399
1015.956	5396
1018.302	5342
1020.652	5343
1022.998	5408
1025.345	5424
1027.691	5532
1030.035	5364
1032.378	5469
1034.724	5401
1037.066	5357
1039.409	5532
1041.75	5434
1044.092	5457
1046.433	5566
1048.771	5482
1051.112	5502
1053.449	5488
1055.786	5462
1058.124	5392
1060.462	5537
1062.797	5522
1065.131	5493
1067.467	5535
1069.8	5550
1072.135	5545
1074.467	5643
1076.798	5612
1079.129	5491
1081.459	5546
1083.792	5632
1086.121	5497
1088.449	5566
1090.777	5598
1093.104	5440
1095.431	5577
1097.759	5472
1100.084	5546
1102.408	5475
1104.732	5545
1107.056	5549
1109.379	5496
1111.701	5533
1114.022	5572
1116.343	5451
1118.664	5498
1120.983	5490
1123.303	5438
1125.621	5430
1127.939	5647
1130.256	5505
1132.573	5494
1134.889	5447
1137.205	5453
1139.52	5452
1141.832	5507
1144.146	5465
1146.461	5474
1148.771	5514
1151.083	5420
1153.392	5541
1155.703	5535
1158.011	5506
1160.323	5443
1162.629	5372
1164.938	5577
1167.243	5497
1169.55	5531
1171.857	5535
1174.163	5577
1176.466	5415
1178.769	5463
1181.073	5579
1183.374	5563
1185.677	5433
1187.979	5491
1190.279	5555
1192.578	5531
1194.878	5553
1197.178	5524
1199.476	5484
1201.772	5570
1204.068	5535
1206.366	5508
1208.663	5493
1210.957	5478
1213.251	5515
1215.544	5609
1217.836	5473
1220.128	5559
1222.421	5578
1224.712	5631
1227.002	5560
1229.292	5646
1231.581	5744
1233.871	5703
1236.159	5649
1238.446	5715
1240.732	5670
1243.018	5654
1245.304	5739
1247.59	5798
1249.874	5785
1252.156	5845
1254.439	5787
1256.721	5697
1259.005	5759
1261.286	5625
1263.565	5868
1265.845	5805
1268.125	5697
1270.403	5737
1272.682	5757
1274.959	5883
1277.234	5805
1279.511	5776
1281.787	5654
1284.062	5694
1286.337	5669
1288.609	5614
1290.882	5599
1293.153	5670
1295.428	5641
1297.698	5629
1299.969	5638
1302.237	5556
1304.507	5665
1306.777	5632
1309.044	5466
1311.312	5656
1313.578	5559
1315.844	5628
1318.109	5675
1320.375	5593
1322.638	5598
1324.903	5703
1327.165	5667
1329.427	5705
1331.69	5658
1333.952	5641
1336.212	5656
1338.471	5688
1340.73	5615
1342.988	5750
1345.248	5701
1347.505	5708
1349.763	5600
1352.019	5670
1354.274	5667
1356.53	5564
1358.784	5727
1361.038	5692
1363.291	5585
1365.543	5626
1367.797	5626
1370.048	5722
1372.296	5545
1374.546	5681
1376.796	5583
1379.045	5615
1381.295	5633
1383.542	5675
1385.787	5653
1388.034	5587
1390.28	5707
1392.527	5773
1394.772	5718
1397.014	5687
1399.258	5679
1401.501	5658
1403.741	5817
1405.985	5642
1408.226	5784
1410.465	5651
1412.705	5893
1414.943	5817
1417.184	5920
1419.42	5836
1421.658	5812
1423.894	5791
1426.13	5864
1428.366	5819
1430.602	5753
1432.835	5745
1435.069	5757
1437.301	5789
1439.535	5844
1441.767	5820
1443.997	6042
1446.229	5961
1448.458	5956
1450.687	6000
1452.916	5973
1455.146	5979
1457.372	5883
1459.599	5860
1461.824	5980
1464.051	6039
1466.277	5854
1468.501	5985
1470.725	5719
1472.948	5847
1475.17	5757
1477.393	5774
1479.614	5690
1481.837	5774
1484.057	5756
1486.276	5768
1488.497	5589
1490.715	5605
1492.932	5625
1495.148	5752
1497.364	5652
1499.58	5602
1501.798	5644
1504.012	5540
1506.227	5643
1508.44	5629
1510.653	5578
1512.866	5590
1515.078	5677
1517.289	5643
1519.5	5706
1521.711	5613
1523.92	5560
1526.13	5509
1528.338	5566
1530.544	5611
1532.752	5507
1534.959	5511
1537.165	5619
1539.371	5627
1541.574	5655
1543.779	5603
1545.983	5643
1548.187	5670
1550.39	5661
1552.59	5614
1554.792	5705
1556.991	5669
1559.19	5686
1561.392	5762
1563.59	5761
1565.789	5662
1567.986	5647
1570.182	5720
1572.381	5652
1574.576	5694
1576.771	5615
1578.966	5729
1581.16	5829
1583.354	5722
1585.546	5849
1587.74	5673
1589.931	5828
1592.121	5725
1594.311	5773
1596.502	5870
1598.693	5844
1600.881	5812
1603.069	5774
1605.256	5776
1607.445	5735
1609.631	5838
1611.816	5863
1614.001	5714
1616.186	5789
1618.37	5817
1620.555	5792
1622.737	5818
1624.919	5812
1627.101	5856
1629.282	5819
1631.463	5791
1633.643	5873
1635.822	5902
1638.001	5903
1640.179	5885
1642.359	5911
1644.534	5916
1646.711	5912
1648.887	5834
1651.062	5942
1653.235	5984
1655.412	5955
1657.586	5924
1659.757	5993
1661.93	5973
1664.1	5912
1666.274	6003
1668.445	5965
1670.614	6140
1672.784	5940
1674.951	5917
1677.12	5955
1679.289	5912
1681.457	5927
1683.622	5959
1685.789	5849
1687.953	5884
1690.121	5862
1692.284	5988
1694.447	5968
1696.611	5873
1698.772	5863
1700.935	5866
1703.098	5865
1705.258	5816
1707.417	5731
1709.576	5815
1711.736	5768
1713.896	5712
1716.053	5807
1718.21	5814
1720.366	5705
1722.522	5708
1724.68	5828
1726.835	5837
1728.989	5733
1731.142	5682
1733.295	5724
1735.449	5849
1737.601	5679
1739.753	5774
1741.903	5717
1744.054	5768
1746.203	5853
1748.354	5809
1750.503	5840
1752.651	5763
1754.798	5878
1756.944	5737
1759.092	5732
1761.238	5823
1763.383	5761
1765.528	5755
1767.672	5690
1769.814	5819
1771.959	5783
1774.102	5718
1776.242	5863
1778.384	5783
1780.525	5818
1782.665	5719
1784.805	5695
1786.945	5793
1789.082	5737
1791.22	5882
1793.36	5766
1795.495	5866
1797.632	5762
1799.766	5824
1801.902	5722
1804.035	5707
1806.172	5724
1808.304	5853
1810.436	5810
1812.569	5854
1814.699	5788
1816.833	5821
1818.963	5772
1821.092	5767
1823.222	5609
1825.35	5756
1827.478	5873
1829.608	5761
1831.734	5836
1833.86	5728
1835.986	5726
1838.11	5777
1840.238	5748
1842.362	5741
1844.485	5766
1846.608	5742
1848.73	5650
1850.853	5698
1852.974	5755
1855.097	5728
1857.217	5721
1859.336	5797
1861.455	5690
1863.576	5766
1865.693	5781
1867.811	5822
1869.926	5634
1872.042	5630
1874.16	5650
1876.275	5814
1878.39	5681
1880.504	5743
1882.618	5689
1884.731	5799
1886.843	5808
1888.956	5756
1891.067	5804
1893.178	5803
1895.287	5754
1897.399	5713
1899.508	5742
1901.617	5815
1903.724	5693
1905.832	5716
1907.941	5817
1910.046	5790
1912.152	5767
1914.256	5810
1916.361	5826
1918.464	5842
1920.57	5844
1922.672	5762
1924.775	5850
1926.876	5783
1928.978	5840
1931.08	5809
1933.181	5791
1935.28	5758
1937.38	5842
1939.478	5773
1941.577	5848
1943.675	5877
1945.771	5752
1947.867	5763
1949.964	5891
1952.058	5863
1954.154	5910
1956.248	5751
1958.343	5737
1960.435	5909
1962.527	5756
1964.62	5852
1966.711	5855
1968.802	5831
1970.892	5740
1972.983	5836
1975.072	5788
1977.162	5773
1979.25	5659
1981.337	5803
1983.424	5748
1985.51	5807
1987.598	5891
1989.683	5770
1991.768	5767
1993.852	5775
1995.934	5750
1998.019	5772
2000.102	5818
2002.184	5770
2004.266	5717
2006.347	5782
2008.427	5688
2010.508	5801
2012.587	5682
2014.666	5701
2016.745	5769
2018.821	5814
2020.9	5684
2022.977	5640
2025.052	5780
2027.128	5831
2029.204	5697
2031.277	5748
2033.353	5760
2035.425	5721
2037.499	5665
2039.57	5746
2041.642	5852
2043.714	5712
2045.786	5656
2047.855	5809
2049.925	5712
2051.993	5728
2054.064	5660
2056.132	5820
2058.2	5881
2060.266	5772
2062.332	5746
2064.398	5808
2066.465	5720
2068.529	5772
2070.592	5686
2072.657	5814
2074.719	5687
2076.783	5835
2078.845	5707
2080.907	5701
2082.968	5763
2085.028	5747
2087.087	5699
2089.148	5849
2091.207	5765
2093.264	5693
2095.322	5748
2097.379	5680
2099.439	5773
2101.495	5764
2103.55	5718
2105.605	5812
2107.658	5729
2109.713	5773
2111.767	5689
2113.82	5662
2115.872	5828
2117.924	5817
2119.975	5670
2122.028	5644
2124.078	5713
2126.126	5816
2128.176	5656
2130.225	5754
2132.275	5667
2134.321	5681
2136.368	5622
2138.415	5732
2140.461	5772
2142.505	5786
2144.552	5743
2146.597	5550
2148.64	5728
2150.684	5657
2152.725	5714
2154.77	5694
2156.811	5724
2158.852	5677
2160.894	5652
2162.933	5678
2164.973	5736
2167.013	5727
2169.051	5656
2171.089	5667
2173.126	5740
2175.164	5637
2177.201	5689
2179.236	5687
2181.273	5716
2183.307	5682
2185.341	5641
2187.377	5673
2189.41	5596
2191.442	5626
2193.473	5702
2195.506	5702
2197.539	5555
2199.569	5585
2201.598	5580
2203.628	5656
2205.656	5568
2207.686	5628
2209.716	5642
2211.743	5518
2213.769	5514
2215.796	5577
2217.821	5550
2219.848	5563
2221.873	5604
2223.897	5602
2225.921	5491
2227.944	5505
2229.967	5454
2231.991	5528
2234.011	5684
2236.032	5533
2238.053	5528
2240.073	5506
2242.094	5446
2244.114	5449
2246.131	5558
2248.149	5499
2250.167	5606
2252.186	5540
2254.201	5641
2256.218	5568
2258.233	5621
2260.247	5512
2262.262	5562
2264.278	5581
2266.29	5544
2268.303	5550
2270.315	5538
2272.327	5542
2274.341	5541
2276.35	5595
2278.361	5718
2280.37	5528
2282.38	5556
2284.388	5481
2286.397	5567
2288.405	5566
2290.412	5618
2292.419	5522
2294.425	5596
2296.431	5560
2298.437	5605
2300.441	5536
2302.445	5494
2304.449	5505
2306.453	5531
2308.455	5489
2310.457	5541
2312.459	5559
2314.46	5458
2316.46	5552
2318.461	5425
2320.46	5494
2322.458	5459
2324.458	5472
2326.456	5457
2328.455	5479
2330.451	5452
2332.447	5430
2334.443	5507
2336.438	5393
2338.433	5480
2340.429	5509
2342.422	5384
2344.416	5447
2346.408	5450
2348.399	5393
2350.393	5444
2352.384	5385
2354.375	5488
2356.365	5479
2358.355	5420
2360.344	5412
2362.333	5478
2364.322	5471
2366.309	5421
2368.295	5508
2370.282	5501
2372.27	5375
2374.256	5340
2376.24	5382
2378.225	5454
2380.208	5413
2382.194	5513
2384.177	5306
2386.159	5366
2388.142	5441
2390.122	5294
2392.105	5380
2394.085	5417
2396.066	5346
2398.044	5451
2400.024	5382
2402.002	5208
2403.982	5373
2405.959	5431
2407.935	5332
2409.913	5382
2411.888	5353
2413.865	5276
2415.84	5377
2417.814	5366
2419.788	5317
2421.762	5379
2423.735	5320
2425.708	5297
2427.68	5464
2429.651	5340
2431.623	5352
2433.593	5275
2435.564	5331
2437.533	5358
2439.502	5341
2441.47	5364
2443.438	5402
2445.406	5345
2447.373	5200
2449.34	5357
2451.305	5389
2453.271	5281
2455.235	5368
2457.201	5309
2459.165	5363
2461.129	5340
2463.092	5317
2465.054	5421
2467.018	5334
2468.978	5374
2470.939	5241
2472.899	5202
2474.86	5268
2476.819	5286
2478.778	5311
2480.737	5254
2482.695	5244
2484.653	5337
2486.609	5242
2488.567	5278
2490.524	5348
2492.478	5202
2494.433	5282
2496.387	5247
2498.343	5186
2500.297	5328
2502.249	5232
2504.202	5156
2506.153	5165
2508.105	5280
2510.057	5220
2512.008	5173
2513.957	5176
2515.906	5178
2517.855	5277
2519.805	5279
2521.754	5218
2523.7	5156
2525.647	5179
2527.594	5263
2529.54	5338
2531.486	5263
2533.431	5257
2535.376	5203
2537.32	5124
2539.263	5244
2541.207	5299
2543.151	5272
2545.093	5208
2547.034	5292
2548.975	5097
2550.917	5172
2552.856	5277
2554.796	5148
2556.735	5223
2558.673	5273
2560.611	5244
2562.55	5277
2564.487	5210
2566.424	5177
2568.36	5158
2570.296	5254
2572.232	5181
2574.167	5192
2576.101	5195
2578.035	5265
2579.969	5130
2581.902	5243
2583.834	5183
2585.766	5254
2587.698	5211
2589.628	5179
2591.557	5148
2593.489	5137
2595.419	5124
2597.348	5201
2599.275	5191
2601.204	5258
2603.131	5185
2605.059	5177
2606.986	5299
2608.911	5187
2610.837	5160
2612.76	5199
2614.687	5189
2616.61	5191
2618.534	5211
2620.457	5244
2622.38	5191
2624.302	5283
2626.225	5228
2628.145	5235
2630.067	5209
2631.986	5275
2633.906	5237
2635.827	5200
2637.745	5289
2639.662	5158
2641.581	5241
2643.498	5278
2645.415	5261
2647.331	5211
2649.248	5124
2651.163	5259
2653.077	5262
2654.993	5145
2656.906	5215
2658.821	5235
2660.733	5164
2662.646	5280
2664.557	5161
2666.47	5157
2668.381	5117
2670.291	5120
2672.201	5222
2674.11	5205
2676.021	5160
2677.929	5134
2679.837	5271
2681.745	5219
2683.652	5018
2685.56	5055
2687.466	5168
2689.371	5151
2691.276	5176
2693.181	5075
2695.085	5174
2696.991	5250
2698.893	5170
2700.796	5118
2702.698	5159
2704.601	5179
2706.502	5130
2708.404	5111
2710.304	5174
2712.203	5131
2714.103	5150
2716.003	5179
2717.902	5145
2719.8	5083
2721.697	5154
2723.594	5172
2725.49	5035
2727.389	5003
2729.283	5120
2731.179	5085
2733.073	5096
2734.968	5102
2736.863	5053
2738.757	4999
2740.649	5102
2742.541	5109
2744.433	5138
2746.324	5071
2748.216	5059
2750.107	5094
2751.997	5115
2753.886	5049
2755.776	4962
2757.666	5175
2759.553	5086
2761.44	5070
2763.327	4984
2765.215	4995
2767.102	5028
2768.988	5056
2770.873	5020
2772.757	4952
2774.641	5099
2776.525	5059
2778.41	5049
2780.292	5104
2782.175	5032
2784.057	5076
2785.938	4958
2787.821	4942
2789.701	4983
2791.581	5023
2793.461	4972
2795.34	5112
2797.219	4936
2799.099	5034
2800.975	4969
2802.853	4903
2804.73	4989
2806.606	5023
2808.484	4978
2810.358	4937
2812.233	4905
2814.108	5081
2815.981	5009
2817.857	5033
2819.73	4972
2821.602	4965
2823.474	4916
2825.346	4918
2827.217	4914
2829.089	5019
2830.959	4999
2832.829	5037
2834.698	5072
2836.567	4995
2838.436	4997
2840.305	4970
2842.172	4942
2844.04	5017
2845.905	5136
2847.772	5050
2849.639	5082
2851.503	5039
2853.369	4959
2855.232	5163
2857.096	5053
2858.961	5065
2860.824	5105
2862.686	5110
2864.547	5217
2866.41	5196
2868.272	5147
2870.132	5162
2871.992	5431
2873.851	5316
2875.711	5426
2877.57	5402
2879.429	5445
2881.287	5450
2883.144	5526
2885.001	5496
2886.857	5524
2888.714	5532
2890.57	5545
2892.425	5490
2894.279	5495
2896.133	5525
2897.987	5593
2899.842	5624
2901.694	5470
2903.547	5531
2905.397	5457
2907.249	5579
2909.101	5552
2910.952	5474
2912.802	5597
2914.652	5578
2916.5	5547
2918.35	5624
2920.198	5634
2922.045	5752
2923.893	5755
2925.74	5856
2927.585	5937
2929.433	5877
2931.279	5938
2933.123	6006
2934.968	6152
2936.811	6146
2938.656	6273
2940.5	6090
2942.342	6234
2944.185	6244
2946.026	6348
2947.87	6285
2949.71	6141
2951.549	6186
2953.39	6113
2955.229	6132
2957.069	6058
2958.908	6027
2960.746	5941
2962.584	5931
2964.421	5929
2966.257	5761
2968.094	5856
2969.931	5718
2971.766	5608
2973.601	5520
2975.435	5602
2977.27	5681
2979.105	5550
2980.938	5673
2982.77	5520
2984.602	5584
2986.434	5566
2988.267	5559
2990.097	5504
2991.927	5416
2993.757	5307
2995.587	5239
2997.417	5283
2999.246	5209
3001.074	5166
3002.902	5221
3004.729	5146
3006.556	5061
3008.384	5126
3010.21	5098
3012.036	5012
3013.861	4957
3015.684	4989
3017.51	4919
3019.334	4949
3021.157	4836
3022.981	4857
3024.802	4739
3026.624	4762
3028.448	4857
3030.267	4764
3032.088	4718
3033.909	4778
3035.728	4771
3037.549	4703
3039.368	4764
3041.186	4691
3043.004	4791
3044.821	4698
3046.64	4796
3048.455	4633
3050.272	4634
3052.087	4671
3053.903	4773
3055.717	4747
3057.534	4725
3059.347	4665
3061.16	4652
3062.974	4635
3064.785	4726
3066.598	4715
3068.411	4679
3070.222	4636
3072.032	4705
3073.844	4661
3075.653	4658
3077.463	4651
3079.272	4637
3081.08	4656
3082.889	4579
3084.697	4620
3086.505	4619
3088.312	4622
3090.118	4618
3091.924	4553
3093.729	4541
3095.535	4599
3097.34	4558
3099.144	4709
3100.947	4617
3102.75	4459
3104.553	4598
3106.357	4514
3108.159	4513
3109.961	4469
3111.762	4516
3113.562	4577
3115.365	4536
3117.164	4424
3118.964	4561
3120.761	4568
3122.56	4433
3124.36	4395
3126.158	4460
3127.954	4450
3129.75	4357
3131.547	4490
3133.343	4318
3135.139	4459
3136.934	4364
3138.729	4516
3140.522	4458
3142.317	4410
3144.11	4407
3145.904	4395
3147.695	4485
3149.488	4439
3151.28	4524
3153.07	4484
3154.863	4326
3156.652	4490
3158.441	4407
3160.231	4427
3162.019	4411
3163.81	4361
3165.597	4446
3167.384	4358
3169.172	4482
3170.958	4419
3172.745	4354
3174.532	4397
3176.317	4465
3178.101	4323
3179.885	4369
3181.67	4398
3183.455	4327
3185.238	4400
3187.02	4433
3188.802	4412
3190.585	4458
3192.368	4331
3194.149	4380
3195.929	4398
3197.709	4400
3199.489	4318
3201.268	4324
3203.048	4276
3204.826	4349
3206.604	4352
3208.382	4356
3210.159	4400
3211.937	4328
3213.713	4419
3215.489	4395
3217.263	4280
3219.038	4365
3220.815	4357
3222.589	4345
3224.363	4307
3226.136	4369
3227.908	4365
3229.681	4341
3231.454	4398
3233.226	4334
3234.996	4384
3236.767	4258
3238.538	4451
3240.308	4354
3242.078	4311
3243.847	4359
3245.615	4287
3247.384	4286
3249.15	4281
3250.92	4318
3252.686	4353
3254.453	4317
3256.218	4351
3257.984	4340
3259.75	4386
3261.515	4357
3263.279	4380
3265.044	4321
3266.806	4354
3268.57	4407
3270.334	4390
3272.095	4320
3273.856	4385
3275.619	4277
3277.379	4313
3279.14	4347
3280.9	4425
3282.661	4372
3284.419	4229
3286.178	4397
3287.937	4328
3289.695	4264
3291.453	4301
3293.21	4382
3294.967	4396
3296.723	4298
3298.48	4355
3300.235	4329
3301.99	4418
3303.744	4398
3305.498	4390
3307.253	4299
3309.006	4314
3310.759	4383
3312.511	4411
3314.263	4371
3316.017	4446
3317.768	4401
3319.519	4351
3321.268	4325
3323.018	4398
3324.767	4377
3326.518	4396
3328.267	4305
3330.014	4359
3331.762	4315
3333.509	4333
3335.258	4418
3337.003	4325
3338.75	4308
3340.496	4414
3342.24	4296
3343.987	4370
3345.732	4341
3347.475	4348
3349.219	4348
3350.961	4316
3352.705	4247
3354.448	4384
3356.19	4340
3357.931	4288
3359.672	4276
3361.412	4157
3363.155	4196
3364.894	4293
3366.633	4243
3368.372	4233
3370.11	4203
3371.849	4173
3373.588	4184
3375.325	4134
3377.061	4191
3378.799	4209
3380.534	4312
3382.271	4214
3384.006	4214
3385.741	4181
3387.475	4184
3389.209	4200
3390.944	4182
3392.677	4192
3394.409	4177
3396.143	4182
3397.874	4215
3399.606	4165
3401.338	4155
3403.069	4256
3404.799	4143
3406.528	4152
3408.258	4160
3409.988	4187
3411.717	4160
3413.445	4154
3415.173	4077
3416.899	4165
3418.626	4095
3420.354	4166
3422.08	4153
3423.806	4202
3425.531	4121
3427.255	4053
3428.981	4171
3430.705	4067
3432.429	4069
3434.151	4140
3435.875	4099
3437.599	4116
3439.321	4057
3441.042	4012
3442.763	4101
3444.483	4024
3446.204	4053
3447.926	4069
3449.645	4045
3451.364	3967
3453.082	4017
3454.801	4033
3456.52	4026
3458.238	3992
3459.954	4029
3461.671	3996
3463.387	4062
3465.104	4037
3466.82	4043
3468.534	3996
3470.25	3958
3471.963	3997
3473.676	3974
3475.392	3961
3477.104	3932
3478.817	3904
3480.528	4037
3482.241	3933
3483.954	3892
3485.664	3977
3487.374	3942
3489.084	3865
3490.795	3800
3492.504	3892
3494.214	3948
3495.922	3853
3497.63	3944
3499.338	3874
3501.045	3807
3502.753	3864
3504.459	3875
3506.166	3895
3507.871	3881
3509.576	3834
3511.283	3880
3512.987	3779
3514.691	3835
3516.395	3851
3518.098	3755
3519.8	3790
3521.504	3831
3523.206	3813
3524.908	3781
3526.609	3790
3528.309	3764
3530.011	3784
3531.711	3775
3533.411	3818
3535.109	3827
3536.808	3853
3538.507	3722
3540.206	3739
3541.904	3773
3543.601	3811
3545.297	3714
3546.994	3774
3548.69	3765
3550.387	3718
3552.081	3736
3553.776	3729
3555.47	3716
3557.166	3690
3558.859	3779
3560.553	3704
3562.245	3709
3563.938	3713
3565.629	3786
3567.322	3624
3569.014	3717
3570.704	3768
3572.394	3642
3574.084	3694
3575.775	3625
3577.464	3768
3579.152	3712
3580.842	3640
3582.529	3678
3584.216	3691
3585.905	3678
3587.591	3683
3589.279	3643
3590.964	3677
3592.649	3657
3594.336	3618
3596.021	3600
3597.705	3589
3599.388	3711
3601.072	3612
3602.757	3639
3604.439	3540
3606.122	3639
3607.803	3557
3609.485	3561
3611.167	3513
3612.849	3560
3614.529	3604
3616.208	3510
3617.888	3545
3619.567	3544
3621.247	3594
3622.926	3509
3624.603	3556
3626.281	3553
3627.958	3522
3629.635	3547
3631.312	3489
3632.989	3415
3634.665	3408
3636.339	3523
3638.014	3545
3639.691	3509
3641.364	3518
3643.038	3457
3644.71	3454
3646.384	3516
3648.058	3490
3649.729	3423
3651.402	3531
3653.073	3449
3654.744	3440
3656.414	3455
3658.085	3386
3659.755	3401
3661.424	3398
3663.094	3387
3664.762	3384
3666.431	3410
3668.099	3367
3669.766	3346
3671.433	3366
3673.099	3430
3674.768	3443
3676.433	3397
3678.098	3374
3679.763	3431
3681.428	3450
3683.093	3330
3684.757	3397
3686.421	3375
3688.083	3326
3689.746	3352
3691.408	3378
3693.071	3382
3694.733	3319
3696.394	3341
3698.054	3421
3699.715	3348
3701.375	3430
3703.036	3305
3704.695	3376
3706.354	3414
3708.012	3419
3709.67	3227
3711.329	3307
3712.987	3347
3714.644	3373
3716.299	3349
3717.955	3390
3719.613	3346
3721.268	3350
3722.923	3354
3724.577	3280
3726.231	3261
3727.885	3392
3729.539	3279
3731.192	3361
3732.845	3249
3734.497	3327
3736.149	3392
3737.802	3280
3739.453	3306
3741.104	3240
3742.753	3225
3744.404	3312
3746.052	3261
3747.704	3331
3749.352	3265
3751	3346
3752.648	3268
3754.296	3310
3755.944	3220
3757.59	3300
3759.238	3236
3760.883	3217
3762.528	3328
3764.176	3241
3765.82	3187
3767.464	3248
3769.109	3271
3770.753	3262
3772.396	3224
3774.04	3233
3775.683	3288
3777.325	3235
3778.967	3248
3780.608	3225
3782.25	3172
3783.89	3219
3785.531	3208
3787.17	3163
3788.81	3241
3790.45	3236
3792.09	3109
3793.729	3240
3795.366	3198
3797.003	3186
3798.64	3116
3800.278	3168
3801.915	3203
3803.551	3182
3805.187	3111
3806.822	3110
3808.458	3154
3810.093	3211
3811.726	3163
3813.36	3241
3814.994	3118
3816.627	3126
3818.262	3152
3819.893	3086
3821.525	3069
3823.157	3202
3824.787	3193
3826.42	3069
3828.051	3080
3829.68	3073
3831.31	3128
3832.938	3160
3834.569	3054
3836.198	3180
3837.825	3127
3839.454	3133
3841.08	3085
3842.708	3096
3844.335	3127
3845.962	3119
3847.587	3103
3849.212	3026
3850.838	3036
3852.463	3118
3854.089	3099
3855.712	3097
3857.335	3145
3858.959	3164
3860.582	3112
3862.205	2993
3863.827	3075
3865.449	3068
3867.07	3092
3868.691	3090
3870.312	3034
3871.933	3155
3873.553	2968
3875.173	3042
3876.792	3063
3878.411	3031
3880.03	3005
3881.647	3092
3883.265	3059
3884.882	3063
3886.499	3025
3888.116	3023
3889.732	3023
3891.348	3026
3892.964	3060
3894.579	3040
3896.195	2968
3897.809	2996
3899.423	3012
3901.036	3004
3902.648	3007
3904.261	3105
3905.875	3002
3907.487	2998
3909.099	2991
3910.709	2938
3912.321	2964
3913.933	3033
3915.542	3026
3917.152	3029
3918.762	3006
3920.37	2954
3921.98	2930
3923.589	2911
3925.196	3032
3926.804	2954
3928.41	3004
3930.018	3002
3931.626	3037
3933.231	3012
3934.838	3003
3936.442	2987
3938.046	2961
3939.653	2958
3941.257	2882
3942.861	2961
3944.464	2866
3946.068	3004
3947.67	2968
3949.273	2926
3950.876	2981
3952.477	2897
3954.078	2961
3955.678	2955
3957.281	2969
3958.881	2830
3960.48	2922
3962.079	2985
3963.678	2854
3965.279	2932
3966.877	2960
3968.475	2907
3970.072	2891
3971.669	2984
3973.266	2925
3974.864	2990
3976.459	2963
3978.055	2829
3979.65	2909
3981.245	2983
3982.841	2862
3984.436	2931
3986.03	2790
3987.623	2825
3989.216	2802
3990.809	2851
3992.403	2834
3993.995	2857
3995.586	2847
3997.177	2878
3998.768	2843
4000.361	2809
4001.951	2852
4003.54	2744
4005.13	2735
4006.719	2770
4008.31	2799
4009.897	2834
4011.485	2789
4013.073	2777
4014.66	2820
4016.247	2778
4017.834	2869
4019.421	2848
4021.006	2762
4022.592	2807
4024.178	2722
4025.763	2797
4027.348	2799
4028.932	2767
4030.515	2748
4032.099	2731
4033.682	2776
4035.266	2763
4036.847	2735
4038.429	2682
4040.011	2780
4041.592	2819
4043.173	2756
4044.755	2742
4046.334	2770
4047.913	2789
4049.494	2755
4051.074	2721
4052.652	2698
4054.23	2709
4055.807	2704
4057.385	2714
4058.963	2687
4060.541	2729
4062.117	2674
4063.693	2773
4065.269	2662
4066.844	2738
4068.42	2695
4069.995	2752
4071.569	2694
4073.143	2701
4074.716	2690
4076.291	2716
4077.864	2715
4079.436	2682
4081.009	2651
4082.58	2684
4084.152	2745
4085.723	2693
4087.294	2681
4088.865	2692
4090.435	2672
4092.005	2713
4093.574	2719
4095.143	2684
4096.712	2610
4098.279	2735
4099.848	2604
4101.416	2688
4102.984	2713
4104.55	2701
4106.117	2655
4107.682	2601
4109.248	2684
4110.815	2709
4112.379	2690
4113.945	2641
4115.508	2660
4117.073	2644
4118.637	2603
4120.201	2662
4121.763	2579
4123.325	2621
4124.888	2626
4126.449	2580
4128.013	2570
4129.573	2625
4131.133	2663
4132.694	2589
4134.254	2577
4135.814	2661
4137.374	2601
4138.933	2524
4140.491	2603
4142.049	2587
4143.607	2615
4145.167	2598
4146.724	2555
4148.28	2592
4149.836	2571
4151.392	2632
4152.949	2665
4154.504	2574
4156.059	2581
4157.614	2498
4159.168	2541
4160.723	2535
4162.277	2518
4163.83	2545
4165.383	2540
4166.936	2639
4168.488	2554
4170.041	2475
4171.593	2504
4173.144	2560
4174.695	2517
4176.246	2492
4177.796	2562
4179.346	2490
4180.896	2514
4182.445	2517
4183.994	2450
4185.542	2539
4187.091	2451
4188.639	2490
4190.185	2478
4191.732	2474
4193.279	2433
4194.826	2447
4196.373	2490
4197.918	2502
4199.463	2440
4201.008	2442
4202.553	2497
4204.098	2487
4205.641	2455
4207.185	2463
4208.728	2430
4210.271	2384
4211.814	2475
4213.357	2452
4214.898	2462
4216.439	2477
4217.98	2523
4219.522	2437
4221.062	2482
4222.603	2410
4224.142	2477
4225.681	2395
4227.222	2412
4228.76	2442
4230.298	2394
4231.835	2458
4233.373	2439
4234.911	2405
4236.449	2405
4237.985	2448
4239.521	2434
4241.057	2416
4242.592	2431
4244.128	2424
4245.663	2412
4247.197	2461
4248.731	2397
4250.265	2390
4251.798	2428
4253.333	2379
4254.865	2399
4256.397	2368
4257.93	2384
4259.461	2433
4260.994	2381
4262.525	2392
4264.056	2445
4265.586	2329
4267.115	2405
4268.646	2376
4270.176	2388
4271.705	2395
4273.232	2355
4274.761	2370
4276.289	2364
4277.818	2335
4279.345	2339
4280.872	2372
4282.399	2313
4283.924	2329
4285.452	2373
4286.976	2390
4288.502	2377
4290.026	2416
4291.551	2293
4293.074	2359
4294.6	2368
4296.123	2358
4297.646	2302
4299.168	2398
4300.691	2358
4302.214	2314
4303.736	2420
4305.257	2282
4306.778	2290
4308.299	2387
4309.82	2287
4311.34	2305
4312.86	2318
4314.379	2337
