400.0745	4425
402.597	4331
405.1208	4326
407.6419	4351
410.1623	4421
412.6819	4544
415.201	4523
417.7172	4471
420.2369	4528
422.7538	4625
425.2701	4580
427.7856	4671
430.3005	4579
432.8147	4584
435.3282	4575
437.841	4721
440.3511	4675
442.8625	4775
445.3753	4679
447.8854	4742
450.3927	4778
452.9014	4701
455.4073	4725
457.9146	4806
460.4233	4796
462.9272	4717
465.4325	4764
467.935	4643
470.4389	4793
472.9421	4737
475.4446	4753
477.9444	4678
480.4456	4794
482.944	4801
485.4417	4751
487.9429	4858
490.4393	4824
492.935	4799
495.4321	4857
497.9264	4901
500.4221	4804
502.9171	4875
505.4094	4857
507.9011	4887
510.392	4863
512.8864	4876
515.3759	4976
517.8649	4951
520.3531	4921
522.8406	4825
525.3275	4861
527.8178	4905
530.3033	4936
532.7881	4959
535.2723	4895
537.7558	4831
540.2407	4868
542.7228	4959
545.2043	4920
547.6851	4878
550.1652	4993
552.6467	4902
555.1255	5027
557.6016	4987
560.079	4927
562.5557	4920
565.0318	4941
567.5092	4993
569.984	5134
572.456	5089
574.9294	5140
577.4022	5070
579.8762	5105
582.3456	5191
584.8163	5064
587.2863	5127
589.7557	5217
592.2224	5217
594.6924	5182
597.1578	5050
599.6245	5122
602.0905	5175
604.5538	5089
607.0206	5033
609.4825	5161
611.9459	5045
614.4066	5142
616.8686	5098
619.33	5058
621.7906	5013
624.2487	5134
626.708	5025
629.1647	5122
631.6207	5027
634.0801	5077
636.5348	5108
638.9888	5066
641.4442	4960
643.8969	5191
646.3509	5109
648.8022	5126
651.255	5289
653.705	5194
656.1544	5095
658.6031	5264
661.0532	5185
663.5026	5217
665.9493	5265
668.3954	5218
670.8409	5244
673.2877	5230
675.7318	5167
678.1752	5125
680.618	5289
683.0601	5249
685.5035	5269
687.9444	5214
690.3845	5252
692.824	5238
695.2628	5237
697.701	5315
700.1406	5245
702.5774	5382
705.0116	5344
707.4472	5433
709.8821	5201
712.3183	5354
714.7519	5299
717.1829	5370
719.6151	5429
722.0468	5378
724.4777	5426
726.908	5434
729.3377	5469
731.7667	5423
734.1931	5420
736.6208	5415
739.0498	5468
741.4742	5489
743.9	5535
746.3231	5484
748.7476	5538
751.1713	5649
753.5945	5570
756.015	5597
758.4368	5637
760.856	5693
763.2766	5698
765.6965	5593
768.1157	5762
770.5323	5568
772.9483	5738
775.3656	5593
777.7822	5703
780.1963	5655
782.6116	5595
785.0244	5772
787.4365	5727
789.8499	5703
792.2626	5769
794.6728	5656
797.0823	5770
799.4911	5650
801.8994	5724
804.3109	5652
806.7178	5812
809.124	5672
811.5297	5725
813.9347	5786
816.341	5830
818.7447	5767
821.1478	5776
823.5502	5741
825.952	5844
828.3531	5752
830.7556	5727
833.1554	5807
835.5546	5817
837.9532	5815
840.3511	5855
842.7504	5827
845.1451	5840
847.5411	5989
849.9365	5797
852.3312	5912
854.7272	5931
857.1187	5834
859.5115	5898
861.9037	5783
864.2952	5845
866.6842	5836
869.0764	5889
871.4661	5837
873.8531	5841
876.2415	5923
878.6272	5685
881.0162	5922
883.4026	5810
885.7866	5871
888.1717	5909
890.5543	5764
892.9382	5828
895.3215	5910
897.7041	5914
900.0842	5775
902.4655	5893
904.8443	5917
907.2244	5902
909.6039	5883
911.9808	5917
914.357	5922
916.7346	6088
919.1115	5984
921.4859	6053
923.8616	6152
926.2347	6030
928.6071	6177
930.979	6052
933.3541	6108
935.7247	6140
938.0946	6175
940.4639	6208
942.8326	6220
945.2026	6225
947.5701	6418
949.9369	6474
952.305	6462
954.6705	6795
957.0355	6897
959.4017	6996
961.7654	7198
964.1284	7154
966.4908	7013
968.8527	6811
971.2138	6687
973.5743	6499
975.9343	6258
978.2936	6218
980.6522	6123
983.0122	6149
985.3696	6112
987.7245	6022
990.0807	5956
992.4362	5927
994.7911	6036
997.1474	6142
999.4991	6057
1001.852	6132
1004.205	6024
1006.555	6129
1008.908	6011
1011.258	6140
1013.606	5951
1015.956	6116
1018.302	6143
1020.652	6142
1022.998	6132
1025.345	6133
1027.691	6183
1030.035	6129
1032.378	6037
1034.724	6157
1037.066	6159
1039.409	6124
1041.75	6127
1044.092	6102
1046.433	6156
1048.771	6165
1051.112	6124
1053.449	6063
1055.786	6220
1058.124	6093
1060.462	6131
1062.797	6112
1065.131	6133
1067.467	6174
1069.8	6339
1072.135	6175
1074.467	6227
1076.798	6255
1079.129	6311
1081.459	6301
1083.792	6224
1086.121	6280
1088.449	6193
1090.777	6246
1093.104	6184
1095.431	6276
1097.759	6210
1100.084	6237
1102.408	6195
1104.732	6079
1107.056	6206
1109.379	6176
1111.701	6238
1114.022	6226
1116.343	6173
1118.664	6203
1120.983	6239
1123.303	6271
1125.621	6153
1127.939	6301
1130.256	6131
1132.573	6253
1134.889	6161
1137.205	6176
1139.52	6228
1141.832	6104
1144.146	6172
1146.461	6246
1148.771	6211
1151.083	6215
1153.392	6275
1155.703	6126
1158.011	6237
1160.323	6302
1162.629	6102
1164.938	6196
1167.243	6097
1169.55	6279
1171.857	6272
1174.163	6304
1176.466	6198
1178.769	6231
1181.073	6237
1183.374	6272
1185.677	6227
1187.979	6329
1190.279	6225
1192.578	6254
1194.878	6161
1197.178	6202
1199.476	6206
1201.772	6176
1204.068	6134
1206.366	6155
1208.663	6205
1210.957	6225
1213.251	6289
1215.544	6190
1217.836	6381
1220.128	6365
1222.421	6318
1224.712	6255
1227.002	6292
1229.292	6335
1231.581	6322
1233.871	6433
1236.159	6313
1238.446	6331
1240.732	6454
1243.018	6399
1245.304	6400
1247.59	6512
1249.874	6468
1252.156	6463
1254.439	6527
1256.721	6538
1259.005	6470
1261.286	6554
1263.565	6469
1265.845	6541
1268.125	6321
1270.403	6451
1272.682	6550
1274.959	6379
1277.234	6522
1279.511	6510
1281.787	6521
1284.062	6327
1286.337	6466
1288.609	6338
1290.882	6272
1293.153	6335
1295.428	6299
1297.698	6377
1299.969	6377
1302.237	6291
1304.507	6377
1306.777	6447
1309.044	6366
1311.312	6290
1313.578	6299
1315.844	6294
1318.109	6416
1320.375	6277
1322.638	6362
1324.903	6407
1327.165	6360
1329.427	6296
1331.69	6371
1333.952	6395
1336.212	6442
1338.471	6313
1340.73	6418
1342.988	6404
1345.248	6404
1347.505	6272
1349.763	6287
1352.019	6253
1354.274	6385
1356.53	6389
1358.784	6443
1361.038	6390
1363.291	6243
1365.543	6392
1367.797	6356
1370.048	6353
1372.296	6328
1374.546	6313
1376.796	6396
1379.045	6274
1381.295	6492
1383.542	6353
1385.787	6357
1388.034	6353
1390.28	6556
1392.527	6443
1394.772	6529
1397.014	6428
1399.258	6444
1401.501	6598
1403.741	6509
1405.985	6444
1408.226	6460
1410.465	6552
1412.705	6405
1414.943	6437
1417.184	6536
1419.42	6460
1421.658	6501
1423.894	6548
1426.13	6589
1428.366	6464
1430.602	6550
1432.835	6669
1435.069	6568
1437.301	6594
1439.535	6644
1441.767	6596
1443.997	6599
1446.229	6687
1448.458	6701
1450.687	6610
1452.916	6607
1455.146	6593
1457.372	6705
1459.599	6638
1461.824	6610
1464.051	6743
1466.277	6733
1468.501	6700
1470.725	6620
1472.948	6665
1475.17	6548
1477.393	6440
1479.614	6465
1481.837	6422
1484.057	6545
1486.276	6436
1488.497	6433
1490.715	6362
1492.932	6425
1495.148	6317
1497.364	6347
1499.58	6373
1501.798	6398
1504.012	6309
1506.227	6376
1508.44	6297
1510.653	6301
1512.866	6237
1515.078	6313
1517.289	6241
1519.5	6392
1521.711	6365
1523.92	6415
1526.13	6234
1528.338	6271
1530.544	6242
1532.752	6284
1534.959	6405
1537.165	6430
1539.371	6296
1541.574	6372
1543.779	6329
1545.983	6386
1548.187	6308
1550.39	6310
1552.59	6561
1554.792	6436
1556.991	6313
1559.19	6439
1561.392	6353
1563.59	6497
1565.789	6520
1567.986	6495
1570.182	6458
1572.381	6459
1574.576	6530
1576.771	6396
1578.966	6445
1581.16	6479
1583.354	6535
1585.546	6559
1587.74	6588
1589.931	6587
1592.121	6703
1594.311	6471
1596.502	6445
1598.693	6488
1600.881	6519
1603.069	6571
1605.256	6667
1607.445	6626
1609.631	6643
1611.816	6603
1614.001	6521
1616.186	6504
1618.37	6517
1620.555	6491
1622.737	6621
1624.919	6572
1627.101	6596
1629.282	6609
1631.463	6667
1633.643	6628
1635.822	6662
1638.001	6693
1640.179	6537
1642.359	6706
1644.534	6595
1646.711	6644
1648.887	6638
1651.062	6677
1653.235	6710
1655.412	6590
1657.586	6604
1659.757	6842
1661.93	6599
1664.1	6693
1666.274	6700
1668.445	6688
1670.614	6797
1672.784	6734
1674.951	6754
1677.12	6742
1679.289	6774
1681.457	6587
1683.622	6677
1685.789	6691
1687.953	6581
1690.121	6699
1692.284	6598
1694.447	6645
1696.611	6525
1698.772	6634
1700.935	6558
1703.098	6626
1705.258	6423
1707.417	6539
1709.576	6493
1711.736	6559
1713.896	6479
1716.053	6605
1718.21	6418
1720.366	6457
1722.522	6707
1724.68	6615
1726.835	6397
1728.989	6443
1731.142	6527
1733.295	6583
1735.449	6469
1737.601	6583
1739.753	6555
1741.903	6619
1744.054	6523
1746.203	6526
1748.354	6512
1750.503	6553
1752.651	6492
1754.798	6475
1756.944	6606
1759.092	6537
1761.238	6550
1763.383	6490
1765.528	6569
1767.672	6503
1769.814	6525
1771.959	6559
1774.102	6543
1776.242	6476
1778.384	6598
1780.525	6592
1782.665	6590
1784.805	6482
1786.945	6559
1789.082	6481
1791.22	6699
1793.36	6570
1795.495	6546
1797.632	6553
1799.766	6526
1801.902	6607
1804.035	6582
1806.172	6472
1808.304	6396
1810.436	6529
1812.569	6514
1814.699	6570
1816.833	6482
1818.963	6546
1821.092	6551
1823.222	6679
1825.35	6528
1827.478	6512
1829.608	6479
1831.734	6534
1833.86	6597
1835.986	6474
1838.11	6573
1840.238	6577
1842.362	6487
1844.485	6532
1846.608	6520
1848.73	6505
1850.853	6474
1852.974	6523
1855.097	6491
1857.217	6582
1859.336	6512
1861.455	6384
1863.576	6449
1865.693	6504
1867.811	6458
1869.926	6547
1872.042	6359
1874.16	6374
1876.275	6588
1878.39	6498
1880.504	6520
1882.618	6477
1884.731	6382
1886.843	6523
1888.956	6439
1891.067	6493
1893.178	6455
1895.287	6538
1897.399	6569
1899.508	6562
1901.617	6571
1903.724	6551
1905.832	6489
1907.941	6436
1910.046	6562
1912.152	6561
1914.256	6535
1916.361	6568
1918.464	6490
1920.57	6638
1922.672	6615
1924.775	6608
1926.876	6560
1928.978	6655
1931.08	6561
1933.181	6681
1935.28	6504
1937.38	6649
1939.478	6566
1941.577	6587
1943.675	6550
1945.771	6553
1947.867	6591
1949.964	6701
1952.058	6620
1954.154	6534
1956.248	6579
1958.343	6463
1960.435	6611
1962.527	6573
1964.62	6656
1966.711	6609
1968.802	6671
1970.892	6570
1972.983	6580
1975.072	6530
1977.162	6560
1979.25	6498
1981.337	6498
1983.424	6495
1985.51	6582
1987.598	6485
1989.683	6484
1991.768	6631
1993.852	6510
1995.934	6545
1998.019	6566
2000.102	6484
2002.184	6544
2004.266	6620
2006.347	6526
2008.427	6382
2010.508	6551
2012.587	6552
2014.666	6563
2016.745	6432
2018.821	6583
2020.9	6532
2022.977	6576
2025.052	6566
2027.128	6494
2029.204	6650
2031.277	6538
2033.353	6458
2035.425	6429
2037.499	6477
2039.57	6529
2041.642	6604
2043.714	6540
2045.786	6519
2047.855	6487
2049.925	6421
2051.993	6591
2054.064	6501
2056.132	6351
2058.2	6516
2060.266	6515
2062.332	6527
2064.398	6468
2066.465	6461
2068.529	6589
2070.592	6573
2072.657	6477
2074.719	6441
2076.783	6651
2078.845	6487
2080.907	6563
2082.968	6455
2085.028	6527
2087.087	6605
2089.148	6486
2091.207	6551
2093.264	6587
2095.322	6543
2097.379	6468
2099.439	6528
2101.495	6416
2103.55	6632
2105.605	6412
2107.658	6614
2109.713	6501
2111.767	6389
2113.82	6543
2115.872	6575
2117.924	6549
2119.975	6454
2122.028	6462
2124.078	6439
2126.126	6455
2128.176	6439
2130.225	6448
2132.275	6474
2134.321	6467
2136.368	6529
2138.415	6525
2140.461	6503
2142.505	6507
2144.552	6447
2146.597	6547
2148.64	6423
2150.684	6403
2152.725	6471
2154.77	6496
2156.811	6537
2158.852	6492
2160.894	6439
2162.933	6435
2164.973	6505
2167.013	6524
2169.051	6343
2171.089	6450
2173.126	6514
2175.164	6383
2177.201	6458
2179.236	6430
2181.273	6377
2183.307	6410
2185.341	6351
2187.377	6430
2189.41	6347
2191.442	6430
2193.473	6383
2195.506	6349
2197.539	6419
2199.569	6445
2201.598	6295
2203.628	6259
2205.656	6264
2207.686	6337
2209.716	6290
2211.743	6360
2213.769	6295
2215.796	6432
2217.821	6390
2219.848	6348
2221.873	6273
2223.897	6146
2225.921	6336
2227.944	6387
2229.967	6315
2231.991	6235
2234.011	6418
2236.032	6376
2238.053	6357
2240.073	6309
2242.094	6304
2244.114	6354
2246.131	6391
2248.149	6378
2250.167	6303
2252.186	6249
2254.201	6179
2256.218	6469
2258.233	6347
2260.247	6282
2262.262	6250
2264.278	6365
2266.29	6279
2268.303	6322
2270.315	6267
2272.327	6274
2274.341	6234
2276.35	6391
2278.361	6279
2280.37	6286
2282.38	6357
2284.388	6350
2286.397	6269
2288.405	6349
2290.412	6253
2292.419	6288
2294.425	6271
2296.431	6249
2298.437	6251
2300.441	6134
2302.445	6278
2304.449	6274
2306.453	6232
2308.455	6191
2310.457	6310
2312.459	6229
2314.46	6310
2316.46	6267
2318.461	6180
2320.46	6204
2322.458	6162
2324.458	6217
2326.456	6194
2328.455	6184
2330.451	6243
2332.447	6220
2334.443	6155
2336.438	6287
2338.433	6194
2340.429	6250
2342.422	6185
2344.416	6191
2346.408	6101
2348.399	6159
2350.393	6170
2352.384	6269
2354.375	6072
2356.365	6154
2358.355	6151
2360.344	6124
2362.333	6134
2364.322	6080
2366.309	6022
2368.295	6100
2370.282	5971
2372.27	6190
2374.256	6135
2376.24	6259
2378.225	6037
2380.208	6187
2382.194	6198
2384.177	6152
2386.159	6132
2388.142	6079
2390.122	6041
2392.105	5994
2394.085	6045
2396.066	6081
2398.044	6045
2400.024	6177
2402.002	6029
2403.982	5975
2405.959	6047
2407.935	6032
2409.913	6068
2411.888	6040
2413.865	5893
2415.84	6058
2417.814	6033
2419.788	6027
2421.762	5987
2423.735	6080
2425.708	6143
2427.68	6047
2429.651	6104
2431.623	5929
2433.593	5956
2435.564	6013
2437.533	6056
2439.502	6051
2441.47	6073
2443.438	6098
2445.406	6118
2447.373	5924
2449.34	5988
2451.305	6089
2453.271	6007
2455.235	5994
2457.201	6010
2459.165	6018
2461.129	6028
2463.092	6134
2465.054	5929
2467.018	6029
2468.978	5976
2470.939	5920
2472.899	5958
2474.86	6088
2476.819	5925
2478.778	6019
2480.737	6033
2482.695	5866
2484.653	5919
2486.609	5917
2488.567	5888
2490.524	6012
2492.478	5841
2494.433	5907
2496.387	5977
2498.343	5859
2500.297	5822
2502.249	5899
2504.202	5812
2506.153	5927
2508.105	5941
2510.057	5897
2512.008	5971
2513.957	5924
2515.906	5901
2517.855	5914
2519.805	5840
2521.754	6068
2523.7	5897
2525.647	5898
2527.594	5973
2529.54	5979
2531.486	5915
2533.431	5818
2535.376	5840
2537.32	5838
2539.263	5867
2541.207	5966
2543.151	5828
2545.093	5871
2547.034	5848
2548.975	5895
2550.917	5920
2552.856	5998
2554.796	5903
2556.735	5919
2558.673	5831
2560.611	5800
2562.55	5808
2564.487	5915
2566.424	5862
2568.36	5906
2570.296	5953
2572.232	5889
2574.167	5951
2576.101	5793
2578.035	5875
2579.969	5921
2581.902	5806
2583.834	6034
2585.766	5804
2587.698	5822
2589.628	5907
2591.557	5906
2593.489	5844
2595.419	5828
2597.348	5836
2599.275	5871
2601.204	5762
2603.131	5850
2605.059	5852
2606.986	6006
2608.911	5839
2610.837	5933
2612.76	5840
2614.687	5832
2616.61	5790
2618.534	5859
2620.457	6000
2622.38	5866
2624.302	5800
2626.225	5844
2628.145	5787
2630.067	5932
2631.986	5864
2633.906	5991
2635.827	5874
2637.745	5773
2639.662	5957
2641.581	5950
2643.498	5908
2645.415	5901
2647.331	5826
2649.248	5852
2651.163	5861
2653.077	5803
2654.993	5762
2656.906	5791
2658.821	5901
2660.733	5891
2662.646	5779
2664.557	5842
2666.47	5826
2668.381	5888
2670.291	5854
2672.201	5710
2674.11	5810
2676.021	5780
2677.929	5876
2679.837	5785
2681.745	5853
2683.652	5843
2685.56	5623
2687.466	5878
2689.371	5815
2691.276	5872
2693.181	5797
2695.085	5850
2696.991	5806
2698.893	5825
2700.796	5743
2702.698	5836
2704.601	5799
2706.502	5911
2708.404	5854
2710.304	5891
2712.203	5632
2714.103	5709
2716.003	5782
2717.902	5747
2719.8	5736
2721.697	5757
2723.594	5692
2725.49	5740
2727.389	5635
2729.283	5703
2731.179	5662
2733.073	5711
2734.968	5729
2736.863	5636
2738.757	5677
2740.649	5756
2742.541	5620
2744.433	5638
2746.324	5655
2748.216	5705
2750.107	5716
2751.997	5748
2753.886	5596
2755.776	5606
2757.666	5746
2759.553	5582
2761.44	5633
2763.327	5755
2765.215	5657
2767.102	5701
2768.988	5641
2770.873	5612
2772.757	5656
2774.641	5569
2776.525	5677
2778.41	5642
2780.292	5646
2782.175	5647
2784.057	5595
2785.938	5586
2787.821	5669
2789.701	5607
2791.581	5551
2793.461	5544
2795.34	5547
2797.219	5606
2799.099	5553
2800.975	5575
2802.853	5621
2804.73	5636
2806.606	5533
2808.484	5539
2810.358	5640
2812.233	5480
2814.108	5541
2815.981	5485
2817.857	5487
2819.73	5574
2821.602	5611
2823.474	5605
2825.346	5536
2827.217	5492
2829.089	5548
2830.959	5599
2832.829	5526
2834.698	5546
2836.567	5602
2838.436	5618
2840.305	5655
2842.172	5607
2844.04	5624
2845.905	5582
2847.772	5571
2849.639	5547
2851.503	5604
2853.369	5592
2855.232	5611
2857.096	5756
2858.961	5678
2860.824	5634
2862.686	5705
2864.547	5774
2866.41	5686
2868.272	5730
2870.132	5837
2871.992	5892
2873.851	5875
2875.711	6003
2877.57	5934
2879.429	5885
2881.287	6009
2883.144	6025
2885.001	6058
2886.857	6050
2888.714	6075
2890.57	5954
2892.425	6011
2894.279	6045
2896.133	5976
2897.987	6047
2899.842	6073
2901.694	6153
2903.547	6014
2905.397	6028
2907.249	6137
2909.101	6110
2910.952	6037
2912.802	5969
2914.652	6037
2916.5	5995
2918.35	6201
2920.198	6179
2922.045	6293
2923.893	6367
2925.74	6286
2927.585	6341
2929.433	6387
2931.279	6433
2933.123	6456
2934.968	6555
2936.811	6620
2938.656	6678
2940.5	6594
2942.342	6708
2944.185	6781
2946.026	6716
2947.87	6814
2949.71	6706
2951.549	6746
2953.39	6596
2955.229	6640
2957.069	6591
2958.908	6443
2960.746	6436
2962.584	6554
2964.421	6354
2966.257	6288
2968.094	6341
2969.931	6201
2971.766	6213
2973.601	6127
2975.435	6057
2977.27	6035
2979.105	5954
2980.938	6231
2982.77	6071
2984.602	5948
2986.434	5943
2988.267	6036
2990.097	6026
2991.927	5839
2993.757	5950
2995.587	5868
2997.417	5740
2999.246	5853
3001.074	5757
3002.902	5711
3004.729	5651
3006.556	5595
3008.384	5671
3010.21	5511
3012.036	5514
3013.861	5534
3015.684	5470
3017.51	5471
3019.334	5409
3021.157	5332
3022.981	5468
3024.802	5329
3026.624	5387
3028.448	5209
3030.267	5314
3032.088	5292
3033.909	5211
3035.728	5271
3037.549	5346
3039.368	5356
3041.186	5203
3043.004	5252
3044.821	5233
3046.64	5183
3048.455	5272
3050.272	5216
3052.087	5265
3053.903	5232
3055.717	5199
3057.534	5199
3059.347	5170
3061.16	5210
3062.974	5138
3064.785	5273
3066.598	5158
3068.411	5222
3070.222	5233
3072.032	5225
3073.844	5261
3075.653	5128
3077.463	5206
3079.272	5092
3081.08	5101
3082.889	5082
3084.697	5064
3086.505	5204
3088.312	5128
3090.118	5070
3091.924	4974
3093.729	5103
3095.535	5060
3097.34	5121
3099.144	5072
3100.947	5031
3102.75	5024
3104.553	5133
3106.357	4961
3108.159	5089
3109.961	5055
3111.762	4993
3113.562	5066
3115.365	5009
3117.164	5021
3118.964	5017
3120.761	5011
3122.56	5000
3124.36	5084
3126.158	4952
3127.954	5041
3129.75	5028
3131.547	4973
3133.343	4938
3135.139	4809
3136.934	4920
3138.729	4878
3140.522	4971
3142.317	4849
3144.11	4887
3145.904	4875
3147.695	4889
3149.488	4884
3151.28	4939
3153.07	4923
3154.863	4892
3156.652	4834
3158.441	4878
3160.231	4881
3162.019	4890
3163.81	4876
3165.597	4918
3167.384	4909
3169.172	4981
3170.958	4910
3172.745	4971
3174.532	4905
3176.317	4834
3178.101	4854
3179.885	4850
3181.67	4778
3183.455	4907
3185.238	4856
3187.02	4846
3188.802	4896
3190.585	4864
3192.368	4862
3194.149	4672
3195.929	4882
3197.709	4865
3199.489	4777
3201.268	4818
3203.048	4790
3204.826	4909
3206.604	4799
3208.382	4826
3210.159	4859
3211.937	4761
3213.713	4733
3215.489	4799
3217.263	4736
3219.038	4786
3220.815	4777
3222.589	4801
3224.363	4879
3226.136	4764
3227.908	4791
3229.681	4793
3231.454	4788
3233.226	4810
3234.996	4787
3236.767	4775
3238.538	4883
3240.308	4750
3242.078	4830
3243.847	4861
3245.615	4670
3247.384	4806
3249.15	4787
3250.92	4714
3252.686	4865
3254.453	4739
3256.218	4856
3257.984	4854
3259.75	4749
3261.515	4754
3263.279	4800
3265.044	4744
3266.806	4731
3268.57	4688
3270.334	4795
3272.095	4699
3273.856	4792
3275.619	4783
3277.379	4709
3279.14	4672
3280.9	4819
3282.661	4893
3284.419	4780
3286.178	4657
3287.937	4765
3289.695	4700
3291.453	4820
3293.21	4845
3294.967	4789
3296.723	4772
3298.48	4781
3300.235	4723
3301.99	4775
3303.744	4793
3305.498	4787
3307.253	4802
3309.006	4800
3310.759	4765
3312.511	4790
3314.263	4758
3316.017	4793
3317.768	4752
3319.519	4787
3321.268	4773
3323.018	4681
3324.767	4801
3326.518	4770
3328.267	4740
3330.014	4739
3331.762	4646
3333.509	4737
3335.258	4771
3337.003	4669
3338.75	4820
3340.496	4742
3342.24	4686
3343.987	4759
3345.732	4712
3347.475	4685
3349.219	4664
3350.961	4781
3352.705	4667
3354.448	4774
3356.19	4703
3357.931	4635
3359.672	4731
3361.412	4689
3363.155	4650
3364.894	4764
3366.633	4680
3368.372	4632
3370.11	4668
3371.849	4579
3373.588	4648
3375.325	4542
3377.061	4646
3378.799	4713
3380.534	4569
3382.271	4637
3384.006	4606
3385.741	4523
3387.475	4589
3389.209	4592
3390.944	4596
3392.677	4574
3394.409	4585
3396.143	4586
3397.874	4632
3399.606	4484
3401.338	4562
3403.069	4560
3404.799	4616
3406.528	4567
3408.258	4510
3409.988	4541
3411.717	4601
3413.445	4562
3415.173	4559
3416.899	4534
3418.626	4536
3420.354	4490
3422.08	4552
3423.806	4506
3425.531	4589
3427.255	4583
3428.981	4623
3430.705	4482
3432.429	4416
3434.151	4480
3435.875	4485
3437.599	4520
3439.321	4495
3441.042	4407
3442.763	4480
3444.483	4459
3446.204	4423
3447.926	4406
3449.645	4392
3451.364	4467
3453.082	4498
3454.801	4405
3456.52	4432
3458.238	4430
3459.954	4449
3461.671	4406
3463.387	4400
3465.104	4444
3466.82	4311
3468.534	4386
3470.25	4368
3471.963	4299
3473.676	4293
3475.392	4420
3477.104	4379
3478.817	4334
3480.528	4361
3482.241	4389
3483.954	4365
3485.664	4275
3487.374	4272
3489.084	4336
3490.795	4280
3492.504	4305
3494.214	4333
3495.922	4298
3497.63	4291
3499.338	4262
3501.045	4220
3502.753	4346
3504.459	4308
3506.166	4249
3507.871	4238
3509.576	4237
3511.283	4237
3512.987	4249
3514.691	4319
3516.395	4274
3518.098	4140
3519.8	4367
3521.504	4216
3523.206	4251
3524.908	4188
3526.609	4138
3528.309	4149
3530.011	4213
3531.711	4220
3533.411	4182
3535.109	4158
3536.808	4182
3538.507	4201
3540.206	4107
3541.904	4163
3543.601	4157
3545.297	4125
3546.994	4128
3548.69	4229
3550.387	4136
3552.081	4173
3553.776	4023
3555.47	4132
3557.166	4131
3558.859	4122
3560.553	4089
3562.245	4050
3563.938	4191
3565.629	4090
3567.322	4105
3569.014	4067
3570.704	4096
3572.394	4107
3574.084	4008
3575.775	4136
3577.464	4002
3579.152	4138
3580.842	4098
3582.529	4167
3584.216	3998
3585.905	4048
3587.591	4068
3589.279	3965
3590.964	4057
3592.649	3896
3594.336	3983
3596.021	4018
3597.705	3947
3599.388	4039
3601.072	3941
3602.757	3853
3604.439	4009
3606.122	4003
3607.803	3940
3609.485	3873
3611.167	3918
3612.849	3875
3614.529	3950
3616.208	3955
3617.888	3964
3619.567	3954
3621.247	3922
3622.926	3910
3624.603	3915
3626.281	3932
3627.958	3908
3629.635	3918
3631.312	3901
3632.989	3923
3634.665	3770
3636.339	3802
3638.014	3806
3639.691	3816
3641.364	3834
3643.038	3796
3644.71	3784
3646.384	3825
3648.058	3768
3649.729	3816
3651.402	3768
3653.073	3861
3654.744	3833
3656.414	3783
3658.085	3788
3659.755	3911
3661.424	3864
3663.094	3824
3664.762	3726
3666.431	3711
3668.099	3728
3669.766	3802
3671.433	3696
3673.099	3727
3674.768	3757
3676.433	3712
3678.098	3787
3679.763	3804
3681.428	3704
3683.093	3667
3684.757	3729
3686.421	3709
3688.083	3763
3689.746	3700
3691.408	3676
3693.071	3716
3694.733	3810
3696.394	3673
3698.054	3661
3699.715	3652
3701.375	3768
3703.036	3764
3704.695	3708
3706.354	3685
3708.012	3687
3709.67	3591
3711.329	3611
3712.987	3625
3714.644	3689
3716.299	3652
3717.955	3646
3719.613	3710
3721.268	3651
3722.923	3694
3724.577	3730
3726.231	3731
3727.885	3648
3729.539	3674
3731.192	3675
3732.845	3637
3734.497	3717
3736.149	3706
3737.802	3592
3739.453	3594
3741.104	3608
3742.753	3614
3744.404	3641
3746.052	3625
3747.704	3599
3749.352	3539
3751	3607
3752.648	3582
3754.296	3614
3755.944	3606
3757.59	3570
3759.238	3604
3760.883	3645
3762.528	3598
3764.176	3593
3765.82	3567
3767.464	3541
3769.109	3535
3770.753	3530
3772.396	3536
3774.04	3570
3775.683	3562
3777.325	3520
3778.967	3562
3780.608	3589
3782.25	3553
3783.89	3513
3785.531	3497
3787.17	3517
3788.81	3561
3790.45	3505
3792.09	3541
3793.729	3492
3795.366	3535
3797.003	3480
3798.64	3505
3800.278	3432
3801.915	3517
3803.551	3525
3805.187	3500
3806.822	3454
3808.458	3504
3810.093	3494
3811.726	3484
3813.36	3535
3814.994	3458
3816.627	3443
3818.262	3536
3819.893	3537
3821.525	3412
3823.157	3462
3824.787	3367
3826.42	3429
3828.051	3496
3829.68	3437
3831.31	3489
3832.938	3417
3834.569	3426
3836.198	3437
3837.825	3434
3839.454	3412
3841.08	3495
3842.708	3439
3844.335	3398
3845.962	3344
3847.587	3393
3849.212	3436
3850.838	3398
3852.463	3351
3854.089	3407
3855.712	3396
3857.335	3415
3858.959	3377
3860.582	3422
3862.205	3344
3863.827	3390
3865.449	3369
3867.07	3425
3868.691	3386
3870.312	3385
3871.933	3312
3873.553	3396
3875.173	3402
3876.792	3348
3878.411	3321
3880.03	3310
3881.647	3369
3883.265	3350
3884.882	3341
3886.499	3290
3888.116	3308
3889.732	3299
3891.348	3291
3892.964	3326
3894.579	3271
3896.195	3369
3897.809	3264
3899.423	3378
3901.036	3343
3902.648	3210
3904.261	3266
3905.875	3276
3907.487	3304
3909.099	3300
3910.709	3346
3912.321	3264
3913.933	3292
3915.542	3298
3917.152	3294
3918.762	3353
3920.37	3319
3921.98	3283
3923.589	3307
3925.196	3233
3926.804	3259
3928.41	3310
3930.018	3229
3931.626	3242
3933.231	3283
3934.838	3230
3936.442	3239
3938.046	3243
3939.653	3215
3941.257	3253
3942.861	3243
3944.464	3263
3946.068	3205
3947.67	3208
3949.273	3242
3950.876	3204
3952.477	3199
3954.078	3226
3955.678	3202
3957.281	3191
3958.881	3216
3960.48	3142
3962.079	3210
3963.678	3262
3965.279	3103
3966.877	3198
3968.475	3217
3970.072	3225
3971.669	3233
3973.266	3123
3974.864	3218
3976.459	3124
3978.055	3176
3979.65	3150
3981.245	3137
3982.841	3157
3984.436	3154
3986.03	3076
3987.623	3180
3989.216	3183
3990.809	3089
3992.403	3119
3993.995	3112
3995.586	3206
3997.177	3085
3998.768	3074
4000.361	3030
4001.951	3113
4003.54	3079
4005.13	3124
4006.719	3033
4008.31	3083
4009.897	3066
4011.485	3163
4013.073	3016
4014.66	3081
4016.247	3103
4017.834	3060
4019.421	3068
4021.006	3073
4022.592	3069
4024.178	3009
4025.763	3095
4027.348	2958
4028.932	3060
4030.515	3063
4032.099	3063
4033.682	2990
4035.266	2989
4036.847	3036
4038.429	3020
4040.011	2997
4041.592	3012
4043.173	3087
4044.755	3055
4046.334	2994
4047.913	2979
4049.494	2954
4051.074	2986
4052.652	2970
4054.23	2984
4055.807	2965
4057.385	3006
4058.963	2988
4060.541	2992
4062.117	2982
4063.693	2969
4065.269	2876
4066.844	2969
4068.42	2958
4069.995	2969
4071.569	2955
4073.143	2938
4074.716	2979
4076.291	3019
4077.864	2849
4079.436	2988
4081.009	2909
4082.58	2903
4084.152	2948
4085.723	2919
4087.294	2968
4088.865	3004
4090.435	2924
4092.005	2851
4093.574	2932
4095.143	2879
4096.712	2968
4098.279	2929
4099.848	2909
4101.416	2894
4102.984	2909
4104.55	2869
4106.117	2874
4107.682	2891
4109.248	2875
4110.815	2949
4112.379	2940
4113.945	2836
4115.508	2873
4117.073	2818
4118.637	2875
4120.201	2913
4121.763	2880
4123.325	2941
4124.888	2891
4126.449	2812
4128.013	2768
4129.573	2877
4131.133	2835
4132.694	2867
4134.254	2946
4135.814	2826
4137.374	2787
4138.933	2831
4140.491	2786
4142.049	2754
4143.607	2830
4145.167	2853
4146.724	2788
4148.28	2818
4149.836	2810
4151.392	2749
4152.949	2839
4154.504	2724
4156.059	2795
4157.614	2788
4159.168	2752
4160.723	2801
4162.277	2791
4163.83	2785
4165.383	2713
4166.936	2728
4168.488	2753
4170.041	2756
4171.593	2743
4173.144	2734
4174.695	2676
4176.246	2778
4177.796	2706
4179.346	2704
4180.896	2768
4182.445	2675
4183.994	2759
4185.542	2697
4187.091	2676
4188.639	2692
4190.185	2698
4191.732	2738
4193.279	2771
4194.826	2752
4196.373	2697
4197.918	2690
4199.463	2698
4201.008	2666
4202.553	2664
4204.098	2717
4205.641	2688
4207.185	2654
4208.728	2672
4210.271	2683
4211.814	2678
4213.357	2641
4214.898	2703
4216.439	2680
4217.98	2634
4219.522	2743
4221.062	2749
4222.603	2686
4224.142	2603
4225.681	2686
4227.222	2649
4228.76	2663
4230.298	2689
4231.835	2635
4233.373	2677
4234.911	2642
4236.449	2639
4237.985	2619
4239.521	2628
4241.057	2615
4242.592	2622
4244.128	2628
4245.663	2729
4247.197	2679
4248.731	2599
4250.265	2572
4251.798	2578
4253.333	2604
4254.865	2622
4256.397	2582
4257.93	2629
4259.461	2533
4260.994	2568
4262.525	2576
4264.056	2679
4265.586	2612
4267.115	2601
4268.646	2599
4270.176	2598
4271.705	2526
4273.232	2577
4274.761	2527
4276.289	2559
4277.818	2500
4279.345	2625
4280.872	2538
4282.399	2576
4283.924	2545
4285.452	2491
4286.976	2505
4288.502	2637
4290.026	2610
4291.551	2612
4293.074	2570
4294.6	2536
4296.123	2546
4297.646	2590
4299.168	2498
4300.691	2488
4302.214	2588
4303.736	2491
4305.257	2467
4306.778	2564
4308.299	2514
4309.82	2527
4311.34	2550
4312.86	2552
4314.379	2578
