400.0745	4361
402.597	4307
405.1208	4390
407.6419	4343
410.1623	4354
412.6819	4488
415.201	4399
417.7172	4445
420.2369	4497
422.7538	4474
425.2701	4552
427.7856	4608
430.3005	4642
432.8147	4602
435.3282	4597
437.841	4603
440.3511	4622
442.8625	4659
445.3753	4660
447.8854	4579
450.3927	4645
452.9014	4625
455.4073	4677
457.9146	4747
460.4233	4670
462.9272	4602
465.4325	4618
467.935	4576
470.4389	4710
472.9421	4632
475.4446	4602
477.9444	4734
480.4456	4692
482.944	4774
485.4417	4704
487.9429	4839
490.4393	4731
492.935	4822
495.4321	4793
497.9264	4736
500.4221	4779
502.9171	4800
505.4094	4904
507.9011	4823
510.392	4860
512.8864	4825
515.3759	4912
517.8649	4834
520.3531	4836
522.8406	4906
525.3275	4856
527.8178	4830
530.3033	4897
532.7881	4897
535.2723	4778
537.7558	4898
540.2407	4846
542.7228	4887
545.2043	4847
547.6851	4851
550.1652	4798
552.6467	4867
555.1255	4898
557.6016	4842
560.079	4981
562.5557	4917
565.0318	4886
567.5092	5074
569.984	4903
572.456	5017
574.9294	5078
577.4022	4935
579.8762	5035
582.3456	5101
584.8163	4973
587.2863	5052
589.7557	5095
592.2224	5073
594.6924	5077
597.1578	5128
599.6245	5077
602.0905	5115
604.5538	5017
607.0206	5082
609.4825	5116
611.9459	5015
614.4066	4946
616.8686	5053
619.33	5057
621.7906	5036
624.2487	5090
626.708	5101
629.1647	5088
631.6207	5137
634.0801	5029
636.5348	4989
638.9888	5142
641.4442	5124
643.8969	5068
646.3509	5062
648.8022	5097
651.255	5188
653.705	5059
656.1544	5069
658.6031	5151
661.0532	5218
663.5026	5177
665.9493	5217
668.3954	5277
670.8409	5297
673.2877	5319
675.7318	5182
678.1752	5234
680.618	5312
683.0601	5215
685.5035	5300
687.9444	5280
690.3845	5252
692.824	5329
695.2628	5247
697.701	5284
700.1406	5297
702.5774	5223
705.0116	5342
707.4472	5331
709.8821	5394
712.3183	5313
714.7519	5307
717.1829	5405
719.6151	5337
722.0468	5339
724.4777	5297
726.908	5489
729.3377	5454
731.7667	5449
734.1931	5502
736.6208	5434
739.0498	5507
741.4742	5552
743.9	5631
746.3231	5402
748.7476	5539
751.1713	5581
753.5945	5511
756.015	5561
758.4368	5686
760.856	5640
763.2766	5640
765.6965	5728
768.1157	5699
770.5323	5640
772.9483	5686
775.3656	5698
777.7822	5683
780.1963	5656
782.6116	5679
785.0244	5646
787.4365	5550
789.8499	5729
792.2626	5642
794.6728	5663
797.0823	5648
799.4911	5585
801.8994	5770
804.3109	5702
806.7178	5797
809.124	5672
811.5297	5747
813.9347	5747
816.341	5695
818.7447	5704
821.1478	5738
823.5502	5676
825.952	5633
828.3531	5810
830.7556	5600
833.1554	5754
835.5546	5804
837.9532	5727
840.3511	5742
842.7504	5829
845.1451	5688
847.5411	5826
849.9365	5739
852.3312	5882
854.7272	5728
857.1187	5733
859.5115	5918
861.9037	5741
864.2952	5663
866.6842	5760
869.0764	5883
871.4661	5749
873.8531	5722
876.2415	5808
878.6272	5779
881.0162	5804
883.4026	5741
885.7866	5801
888.1717	5729
890.5543	5759
892.9382	5810
895.3215	5697
897.7041	5916
900.0842	5831
902.4655	5725
904.8443	5798
907.2244	5822
909.6039	5836
911.9808	5814
914.357	5888
916.7346	5937
919.1115	5878
921.4859	5939
923.8616	5949
926.2347	6036
928.6071	5982
930.979	5914
933.3541	5988
935.7247	6060
938.0946	5991
940.4639	6158
942.8326	6232
945.2026	6096
947.5701	6287
949.9369	6280
952.305	6452
954.6705	6544
957.0355	6738
959.4017	6806
961.7654	6816
964.1284	6900
966.4908	6815
968.8527	6680
971.2138	6381
973.5743	6323
975.9343	6076
978.2936	6158
980.6522	6103
983.0122	5966
985.3696	6055
987.7245	6025
990.0807	5924
992.4362	5967
994.7911	6035
997.1474	6039
999.4991	6049
1001.852	5966
1004.205	6143
1006.555	5980
1008.908	6035
1011.258	5968
1013.606	6014
1015.956	6078
1018.302	6022
1020.652	6087
1022.998	5936
1025.345	5975
1027.691	6097
1030.035	6070
1032.378	6059
1034.724	6132
1037.066	6134
1039.409	6220
1041.75	6112
1044.092	6146
1046.433	6101
1048.771	5996
1051.112	6127
1053.449	5978
1055.786	6105
1058.124	6148
1060.462	6177
1062.797	6140
1065.131	6177
1067.467	6259
1069.8	6233
1072.135	6100
1074.467	6342
1076.798	6241
1079.129	6076
1081.459	6166
1083.792	6149
1086.121	6144
1088.449	6148
1090.777	6219
1093.104	6234
1095.431	6130
1097.759	6234
1100.084	6135
1102.408	6195
1104.732	6155
1107.056	6268
1109.379	6148
1111.701	6199
1114.022	6266
1116.343	6193
1118.664	6204
1120.983	6100
1123.303	6228
1125.621	6326
1127.939	6198
1130.256	6217
1132.573	6121
1134.889	6195
1137.205	6216
1139.52	6233
1141.832	6249
1144.146	6222
1146.461	6090
1148.771	6230
1151.083	6225
1153.392	6205
1155.703	6170
1158.011	6316
1160.323	6249
1162.629	6160
1164.938	6313
1167.243	6174
1169.55	6219
1171.857	6237
1174.163	6187
1176.466	6218
1178.769	6236
1181.073	6297
1183.374	6226
1185.677	6037
1187.979	6316
1190.279	6327
1192.578	6317
1194.878	6212
1197.178	6177
1199.476	6253
1201.772	6217
1204.068	6275
1206.366	6240
1208.663	6136
1210.957	6186
1213.251	6271
1215.544	6246
1217.836	6264
1220.128	6294
1222.421	6266
1224.712	6157
1227.002	6285
1229.292	6296
1231.581	6282
1233.871	6261
1236.159	6388
1238.446	6220
1240.732	6414
1243.018	6402
1245.304	6460
1247.59	6440
1249.874	6411
1252.156	6390
1254.439	6465
1256.721	6319
1259.005	6256
1261.286	6317
1263.565	6361
1265.845	6398
1268.125	6185
1270.403	6409
1272.682	6336
1274.959	6349
1277.234	6528
1279.511	6392
1281.787	6434
1284.062	6376
1286.337	6376
1288.609	6382
1290.882	6307
1293.153	6400
1295.428	6230
1297.698	6412
1299.969	6288
1302.237	6404
1304.507	6234
1306.777	6372
1309.044	6316
1311.312	6298
1313.578	6315
1315.844	6354
1318.109	6340
1320.375	6357
1322.638	6315
1324.903	6364
1327.165	6336
1329.427	6334
1331.69	6316
1333.952	6385
1336.212	6285
1338.471	6327
1340.73	6249
1342.988	6310
1345.248	6342
1347.505	6323
1349.763	6426
1352.019	6332
1354.274	6275
1356.53	6426
1358.784	6345
1361.038	6352
1363.291	6304
1365.543	6379
1367.797	6325
1370.048	6395
1372.296	6334
1374.546	6430
1376.796	6321
1379.045	6275
1381.295	6423
1383.542	6359
1385.787	6357
1388.034	6337
1390.28	6313
1392.527	6395
1394.772	6491
1397.014	6355
1399.258	6314
1401.501	6469
1403.741	6326
1405.985	6490
1408.226	6484
1410.465	6386
1412.705	6413
1414.943	6438
1417.184	6439
1419.42	6474
1421.658	6434
1423.894	6451
1426.13	6534
1428.366	6451
1430.602	6498
1432.835	6567
1435.069	6528
1437.301	6377
1439.535	6533
1441.767	6551
1443.997	6558
1446.229	6598
1448.458	6549
1450.687	6623
1452.916	6535
1455.146	6494
1457.372	6528
1459.599	6624
1461.824	6412
1464.051	6518
1466.277	6602
1468.501	6495
1470.725	6479
1472.948	6623
1475.17	6534
1477.393	6413
1479.614	6412
1481.837	6471
1484.057	6487
1486.276	6579
1488.497	6375
1490.715	6421
1492.932	6367
1495.148	6390
1497.364	6412
1499.58	6459
1501.798	6466
1504.012	6383
1506.227	6382
1508.44	6388
1510.653	6359
1512.866	6326
1515.078	6477
1517.289	6363
1519.5	6384
1521.711	6377
1523.92	6392
1526.13	6409
1528.338	6400
1530.544	6457
1532.752	6376
1534.959	6260
1537.165	6405
1539.371	6429
1541.574	6399
1543.779	6419
1545.983	6428
1548.187	6332
1550.39	6339
1552.59	6298
1554.792	6491
1556.991	6419
1559.19	6484
1561.392	6513
1563.59	6378
1565.789	6505
1567.986	6385
1570.182	6510
1572.381	6419
1574.576	6538
1576.771	6579
1578.966	6583
1581.16	6468
1583.354	6639
1585.546	6455
1587.74	6447
1589.931	6508
1592.121	6465
1594.311	6568
1596.502	6532
1598.693	6562
1600.881	6616
1603.069	6593
1605.256	6423
1607.445	6492
1609.631	6507
1611.816	6599
1614.001	6635
1616.186	6577
1618.37	6661
1620.555	6544
1622.737	6593
1624.919	6575
1627.101	6574
1629.282	6650
1631.463	6503
1633.643	6526
1635.822	6457
1638.001	6599
1640.179	6640
1642.359	6483
1644.534	6564
1646.711	6532
1648.887	6646
1651.062	6597
1653.235	6664
1655.412	6632
1657.586	6540
1659.757	6617
1661.93	6637
1664.1	6674
1666.274	6642
1668.445	6639
1670.614	6597
1672.784	6617
1674.951	6633
1677.12	6527
1679.289	6654
1681.457	6530
1683.622	6657
1685.789	6575
1687.953	6555
1690.121	6698
1692.284	6526
1694.447	6532
1696.611	6595
1698.772	6571
1700.935	6572
1703.098	6602
1705.258	6630
1707.417	6542
1709.576	6474
1711.736	6588
1713.896	6420
1716.053	6396
1718.21	6458
1720.366	6548
1722.522	6516
1724.68	6542
1726.835	6468
1728.989	6514
1731.142	6500
1733.295	6559
1735.449	6518
1737.601	6491
1739.753	6588
1741.903	6531
1744.054	6601
1746.203	6560
1748.354	6604
1750.503	6486
1752.651	6457
1754.798	6504
1756.944	6583
1759.092	6513
1761.238	6500
1763.383	6588
1765.528	6597
1767.672	6547
1769.814	6552
1771.959	6599
1774.102	6604
1776.242	6568
1778.384	6643
1780.525	6611
1782.665	6608
1784.805	6746
1786.945	6609
1789.082	6600
1791.22	6603
1793.36	6597
1795.495	6546
1797.632	6682
1799.766	6563
1801.902	6654
1804.035	6709
1806.172	6558
1808.304	6657
1810.436	6555
1812.569	6718
1814.699	6656
1816.833	6377
1818.963	6657
1821.092	6665
1823.222	6599
1825.35	6633
1827.478	6591
1829.608	6492
1831.734	6593
1833.86	6623
1835.986	6587
1838.11	6550
1840.238	6580
1842.362	6512
1844.485	6567
1846.608	6635
1848.73	6515
1850.853	6597
1852.974	6650
1855.097	6641
1857.217	6514
1859.336	6428
1861.455	6525
1863.576	6494
1865.693	6544
1867.811	6461
1869.926	6453
1872.042	6620
1874.16	6463
1876.275	6552
1878.39	6426
1880.504	6680
1882.618	6416
1884.731	6527
1886.843	6507
1888.956	6551
1891.067	6558
1893.178	6492
1895.287	6579
1897.399	6511
1899.508	6540
1901.617	6592
1903.724	6630
1905.832	6586
1907.941	6641
1910.046	6488
1912.152	6633
1914.256	6696
1916.361	6582
1918.464	6589
1920.57	6596
1922.672	6607
1924.775	6597
1926.876	6547
1928.978	6658
1931.08	6636
1933.181	6577
1935.28	6601
1937.38	6630
1939.478	6539
1941.577	6632
1943.675	6687
1945.771	6590
1947.867	6570
1949.964	6681
1952.058	6552
1954.154	6579
1956.248	6680
1958.343	6694
1960.435	6556
1962.527	6709
1964.62	6682
1966.711	6528
1968.802	6638
1970.892	6582
1972.983	6630
1975.072	6601
1977.162	6596
1979.25	6585
1981.337	6652
1983.424	6606
1985.51	6519
1987.598	6638
1989.683	6504
1991.768	6614
1993.852	6633
1995.934	6552
1998.019	6598
2000.102	6486
2002.184	6496
2004.266	6541
2006.347	6441
2008.427	6488
2010.508	6544
2012.587	6581
2014.666	6428
2016.745	6533
2018.821	6455
2020.9	6314
2022.977	6478
2025.052	6505
2027.128	6613
2029.204	6552
2031.277	6528
2033.353	6503
2035.425	6595
2037.499	6443
2039.57	6590
2041.642	6508
2043.714	6500
2045.786	6456
2047.855	6462
2049.925	6436
2051.993	6402
2054.064	6447
2056.132	6455
2058.2	6505
2060.266	6491
2062.332	6524
2064.398	6567
2066.465	6645
2068.529	6585
2070.592	6502
2072.657	6634
2074.719	6516
2076.783	6559
2078.845	6649
2080.907	6618
2082.968	6484
2085.028	6628
2087.087	6536
2089.148	6494
2091.207	6547
2093.264	6562
2095.322	6525
2097.379	6477
2099.439	6659
2101.495	6520
2103.55	6533
2105.605	6404
2107.658	6399
2109.713	6539
2111.767	6411
2113.82	6628
2115.872	6536
2117.924	6634
2119.975	6528
2122.028	6519
2124.078	6531
2126.126	6440
2128.176	6479
2130.225	6437
2132.275	6565
2134.321	6530
2136.368	6503
2138.415	6611
2140.461	6555
2142.505	6508
2144.552	6425
2146.597	6356
2148.64	6379
2150.684	6436
2152.725	6564
2154.77	6400
2156.811	6463
2158.852	6494
2160.894	6470
2162.933	6529
2164.973	6450
2167.013	6493
2169.051	6531
2171.089	6429
2173.126	6365
2175.164	6366
2177.201	6282
2179.236	6406
2181.273	6373
2183.307	6392
2185.341	6415
2187.377	6364
2189.41	6344
2191.442	6254
2193.473	6341
2195.506	6394
2197.539	6479
2199.569	6430
2201.598	6361
2203.628	6300
2205.656	6278
2207.686	6325
2209.716	6311
2211.743	6309
2213.769	6345
2215.796	6298
2217.821	6282
2219.848	6336
2221.873	6267
2223.897	6355
2225.921	6281
2227.944	6273
2229.967	6274
2231.991	6296
2234.011	6318
2236.032	6259
2238.053	6256
2240.073	6303
2242.094	6282
2244.114	6275
2246.131	6332
2248.149	6331
2250.167	6299
2252.186	6275
2254.201	6380
2256.218	6268
2258.233	6353
2260.247	6325
2262.262	6353
2264.278	6376
2266.29	6391
2268.303	6342
2270.315	6191
2272.327	6181
2274.341	6264
2276.35	6315
2278.361	6322
2280.37	6311
2282.38	6319
2284.388	6315
2286.397	6233
2288.405	6250
2290.412	6320
2292.419	6246
2294.425	6232
2296.431	6282
2298.437	6269
2300.441	6274
2302.445	6267
2304.449	6238
2306.453	6271
2308.455	6268
2310.457	6165
2312.459	6224
2314.46	6360
2316.46	6277
2318.461	6378
2320.46	6276
2322.458	6258
2324.458	6238
2326.456	6295
2328.455	6081
2330.451	6155
2332.447	6129
2334.443	6286
2336.438	6203
2338.433	6137
2340.429	6115
2342.422	6213
2344.416	6258
2346.408	6144
2348.399	6120
2350.393	6257
2352.384	6180
2354.375	6057
2356.365	6157
2358.355	6049
2360.344	6153
2362.333	6169
2364.322	6105
2366.309	6185
2368.295	6225
2370.282	6129
2372.27	6116
2374.256	6151
2376.24	6058
2378.225	6085
2380.208	6061
2382.194	6169
2384.177	6163
2386.159	6054
2388.142	6029
2390.122	6123
2392.105	6134
2394.085	6010
2396.066	6046
2398.044	6036
2400.024	6013
2402.002	6040
2403.982	6033
2405.959	6125
2407.935	6112
2409.913	6017
2411.888	6042
2413.865	5916
2415.84	6048
2417.814	5968
2419.788	6073
2421.762	6053
2423.735	6098
2425.708	6058
2427.68	6041
2429.651	6094
2431.623	6024
2433.593	5964
2435.564	6104
2437.533	6048
2439.502	5887
2441.47	6031
2443.438	6095
2445.406	6036
2447.373	5974
2449.34	6015
2451.305	6016
2453.271	6004
2455.235	5944
2457.201	6020
2459.165	5959
2461.129	5941
2463.092	5970
2465.054	5939
2467.018	5930
2468.978	6060
2470.939	5930
2472.899	5924
2474.86	5981
2476.819	5947
2478.778	5976
2480.737	5937
2482.695	5869
2484.653	5964
2486.609	5928
2488.567	5944
2490.524	5973
2492.478	5949
2494.433	6031
2496.387	6075
2498.343	5970
2500.297	5894
2502.249	5886
2504.202	5829
2506.153	5973
2508.105	6008
2510.057	5953
2512.008	5883
2513.957	5891
2515.906	5892
2517.855	5850
2519.805	5857
2521.754	5948
2523.7	6032
2525.647	5889
2527.594	5937
2529.54	5825
2531.486	5852
2533.431	5813
2535.376	5860
2537.32	5849
2539.263	5927
2541.207	5894
2543.151	5878
2545.093	5829
2547.034	5998
2548.975	5909
2550.917	5789
2552.856	5955
2554.796	5959
2556.735	5947
2558.673	5873
2560.611	5910
2562.55	5840
2564.487	5877
2566.424	5777
2568.36	5879
2570.296	5921
2572.232	5878
2574.167	5936
2576.101	5807
2578.035	5834
2579.969	5890
2581.902	5916
2583.834	5772
2585.766	5986
2587.698	5774
2589.628	5913
2591.557	5824
2593.489	5933
2595.419	6019
2597.348	5779
2599.275	5830
2601.204	5846
2603.131	5820
2605.059	5899
2606.986	5857
2608.911	5839
2610.837	5804
2612.76	5820
2614.687	5862
2616.61	5929
2618.534	5844
2620.457	5912
2622.38	5837
2624.302	5945
2626.225	5843
2628.145	5803
2630.067	5883
2631.986	5919
2633.906	5882
2635.827	5855
2637.745	5917
2639.662	5787
2641.581	5832
2643.498	5832
2645.415	5860
2647.331	5813
2649.248	5822
2651.163	5795
2653.077	5840
2654.993	5809
2656.906	5780
2658.821	5875
2660.733	5912
2662.646	5841
2664.557	5734
2666.47	5886
2668.381	5822
2670.291	5703
2672.201	5816
2674.11	5895
2676.021	5752
2677.929	5875
2679.837	5855
2681.745	5732
2683.652	5893
2685.56	5785
2687.466	5770
2689.371	5747
2691.276	5810
2693.181	5893
2695.085	5731
2696.991	5750
2698.893	5759
2700.796	5678
2702.698	5792
2704.601	5813
2706.502	5668
2708.404	5631
2710.304	5626
2712.203	5696
2714.103	5679
2716.003	5803
2717.902	5737
2719.8	5667
2721.697	5700
2723.594	5640
2725.49	5683
2727.389	5714
2729.283	5729
2731.179	5660
2733.073	5642
2734.968	5736
2736.863	5701
2738.757	5797
2740.649	5756
2742.541	5622
2744.433	5730
2746.324	5699
2748.216	5714
2750.107	5708
2751.997	5728
2753.886	5689
2755.776	5658
2757.666	5766
2759.553	5709
2761.44	5604
2763.327	5678
2765.215	5707
2767.102	5587
2768.988	5583
2770.873	5691
2772.757	5582
2774.641	5678
2776.525	5590
2778.41	5631
2780.292	5571
2782.175	5615
2784.057	5678
2785.938	5674
2787.821	5730
2789.701	5639
2791.581	5604
2793.461	5597
2795.34	5555
2797.219	5748
2799.099	5653
2800.975	5519
2802.853	5644
2804.73	5622
2806.606	5520
2808.484	5628
2810.358	5485
2812.233	5596
2814.108	5591
2815.981	5599
2817.857	5586
2819.73	5502
2821.602	5542
2823.474	5536
2825.346	5511
2827.217	5580
2829.089	5563
2830.959	5433
2832.829	5534
2834.698	5503
2836.567	5569
2838.436	5536
2840.305	5530
2842.172	5454
2844.04	5591
2845.905	5429
2847.772	5527
2849.639	5555
2851.503	5508
2853.369	5639
2855.232	5557
2857.096	5483
2858.961	5408
2860.824	5451
2862.686	5603
2864.547	5624
2866.41	5468
2868.272	5516
2870.132	5646
2871.992	5597
2873.851	5545
2875.711	5581
2877.57	5631
2879.429	5632
2881.287	5635
2883.144	5633
2885.001	5792
2886.857	5666
2888.714	5587
2890.57	5622
2892.425	5735
2894.279	5621
2896.133	5694
2897.987	5581
2899.842	5620
2901.694	5747
2903.547	5619
2905.397	5732
2907.249	5618
2909.101	5656
2910.952	5667
2912.802	5664
2914.652	5595
2916.5	5632
2918.35	5764
2920.198	5703
2922.045	5772
2923.893	5875
2925.74	5830
2927.585	5783
2929.433	5823
2931.279	5826
2933.123	5846
2934.968	5975
2936.811	5904
2938.656	6035
2940.5	5928
2942.342	5961
2944.185	6099
2946.026	5987
2947.87	5840
2949.71	5936
2951.549	5946
2953.39	5836
2955.229	5919
2957.069	5901
2958.908	5713
2960.746	5872
2962.584	5818
2964.421	5748
2966.257	5716
2968.094	5597
2969.931	5645
2971.766	5611
2973.601	5609
2975.435	5602
2977.27	5576
2979.105	5579
2980.938	5537
2982.77	5544
2984.602	5548
2986.434	5541
2988.267	5635
2990.097	5453
2991.927	5513
2993.757	5605
2995.587	5549
2997.417	5481
2999.246	5546
3001.074	5372
3002.902	5305
3004.729	5375
3006.556	5395
3008.384	5392
3010.21	5320
3012.036	5311
3013.861	5380
3015.684	5256
3017.51	5228
3019.334	5330
3021.157	5303
3022.981	5236
3024.802	5250
3026.624	5239
3028.448	5237
3030.267	5269
3032.088	5199
3033.909	5201
3035.728	5217
3037.549	5098
3039.368	5166
3041.186	5253
3043.004	5201
3044.821	5110
3046.64	5127
3048.455	5242
3050.272	5121
3052.087	5134
3053.903	5209
3055.717	5261
3057.534	5174
3059.347	5092
3061.16	5142
3062.974	5026
3064.785	5187
3066.598	5039
3068.411	5209
3070.222	5077
3072.032	5131
3073.844	5039
3075.653	5079
3077.463	5030
3079.272	5107
3081.08	5208
3082.889	5079
3084.697	5083
3086.505	5019
3088.312	4962
3090.118	5037
3091.924	5026
3093.729	5059
3095.535	5050
3097.34	4983
3099.144	5033
3100.947	4902
3102.75	4978
3104.553	5017
3106.357	4966
3108.159	5025
3109.961	5024
3111.762	4894
3113.562	4885
3115.365	4892
3117.164	4955
3118.964	5035
3120.761	4873
3122.56	4958
3124.36	4877
3126.158	4869
3127.954	4867
3129.75	4911
3131.547	4881
3133.343	4899
3135.139	4880
3136.934	4944
3138.729	4861
3140.522	4908
3142.317	4872
3144.11	4806
3145.904	4837
3147.695	4811
3149.488	4877
3151.28	4894
3153.07	4834
3154.863	4872
3156.652	4804
3158.441	4901
3160.231	4810
3162.019	4789
3163.81	4786
3165.597	4797
3167.384	4793
3169.172	4822
3170.958	4768
3172.745	4830
3174.532	4747
3176.317	4794
3178.101	4840
3179.885	4825
3181.67	4776
3183.455	4797
3185.238	4805
3187.02	4812
3188.802	4811
3190.585	4814
3192.368	4855
3194.149	4692
3195.929	4708
3197.709	4724
3199.489	4737
3201.268	4733
3203.048	4756
3204.826	4755
3206.604	4683
3208.382	4816
3210.159	4739
3211.937	4617
3213.713	4721
3215.489	4735
3217.263	4695
3219.038	4698
3220.815	4645
3222.589	4759
3224.363	4703
3226.136	4753
3227.908	4708
3229.681	4729
3231.454	4605
3233.226	4669
3234.996	4659
3236.767	4703
3238.538	4683
3240.308	4683
3242.078	4716
3243.847	4618
3245.615	4724
3247.384	4758
3249.15	4588
3250.92	4711
3252.686	4702
3254.453	4770
3256.218	4686
3257.984	4627
3259.75	4692
3261.515	4700
3263.279	4706
3265.044	4661
3266.806	4625
3268.57	4612
3270.334	4688
3272.095	4701
3273.856	4624
3275.619	4711
3277.379	4621
3279.14	4534
3280.9	4629
3282.661	4527
3284.419	4656
3286.178	4587
3287.937	4664
3289.695	4638
3291.453	4638
3293.21	4712
3294.967	4659
3296.723	4614
3298.48	4606
3300.235	4681
3301.99	4724
3303.744	4664
3305.498	4744
3307.253	4715
3309.006	4628
3310.759	4544
3312.511	4673
3314.263	4649
3316.017	4614
3317.768	4630
3319.519	4539
3321.268	4655
3323.018	4699
3324.767	4534
3326.518	4600
3328.267	4601
3330.014	4601
3331.762	4690
3333.509	4557
3335.258	4693
3337.003	4561
3338.75	4573
3340.496	4637
3342.24	4580
3343.987	4604
3345.732	4631
3347.475	4581
3349.219	4504
3350.961	4491
3352.705	4568
3354.448	4613
3356.19	4580
3357.931	4573
3359.672	4505
3361.412	4522
3363.155	4510
3364.894	4542
3366.633	4495
3368.372	4526
3370.11	4476
3371.849	4517
3373.588	4521
3375.325	4531
3377.061	4496
3378.799	4466
3380.534	4553
3382.271	4490
3384.006	4512
3385.741	4432
3387.475	4495
3389.209	4490
3390.944	4403
3392.677	4508
3394.409	4391
3396.143	4466
3397.874	4421
3399.606	4505
3401.338	4431
3403.069	4555
3404.799	4449
3406.528	4404
3408.258	4346
3409.988	4458
3411.717	4381
3413.445	4397
3415.173	4407
3416.899	4456
3418.626	4437
3420.354	4406
3422.08	4411
3423.806	4481
3425.531	4410
3427.255	4415
3428.981	4301
3430.705	4264
3432.429	4378
3434.151	4259
3435.875	4369
3437.599	4341
3439.321	4468
3441.042	4320
3442.763	4397
3444.483	4317
3446.204	4366
3447.926	4334
3449.645	4284
3451.364	4287
3453.082	4264
3454.801	4357
3456.52	4311
3458.238	4327
3459.954	4309
3461.671	4341
3463.387	4325
3465.104	4243
3466.82	4246
3468.534	4232
3470.25	4333
3471.963	4243
3473.676	4339
3475.392	4188
3477.104	4363
3478.817	4275
3480.528	4254
3482.241	4317
3483.954	4212
3485.664	4207
3487.374	4207
3489.084	4151
3490.795	4267
3492.504	4187
3494.214	4232
3495.922	4142
3497.63	4218
3499.338	4120
3501.045	4194
3502.753	4212
3504.459	4174
3506.166	4181
3507.871	4175
3509.576	4157
3511.283	4168
3512.987	4067
3514.691	4147
3516.395	4117
3518.098	4200
3519.8	4123
3521.504	4134
3523.206	4168
3524.908	4077
3526.609	4053
3528.309	4108
3530.011	4111
3531.711	4095
3533.411	4058
3535.109	4166
3536.808	4180
3538.507	4087
3540.206	4078
3541.904	4138
3543.601	4124
3545.297	4010
3546.994	4118
3548.69	4143
3550.387	4178
3552.081	4106
3553.776	4011
3555.47	4029
3557.166	4074
3558.859	3989
3560.553	4089
3562.245	3995
3563.938	4088
3565.629	4063
3567.322	3983
3569.014	4008
3570.704	3983
3572.394	3955
3574.084	4108
3575.775	4101
3577.464	4051
3579.152	4073
3580.842	4064
3582.529	3999
3584.216	4013
3585.905	4046
3587.591	4029
3589.279	4033
3590.964	3991
3592.649	4086
3594.336	3939
3596.021	3924
3597.705	3956
3599.388	3966
3601.072	3946
3602.757	4001
3604.439	3900
3606.122	3963
3607.803	3980
3609.485	3890
3611.167	3876
3612.849	3939
3614.529	3939
3616.208	3882
3617.888	3904
3619.567	3936
3621.247	3909
3622.926	3862
3624.603	3815
3626.281	3866
3627.958	3927
3629.635	3886
3631.312	3832
3632.989	3897
3634.665	3844
3636.339	3813
3638.014	3747
3639.691	3855
3641.364	3799
3643.038	3802
3644.71	3850
3646.384	3871
3648.058	3754
3649.729	3826
3651.402	3759
3653.073	3683
3654.744	3803
3656.414	3779
3658.085	3745
3659.755	3814
3661.424	3828
3663.094	3764
3664.762	3745
3666.431	3770
3668.099	3838
3669.766	3714
3671.433	3807
3673.099	3739
3674.768	3805
3676.433	3744
3678.098	3774
3679.763	3824
3681.428	3752
3683.093	3755
3684.757	3682
3686.421	3753
3688.083	3750
3689.746	3734
3691.408	3648
3693.071	3755
3694.733	3800
3696.394	3731
3698.054	3766
3699.715	3780
3701.375	3713
3703.036	3696
3704.695	3696
3706.354	3713
3708.012	3800
3709.67	3744
3711.329	3745
3712.987	3709
3714.644	3714
3716.299	3710
3717.955	3646
3719.613	3697
3721.268	3712
3722.923	3679
3724.577	3701
3726.231	3690
3727.885	3626
3729.539	3643
3731.192	3725
3732.845	3670
3734.497	3634
3736.149	3613
3737.802	3608
3739.453	3621
3741.104	3616
3742.753	3712
3744.404	3625
3746.052	3678
3747.704	3628
3749.352	3675
3751	3629
3752.648	3584
3754.296	3617
3755.944	3581
3757.59	3571
3759.238	3632
3760.883	3632
3762.528	3595
3764.176	3598
3765.82	3559
3767.464	3591
3769.109	3600
3770.753	3540
3772.396	3598
3774.04	3584
3775.683	3626
3777.325	3583
3778.967	3517
3780.608	3551
3782.25	3528
3783.89	3441
3785.531	3562
3787.17	3544
3788.81	3583
3790.45	3565
3792.09	3550
3793.729	3523
3795.366	3525
3797.003	3491
3798.64	3519
3800.278	3572
3801.915	3472
3803.551	3487
3805.187	3500
3806.822	3527
3808.458	3510
3810.093	3521
3811.726	3422
3813.36	3456
3814.994	3468
3816.627	3540
3818.262	3459
3819.893	3430
3821.525	3431
3823.157	3522
3824.787	3430
3826.42	3466
3828.051	3417
3829.68	3361
3831.31	3359
3832.938	3444
3834.569	3425
3836.198	3519
3837.825	3440
3839.454	3405
3841.08	3427
3842.708	3434
3844.335	3451
3845.962	3391
3847.587	3390
3849.212	3376
3850.838	3468
3852.463	3465
3854.089	3412
3855.712	3328
3857.335	3341
3858.959	3445
3860.582	3362
3862.205	3388
3863.827	3341
3865.449	3395
3867.07	3388
3868.691	3355
3870.312	3425
3871.933	3336
3873.553	3379
3875.173	3384
3876.792	3371
3878.411	3398
3880.03	3344
3881.647	3407
3883.265	3300
3884.882	3377
3886.499	3384
3888.116	3380
3889.732	3309
3891.348	3398
3892.964	3349
3894.579	3290
3896.195	3292
3897.809	3335
3899.423	3316
3901.036	3407
3902.648	3291
3904.261	3376
3905.875	3312
3907.487	3350
3909.099	3283
3910.709	3300
3912.321	3293
3913.933	3295
3915.542	3316
3917.152	3303
3918.762	3325
3920.37	3283
3921.98	3270
3923.589	3265
3925.196	3347
3926.804	3329
3928.41	3339
3930.018	3273
3931.626	3345
3933.231	3222
3934.838	3253
3936.442	3226
3938.046	3326
3939.653	3348
3941.257	3206
3942.861	3259
3944.464	3252
3946.068	3341
3947.67	3266
3949.273	3233
3950.876	3234
3952.477	3244
3954.078	3236
3955.678	3209
3957.281	3264
3958.881	3232
3960.48	3247
3962.079	3234
3963.678	3250
3965.279	3212
3966.877	3206
3968.475	3227
3970.072	3209
3971.669	3143
3973.266	3245
3974.864	3209
3976.459	3147
3978.055	3177
3979.65	3178
3981.245	3121
3982.841	3211
3984.436	3268
3986.03	3130
3987.623	3154
3989.216	3210
3990.809	3123
3992.403	3104
3993.995	3158
3995.586	3194
3997.177	3188
3998.768	3094
4000.361	3045
4001.951	3133
4003.54	3144
4005.13	3168
4006.719	3207
4008.31	3098
4009.897	3088
4011.485	3032
4013.073	3140
4014.66	3129
4016.247	3088
4017.834	2976
4019.421	3073
4021.006	3075
4022.592	3157
4024.178	3063
4025.763	3068
4027.348	3056
4028.932	3021
4030.515	3038
4032.099	3038
4033.682	2956
4035.266	3028
4036.847	3069
4038.429	3040
4040.011	2976
4041.592	2998
4043.173	3019
4044.755	3079
4046.334	3008
4047.913	3040
4049.494	3012
4051.074	2999
4052.652	3016
4054.23	2988
4055.807	3032
4057.385	3010
4058.963	2985
4060.541	3017
4062.117	3025
4063.693	3020
4065.269	2957
4066.844	2937
4068.42	2894
4069.995	2935
4071.569	2991
4073.143	3005
4074.716	2960
4076.291	3002
4077.864	2991
4079.436	2958
4081.009	3003
4082.58	2999
4084.152	2999
4085.723	2966
4087.294	2953
4088.865	2947
4090.435	2951
4092.005	2982
4093.574	2901
4095.143	2973
4096.712	2933
4098.279	2923
4099.848	2894
4101.416	2934
4102.984	2909
4104.55	2945
4106.117	2915
4107.682	2902
4109.248	2904
4110.815	2877
4112.379	2844
4113.945	2879
4115.508	2912
4117.073	2985
4118.637	2922
4120.201	2965
4121.763	2863
4123.325	2928
4124.888	2945
4126.449	2828
4128.013	2890
4129.573	2851
4131.133	2865
4132.694	2859
4134.254	2813
4135.814	2907
4137.374	2776
4138.933	2802
4140.491	2856
4142.049	2809
4143.607	2800
4145.167	2798
4146.724	2797
4148.28	2785
4149.836	2855
4151.392	2821
4152.949	2841
4154.504	2809
4156.059	2812
4157.614	2709
4159.168	2835
4160.723	2746
4162.277	2847
4163.83	2779
4165.383	2793
4166.936	2742
4168.488	2815
4170.041	2780
4171.593	2730
4173.144	2814
4174.695	2750
4176.246	2818
4177.796	2686
4179.346	2731
4180.896	2765
4182.445	2738
4183.994	2777
4185.542	2775
4187.091	2729
4188.639	2753
4190.185	2805
4191.732	2786
4193.279	2728
4194.826	2745
4196.373	2686
4197.918	2714
4199.463	2718
4201.008	2672
4202.553	2718
4204.098	2711
4205.641	2726
4207.185	2716
4208.728	2688
4210.271	2635
4211.814	2718
4213.357	2697
4214.898	2683
4216.439	2695
4217.98	2726
4219.522	2669
4221.062	2624
4222.603	2700
4224.142	2678
4225.681	2651
4227.222	2721
4228.76	2708
4230.298	2642
4231.835	2696
4233.373	2723
4234.911	2650
4236.449	2722
4237.985	2671
4239.521	2617
4241.057	2686
4242.592	2696
4244.128	2654
4245.663	2657
4247.197	2688
4248.731	2619
4250.265	2677
4251.798	2556
4253.333	2620
4254.865	2671
4256.397	2611
4257.93	2597
4259.461	2644
4260.994	2674
4262.525	2671
4264.056	2585
4265.586	2674
4267.115	2650
4268.646	2634
4270.176	2589
4271.705	2560
4273.232	2599
4274.761	2658
4276.289	2625
4277.818	2641
4279.345	2625
4280.872	2630
4282.399	2545
4283.924	2587
4285.452	2638
4286.976	2601
4288.502	2593
4290.026	2617
4291.551	2563
4293.074	2641
4294.6	2609
4296.123	2629
4297.646	2547
4299.168	2558
4300.691	2497
4302.214	2563
4303.736	2558
4305.257	2510
4306.778	2575
4308.299	2560
4309.82	2499
4311.34	2515
4312.86	2571
4314.379	2554
