400.0745	5262
402.597	5100
405.1208	5218
407.6419	5223
410.1623	5269
412.6819	5263
415.201	5347
417.7172	5339
420.2369	5346
422.7538	5456
425.2701	5444
427.7856	5450
430.3005	5393
432.8147	5444
435.3282	5539
437.841	5457
440.3511	5460
442.8625	5539
445.3753	5425
447.8854	5560
450.3927	5570
452.9014	5509
455.4073	5642
457.9146	5543
460.4233	5606
462.9272	5507
465.4325	5544
467.935	5577
470.4389	5566
472.9421	5644
475.4446	5723
477.9444	5681
480.4456	5698
482.944	5792
485.4417	5790
487.9429	5791
490.4393	5707
492.935	5858
495.4321	5783
497.9264	5808
500.4221	5845
502.9171	5853
505.4094	5892
507.9011	5821
510.392	5841
512.8864	5852
515.3759	5901
517.8649	5956
520.3531	5782
522.8406	5849
525.3275	5904
527.8178	5815
530.3033	5918
532.7881	5981
535.2723	6007
537.7558	5878
540.2407	5922
542.7228	5833
545.2043	5914
547.6851	5888
550.1652	5873
552.6467	5974
555.1255	5934
557.6016	5974
560.079	5956
562.5557	5929
565.0318	5965
567.5092	6064
569.984	5975
572.456	6084
574.9294	6019
577.4022	6057
579.8762	6059
582.3456	6286
584.8163	5995
587.2863	6245
589.7557	6169
592.2224	6093
594.6924	6098
597.1578	6104
599.6245	6130
602.0905	6088
604.5538	6146
607.0206	6079
609.4825	6215
611.9459	6141
614.4066	6121
616.8686	6004
619.33	6196
621.7906	6153
624.2487	6180
626.708	6132
629.1647	6094
631.6207	6035
634.0801	6110
636.5348	6001
638.9888	6062
641.4442	6205
643.8969	6197
646.3509	6120
648.8022	6141
651.255	6207
653.705	6244
656.1544	6164
658.6031	6363
661.0532	6272
663.5026	6272
665.9493	6302
668.3954	6318
670.8409	6324
673.2877	6220
675.7318	6366
678.1752	6399
680.618	6464
683.0601	6341
685.5035	6304
687.9444	6365
690.3845	6306
692.824	6416
695.2628	6392
697.701	6497
700.1406	6492
702.5774	6434
705.0116	6518
707.4472	6484
709.8821	6444
712.3183	6459
714.7519	6503
717.1829	6519
719.6151	6503
722.0468	6395
724.4777	6549
726.908	6593
729.3377	6629
731.7667	6606
734.1931	6691
736.6208	6581
739.0498	6745
741.4742	6716
743.9	6698
746.3231	6749
748.7476	6630
751.1713	6796
753.5945	6788
756.015	6867
758.4368	6702
760.856	6884
763.2766	6794
765.6965	6792
768.1157	6910
770.5323	6879
772.9483	6884
775.3656	6904
777.7822	6810
780.1963	6883
782.6116	6969
785.0244	6827
787.4365	6856
789.8499	6967
792.2626	6871
794.6728	6811
797.0823	6976
799.4911	6743
801.8994	6884
804.3109	6837
806.7178	6913
809.124	6845
811.5297	6882
813.9347	6961
816.341	6869
818.7447	6862
821.1478	6989
823.5502	6813
825.952	6922
828.3531	7108
830.7556	6966
833.1554	7009
835.5546	7005
837.9532	7054
840.3511	6911
842.7504	6978
845.1451	7005
847.5411	7031
849.9365	7084
852.3312	7075
854.7272	7102
857.1187	6963
859.5115	7049
861.9037	7141
864.2952	6922
866.6842	6943
869.0764	7062
871.4661	7094
873.8531	7030
876.2415	7052
878.6272	7027
881.0162	6988
883.4026	6951
885.7866	6896
888.1717	6998
890.5543	7017
892.9382	6982
895.3215	6997
897.7041	7023
900.0842	7012
902.4655	6915
904.8443	7013
907.2244	7123
909.6039	7075
911.9808	6954
914.357	7203
916.7346	7171
919.1115	7181
921.4859	7157
923.8616	7185
926.2347	7329
928.6071	7217
930.979	7338
933.3541	7369
935.7247	7100
938.0946	7378
940.4639	7427
942.8326	7297
945.2026	7485
947.5701	7536
949.9369	7717
952.305	7775
954.6705	7879
957.0355	7998
959.4017	8168
961.7654	8089
964.1284	8109
966.4908	7948
968.8527	7774
971.2138	7725
973.5743	7470
975.9343	7311
978.2936	7386
980.6522	7258
983.0122	7399
985.3696	7183
987.7245	7414
990.0807	7209
992.4362	7235
994.7911	7345
997.1474	7283
999.4991	7329
1001.852	7251
1004.205	7371
1006.555	7248
1008.908	7387
1011.258	7329
1013.606	7297
1015.956	7464
1018.302	7296
1020.652	7300
1022.998	7306
1025.345	7331
1027.691	7270
1030.035	7426
1032.378	7377
1034.724	7209
1037.066	7343
1039.409	7329
1041.75	7444
1044.092	7410
1046.433	7348
1048.771	7339
1051.112	7300
1053.449	7347
1055.786	7316
1058.124	7479
1060.462	7514
1062.797	7456
1065.131	7439
1067.467	7530
1069.8	7433
1072.135	7450
1074.467	7353
1076.798	7430
1079.129	7403
1081.459	7441
1083.792	7391
1086.121	7446
1088.449	7522
1090.777	7457
1093.104	7308
1095.431	7370
1097.759	7411
1100.084	7516
1102.408	7440
1104.732	7460
1107.056	7443
1109.379	7428
1111.701	7501
1114.022	7491
1116.343	7438
1118.664	7455
1120.983	7460
1123.303	7509
1125.621	7621
1127.939	7582
1130.256	7479
1132.573	7522
1134.889	7606
1137.205	7572
1139.52	7541
1141.832	7518
1144.146	7442
1146.461	7583
1148.771	7472
1151.083	7464
1153.392	7519
1155.703	7548
1158.011	7471
1160.323	7481
1162.629	7490
1164.938	7543
1167.243	7428
1169.55	7665
1171.857	7434
1174.163	7513
1176.466	7513
1178.769	7504
1181.073	7485
1183.374	7511
1185.677	7451
1187.979	7557
1190.279	7437
1192.578	7475
1194.878	7450
1197.178	7563
1199.476	7402
1201.772	7591
1204.068	7558
1206.366	7563
1208.663	7602
1210.957	7476
1213.251	7469
1215.544	7494
1217.836	7588
1220.128	7501
1222.421	7424
1224.712	7562
1227.002	7468
1229.292	7540
1231.581	7699
1233.871	7630
1236.159	7661
1238.446	7667
1240.732	7635
1243.018	7892
1245.304	7644
1247.59	7751
1249.874	7802
1252.156	7623
1254.439	7654
1256.721	7635
1259.005	7791
1261.286	7728
1263.565	7759
1265.845	7641
1268.125	7678
1270.403	7621
1272.682	7690
1274.959	7716
1277.234	7685
1279.511	7630
1281.787	7616
1284.062	7682
1286.337	7696
1288.609	7652
1290.882	7682
1293.153	7574
1295.428	7666
1297.698	7592
1299.969	7600
1302.237	7640
1304.507	7569
1306.777	7705
1309.044	7679
1311.312	7690
1313.578	7651
1315.844	7600
1318.109	7692
1320.375	7679
1322.638	7598
1324.903	7726
1327.165	7678
1329.427	7878
1331.69	7681
1333.952	7749
1336.212	7620
1338.471	7731
1340.73	7617
1342.988	7689
1345.248	7553
1347.505	7632
1349.763	7713
1352.019	7740
1354.274	7795
1356.53	7688
1358.784	7682
1361.038	7727
1363.291	7593
1365.543	7619
1367.797	7674
1370.048	7661
1372.296	7732
1374.546	7680
1376.796	7727
1379.045	7574
1381.295	7578
1383.542	7649
1385.787	7662
1388.034	7706
1390.28	7729
1392.527	7801
1394.772	7747
1397.014	7758
1399.258	7685
1401.501	7764
1403.741	7766
1405.985	7672
1408.226	7785
1410.465	7788
1412.705	7749
1414.943	7807
1417.184	7795
1419.42	7840
1421.658	7829
1423.894	7810
1426.13	7763
1428.366	7913
1430.602	7903
1432.835	7870
1435.069	7921
1437.301	7821
1439.535	8091
1441.767	7884
1443.997	7806
1446.229	8068
1448.458	7890
1450.687	7826
1452.916	8005
1455.146	7917
1457.372	7836
1459.599	8003
1461.824	7845
1464.051	7874
1466.277	7804
1468.501	7986
1470.725	7853
1472.948	7838
1475.17	7769
1477.393	7776
1479.614	7723
1481.837	7732
1484.057	7799
1486.276	7786
1488.497	7675
1490.715	7620
1492.932	7711
1495.148	7745
1497.364	7689
1499.58	7692
1501.798	7699
1504.012	7643
1506.227	7672
1508.44	7675
1510.653	7819
1512.866	7651
1515.078	7700
1517.289	7669
1519.5	7700
1521.711	7726
1523.92	7588
1526.13	7556
1528.338	7574
1530.544	7702
1532.752	7717
1534.959	7675
1537.165	7704
1539.371	7803
1541.574	7666
1543.779	7748
1545.983	7744
1548.187	7637
1550.39	7681
1552.59	7736
1554.792	7792
1556.991	7730
1559.19	7712
1561.392	7804
1563.59	7803
1565.789	7675
1567.986	7843
1570.182	7783
1572.381	7765
1574.576	7689
1576.771	7909
1578.966	7939
1581.16	7826
1583.354	7890
1585.546	7918
1587.74	7862
1589.931	7869
1592.121	7865
1594.311	7952
1596.502	7900
1598.693	7926
1600.881	7872
1603.069	7903
1605.256	7923
1607.445	7849
1609.631	8024
1611.816	7782
1614.001	8019
1616.186	7816
1618.37	7917
1620.555	7907
1622.737	7895
1624.919	8055
1627.101	7875
1629.282	7839
1631.463	8038
1633.643	7928
1635.822	7919
1638.001	7881
1640.179	7978
1642.359	8070
1644.534	7953
1646.711	8056
1648.887	8018
1651.062	7952
1653.235	7892
1655.412	7792
1657.586	7895
1659.757	7911
1661.93	7875
1664.1	8049
1666.274	7997
1668.445	7987
1670.614	7964
1672.784	7878
1674.951	7977
1677.12	8089
1679.289	7936
1681.457	7968
1683.622	8057
1685.789	7909
1687.953	8016
1690.121	7966
1692.284	7898
1694.447	7970
1696.611	7865
1698.772	7833
1700.935	7786
1703.098	7885
1705.258	7761
1707.417	7846
1709.576	7970
1711.736	7773
1713.896	7919
1716.053	7996
1718.21	7966
1720.366	7811
1722.522	7803
1724.68	7895
1726.835	7887
1728.989	7797
1731.142	7778
1733.295	7710
1735.449	7968
1737.601	7831
1739.753	7748
1741.903	7868
1744.054	7925
1746.203	7788
1748.354	7779
1750.503	7766
1752.651	7878
1754.798	7923
1756.944	7798
1759.092	7902
1761.238	7945
1763.383	7906
1765.528	7781
1767.672	7816
1769.814	7934
1771.959	7861
1774.102	7857
1776.242	7991
1778.384	7880
1780.525	7963
1782.665	7793
1784.805	7875
1786.945	7944
1789.082	7722
1791.22	8053
1793.36	7962
1795.495	7980
1797.632	7901
1799.766	8001
1801.902	7985
1804.035	8002
1806.172	8104
1808.304	7966
1810.436	7914
1812.569	7836
1814.699	8015
1816.833	7952
1818.963	7975
1821.092	7978
1823.222	7849
1825.35	7939
1827.478	7951
1829.608	7948
1831.734	7910
1833.86	7856
1835.986	7827
1838.11	7841
1840.238	7774
1842.362	7862
1844.485	7828
1846.608	7861
1848.73	7880
1850.853	7903
1852.974	7814
1855.097	7737
1857.217	7869
1859.336	7867
1861.455	7791
1863.576	7810
1865.693	7653
1867.811	7860
1869.926	7920
1872.042	7753
1874.16	7742
1876.275	7878
1878.39	7799
1880.504	7909
1882.618	7842
1884.731	7865
1886.843	7881
1888.956	7808
1891.067	7893
1893.178	7905
1895.287	7852
1897.399	7888
1899.508	7950
1901.617	7781
1903.724	7774
1905.832	7853
1907.941	7841
1910.046	7870
1912.152	7824
1914.256	7931
1916.361	7844
1918.464	7835
1920.57	7904
1922.672	7820
1924.775	8018
1926.876	7906
1928.978	8073
1931.08	7974
1933.181	7830
1935.28	8067
1937.38	7850
1939.478	7948
1941.577	7856
1943.675	7857
1945.771	7934
1947.867	7925
1949.964	7965
1952.058	7919
1954.154	7857
1956.248	7832
1958.343	8009
1960.435	7826
1962.527	7862
1964.62	7746
1966.711	7899
1968.802	7875
1970.892	7744
1972.983	7750
1975.072	7959
1977.162	7910
1979.25	7839
1981.337	7885
1983.424	7935
1985.51	7842
1987.598	7883
1989.683	7849
1991.768	7882
1993.852	7786
1995.934	7843
1998.019	7765
2000.102	7786
2002.184	7871
2004.266	7780
2006.347	7855
2008.427	7870
2010.508	7732
2012.587	7810
2014.666	7913
2016.745	7893
2018.821	7816
2020.9	7697
2022.977	7804
2025.052	7902
2027.128	7714
2029.204	7856
2031.277	7730
2033.353	7703
2035.425	7852
2037.499	7794
2039.57	7831
2041.642	7820
2043.714	7785
2045.786	7975
2047.855	7885
2049.925	7732
2051.993	7791
2054.064	7818
2056.132	7754
2058.2	7767
2060.266	7783
2062.332	7782
2064.398	7860
2066.465	7761
2068.529	7826
2070.592	7777
2072.657	7884
2074.719	7750
2076.783	7805
2078.845	7713
2080.907	7906
2082.968	7816
2085.028	7740
2087.087	7741
2089.148	7697
2091.207	7783
2093.264	7840
2095.322	7858
2097.379	7756
2099.439	7630
2101.495	7792
2103.55	7855
2105.605	7754
2107.658	7900
2109.713	7738
2111.767	7603
2113.82	7739
2115.872	7652
2117.924	7838
2119.975	7662
2122.028	7773
2124.078	7709
2126.126	7767
2128.176	7751
2130.225	7777
2132.275	7780
2134.321	7644
2136.368	7808
2138.415	7758
2140.461	7657
2142.505	7734
2144.552	7666
2146.597	7735
2148.64	7704
2150.684	7713
2152.725	7952
2154.77	7732
2156.811	7646
2158.852	7725
2160.894	7737
2162.933	7685
2164.973	7725
2167.013	7659
2169.051	7635
2171.089	7570
2173.126	7509
2175.164	7744
2177.201	7763
2179.236	7627
2181.273	7646
2183.307	7745
2185.341	7688
2187.377	7613
2189.41	7647
2191.442	7556
2193.473	7545
2195.506	7645
2197.539	7671
2199.569	7510
2201.598	7456
2203.628	7627
2205.656	7501
2207.686	7629
2209.716	7508
2211.743	7502
2213.769	7535
2215.796	7531
2217.821	7473
2219.848	7581
2221.873	7510
2223.897	7624
2225.921	7417
2227.944	7519
2229.967	7490
2231.991	7322
2234.011	7687
2236.032	7537
2238.053	7535
2240.073	7476
2242.094	7471
2244.114	7612
2246.131	7501
2248.149	7505
2250.167	7517
2252.186	7536
2254.201	7400
2256.218	7494
2258.233	7505
2260.247	7482
2262.262	7376
2264.278	7480
2266.29	7333
2268.303	7455
2270.315	7533
2272.327	7508
2274.341	7506
2276.35	7575
2278.361	7489
2280.37	7532
2282.38	7467
2284.388	7573
2286.397	7513
2288.405	7598
2290.412	7349
2292.419	7495
2294.425	7425
2296.431	7357
2298.437	7367
2300.441	7423
2302.445	7507
2304.449	7277
2306.453	7520
2308.455	7455
2310.457	7424
2312.459	7417
2314.46	7498
2316.46	7328
2318.461	7476
2320.46	7374
2322.458	7445
2324.458	7437
2326.456	7501
2328.455	7415
2330.451	7360
2332.447	7181
2334.443	7382
2336.438	7254
2338.433	7457
2340.429	7380
2342.422	7291
2344.416	7235
2346.408	7344
2348.399	7257
2350.393	7229
2352.384	7290
2354.375	7390
2356.365	7187
2358.355	7293
2360.344	7311
2362.333	7309
2364.322	7289
2366.309	7214
2368.295	7195
2370.282	7264
2372.27	7195
2374.256	7310
2376.24	7250
2378.225	7101
2380.208	7256
2382.194	7283
2384.177	7222
2386.159	7127
2388.142	7190
2390.122	7034
2392.105	7207
2394.085	7117
2396.066	7198
2398.044	7316
2400.024	7122
2402.002	7078
2403.982	7227
2405.959	7158
2407.935	7079
2409.913	7215
2411.888	7183
2413.865	7163
2415.84	7191
2417.814	7143
2419.788	7097
2421.762	7205
2423.735	7051
2425.708	7146
2427.68	7114
2429.651	7028
2431.623	7186
2433.593	7175
2435.564	7146
2437.533	7228
2439.502	7156
2441.47	7132
2443.438	7170
2445.406	7126
2447.373	7090
2449.34	7232
2451.305	7263
2453.271	7124
2455.235	7159
2457.201	7080
2459.165	7193
2461.129	7056
2463.092	7113
2465.054	7048
2467.018	7023
2468.978	7224
2470.939	7053
2472.899	6998
2474.86	7090
2476.819	6961
2478.778	7076
2480.737	7103
2482.695	7028
2484.653	7104
2486.609	6980
2488.567	7070
2490.524	6987
2492.478	7004
2494.433	7101
2496.387	7042
2498.343	7061
2500.297	7050
2502.249	7019
2504.202	6976
2506.153	7025
2508.105	7023
2510.057	6915
2512.008	7076
2513.957	6997
2515.906	6921
2517.855	6971
2519.805	7027
2521.754	6986
2523.7	6887
2525.647	7020
2527.594	6960
2529.54	6880
2531.486	6871
2533.431	6902
2535.376	6863
2537.32	6867
2539.263	6891
2541.207	6942
2543.151	6951
2545.093	6889
2547.034	6961
2548.975	6964
2550.917	6901
2552.856	6896
2554.796	6952
2556.735	7020
2558.673	6870
2560.611	6941
2562.55	6896
2564.487	6970
2566.424	7033
2568.36	6921
2570.296	6894
2572.232	6798
2574.167	6906
2576.101	6963
2578.035	6930
2579.969	6873
2581.902	7017
2583.834	7020
2585.766	6890
2587.698	6889
2589.628	6838
2591.557	6882
2593.489	6917
2595.419	6917
2597.348	6872
2599.275	6877
2601.204	7012
2603.131	6902
2605.059	6908
2606.986	6916
2608.911	6977
2610.837	6863
2612.76	6841
2614.687	6867
2616.61	6884
2618.534	6983
2620.457	7025
2622.38	6943
2624.302	6930
2626.225	6953
2628.145	6801
2630.067	7006
2631.986	6921
2633.906	6876
2635.827	6874
2637.745	6863
2639.662	7018
2641.581	7009
2643.498	6758
2645.415	7026
2647.331	6926
2649.248	6885
2651.163	6995
2653.077	6911
2654.993	6934
2656.906	6859
2658.821	6944
2660.733	6845
2662.646	6899
2664.557	6882
2666.47	6820
2668.381	6856
2670.291	6882
2672.201	6859
2674.11	6929
2676.021	6893
2677.929	6789
2679.837	6758
2681.745	6627
2683.652	6833
2685.56	6816
2687.466	6740
2689.371	6818
2691.276	6809
2693.181	6742
2695.085	6704
2696.991	6705
2698.893	6753
2700.796	6787
2702.698	6788
2704.601	6712
2706.502	6788
2708.404	6666
2710.304	6748
2712.203	6765
2714.103	6612
2716.003	6722
2717.902	6737
2719.8	6685
2721.697	6773
2723.594	6620
2725.49	6693
2727.389	6709
2729.283	6622
2731.179	6674
2733.073	6621
2734.968	6792
2736.863	6721
2738.757	6729
2740.649	6676
2742.541	6667
2744.433	6681
2746.324	6694
2748.216	6661
2750.107	6658
2751.997	6747
2753.886	6605
2755.776	6649
2757.666	6665
2759.553	6494
2761.44	6674
2763.327	6654
2765.215	6609
2767.102	6674
2768.988	6678
2770.873	6591
2772.757	6662
2774.641	6657
2776.525	6629
2778.41	6589
2780.292	6485
2782.175	6593
2784.057	6526
2785.938	6510
2787.821	6555
2789.701	6576
2791.581	6555
2793.461	6667
2795.34	6520
2797.219	6705
2799.099	6590
2800.975	6525
2802.853	6477
2804.73	6546
2806.606	6574
2808.484	6512
2810.358	6419
2812.233	6634
2814.108	6582
2815.981	6593
2817.857	6575
2819.73	6520
2821.602	6521
2823.474	6494
2825.346	6527
2827.217	6500
2829.089	6451
2830.959	6442
2832.829	6441
2834.698	6407
2836.567	6480
2838.436	6546
2840.305	6504
2842.172	6490
2844.04	6407
2845.905	6470
2847.772	6319
2849.639	6490
2851.503	6522
2853.369	6512
2855.232	6586
2857.096	6558
2858.961	6632
2860.824	6584
2862.686	6552
2864.547	6558
2866.41	6394
2868.272	6543
2870.132	6625
2871.992	6595
2873.851	6449
2875.711	6636
2877.57	6597
2879.429	6634
2881.287	6616
2883.144	6650
2885.001	6707
2886.857	6729
2888.714	6641
2890.57	6609
2892.425	6670
2894.279	6636
2896.133	6727
2897.987	6607
2899.842	6617
2901.694	6634
2903.547	6644
2905.397	6664
2907.249	6576
2909.101	6725
2910.952	6618
2912.802	6614
2914.652	6669
2916.5	6581
2918.35	6663
2920.198	6707
2922.045	6668
2923.893	6692
2925.74	6688
2927.585	6782
2929.433	6833
2931.279	6844
2933.123	6808
2934.968	6795
2936.811	6929
2938.656	6979
2940.5	6937
2942.342	7010
2944.185	6901
2946.026	6992
2947.87	6998
2949.71	7026
2951.549	7025
2953.39	6883
2955.229	6913
2957.069	6703
2958.908	6836
2960.746	6726
2962.584	6808
2964.421	6731
2966.257	6820
2968.094	6684
2969.931	6735
2971.766	6725
2973.601	6592
2975.435	6597
2977.27	6443
2979.105	6598
2980.938	6569
2982.77	6535
2984.602	6571
2986.434	6549
2988.267	6587
2990.097	6334
2991.927	6469
2993.757	6461
2995.587	6388
2997.417	6347
2999.246	6444
3001.074	6287
3002.902	6257
3004.729	6359
3006.556	6220
3008.384	6214
3010.21	6212
3012.036	6216
3013.861	6228
3015.684	6206
3017.51	6150
3019.334	6187
3021.157	6123
3022.981	6071
3024.802	6192
3026.624	6101
3028.448	6056
3030.267	6193
3032.088	6094
3033.909	6130
3035.728	5928
3037.549	6053
3039.368	5982
3041.186	5969
3043.004	6048
3044.821	5964
3046.64	5865
3048.455	6136
3050.272	6019
3052.087	6046
3053.903	6109
3055.717	5932
3057.534	5986
3059.347	5978
3061.16	5992
3062.974	5918
3064.785	5940
3066.598	5910
3068.411	5995
3070.222	5952
3072.032	5986
3073.844	5928
3075.653	5982
3077.463	5809
3079.272	5950
3081.08	5784
3082.889	5801
3084.697	5899
3086.505	5835
3088.312	5797
3090.118	5819
3091.924	5833
3093.729	5898
3095.535	5854
3097.34	5770
3099.144	5848
3100.947	5775
3102.75	5804
3104.553	5875
3106.357	5843
3108.159	5704
3109.961	5771
3111.762	5796
3113.562	5807
3115.365	5807
3117.164	5820
3118.964	5746
3120.761	5704
3122.56	5788
3124.36	5614
3126.158	5736
3127.954	5754
3129.75	5602
3131.547	5690
3133.343	5686
3135.139	5706
3136.934	5738
3138.729	5652
3140.522	5665
3142.317	5694
3144.11	5728
3145.904	5623
3147.695	5738
3149.488	5588
3151.28	5624
3153.07	5649
3154.863	5607
3156.652	5658
3158.441	5540
3160.231	5652
3162.019	5613
3163.81	5491
3165.597	5684
3167.384	5539
3169.172	5567
3170.958	5525
3172.745	5562
3174.532	5554
3176.317	5489
3178.101	5599
3179.885	5467
3181.67	5540
3183.455	5568
3185.238	5572
3187.02	5482
3188.802	5513
3190.585	5543
3192.368	5534
3194.149	5550
3195.929	5527
3197.709	5456
3199.489	5493
3201.268	5454
3203.048	5459
3204.826	5574
3206.604	5588
3208.382	5436
3210.159	5495
3211.937	5420
3213.713	5505
3215.489	5480
3217.263	5423
3219.038	5519
3220.815	5437
3222.589	5390
3224.363	5435
3226.136	5431
3227.908	5434
3229.681	5416
3231.454	5487
3233.226	5417
3234.996	5432
3236.767	5517
3238.538	5360
3240.308	5299
3242.078	5388
3243.847	5430
3245.615	5338
3247.384	5407
3249.15	5408
3250.92	5428
3252.686	5388
3254.453	5439
3256.218	5422
3257.984	5235
3259.75	5353
3261.515	5308
3263.279	5312
3265.044	5395
3266.806	5432
3268.57	5351
3270.334	5331
3272.095	5343
3273.856	5429
3275.619	5371
3277.379	5419
3279.14	5322
3280.9	5360
3282.661	5244
3284.419	5383
3286.178	5389
3287.937	5273
3289.695	5318
3291.453	5382
3293.21	5441
3294.967	5381
3296.723	5306
3298.48	5352
3300.235	5311
3301.99	5296
3303.744	5201
3305.498	5449
3307.253	5358
3309.006	5393
3310.759	5256
3312.511	5403
3314.263	5394
3316.017	5258
3317.768	5250
3319.519	5333
3321.268	5311
3323.018	5301
3324.767	5286
3326.518	5361
3328.267	5233
3330.014	5392
3331.762	5266
3333.509	5330
3335.258	5254
3337.003	5241
3338.75	5349
3340.496	5193
3342.24	5276
3343.987	5266
3345.732	5261
3347.475	5217
3349.219	5220
3350.961	5196
3352.705	5273
3354.448	5295
3356.19	5203
3357.931	5081
3359.672	5093
3361.412	5278
3363.155	5233
3364.894	5225
3366.633	5065
3368.372	5153
3370.11	5184
3371.849	5173
3373.588	5223
3375.325	5179
3377.061	5168
3378.799	5052
3380.534	5116
3382.271	5107
3384.006	5163
3385.741	5208
3387.475	5195
3389.209	5250
3390.944	5053
3392.677	5132
3394.409	5122
3396.143	5171
3397.874	5155
3399.606	5100
3401.338	5108
3403.069	5143
3404.799	5141
3406.528	5073
3408.258	5054
3409.988	5148
3411.717	5104
3413.445	5055
3415.173	5091
3416.899	4973
3418.626	5085
3420.354	5040
3422.08	5040
3423.806	5096
3425.531	5150
3427.255	4987
3428.981	5022
3430.705	4993
3432.429	5028
3434.151	5066
3435.875	5020
3437.599	5024
3439.321	4986
3441.042	5060
3442.763	5066
3444.483	4945
3446.204	4909
3447.926	5011
3449.645	4980
3451.364	4939
3453.082	4894
3454.801	4968
3456.52	4928
3458.238	4957
3459.954	4884
3461.671	4913
3463.387	4933
3465.104	4955
3466.82	4787
3468.534	5042
3470.25	4915
3471.963	4924
3473.676	4885
3475.392	4825
3477.104	4865
3478.817	4813
3480.528	4848
3482.241	4852
3483.954	4891
3485.664	4898
3487.374	4826
3489.084	4824
3490.795	4748
3492.504	4881
3494.214	4781
3495.922	4748
3497.63	4835
3499.338	4830
3501.045	4813
3502.753	4766
3504.459	4813
3506.166	4696
3507.871	4781
3509.576	4766
3511.283	4762
3512.987	4672
3514.691	4746
3516.395	4744
3518.098	4753
3519.8	4782
3521.504	4666
3523.206	4748
3524.908	4774
3526.609	4727
3528.309	4771
3530.011	4685
3531.711	4837
3533.411	4714
3535.109	4659
3536.808	4693
3538.507	4645
3540.206	4683
3541.904	4646
3543.601	4639
3545.297	4701
3546.994	4648
3548.69	4761
3550.387	4770
3552.081	4714
3553.776	4792
3555.47	4634
3557.166	4614
3558.859	4658
3560.553	4647
3562.245	4598
3563.938	4637
3565.629	4589
3567.322	4562
3569.014	4579
3570.704	4601
3572.394	4476
3574.084	4518
3575.775	4587
3577.464	4511
3579.152	4537
3580.842	4541
3582.529	4532
3584.216	4578
3585.905	4536
3587.591	4551
3589.279	4599
3590.964	4469
3592.649	4641
3594.336	4522
3596.021	4560
3597.705	4462
3599.388	4482
3601.072	4569
3602.757	4550
3604.439	4560
3606.122	4452
3607.803	4565
3609.485	4395
3611.167	4497
3612.849	4472
3614.529	4469
3616.208	4583
3617.888	4440
3619.567	4397
3621.247	4506
3622.926	4498
3624.603	4413
3626.281	4402
3627.958	4401
3629.635	4411
3631.312	4430
3632.989	4375
3634.665	4376
3636.339	4383
3638.014	4374
3639.691	4420
3641.364	4313
3643.038	4371
3644.71	4407
3646.384	4427
3648.058	4341
3649.729	4277
3651.402	4377
3653.073	4389
3654.744	4305
3656.414	4369
3658.085	4305
3659.755	4252
3661.424	4349
3663.094	4342
3664.762	4298
3666.431	4265
3668.099	4285
3669.766	4249
3671.433	4255
3673.099	4297
3674.768	4293
3676.433	4267
3678.098	4236
3679.763	4197
3681.428	4185
3683.093	4216
3684.757	4209
3686.421	4215
3688.083	4221
3689.746	4263
3691.408	4248
3693.071	4244
3694.733	4195
3696.394	4228
3698.054	4286
3699.715	4304
3701.375	4250
3703.036	4179
3704.695	4134
3706.354	4244
3708.012	4237
3709.67	4197
3711.329	4215
3712.987	4217
3714.644	4233
3716.299	4133
3717.955	4272
3719.613	4190
3721.268	4198
3722.923	4104
3724.577	4104
3726.231	4243
3727.885	4091
3729.539	4100
3731.192	4109
3732.845	4190
3734.497	4110
3736.149	4248
3737.802	4115
3739.453	4145
3741.104	4202
3742.753	4096
3744.404	4092
3746.052	4166
3747.704	4174
3749.352	4121
3751	4077
3752.648	4076
3754.296	4109
3755.944	4131
3757.59	4067
3759.238	4061
3760.883	4093
3762.528	4050
3764.176	4109
3765.82	4110
3767.464	4147
3769.109	4096
3770.753	4083
3772.396	4091
3774.04	3925
3775.683	4076
3777.325	4120
3778.967	4111
3780.608	3992
3782.25	4108
3783.89	3972
3785.531	4048
3787.17	4020
3788.81	4061
3790.45	4068
3792.09	4036
3793.729	4022
3795.366	4014
3797.003	4003
3798.64	4063
3800.278	3973
3801.915	4041
3803.551	4017
3805.187	3866
3806.822	3954
3808.458	3908
3810.093	3943
3811.726	3860
3813.36	3918
3814.994	3961
3816.627	3874
3818.262	3999
3819.893	3943
3821.525	3943
3823.157	3925
3824.787	3941
3826.42	3917
3828.051	3916
3829.68	3882
3831.31	3851
3832.938	3943
3834.569	3861
3836.198	3903
3837.825	3898
3839.454	3856
3841.08	3905
3842.708	3881
3844.335	3834
3845.962	3869
3847.587	3873
3849.212	3836
3850.838	3913
3852.463	3856
3854.089	3738
3855.712	3885
3857.335	3782
3858.959	3865
3860.582	3812
3862.205	3793
3863.827	3865
3865.449	3788
3867.07	3744
3868.691	3779
3870.312	3775
3871.933	3898
3873.553	3819
3875.173	3722
3876.792	3771
3878.411	3839
3880.03	3797
3881.647	3756
3883.265	3772
3884.882	3776
3886.499	3667
3888.116	3750
3889.732	3808
3891.348	3827
3892.964	3773
3894.579	3779
3896.195	3721
3897.809	3781
3899.423	3681
3901.036	3810
3902.648	3758
3904.261	3754
3905.875	3735
3907.487	3784
3909.099	3743
3910.709	3826
3912.321	3727
3913.933	3793
3915.542	3712
3917.152	3728
3918.762	3696
3920.37	3709
3921.98	3741
3923.589	3721
3925.196	3636
3926.804	3750
3928.41	3662
3930.018	3690
3931.626	3721
3933.231	3701
3934.838	3777
3936.442	3709
3938.046	3727
3939.653	3751
3941.257	3658
3942.861	3694
3944.464	3649
3946.068	3787
3947.67	3611
3949.273	3643
3950.876	3652
3952.477	3744
3954.078	3632
3955.678	3629
3957.281	3546
3958.881	3641
3960.48	3755
3962.079	3579
3963.678	3676
3965.279	3557
3966.877	3579
3968.475	3623
3970.072	3615
3971.669	3612
3973.266	3546
3974.864	3553
3976.459	3604
3978.055	3540
3979.65	3636
3981.245	3601
3982.841	3561
3984.436	3553
3986.03	3556
3987.623	3575
3989.216	3579
3990.809	3599
3992.403	3571
3993.995	3636
3995.586	3532
3997.177	3490
3998.768	3416
4000.361	3549
4001.951	3501
4003.54	3489
4005.13	3463
4006.719	3538
4008.31	3553
4009.897	3561
4011.485	3518
4013.073	3360
4014.66	3545
4016.247	3468
4017.834	3439
4019.421	3397
4021.006	3513
4022.592	3500
4024.178	3467
4025.763	3440
4027.348	3401
4028.932	3459
4030.515	3400
4032.099	3347
4033.682	3415
4035.266	3391
4036.847	3409
4038.429	3525
4040.011	3305
4041.592	3417
4043.173	3380
4044.755	3335
4046.334	3355
4047.913	3357
4049.494	3382
4051.074	3390
4052.652	3308
4054.23	3383
4055.807	3328
4057.385	3398
4058.963	3330
4060.541	3401
4062.117	3432
4063.693	3352
4065.269	3300
4066.844	3353
4068.42	3374
4069.995	3370
4071.569	3333
4073.143	3308
4074.716	3260
4076.291	3298
4077.864	3275
4079.436	3383
4081.009	3375
4082.58	3342
4084.152	3298
4085.723	3316
4087.294	3368
4088.865	3378
4090.435	3372
4092.005	3336
4093.574	3243
4095.143	3296
4096.712	3280
4098.279	3320
4099.848	3257
4101.416	3295
4102.984	3272
4104.55	3320
4106.117	3254
4107.682	3237
4109.248	3280
4110.815	3265
4112.379	3244
4113.945	3171
4115.508	3259
4117.073	3210
4118.637	3283
4120.201	3282
4121.763	3205
4123.325	3230
4124.888	3233
4126.449	3252
4128.013	3229
4129.573	3227
4131.133	3233
4132.694	3195
4134.254	3182
4135.814	3170
4137.374	3138
4138.933	3118
4140.491	3108
4142.049	3066
4143.607	3173
4145.167	3166
4146.724	3201
4148.28	3191
4149.836	3154
4151.392	3170
4152.949	3121
4154.504	3147
4156.059	3174
4157.614	3193
4159.168	3129
4160.723	3073
4162.277	3073
4163.83	3042
4165.383	3100
4166.936	3070
4168.488	3118
4170.041	3162
4171.593	3127
4173.144	3064
4174.695	3074
4176.246	3108
4177.796	3161
4179.346	3034
4180.896	3089
4182.445	3107
4183.994	3055
4185.542	3060
4187.091	3056
4188.639	3070
4190.185	3016
4191.732	3014
4193.279	3036
4194.826	3079
4196.373	2987
4197.918	2982
4199.463	3053
4201.008	3081
4202.553	3097
4204.098	2990
4205.641	3003
4207.185	2969
4208.728	3019
4210.271	3079
4211.814	3007
4213.357	3012
4214.898	3000
4216.439	2919
4217.98	2946
4219.522	3021
4221.062	2972
4222.603	3046
4224.142	3054
4225.681	2959
4227.222	3073
4228.76	2955
4230.298	2982
4231.835	2907
4233.373	2945
4234.911	3014
4236.449	2962
4237.985	2969
4239.521	2938
4241.057	2977
4242.592	2897
4244.128	2970
4245.663	2940
4247.197	2894
4248.731	2913
4250.265	2986
4251.798	2974
4253.333	2910
4254.865	2951
4256.397	2947
4257.93	2884
4259.461	2888
4260.994	2926
4262.525	2841
4264.056	2879
4265.586	2898
4267.115	2917
4268.646	2921
4270.176	2916
4271.705	2854
4273.232	2886
4274.761	2880
4276.289	2882
4277.818	2891
4279.345	2842
4280.872	2945
4282.399	2875
4283.924	2904
4285.452	2919
4286.976	2867
4288.502	2843
4290.026	2910
4291.551	2889
4293.074	2789
4294.6	2810
4296.123	2877
4297.646	2853
4299.168	2851
4300.691	2882
4302.214	2782
4303.736	2876
4305.257	2795
4306.778	2853
4308.299	2776
4309.82	2776
4311.34	2784
4312.86	2824
4314.379	2801
