400.0745	4022
402.597	4083
405.1208	4151
407.6419	4128
410.1623	4155
412.6819	4052
415.201	4121
417.7172	4295
420.2369	4230
422.7538	4277
425.2701	4340
427.7856	4334
430.3005	4401
432.8147	4508
435.3282	4507
437.841	4399
440.3511	4444
442.8625	4462
445.3753	4479
447.8854	4440
450.3927	4398
452.9014	4490
455.4073	4303
457.9146	4495
460.4233	4358
462.9272	4300
465.4325	4371
467.935	4291
470.4389	4436
472.9421	4382
475.4446	4440
477.9444	4296
480.4456	4367
482.944	4341
485.4417	4496
487.9429	4424
490.4393	4460
492.935	4496
495.4321	4414
497.9264	4458
500.4221	4449
502.9171	4426
505.4094	4480
507.9011	4534
510.392	4513
512.8864	4510
515.3759	4422
517.8649	4535
520.3531	4466
522.8406	4507
525.3275	4523
527.8178	4537
530.3033	4569
532.7881	4518
535.2723	4503
537.7558	4593
540.2407	4525
542.7228	4573
545.2043	4536
547.6851	4612
550.1652	4592
552.6467	4483
555.1255	4478
557.6016	4570
560.079	4551
562.5557	4677
565.0318	4627
567.5092	4624
569.984	4623
572.456	4744
574.9294	4768
577.4022	4677
579.8762	4806
582.3456	4717
584.8163	4713
587.2863	4791
589.7557	4805
592.2224	4789
594.6924	4746
597.1578	4780
599.6245	4737
602.0905	4653
604.5538	4763
607.0206	4654
609.4825	4753
611.9459	4631
614.4066	4738
616.8686	4674
619.33	4614
621.7906	4674
624.2487	4654
626.708	4698
629.1647	4627
631.6207	4615
634.0801	4608
636.5348	4716
638.9888	4723
641.4442	4622
643.8969	4678
646.3509	4666
648.8022	4737
651.255	4659
653.705	4702
656.1544	4772
658.6031	4769
661.0532	4823
663.5026	4813
665.9493	4808
668.3954	4776
670.8409	4848
673.2877	4692
675.7318	4724
678.1752	4867
680.618	4731
683.0601	4713
685.5035	4917
687.9444	4873
690.3845	4891
692.824	4777
695.2628	4757
697.701	4911
700.1406	4838
702.5774	4831
705.0116	4815
707.4472	4890
709.8821	4827
712.3183	4902
714.7519	4889
717.1829	4858
719.6151	4968
722.0468	5010
724.4777	4978
726.908	4997
729.3377	4933
731.7667	4980
734.1931	5039
736.6208	5009
739.0498	5059
741.4742	5087
743.9	5040
746.3231	4971
748.7476	5051
751.1713	5100
753.5945	5185
756.015	5151
758.4368	5171
760.856	5107
763.2766	5191
765.6965	5203
768.1157	5193
770.5323	5133
772.9483	5257
775.3656	5181
777.7822	5148
780.1963	5246
782.6116	5190
785.0244	5242
787.4365	5248
789.8499	5174
792.2626	5261
794.6728	5129
797.0823	5234
799.4911	5209
801.8994	5198
804.3109	5262
806.7178	5228
809.124	5224
811.5297	5301
813.9347	5194
816.341	5281
818.7447	5209
821.1478	5219
823.5502	5301
825.952	5243
828.3531	5357
830.7556	5258
833.1554	5260
835.5546	5192
837.9532	5279
840.3511	5346
842.7504	5350
845.1451	5424
847.5411	5358
849.9365	5386
852.3312	5389
854.7272	5371
857.1187	5483
859.5115	5386
861.9037	5446
864.2952	5341
866.6842	5394
869.0764	5306
871.4661	5490
873.8531	5276
876.2415	5382
878.6272	5344
881.0162	5322
883.4026	5387
885.7866	5416
888.1717	5442
890.5543	5473
892.9382	5481
895.3215	5500
897.7041	5378
900.0842	5314
902.4655	5345
904.8443	5446
907.2244	5434
909.6039	5428
911.9808	5453
914.357	5467
916.7346	5497
919.1115	5523
921.4859	5560
923.8616	5683
926.2347	5731
928.6071	5807
930.979	5721
933.3541	5731
935.7247	5743
938.0946	5791
940.4639	5891
942.8326	5839
945.2026	5828
947.5701	5969
949.9369	6252
952.305	6396
954.6705	6661
957.0355	6899
959.4017	7177
961.7654	7232
964.1284	7382
966.4908	7078
968.8527	6777
971.2138	6434
973.5743	6182
975.9343	6057
978.2936	5834
980.6522	5776
983.0122	5552
985.3696	5645
987.7245	5522
990.0807	5633
992.4362	5513
994.7911	5547
997.1474	5590
999.4991	5555
1001.852	5642
1004.205	5612
1006.555	5619
1008.908	5726
1011.258	5636
1013.606	5615
1015.956	5597
1018.302	5681
1020.652	5638
1022.998	5635
1025.345	5563
1027.691	5690
1030.035	5674
1032.378	5714
1034.724	5673
1037.066	5721
1039.409	5722
1041.75	5653
1044.092	5776
1046.433	5686
1048.771	5747
1051.112	5663
1053.449	5737
1055.786	5717
1058.124	5696
1060.462	5747
1062.797	5700
1065.131	5861
1067.467	5822
1069.8	5916
1072.135	5829
1074.467	5859
1076.798	5938
1079.129	5922
1081.459	5830
1083.792	5795
1086.121	5799
1088.449	5693
1090.777	5738
1093.104	5622
1095.431	5705
1097.759	5621
1100.084	5674
1102.408	5635
1104.732	5708
1107.056	5673
1109.379	5681
1111.701	5808
1114.022	5670
1116.343	5734
1118.664	5715
1120.983	5694
1123.303	5713
1125.621	5662
1127.939	5748
1130.256	5693
1132.573	5745
1134.889	5725
1137.205	5755
1139.52	5697
1141.832	5628
1144.146	5720
1146.461	5688
1148.771	5683
1151.083	5664
1153.392	5717
1155.703	5644
1158.011	5632
1160.323	5803
1162.629	5754
1164.938	5636
1167.243	5679
1169.55	5740
1171.857	5698
1174.163	5726
1176.466	5762
1178.769	5588
1181.073	5767
1183.374	5767
1185.677	5582
1187.979	5685
1190.279	5612
1192.578	5654
1194.878	5678
1197.178	5573
1199.476	5506
1201.772	5681
1204.068	5607
1206.366	5771
1208.663	5782
1210.957	5735
1213.251	5658
1215.544	5712
1217.836	5650
1220.128	5720
1222.421	5690
1224.712	5811
1227.002	5806
1229.292	5829
1231.581	5762
1233.871	5863
1236.159	5835
1238.446	5913
1240.732	5908
1243.018	5913
1245.304	5975
1247.59	5959
1249.874	6044
1252.156	5999
1254.439	6018
1256.721	5943
1259.005	6001
1261.286	5915
1263.565	5956
1265.845	5956
1268.125	5916
1270.403	5972
1272.682	5956
1274.959	5937
1277.234	5899
1279.511	5943
1281.787	5950
1284.062	5819
1286.337	5899
1288.609	5878
1290.882	5833
1293.153	5928
1295.428	5873
1297.698	5849
1299.969	5894
1302.237	5851
1304.507	5818
1306.777	5834
1309.044	5820
1311.312	5773
1313.578	5832
1315.844	5835
1318.109	5699
1320.375	5724
1322.638	5775
1324.903	5879
1327.165	5844
1329.427	5860
1331.69	5874
1333.952	5912
1336.212	5762
1338.471	5897
1340.73	5884
1342.988	5830
1345.248	5933
1347.505	5769
1349.763	5833
1352.019	5819
1354.274	5732
1356.53	5762
1358.784	5779
1361.038	5788
1363.291	5731
1365.543	5764
1367.797	5749
1370.048	5941
1372.296	5831
1374.546	5829
1376.796	5914
1379.045	5837
1381.295	5910
1383.542	5823
1385.787	5792
1388.034	5812
1390.28	5956
1392.527	5892
1394.772	5968
1397.014	5789
1399.258	5889
1401.501	5972
1403.741	5998
1405.985	6110
1408.226	5948
1410.465	6006
1412.705	6072
1414.943	5913
1417.184	6048
1419.42	5896
1421.658	5907
1423.894	5962
1426.13	6056
1428.366	5845
1430.602	6193
1432.835	6072
1435.069	6117
1437.301	6123
1439.535	6116
1441.767	6141
1443.997	6153
1446.229	6086
1448.458	6216
1450.687	6180
1452.916	6261
1455.146	6266
1457.372	6228
1459.599	6254
1461.824	6120
1464.051	6114
1466.277	6103
1468.501	6125
1470.725	6026
1472.948	6021
1475.17	6044
1477.393	5962
1479.614	5917
1481.837	5885
1484.057	5844
1486.276	5788
1488.497	5883
1490.715	5808
1492.932	5826
1495.148	5801
1497.364	5796
1499.58	5932
1501.798	5853
1504.012	5737
1506.227	5798
1508.44	5837
1510.653	5733
1512.866	5732
1515.078	5872
1517.289	5736
1519.5	5707
1521.711	5762
1523.92	5756
1526.13	5750
1528.338	5788
1530.544	5694
1532.752	5905
1534.959	5741
1537.165	5850
1539.371	5784
1541.574	5735
1543.779	5708
1545.983	5767
1548.187	5792
1550.39	5738
1552.59	5886
1554.792	5936
1556.991	5835
1559.19	5860
1561.392	5846
1563.59	5901
1565.789	5863
1567.986	5960
1570.182	5848
1572.381	5821
1574.576	5877
1576.771	5856
1578.966	5915
1581.16	5932
1583.354	5987
1585.546	5855
1587.74	5952
1589.931	5886
1592.121	5907
1594.311	5959
1596.502	5966
1598.693	5955
1600.881	5950
1603.069	5898
1605.256	6028
1607.445	5951
1609.631	5856
1611.816	5931
1614.001	6015
1616.186	5984
1618.37	6042
1620.555	6088
1622.737	6039
1624.919	5944
1627.101	6033
1629.282	6057
1631.463	5997
1633.643	6061
1635.822	6127
1638.001	6033
1640.179	6044
1642.359	6119
1644.534	6133
1646.711	6075
1648.887	6039
1651.062	6046
1653.235	6129
1655.412	6065
1657.586	6218
1659.757	6103
1661.93	5986
1664.1	6126
1666.274	6142
1668.445	6165
1670.614	6195
1672.784	6167
1674.951	6064
1677.12	6181
1679.289	6137
1681.457	6022
1683.622	6085
1685.789	6089
1687.953	6229
1690.121	6114
1692.284	6019
1694.447	6143
1696.611	6130
1698.772	6061
1700.935	5972
1703.098	5943
1705.258	5953
1707.417	6032
1709.576	5863
1711.736	5783
1713.896	5991
1716.053	5877
1718.21	5876
1720.366	5954
1722.522	5822
1724.68	5944
1726.835	5904
1728.989	5871
1731.142	5918
1733.295	5951
1735.449	5981
1737.601	5871
1739.753	5879
1741.903	5933
1744.054	5840
1746.203	5873
1748.354	5879
1750.503	5923
1752.651	5922
1754.798	5897
1756.944	5862
1759.092	5939
1761.238	5959
1763.383	5937
1765.528	5962
1767.672	5914
1769.814	5951
1771.959	5925
1774.102	6080
1776.242	5980
1778.384	5927
1780.525	5889
1782.665	5939
1784.805	6014
1786.945	6046
1789.082	5818
1791.22	5914
1793.36	5893
1795.495	5996
1797.632	6025
1799.766	5919
1801.902	5918
1804.035	6015
1806.172	5875
1808.304	5981
1810.436	6036
1812.569	5893
1814.699	5975
1816.833	5898
1818.963	6111
1821.092	5942
1823.222	5906
1825.35	5946
1827.478	6014
1829.608	5834
1831.734	5952
1833.86	5781
1835.986	5887
1838.11	5916
1840.238	5923
1842.362	5938
1844.485	5824
1846.608	5885
1848.73	5888
1850.853	5848
1852.974	5940
1855.097	5939
1857.217	5873
1859.336	5875
1861.455	5916
1863.576	5928
1865.693	5814
1867.811	5900
1869.926	5999
1872.042	5861
1874.16	5970
1876.275	5874
1878.39	5809
1880.504	5844
1882.618	5902
1884.731	5903
1886.843	5948
1888.956	5882
1891.067	5942
1893.178	5879
1895.287	5975
1897.399	5883
1899.508	5915
1901.617	5855
1903.724	6006
1905.832	5942
1907.941	5953
1910.046	5886
1912.152	5980
1914.256	5933
1916.361	5854
1918.464	6012
1920.57	6003
1922.672	6020
1924.775	5928
1926.876	5906
1928.978	5947
1931.08	5925
1933.181	5907
1935.28	5986
1937.38	5990
1939.478	5865
1941.577	5960
1943.675	5955
1945.771	5938
1947.867	6070
1949.964	5966
1952.058	5997
1954.154	5989
1956.248	5969
1958.343	6005
1960.435	5983
1962.527	5957
1964.62	5966
1966.711	5894
1968.802	5960
1970.892	5849
1972.983	5946
1975.072	5945
1977.162	5887
1979.25	5827
1981.337	5916
1983.424	6017
1985.51	5894
1987.598	6044
1989.683	5939
1991.768	5925
1993.852	5913
1995.934	5916
1998.019	5793
2000.102	5882
2002.184	5971
2004.266	5920
2006.347	5796
2008.427	5874
2010.508	6007
2012.587	5929
2014.666	5931
2016.745	5901
2018.821	5839
2020.9	5905
2022.977	6001
2025.052	5828
2027.128	5923
2029.204	5926
2031.277	5872
2033.353	5892
2035.425	5901
2037.499	5853
2039.57	5784
2041.642	5976
2043.714	5962
2045.786	5866
2047.855	5914
2049.925	5958
2051.993	5851
2054.064	5823
2056.132	5913
2058.2	5944
2060.266	5897
2062.332	5870
2064.398	5871
2066.465	6017
2068.529	5903
2070.592	5878
2072.657	5975
2074.719	5943
2076.783	5943
2078.845	5909
2080.907	5864
2082.968	5798
2085.028	5893
2087.087	5916
2089.148	5937
2091.207	5895
2093.264	5841
2095.322	5915
2097.379	5859
2099.439	5802
2101.495	5917
2103.55	5843
2105.605	5855
2107.658	5939
2109.713	6002
2111.767	5912
2113.82	5970
2115.872	5880
2117.924	5885
2119.975	5878
2122.028	5918
2124.078	5975
2126.126	5952
2128.176	5926
2130.225	5898
2132.275	5729
2134.321	5969
2136.368	5933
2138.415	5857
2140.461	5827
2142.505	5868
2144.552	5730
2146.597	5800
2148.64	5853
2150.684	5830
2152.725	5842
2154.77	5796
2156.811	5822
2158.852	5909
2160.894	5868
2162.933	5855
2164.973	5842
2167.013	5833
2169.051	5892
2171.089	5892
2173.126	5787
2175.164	5791
2177.201	5917
2179.236	5742
2181.273	5810
2183.307	5726
2185.341	5675
2187.377	5766
2189.41	5833
2191.442	5717
2193.473	5846
2195.506	5727
2197.539	5873
2199.569	5648
2201.598	5691
2203.628	5777
2205.656	5758
2207.686	5726
2209.716	5746
2211.743	5620
2213.769	5686
2215.796	5644
2217.821	5718
2219.848	5789
2221.873	5681
2223.897	5760
2225.921	5716
2227.944	5754
2229.967	5685
2231.991	5654
2234.011	5715
2236.032	5769
2238.053	5658
2240.073	5674
2242.094	5675
2244.114	5674
2246.131	5785
2248.149	5702
2250.167	5724
2252.186	5690
2254.201	5682
2256.218	5679
2258.233	5716
2260.247	5704
2262.262	5704
2264.278	5674
2266.29	5701
2268.303	5703
2270.315	5758
2272.327	5831
2274.341	5767
2276.35	5744
2278.361	5697
2280.37	5722
2282.38	5646
2284.388	5611
2286.397	5620
2288.405	5792
2290.412	5655
2292.419	5740
2294.425	5661
2296.431	5806
2298.437	5664
2300.441	5688
2302.445	5666
2304.449	5789
2306.453	5643
2308.455	5693
2310.457	5669
2312.459	5742
2314.46	5634
2316.46	5628
2318.461	5647
2320.46	5606
2322.458	5670
2324.458	5607
2326.456	5654
2328.455	5645
2330.451	5659
2332.447	5700
2334.443	5638
2336.438	5606
2338.433	5608
2340.429	5620
2342.422	5647
2344.416	5683
2346.408	5696
2348.399	5547
2350.393	5621
2352.384	5627
2354.375	5730
2356.365	5484
2358.355	5547
2360.344	5716
2362.333	5554
2364.322	5728
2366.309	5663
2368.295	5482
2370.282	5586
2372.27	5530
2374.256	5499
2376.24	5594
2378.225	5554
2380.208	5557
2382.194	5605
2384.177	5545
2386.159	5564
2388.142	5613
2390.122	5582
2392.105	5471
2394.085	5491
2396.066	5463
2398.044	5526
2400.024	5567
2402.002	5450
2403.982	5455
2405.959	5515
2407.935	5517
2409.913	5464
2411.888	5465
2413.865	5369
2415.84	5471
2417.814	5412
2419.788	5514
2421.762	5425
2423.735	5433
2425.708	5510
2427.68	5492
2429.651	5409
2431.623	5454
2433.593	5507
2435.564	5476
2437.533	5535
2439.502	5616
2441.47	5335
2443.438	5553
2445.406	5468
2447.373	5438
2449.34	5501
2451.305	5438
2453.271	5530
2455.235	5367
2457.201	5535
2459.165	5384
2461.129	5453
2463.092	5326
2465.054	5349
2467.018	5499
2468.978	5479
2470.939	5450
2472.899	5347
2474.86	5493
2476.819	5365
2478.778	5516
2480.737	5463
2482.695	5294
2484.653	5402
2486.609	5386
2488.567	5408
2490.524	5422
2492.478	5391
2494.433	5431
2496.387	5347
2498.343	5317
2500.297	5405
2502.249	5403
2504.202	5389
2506.153	5393
2508.105	5415
2510.057	5352
2512.008	5392
2513.957	5408
2515.906	5390
2517.855	5531
2519.805	5323
2521.754	5459
2523.7	5381
2525.647	5384
2527.594	5389
2529.54	5384
2531.486	5368
2533.431	5468
2535.376	5333
2537.32	5358
2539.263	5317
2541.207	5368
2543.151	5403
2545.093	5252
2547.034	5372
2548.975	5367
2550.917	5393
2552.856	5381
2554.796	5404
2556.735	5364
2558.673	5380
2560.611	5259
2562.55	5266
2564.487	5380
2566.424	5375
2568.36	5329
2570.296	5412
2572.232	5370
2574.167	5337
2576.101	5354
2578.035	5302
2579.969	5310
2581.902	5331
2583.834	5412
2585.766	5338
2587.698	5198
2589.628	5304
2591.557	5338
2593.489	5425
2595.419	5317
2597.348	5295
2599.275	5445
2601.204	5427
2603.131	5329
2605.059	5351
2606.986	5340
2608.911	5275
2610.837	5293
2612.76	5264
2614.687	5395
2616.61	5309
2618.534	5320
2620.457	5424
2622.38	5418
2624.302	5433
2626.225	5389
2628.145	5403
2630.067	5354
2631.986	5448
2633.906	5432
2635.827	5357
2637.745	5334
2639.662	5270
2641.581	5208
2643.498	5370
2645.415	5416
2647.331	5411
2649.248	5289
2651.163	5325
2653.077	5426
2654.993	5401
2656.906	5234
2658.821	5397
2660.733	5290
2662.646	5365
2664.557	5317
2666.47	5395
2668.381	5353
2670.291	5328
2672.201	5310
2674.11	5334
2676.021	5301
2677.929	5418
2679.837	5295
2681.745	5352
2683.652	5299
2685.56	5290
2687.466	5381
2689.371	5307
2691.276	5349
2693.181	5285
2695.085	5321
2696.991	5319
2698.893	5329
2700.796	5228
2702.698	5201
2704.601	5284
2706.502	5303
2708.404	5175
2710.304	5403
2712.203	5203
2714.103	5296
2716.003	5355
2717.902	5299
2719.8	5127
2721.697	5194
2723.594	5143
2725.49	5317
2727.389	5217
2729.283	5262
2731.179	5207
2733.073	5189
2734.968	5194
2736.863	5243
2738.757	5201
2740.649	5218
2742.541	5331
2744.433	5294
2746.324	5220
2748.216	5225
2750.107	5222
2751.997	5265
2753.886	5161
2755.776	5229
2757.666	5214
2759.553	5225
2761.44	5193
2763.327	5169
2765.215	5233
2767.102	5149
2768.988	5117
2770.873	5185
2772.757	5213
2774.641	5176
2776.525	5209
2778.41	5249
2780.292	5165
2782.175	5139
2784.057	5291
2785.938	5175
2787.821	5149
2789.701	5197
2791.581	5118
2793.461	5177
2795.34	5115
2797.219	5270
2799.099	5092
2800.975	5214
2802.853	5181
2804.73	5115
2806.606	5153
2808.484	5263
2810.358	5110
2812.233	5153
2814.108	5141
2815.981	5121
2817.857	5163
2819.73	5174
2821.602	5202
2823.474	5062
2825.346	5076
2827.217	5116
2829.089	5153
2830.959	5202
2832.829	5152
2834.698	5100
2836.567	5256
2838.436	5036
2840.305	5188
2842.172	5098
2844.04	5235
2845.905	5244
2847.772	5231
2849.639	5202
2851.503	5253
2853.369	5328
2855.232	5246
2857.096	5280
2858.961	5315
2860.824	5347
2862.686	5326
2864.547	5418
2866.41	5451
2868.272	5397
2870.132	5509
2871.992	5510
2873.851	5637
2875.711	5535
2877.57	5616
2879.429	5548
2881.287	5753
2883.144	5781
2885.001	5723
2886.857	5830
2888.714	5719
2890.57	5833
2892.425	5900
2894.279	5796
2896.133	5740
2897.987	5772
2899.842	5731
2901.694	5655
2903.547	5755
2905.397	5692
2907.249	5670
2909.101	5779
2910.952	5732
2912.802	5825
2914.652	5925
2916.5	5979
2918.35	5888
2920.198	5882
2922.045	5993
2923.893	6120
2925.74	6153
2927.585	6207
2929.433	6256
2931.279	6183
2933.123	6389
2934.968	6421
2936.811	6439
2938.656	6604
2940.5	6615
2942.342	6734
2944.185	6699
2946.026	6648
2947.87	6675
2949.71	6779
2951.549	6620
2953.39	6571
2955.229	6421
2957.069	6490
2958.908	6455
2960.746	6460
2962.584	6264
2964.421	6259
2966.257	6227
2968.094	6144
2969.931	6039
2971.766	6066
2973.601	5948
2975.435	5955
2977.27	6002
2979.105	5868
2980.938	5916
2982.77	5854
2984.602	5896
2986.434	5880
2988.267	5774
2990.097	5740
2991.927	5728
2993.757	5678
2995.587	5696
2997.417	5523
2999.246	5554
3001.074	5461
3002.902	5408
3004.729	5385
3006.556	5268
3008.384	5354
3010.21	5217
3012.036	5151
3013.861	5196
3015.684	5153
3017.51	5095
3019.334	5034
3021.157	5142
3022.981	4901
3024.802	4945
3026.624	4970
3028.448	4877
3030.267	4938
3032.088	4985
3033.909	4889
3035.728	4948
3037.549	4878
3039.368	4845
3041.186	4900
3043.004	4890
3044.821	4933
3046.64	4948
3048.455	4768
3050.272	4840
3052.087	4854
3053.903	4835
3055.717	4811
3057.534	4864
3059.347	4841
3061.16	4827
3062.974	4829
3064.785	4849
3066.598	4780
3068.411	4794
3070.222	4862
3072.032	4867
3073.844	4853
3075.653	4714
3077.463	4703
3079.272	4741
3081.08	4789
3082.889	4745
3084.697	4594
3086.505	4728
3088.312	4772
3090.118	4735
3091.924	4701
3093.729	4744
3095.535	4689
3097.34	4694
3099.144	4687
3100.947	4657
3102.75	4539
3104.553	4715
3106.357	4785
3108.159	4618
3109.961	4683
3111.762	4691
3113.562	4584
3115.365	4669
3117.164	4605
3118.964	4643
3120.761	4608
3122.56	4655
3124.36	4600
3126.158	4505
3127.954	4670
3129.75	4587
3131.547	4601
3133.343	4552
3135.139	4583
3136.934	4602
3138.729	4679
3140.522	4575
3142.317	4544
3144.11	4611
3145.904	4585
3147.695	4515
3149.488	4609
3151.28	4635
3153.07	4386
3154.863	4495
3156.652	4534
3158.441	4544
3160.231	4576
3162.019	4533
3163.81	4462
3165.597	4512
3167.384	4495
3169.172	4513
3170.958	4583
3172.745	4550
3174.532	4519
3176.317	4653
3178.101	4553
3179.885	4476
3181.67	4458
3183.455	4481
3185.238	4508
3187.02	4482
3188.802	4512
3190.585	4415
3192.368	4483
3194.149	4578
3195.929	4453
3197.709	4491
3199.489	4542
3201.268	4530
3203.048	4527
3204.826	4502
3206.604	4527
3208.382	4583
3210.159	4518
3211.937	4473
3213.713	4549
3215.489	4552
3217.263	4512
3219.038	4426
3220.815	4531
3222.589	4503
3224.363	4502
3226.136	4451
3227.908	4489
3229.681	4434
3231.454	4533
3233.226	4495
3234.996	4445
3236.767	4506
3238.538	4386
3240.308	4417
3242.078	4530
3243.847	4485
3245.615	4540
3247.384	4469
3249.15	4558
3250.92	4395
3252.686	4461
3254.453	4441
3256.218	4442
3257.984	4479
3259.75	4524
3261.515	4485
3263.279	4488
3265.044	4457
3266.806	4552
3268.57	4579
3270.334	4524
3272.095	4364
3273.856	4477
3275.619	4380
3277.379	4403
3279.14	4503
3280.9	4480
3282.661	4528
3284.419	4538
3286.178	4453
3287.937	4520
3289.695	4421
3291.453	4490
3293.21	4486
3294.967	4528
3296.723	4492
3298.48	4568
3300.235	4451
3301.99	4499
3303.744	4489
3305.498	4485
3307.253	4478
3309.006	4551
3310.759	4532
3312.511	4445
3314.263	4530
3316.017	4553
3317.768	4503
3319.519	4358
3321.268	4477
3323.018	4435
3324.767	4516
3326.518	4470
3328.267	4394
3330.014	4405
3331.762	4441
3333.509	4428
3335.258	4490
3337.003	4464
3338.75	4401
3340.496	4514
3342.24	4450
3343.987	4440
3345.732	4402
3347.475	4470
3349.219	4561
3350.961	4470
3352.705	4406
3354.448	4449
3356.19	4429
3357.931	4440
3359.672	4377
3361.412	4424
3363.155	4316
3364.894	4419
3366.633	4414
3368.372	4400
3370.11	4371
3371.849	4354
3373.588	4274
3375.325	4396
3377.061	4356
3378.799	4322
3380.534	4351
3382.271	4424
3384.006	4383
3385.741	4384
3387.475	4363
3389.209	4330
3390.944	4375
3392.677	4298
3394.409	4195
3396.143	4237
3397.874	4291
3399.606	4322
3401.338	4264
3403.069	4322
3404.799	4300
3406.528	4334
3408.258	4229
3409.988	4292
3411.717	4281
3413.445	4229
3415.173	4251
3416.899	4282
3418.626	4298
3420.354	4191
3422.08	4245
3423.806	4246
3425.531	4245
3427.255	4344
3428.981	4231
3430.705	4321
3432.429	4242
3434.151	4296
3435.875	4255
3437.599	4156
3439.321	4208
3441.042	4193
3442.763	4162
3444.483	4105
3446.204	4203
3447.926	4232
3449.645	4195
3451.364	4121
3453.082	4187
3454.801	4118
3456.52	4153
3458.238	4196
3459.954	4181
3461.671	4129
3463.387	4135
3465.104	4023
3466.82	4057
3468.534	4080
3470.25	4070
3471.963	4089
3473.676	4091
3475.392	4094
3477.104	4097
3478.817	4052
3480.528	4011
3482.241	4093
3483.954	4032
3485.664	4023
3487.374	3993
3489.084	4126
3490.795	4044
3492.504	4017
3494.214	4052
3495.922	3947
3497.63	4033
3499.338	3949
3501.045	4015
3502.753	3973
3504.459	4034
3506.166	4012
3507.871	4104
3509.576	3945
3511.283	3951
3512.987	3892
3514.691	3923
3516.395	3950
3518.098	4027
3519.8	3964
3521.504	3917
3523.206	3915
3524.908	3953
3526.609	3901
3528.309	3882
3530.011	4002
3531.711	3829
3533.411	3907
3535.109	3896
3536.808	3883
3538.507	3941
3540.206	3933
3541.904	3816
3543.601	3856
3545.297	3914
3546.994	3828
3548.69	3980
3550.387	3829
3552.081	3865
3553.776	3775
3555.47	3826
3557.166	3826
3558.859	3868
3560.553	3789
3562.245	3871
3563.938	3777
3565.629	3946
3567.322	3760
3569.014	3803
3570.704	3801
3572.394	3799
3574.084	3863
3575.775	3753
3577.464	3762
3579.152	3823
3580.842	3733
3582.529	3825
3584.216	3702
3585.905	3790
3587.591	3820
3589.279	3763
3590.964	3843
3592.649	3650
3594.336	3686
3596.021	3780
3597.705	3840
3599.388	3747
3601.072	3663
3602.757	3706
3604.439	3696
3606.122	3629
3607.803	3730
3609.485	3650
3611.167	3670
3612.849	3696
3614.529	3568
3616.208	3638
3617.888	3668
3619.567	3648
3621.247	3634
3622.926	3693
3624.603	3575
3626.281	3520
3627.958	3564
3629.635	3657
3631.312	3626
3632.989	3494
3634.665	3550
3636.339	3506
3638.014	3532
3639.691	3571
3641.364	3607
3643.038	3476
3644.71	3418
3646.384	3557
3648.058	3525
3649.729	3513
3651.402	3464
3653.073	3539
3654.744	3447
3656.414	3471
3658.085	3516
3659.755	3444
3661.424	3414
3663.094	3497
3664.762	3459
3666.431	3469
3668.099	3501
3669.766	3496
3671.433	3499
3673.099	3412
3674.768	3432
3676.433	3426
3678.098	3450
3679.763	3445
3681.428	3521
3683.093	3470
3684.757	3469
3686.421	3450
3688.083	3447
3689.746	3447
3691.408	3498
3693.071	3386
3694.733	3446
3696.394	3422
3698.054	3378
3699.715	3433
3701.375	3435
3703.036	3465
3704.695	3301
3706.354	3409
3708.012	3383
3709.67	3379
3711.329	3418
3712.987	3473
3714.644	3433
3716.299	3341
3717.955	3424
3719.613	3364
3721.268	3444
3722.923	3412
3724.577	3387
3726.231	3372
3727.885	3368
3729.539	3340
3731.192	3366
3732.845	3362
3734.497	3359
3736.149	3352
3737.802	3327
3739.453	3313
3741.104	3414
3742.753	3245
3744.404	3377
3746.052	3324
3747.704	3324
3749.352	3314
3751	3396
3752.648	3377
3754.296	3314
3755.944	3320
3757.59	3330
3759.238	3268
3760.883	3339
3762.528	3254
3764.176	3211
3765.82	3274
3767.464	3254
3769.109	3251
3770.753	3253
3772.396	3278
3774.04	3236
3775.683	3230
3777.325	3190
3778.967	3253
3780.608	3278
3782.25	3278
3783.89	3233
3785.531	3196
3787.17	3287
3788.81	3358
3790.45	3217
3792.09	3219
3793.729	3251
3795.366	3259
3797.003	3272
3798.64	3281
3800.278	3216
3801.915	3177
3803.551	3188
3805.187	3223
3806.822	3236
3808.458	3197
3810.093	3277
3811.726	3154
3813.36	3169
3814.994	3205
3816.627	3200
3818.262	3075
3819.893	3197
3821.525	3273
3823.157	3126
3824.787	3192
3826.42	3131
3828.051	3179
3829.68	3127
3831.31	3204
3832.938	3259
3834.569	3150
3836.198	3171
3837.825	3178
3839.454	3213
3841.08	3212
3842.708	3063
3844.335	3129
3845.962	3185
3847.587	3078
3849.212	3021
3850.838	3180
3852.463	3072
3854.089	3172
3855.712	3107
3857.335	3103
3858.959	3204
3860.582	3089
3862.205	3140
3863.827	3107
3865.449	3069
3867.07	3134
3868.691	3135
3870.312	3167
3871.933	3046
3873.553	3098
3875.173	3090
3876.792	3034
3878.411	3008
3880.03	3095
3881.647	3055
3883.265	3072
3884.882	3068
3886.499	3070
3888.116	3046
3889.732	3116
3891.348	3006
3892.964	3059
3894.579	2994
3896.195	3103
3897.809	3088
3899.423	2961
3901.036	3059
3902.648	3079
3904.261	3027
3905.875	3053
3907.487	3055
3909.099	3022
3910.709	3076
3912.321	2993
3913.933	3086
3915.542	3031
3917.152	3065
3918.762	3057
3920.37	3052
3921.98	3020
3923.589	3029
3925.196	3027
3926.804	3019
3928.41	3031
3930.018	3029
3931.626	3014
3933.231	3048
3934.838	3049
3936.442	3039
3938.046	3038
3939.653	3027
3941.257	3005
3942.861	3044
3944.464	2905
3946.068	3084
3947.67	3012
3949.273	2912
3950.876	2993
3952.477	3029
3954.078	3001
3955.678	2883
3957.281	2948
3958.881	2951
3960.48	2933
3962.079	2946
3963.678	2929
3965.279	3018
3966.877	2937
3968.475	2966
3970.072	2978
3971.669	3025
3973.266	2919
3974.864	2947
3976.459	2846
3978.055	2882
3979.65	2963
3981.245	2946
3982.841	2938
3984.436	2855
3986.03	2887
3987.623	2879
3989.216	2860
3990.809	2928
3992.403	2880
3993.995	2888
3995.586	2868
3997.177	2863
3998.768	2893
4000.361	2891
4001.951	2873
4003.54	2834
4005.13	2858
4006.719	2876
4008.31	2851
4009.897	2854
4011.485	2795
4013.073	2862
4014.66	2882
4016.247	2780
4017.834	2900
4019.421	2786
4021.006	2863
4022.592	2840
4024.178	2756
4025.763	2873
4027.348	2815
4028.932	2825
4030.515	2761
4032.099	2880
4033.682	2833
4035.266	2794
4036.847	2800
4038.429	2794
4040.011	2775
4041.592	2821
4043.173	2781
4044.755	2790
4046.334	2759
4047.913	2762
4049.494	2796
4051.074	2729
4052.652	2712
4054.23	2803
4055.807	2710
4057.385	2731
4058.963	2749
4060.541	2741
4062.117	2796
4063.693	2792
4065.269	2732
4066.844	2695
4068.42	2761
4069.995	2784
4071.569	2738
4073.143	2770
4074.716	2751
4076.291	2728
4077.864	2703
4079.436	2688
4081.009	2643
4082.58	2784
4084.152	2765
4085.723	2730
4087.294	2708
4088.865	2715
4090.435	2674
4092.005	2713
4093.574	2707
4095.143	2713
4096.712	2701
4098.279	2715
4099.848	2750
4101.416	2646
4102.984	2699
4104.55	2701
4106.117	2694
4107.682	2722
4109.248	2717
4110.815	2689
4112.379	2599
4113.945	2621
4115.508	2619
4117.073	2739
4118.637	2750
4120.201	2652
4121.763	2740
4123.325	2669
4124.888	2607
4126.449	2611
4128.013	2611
4129.573	2655
4131.133	2569
4132.694	2608
4134.254	2596
4135.814	2600
4137.374	2594
4138.933	2557
4140.491	2589
4142.049	2605
4143.607	2573
4145.167	2553
4146.724	2636
4148.28	2563
4149.836	2577
4151.392	2626
4152.949	2579
4154.504	2560
4156.059	2583
4157.614	2610
4159.168	2581
4160.723	2503
4162.277	2543
4163.83	2572
4165.383	2510
4166.936	2574
4168.488	2538
4170.041	2571
4171.593	2566
4173.144	2572
4174.695	2546
4176.246	2582
4177.796	2500
4179.346	2550
4180.896	2485
4182.445	2536
4183.994	2570
4185.542	2592
4187.091	2562
4188.639	2537
4190.185	2469
4191.732	2497
4193.279	2545
4194.826	2553
4196.373	2482
4197.918	2478
4199.463	2513
4201.008	2490
4202.553	2523
4204.098	2476
4205.641	2456
4207.185	2468
4208.728	2600
4210.271	2452
4211.814	2436
4213.357	2487
4214.898	2511
4216.439	2484
4217.98	2464
4219.522	2486
4221.062	2475
4222.603	2448
4224.142	2440
4225.681	2539
4227.222	2485
4228.76	2454
4230.298	2437
4231.835	2467
4233.373	2488
4234.911	2481
4236.449	2431
4237.985	2458
4239.521	2452
4241.057	2422
4242.592	2506
4244.128	2479
4245.663	2419
4247.197	2453
4248.731	2540
4250.265	2382
4251.798	2440
4253.333	2382
4254.865	2422
4256.397	2437
4257.93	2436
4259.461	2412
4260.994	2437
4262.525	2346
4264.056	2408
4265.586	2418
4267.115	2363
4268.646	2377
4270.176	2370
4271.705	2448
4273.232	2380
4274.761	2370
4276.289	2435
4277.818	2398
4279.345	2499
4280.872	2376
4282.399	2421
4283.924	2383
4285.452	2416
4286.976	2445
4288.502	2295
4290.026	2422
4291.551	2312
4293.074	2370
4294.6	2371
4296.123	2385
4297.646	2349
4299.168	2385
4300.691	2376
4302.214	2323
4303.736	2369
4305.257	2325
4306.778	2370
4308.299	2340
4309.82	2315
4311.34	2360
4312.86	2374
4314.379	2374
