400.0745	4084
402.597	3991
405.1208	4123
407.6419	4105
410.1623	4082
412.6819	4123
415.201	4170
417.7172	4164
420.2369	4370
422.7538	4427
425.2701	4419
427.7856	4428
430.3005	4491
432.8147	4472
435.3282	4541
437.841	4380
440.3511	4472
442.8625	4450
445.3753	4442
447.8854	4485
450.3927	4404
452.9014	4434
455.4073	4461
457.9146	4422
460.4233	4318
462.9272	4337
465.4325	4385
467.935	4327
470.4389	4293
472.9421	4320
475.4446	4318
477.9444	4333
480.4456	4308
482.944	4264
485.4417	4409
487.9429	4303
490.4393	4361
492.935	4278
495.4321	4266
497.9264	4343
500.4221	4360
502.9171	4417
505.4094	4399
507.9011	4380
510.392	4459
512.8864	4356
515.3759	4445
517.8649	4367
520.3531	4404
522.8406	4385
525.3275	4453
527.8178	4526
530.3033	4457
532.7881	4494
535.2723	4393
537.7558	4490
540.2407	4502
542.7228	4461
545.2043	4551
547.6851	4459
550.1652	4389
552.6467	4633
555.1255	4554
557.6016	4550
560.079	4517
562.5557	4477
565.0318	4594
567.5092	4545
569.984	4631
572.456	4721
574.9294	4668
577.4022	4589
579.8762	4772
582.3456	4735
584.8163	4870
587.2863	4765
589.7557	4788
592.2224	4825
594.6924	4866
597.1578	4647
599.6245	4823
602.0905	4620
604.5538	4705
607.0206	4678
609.4825	4675
611.9459	4694
614.4066	4786
616.8686	4733
619.33	4719
621.7906	4580
624.2487	4676
626.708	4586
629.1647	4574
631.6207	4532
634.0801	4542
636.5348	4606
638.9888	4617
641.4442	4682
643.8969	4534
646.3509	4637
648.8022	4607
651.255	4659
653.705	4679
656.1544	4584
658.6031	4635
661.0532	4614
663.5026	4763
665.9493	4682
668.3954	4839
670.8409	4683
673.2877	4714
675.7318	4711
678.1752	4731
680.618	4826
683.0601	4681
685.5035	4843
687.9444	4732
690.3845	4701
692.824	4675
695.2628	4895
697.701	4812
700.1406	4725
702.5774	4801
705.0116	4809
707.4472	4801
709.8821	4783
712.3183	4769
714.7519	4735
717.1829	4841
719.6151	4820
722.0468	4846
724.4777	4865
726.908	4930
729.3377	4872
731.7667	4981
734.1931	5018
736.6208	4937
739.0498	5035
741.4742	4889
743.9	4921
746.3231	5061
748.7476	4950
751.1713	4986
753.5945	4953
756.015	5074
758.4368	5130
760.856	5050
763.2766	5072
765.6965	5147
768.1157	5141
770.5323	5087
772.9483	5212
775.3656	5033
777.7822	5059
780.1963	5049
782.6116	5060
785.0244	5086
787.4365	5217
789.8499	5121
792.2626	5058
794.6728	5087
797.0823	5137
799.4911	5062
801.8994	5107
804.3109	5051
806.7178	5121
809.124	5242
811.5297	5131
813.9347	5176
816.341	5177
818.7447	5229
821.1478	5252
823.5502	5113
825.952	5207
828.3531	5164
830.7556	5165
833.1554	5156
835.5546	5137
837.9532	5253
840.3511	5267
842.7504	5256
845.1451	5282
847.5411	5346
849.9365	5305
852.3312	5331
854.7272	5401
857.1187	5456
859.5115	5378
861.9037	5431
864.2952	5400
866.6842	5293
869.0764	5362
871.4661	5387
873.8531	5390
876.2415	5353
878.6272	5265
881.0162	5377
883.4026	5389
885.7866	5362
888.1717	5455
890.5543	5397
892.9382	5336
895.3215	5325
897.7041	5359
900.0842	5282
902.4655	5421
904.8443	5333
907.2244	5318
909.6039	5492
911.9808	5434
914.357	5422
916.7346	5627
919.1115	5524
921.4859	5629
923.8616	5737
926.2347	5646
928.6071	5624
930.979	5578
933.3541	5576
935.7247	5799
938.0946	5647
940.4639	5963
942.8326	6016
945.2026	6137
947.5701	6312
949.9369	6572
952.305	6955
954.6705	7309
957.0355	7842
959.4017	8399
961.7654	8644
964.1284	8602
966.4908	8241
968.8527	7715
971.2138	6980
973.5743	6596
975.9343	6247
978.2936	5934
980.6522	5790
983.0122	5696
985.3696	5594
987.7245	5613
990.0807	5593
992.4362	5630
994.7911	5657
997.1474	5570
999.4991	5499
1001.852	5672
1004.205	5765
1006.555	5614
1008.908	5661
1011.258	5583
1013.606	5599
1015.956	5645
1018.302	5501
1020.652	5670
1022.998	5634
1025.345	5761
1027.691	5680
1030.035	5712
1032.378	5857
1034.724	5873
1037.066	5789
1039.409	5790
1041.75	5775
1044.092	5780
1046.433	5873
1048.771	5698
1051.112	5831
1053.449	5889
1055.786	5766
1058.124	5829
1060.462	5778
1062.797	5908
1065.131	5864
1067.467	5921
1069.8	6051
1072.135	5974
1074.467	5894
1076.798	6062
1079.129	5926
1081.459	5766
1083.792	5928
1086.121	5771
1088.449	5803
1090.777	5705
1093.104	5644
1095.431	5701
1097.759	5651
1100.084	5595
1102.408	5757
1104.732	5672
1107.056	5641
1109.379	5716
1111.701	5777
1114.022	5700
1116.343	5559
1118.664	5532
1120.983	5568
1123.303	5607
1125.621	5608
1127.939	5622
1130.256	5563
1132.573	5597
1134.889	5492
1137.205	5691
1139.52	5734
1141.832	5569
1144.146	5435
1146.461	5575
1148.771	5515
1151.083	5681
1153.392	5642
1155.703	5655
1158.011	5578
1160.323	5513
1162.629	5663
1164.938	5523
1167.243	5507
1169.55	5590
1171.857	5578
1174.163	5615
1176.466	5733
1178.769	5560
1181.073	5657
1183.374	5604
1185.677	5574
1187.979	5662
1190.279	5581
1192.578	5593
1194.878	5488
1197.178	5589
1199.476	5602
1201.772	5586
1204.068	5639
1206.366	5623
1208.663	5672
1210.957	5596
1213.251	5616
1215.544	5692
1217.836	5607
1220.128	5674
1222.421	5622
1224.712	5671
1227.002	5698
1229.292	5654
1231.581	5814
1233.871	5771
1236.159	5839
1238.446	5838
1240.732	5870
1243.018	5882
1245.304	5942
1247.59	5946
1249.874	6062
1252.156	5970
1254.439	5927
1256.721	5970
1259.005	5846
1261.286	5868
1263.565	5908
1265.845	5887
1268.125	5914
1270.403	5943
1272.682	5956
1274.959	5973
1277.234	5873
1279.511	5791
1281.787	5841
1284.062	5813
1286.337	5924
1288.609	5789
1290.882	5813
1293.153	5694
1295.428	5678
1297.698	5772
1299.969	5649
1302.237	5689
1304.507	5634
1306.777	5748
1309.044	5663
1311.312	5807
1313.578	5684
1315.844	5640
1318.109	5741
1320.375	5796
1322.638	5759
1324.903	5743
1327.165	5694
1329.427	5705
1331.69	5847
1333.952	5808
1336.212	5719
1338.471	5654
1340.73	5784
1342.988	5838
1345.248	5801
1347.505	5778
1349.763	5646
1352.019	5793
1354.274	5642
1356.53	5668
1358.784	5773
1361.038	5763
1363.291	5738
1365.543	5756
1367.797	5634
1370.048	5676
1372.296	5805
1374.546	5769
1376.796	5825
1379.045	5695
1381.295	5794
1383.542	5738
1385.787	5783
1388.034	5794
1390.28	5806
1392.527	5806
1394.772	5747
1397.014	5798
1399.258	5831
1401.501	5833
1403.741	5843
1405.985	5868
1408.226	5724
1410.465	5864
1412.705	5851
1414.943	5786
1417.184	5893
1419.42	5971
1421.658	5866
1423.894	5856
1426.13	5923
1428.366	5925
1430.602	5905
1432.835	5905
1435.069	5905
1437.301	5951
1439.535	5954
1441.767	5985
1443.997	6062
1446.229	6013
1448.458	6159
1450.687	6087
1452.916	6201
1455.146	6090
1457.372	6099
1459.599	6120
1461.824	6043
1464.051	6006
1466.277	6084
1468.501	6054
1470.725	5985
1472.948	6036
1475.17	6009
1477.393	5765
1479.614	5855
1481.837	5794
1484.057	5884
1486.276	5777
1488.497	5706
1490.715	5790
1492.932	5726
1495.148	5779
1497.364	5725
1499.58	5667
1501.798	5682
1504.012	5621
1506.227	5588
1508.44	5724
1510.653	5642
1512.866	5726
1515.078	5737
1517.289	5663
1519.5	5721
1521.711	5582
1523.92	5681
1526.13	5772
1528.338	5704
1530.544	5585
1532.752	5684
1534.959	5674
1537.165	5738
1539.371	5746
1541.574	5635
1543.779	5677
1545.983	5686
1548.187	5704
1550.39	5748
1552.59	5705
1554.792	5761
1556.991	5675
1559.19	5755
1561.392	5747
1563.59	5836
1565.789	5883
1567.986	5790
1570.182	5711
1572.381	5762
1574.576	5808
1576.771	5779
1578.966	5660
1581.16	5851
1583.354	5800
1585.546	5734
1587.74	5762
1589.931	5876
1592.121	5735
1594.311	5910
1596.502	5837
1598.693	5841
1600.881	5860
1603.069	5893
1605.256	5898
1607.445	5839
1609.631	5852
1611.816	5958
1614.001	5868
1616.186	5924
1618.37	5813
1620.555	5935
1622.737	5900
1624.919	5996
1627.101	6048
1629.282	6009
1631.463	5879
1633.643	6004
1635.822	6041
1638.001	6022
1640.179	5846
1642.359	6099
1644.534	6007
1646.711	6012
1648.887	5983
1651.062	6119
1653.235	6037
1655.412	6066
1657.586	5934
1659.757	6189
1661.93	6181
1664.1	6121
1666.274	6187
1668.445	6141
1670.614	6174
1672.784	6176
1674.951	6118
1677.12	6258
1679.289	6172
1681.457	6143
1683.622	6136
1685.789	6146
1687.953	6145
1690.121	6036
1692.284	5994
1694.447	6036
1696.611	6004
1698.772	6003
1700.935	5975
1703.098	5959
1705.258	5856
1707.417	5894
1709.576	5825
1711.736	5824
1713.896	5739
1716.053	5837
1718.21	5831
1720.366	5792
1722.522	5777
1724.68	5819
1726.835	5799
1728.989	5832
1731.142	5732
1733.295	5771
1735.449	5837
1737.601	5796
1739.753	5777
1741.903	5801
1744.054	5780
1746.203	5798
1748.354	5817
1750.503	5798
1752.651	5893
1754.798	5788
1756.944	5770
1759.092	5675
1761.238	5824
1763.383	5736
1765.528	5822
1767.672	5870
1769.814	5797
1771.959	5756
1774.102	5898
1776.242	5807
1778.384	5863
1780.525	5802
1782.665	5742
1784.805	5848
1786.945	5838
1789.082	5816
1791.22	5844
1793.36	5898
1795.495	5812
1797.632	5806
1799.766	5768
1801.902	5838
1804.035	5873
1806.172	5723
1808.304	5821
1810.436	5819
1812.569	5837
1814.699	5760
1816.833	5806
1818.963	5789
1821.092	5889
1823.222	5822
1825.35	5849
1827.478	5809
1829.608	5793
1831.734	5800
1833.86	5829
1835.986	5761
1838.11	5865
1840.238	5737
1842.362	5811
1844.485	5806
1846.608	5796
1848.73	5703
1850.853	5782
1852.974	5732
1855.097	5792
1857.217	5759
1859.336	5745
1861.455	5741
1863.576	5774
1865.693	5759
1867.811	5786
1869.926	5692
1872.042	5751
1874.16	5826
1876.275	5793
1878.39	5686
1880.504	5776
1882.618	5794
1884.731	5750
1886.843	5753
1888.956	5732
1891.067	5783
1893.178	5885
1895.287	5760
1897.399	5805
1899.508	5772
1901.617	5885
1903.724	5755
1905.832	5866
1907.941	5734
1910.046	5696
1912.152	5941
1914.256	5959
1916.361	5836
1918.464	5766
1920.57	5795
1922.672	5927
1924.775	5856
1926.876	5783
1928.978	5819
1931.08	5782
1933.181	5910
1935.28	5840
1937.38	5758
1939.478	5890
1941.577	5878
1943.675	5982
1945.771	5854
1947.867	5808
1949.964	5899
1952.058	5818
1954.154	5843
1956.248	5946
1958.343	5798
1960.435	5800
1962.527	5883
1964.62	5855
1966.711	5989
1968.802	5824
1970.892	5716
1972.983	5828
1975.072	5817
1977.162	5739
1979.25	5720
1981.337	5860
1983.424	5844
1985.51	5794
1987.598	5851
1989.683	5786
1991.768	5780
1993.852	5838
1995.934	5716
1998.019	5879
2000.102	5758
2002.184	5897
2004.266	5733
2006.347	5807
2008.427	5778
2010.508	5808
2012.587	5765
2014.666	5877
2016.745	5799
2018.821	5773
2020.9	5731
2022.977	5885
2025.052	5639
2027.128	5753
2029.204	5740
2031.277	5791
2033.353	5787
2035.425	5770
2037.499	5763
2039.57	5776
2041.642	5783
2043.714	5763
2045.786	5812
2047.855	5858
2049.925	5703
2051.993	5783
2054.064	5716
2056.132	5805
2058.2	5804
2060.266	5800
2062.332	5823
2064.398	5766
2066.465	5690
2068.529	5749
2070.592	5864
2072.657	5786
2074.719	5760
2076.783	5825
2078.845	5693
2080.907	5734
2082.968	5884
2085.028	5782
2087.087	5761
2089.148	5748
2091.207	5774
2093.264	5731
2095.322	5890
2097.379	5741
2099.439	5840
2101.495	5655
2103.55	5801
2105.605	5748
2107.658	5789
2109.713	5799
2111.767	5797
2113.82	5756
2115.872	5793
2117.924	5816
2119.975	5812
2122.028	5813
2124.078	5678
2126.126	5725
2128.176	5738
2130.225	5819
2132.275	5733
2134.321	5767
2136.368	5821
2138.415	5835
2140.461	5730
2142.505	5740
2144.552	5757
2146.597	5740
2148.64	5697
2150.684	5677
2152.725	5886
2154.77	5767
2156.811	5869
2158.852	5718
2160.894	5678
2162.933	5733
2164.973	5736
2167.013	5694
2169.051	5664
2171.089	5686
2173.126	5735
2175.164	5723
2177.201	5695
2179.236	5647
2181.273	5769
2183.307	5665
2185.341	5666
2187.377	5659
2189.41	5593
2191.442	5652
2193.473	5776
2195.506	5587
2197.539	5565
2199.569	5759
2201.598	5693
2203.628	5604
2205.656	5639
2207.686	5641
2209.716	5634
2211.743	5614
2213.769	5632
2215.796	5666
2217.821	5558
2219.848	5709
2221.873	5663
2223.897	5521
2225.921	5647
2227.944	5577
2229.967	5648
2231.991	5610
2234.011	5682
2236.032	5560
2238.053	5541
2240.073	5543
2242.094	5679
2244.114	5634
2246.131	5577
2248.149	5583
2250.167	5642
2252.186	5562
2254.201	5645
2256.218	5515
2258.233	5593
2260.247	5688
2262.262	5598
2264.278	5603
2266.29	5601
2268.303	5602
2270.315	5555
2272.327	5640
2274.341	5720
2276.35	5716
2278.361	5583
2280.37	5509
2282.38	5709
2284.388	5521
2286.397	5629
2288.405	5566
2290.412	5696
2292.419	5592
2294.425	5575
2296.431	5650
2298.437	5611
2300.441	5626
2302.445	5565
2304.449	5502
2306.453	5579
2308.455	5583
2310.457	5556
2312.459	5621
2314.46	5534
2316.46	5578
2318.461	5658
2320.46	5553
2322.458	5505
2324.458	5573
2326.456	5458
2328.455	5519
2330.451	5500
2332.447	5480
2334.443	5447
2336.438	5457
2338.433	5597
2340.429	5468
2342.422	5590
2344.416	5425
2346.408	5563
2348.399	5586
2350.393	5543
2352.384	5507
2354.375	5496
2356.365	5409
2358.355	5520
2360.344	5367
2362.333	5520
2364.322	5421
2366.309	5494
2368.295	5465
2370.282	5554
2372.27	5459
2374.256	5392
2376.24	5454
2378.225	5462
2380.208	5501
2382.194	5534
2384.177	5403
2386.159	5456
2388.142	5366
2390.122	5416
2392.105	5505
2394.085	5377
2396.066	5425
2398.044	5399
2400.024	5400
2402.002	5354
2403.982	5408
2405.959	5466
2407.935	5417
2409.913	5489
2411.888	5455
2413.865	5337
2415.84	5415
2417.814	5353
2419.788	5357
2421.762	5348
2423.735	5441
2425.708	5366
2427.68	5509
2429.651	5477
2431.623	5302
2433.593	5351
2435.564	5404
2437.533	5417
2439.502	5490
2441.47	5299
2443.438	5289
2445.406	5414
2447.373	5393
2449.34	5339
2451.305	5357
2453.271	5411
2455.235	5328
2457.201	5424
2459.165	5382
2461.129	5327
2463.092	5301
2465.054	5427
2467.018	5305
2468.978	5323
2470.939	5300
2472.899	5375
2474.86	5343
2476.819	5306
2478.778	5396
2480.737	5356
2482.695	5252
2484.653	5352
2486.609	5358
2488.567	5312
2490.524	5251
2492.478	5265
2494.433	5281
2496.387	5287
2498.343	5346
2500.297	5361
2502.249	5372
2504.202	5260
2506.153	5345
2508.105	5294
2510.057	5301
2512.008	5265
2513.957	5450
2515.906	5258
2517.855	5315
2519.805	5287
2521.754	5259
2523.7	5301
2525.647	5338
2527.594	5264
2529.54	5175
2531.486	5283
2533.431	5303
2535.376	5195
2537.32	5200
2539.263	5259
2541.207	5269
2543.151	5238
2545.093	5240
2547.034	5283
2548.975	5309
2550.917	5319
2552.856	5225
2554.796	5298
2556.735	5283
2558.673	5324
2560.611	5262
2562.55	5211
2564.487	5247
2566.424	5259
2568.36	5317
2570.296	5269
2572.232	5323
2574.167	5272
2576.101	5323
2578.035	5236
2579.969	5252
2581.902	5288
2583.834	5283
2585.766	5259
2587.698	5335
2589.628	5194
2591.557	5362
2593.489	5248
2595.419	5280
2597.348	5229
2599.275	5367
2601.204	5238
2603.131	5263
2605.059	5337
2606.986	5374
2608.911	5251
2610.837	5176
2612.76	5152
2614.687	5363
2616.61	5184
2618.534	5247
2620.457	5223
2622.38	5246
2624.302	5285
2626.225	5274
2628.145	5226
2630.067	5415
2631.986	5284
2633.906	5226
2635.827	5234
2637.745	5238
2639.662	5280
2641.581	5186
2643.498	5245
2645.415	5259
2647.331	5244
2649.248	5304
2651.163	5271
2653.077	5311
2654.993	5267
2656.906	5292
2658.821	5337
2660.733	5241
2662.646	5184
2664.557	5104
2666.47	5268
2668.381	5320
2670.291	5161
2672.201	5270
2674.11	5203
2676.021	5291
2677.929	5303
2679.837	5216
2681.745	5315
2683.652	5274
2685.56	5174
2687.466	5221
2689.371	5214
2691.276	5262
2693.181	5288
2695.085	5209
2696.991	5253
2698.893	5184
2700.796	5130
2702.698	5247
2704.601	5183
2706.502	5129
2708.404	5138
2710.304	5212
2712.203	5268
2714.103	5276
2716.003	5187
2717.902	5145
2719.8	5106
2721.697	5082
2723.594	5170
2725.49	5292
2727.389	5182
2729.283	5094
2731.179	5181
2733.073	5201
2734.968	5194
2736.863	5133
2738.757	5121
2740.649	5158
2742.541	5177
2744.433	5193
2746.324	5212
2748.216	5225
2750.107	5258
2751.997	5180
2753.886	5151
2755.776	5252
2757.666	5129
2759.553	5040
2761.44	5251
2763.327	5094
2765.215	5162
2767.102	5156
2768.988	5030
2770.873	5085
2772.757	5122
2774.641	5082
2776.525	5230
2778.41	5097
2780.292	5150
2782.175	5136
2784.057	5121
2785.938	5092
2787.821	5235
2789.701	5107
2791.581	5185
2793.461	5139
2795.34	5104
2797.219	5042
2799.099	5033
2800.975	5012
2802.853	5149
2804.73	5125
2806.606	5061
2808.484	5085
2810.358	5058
2812.233	4949
2814.108	5014
2815.981	5043
2817.857	5127
2819.73	5040
2821.602	4995
2823.474	4945
2825.346	5040
2827.217	5028
2829.089	4968
2830.959	5113
2832.829	5136
2834.698	5030
2836.567	5061
2838.436	5131
2840.305	5009
2842.172	5188
2844.04	4988
2845.905	5164
2847.772	5053
2849.639	5138
2851.503	5233
2853.369	5122
2855.232	5178
2857.096	5129
2858.961	5209
2860.824	5178
2862.686	5231
2864.547	5269
2866.41	5307
2868.272	5405
2870.132	5390
2871.992	5509
2873.851	5538
2875.711	5678
2877.57	5673
2879.429	5757
2881.287	5767
2883.144	5928
2885.001	5782
2886.857	5903
2888.714	5772
2890.57	5861
2892.425	5764
2894.279	5792
2896.133	5799
2897.987	5708
2899.842	5803
2901.694	5681
2903.547	5749
2905.397	5786
2907.249	5829
2909.101	5812
2910.952	5822
2912.802	5991
2914.652	5973
2916.5	6025
2918.35	6130
2920.198	6248
2922.045	6255
2923.893	6374
2925.74	6390
2927.585	6511
2929.433	6646
2931.279	6750
2933.123	6769
2934.968	6904
2936.811	6870
2938.656	7079
2940.5	7101
2942.342	7172
2944.185	7148
2946.026	7145
2947.87	7145
2949.71	7040
2951.549	6947
2953.39	6920
2955.229	6927
2957.069	6604
2958.908	6744
2960.746	6671
2962.584	6543
2964.421	6296
2966.257	6427
2968.094	6429
2969.931	6332
2971.766	6303
2973.601	6130
2975.435	6108
2977.27	6093
2979.105	6065
2980.938	6194
2982.77	6147
2984.602	6105
2986.434	6088
2988.267	6078
2990.097	6003
2991.927	5996
2993.757	5836
2995.587	5883
2997.417	5787
2999.246	5708
3001.074	5674
3002.902	5557
3004.729	5572
3006.556	5454
3008.384	5344
3010.21	5381
3012.036	5249
3013.861	5335
3015.684	5181
3017.51	5185
3019.334	5082
3021.157	5054
3022.981	5041
3024.802	5023
3026.624	4873
3028.448	5035
3030.267	4993
3032.088	4855
3033.909	4848
3035.728	4987
3037.549	4831
3039.368	4818
3041.186	4875
3043.004	4880
3044.821	4956
3046.64	4867
3048.455	4899
3050.272	4855
3052.087	4758
3053.903	4793
3055.717	4884
3057.534	4843
3059.347	4800
3061.16	4816
3062.974	4821
3064.785	4864
3066.598	4869
3068.411	4886
3070.222	4863
3072.032	4820
3073.844	4795
3075.653	4710
3077.463	4853
3079.272	4743
3081.08	4741
3082.889	4737
3084.697	4723
3086.505	4656
3088.312	4749
3090.118	4636
3091.924	4641
3093.729	4801
3095.535	4639
3097.34	4670
3099.144	4724
3100.947	4586
3102.75	4571
3104.553	4653
3106.357	4688
3108.159	4664
3109.961	4625
3111.762	4597
3113.562	4734
3115.365	4639
3117.164	4740
3118.964	4592
3120.761	4600
3122.56	4519
3124.36	4705
3126.158	4638
3127.954	4590
3129.75	4561
3131.547	4598
3133.343	4530
3135.139	4634
3136.934	4541
3138.729	4511
3140.522	4513
3142.317	4569
3144.11	4542
3145.904	4574
3147.695	4548
3149.488	4481
3151.28	4609
3153.07	4622
3154.863	4524
3156.652	4582
3158.441	4593
3160.231	4597
3162.019	4547
3163.81	4556
3165.597	4562
3167.384	4674
3169.172	4584
3170.958	4480
3172.745	4592
3174.532	4543
3176.317	4535
3178.101	4515
3179.885	4552
3181.67	4556
3183.455	4548
3185.238	4466
3187.02	4464
3188.802	4494
3190.585	4444
3192.368	4511
3194.149	4488
3195.929	4554
3197.709	4512
3199.489	4461
3201.268	4561
3203.048	4508
3204.826	4480
3206.604	4486
3208.382	4513
3210.159	4560
3211.937	4518
3213.713	4435
3215.489	4453
3217.263	4427
3219.038	4597
3220.815	4487
3222.589	4471
3224.363	4546
3226.136	4507
3227.908	4552
3229.681	4572
3231.454	4585
3233.226	4506
3234.996	4479
3236.767	4521
3238.538	4516
3240.308	4603
3242.078	4536
3243.847	4492
3245.615	4530
3247.384	4497
3249.15	4484
3250.92	4478
3252.686	4565
3254.453	4570
3256.218	4512
3257.984	4538
3259.75	4547
3261.515	4544
3263.279	4556
3265.044	4541
3266.806	4653
3268.57	4513
3270.334	4494
3272.095	4579
3273.856	4542
3275.619	4545
3277.379	4579
3279.14	4463
3280.9	4527
3282.661	4559
3284.419	4551
3286.178	4577
3287.937	4593
3289.695	4642
3291.453	4557
3293.21	4538
3294.967	4584
3296.723	4596
3298.48	4553
3300.235	4593
3301.99	4590
3303.744	4564
3305.498	4653
3307.253	4603
3309.006	4638
3310.759	4582
3312.511	4637
3314.263	4515
3316.017	4601
3317.768	4643
3319.519	4546
3321.268	4617
3323.018	4645
3324.767	4558
3326.518	4648
3328.267	4607
3330.014	4660
3331.762	4539
3333.509	4678
3335.258	4551
3337.003	4654
3338.75	4588
3340.496	4522
3342.24	4597
3343.987	4643
3345.732	4618
3347.475	4498
3349.219	4514
3350.961	4513
3352.705	4573
3354.448	4612
3356.19	4556
3357.931	4452
3359.672	4556
3361.412	4457
3363.155	4515
3364.894	4502
3366.633	4448
3368.372	4527
3370.11	4566
3371.849	4457
3373.588	4505
3375.325	4478
3377.061	4445
3378.799	4476
3380.534	4407
3382.271	4433
3384.006	4399
3385.741	4454
3387.475	4487
3389.209	4349
3390.944	4432
3392.677	4483
3394.409	4406
3396.143	4310
3397.874	4381
3399.606	4391
3401.338	4332
3403.069	4453
3404.799	4338
3406.528	4433
3408.258	4397
3409.988	4342
3411.717	4368
3413.445	4330
3415.173	4170
3416.899	4355
3418.626	4419
3420.354	4328
3422.08	4327
3423.806	4383
3425.531	4308
3427.255	4297
3428.981	4343
3430.705	4281
3432.429	4308
3434.151	4309
3435.875	4335
3437.599	4261
3439.321	4297
3441.042	4258
3442.763	4249
3444.483	4291
3446.204	4256
3447.926	4308
3449.645	4266
3451.364	4232
3453.082	4236
3454.801	4246
3456.52	4194
3458.238	4143
3459.954	4112
3461.671	4200
3463.387	4253
3465.104	4162
3466.82	4132
3468.534	4109
3470.25	4227
3471.963	4026
3473.676	4023
3475.392	4272
3477.104	4153
3478.817	4157
3480.528	4099
3482.241	4165
3483.954	4095
3485.664	4096
3487.374	3989
3489.084	4075
3490.795	4044
3492.504	4090
3494.214	4012
3495.922	4034
3497.63	4045
3499.338	4047
3501.045	4005
3502.753	4040
3504.459	3991
3506.166	4025
3507.871	4122
3509.576	4001
3511.283	4023
3512.987	4029
3514.691	3974
3516.395	4009
3518.098	3961
3519.8	3906
3521.504	3897
3523.206	3983
3524.908	4055
3526.609	3835
3528.309	3894
3530.011	3969
3531.711	3892
3533.411	3927
3535.109	3959
3536.808	3887
3538.507	3899
3540.206	3904
3541.904	3880
3543.601	3811
3545.297	3903
3546.994	3907
3548.69	3896
3550.387	3911
3552.081	3848
3553.776	3855
3555.47	3876
3557.166	3817
3558.859	3859
3560.553	3850
3562.245	3885
3563.938	3886
3565.629	3849
3567.322	3736
3569.014	3819
3570.704	3786
3572.394	3704
3574.084	3746
3575.775	3764
3577.464	3838
3579.152	3851
3580.842	3712
3582.529	3832
3584.216	3732
3585.905	3692
3587.591	3841
3589.279	3797
3590.964	3710
3592.649	3818
3594.336	3733
3596.021	3766
3597.705	3670
3599.388	3638
3601.072	3706
3602.757	3702
3604.439	3751
3606.122	3739
3607.803	3666
3609.485	3801
3611.167	3568
3612.849	3635
3614.529	3650
3616.208	3620
3617.888	3697
3619.567	3598
3621.247	3546
3622.926	3687
3624.603	3513
3626.281	3567
3627.958	3640
3629.635	3532
3631.312	3558
3632.989	3554
3634.665	3532
3636.339	3546
3638.014	3519
3639.691	3430
3641.364	3585
3643.038	3473
3644.71	3617
3646.384	3471
3648.058	3414
3649.729	3580
3651.402	3498
3653.073	3545
3654.744	3487
3656.414	3469
3658.085	3519
3659.755	3477
3661.424	3476
3663.094	3437
3664.762	3427
3666.431	3493
3668.099	3484
3669.766	3506
3671.433	3469
3673.099	3466
3674.768	3426
3676.433	3403
3678.098	3426
3679.763	3401
3681.428	3386
3683.093	3407
3684.757	3338
3686.421	3409
3688.083	3368
3689.746	3437
3691.408	3373
3693.071	3468
3694.733	3357
3696.394	3354
3698.054	3394
3699.715	3344
3701.375	3315
3703.036	3408
3704.695	3353
3706.354	3347
3708.012	3416
3709.67	3359
3711.329	3385
3712.987	3374
3714.644	3370
3716.299	3288
3717.955	3356
3719.613	3402
3721.268	3319
3722.923	3322
3724.577	3312
3726.231	3338
3727.885	3423
3729.539	3327
3731.192	3301
3732.845	3365
3734.497	3284
3736.149	3246
3737.802	3274
3739.453	3256
3741.104	3230
3742.753	3327
3744.404	3229
3746.052	3251
3747.704	3310
3749.352	3247
3751	3301
3752.648	3194
3754.296	3306
3755.944	3224
3757.59	3294
3759.238	3334
3760.883	3316
3762.528	3168
3764.176	3269
3765.82	3318
3767.464	3211
3769.109	3192
3770.753	3209
3772.396	3204
3774.04	3288
3775.683	3225
3777.325	3258
3778.967	3218
3780.608	3184
3782.25	3224
3783.89	3250
3785.531	3172
3787.17	3252
3788.81	3270
3790.45	3210
3792.09	3129
3793.729	3102
3795.366	3200
3797.003	3162
3798.64	3195
3800.278	3213
3801.915	3144
3803.551	3189
3805.187	3139
3806.822	3232
3808.458	3141
3810.093	3166
3811.726	3121
3813.36	3140
3814.994	3146
3816.627	3155
3818.262	3154
3819.893	3102
3821.525	3161
3823.157	3134
3824.787	3155
3826.42	3144
3828.051	3138
3829.68	3118
3831.31	3123
3832.938	3191
3834.569	3189
3836.198	3114
3837.825	3115
3839.454	3147
3841.08	3063
3842.708	3088
3844.335	3121
3845.962	3180
3847.587	3120
3849.212	3083
3850.838	3105
3852.463	3082
3854.089	3052
3855.712	3085
3857.335	3011
3858.959	3094
3860.582	3064
3862.205	3152
3863.827	3103
3865.449	3097
3867.07	3040
3868.691	3044
3870.312	2996
3871.933	3100
3873.553	3048
3875.173	3047
3876.792	3014
3878.411	3042
3880.03	3014
3881.647	3089
3883.265	3046
3884.882	3027
3886.499	2957
3888.116	3010
3889.732	2977
3891.348	3038
3892.964	2988
3894.579	2965
3896.195	3005
3897.809	2982
3899.423	2993
3901.036	2993
3902.648	2967
3904.261	3018
3905.875	3020
3907.487	3004
3909.099	2998
3910.709	3015
3912.321	2973
3913.933	2985
3915.542	3029
3917.152	2959
3918.762	2987
3920.37	2994
3921.98	2935
3923.589	2997
3925.196	2989
3926.804	3042
3928.41	3010
3930.018	2990
3931.626	2985
3933.231	3034
3934.838	2918
3936.442	2999
3938.046	2924
3939.653	2957
3941.257	2994
3942.861	2904
3944.464	2985
3946.068	2955
3947.67	2947
3949.273	2930
3950.876	2957
3952.477	2878
3954.078	2942
3955.678	2822
3957.281	2864
3958.881	2955
3960.48	2895
3962.079	2954
3963.678	2917
3965.279	2916
3966.877	2876
3968.475	2886
3970.072	2877
3971.669	2884
3973.266	2864
3974.864	2905
3976.459	2838
3978.055	2858
3979.65	2916
3981.245	2922
3982.841	2810
3984.436	2856
3986.03	2845
3987.623	2822
3989.216	2887
3990.809	2908
3992.403	2819
3993.995	2890
3995.586	2871
3997.177	2789
3998.768	2768
4000.361	2761
4001.951	2867
4003.54	2824
4005.13	2850
4006.719	2787
4008.31	2855
4009.897	2851
4011.485	2818
4013.073	2780
4014.66	2842
4016.247	2790
4017.834	2747
4019.421	2803
4021.006	2723
4022.592	2795
4024.178	2778
4025.763	2860
4027.348	2778
4028.932	2746
4030.515	2723
4032.099	2755
4033.682	2747
4035.266	2777
4036.847	2795
4038.429	2815
4040.011	2686
4041.592	2732
4043.173	2724
4044.755	2722
4046.334	2715
4047.913	2731
4049.494	2750
4051.074	2687
4052.652	2737
4054.23	2769
4055.807	2723
4057.385	2707
4058.963	2766
4060.541	2687
4062.117	2665
4063.693	2746
4065.269	2678
4066.844	2639
4068.42	2742
4069.995	2723
4071.569	2700
4073.143	2713
4074.716	2670
4076.291	2691
4077.864	2662
4079.436	2596
4081.009	2644
4082.58	2663
4084.152	2646
4085.723	2619
4087.294	2635
4088.865	2625
4090.435	2732
4092.005	2702
4093.574	2656
4095.143	2657
4096.712	2632
4098.279	2660
4099.848	2664
4101.416	2620
4102.984	2622
4104.55	2710
4106.117	2582
4107.682	2640
4109.248	2596
4110.815	2618
4112.379	2651
4113.945	2620
4115.508	2613
4117.073	2660
4118.637	2622
4120.201	2609
4121.763	2598
4123.325	2594
4124.888	2667
4126.449	2666
4128.013	2587
4129.573	2573
4131.133	2614
4132.694	2640
4134.254	2554
4135.814	2564
4137.374	2621
4138.933	2553
4140.491	2571
4142.049	2597
4143.607	2501
4145.167	2479
4146.724	2561
4148.28	2537
4149.836	2543
4151.392	2577
4152.949	2504
4154.504	2516
4156.059	2555
4157.614	2543
4159.168	2521
4160.723	2564
4162.277	2596
4163.83	2491
4165.383	2533
4166.936	2493
4168.488	2427
4170.041	2503
4171.593	2596
4173.144	2512
4174.695	2519
4176.246	2491
4177.796	2510
4179.346	2497
4180.896	2497
4182.445	2520
4183.994	2550
4185.542	2512
4187.091	2471
4188.639	2432
4190.185	2459
4191.732	2483
4193.279	2445
4194.826	2443
4196.373	2461
4197.918	2470
4199.463	2421
4201.008	2412
4202.553	2440
4204.098	2478
4205.641	2494
4207.185	2483
4208.728	2471
4210.271	2481
4211.814	2449
4213.357	2431
4214.898	2477
4216.439	2399
4217.98	2460
4219.522	2443
4221.062	2395
4222.603	2379
4224.142	2386
4225.681	2422
4227.222	2442
4228.76	2423
4230.298	2363
4231.835	2388
4233.373	2423
4234.911	2393
4236.449	2470
4237.985	2361
4239.521	2455
4241.057	2408
4242.592	2439
4244.128	2410
4245.663	2400
4247.197	2294
4248.731	2432
4250.265	2393
4251.798	2387
4253.333	2402
4254.865	2427
4256.397	2341
4257.93	2415
4259.461	2411
4260.994	2380
4262.525	2341
4264.056	2391
4265.586	2357
4267.115	2380
4268.646	2371
4270.176	2389
4271.705	2438
4273.232	2424
4274.761	2392
4276.289	2377
4277.818	2349
4279.345	2329
4280.872	2411
4282.399	2361
4283.924	2342
4285.452	2307
4286.976	2351
4288.502	2287
4290.026	2360
4291.551	2389
4293.074	2376
4294.6	2335
4296.123	2298
4297.646	2328
4299.168	2305
4300.691	2349
4302.214	2307
4303.736	2244
4305.257	2303
4306.778	2319
4308.299	2250
4309.82	2282
4311.34	2304
4312.86	2318
4314.379	2334
