400.0745	3934
402.597	4041
405.1208	3940
407.6419	3921
410.1623	4011
412.6819	4005
415.201	3975
417.7172	4060
420.2369	4061
422.7538	4143
425.2701	4184
427.7856	4131
430.3005	4225
432.8147	4256
435.3282	4296
437.841	4222
440.3511	4182
442.8625	4177
445.3753	4279
447.8854	4143
450.3927	4236
452.9014	4197
455.4073	4220
457.9146	4182
460.4233	4146
462.9272	4199
465.4325	4182
467.935	4189
470.4389	4201
472.9421	4219
475.4446	4206
477.9444	4183
480.4456	4236
482.944	4132
485.4417	4329
487.9429	4248
490.4393	4190
492.935	4190
495.4321	4294
497.9264	4212
500.4221	4253
502.9171	4232
505.4094	4283
507.9011	4374
510.392	4340
512.8864	4382
515.3759	4344
517.8649	4270
520.3531	4471
522.8406	4405
525.3275	4271
527.8178	4272
530.3033	4313
532.7881	4308
535.2723	4421
537.7558	4430
540.2407	4316
542.7228	4321
545.2043	4375
547.6851	4385
550.1652	4460
552.6467	4417
555.1255	4380
557.6016	4281
560.079	4419
562.5557	4386
565.0318	4489
567.5092	4427
569.984	4549
572.456	4500
574.9294	4589
577.4022	4504
579.8762	4528
582.3456	4514
584.8163	4497
587.2863	4579
589.7557	4550
592.2224	4558
594.6924	4567
597.1578	4534
599.6245	4552
602.0905	4574
604.5538	4406
607.0206	4612
609.4825	4632
611.9459	4564
614.4066	4529
616.8686	4551
619.33	4662
621.7906	4439
624.2487	4430
626.708	4501
629.1647	4494
631.6207	4448
634.0801	4452
636.5348	4472
638.9888	4423
641.4442	4559
643.8969	4511
646.3509	4633
648.8022	4471
651.255	4593
653.705	4515
656.1544	4443
658.6031	4534
661.0532	4606
663.5026	4634
665.9493	4586
668.3954	4603
670.8409	4615
673.2877	4648
675.7318	4614
678.1752	4606
680.618	4629
683.0601	4666
685.5035	4700
687.9444	4662
690.3845	4627
692.824	4628
695.2628	4650
697.701	4702
700.1406	4627
702.5774	4729
705.0116	4743
707.4472	4596
709.8821	4742
712.3183	4778
714.7519	4665
717.1829	4721
719.6151	4798
722.0468	4748
724.4777	4778
726.908	4826
729.3377	4749
731.7667	4766
734.1931	4808
736.6208	4852
739.0498	4878
741.4742	4851
743.9	4794
746.3231	4995
748.7476	4904
751.1713	4856
753.5945	4928
756.015	4981
758.4368	4960
760.856	4965
763.2766	4967
765.6965	4902
768.1157	4943
770.5323	5073
772.9483	4970
775.3656	4979
777.7822	4961
780.1963	4994
782.6116	4994
785.0244	5084
787.4365	4985
789.8499	4968
792.2626	5042
794.6728	5002
797.0823	4994
799.4911	4917
801.8994	4964
804.3109	5066
806.7178	5015
809.124	4920
811.5297	5031
813.9347	5003
816.341	5119
818.7447	5055
821.1478	5120
823.5502	5122
825.952	5074
828.3531	5103
830.7556	5065
833.1554	5048
835.5546	5081
837.9532	5046
840.3511	5059
842.7504	5123
845.1451	5139
847.5411	5155
849.9365	5124
852.3312	5268
854.7272	5236
857.1187	5295
859.5115	5164
861.9037	5187
864.2952	5142
866.6842	5206
869.0764	5189
871.4661	5159
873.8531	5235
876.2415	5136
878.6272	5291
881.0162	5131
883.4026	5204
885.7866	5188
888.1717	5189
890.5543	5178
892.9382	5194
895.3215	5115
897.7041	5222
900.0842	5162
902.4655	5181
904.8443	5129
907.2244	5250
909.6039	5227
911.9808	5256
914.357	5212
916.7346	5212
919.1115	5356
921.4859	5441
923.8616	5446
926.2347	5410
928.6071	5402
930.979	5470
933.3541	5554
935.7247	5413
938.0946	5511
940.4639	5622
942.8326	5638
945.2026	5750
947.5701	5855
949.9369	5988
952.305	6134
954.6705	6439
957.0355	6853
959.4017	6960
961.7654	7288
964.1284	7068
966.4908	6776
968.8527	6534
971.2138	6215
973.5743	5906
975.9343	5760
978.2936	5609
980.6522	5506
983.0122	5522
985.3696	5336
987.7245	5374
990.0807	5379
992.4362	5334
994.7911	5286
997.1474	5371
999.4991	5354
1001.852	5447
1004.205	5407
1006.555	5436
1008.908	5314
1011.258	5405
1013.606	5375
1015.956	5407
1018.302	5468
1020.652	5488
1022.998	5454
1025.345	5442
1027.691	5371
1030.035	5607
1032.378	5529
1034.724	5456
1037.066	5496
1039.409	5546
1041.75	5538
1044.092	5423
1046.433	5595
1048.771	5553
1051.112	5542
1053.449	5522
1055.786	5488
1058.124	5480
1060.462	5610
1062.797	5649
1065.131	5605
1067.467	5601
1069.8	5643
1072.135	5633
1074.467	5580
1076.798	5618
1079.129	5615
1081.459	5557
1083.792	5592
1086.121	5484
1088.449	5488
1090.777	5518
1093.104	5559
1095.431	5556
1097.759	5576
1100.084	5549
1102.408	5510
1104.732	5469
1107.056	5410
1109.379	5467
1111.701	5530
1114.022	5632
1116.343	5455
1118.664	5565
1120.983	5419
1123.303	5471
1125.621	5445
1127.939	5522
1130.256	5520
1132.573	5387
1134.889	5476
1137.205	5462
1139.52	5552
1141.832	5588
1144.146	5543
1146.461	5474
1148.771	5509
1151.083	5485
1153.392	5601
1155.703	5496
1158.011	5535
1160.323	5420
1162.629	5511
1164.938	5505
1167.243	5574
1169.55	5478
1171.857	5435
1174.163	5554
1176.466	5459
1178.769	5399
1181.073	5428
1183.374	5462
1185.677	5499
1187.979	5403
1190.279	5457
1192.578	5493
1194.878	5433
1197.178	5540
1199.476	5464
1201.772	5504
1204.068	5468
1206.366	5533
1208.663	5495
1210.957	5563
1213.251	5440
1215.544	5448
1217.836	5573
1220.128	5501
1222.421	5597
1224.712	5576
1227.002	5475
1229.292	5630
1231.581	5491
1233.871	5645
1236.159	5716
1238.446	5761
1240.732	5656
1243.018	5873
1245.304	5690
1247.59	5803
1249.874	5716
1252.156	5654
1254.439	5698
1256.721	5808
1259.005	5718
1261.286	5710
1263.565	5702
1265.845	5713
1268.125	5811
1270.403	5765
1272.682	5784
1274.959	5710
1277.234	5690
1279.511	5686
1281.787	5728
1284.062	5690
1286.337	5629
1288.609	5756
1290.882	5523
1293.153	5657
1295.428	5664
1297.698	5600
1299.969	5659
1302.237	5574
1304.507	5615
1306.777	5604
1309.044	5604
1311.312	5560
1313.578	5652
1315.844	5650
1318.109	5665
1320.375	5635
1322.638	5668
1324.903	5647
1327.165	5546
1329.427	5634
1331.69	5653
1333.952	5601
1336.212	5547
1338.471	5601
1340.73	5589
1342.988	5626
1345.248	5623
1347.505	5642
1349.763	5614
1352.019	5608
1354.274	5571
1356.53	5575
1358.784	5539
1361.038	5721
1363.291	5521
1365.543	5630
1367.797	5560
1370.048	5658
1372.296	5618
1374.546	5546
1376.796	5687
1379.045	5590
1381.295	5730
1383.542	5702
1385.787	5709
1388.034	5636
1390.28	5703
1392.527	5648
1394.772	5731
1397.014	5565
1399.258	5834
1401.501	5724
1403.741	5650
1405.985	5734
1408.226	5735
1410.465	5717
1412.705	5746
1414.943	5785
1417.184	5811
1419.42	5843
1421.658	5642
1423.894	5813
1426.13	5807
1428.366	5738
1430.602	5731
1432.835	5757
1435.069	5796
1437.301	5833
1439.535	5922
1441.767	5867
1443.997	5731
1446.229	5814
1448.458	5910
1450.687	5896
1452.916	6018
1455.146	5864
1457.372	5857
1459.599	5911
1461.824	5950
1464.051	5908
1466.277	5959
1468.501	5838
1470.725	5814
1472.948	5770
1475.17	5777
1477.393	5772
1479.614	5649
1481.837	5671
1484.057	5737
1486.276	5652
1488.497	5702
1490.715	5669
1492.932	5674
1495.148	5534
1497.364	5553
1499.58	5604
1501.798	5609
1504.012	5563
1506.227	5572
1508.44	5489
1510.653	5580
1512.866	5494
1515.078	5620
1517.289	5568
1519.5	5560
1521.711	5583
1523.92	5646
1526.13	5495
1528.338	5517
1530.544	5537
1532.752	5489
1534.959	5662
1537.165	5533
1539.371	5618
1541.574	5611
1543.779	5576
1545.983	5513
1548.187	5569
1550.39	5623
1552.59	5657
1554.792	5613
1556.991	5642
1559.19	5658
1561.392	5559
1563.59	5711
1565.789	5734
1567.986	5651
1570.182	5775
1572.381	5595
1574.576	5754
1576.771	5669
1578.966	5757
1581.16	5707
1583.354	5690
1585.546	5688
1587.74	5767
1589.931	5789
1592.121	5794
1594.311	5673
1596.502	5755
1598.693	5673
1600.881	5708
1603.069	5683
1605.256	5796
1607.445	5739
1609.631	5839
1611.816	5760
1614.001	5832
1616.186	5834
1618.37	5745
1620.555	5705
1622.737	5871
1624.919	5769
1627.101	5808
1629.282	5904
1631.463	5857
1633.643	5823
1635.822	5927
1638.001	5977
1640.179	5775
1642.359	5900
1644.534	5919
1646.711	5966
1648.887	5815
1651.062	5884
1653.235	5835
1655.412	5959
1657.586	5891
1659.757	5976
1661.93	5952
1664.1	6040
1666.274	5911
1668.445	5861
1670.614	5918
1672.784	5884
1674.951	5904
1677.12	6021
1679.289	5942
1681.457	5867
1683.622	5929
1685.789	5931
1687.953	5910
1690.121	5880
1692.284	5848
1694.447	5720
1696.611	5819
1698.772	5883
1700.935	5752
1703.098	5787
1705.258	5730
1707.417	5815
1709.576	5716
1711.736	5808
1713.896	5776
1716.053	5788
1718.21	5729
1720.366	5728
1722.522	5661
1724.68	5797
1726.835	5655
1728.989	5839
1731.142	5629
1733.295	5706
1735.449	5727
1737.601	5688
1739.753	5632
1741.903	5600
1744.054	5695
1746.203	5660
1748.354	5682
1750.503	5701
1752.651	5751
1754.798	5793
1756.944	5741
1759.092	5795
1761.238	5748
1763.383	5806
1765.528	5796
1767.672	5755
1769.814	5711
1771.959	5701
1774.102	5647
1776.242	5669
1778.384	5863
1780.525	5622
1782.665	5748
1784.805	5755
1786.945	5639
1789.082	5727
1791.22	5609
1793.36	5785
1795.495	5744
1797.632	5840
1799.766	5783
1801.902	5762
1804.035	5811
1806.172	5710
1808.304	5729
1810.436	5827
1812.569	5733
1814.699	5663
1816.833	5688
1818.963	5735
1821.092	5828
1823.222	5584
1825.35	5829
1827.478	5746
1829.608	5744
1831.734	5636
1833.86	5832
1835.986	5677
1838.11	5781
1840.238	5819
1842.362	5625
1844.485	5663
1846.608	5650
1848.73	5704
1850.853	5666
1852.974	5675
1855.097	5700
1857.217	5695
1859.336	5554
1861.455	5746
1863.576	5765
1865.693	5771
1867.811	5692
1869.926	5708
1872.042	5580
1874.16	5623
1876.275	5726
1878.39	5513
1880.504	5775
1882.618	5799
1884.731	5673
1886.843	5687
1888.956	5668
1891.067	5708
1893.178	5739
1895.287	5716
1897.399	5753
1899.508	5697
1901.617	5661
1903.724	5763
1905.832	5693
1907.941	5768
1910.046	5671
1912.152	5831
1914.256	5724
1916.361	5665
1918.464	5753
1920.57	5810
1922.672	5774
1924.775	5774
1926.876	5720
1928.978	5817
1931.08	5700
1933.181	5827
1935.28	5828
1937.38	5785
1939.478	5726
1941.577	5837
1943.675	5812
1945.771	5778
1947.867	5743
1949.964	5759
1952.058	5846
1954.154	5738
1956.248	5778
1958.343	5741
1960.435	5812
1962.527	5766
1964.62	5754
1966.711	5861
1968.802	5779
1970.892	5725
1972.983	5740
1975.072	5657
1977.162	5874
1979.25	5758
1981.337	5727
1983.424	5719
1985.51	5690
1987.598	5692
1989.683	5645
1991.768	5751
1993.852	5754
1995.934	5759
1998.019	5647
2000.102	5766
2002.184	5687
2004.266	5686
2006.347	5792
2008.427	5719
2010.508	5706
2012.587	5642
2014.666	5671
2016.745	5639
2018.821	5694
2020.9	5656
2022.977	5773
2025.052	5754
2027.128	5750
2029.204	5709
2031.277	5698
2033.353	5688
2035.425	5712
2037.499	5642
2039.57	5781
2041.642	5677
2043.714	5759
2045.786	5793
2047.855	5812
2049.925	5774
2051.993	5756
2054.064	5668
2056.132	5798
2058.2	5716
2060.266	5588
2062.332	5727
2064.398	5615
2066.465	5733
2068.529	5805
2070.592	5657
2072.657	5650
2074.719	5688
2076.783	5562
2078.845	5705
2080.907	5693
2082.968	5730
2085.028	5590
2087.087	5684
2089.148	5729
2091.207	5696
2093.264	5749
2095.322	5722
2097.379	5653
2099.439	5753
2101.495	5766
2103.55	5756
2105.605	5730
2107.658	5671
2109.713	5683
2111.767	5713
2113.82	5697
2115.872	5705
2117.924	5775
2119.975	5695
2122.028	5682
2124.078	5697
2126.126	5610
2128.176	5613
2130.225	5643
2132.275	5651
2134.321	5642
2136.368	5672
2138.415	5669
2140.461	5723
2142.505	5547
2144.552	5615
2146.597	5689
2148.64	5647
2150.684	5618
2152.725	5602
2154.77	5474
2156.811	5724
2158.852	5696
2160.894	5728
2162.933	5688
2164.973	5616
2167.013	5744
2169.051	5601
2171.089	5696
2173.126	5600
2175.164	5646
2177.201	5673
2179.236	5636
2181.273	5556
2183.307	5557
2185.341	5537
2187.377	5665
2189.41	5622
2191.442	5604
2193.473	5486
2195.506	5541
2197.539	5639
2199.569	5520
2201.598	5629
2203.628	5590
2205.656	5484
2207.686	5543
2209.716	5511
2211.743	5563
2213.769	5539
2215.796	5615
2217.821	5608
2219.848	5508
2221.873	5482
2223.897	5465
2225.921	5555
2227.944	5559
2229.967	5555
2231.991	5501
2234.011	5479
2236.032	5424
2238.053	5420
2240.073	5525
2242.094	5589
2244.114	5637
2246.131	5508
2248.149	5538
2250.167	5532
2252.186	5506
2254.201	5431
2256.218	5535
2258.233	5482
2260.247	5509
2262.262	5552
2264.278	5566
2266.29	5572
2268.303	5409
2270.315	5478
2272.327	5367
2274.341	5587
2276.35	5500
2278.361	5436
2280.37	5500
2282.38	5532
2284.388	5531
2286.397	5464
2288.405	5540
2290.412	5487
2292.419	5511
2294.425	5445
2296.431	5563
2298.437	5481
2300.441	5537
2302.445	5547
2304.449	5548
2306.453	5447
2308.455	5442
2310.457	5506
2312.459	5427
2314.46	5425
2316.46	5443
2318.461	5449
2320.46	5471
2322.458	5395
2324.458	5524
2326.456	5485
2328.455	5501
2330.451	5409
2332.447	5411
2334.443	5402
2336.438	5399
2338.433	5451
2340.429	5353
2342.422	5421
2344.416	5416
2346.408	5475
2348.399	5432
2350.393	5384
2352.384	5430
2354.375	5351
2356.365	5402
2358.355	5350
2360.344	5459
2362.333	5297
2364.322	5425
2366.309	5351
2368.295	5281
2370.282	5257
2372.27	5427
2374.256	5326
2376.24	5363
2378.225	5388
2380.208	5414
2382.194	5235
2384.177	5308
2386.159	5463
2388.142	5218
2390.122	5251
2392.105	5267
2394.085	5296
2396.066	5329
2398.044	5278
2400.024	5203
2402.002	5259
2403.982	5278
2405.959	5320
2407.935	5328
2409.913	5316
2411.888	5426
2413.865	5250
2415.84	5324
2417.814	5234
2419.788	5350
2421.762	5276
2423.735	5344
2425.708	5262
2427.68	5224
2429.651	5317
2431.623	5337
2433.593	5269
2435.564	5350
2437.533	5317
2439.502	5276
2441.47	5169
2443.438	5300
2445.406	5342
2447.373	5295
2449.34	5312
2451.305	5221
2453.271	5275
2455.235	5214
2457.201	5298
2459.165	5356
2461.129	5271
2463.092	5217
2465.054	5365
2467.018	5217
2468.978	5239
2470.939	5224
2472.899	5170
2474.86	5323
2476.819	5214
2478.778	5302
2480.737	5202
2482.695	5230
2484.653	5287
2486.609	5270
2488.567	5194
2490.524	5266
2492.478	5183
2494.433	5285
2496.387	5262
2498.343	5239
2500.297	5138
2502.249	5187
2504.202	5207
2506.153	5173
2508.105	5203
2510.057	5176
2512.008	5281
2513.957	5264
2515.906	5064
2517.855	5174
2519.805	5215
2521.754	5250
2523.7	5131
2525.647	5259
2527.594	5194
2529.54	5207
2531.486	5201
2533.431	5220
2535.376	5200
2537.32	5270
2539.263	5019
2541.207	5224
2543.151	5187
2545.093	5211
2547.034	5109
2548.975	5103
2550.917	5228
2552.856	5264
2554.796	5163
2556.735	5177
2558.673	5114
2560.611	5182
2562.55	5140
2564.487	5143
2566.424	5287
2568.36	5210
2570.296	5177
2572.232	5221
2574.167	5224
2576.101	5109
2578.035	5091
2579.969	5117
2581.902	5069
2583.834	5206
2585.766	5223
2587.698	5160
2589.628	5182
2591.557	5218
2593.489	5207
2595.419	5218
2597.348	5155
2599.275	5313
2601.204	5157
2603.131	5194
2605.059	5250
2606.986	5150
2608.911	5181
2610.837	5167
2612.76	5197
2614.687	5274
2616.61	5172
2618.534	5213
2620.457	5156
2622.38	5155
2624.302	5309
2626.225	5050
2628.145	5171
2630.067	5206
2631.986	5101
2633.906	5121
2635.827	5256
2637.745	5144
2639.662	5204
2641.581	5158
2643.498	5188
2645.415	5195
2647.331	5232
2649.248	5138
2651.163	5198
2653.077	5175
2654.993	5122
2656.906	5104
2658.821	5205
2660.733	5161
2662.646	5080
2664.557	5204
2666.47	5134
2668.381	5194
2670.291	5142
2672.201	5243
2674.11	5180
2676.021	5116
2677.929	5219
2679.837	5133
2681.745	5151
2683.652	5202
2685.56	5082
2687.466	5160
2689.371	5116
2691.276	5132
2693.181	5057
2695.085	5081
2696.991	5139
2698.893	5228
2700.796	5033
2702.698	5092
2704.601	5044
2706.502	5086
2708.404	5014
2710.304	5038
2712.203	5111
2714.103	5074
2716.003	5136
2717.902	5127
2719.8	4918
2721.697	5066
2723.594	4995
2725.49	4993
2727.389	5129
2729.283	5041
2731.179	5034
2733.073	5045
2734.968	5092
2736.863	5085
2738.757	5046
2740.649	5004
2742.541	5091
2744.433	5166
2746.324	5048
2748.216	5145
2750.107	5043
2751.997	5111
2753.886	5011
2755.776	5021
2757.666	5078
2759.553	4934
2761.44	5097
2763.327	5072
2765.215	5002
2767.102	5015
2768.988	5108
2770.873	4902
2772.757	5020
2774.641	5001
2776.525	5102
2778.41	4972
2780.292	5020
2782.175	5107
2784.057	4969
2785.938	4960
2787.821	5104
2789.701	5105
2791.581	5132
2793.461	4979
2795.34	4956
2797.219	4994
2799.099	4974
2800.975	4905
2802.853	5010
2804.73	4957
2806.606	5087
2808.484	5055
2810.358	4857
2812.233	4979
2814.108	5020
2815.981	4839
2817.857	4993
2819.73	4908
2821.602	4993
2823.474	4864
2825.346	4944
2827.217	5012
2829.089	5021
2830.959	4984
2832.829	4965
2834.698	5032
2836.567	5044
2838.436	5071
2840.305	4977
2842.172	5113
2844.04	5041
2845.905	5022
2847.772	4945
2849.639	5128
2851.503	5066
2853.369	5091
2855.232	5068
2857.096	4982
2858.961	5139
2860.824	5152
2862.686	5103
2864.547	5171
2866.41	5181
2868.272	5125
2870.132	5265
2871.992	5327
2873.851	5385
2875.711	5292
2877.57	5436
2879.429	5490
2881.287	5457
2883.144	5484
2885.001	5641
2886.857	5483
2888.714	5550
2890.57	5521
2892.425	5497
2894.279	5522
2896.133	5526
2897.987	5391
2899.842	5553
2901.694	5443
2903.547	5469
2905.397	5453
2907.249	5502
2909.101	5554
2910.952	5535
2912.802	5654
2914.652	5601
2916.5	5675
2918.35	5739
2920.198	5735
2922.045	5795
2923.893	5824
2925.74	5946
2927.585	5990
2929.433	6084
2931.279	6052
2933.123	6019
2934.968	6226
2936.811	6303
2938.656	6292
2940.5	6357
2942.342	6423
2944.185	6231
2946.026	6498
2947.87	6339
2949.71	6352
2951.549	6283
2953.39	6212
2955.229	6155
2957.069	6069
2958.908	5933
2960.746	5963
2962.584	5990
2964.421	5793
2966.257	5862
2968.094	5753
2969.931	5683
2971.766	5796
2973.601	5711
2975.435	5621
2977.27	5712
2979.105	5495
2980.938	5754
2982.77	5580
2984.602	5590
2986.434	5521
2988.267	5452
2990.097	5495
2991.927	5463
2993.757	5477
2995.587	5382
2997.417	5297
2999.246	5421
3001.074	5258
3002.902	5212
3004.729	5221
3006.556	5181
3008.384	4990
3010.21	5030
3012.036	5101
3013.861	5074
3015.684	4944
3017.51	4836
3019.334	4930
3021.157	4956
3022.981	4862
3024.802	4719
3026.624	4771
3028.448	4792
3030.267	4701
3032.088	4655
3033.909	4833
3035.728	4713
3037.549	4685
3039.368	4715
3041.186	4680
3043.004	4668
3044.821	4748
3046.64	4793
3048.455	4659
3050.272	4688
3052.087	4660
3053.903	4754
3055.717	4620
3057.534	4774
3059.347	4695
3061.16	4665
3062.974	4715
3064.785	4680
3066.598	4714
3068.411	4685
3070.222	4723
3072.032	4649
3073.844	4651
3075.653	4568
3077.463	4685
3079.272	4592
3081.08	4690
3082.889	4649
3084.697	4549
3086.505	4568
3088.312	4654
3090.118	4608
3091.924	4590
3093.729	4574
3095.535	4610
3097.34	4600
3099.144	4506
3100.947	4534
3102.75	4530
3104.553	4594
3106.357	4582
3108.159	4520
3109.961	4581
3111.762	4534
3113.562	4512
3115.365	4467
3117.164	4487
3118.964	4492
3120.761	4541
3122.56	4540
3124.36	4468
3126.158	4484
3127.954	4441
3129.75	4439
3131.547	4469
3133.343	4418
3135.139	4483
3136.934	4441
3138.729	4411
3140.522	4415
3142.317	4479
3144.11	4417
3145.904	4490
3147.695	4480
3149.488	4444
3151.28	4441
3153.07	4453
3154.863	4360
3156.652	4414
3158.441	4361
3160.231	4391
3162.019	4376
3163.81	4389
3165.597	4407
3167.384	4441
3169.172	4445
3170.958	4442
3172.745	4479
3174.532	4392
3176.317	4463
3178.101	4376
3179.885	4387
3181.67	4327
3183.455	4443
3185.238	4411
3187.02	4378
3188.802	4409
3190.585	4363
3192.368	4359
3194.149	4346
3195.929	4389
3197.709	4353
3199.489	4316
3201.268	4341
3203.048	4352
3204.826	4371
3206.604	4266
3208.382	4290
3210.159	4372
3211.937	4413
3213.713	4403
3215.489	4325
3217.263	4256
3219.038	4343
3220.815	4368
3222.589	4312
3224.363	4342
3226.136	4336
3227.908	4336
3229.681	4423
3231.454	4342
3233.226	4411
3234.996	4415
3236.767	4378
3238.538	4346
3240.308	4379
3242.078	4327
3243.847	4335
3245.615	4387
3247.384	4314
3249.15	4349
3250.92	4266
3252.686	4241
3254.453	4378
3256.218	4384
3257.984	4316
3259.75	4393
3261.515	4356
3263.279	4324
3265.044	4364
3266.806	4429
3268.57	4352
3270.334	4289
3272.095	4343
3273.856	4320
3275.619	4370
3277.379	4333
3279.14	4461
3280.9	4407
3282.661	4349
3284.419	4380
3286.178	4383
3287.937	4379
3289.695	4426
3291.453	4323
3293.21	4235
3294.967	4351
3296.723	4417
3298.48	4225
3300.235	4332
3301.99	4375
3303.744	4338
3305.498	4509
3307.253	4255
3309.006	4410
3310.759	4298
3312.511	4393
3314.263	4265
3316.017	4360
3317.768	4352
3319.519	4315
3321.268	4303
3323.018	4337
3324.767	4425
3326.518	4313
3328.267	4279
3330.014	4437
3331.762	4343
3333.509	4374
3335.258	4394
3337.003	4266
3338.75	4413
3340.496	4271
3342.24	4397
3343.987	4350
3345.732	4419
3347.475	4302
3349.219	4311
3350.961	4300
3352.705	4339
3354.448	4293
3356.19	4305
3357.931	4291
3359.672	4267
3361.412	4361
3363.155	4283
3364.894	4335
3366.633	4220
3368.372	4283
3370.11	4397
3371.849	4144
3373.588	4243
3375.325	4285
3377.061	4215
3378.799	4251
3380.534	4274
3382.271	4210
3384.006	4212
3385.741	4123
3387.475	4177
3389.209	4207
3390.944	4176
3392.677	4296
3394.409	4192
3396.143	4212
3397.874	4173
3399.606	4161
3401.338	4201
3403.069	4151
3404.799	4279
3406.528	4223
3408.258	4194
3409.988	4134
3411.717	4115
3413.445	4149
3415.173	4216
3416.899	4204
3418.626	4193
3420.354	4088
3422.08	4186
3423.806	4171
3425.531	4148
3427.255	4221
3428.981	4183
3430.705	4044
3432.429	4125
3434.151	4133
3435.875	4121
3437.599	4124
3439.321	4116
3441.042	4090
3442.763	4110
3444.483	4085
3446.204	4064
3447.926	4056
3449.645	4162
3451.364	4112
3453.082	4056
3454.801	4113
3456.52	3977
3458.238	3918
3459.954	3967
3461.671	4005
3463.387	4057
3465.104	4003
3466.82	3953
3468.534	4015
3470.25	4048
3471.963	3978
3473.676	3942
3475.392	4014
3477.104	3937
3478.817	3931
3480.528	4024
3482.241	3899
3483.954	3943
3485.664	3945
3487.374	3865
3489.084	3958
3490.795	4035
3492.504	3933
3494.214	3955
3495.922	3925
3497.63	3866
3499.338	3927
3501.045	3893
3502.753	3911
3504.459	3872
3506.166	3850
3507.871	3813
3509.576	3805
3511.283	3777
3512.987	3703
3514.691	3833
3516.395	3917
3518.098	3804
3519.8	3851
3521.504	3853
3523.206	3824
3524.908	3897
3526.609	3791
3528.309	3799
3530.011	3792
3531.711	3834
3533.411	3835
3535.109	3779
3536.808	3749
3538.507	3779
3540.206	3824
3541.904	3781
3543.601	3755
3545.297	3787
3546.994	3758
3548.69	3753
3550.387	3763
3552.081	3727
3553.776	3701
3555.47	3735
3557.166	3745
3558.859	3747
3560.553	3702
3562.245	3717
3563.938	3747
3565.629	3722
3567.322	3718
3569.014	3701
3570.704	3685
3572.394	3757
3574.084	3654
3575.775	3723
3577.464	3728
3579.152	3727
3580.842	3637
3582.529	3702
3584.216	3651
3585.905	3606
3587.591	3639
3589.279	3589
3590.964	3714
3592.649	3619
3594.336	3573
3596.021	3654
3597.705	3599
3599.388	3616
3601.072	3570
3602.757	3553
3604.439	3608
3606.122	3623
3607.803	3705
3609.485	3585
3611.167	3579
3612.849	3499
3614.529	3579
3616.208	3518
3617.888	3522
3619.567	3598
3621.247	3535
3622.926	3582
3624.603	3443
3626.281	3492
3627.958	3472
3629.635	3424
3631.312	3462
3632.989	3484
3634.665	3575
3636.339	3426
3638.014	3422
3639.691	3475
3641.364	3532
3643.038	3510
3644.71	3459
3646.384	3488
3648.058	3535
3649.729	3493
3651.402	3417
3653.073	3505
3654.744	3447
3656.414	3429
3658.085	3421
3659.755	3400
3661.424	3445
3663.094	3457
3664.762	3418
3666.431	3387
3668.099	3435
3669.766	3346
3671.433	3417
3673.099	3445
3674.768	3391
3676.433	3434
3678.098	3442
3679.763	3390
3681.428	3436
3683.093	3354
3684.757	3385
3686.421	3410
3688.083	3326
3689.746	3308
3691.408	3369
3693.071	3337
3694.733	3406
3696.394	3263
3698.054	3378
3699.715	3312
3701.375	3307
3703.036	3319
3704.695	3296
3706.354	3323
3708.012	3255
3709.67	3347
3711.329	3285
3712.987	3250
3714.644	3358
3716.299	3323
3717.955	3320
3719.613	3310
3721.268	3322
3722.923	3264
3724.577	3303
3726.231	3298
3727.885	3259
3729.539	3313
3731.192	3256
3732.845	3267
3734.497	3302
3736.149	3302
3737.802	3208
3739.453	3329
3741.104	3209
3742.753	3321
3744.404	3340
3746.052	3361
3747.704	3228
3749.352	3259
3751	3229
3752.648	3258
3754.296	3314
3755.944	3220
3757.59	3260
3759.238	3295
3760.883	3282
3762.528	3203
3764.176	3276
3765.82	3215
3767.464	3220
3769.109	3241
3770.753	3210
3772.396	3166
3774.04	3208
3775.683	3256
3777.325	3182
3778.967	3214
3780.608	3180
3782.25	3184
3783.89	3169
3785.531	3151
3787.17	3241
3788.81	3118
3790.45	3176
3792.09	3177
3793.729	3169
3795.366	3205
3797.003	3132
3798.64	3161
3800.278	3175
3801.915	3166
3803.551	3173
3805.187	3135
3806.822	3050
3808.458	3109
3810.093	3005
3811.726	3170
3813.36	3133
3814.994	3099
3816.627	3216
3818.262	3160
3819.893	3044
3821.525	3095
3823.157	3084
3824.787	3055
3826.42	3006
3828.051	3038
3829.68	3155
3831.31	3150
3832.938	3032
3834.569	3077
3836.198	3050
3837.825	3074
3839.454	3098
3841.08	3048
3842.708	3058
3844.335	3048
3845.962	3001
3847.587	3032
3849.212	3018
3850.838	3041
3852.463	3038
3854.089	3045
3855.712	3002
3857.335	3048
3858.959	3016
3860.582	3066
3862.205	2985
3863.827	3047
3865.449	3022
3867.07	3026
3868.691	2939
3870.312	3010
3871.933	3064
3873.553	3044
3875.173	2968
3876.792	2977
3878.411	2993
3880.03	3057
3881.647	3065
3883.265	3111
3884.882	3027
3886.499	2940
3888.116	2999
3889.732	2990
3891.348	2998
3892.964	2946
3894.579	2980
3896.195	2976
3897.809	3042
3899.423	2908
3901.036	2984
3902.648	3025
3904.261	2954
3905.875	2981
3907.487	2993
3909.099	2908
3910.709	2966
3912.321	3013
3913.933	3047
3915.542	3016
3917.152	2889
3918.762	2969
3920.37	2975
3921.98	2940
3923.589	2971
3925.196	2922
3926.804	2901
3928.41	2924
3930.018	3006
3931.626	2990
3933.231	2966
3934.838	2968
3936.442	2987
3938.046	2957
3939.653	2950
3941.257	2955
3942.861	2929
3944.464	2942
3946.068	3050
3947.67	2938
3949.273	2894
3950.876	2955
3952.477	2943
3954.078	2906
3955.678	2915
3957.281	2904
3958.881	2851
3960.48	2909
3962.079	2902
3963.678	2908
3965.279	2932
3966.877	2922
3968.475	2934
3970.072	2904
3971.669	2881
3973.266	2830
3974.864	2919
3976.459	2936
3978.055	2930
3979.65	2797
3981.245	2810
3982.841	2858
3984.436	2906
3986.03	2870
3987.623	2854
3989.216	2872
3990.809	2917
3992.403	2777
3993.995	2820
3995.586	2790
3997.177	2863
3998.768	2826
4000.361	2791
4001.951	2855
4003.54	2840
4005.13	2852
4006.719	2865
4008.31	2833
4009.897	2783
4011.485	2781
4013.073	2817
4014.66	2840
4016.247	2807
4017.834	2746
4019.421	2751
4021.006	2797
4022.592	2783
4024.178	2758
4025.763	2754
4027.348	2764
4028.932	2747
4030.515	2745
4032.099	2736
4033.682	2717
4035.266	2726
4036.847	2758
4038.429	2761
4040.011	2744
4041.592	2745
4043.173	2730
4044.755	2720
4046.334	2798
4047.913	2739
4049.494	2781
4051.074	2684
4052.652	2723
4054.23	2733
4055.807	2735
4057.385	2756
4058.963	2713
4060.541	2703
4062.117	2670
4063.693	2739
4065.269	2658
4066.844	2713
4068.42	2731
4069.995	2630
4071.569	2657
4073.143	2679
4074.716	2704
4076.291	2626
4077.864	2665
4079.436	2672
4081.009	2710
4082.58	2621
4084.152	2672
4085.723	2651
4087.294	2700
4088.865	2613
4090.435	2741
4092.005	2649
4093.574	2646
4095.143	2653
4096.712	2674
4098.279	2659
4099.848	2650
4101.416	2604
4102.984	2682
4104.55	2619
4106.117	2591
4107.682	2670
4109.248	2635
4110.815	2602
4112.379	2642
4113.945	2641
4115.508	2607
4117.073	2632
4118.637	2658
4120.201	2579
4121.763	2598
4123.325	2651
4124.888	2585
4126.449	2558
4128.013	2596
4129.573	2576
4131.133	2586
4132.694	2613
4134.254	2582
4135.814	2594
4137.374	2560
4138.933	2567
4140.491	2553
4142.049	2591
4143.607	2490
4145.167	2599
4146.724	2525
4148.28	2504
4149.836	2578
4151.392	2501
4152.949	2552
4154.504	2634
4156.059	2552
4157.614	2572
4159.168	2528
4160.723	2485
4162.277	2538
4163.83	2532
4165.383	2536
4166.936	2453
4168.488	2494
4170.041	2513
4171.593	2507
4173.144	2478
4174.695	2454
4176.246	2557
4177.796	2585
4179.346	2523
4180.896	2505
4182.445	2489
4183.994	2478
4185.542	2512
4187.091	2419
4188.639	2486
4190.185	2548
4191.732	2435
4193.279	2549
4194.826	2419
4196.373	2488
4197.918	2409
4199.463	2428
4201.008	2508
4202.553	2474
4204.098	2450
4205.641	2413
4207.185	2388
4208.728	2424
4210.271	2422
4211.814	2409
4213.357	2503
4214.898	2444
4216.439	2490
4217.98	2409
4219.522	2372
4221.062	2420
4222.603	2461
4224.142	2477
4225.681	2421
4227.222	2374
4228.76	2438
4230.298	2439
4231.835	2360
4233.373	2413
4234.911	2373
4236.449	2431
4237.985	2396
4239.521	2460
4241.057	2405
4242.592	2379
4244.128	2423
4245.663	2421
4247.197	2368
4248.731	2383
4250.265	2415
4251.798	2369
4253.333	2418
4254.865	2449
4256.397	2413
4257.93	2428
4259.461	2329
4260.994	2400
4262.525	2399
4264.056	2328
4265.586	2386
4267.115	2435
4268.646	2335
4270.176	2352
4271.705	2413
4273.232	2346
4274.761	2343
4276.289	2397
4277.818	2345
4279.345	2371
4280.872	2457
4282.399	2307
4283.924	2396
4285.452	2363
4286.976	2366
4288.502	2300
4290.026	2360
4291.551	2357
4293.074	2304
4294.6	2306
4296.123	2268
4297.646	2331
4299.168	2404
4300.691	2320
4302.214	2284
4303.736	2248
4305.257	2311
4306.778	2328
4308.299	2321
4309.82	2288
4311.34	2336
4312.86	2312
4314.379	2344
