400.0745	3810
402.597	3840
405.1208	3841
407.6419	3866
410.1623	3873
412.6819	3817
415.201	3843
417.7172	3860
420.2369	3913
422.7538	4000
425.2701	4007
427.7856	4031
430.3005	4055
432.8147	4069
435.3282	4050
437.841	4058
440.3511	4046
442.8625	4089
445.3753	4031
447.8854	4166
450.3927	4107
452.9014	4071
455.4073	4116
457.9146	4017
460.4233	4077
462.9272	4046
465.4325	4086
467.935	3981
470.4389	4106
472.9421	4016
475.4446	4058
477.9444	4091
480.4456	4065
482.944	4051
485.4417	4179
487.9429	4083
490.4393	4192
492.935	4159
495.4321	4224
497.9264	4197
500.4221	4143
502.9171	4234
505.4094	4230
507.9011	4249
510.392	4201
512.8864	4228
515.3759	4263
517.8649	4232
520.3531	4275
522.8406	4216
525.3275	4234
527.8178	4222
530.3033	4214
532.7881	4270
535.2723	4220
537.7558	4259
540.2407	4340
542.7228	4206
545.2043	4250
547.6851	4336
550.1652	4295
552.6467	4207
555.1255	4247
557.6016	4265
560.079	4227
562.5557	4301
565.0318	4316
567.5092	4248
569.984	4235
572.456	4254
574.9294	4323
577.4022	4397
579.8762	4388
582.3456	4479
584.8163	4344
587.2863	4506
589.7557	4345
592.2224	4377
594.6924	4385
597.1578	4452
599.6245	4406
602.0905	4415
604.5538	4431
607.0206	4410
609.4825	4482
611.9459	4391
614.4066	4411
616.8686	4372
619.33	4361
621.7906	4460
624.2487	4464
626.708	4386
629.1647	4393
631.6207	4338
634.0801	4309
636.5348	4468
638.9888	4340
641.4442	4328
643.8969	4399
646.3509	4430
648.8022	4365
651.255	4480
653.705	4384
656.1544	4404
658.6031	4386
661.0532	4547
663.5026	4496
665.9493	4523
668.3954	4492
670.8409	4445
673.2877	4401
675.7318	4562
678.1752	4610
680.618	4534
683.0601	4570
685.5035	4583
687.9444	4559
690.3845	4509
692.824	4525
695.2628	4478
697.701	4605
700.1406	4627
702.5774	4600
705.0116	4634
707.4472	4620
709.8821	4606
712.3183	4573
714.7519	4588
717.1829	4625
719.6151	4561
722.0468	4710
724.4777	4690
726.908	4717
729.3377	4709
731.7667	4756
734.1931	4753
736.6208	4699
739.0498	4816
741.4742	4663
743.9	4756
746.3231	4794
748.7476	4808
751.1713	4744
753.5945	4745
756.015	4793
758.4368	4838
760.856	4782
763.2766	4762
765.6965	4805
768.1157	4720
770.5323	4862
772.9483	4876
775.3656	4880
777.7822	4835
780.1963	4821
782.6116	4905
785.0244	4878
787.4365	4850
789.8499	4858
792.2626	4812
794.6728	4850
797.0823	4843
799.4911	4772
801.8994	4850
804.3109	4875
806.7178	4845
809.124	4842
811.5297	4930
813.9347	4892
816.341	4888
818.7447	4944
821.1478	4982
823.5502	4929
825.952	4924
828.3531	5079
830.7556	4885
833.1554	5072
835.5546	5012
837.9532	5081
840.3511	4998
842.7504	5035
845.1451	5003
847.5411	5051
849.9365	5075
852.3312	5020
854.7272	5091
857.1187	5157
859.5115	5034
861.9037	5068
864.2952	5090
866.6842	4938
869.0764	4942
871.4661	5069
873.8531	5068
876.2415	5059
878.6272	5053
881.0162	5051
883.4026	5004
885.7866	5041
888.1717	5099
890.5543	5079
892.9382	5051
895.3215	4979
897.7041	5109
900.0842	5055
902.4655	5044
904.8443	4996
907.2244	5024
909.6039	5114
911.9808	5085
914.357	5175
916.7346	5082
919.1115	5400
921.4859	5285
923.8616	5295
926.2347	5371
928.6071	5290
930.979	5388
933.3541	5230
935.7247	5398
938.0946	5340
940.4639	5418
942.8326	5299
945.2026	5407
947.5701	5417
949.9369	5629
952.305	5725
954.6705	5816
957.0355	6050
959.4017	6199
961.7654	6356
964.1284	6253
966.4908	6187
968.8527	6077
971.2138	5911
973.5743	5649
975.9343	5542
978.2936	5257
980.6522	5316
983.0122	5242
985.3696	5300
987.7245	5197
990.0807	5142
992.4362	5199
994.7911	5150
997.1474	5278
999.4991	5112
1001.852	5291
1004.205	5248
1006.555	5284
1008.908	5215
1011.258	5288
1013.606	5160
1015.956	5263
1018.302	5305
1020.652	5148
1022.998	5239
1025.345	5246
1027.691	5211
1030.035	5191
1032.378	5324
1034.724	5332
1037.066	5289
1039.409	5296
1041.75	5278
1044.092	5267
1046.433	5375
1048.771	5346
1051.112	5348
1053.449	5403
1055.786	5276
1058.124	5401
1060.462	5301
1062.797	5326
1065.131	5422
1067.467	5331
1069.8	5303
1072.135	5444
1074.467	5467
1076.798	5340
1079.129	5319
1081.459	5306
1083.792	5452
1086.121	5264
1088.449	5354
1090.777	5280
1093.104	5249
1095.431	5254
1097.759	5215
1100.084	5273
1102.408	5250
1104.732	5368
1107.056	5291
1109.379	5320
1111.701	5339
1114.022	5400
1116.343	5335
1118.664	5271
1120.983	5362
1123.303	5370
1125.621	5417
1127.939	5318
1130.256	5341
1132.573	5343
1134.889	5368
1137.205	5289
1139.52	5318
1141.832	5265
1144.146	5296
1146.461	5251
1148.771	5267
1151.083	5250
1153.392	5280
1155.703	5481
1158.011	5359
1160.323	5279
1162.629	5279
1164.938	5292
1167.243	5329
1169.55	5377
1171.857	5360
1174.163	5351
1176.466	5361
1178.769	5355
1181.073	5265
1183.374	5315
1185.677	5388
1187.979	5415
1190.279	5242
1192.578	5238
1194.878	5375
1197.178	5397
1199.476	5311
1201.772	5409
1204.068	5450
1206.366	5446
1208.663	5326
1210.957	5281
1213.251	5411
1215.544	5441
1217.836	5329
1220.128	5406
1222.421	5311
1224.712	5252
1227.002	5444
1229.292	5436
1231.581	5404
1233.871	5420
1236.159	5505
1238.446	5455
1240.732	5571
1243.018	5574
1245.304	5553
1247.59	5524
1249.874	5597
1252.156	5528
1254.439	5619
1256.721	5579
1259.005	5538
1261.286	5551
1263.565	5577
1265.845	5600
1268.125	5636
1270.403	5491
1272.682	5492
1274.959	5614
1277.234	5607
1279.511	5653
1281.787	5462
1284.062	5468
1286.337	5564
1288.609	5521
1290.882	5476
1293.153	5374
1295.428	5366
1297.698	5465
1299.969	5393
1302.237	5513
1304.507	5449
1306.777	5496
1309.044	5538
1311.312	5530
1313.578	5403
1315.844	5487
1318.109	5467
1320.375	5437
1322.638	5508
1324.903	5501
1327.165	5437
1329.427	5367
1331.69	5354
1333.952	5522
1336.212	5542
1338.471	5472
1340.73	5515
1342.988	5460
1345.248	5444
1347.505	5522
1349.763	5444
1352.019	5461
1354.274	5349
1356.53	5510
1358.784	5375
1361.038	5447
1363.291	5416
1365.543	5494
1367.797	5569
1370.048	5477
1372.296	5495
1374.546	5531
1376.796	5420
1379.045	5507
1381.295	5410
1383.542	5526
1385.787	5460
1388.034	5572
1390.28	5512
1392.527	5567
1394.772	5740
1397.014	5635
1399.258	5670
1401.501	5785
1403.741	5655
1405.985	5681
1408.226	5560
1410.465	5530
1412.705	5611
1414.943	5613
1417.184	5625
1419.42	5644
1421.658	5624
1423.894	5708
1426.13	5615
1428.366	5573
1430.602	5670
1432.835	5692
1435.069	5747
1437.301	5794
1439.535	5724
1441.767	5727
1443.997	5715
1446.229	5740
1448.458	5769
1450.687	5732
1452.916	5881
1455.146	5907
1457.372	5896
1459.599	5823
1461.824	5672
1464.051	5827
1466.277	5719
1468.501	5729
1470.725	5653
1472.948	5514
1475.17	5625
1477.393	5645
1479.614	5539
1481.837	5563
1484.057	5617
1486.276	5469
1488.497	5360
1490.715	5499
1492.932	5340
1495.148	5418
1497.364	5396
1499.58	5431
1501.798	5433
1504.012	5457
1506.227	5403
1508.44	5527
1510.653	5310
1512.866	5507
1515.078	5447
1517.289	5433
1519.5	5444
1521.711	5467
1523.92	5517
1526.13	5340
1528.338	5368
1530.544	5345
1532.752	5354
1534.959	5437
1537.165	5425
1539.371	5538
1541.574	5474
1543.779	5483
1545.983	5452
1548.187	5445
1550.39	5488
1552.59	5467
1554.792	5579
1556.991	5496
1559.19	5474
1561.392	5584
1563.59	5502
1565.789	5469
1567.986	5635
1570.182	5470
1572.381	5532
1574.576	5660
1576.771	5598
1578.966	5519
1581.16	5596
1583.354	5643
1585.546	5678
1587.74	5607
1589.931	5632
1592.121	5590
1594.311	5701
1596.502	5636
1598.693	5567
1600.881	5503
1603.069	5551
1605.256	5586
1607.445	5630
1609.631	5630
1611.816	5634
1614.001	5579
1616.186	5611
1618.37	5660
1620.555	5509
1622.737	5594
1624.919	5626
1627.101	5584
1629.282	5727
1631.463	5639
1633.643	5751
1635.822	5702
1638.001	5686
1640.179	5758
1642.359	5576
1644.534	5723
1646.711	5825
1648.887	5611
1651.062	5691
1653.235	5666
1655.412	5626
1657.586	5672
1659.757	5737
1661.93	5748
1664.1	5831
1666.274	5754
1668.445	5805
1670.614	5794
1672.784	5707
1674.951	5725
1677.12	5678
1679.289	5761
1681.457	5620
1683.622	5793
1685.789	5693
1687.953	5770
1690.121	5634
1692.284	5685
1694.447	5672
1696.611	5676
1698.772	5615
1700.935	5514
1703.098	5514
1705.258	5582
1707.417	5654
1709.576	5504
1711.736	5615
1713.896	5577
1716.053	5555
1718.21	5668
1720.366	5557
1722.522	5577
1724.68	5629
1726.835	5492
1728.989	5639
1731.142	5597
1733.295	5484
1735.449	5689
1737.601	5614
1739.753	5626
1741.903	5548
1744.054	5620
1746.203	5469
1748.354	5522
1750.503	5515
1752.651	5615
1754.798	5430
1756.944	5607
1759.092	5656
1761.238	5547
1763.383	5613
1765.528	5714
1767.672	5528
1769.814	5640
1771.959	5489
1774.102	5533
1776.242	5597
1778.384	5639
1780.525	5618
1782.665	5568
1784.805	5568
1786.945	5593
1789.082	5616
1791.22	5713
1793.36	5649
1795.495	5629
1797.632	5566
1799.766	5645
1801.902	5488
1804.035	5638
1806.172	5606
1808.304	5674
1810.436	5689
1812.569	5608
1814.699	5636
1816.833	5604
1818.963	5617
1821.092	5689
1823.222	5529
1825.35	5614
1827.478	5631
1829.608	5612
1831.734	5537
1833.86	5574
1835.986	5614
1838.11	5547
1840.238	5635
1842.362	5588
1844.485	5607
1846.608	5593
1848.73	5625
1850.853	5633
1852.974	5512
1855.097	5576
1857.217	5416
1859.336	5611
1861.455	5583
1863.576	5632
1865.693	5631
1867.811	5620
1869.926	5557
1872.042	5548
1874.16	5557
1876.275	5656
1878.39	5567
1880.504	5514
1882.618	5534
1884.731	5532
1886.843	5596
1888.956	5605
1891.067	5537
1893.178	5643
1895.287	5587
1897.399	5596
1899.508	5600
1901.617	5611
1903.724	5693
1905.832	5689
1907.941	5606
1910.046	5502
1912.152	5598
1914.256	5725
1916.361	5592
1918.464	5609
1920.57	5579
1922.672	5770
1924.775	5715
1926.876	5606
1928.978	5639
1931.08	5689
1933.181	5656
1935.28	5660
1937.38	5558
1939.478	5694
1941.577	5699
1943.675	5607
1945.771	5566
1947.867	5644
1949.964	5545
1952.058	5711
1954.154	5554
1956.248	5592
1958.343	5599
1960.435	5648
1962.527	5774
1964.62	5594
1966.711	5636
1968.802	5700
1970.892	5650
1972.983	5712
1975.072	5603
1977.162	5663
1979.25	5640
1981.337	5689
1983.424	5727
1985.51	5678
1987.598	5599
1989.683	5599
1991.768	5542
1993.852	5648
1995.934	5576
1998.019	5556
2000.102	5540
2002.184	5580
2004.266	5589
2006.347	5687
2008.427	5672
2010.508	5584
2012.587	5687
2014.666	5550
2016.745	5593
2018.821	5606
2020.9	5650
2022.977	5639
2025.052	5616
2027.128	5613
2029.204	5585
2031.277	5579
2033.353	5627
2035.425	5655
2037.499	5644
2039.57	5592
2041.642	5651
2043.714	5472
2045.786	5555
2047.855	5583
2049.925	5664
2051.993	5503
2054.064	5646
2056.132	5548
2058.2	5621
2060.266	5706
2062.332	5687
2064.398	5575
2066.465	5671
2068.529	5630
2070.592	5542
2072.657	5619
2074.719	5698
2076.783	5637
2078.845	5632
2080.907	5622
2082.968	5585
2085.028	5596
2087.087	5618
2089.148	5656
2091.207	5593
2093.264	5647
2095.322	5664
2097.379	5623
2099.439	5566
2101.495	5677
2103.55	5695
2105.605	5592
2107.658	5677
2109.713	5677
2111.767	5534
2113.82	5570
2115.872	5654
2117.924	5556
2119.975	5652
2122.028	5634
2124.078	5589
2126.126	5551
2128.176	5581
2130.225	5574
2132.275	5592
2134.321	5628
2136.368	5600
2138.415	5703
2140.461	5575
2142.505	5660
2144.552	5630
2146.597	5576
2148.64	5646
2150.684	5555
2152.725	5694
2154.77	5579
2156.811	5549
2158.852	5652
2160.894	5604
2162.933	5555
2164.973	5558
2167.013	5574
2169.051	5484
2171.089	5566
2173.126	5477
2175.164	5563
2177.201	5498
2179.236	5564
2181.273	5527
2183.307	5467
2185.341	5491
2187.377	5542
2189.41	5511
2191.442	5540
2193.473	5483
2195.506	5501
2197.539	5454
2199.569	5467
2201.598	5532
2203.628	5495
2205.656	5477
2207.686	5444
2209.716	5472
2211.743	5384
2213.769	5498
2215.796	5437
2217.821	5492
2219.848	5366
2221.873	5421
2223.897	5455
2225.921	5512
2227.944	5518
2229.967	5455
2231.991	5419
2234.011	5491
2236.032	5520
2238.053	5458
2240.073	5494
2242.094	5410
2244.114	5446
2246.131	5490
2248.149	5441
2250.167	5454
2252.186	5437
2254.201	5475
2256.218	5481
2258.233	5473
2260.247	5509
2262.262	5379
2264.278	5444
2266.29	5548
2268.303	5515
2270.315	5385
2272.327	5476
2274.341	5448
2276.35	5392
2278.361	5470
2280.37	5579
2282.38	5532
2284.388	5491
2286.397	5554
2288.405	5472
2290.412	5434
2292.419	5497
2294.425	5545
2296.431	5480
2298.437	5520
2300.441	5312
2302.445	5432
2304.449	5486
2306.453	5434
2308.455	5329
2310.457	5462
2312.459	5429
2314.46	5494
2316.46	5516
2318.461	5379
2320.46	5387
2322.458	5445
2324.458	5338
2326.456	5449
2328.455	5424
2330.451	5346
2332.447	5397
2334.443	5334
2336.438	5391
2338.433	5400
2340.429	5444
2342.422	5473
2344.416	5397
2346.408	5416
2348.399	5379
2350.393	5378
2352.384	5346
2354.375	5351
2356.365	5388
2358.355	5275
2360.344	5319
2362.333	5308
2364.322	5452
2366.309	5352
2368.295	5389
2370.282	5426
2372.27	5284
2374.256	5345
2376.24	5387
2378.225	5331
2380.208	5223
2382.194	5163
2384.177	5263
2386.159	5364
2388.142	5298
2390.122	5266
2392.105	5339
2394.085	5324
2396.066	5256
2398.044	5294
2400.024	5360
2402.002	5200
2403.982	5254
2405.959	5298
2407.935	5290
2409.913	5335
2411.888	5232
2413.865	5269
2415.84	5285
2417.814	5271
2419.788	5224
2421.762	5274
2423.735	5243
2425.708	5302
2427.68	5232
2429.651	5265
2431.623	5144
2433.593	5285
2435.564	5285
2437.533	5226
2439.502	5423
2441.47	5306
2443.438	5362
2445.406	5245
2447.373	5190
2449.34	5256
2451.305	5225
2453.271	5343
2455.235	5290
2457.201	5292
2459.165	5279
2461.129	5177
2463.092	5203
2465.054	5257
2467.018	5179
2468.978	5257
2470.939	5182
2472.899	5191
2474.86	5212
2476.819	5178
2478.778	5244
2480.737	5136
2482.695	5151
2484.653	5241
2486.609	5204
2488.567	5209
2490.524	5104
2492.478	5126
2494.433	5219
2496.387	5192
2498.343	5225
2500.297	5316
2502.249	5166
2504.202	5211
2506.153	5183
2508.105	5180
2510.057	5122
2512.008	5176
2513.957	5217
2515.906	5193
2517.855	5201
2519.805	5196
2521.754	5162
2523.7	5187
2525.647	5114
2527.594	5233
2529.54	5169
2531.486	5094
2533.431	5177
2535.376	5149
2537.32	5133
2539.263	5199
2541.207	5154
2543.151	5172
2545.093	5098
2547.034	5135
2548.975	5104
2550.917	5065
2552.856	5118
2554.796	5134
2556.735	5164
2558.673	5205
2560.611	5091
2562.55	4997
2564.487	5172
2566.424	5119
2568.36	5110
2570.296	5129
2572.232	5164
2574.167	5162
2576.101	5072
2578.035	5170
2579.969	5082
2581.902	5076
2583.834	5162
2585.766	5091
2587.698	5138
2589.628	5115
2591.557	5214
2593.489	5088
2595.419	5138
2597.348	5149
2599.275	5145
2601.204	5082
2603.131	5165
2605.059	5116
2606.986	5125
2608.911	5197
2610.837	5184
2612.76	5145
2614.687	5140
2616.61	5098
2618.534	5188
2620.457	5116
2622.38	4997
2624.302	5124
2626.225	5084
2628.145	5207
2630.067	5181
2631.986	5127
2633.906	5173
2635.827	5159
2637.745	5193
2639.662	5222
2641.581	5160
2643.498	5187
2645.415	5099
2647.331	5084
2649.248	5066
2651.163	5130
2653.077	5143
2654.993	5161
2656.906	5047
2658.821	5163
2660.733	5138
2662.646	5133
2664.557	5142
2666.47	5101
2668.381	5069
2670.291	5170
2672.201	5092
2674.11	5121
2676.021	5064
2677.929	5091
2679.837	5098
2681.745	5019
2683.652	5119
2685.56	5122
2687.466	5081
2689.371	5128
2691.276	4987
2693.181	5033
2695.085	5105
2696.991	5073
2698.893	5219
2700.796	5025
2702.698	5068
2704.601	5097
2706.502	5010
2708.404	5091
2710.304	4978
2712.203	4944
2714.103	4927
2716.003	5064
2717.902	5059
2719.8	5028
2721.697	4963
2723.594	5008
2725.49	4934
2727.389	4952
2729.283	5032
2731.179	5036
2733.073	4970
2734.968	5002
2736.863	4946
2738.757	5007
2740.649	4992
2742.541	4969
2744.433	5051
2746.324	4914
2748.216	5029
2750.107	4978
2751.997	4943
2753.886	4967
2755.776	5053
2757.666	4976
2759.553	4937
2761.44	5070
2763.327	4954
2765.215	4950
2767.102	5096
2768.988	4970
2770.873	4955
2772.757	5037
2774.641	4950
2776.525	4921
2778.41	4930
2780.292	4960
2782.175	4995
2784.057	4958
2785.938	4866
2787.821	5009
2789.701	4906
2791.581	4896
2793.461	4995
2795.34	4924
2797.219	4904
2799.099	4913
2800.975	4901
2802.853	4978
2804.73	4917
2806.606	4894
2808.484	4957
2810.358	4864
2812.233	4858
2814.108	4989
2815.981	4904
2817.857	4934
2819.73	4903
2821.602	4878
2823.474	4939
2825.346	4844
2827.217	4834
2829.089	4913
2830.959	4880
2832.829	4851
2834.698	4947
2836.567	4980
2838.436	4889
2840.305	4870
2842.172	4803
2844.04	4939
2845.905	4887
2847.772	4905
2849.639	4956
2851.503	4966
2853.369	5000
2855.232	4981
2857.096	4978
2858.961	4856
2860.824	5034
2862.686	5083
2864.547	5164
2866.41	5111
2868.272	5072
2870.132	5145
2871.992	5181
2873.851	5210
2875.711	5240
2877.57	5243
2879.429	5315
2881.287	5380
2883.144	5343
2885.001	5374
2886.857	5412
2888.714	5391
2890.57	5484
2892.425	5414
2894.279	5552
2896.133	5344
2897.987	5447
2899.842	5472
2901.694	5388
2903.547	5424
2905.397	5332
2907.249	5362
2909.101	5469
2910.952	5255
2912.802	5453
2914.652	5411
2916.5	5366
2918.35	5543
2920.198	5438
2922.045	5448
2923.893	5532
2925.74	5632
2927.585	5750
2929.433	5754
2931.279	5619
2933.123	5694
2934.968	5748
2936.811	5747
2938.656	5869
2940.5	5773
2942.342	5848
2944.185	5952
2946.026	6001
2947.87	5951
2949.71	6019
2951.549	5977
2953.39	6005
2955.229	5799
2957.069	5847
2958.908	5838
2960.746	5879
2962.584	5806
2964.421	5773
2966.257	5752
2968.094	5595
2969.931	5636
2971.766	5556
2973.601	5419
2975.435	5443
2977.27	5386
2979.105	5381
2980.938	5436
2982.77	5205
2984.602	5293
2986.434	5198
2988.267	5334
2990.097	5280
2991.927	5090
2993.757	5103
2995.587	5098
2997.417	4954
2999.246	5021
3001.074	4970
3002.902	4973
3004.729	4949
3006.556	4933
3008.384	4864
3010.21	4824
3012.036	4848
3013.861	4781
3015.684	4789
3017.51	4699
3019.334	4700
3021.157	4776
3022.981	4743
3024.802	4666
3026.624	4584
3028.448	4708
3030.267	4671
3032.088	4729
3033.909	4567
3035.728	4598
3037.549	4572
3039.368	4567
3041.186	4585
3043.004	4611
3044.821	4564
3046.64	4564
3048.455	4460
3050.272	4533
3052.087	4550
3053.903	4610
3055.717	4534
3057.534	4605
3059.347	4531
3061.16	4476
3062.974	4576
3064.785	4621
3066.598	4579
3068.411	4550
3070.222	4541
3072.032	4600
3073.844	4543
3075.653	4579
3077.463	4570
3079.272	4479
3081.08	4482
3082.889	4436
3084.697	4385
3086.505	4480
3088.312	4481
3090.118	4571
3091.924	4429
3093.729	4462
3095.535	4451
3097.34	4447
3099.144	4400
3100.947	4480
3102.75	4372
3104.553	4420
3106.357	4382
3108.159	4423
3109.961	4373
3111.762	4435
3113.562	4454
3115.365	4338
3117.164	4348
3118.964	4392
3120.761	4341
3122.56	4389
3124.36	4417
3126.158	4294
3127.954	4354
3129.75	4309
3131.547	4356
3133.343	4390
3135.139	4339
3136.934	4291
3138.729	4345
3140.522	4311
3142.317	4359
3144.11	4245
3145.904	4293
3147.695	4324
3149.488	4281
3151.28	4308
3153.07	4395
3154.863	4322
3156.652	4311
3158.441	4183
3160.231	4306
3162.019	4222
3163.81	4264
3165.597	4337
3167.384	4191
3169.172	4257
3170.958	4209
3172.745	4211
3174.532	4304
3176.317	4277
3178.101	4297
3179.885	4224
3181.67	4230
3183.455	4185
3185.238	4250
3187.02	4265
3188.802	4130
3190.585	4294
3192.368	4290
3194.149	4126
3195.929	4301
3197.709	4170
3199.489	4234
3201.268	4280
3203.048	4236
3204.826	4215
3206.604	4202
3208.382	4142
3210.159	4169
3211.937	4242
3213.713	4210
3215.489	4183
3217.263	4176
3219.038	4168
3220.815	4223
3222.589	4196
3224.363	4146
3226.136	4184
3227.908	4203
3229.681	4159
3231.454	4157
3233.226	4231
3234.996	4146
3236.767	4324
3238.538	4210
3240.308	4236
3242.078	4195
3243.847	4125
3245.615	4148
3247.384	4178
3249.15	4240
3250.92	4145
3252.686	4194
3254.453	4099
3256.218	4145
3257.984	4176
3259.75	4128
3261.515	4123
3263.279	4179
3265.044	4162
3266.806	4210
3268.57	4163
3270.334	4137
3272.095	4120
3273.856	4210
3275.619	4213
3277.379	4163
3279.14	4219
3280.9	4221
3282.661	4109
3284.419	4257
3286.178	4164
3287.937	4216
3289.695	4151
3291.453	4139
3293.21	4165
3294.967	4140
3296.723	4125
3298.48	4222
3300.235	4167
3301.99	4186
3303.744	4072
3305.498	4126
3307.253	4229
3309.006	4221
3310.759	4237
3312.511	4177
3314.263	4256
3316.017	4136
3317.768	4248
3319.519	4056
3321.268	4174
3323.018	4091
3324.767	4120
3326.518	4158
3328.267	4169
3330.014	4162
3331.762	4137
3333.509	4112
3335.258	4180
3337.003	4137
3338.75	4208
3340.496	4163
3342.24	4065
3343.987	4161
3345.732	4186
3347.475	4138
3349.219	4184
3350.961	3980
3352.705	4035
3354.448	4065
3356.19	4056
3357.931	4077
3359.672	4050
3361.412	4038
3363.155	4112
3364.894	4048
3366.633	4086
3368.372	4045
3370.11	3961
3371.849	4106
3373.588	4058
3375.325	3996
3377.061	3994
3378.799	4084
3380.534	4037
3382.271	3994
3384.006	4041
3385.741	3971
3387.475	4006
3389.209	4105
3390.944	4061
3392.677	3994
3394.409	4050
3396.143	4036
3397.874	4032
3399.606	4075
3401.338	3941
3403.069	4033
3404.799	3963
3406.528	3947
3408.258	4042
3409.988	4005
3411.717	4079
3413.445	3989
3415.173	3978
3416.899	4025
3418.626	4011
3420.354	3943
3422.08	3942
3423.806	3972
3425.531	3945
3427.255	3943
3428.981	3872
3430.705	3919
3432.429	3922
3434.151	3948
3435.875	3973
3437.599	3931
3439.321	3954
3441.042	3884
3442.763	3942
3444.483	3890
3446.204	3871
3447.926	3901
3449.645	3797
3451.364	3795
3453.082	3973
3454.801	3756
3456.52	3890
3458.238	3815
3459.954	3852
3461.671	3816
3463.387	3767
3465.104	3797
3466.82	3855
3468.534	3789
3470.25	3795
3471.963	3854
3473.676	3780
3475.392	3768
3477.104	3777
3478.817	3776
3480.528	3757
3482.241	3722
3483.954	3787
3485.664	3727
3487.374	3744
3489.084	3729
3490.795	3715
3492.504	3759
3494.214	3774
3495.922	3762
3497.63	3731
3499.338	3700
3501.045	3681
3502.753	3710
3504.459	3805
3506.166	3730
3507.871	3745
3509.576	3669
3511.283	3605
3512.987	3628
3514.691	3630
3516.395	3702
3518.098	3675
3519.8	3678
3521.504	3677
3523.206	3650
3524.908	3751
3526.609	3655
3528.309	3601
3530.011	3663
3531.711	3627
3533.411	3716
3535.109	3624
3536.808	3605
3538.507	3643
3540.206	3607
3541.904	3609
3543.601	3521
3545.297	3585
3546.994	3578
3548.69	3545
3550.387	3605
3552.081	3700
3553.776	3509
3555.47	3629
3557.166	3579
3558.859	3569
3560.553	3576
3562.245	3605
3563.938	3584
3565.629	3525
3567.322	3576
3569.014	3578
3570.704	3600
3572.394	3619
3574.084	3573
3575.775	3556
3577.464	3513
3579.152	3500
3580.842	3506
3582.529	3428
3584.216	3485
3585.905	3503
3587.591	3542
3589.279	3492
3590.964	3494
3592.649	3411
3594.336	3478
3596.021	3430
3597.705	3474
3599.388	3433
3601.072	3478
3602.757	3492
3604.439	3468
3606.122	3523
3607.803	3475
3609.485	3422
3611.167	3349
3612.849	3399
3614.529	3472
3616.208	3388
3617.888	3366
3619.567	3428
3621.247	3346
3622.926	3394
3624.603	3364
3626.281	3423
3627.958	3421
3629.635	3372
3631.312	3266
3632.989	3339
3634.665	3418
3636.339	3369
3638.014	3418
3639.691	3345
3641.364	3353
3643.038	3403
3644.71	3302
3646.384	3299
3648.058	3335
3649.729	3332
3651.402	3265
3653.073	3331
3654.744	3325
3656.414	3220
3658.085	3375
3659.755	3281
3661.424	3297
3663.094	3368
3664.762	3191
3666.431	3313
3668.099	3316
3669.766	3346
3671.433	3335
3673.099	3226
3674.768	3284
3676.433	3294
3678.098	3281
3679.763	3258
3681.428	3288
3683.093	3296
3684.757	3180
3686.421	3257
3688.083	3279
3689.746	3246
3691.408	3267
3693.071	3307
3694.733	3254
3696.394	3277
3698.054	3243
3699.715	3243
3701.375	3263
3703.036	3220
3704.695	3185
3706.354	3277
3708.012	3284
3709.67	3129
3711.329	3260
3712.987	3302
3714.644	3243
3716.299	3213
3717.955	3166
3719.613	3223
3721.268	3255
3722.923	3192
3724.577	3142
3726.231	3121
3727.885	3183
3729.539	3198
3731.192	3156
3732.845	3232
3734.497	3219
3736.149	3214
3737.802	3113
3739.453	3217
3741.104	3175
3742.753	3181
3744.404	3181
3746.052	3169
3747.704	3191
3749.352	3137
3751	3209
3752.648	3252
3754.296	3169
3755.944	3087
3757.59	3142
3759.238	3152
3760.883	3138
3762.528	3146
3764.176	3123
3765.82	3133
3767.464	3178
3769.109	3120
3770.753	3044
3772.396	3117
3774.04	3126
3775.683	3174
3777.325	3109
3778.967	3091
3780.608	3120
3782.25	3045
3783.89	3139
3785.531	3120
3787.17	3173
3788.81	3016
3790.45	3119
3792.09	3124
3793.729	3087
3795.366	3115
3797.003	3014
3798.64	3094
3800.278	3013
3801.915	3006
3803.551	3036
3805.187	3009
3806.822	3053
3808.458	3058
3810.093	2975
3811.726	3022
3813.36	3039
3814.994	2999
3816.627	3042
3818.262	3079
3819.893	3016
3821.525	3000
3823.157	3011
3824.787	2958
3826.42	3051
3828.051	3015
3829.68	2984
3831.31	3052
3832.938	3016
3834.569	3004
3836.198	2948
3837.825	3014
3839.454	3018
3841.08	3040
3842.708	3038
3844.335	2987
3845.962	2970
3847.587	3062
3849.212	2970
3850.838	2998
3852.463	3001
3854.089	3018
3855.712	3002
3857.335	2885
3858.959	2941
3860.582	2914
3862.205	2969
3863.827	2943
3865.449	2894
3867.07	2992
3868.691	3010
3870.312	2954
3871.933	2944
3873.553	2907
3875.173	2945
3876.792	2928
3878.411	2914
3880.03	2953
3881.647	2908
3883.265	2962
3884.882	2914
3886.499	3004
3888.116	2954
3889.732	2958
3891.348	2933
3892.964	2909
3894.579	2924
3896.195	2958
3897.809	2871
3899.423	2902
3901.036	2869
3902.648	2850
3904.261	2808
3905.875	2914
3907.487	2903
3909.099	2779
3910.709	2881
3912.321	2865
3913.933	2896
3915.542	2788
3917.152	2905
3918.762	2892
3920.37	2884
3921.98	2888
3923.589	2851
3925.196	2863
3926.804	2838
3928.41	2877
3930.018	2913
3931.626	2827
3933.231	2941
3934.838	2832
3936.442	2910
3938.046	2876
3939.653	2934
3941.257	2791
3942.861	2909
3944.464	2795
3946.068	2855
3947.67	2793
3949.273	2811
3950.876	2839
3952.477	2882
3954.078	2804
3955.678	2763
3957.281	2874
3958.881	2794
3960.48	2848
3962.079	2719
3963.678	2773
3965.279	2769
3966.877	2833
3968.475	2852
3970.072	2781
3971.669	2757
3973.266	2747
3974.864	2812
3976.459	2719
3978.055	2728
3979.65	2812
3981.245	2829
3982.841	2807
3984.436	2719
3986.03	2757
3987.623	2824
3989.216	2753
3990.809	2818
3992.403	2709
3993.995	2762
3995.586	2765
3997.177	2717
3998.768	2745
4000.361	2662
4001.951	2745
4003.54	2701
4005.13	2708
4006.719	2759
4008.31	2724
4009.897	2665
4011.485	2738
4013.073	2682
4014.66	2758
4016.247	2626
4017.834	2701
4019.421	2681
4021.006	2600
4022.592	2638
4024.178	2726
4025.763	2625
4027.348	2675
4028.932	2646
4030.515	2699
4032.099	2614
4033.682	2651
4035.266	2676
4036.847	2708
4038.429	2664
4040.011	2707
4041.592	2683
4043.173	2642
4044.755	2660
4046.334	2671
4047.913	2690
4049.494	2609
4051.074	2704
4052.652	2611
4054.23	2585
4055.807	2635
4057.385	2626
4058.963	2621
4060.541	2600
4062.117	2626
4063.693	2617
4065.269	2588
4066.844	2612
4068.42	2615
4069.995	2572
4071.569	2616
4073.143	2566
4074.716	2575
4076.291	2618
4077.864	2581
4079.436	2572
4081.009	2635
4082.58	2559
4084.152	2582
4085.723	2537
4087.294	2571
4088.865	2611
4090.435	2560
4092.005	2662
4093.574	2564
4095.143	2628
4096.712	2453
4098.279	2560
4099.848	2583
4101.416	2545
4102.984	2552
4104.55	2570
4106.117	2561
4107.682	2541
4109.248	2575
4110.815	2554
4112.379	2582
4113.945	2521
4115.508	2552
4117.073	2511
4118.637	2566
4120.201	2526
4121.763	2566
4123.325	2474
4124.888	2490
4126.449	2471
4128.013	2548
4129.573	2511
4131.133	2525
4132.694	2485
4134.254	2498
4135.814	2493
4137.374	2461
4138.933	2524
4140.491	2549
4142.049	2455
4143.607	2459
4145.167	2446
4146.724	2463
4148.28	2461
4149.836	2470
4151.392	2518
4152.949	2488
4154.504	2429
4156.059	2437
4157.614	2429
4159.168	2545
4160.723	2515
4162.277	2410
4163.83	2436
4165.383	2444
4166.936	2386
4168.488	2441
4170.041	2414
4171.593	2448
4173.144	2426
4174.695	2451
4176.246	2452
4177.796	2441
4179.346	2441
4180.896	2386
4182.445	2369
4183.994	2360
4185.542	2396
4187.091	2411
4188.639	2407
4190.185	2374
4191.732	2416
4193.279	2407
4194.826	2410
4196.373	2415
4197.918	2400
4199.463	2352
4201.008	2349
4202.553	2330
4204.098	2409
4205.641	2345
4207.185	2407
4208.728	2384
4210.271	2387
4211.814	2379
4213.357	2315
4214.898	2359
4216.439	2391
4217.98	2324
4219.522	2319
4221.062	2340
4222.603	2387
4224.142	2365
4225.681	2248
4227.222	2362
4228.76	2341
4230.298	2360
4231.835	2306
4233.373	2379
4234.911	2289
4236.449	2311
4237.985	2262
4239.521	2301
4241.057	2352
4242.592	2367
4244.128	2280
4245.663	2284
4247.197	2311
4248.731	2356
4250.265	2291
4251.798	2368
4253.333	2297
4254.865	2289
4256.397	2293
4257.93	2292
4259.461	2324
4260.994	2279
4262.525	2312
4264.056	2259
4265.586	2310
4267.115	2300
4268.646	2305
4270.176	2321
4271.705	2291
4273.232	2234
4274.761	2295
4276.289	2278
4277.818	2340
4279.345	2237
4280.872	2321
4282.399	2220
4283.924	2286
4285.452	2284
4286.976	2238
4288.502	2274
4290.026	2237
4291.551	2208
4293.074	2224
4294.6	2243
4296.123	2231
4297.646	2264
4299.168	2220
4300.691	2216
4302.214	2248
4303.736	2173
4305.257	2285
4306.778	2222
4308.299	2215
4309.82	2247
4311.34	2244
4312.86	2237
4314.379	2244
