400.0745	4966
402.597	4975
405.1208	4924
407.6419	4851
410.1623	4924
412.6819	4952
415.201	5019
417.7172	5099
420.2369	5009
422.7538	5130
425.2701	5146
427.7856	5225
430.3005	5221
432.8147	5234
435.3282	5149
437.841	5164
440.3511	5162
442.8625	5242
445.3753	5273
447.8854	5253
450.3927	5194
452.9014	5191
455.4073	5239
457.9146	5232
460.4233	5234
462.9272	5135
465.4325	5263
467.935	5171
470.4389	5179
472.9421	5232
475.4446	5226
477.9444	5228
480.4456	5232
482.944	5293
485.4417	5232
487.9429	5351
490.4393	5226
492.935	5313
495.4321	5335
497.9264	5317
500.4221	5396
502.9171	5397
505.4094	5448
507.9011	5485
510.392	5437
512.8864	5379
515.3759	5382
517.8649	5467
520.3531	5510
522.8406	5405
525.3275	5423
527.8178	5349
530.3033	5436
532.7881	5508
535.2723	5507
537.7558	5472
540.2407	5367
542.7228	5418
545.2043	5520
547.6851	5489
550.1652	5578
552.6467	5403
555.1255	5615
557.6016	5509
560.079	5478
562.5557	5609
565.0318	5485
567.5092	5616
569.984	5605
572.456	5510
574.9294	5660
577.4022	5619
579.8762	5748
582.3456	5605
584.8163	5631
587.2863	5673
589.7557	5727
592.2224	5678
594.6924	5691
597.1578	5685
599.6245	5700
602.0905	5688
604.5538	5725
607.0206	5702
609.4825	5669
611.9459	5719
614.4066	5667
616.8686	5618
619.33	5649
621.7906	5685
624.2487	5646
626.708	5709
629.1647	5652
631.6207	5640
634.0801	5656
636.5348	5660
638.9888	5648
641.4442	5581
643.8969	5672
646.3509	5707
648.8022	5762
651.255	5821
653.705	5674
656.1544	5766
658.6031	5718
661.0532	5754
663.5026	5770
665.9493	5802
668.3954	5730
670.8409	5786
673.2877	5825
675.7318	5698
678.1752	5914
680.618	5898
683.0601	5849
685.5035	5838
687.9444	5900
690.3845	5834
692.824	5964
695.2628	5910
697.701	5880
700.1406	5956
702.5774	5848
705.0116	5860
707.4472	5876
709.8821	5916
712.3183	6097
714.7519	6002
717.1829	5937
719.6151	5966
722.0468	6026
724.4777	6048
726.908	6109
729.3377	6031
731.7667	5996
734.1931	6118
736.6208	6121
739.0498	6120
741.4742	6188
743.9	6152
746.3231	6270
748.7476	6145
751.1713	6156
753.5945	6238
756.015	6229
758.4368	6281
760.856	6198
763.2766	6344
765.6965	6320
768.1157	6294
770.5323	6265
772.9483	6370
775.3656	6276
777.7822	6515
780.1963	6369
782.6116	6402
785.0244	6248
787.4365	6338
789.8499	6192
792.2626	6328
794.6728	6361
797.0823	6386
799.4911	6388
801.8994	6382
804.3109	6336
806.7178	6286
809.124	6301
811.5297	6496
813.9347	6461
816.341	6456
818.7447	6448
821.1478	6451
823.5502	6446
825.952	6504
828.3531	6461
830.7556	6366
833.1554	6475
835.5546	6397
837.9532	6393
840.3511	6470
842.7504	6458
845.1451	6463
847.5411	6374
849.9365	6444
852.3312	6591
854.7272	6549
857.1187	6582
859.5115	6516
861.9037	6480
864.2952	6517
866.6842	6552
869.0764	6561
871.4661	6518
873.8531	6525
876.2415	6569
878.6272	6504
881.0162	6617
883.4026	6429
885.7866	6585
888.1717	6468
890.5543	6413
892.9382	6538
895.3215	6409
897.7041	6536
900.0842	6458
902.4655	6459
904.8443	6561
907.2244	6515
909.6039	6610
911.9808	6579
914.357	6692
916.7346	6608
919.1115	6695
921.4859	6686
923.8616	6757
926.2347	6829
928.6071	6727
930.979	6871
933.3541	6750
935.7247	6905
938.0946	6911
940.4639	6829
942.8326	6975
945.2026	6985
947.5701	7125
949.9369	7173
952.305	7374
954.6705	7615
957.0355	7659
959.4017	7805
961.7654	7861
964.1284	7890
966.4908	7758
968.8527	7520
971.2138	7297
973.5743	7173
975.9343	6978
978.2936	6812
980.6522	6874
983.0122	6652
985.3696	6719
987.7245	6665
990.0807	6763
992.4362	6689
994.7911	6808
997.1474	6774
999.4991	6778
1001.852	6781
1004.205	6735
1006.555	6640
1008.908	6816
1011.258	6834
1013.606	6762
1015.956	6827
1018.302	6760
1020.652	6825
1022.998	6833
1025.345	6758
1027.691	6844
1030.035	6830
1032.378	6966
1034.724	6907
1037.066	6888
1039.409	6828
1041.75	6816
1044.092	6886
1046.433	6831
1048.771	6787
1051.112	6919
1053.449	6948
1055.786	6920
1058.124	6885
1060.462	6812
1062.797	6993
1065.131	7012
1067.467	6868
1069.8	6984
1072.135	7065
1074.467	6997
1076.798	6868
1079.129	6897
1081.459	7031
1083.792	7018
1086.121	6925
1088.449	6995
1090.777	6878
1093.104	6856
1095.431	6878
1097.759	6988
1100.084	6832
1102.408	6817
1104.732	6972
1107.056	6970
1109.379	6886
1111.701	6801
1114.022	6909
1116.343	7003
1118.664	6881
1120.983	6965
1123.303	6898
1125.621	6878
1127.939	6934
1130.256	6980
1132.573	6919
1134.889	6906
1137.205	6949
1139.52	6928
1141.832	6931
1144.146	6947
1146.461	6938
1148.771	6933
1151.083	6782
1153.392	6946
1155.703	6841
1158.011	6999
1160.323	6989
1162.629	7018
1164.938	6917
1167.243	7005
1169.55	6968
1171.857	6920
1174.163	6823
1176.466	6974
1178.769	6911
1181.073	6882
1183.374	6922
1185.677	6866
1187.979	6938
1190.279	6939
1192.578	6881
1194.878	6992
1197.178	6885
1199.476	6974
1201.772	7036
1204.068	6874
1206.366	6953
1208.663	6991
1210.957	6819
1213.251	7060
1215.544	6911
1217.836	6977
1220.128	6897
1222.421	6984
1224.712	6960
1227.002	7064
1229.292	7039
1231.581	7096
1233.871	7175
1236.159	7135
1238.446	7138
1240.732	7164
1243.018	7197
1245.304	7181
1247.59	7093
1249.874	7202
1252.156	7113
1254.439	7150
1256.721	7183
1259.005	7156
1261.286	7281
1263.565	7093
1265.845	7147
1268.125	7215
1270.403	7116
1272.682	7165
1274.959	7147
1277.234	7277
1279.511	7196
1281.787	7116
1284.062	7197
1286.337	7088
1288.609	7178
1290.882	6997
1293.153	7061
1295.428	7098
1297.698	7104
1299.969	7023
1302.237	6962
1304.507	7055
1306.777	7097
1309.044	7090
1311.312	7062
1313.578	7014
1315.844	7207
1318.109	7077
1320.375	7069
1322.638	7133
1324.903	7148
1327.165	7083
1329.427	7091
1331.69	6986
1333.952	7095
1336.212	7051
1338.471	7041
1340.73	7097
1342.988	7097
1345.248	7158
1347.505	7099
1349.763	7121
1352.019	6987
1354.274	6955
1356.53	7216
1358.784	7153
1361.038	7187
1363.291	7038
1365.543	7154
1367.797	7082
1370.048	7117
1372.296	7165
1374.546	7055
1376.796	7165
1379.045	7004
1381.295	7200
1383.542	7201
1385.787	7149
1388.034	7107
1390.28	7129
1392.527	7156
1394.772	7180
1397.014	7145
1399.258	7202
1401.501	7303
1403.741	7274
1405.985	7170
1408.226	7211
1410.465	7168
1412.705	7220
1414.943	7099
1417.184	7291
1419.42	7218
1421.658	7301
1423.894	7343
1426.13	7145
1428.366	7214
1430.602	7309
1432.835	7346
1435.069	7343
1437.301	7362
1439.535	7355
1441.767	7289
1443.997	7363
1446.229	7340
1448.458	7281
1450.687	7335
1452.916	7394
1455.146	7432
1457.372	7393
1459.599	7443
1461.824	7338
1464.051	7319
1466.277	7285
1468.501	7305
1470.725	7366
1472.948	7174
1475.17	7334
1477.393	7238
1479.614	7262
1481.837	7153
1484.057	7199
1486.276	7107
1488.497	7152
1490.715	7108
1492.932	7188
1495.148	7099
1497.364	7007
1499.58	7196
1501.798	7024
1504.012	7181
1506.227	6931
1508.44	7014
1510.653	7025
1512.866	6981
1515.078	6899
1517.289	7050
1519.5	7133
1521.711	6972
1523.92	6994
1526.13	6942
1528.338	7051
1530.544	7020
1532.752	7007
1534.959	7131
1537.165	7135
1539.371	7229
1541.574	6985
1543.779	7087
1545.983	7002
1548.187	6999
1550.39	7199
1552.59	7120
1554.792	7077
1556.991	7077
1559.19	7118
1561.392	7167
1563.59	6993
1565.789	7205
1567.986	7235
1570.182	7252
1572.381	7229
1574.576	7220
1576.771	7245
1578.966	7315
1581.16	7210
1583.354	7274
1585.546	7281
1587.74	7317
1589.931	7183
1592.121	7249
1594.311	7318
1596.502	7336
1598.693	7337
1600.881	7338
1603.069	7234
1605.256	7286
1607.445	7340
1609.631	7423
1611.816	7342
1614.001	7238
1616.186	7143
1618.37	7386
1620.555	7190
1622.737	7305
1624.919	7396
1627.101	7349
1629.282	7289
1631.463	7462
1633.643	7398
1635.822	7310
1638.001	7354
1640.179	7454
1642.359	7337
1644.534	7376
1646.711	7312
1648.887	7387
1651.062	7346
1653.235	7363
1655.412	7380
1657.586	7419
1659.757	7380
1661.93	7404
1664.1	7416
1666.274	7380
1668.445	7449
1670.614	7362
1672.784	7444
1674.951	7409
1677.12	7393
1679.289	7321
1681.457	7285
1683.622	7451
1685.789	7356
1687.953	7321
1690.121	7364
1692.284	7334
1694.447	7340
1696.611	7390
1698.772	7370
1700.935	7245
1703.098	7380
1705.258	7232
1707.417	7319
1709.576	7223
1711.736	7271
1713.896	7062
1716.053	7244
1718.21	7157
1720.366	7268
1722.522	7298
1724.68	7172
1726.835	7287
1728.989	7166
1731.142	7272
1733.295	7111
1735.449	7098
1737.601	7193
1739.753	7224
1741.903	7198
1744.054	7144
1746.203	7095
1748.354	7177
1750.503	7202
1752.651	7273
1754.798	7217
1756.944	7309
1759.092	7183
1761.238	7250
1763.383	7208
1765.528	7215
1767.672	7363
1769.814	7285
1771.959	7351
1774.102	7319
1776.242	7243
1778.384	7288
1780.525	7392
1782.665	7246
1784.805	7354
1786.945	7332
1789.082	7230
1791.22	7414
1793.36	7309
1795.495	7255
1797.632	7278
1799.766	7358
1801.902	7321
1804.035	7151
1806.172	7261
1808.304	7255
1810.436	7313
1812.569	7327
1814.699	7325
1816.833	7165
1818.963	7274
1821.092	7287
1823.222	7270
1825.35	7255
1827.478	7342
1829.608	7309
1831.734	7233
1833.86	7272
1835.986	7286
1838.11	7317
1840.238	7284
1842.362	7233
1844.485	7177
1846.608	7236
1848.73	7163
1850.853	7337
1852.974	7232
1855.097	7126
1857.217	7296
1859.336	7201
1861.455	7235
1863.576	7182
1865.693	7241
1867.811	7240
1869.926	7314
1872.042	7126
1874.16	7192
1876.275	7257
1878.39	7160
1880.504	7155
1882.618	7274
1884.731	7202
1886.843	7268
1888.956	7170
1891.067	7264
1893.178	7185
1895.287	7144
1897.399	7229
1899.508	7116
1901.617	7211
1903.724	7251
1905.832	7379
1907.941	7338
1910.046	7309
1912.152	7271
1914.256	7375
1916.361	7223
1918.464	7260
1920.57	7330
1922.672	7275
1924.775	7299
1926.876	7294
1928.978	7361
1931.08	7203
1933.181	7362
1935.28	7308
1937.38	7289
1939.478	7344
1941.577	7267
1943.675	7322
1945.771	7206
1947.867	7463
1949.964	7284
1952.058	7325
1954.154	7333
1956.248	7340
1958.343	7197
1960.435	7438
1962.527	7210
1964.62	7278
1966.711	7285
1968.802	7294
1970.892	7306
1972.983	7343
1975.072	7282
1977.162	7262
1979.25	7361
1981.337	7284
1983.424	7272
1985.51	7381
1987.598	7223
1989.683	7197
1991.768	7270
1993.852	7341
1995.934	7311
1998.019	7312
2000.102	7220
2002.184	7256
2004.266	7237
2006.347	7277
2008.427	7235
2010.508	7261
2012.587	7181
2014.666	7193
2016.745	7185
2018.821	7183
2020.9	7090
2022.977	7168
2025.052	7358
2027.128	7147
2029.204	7163
2031.277	7090
2033.353	7125
2035.425	7354
2037.499	7123
2039.57	7214
2041.642	7080
2043.714	7217
2045.786	7134
2047.855	7214
2049.925	7233
2051.993	7113
2054.064	7280
2056.132	7202
2058.2	7243
2060.266	7107
2062.332	7177
2064.398	7077
2066.465	7240
2068.529	7175
2070.592	7133
2072.657	7232
2074.719	7251
2076.783	7040
2078.845	7184
2080.907	7236
2082.968	7178
2085.028	7190
2087.087	7194
2089.148	7155
2091.207	7210
2093.264	7162
2095.322	7214
2097.379	7197
2099.439	7203
2101.495	7215
2103.55	7152
2105.605	7252
2107.658	7121
2109.713	7174
2111.767	7095
2113.82	7300
2115.872	7219
2117.924	7226
2119.975	7105
2122.028	7205
2124.078	7144
2126.126	7127
2128.176	7167
2130.225	7132
2132.275	7159
2134.321	7199
2136.368	7104
2138.415	7127
2140.461	7245
2142.505	7206
2144.552	7219
2146.597	7063
2148.64	7245
2150.684	7061
2152.725	7231
2154.77	7157
2156.811	7188
2158.852	7093
2160.894	7068
2162.933	7052
2164.973	7141
2167.013	7216
2169.051	6993
2171.089	7098
2173.126	6997
2175.164	7116
2177.201	7058
2179.236	7131
2181.273	7118
2183.307	6922
2185.341	7061
2187.377	7116
2189.41	7002
2191.442	6977
2193.473	7093
2195.506	6955
2197.539	7001
2199.569	7077
2201.598	6897
2203.628	7047
2205.656	6945
2207.686	6864
2209.716	6942
2211.743	6928
2213.769	6948
2215.796	7007
2217.821	6945
2219.848	7062
2221.873	6962
2223.897	6913
2225.921	6827
2227.944	7026
2229.967	6858
2231.991	6898
2234.011	7023
2236.032	6983
2238.053	6879
2240.073	6981
2242.094	6883
2244.114	6910
2246.131	6996
2248.149	6827
2250.167	6858
2252.186	6945
2254.201	6866
2256.218	6953
2258.233	6947
2260.247	7001
2262.262	6903
2264.278	6943
2266.29	7014
2268.303	6853
2270.315	7012
2272.327	6895
2274.341	6964
2276.35	6897
2278.361	6961
2280.37	6943
2282.38	6952
2284.388	6973
2286.397	6919
2288.405	7007
2290.412	6932
2292.419	7019
2294.425	7015
2296.431	6855
2298.437	6950
2300.441	6860
2302.445	6979
2304.449	6984
2306.453	7017
2308.455	6875
2310.457	6845
2312.459	6912
2314.46	6958
2316.46	6882
2318.461	6723
2320.46	6950
2322.458	6932
2324.458	6943
2326.456	6746
2328.455	6746
2330.451	6851
2332.447	6723
2334.443	6915
2336.438	6849
2338.433	6806
2340.429	6851
2342.422	6775
2344.416	6768
2346.408	6861
2348.399	6742
2350.393	6808
2352.384	6718
2354.375	6760
2356.365	6742
2358.355	6802
2360.344	6617
2362.333	6847
2364.322	6867
2366.309	6700
2368.295	6721
2370.282	6767
2372.27	6718
2374.256	6646
2376.24	6818
2378.225	6673
2380.208	6578
2382.194	6709
2384.177	6658
2386.159	6715
2388.142	6741
2390.122	6574
2392.105	6724
2394.085	6617
2396.066	6660
2398.044	6586
2400.024	6773
2402.002	6680
2403.982	6702
2405.959	6635
2407.935	6726
2409.913	6604
2411.888	6659
2413.865	6627
2415.84	6619
2417.814	6593
2419.788	6682
2421.762	6532
2423.735	6592
2425.708	6644
2427.68	6621
2429.651	6663
2431.623	6608
2433.593	6612
2435.564	6662
2437.533	6632
2439.502	6731
2441.47	6742
2443.438	6653
2445.406	6500
2447.373	6696
2449.34	6703
2451.305	6739
2453.271	6560
2455.235	6715
2457.201	6603
2459.165	6656
2461.129	6615
2463.092	6608
2465.054	6591
2467.018	6647
2468.978	6538
2470.939	6555
2472.899	6489
2474.86	6501
2476.819	6554
2478.778	6525
2480.737	6659
2482.695	6496
2484.653	6644
2486.609	6523
2488.567	6542
2490.524	6564
2492.478	6435
2494.433	6580
2496.387	6469
2498.343	6418
2500.297	6465
2502.249	6381
2504.202	6452
2506.153	6536
2508.105	6568
2510.057	6564
2512.008	6463
2513.957	6435
2515.906	6379
2517.855	6451
2519.805	6517
2521.754	6455
2523.7	6588
2525.647	6463
2527.594	6455
2529.54	6544
2531.486	6440
2533.431	6511
2535.376	6570
2537.32	6541
2539.263	6425
2541.207	6558
2543.151	6395
2545.093	6318
2547.034	6502
2548.975	6474
2550.917	6526
2552.856	6457
2554.796	6453
2556.735	6447
2558.673	6495
2560.611	6454
2562.55	6459
2564.487	6440
2566.424	6427
2568.36	6592
2570.296	6420
2572.232	6491
2574.167	6547
2576.101	6438
2578.035	6477
2579.969	6435
2581.902	6393
2583.834	6536
2585.766	6457
2587.698	6373
2589.628	6388
2591.557	6287
2593.489	6459
2595.419	6595
2597.348	6432
2599.275	6469
2601.204	6382
2603.131	6432
2605.059	6395
2606.986	6463
2608.911	6487
2610.837	6513
2612.76	6431
2614.687	6433
2616.61	6352
2618.534	6391
2620.457	6479
2622.38	6394
2624.302	6550
2626.225	6393
2628.145	6452
2630.067	6416
2631.986	6521
2633.906	6442
2635.827	6541
2637.745	6518
2639.662	6415
2641.581	6352
2643.498	6498
2645.415	6543
2647.331	6411
2649.248	6530
2651.163	6419
2653.077	6559
2654.993	6312
2656.906	6519
2658.821	6481
2660.733	6405
2662.646	6498
2664.557	6433
2666.47	6456
2668.381	6364
2670.291	6422
2672.201	6353
2674.11	6406
2676.021	6445
2677.929	6357
2679.837	6412
2681.745	6377
2683.652	6358
2685.56	6345
2687.466	6355
2689.371	6319
2691.276	6368
2693.181	6354
2695.085	6319
2696.991	6222
2698.893	6408
2700.796	6364
2702.698	6396
2704.601	6390
2706.502	6301
2708.404	6277
2710.304	6293
2712.203	6325
2714.103	6246
2716.003	6312
2717.902	6304
2719.8	6222
2721.697	6298
2723.594	6217
2725.49	6307
2727.389	6217
2729.283	6369
2731.179	6163
2733.073	6238
2734.968	6213
2736.863	6219
2738.757	6239
2740.649	6399
2742.541	6252
2744.433	6316
2746.324	6258
2748.216	6174
2750.107	6264
2751.997	6237
2753.886	6245
2755.776	6166
2757.666	6250
2759.553	6277
2761.44	6272
2763.327	6318
2765.215	6320
2767.102	6251
2768.988	6180
2770.873	6198
2772.757	6250
2774.641	6207
2776.525	6253
2778.41	6383
2780.292	6168
2782.175	6186
2784.057	6225
2785.938	6133
2787.821	6169
2789.701	6265
2791.581	6154
2793.461	6208
2795.34	6117
2797.219	6167
2799.099	6187
2800.975	6193
2802.853	6175
2804.73	6163
2806.606	6148
2808.484	6134
2810.358	6142
2812.233	6198
2814.108	6151
2815.981	6116
2817.857	6159
2819.73	6096
2821.602	6179
2823.474	6094
2825.346	6084
2827.217	6005
2829.089	6078
2830.959	6186
2832.829	6126
2834.698	6134
2836.567	6130
2838.436	6075
2840.305	6121
2842.172	6176
2844.04	6092
2845.905	6077
2847.772	6200
2849.639	6189
2851.503	6153
2853.369	6257
2855.232	6223
2857.096	6160
2858.961	6172
2860.824	6234
2862.686	6248
2864.547	6327
2866.41	6283
2868.272	6274
2870.132	6271
2871.992	6403
2873.851	6344
2875.711	6465
2877.57	6350
2879.429	6518
2881.287	6589
2883.144	6580
2885.001	6616
2886.857	6625
2888.714	6508
2890.57	6663
2892.425	6524
2894.279	6621
2896.133	6634
2897.987	6618
2899.842	6507
2901.694	6477
2903.547	6583
2905.397	6684
2907.249	6408
2909.101	6490
2910.952	6454
2912.802	6580
2914.652	6663
2916.5	6569
2918.35	6730
2920.198	6698
2922.045	6777
2923.893	6862
2925.74	6841
2927.585	6795
2929.433	6963
2931.279	6979
2933.123	7017
2934.968	7041
2936.811	7089
2938.656	7084
2940.5	7064
2942.342	7185
2944.185	7113
2946.026	7266
2947.87	7251
2949.71	7204
2951.549	7226
2953.39	7142
2955.229	7095
2957.069	7002
2958.908	6971
2960.746	6877
2962.584	6900
2964.421	6903
2966.257	6877
2968.094	6735
2969.931	6704
2971.766	6660
2973.601	6603
2975.435	6563
2977.27	6618
2979.105	6578
2980.938	6632
2982.77	6469
2984.602	6495
2986.434	6363
2988.267	6584
2990.097	6414
2991.927	6384
2993.757	6368
2995.587	6462
2997.417	6297
2999.246	6327
3001.074	6213
3002.902	6185
3004.729	6117
3006.556	6080
3008.384	6104
3010.21	6009
3012.036	5959
3013.861	5915
3015.684	5941
3017.51	5950
3019.334	5943
3021.157	5873
3022.981	5878
3024.802	5826
3026.624	5847
3028.448	5795
3030.267	5934
3032.088	5734
3033.909	5729
3035.728	5783
3037.549	5750
3039.368	5770
3041.186	5758
3043.004	5735
3044.821	5755
3046.64	5695
3048.455	5757
3050.272	5687
3052.087	5647
3053.903	5685
3055.717	5744
3057.534	5710
3059.347	5718
3061.16	5765
3062.974	5655
3064.785	5675
3066.598	5643
3068.411	5734
3070.222	5617
3072.032	5709
3073.844	5463
3075.653	5650
3077.463	5695
3079.272	5658
3081.08	5618
3082.889	5579
3084.697	5592
3086.505	5604
3088.312	5513
3090.118	5535
3091.924	5574
3093.729	5544
3095.535	5456
3097.34	5591
3099.144	5520
3100.947	5460
3102.75	5457
3104.553	5556
3106.357	5515
3108.159	5451
3109.961	5498
3111.762	5457
3113.562	5537
3115.365	5555
3117.164	5490
3118.964	5421
3120.761	5518
3122.56	5423
3124.36	5333
3126.158	5378
3127.954	5467
3129.75	5493
3131.547	5543
3133.343	5411
3135.139	5426
3136.934	5446
3138.729	5409
3140.522	5393
3142.317	5329
3144.11	5344
3145.904	5342
3147.695	5358
3149.488	5433
3151.28	5276
3153.07	5467
3154.863	5389
3156.652	5408
3158.441	5310
3160.231	5336
3162.019	5293
3163.81	5376
3165.597	5288
3167.384	5366
3169.172	5314
3170.958	5220
3172.745	5326
3174.532	5307
3176.317	5318
3178.101	5323
3179.885	5295
3181.67	5353
3183.455	5367
3185.238	5240
3187.02	5286
3188.802	5310
3190.585	5380
3192.368	5281
3194.149	5358
3195.929	5315
3197.709	5278
3199.489	5272
3201.268	5289
3203.048	5181
3204.826	5311
3206.604	5271
3208.382	5332
3210.159	5235
3211.937	5246
3213.713	5314
3215.489	5314
3217.263	5161
3219.038	5373
3220.815	5194
3222.589	5227
3224.363	5258
3226.136	5202
3227.908	5352
3229.681	5222
3231.454	5266
3233.226	5274
3234.996	5217
3236.767	5233
3238.538	5153
3240.308	5180
3242.078	5144
3243.847	5295
3245.615	5158
3247.384	5266
3249.15	5255
3250.92	5244
3252.686	5280
3254.453	5235
3256.218	5234
3257.984	5225
3259.75	5171
3261.515	5202
3263.279	5287
3265.044	5221
3266.806	5259
3268.57	5273
3270.334	5198
3272.095	5253
3273.856	5173
3275.619	5185
3277.379	5158
3279.14	5165
3280.9	5217
3282.661	5155
3284.419	5227
3286.178	5088
3287.937	5205
3289.695	5212
3291.453	5202
3293.21	5198
3294.967	5223
3296.723	5220
3298.48	5241
3300.235	5095
3301.99	5210
3303.744	5150
3305.498	5243
3307.253	5229
3309.006	5191
3310.759	5229
3312.511	5154
3314.263	5203
3316.017	5222
3317.768	5248
3319.519	5155
3321.268	5156
3323.018	5211
3324.767	5139
3326.518	5154
3328.267	5121
3330.014	5123
3331.762	5169
3333.509	5122
3335.258	5180
3337.003	5154
3338.75	5155
3340.496	5124
3342.24	5186
3343.987	5128
3345.732	5089
3347.475	5105
3349.219	5133
3350.961	5177
3352.705	5113
3354.448	5115
3356.19	5121
3357.931	5089
3359.672	5031
3361.412	5002
3363.155	5017
3364.894	5077
3366.633	5068
3368.372	5073
3370.11	5107
3371.849	5050
3373.588	5108
3375.325	4951
3377.061	5092
3378.799	4995
3380.534	5088
3382.271	5031
3384.006	4998
3385.741	5107
3387.475	4993
3389.209	4984
3390.944	5027
3392.677	4969
3394.409	4938
3396.143	4910
3397.874	4967
3399.606	5002
3401.338	4889
3403.069	4989
3404.799	4971
3406.528	5033
3408.258	4927
3409.988	4988
3411.717	4956
3413.445	4931
3415.173	4978
3416.899	4958
3418.626	4892
3420.354	4930
3422.08	4987
3423.806	4871
3425.531	4929
3427.255	4930
3428.981	4906
3430.705	4857
3432.429	4954
3434.151	4895
3435.875	4877
3437.599	4827
3439.321	4830
3441.042	4952
3442.763	4828
3444.483	4782
3446.204	4912
3447.926	4884
3449.645	4791
3451.364	4916
3453.082	4786
3454.801	4839
3456.52	4794
3458.238	4792
3459.954	4690
3461.671	4816
3463.387	4696
3465.104	4722
3466.82	4728
3468.534	4791
3470.25	4807
3471.963	4711
3473.676	4756
3475.392	4860
3477.104	4669
3478.817	4666
3480.528	4619
3482.241	4541
3483.954	4639
3485.664	4720
3487.374	4736
3489.084	4667
3490.795	4611
3492.504	4764
3494.214	4569
3495.922	4620
3497.63	4656
3499.338	4603
3501.045	4557
3502.753	4554
3504.459	4578
3506.166	4544
3507.871	4658
3509.576	4604
3511.283	4592
3512.987	4547
3514.691	4605
3516.395	4539
3518.098	4623
3519.8	4473
3521.504	4614
3523.206	4488
3524.908	4580
3526.609	4591
3528.309	4548
3530.011	4538
3531.711	4416
3533.411	4484
3535.109	4435
3536.808	4601
3538.507	4597
3540.206	4502
3541.904	4466
3543.601	4491
3545.297	4457
3546.994	4516
3548.69	4445
3550.387	4485
3552.081	4458
3553.776	4484
3555.47	4458
3557.166	4409
3558.859	4453
3560.553	4437
3562.245	4432
3563.938	4357
3565.629	4393
3567.322	4432
3569.014	4362
3570.704	4408
3572.394	4398
3574.084	4397
3575.775	4351
3577.464	4413
3579.152	4447
3580.842	4437
3582.529	4389
3584.216	4277
3585.905	4384
3587.591	4459
3589.279	4421
3590.964	4328
3592.649	4316
3594.336	4267
3596.021	4332
3597.705	4321
3599.388	4389
3601.072	4208
3602.757	4234
3604.439	4345
3606.122	4305
3607.803	4293
3609.485	4275
3611.167	4317
3612.849	4349
3614.529	4267
3616.208	4286
3617.888	4278
3619.567	4255
3621.247	4170
3622.926	4237
3624.603	4250
3626.281	4264
3627.958	4194
3629.635	4173
3631.312	4273
3632.989	4150
3634.665	4197
3636.339	4088
3638.014	4248
3639.691	4174
3641.364	4090
3643.038	4194
3644.71	4126
3646.384	4192
3648.058	4154
3649.729	4128
3651.402	4159
3653.073	4169
3654.744	4174
3656.414	4134
3658.085	4069
3659.755	4070
3661.424	4140
3663.094	4063
3664.762	4090
3666.431	4103
3668.099	4173
3669.766	4069
3671.433	4112
3673.099	4114
3674.768	4044
3676.433	4120
3678.098	4056
3679.763	4041
3681.428	4004
3683.093	4092
3684.757	3979
3686.421	4030
3688.083	4028
3689.746	4049
3691.408	4080
3693.071	4042
3694.733	4033
3696.394	4014
3698.054	4017
3699.715	4010
3701.375	3993
3703.036	4020
3704.695	4016
3706.354	3921
3708.012	3999
3709.67	3948
3711.329	3999
3712.987	4024
3714.644	4001
3716.299	4027
3717.955	3976
3719.613	4038
3721.268	4027
3722.923	3925
3724.577	3941
3726.231	3970
3727.885	3974
3729.539	3904
3731.192	3930
3732.845	3913
3734.497	3932
3736.149	3995
3737.802	4010
3739.453	3924
3741.104	3892
3742.753	3956
3744.404	3939
3746.052	3930
3747.704	3974
3749.352	3863
3751	3896
3752.648	3852
3754.296	3878
3755.944	3921
3757.59	3935
3759.238	3865
3760.883	3883
3762.528	3988
3764.176	3949
3765.82	3914
3767.464	3901
3769.109	3917
3770.753	3899
3772.396	3851
3774.04	3948
3775.683	3813
3777.325	3900
3778.967	3822
3780.608	3865
3782.25	3824
3783.89	3834
3785.531	3813
3787.17	3872
3788.81	3884
3790.45	3834
3792.09	3834
3793.729	3813
3795.366	3830
3797.003	3853
3798.64	3803
3800.278	3782
3801.915	3767
3803.551	3837
3805.187	3702
3806.822	3739
3808.458	3828
3810.093	3760
3811.726	3806
3813.36	3833
3814.994	3842
3816.627	3672
3818.262	3723
3819.893	3751
3821.525	3742
3823.157	3794
3824.787	3753
3826.42	3733
3828.051	3723
3829.68	3760
3831.31	3755
3832.938	3696
3834.569	3689
3836.198	3705
3837.825	3763
3839.454	3666
3841.08	3648
3842.708	3673
3844.335	3621
3845.962	3689
3847.587	3694
3849.212	3700
3850.838	3656
3852.463	3667
3854.089	3721
3855.712	3624
3857.335	3747
3858.959	3628
3860.582	3701
3862.205	3690
3863.827	3559
3865.449	3637
3867.07	3725
3868.691	3625
3870.312	3689
3871.933	3583
3873.553	3661
3875.173	3692
3876.792	3589
3878.411	3512
3880.03	3557
3881.647	3589
3883.265	3662
3884.882	3650
3886.499	3606
3888.116	3636
3889.732	3593
3891.348	3597
3892.964	3574
3894.579	3570
3896.195	3574
3897.809	3601
3899.423	3592
3901.036	3546
3902.648	3577
3904.261	3604
3905.875	3565
3907.487	3605
3909.099	3566
3910.709	3552
3912.321	3532
3913.933	3542
3915.542	3583
3917.152	3565
3918.762	3483
3920.37	3623
3921.98	3502
3923.589	3546
3925.196	3576
3926.804	3545
3928.41	3557
3930.018	3497
3931.626	3552
3933.231	3446
3934.838	3470
3936.442	3523
3938.046	3553
3939.653	3530
3941.257	3456
3942.861	3520
3944.464	3518
3946.068	3472
3947.67	3577
3949.273	3466
3950.876	3558
3952.477	3589
3954.078	3519
3955.678	3441
3957.281	3541
3958.881	3454
3960.48	3385
3962.079	3437
3963.678	3494
3965.279	3490
3966.877	3460
3968.475	3456
3970.072	3512
3971.669	3476
3973.266	3384
3974.864	3439
3976.459	3459
3978.055	3381
3979.65	3424
3981.245	3426
3982.841	3455
3984.436	3384
3986.03	3392
3987.623	3363
3989.216	3428
3990.809	3331
3992.403	3305
3993.995	3328
3995.586	3395
3997.177	3300
3998.768	3398
4000.361	3427
4001.951	3384
4003.54	3342
4005.13	3312
4006.719	3341
4008.31	3327
4009.897	3369
4011.485	3396
4013.073	3307
4014.66	3309
4016.247	3279
4017.834	3260
4019.421	3356
4021.006	3264
4022.592	3277
4024.178	3271
4025.763	3296
4027.348	3299
4028.932	3343
4030.515	3213
4032.099	3225
4033.682	3176
4035.266	3345
4036.847	3229
4038.429	3296
4040.011	3247
4041.592	3310
4043.173	3231
4044.755	3205
4046.334	3200
4047.913	3243
4049.494	3229
4051.074	3225
4052.652	3220
4054.23	3259
4055.807	3173
4057.385	3248
4058.963	3249
4060.541	3177
4062.117	3187
4063.693	3209
4065.269	3190
4066.844	3225
4068.42	3238
4069.995	3229
4071.569	3229
4073.143	3211
4074.716	3224
4076.291	3253
4077.864	3194
4079.436	3201
4081.009	3088
4082.58	3190
4084.152	3147
4085.723	3192
4087.294	3154
4088.865	3092
4090.435	3115
4092.005	3094
4093.574	3142
4095.143	3185
4096.712	3131
4098.279	3142
4099.848	3102
4101.416	3044
4102.984	3163
4104.55	3150
4106.117	3169
4107.682	3127
4109.248	3163
4110.815	3192
4112.379	3087
4113.945	3138
4115.508	3047
4117.073	3108
4118.637	3125
4120.201	3031
4121.763	3064
4123.325	3139
4124.888	3061
4126.449	3082
4128.013	3101
4129.573	3052
4131.133	3105
4132.694	3073
4134.254	3083
4135.814	3097
4137.374	3065
4138.933	3055
4140.491	3051
4142.049	3005
4143.607	2982
4145.167	2970
4146.724	2940
4148.28	3002
4149.836	2985
4151.392	3036
4152.949	3050
4154.504	2997
4156.059	3039
4157.614	2977
4159.168	3060
4160.723	3004
4162.277	3002
4163.83	3008
4165.383	2916
4166.936	2990
4168.488	2974
4170.041	2982
4171.593	2921
4173.144	2949
4174.695	2957
4176.246	2951
4177.796	3056
4179.346	2923
4180.896	2987
4182.445	2927
4183.994	2946
4185.542	2936
4187.091	2916
4188.639	2946
4190.185	2875
4191.732	2987
4193.279	2865
4194.826	2968
4196.373	2990
4197.918	2914
4199.463	2936
4201.008	2947
4202.553	2964
4204.098	2867
4205.641	2880
4207.185	2796
4208.728	2956
4210.271	2959
4211.814	2934
4213.357	2935
4214.898	2898
4216.439	2797
4217.98	2951
4219.522	2910
4221.062	2797
4222.603	2821
4224.142	2828
4225.681	2859
4227.222	2867
4228.76	2788
4230.298	2864
4231.835	2846
4233.373	2884
4234.911	2847
4236.449	2920
4237.985	2834
4239.521	2825
4241.057	2809
4242.592	2772
4244.128	2872
4245.663	2830
4247.197	2824
4248.731	2812
4250.265	2795
4251.798	2860
4253.333	2814
4254.865	2824
4256.397	2824
4257.93	2844
4259.461	2784
4260.994	2818
4262.525	2829
4264.056	2761
4265.586	2784
4267.115	2805
4268.646	2778
4270.176	2799
4271.705	2723
4273.232	2721
4274.761	2757
4276.289	2782
4277.818	2728
4279.345	2815
4280.872	2817
4282.399	2723
4283.924	2734
4285.452	2729
4286.976	2721
4288.502	2790
4290.026	2742
4291.551	2706
4293.074	2669
4294.6	2714
4296.123	2719
4297.646	2735
4299.168	2735
4300.691	2808
4302.214	2692
4303.736	2684
4305.257	2758
4306.778	2771
4308.299	2743
4309.82	2682
4311.34	2665
4312.86	2691
4314.379	2742
