400.0745	3855
402.597	3834
405.1208	3862
407.6419	3893
410.1623	3936
412.6819	3952
415.201	4009
417.7172	4021
420.2369	3969
422.7538	4101
425.2701	4165
427.7856	4160
430.3005	4179
432.8147	4198
435.3282	4106
437.841	4117
440.3511	4081
442.8625	4261
445.3753	4245
447.8854	4186
450.3927	4212
452.9014	4156
455.4073	4209
457.9146	4193
460.4233	4146
462.9272	4142
465.4325	4126
467.935	4140
470.4389	4175
472.9421	4146
475.4446	4224
477.9444	4164
480.4456	4147
482.944	4142
485.4417	4170
487.9429	4224
490.4393	4246
492.935	4256
495.4321	4190
497.9264	4282
500.4221	4328
502.9171	4275
505.4094	4322
507.9011	4354
510.392	4301
512.8864	4369
515.3759	4336
517.8649	4339
520.3531	4363
522.8406	4307
525.3275	4292
527.8178	4328
530.3033	4320
532.7881	4243
535.2723	4264
537.7558	4375
540.2407	4319
542.7228	4380
545.2043	4327
547.6851	4283
550.1652	4294
552.6467	4370
555.1255	4339
557.6016	4456
560.079	4445
562.5557	4337
565.0318	4433
567.5092	4294
569.984	4466
572.456	4447
574.9294	4481
577.4022	4506
579.8762	4464
582.3456	4546
584.8163	4641
587.2863	4563
589.7557	4479
592.2224	4654
594.6924	4546
597.1578	4552
599.6245	4513
602.0905	4477
604.5538	4470
607.0206	4482
609.4825	4414
611.9459	4428
614.4066	4488
616.8686	4530
619.33	4456
621.7906	4385
624.2487	4531
626.708	4495
629.1647	4414
631.6207	4475
634.0801	4375
636.5348	4474
638.9888	4492
641.4442	4504
643.8969	4570
646.3509	4561
648.8022	4461
651.255	4533
653.705	4513
656.1544	4557
658.6031	4572
661.0532	4532
663.5026	4580
665.9493	4551
668.3954	4584
670.8409	4654
673.2877	4535
675.7318	4577
678.1752	4608
680.618	4674
683.0601	4583
685.5035	4561
687.9444	4629
690.3845	4655
692.824	4598
695.2628	4716
697.701	4636
700.1406	4752
702.5774	4690
705.0116	4688
707.4472	4696
709.8821	4633
712.3183	4700
714.7519	4702
717.1829	4668
719.6151	4848
722.0468	4749
724.4777	4743
726.908	4838
729.3377	4774
731.7667	4889
734.1931	4872
736.6208	4788
739.0498	4832
741.4742	4885
743.9	4905
746.3231	4849
748.7476	4880
751.1713	4889
753.5945	4868
756.015	4911
758.4368	4882
760.856	4979
763.2766	4837
765.6965	4942
768.1157	4978
770.5323	4986
772.9483	5004
775.3656	5098
777.7822	5015
780.1963	5001
782.6116	4880
785.0244	4999
787.4365	4976
789.8499	5054
792.2626	5034
794.6728	4846
797.0823	4977
799.4911	4908
801.8994	4955
804.3109	4845
806.7178	5049
809.124	4969
811.5297	4966
813.9347	5063
816.341	4997
818.7447	5096
821.1478	5087
823.5502	5047
825.952	5051
828.3531	5042
830.7556	5009
833.1554	5062
835.5546	5040
837.9532	5162
840.3511	5046
842.7504	5112
845.1451	5142
847.5411	5185
849.9365	5159
852.3312	5142
854.7272	5117
857.1187	5182
859.5115	5178
861.9037	5142
864.2952	5133
866.6842	5135
869.0764	5109
871.4661	5224
873.8531	5185
876.2415	5174
878.6272	5121
881.0162	5203
883.4026	5082
885.7866	5077
888.1717	5224
890.5543	5180
892.9382	5105
895.3215	5238
897.7041	5165
900.0842	5063
902.4655	5268
904.8443	5104
907.2244	5236
909.6039	5138
911.9808	5275
914.357	5220
916.7346	5318
919.1115	5382
921.4859	5350
923.8616	5342
926.2347	5458
928.6071	5313
930.979	5568
933.3541	5422
935.7247	5443
938.0946	5415
940.4639	5544
942.8326	5530
945.2026	5553
947.5701	5769
949.9369	5875
952.305	6203
954.6705	6266
957.0355	6547
959.4017	6703
961.7654	6782
964.1284	6797
966.4908	6541
968.8527	6344
971.2138	5956
973.5743	5780
975.9343	5627
978.2936	5657
980.6522	5541
983.0122	5333
985.3696	5326
987.7245	5406
990.0807	5413
992.4362	5438
994.7911	5377
997.1474	5325
999.4991	5246
1001.852	5393
1004.205	5390
1006.555	5347
1008.908	5429
1011.258	5405
1013.606	5389
1015.956	5394
1018.302	5387
1020.652	5375
1022.998	5338
1025.345	5455
1027.691	5452
1030.035	5352
1032.378	5354
1034.724	5434
1037.066	5466
1039.409	5352
1041.75	5499
1044.092	5539
1046.433	5502
1048.771	5512
1051.112	5429
1053.449	5457
1055.786	5525
1058.124	5530
1060.462	5365
1062.797	5507
1065.131	5556
1067.467	5549
1069.8	5512
1072.135	5690
1074.467	5682
1076.798	5712
1079.129	5559
1081.459	5604
1083.792	5580
1086.121	5562
1088.449	5453
1090.777	5432
1093.104	5499
1095.431	5458
1097.759	5480
1100.084	5472
1102.408	5457
1104.732	5379
1107.056	5499
1109.379	5470
1111.701	5382
1114.022	5459
1116.343	5521
1118.664	5462
1120.983	5530
1123.303	5420
1125.621	5471
1127.939	5524
1130.256	5462
1132.573	5442
1134.889	5502
1137.205	5419
1139.52	5424
1141.832	5430
1144.146	5533
1146.461	5399
1148.771	5509
1151.083	5502
1153.392	5435
1155.703	5386
1158.011	5478
1160.323	5418
1162.629	5527
1164.938	5558
1167.243	5496
1169.55	5403
1171.857	5462
1174.163	5415
1176.466	5447
1178.769	5419
1181.073	5462
1183.374	5454
1185.677	5484
1187.979	5476
1190.279	5469
1192.578	5399
1194.878	5480
1197.178	5420
1199.476	5463
1201.772	5429
1204.068	5440
1206.366	5531
1208.663	5525
1210.957	5512
1213.251	5405
1215.544	5445
1217.836	5578
1220.128	5479
1222.421	5610
1224.712	5529
1227.002	5600
1229.292	5557
1231.581	5698
1233.871	5593
1236.159	5539
1238.446	5644
1240.732	5634
1243.018	5639
1245.304	5685
1247.59	5760
1249.874	5722
1252.156	5702
1254.439	5676
1256.721	5690
1259.005	5687
1261.286	5672
1263.565	5595
1265.845	5667
1268.125	5682
1270.403	5655
1272.682	5659
1274.959	5742
1277.234	5712
1279.511	5729
1281.787	5601
1284.062	5593
1286.337	5634
1288.609	5612
1290.882	5592
1293.153	5623
1295.428	5565
1297.698	5613
1299.969	5615
1302.237	5520
1304.507	5560
1306.777	5588
1309.044	5663
1311.312	5496
1313.578	5579
1315.844	5588
1318.109	5599
1320.375	5596
1322.638	5543
1324.903	5572
1327.165	5480
1329.427	5542
1331.69	5651
1333.952	5607
1336.212	5485
1338.471	5595
1340.73	5647
1342.988	5631
1345.248	5640
1347.505	5511
1349.763	5566
1352.019	5656
1354.274	5550
1356.53	5548
1358.784	5514
1361.038	5611
1363.291	5626
1365.543	5494
1367.797	5568
1370.048	5554
1372.296	5668
1374.546	5649
1376.796	5601
1379.045	5645
1381.295	5649
1383.542	5705
1385.787	5648
1388.034	5588
1390.28	5666
1392.527	5609
1394.772	5594
1397.014	5668
1399.258	5646
1401.501	5652
1403.741	5744
1405.985	5702
1408.226	5680
1410.465	5705
1412.705	5806
1414.943	5751
1417.184	5718
1419.42	5762
1421.658	5668
1423.894	5729
1426.13	5803
1428.366	5740
1430.602	5699
1432.835	5774
1435.069	5727
1437.301	5760
1439.535	5800
1441.767	5819
1443.997	5760
1446.229	5853
1448.458	5901
1450.687	5889
1452.916	5848
1455.146	5878
1457.372	5798
1459.599	5776
1461.824	5844
1464.051	5833
1466.277	5839
1468.501	5830
1470.725	5803
1472.948	5866
1475.17	5765
1477.393	5744
1479.614	5641
1481.837	5696
1484.057	5674
1486.276	5621
1488.497	5626
1490.715	5478
1492.932	5671
1495.148	5624
1497.364	5581
1499.58	5645
1501.798	5574
1504.012	5519
1506.227	5464
1508.44	5543
1510.653	5542
1512.866	5542
1515.078	5568
1517.289	5569
1519.5	5619
1521.711	5609
1523.92	5504
1526.13	5533
1528.338	5574
1530.544	5504
1532.752	5611
1534.959	5596
1537.165	5554
1539.371	5623
1541.574	5513
1543.779	5551
1545.983	5598
1548.187	5473
1550.39	5574
1552.59	5752
1554.792	5732
1556.991	5571
1559.19	5693
1561.392	5670
1563.59	5693
1565.789	5638
1567.986	5677
1570.182	5694
1572.381	5664
1574.576	5666
1576.771	5654
1578.966	5721
1581.16	5734
1583.354	5730
1585.546	5603
1587.74	5716
1589.931	5738
1592.121	5795
1594.311	5648
1596.502	5778
1598.693	5637
1600.881	5782
1603.069	5752
1605.256	5659
1607.445	5783
1609.631	5756
1611.816	5692
1614.001	5648
1616.186	5780
1618.37	5848
1620.555	5799
1622.737	5804
1624.919	5821
1627.101	5667
1629.282	5829
1631.463	5755
1633.643	5946
1635.822	5933
1638.001	5835
1640.179	5786
1642.359	5893
1644.534	5800
1646.711	5758
1648.887	5849
1651.062	5881
1653.235	5975
1655.412	5879
1657.586	5829
1659.757	5866
1661.93	5886
1664.1	5797
1666.274	5840
1668.445	5972
1670.614	5866
1672.784	5922
1674.951	5759
1677.12	5941
1679.289	5903
1681.457	5846
1683.622	5904
1685.789	5918
1687.953	5918
1690.121	5820
1692.284	5811
1694.447	5731
1696.611	5750
1698.772	5877
1700.935	5853
1703.098	5744
1705.258	5749
1707.417	5706
1709.576	5707
1711.736	5689
1713.896	5713
1716.053	5688
1718.21	5746
1720.366	5686
1722.522	5776
1724.68	5694
1726.835	5695
1728.989	5728
1731.142	5705
1733.295	5783
1735.449	5747
1737.601	5622
1739.753	5622
1741.903	5663
1744.054	5722
1746.203	5622
1748.354	5791
1750.503	5706
1752.651	5705
1754.798	5748
1756.944	5815
1759.092	5712
1761.238	5722
1763.383	5808
1765.528	5678
1767.672	5761
1769.814	5626
1771.959	5850
1774.102	5821
1776.242	5863
1778.384	5768
1780.525	5752
1782.665	5751
1784.805	5717
1786.945	5681
1789.082	5738
1791.22	5698
1793.36	5756
1795.495	5780
1797.632	5797
1799.766	5701
1801.902	5714
1804.035	5683
1806.172	5783
1808.304	5744
1810.436	5772
1812.569	5710
1814.699	5822
1816.833	5676
1818.963	5695
1821.092	5748
1823.222	5662
1825.35	5748
1827.478	5665
1829.608	5684
1831.734	5760
1833.86	5724
1835.986	5781
1838.11	5645
1840.238	5587
1842.362	5676
1844.485	5703
1846.608	5713
1848.73	5674
1850.853	5635
1852.974	5652
1855.097	5704
1857.217	5727
1859.336	5676
1861.455	5709
1863.576	5637
1865.693	5662
1867.811	5701
1869.926	5648
1872.042	5783
1874.16	5713
1876.275	5644
1878.39	5710
1880.504	5634
1882.618	5656
1884.731	5660
1886.843	5749
1888.956	5665
1891.067	5696
1893.178	5728
1895.287	5622
1897.399	5727
1899.508	5658
1901.617	5662
1903.724	5820
1905.832	5777
1907.941	5649
1910.046	5774
1912.152	5706
1914.256	5785
1916.361	5678
1918.464	5824
1920.57	5748
1922.672	5703
1924.775	5834
1926.876	5746
1928.978	5777
1931.08	5795
1933.181	5803
1935.28	5702
1937.38	5859
1939.478	5842
1941.577	5903
1943.675	5801
1945.771	5883
1947.867	5673
1949.964	5765
1952.058	5795
1954.154	5758
1956.248	5788
1958.343	5774
1960.435	5697
1962.527	5746
1964.62	5705
1966.711	5737
1968.802	5799
1970.892	5676
1972.983	5819
1975.072	5815
1977.162	5875
1979.25	5718
1981.337	5764
1983.424	5736
1985.51	5759
1987.598	5724
1989.683	5732
1991.768	5785
1993.852	5759
1995.934	5727
1998.019	5749
2000.102	5693
2002.184	5757
2004.266	5753
2006.347	5700
2008.427	5692
2010.508	5826
2012.587	5720
2014.666	5728
2016.745	5606
2018.821	5606
2020.9	5683
2022.977	5767
2025.052	5752
2027.128	5722
2029.204	5697
2031.277	5714
2033.353	5730
2035.425	5664
2037.499	5727
2039.57	5711
2041.642	5663
2043.714	5609
2045.786	5731
2047.855	5715
2049.925	5730
2051.993	5716
2054.064	5667
2056.132	5700
2058.2	5797
2060.266	5672
2062.332	5681
2064.398	5631
2066.465	5716
2068.529	5657
2070.592	5598
2072.657	5756
2074.719	5713
2076.783	5685
2078.845	5726
2080.907	5642
2082.968	5721
2085.028	5600
2087.087	5704
2089.148	5809
2091.207	5681
2093.264	5688
2095.322	5722
2097.379	5772
2099.439	5775
2101.495	5689
2103.55	5730
2105.605	5726
2107.658	5642
2109.713	5678
2111.767	5691
2113.82	5676
2115.872	5690
2117.924	5634
2119.975	5614
2122.028	5689
2124.078	5692
2126.126	5725
2128.176	5605
2130.225	5568
2132.275	5754
2134.321	5584
2136.368	5626
2138.415	5724
2140.461	5667
2142.505	5619
2144.552	5633
2146.597	5656
2148.64	5757
2150.684	5529
2152.725	5660
2154.77	5670
2156.811	5664
2158.852	5676
2160.894	5601
2162.933	5585
2164.973	5609
2167.013	5670
2169.051	5579
2171.089	5553
2173.126	5620
2175.164	5579
2177.201	5567
2179.236	5490
2181.273	5694
2183.307	5511
2185.341	5539
2187.377	5631
2189.41	5597
2191.442	5524
2193.473	5645
2195.506	5587
2197.539	5496
2199.569	5504
2201.598	5548
2203.628	5576
2205.656	5542
2207.686	5476
2209.716	5530
2211.743	5522
2213.769	5554
2215.796	5548
2217.821	5512
2219.848	5484
2221.873	5566
2223.897	5458
2225.921	5460
2227.944	5484
2229.967	5536
2231.991	5519
2234.011	5583
2236.032	5516
2238.053	5344
2240.073	5580
2242.094	5503
2244.114	5518
2246.131	5480
2248.149	5534
2250.167	5504
2252.186	5492
2254.201	5581
2256.218	5620
2258.233	5494
2260.247	5580
2262.262	5518
2264.278	5475
2266.29	5499
2268.303	5568
2270.315	5411
2272.327	5536
2274.341	5559
2276.35	5518
2278.361	5457
2280.37	5412
2282.38	5588
2284.388	5525
2286.397	5440
2288.405	5614
2290.412	5417
2292.419	5630
2294.425	5498
2296.431	5555
2298.437	5577
2300.441	5372
2302.445	5508
2304.449	5550
2306.453	5481
2308.455	5510
2310.457	5473
2312.459	5500
2314.46	5463
2316.46	5577
2318.461	5443
2320.46	5483
2322.458	5468
2324.458	5497
2326.456	5498
2328.455	5403
2330.451	5523
2332.447	5403
2334.443	5443
2336.438	5451
2338.433	5416
2340.429	5519
2342.422	5365
2344.416	5486
2346.408	5419
2348.399	5337
2350.393	5380
2352.384	5380
2354.375	5390
2356.365	5337
2358.355	5285
2360.344	5297
2362.333	5438
2364.322	5469
2366.309	5296
2368.295	5327
2370.282	5312
2372.27	5302
2374.256	5333
2376.24	5398
2378.225	5294
2380.208	5332
2382.194	5354
2384.177	5363
2386.159	5236
2388.142	5216
2390.122	5203
2392.105	5306
2394.085	5266
2396.066	5284
2398.044	5344
2400.024	5374
2402.002	5233
2403.982	5358
2405.959	5296
2407.935	5246
2409.913	5358
2411.888	5249
2413.865	5274
2415.84	5338
2417.814	5268
2419.788	5242
2421.762	5246
2423.735	5306
2425.708	5114
2427.68	5228
2429.651	5199
2431.623	5352
2433.593	5331
2435.564	5339
2437.533	5291
2439.502	5195
2441.47	5275
2443.438	5379
2445.406	5301
2447.373	5277
2449.34	5285
2451.305	5321
2453.271	5204
2455.235	5274
2457.201	5207
2459.165	5266
2461.129	5203
2463.092	5285
2465.054	5285
2467.018	5336
2468.978	5275
2470.939	5182
2472.899	5274
2474.86	5273
2476.819	5188
2478.778	5159
2480.737	5228
2482.695	5152
2484.653	5164
2486.609	5230
2488.567	5287
2490.524	5112
2492.478	5232
2494.433	5330
2496.387	5128
2498.343	5197
2500.297	5123
2502.249	5226
2504.202	5205
2506.153	5061
2508.105	5260
2510.057	5151
2512.008	5238
2513.957	5167
2515.906	5077
2517.855	5231
2519.805	5265
2521.754	5155
2523.7	5135
2525.647	5229
2527.594	5165
2529.54	5148
2531.486	5121
2533.431	5205
2535.376	5123
2537.32	5047
2539.263	5195
2541.207	5222
2543.151	5098
2545.093	5108
2547.034	5171
2548.975	5163
2550.917	5268
2552.856	5199
2554.796	5138
2556.735	5204
2558.673	5143
2560.611	5098
2562.55	5049
2564.487	5183
2566.424	5202
2568.36	5085
2570.296	5059
2572.232	5183
2574.167	5071
2576.101	5173
2578.035	5102
2579.969	5089
2581.902	5104
2583.834	5128
2585.766	5187
2587.698	5083
2589.628	5161
2591.557	5161
2593.489	5202
2595.419	5155
2597.348	5103
2599.275	5126
2601.204	5254
2603.131	5076
2605.059	5221
2606.986	5189
2608.911	5133
2610.837	5228
2612.76	5172
2614.687	5123
2616.61	5076
2618.534	5212
2620.457	5242
2622.38	5197
2624.302	5167
2626.225	5217
2628.145	5059
2630.067	5185
2631.986	5075
2633.906	5121
2635.827	5181
2637.745	5188
2639.662	5104
2641.581	5188
2643.498	5077
2645.415	5241
2647.331	5070
2649.248	5192
2651.163	5186
2653.077	5165
2654.993	5109
2656.906	5150
2658.821	5088
2660.733	5119
2662.646	5198
2664.557	4995
2666.47	5129
2668.381	5140
2670.291	5134
2672.201	5039
2674.11	5111
2676.021	5057
2677.929	5177
2679.837	5165
2681.745	5107
2683.652	5150
2685.56	5062
2687.466	4935
2689.371	5114
2691.276	5081
2693.181	5113
2695.085	5089
2696.991	5146
2698.893	5146
2700.796	4981
2702.698	5083
2704.601	5006
2706.502	5097
2708.404	5019
2710.304	5061
2712.203	5038
2714.103	5089
2716.003	5076
2717.902	5016
2719.8	4981
2721.697	5051
2723.594	5080
2725.49	5095
2727.389	5147
2729.283	4994
2731.179	5009
2733.073	5055
2734.968	5031
2736.863	5026
2738.757	5010
2740.649	4953
2742.541	5013
2744.433	5037
2746.324	4952
2748.216	5017
2750.107	4944
2751.997	5035
2753.886	4994
2755.776	5037
2757.666	4903
2759.553	4898
2761.44	4983
2763.327	4937
2765.215	4996
2767.102	4998
2768.988	5023
2770.873	5006
2772.757	5029
2774.641	4922
2776.525	5009
2778.41	4949
2780.292	4902
2782.175	4965
2784.057	5005
2785.938	4970
2787.821	4953
2789.701	4950
2791.581	4945
2793.461	4959
2795.34	4868
2797.219	4978
2799.099	5014
2800.975	4973
2802.853	5003
2804.73	4841
2806.606	4979
2808.484	4977
2810.358	4930
2812.233	4990
2814.108	4916
2815.981	4869
2817.857	4946
2819.73	4932
2821.602	4934
2823.474	4859
2825.346	4890
2827.217	4885
2829.089	4944
2830.959	4923
2832.829	4845
2834.698	4931
2836.567	5036
2838.436	4926
2840.305	4985
2842.172	4932
2844.04	5008
2845.905	4854
2847.772	4884
2849.639	4942
2851.503	4887
2853.369	4934
2855.232	5052
2857.096	4900
2858.961	5103
2860.824	5011
2862.686	5046
2864.547	5105
2866.41	5043
2868.272	5114
2870.132	5177
2871.992	5200
2873.851	5145
2875.711	5227
2877.57	5310
2879.429	5369
2881.287	5285
2883.144	5286
2885.001	5323
2886.857	5304
2888.714	5322
2890.57	5406
2892.425	5261
2894.279	5268
2896.133	5166
2897.987	5227
2899.842	5352
2901.694	5257
2903.547	5268
2905.397	5421
2907.249	5325
2909.101	5309
2910.952	5298
2912.802	5349
2914.652	5423
2916.5	5403
2918.35	5470
2920.198	5431
2922.045	5562
2923.893	5491
2925.74	5601
2927.585	5686
2929.433	5647
2931.279	5784
2933.123	5859
2934.968	5871
2936.811	5831
2938.656	5967
2940.5	5850
2942.342	5939
2944.185	5988
2946.026	6018
2947.87	6028
2949.71	5932
2951.549	5959
2953.39	5955
2955.229	5799
2957.069	5790
2958.908	5687
2960.746	5748
2962.584	5668
2964.421	5773
2966.257	5573
2968.094	5462
2969.931	5417
2971.766	5516
2973.601	5373
2975.435	5419
2977.27	5353
2979.105	5390
2980.938	5525
2982.77	5337
2984.602	5274
2986.434	5261
2988.267	5362
2990.097	5285
2991.927	5235
2993.757	5279
2995.587	5142
2997.417	5105
2999.246	5113
3001.074	5042
3002.902	5045
3004.729	5002
3006.556	4989
3008.384	4953
3010.21	4912
3012.036	4803
3013.861	4881
3015.684	4853
3017.51	4745
3019.334	4809
3021.157	4722
3022.981	4762
3024.802	4734
3026.624	4703
3028.448	4708
3030.267	4698
3032.088	4617
3033.909	4720
3035.728	4687
3037.549	4623
3039.368	4503
3041.186	4647
3043.004	4591
3044.821	4716
3046.64	4616
3048.455	4638
3050.272	4578
3052.087	4618
3053.903	4605
3055.717	4627
3057.534	4586
3059.347	4594
3061.16	4592
3062.974	4647
3064.785	4681
3066.598	4581
3068.411	4644
3070.222	4528
3072.032	4613
3073.844	4550
3075.653	4453
3077.463	4532
3079.272	4577
3081.08	4542
3082.889	4671
3084.697	4443
3086.505	4523
3088.312	4470
3090.118	4498
3091.924	4366
3093.729	4413
3095.535	4408
3097.34	4464
3099.144	4491
3100.947	4452
3102.75	4369
3104.553	4412
3106.357	4499
3108.159	4400
3109.961	4446
3111.762	4294
3113.562	4435
3115.365	4459
3117.164	4444
3118.964	4392
3120.761	4492
3122.56	4417
3124.36	4467
3126.158	4451
3127.954	4478
3129.75	4341
3131.547	4441
3133.343	4299
3135.139	4392
3136.934	4354
3138.729	4367
3140.522	4380
3142.317	4328
3144.11	4445
3145.904	4442
3147.695	4336
3149.488	4429
3151.28	4420
3153.07	4314
3154.863	4339
3156.652	4326
3158.441	4390
3160.231	4334
3162.019	4269
3163.81	4379
3165.597	4349
3167.384	4386
3169.172	4306
3170.958	4274
3172.745	4345
3174.532	4316
3176.317	4276
3178.101	4285
3179.885	4257
3181.67	4254
3183.455	4301
3185.238	4362
3187.02	4236
3188.802	4329
3190.585	4354
3192.368	4284
3194.149	4282
3195.929	4340
3197.709	4163
3199.489	4297
3201.268	4183
3203.048	4287
3204.826	4322
3206.604	4330
3208.382	4295
3210.159	4317
3211.937	4344
3213.713	4281
3215.489	4324
3217.263	4196
3219.038	4283
3220.815	4251
3222.589	4198
3224.363	4273
3226.136	4222
3227.908	4155
3229.681	4199
3231.454	4169
3233.226	4214
3234.996	4180
3236.767	4223
3238.538	4337
3240.308	4269
3242.078	4215
3243.847	4192
3245.615	4226
3247.384	4214
3249.15	4226
3250.92	4244
3252.686	4216
3254.453	4236
3256.218	4210
3257.984	4220
3259.75	4211
3261.515	4289
3263.279	4335
3265.044	4239
3266.806	4175
3268.57	4201
3270.334	4263
3272.095	4235
3273.856	4245
3275.619	4304
3277.379	4244
3279.14	4207
3280.9	4222
3282.661	4162
3284.419	4248
3286.178	4317
3287.937	4280
3289.695	4219
3291.453	4226
3293.21	4238
3294.967	4171
3296.723	4241
3298.48	4192
3300.235	4347
3301.99	4244
3303.744	4268
3305.498	4243
3307.253	4248
3309.006	4256
3310.759	4215
3312.511	4232
3314.263	4165
3316.017	4261
3317.768	4271
3319.519	4300
3321.268	4218
3323.018	4100
3324.767	4176
3326.518	4162
3328.267	4269
3330.014	4234
3331.762	4300
3333.509	4215
3335.258	4260
3337.003	4190
3338.75	4203
3340.496	4207
3342.24	4178
3343.987	4230
3345.732	4333
3347.475	4119
3349.219	4220
3350.961	4148
3352.705	4236
3354.448	4109
3356.19	4068
3357.931	4131
3359.672	4156
3361.412	4244
3363.155	4122
3364.894	4180
3366.633	4167
3368.372	4135
3370.11	4138
3371.849	4200
3373.588	4133
3375.325	4082
3377.061	4101
3378.799	4117
3380.534	4195
3382.271	4147
3384.006	4045
3385.741	4045
3387.475	4178
3389.209	4105
3390.944	4104
3392.677	4118
3394.409	4082
3396.143	4099
3397.874	4051
3399.606	4060
3401.338	4153
3403.069	4098
3404.799	4084
3406.528	4092
3408.258	4021
3409.988	4099
3411.717	4016
3413.445	4029
3415.173	4043
3416.899	4029
3418.626	4130
3420.354	4032
3422.08	4053
3423.806	3976
3425.531	4003
3427.255	4066
3428.981	4014
3430.705	3994
3432.429	4036
3434.151	4021
3435.875	4042
3437.599	4041
3439.321	3939
3441.042	4097
3442.763	3977
3444.483	3916
3446.204	3979
3447.926	3945
3449.645	3900
3451.364	4001
3453.082	3867
3454.801	3975
3456.52	3890
3458.238	3860
3459.954	3925
3461.671	3894
3463.387	3886
3465.104	3931
3466.82	3901
3468.534	3931
3470.25	3904
3471.963	3878
3473.676	3868
3475.392	3850
3477.104	3869
3478.817	3842
3480.528	3796
3482.241	3922
3483.954	3917
3485.664	3916
3487.374	3844
3489.084	3915
3490.795	3785
3492.504	3901
3494.214	3815
3495.922	3742
3497.63	3817
3499.338	3748
3501.045	3798
3502.753	3838
3504.459	3811
3506.166	3825
3507.871	3804
3509.576	3741
3511.283	3741
3512.987	3769
3514.691	3762
3516.395	3776
3518.098	3816
3519.8	3734
3521.504	3689
3523.206	3729
3524.908	3737
3526.609	3666
3528.309	3686
3530.011	3696
3531.711	3791
3533.411	3788
3535.109	3683
3536.808	3646
3538.507	3702
3540.206	3761
3541.904	3755
3543.601	3664
3545.297	3789
3546.994	3728
3548.69	3555
3550.387	3683
3552.081	3668
3553.776	3708
3555.47	3652
3557.166	3649
3558.859	3636
3560.553	3569
3562.245	3659
3563.938	3689
3565.629	3585
3567.322	3684
3569.014	3635
3570.704	3706
3572.394	3579
3574.084	3562
3575.775	3618
3577.464	3586
3579.152	3637
3580.842	3669
3582.529	3596
3584.216	3624
3585.905	3588
3587.591	3592
3589.279	3582
3590.964	3540
3592.649	3541
3594.336	3565
3596.021	3531
3597.705	3516
3599.388	3505
3601.072	3521
3602.757	3499
3604.439	3523
3606.122	3438
3607.803	3556
3609.485	3589
3611.167	3489
3612.849	3465
3614.529	3467
3616.208	3533
3617.888	3441
3619.567	3438
3621.247	3447
3622.926	3486
3624.603	3458
3626.281	3390
3627.958	3474
3629.635	3503
3631.312	3474
3632.989	3427
3634.665	3471
3636.339	3500
3638.014	3384
3639.691	3441
3641.364	3419
3643.038	3475
3644.71	3327
3646.384	3370
3648.058	3401
3649.729	3423
3651.402	3406
3653.073	3425
3654.744	3379
3656.414	3360
3658.085	3362
3659.755	3393
3661.424	3339
3663.094	3348
3664.762	3327
3666.431	3345
3668.099	3346
3669.766	3406
3671.433	3290
3673.099	3366
3674.768	3280
3676.433	3363
3678.098	3384
3679.763	3323
3681.428	3386
3683.093	3248
3684.757	3377
3686.421	3373
3688.083	3325
3689.746	3289
3691.408	3324
3693.071	3312
3694.733	3355
3696.394	3299
3698.054	3264
3699.715	3327
3701.375	3325
3703.036	3317
3704.695	3246
3706.354	3265
3708.012	3309
3709.67	3281
3711.329	3287
3712.987	3243
3714.644	3219
3716.299	3306
3717.955	3260
3719.613	3250
3721.268	3238
3722.923	3297
3724.577	3248
3726.231	3248
3727.885	3219
3729.539	3221
3731.192	3212
3732.845	3255
3734.497	3191
3736.149	3266
3737.802	3287
3739.453	3158
3741.104	3122
3742.753	3249
3744.404	3266
3746.052	3242
3747.704	3211
3749.352	3202
3751	3168
3752.648	3164
3754.296	3308
3755.944	3216
3757.59	3232
3759.238	3237
3760.883	3161
3762.528	3225
3764.176	3187
3765.82	3112
3767.464	3200
3769.109	3154
3770.753	3100
3772.396	3199
3774.04	3235
3775.683	3206
3777.325	3109
3778.967	3136
3780.608	3118
3782.25	3158
3783.89	3174
3785.531	3181
3787.17	3098
3788.81	3142
3790.45	3164
3792.09	3061
3793.729	3151
3795.366	3131
3797.003	3146
3798.64	3187
3800.278	3060
3801.915	3130
3803.551	3172
3805.187	3082
3806.822	3142
3808.458	3138
3810.093	3116
3811.726	3013
3813.36	3170
3814.994	3110
3816.627	3037
3818.262	3046
3819.893	3108
3821.525	2996
3823.157	3060
3824.787	3088
3826.42	2975
3828.051	3097
3829.68	3019
3831.31	3079
3832.938	3132
3834.569	3034
3836.198	3063
3837.825	3011
3839.454	3085
3841.08	3076
3842.708	3035
3844.335	3056
3845.962	3018
3847.587	3091
3849.212	3056
3850.838	3041
3852.463	2928
3854.089	2990
3855.712	3042
3857.335	3039
3858.959	2990
3860.582	2947
3862.205	3006
3863.827	3012
3865.449	3014
3867.07	2967
3868.691	3046
3870.312	2936
3871.933	2983
3873.553	2954
3875.173	2962
3876.792	3012
3878.411	2975
3880.03	2964
3881.647	2976
3883.265	3037
3884.882	2959
3886.499	2951
3888.116	3041
3889.732	2880
3891.348	2945
3892.964	3028
3894.579	2931
3896.195	2950
3897.809	2921
3899.423	2878
3901.036	2929
3902.648	2970
3904.261	2929
3905.875	2921
3907.487	2991
3909.099	2987
3910.709	2936
3912.321	2931
3913.933	2970
3915.542	2910
3917.152	2923
3918.762	2907
3920.37	2984
3921.98	2858
3923.589	2919
3925.196	2906
3926.804	2921
3928.41	2912
3930.018	2930
3931.626	2969
3933.231	2823
3934.838	2876
3936.442	2932
3938.046	2913
3939.653	2918
3941.257	2891
3942.861	2929
3944.464	2889
3946.068	2876
3947.67	2885
3949.273	2963
3950.876	2881
3952.477	2897
3954.078	2894
3955.678	2888
3957.281	2844
3958.881	2892
3960.48	2886
3962.079	2884
3963.678	2860
3965.279	2876
3966.877	2828
3968.475	2849
3970.072	2847
3971.669	2857
3973.266	2813
3974.864	2849
3976.459	2810
3978.055	2854
3979.65	2844
3981.245	2835
3982.841	2829
3984.436	2860
3986.03	2802
3987.623	2773
3989.216	2814
3990.809	2741
3992.403	2816
3993.995	2788
3995.586	2798
3997.177	2713
3998.768	2805
4000.361	2759
4001.951	2760
4003.54	2767
4005.13	2816
4006.719	2749
4008.31	2747
4009.897	2753
4011.485	2791
4013.073	2764
4014.66	2809
4016.247	2756
4017.834	2754
4019.421	2745
4021.006	2709
4022.592	2750
4024.178	2703
4025.763	2667
4027.348	2861
4028.932	2702
4030.515	2683
4032.099	2683
4033.682	2740
4035.266	2751
4036.847	2733
4038.429	2650
4040.011	2662
4041.592	2775
4043.173	2658
4044.755	2623
4046.334	2695
4047.913	2686
4049.494	2607
4051.074	2694
4052.652	2682
4054.23	2610
4055.807	2713
4057.385	2675
4058.963	2648
4060.541	2647
4062.117	2594
4063.693	2603
4065.269	2616
4066.844	2709
4068.42	2662
4069.995	2649
4071.569	2696
4073.143	2703
4074.716	2620
4076.291	2619
4077.864	2580
4079.436	2659
4081.009	2627
4082.58	2714
4084.152	2606
4085.723	2599
4087.294	2639
4088.865	2603
4090.435	2587
4092.005	2632
4093.574	2645
4095.143	2596
4096.712	2571
4098.279	2608
4099.848	2565
4101.416	2588
4102.984	2649
4104.55	2527
4106.117	2591
4107.682	2615
4109.248	2586
4110.815	2533
4112.379	2599
4113.945	2560
4115.508	2610
4117.073	2531
4118.637	2594
4120.201	2566
4121.763	2586
4123.325	2519
4124.888	2557
4126.449	2532
4128.013	2515
4129.573	2582
4131.133	2580
4132.694	2589
4134.254	2502
4135.814	2559
4137.374	2582
4138.933	2557
4140.491	2489
4142.049	2602
4143.607	2484
4145.167	2534
4146.724	2596
4148.28	2571
4149.836	2503
4151.392	2590
4152.949	2486
4154.504	2499
4156.059	2465
4157.614	2509
4159.168	2548
4160.723	2514
4162.277	2550
4163.83	2469
4165.383	2535
4166.936	2451
4168.488	2489
4170.041	2452
4171.593	2473
4173.144	2460
4174.695	2488
4176.246	2446
4177.796	2515
4179.346	2445
4180.896	2503
4182.445	2478
4183.994	2492
4185.542	2470
4187.091	2437
4188.639	2429
4190.185	2389
4191.732	2406
4193.279	2391
4194.826	2496
4196.373	2471
4197.918	2390
4199.463	2419
4201.008	2452
4202.553	2426
4204.098	2378
4205.641	2348
4207.185	2400
4208.728	2409
4210.271	2396
4211.814	2400
4213.357	2372
4214.898	2390
4216.439	2368
4217.98	2369
4219.522	2371
4221.062	2402
4222.603	2410
4224.142	2374
4225.681	2368
4227.222	2380
4228.76	2404
4230.298	2407
4231.835	2418
4233.373	2441
4234.911	2445
4236.449	2442
4237.985	2364
4239.521	2393
4241.057	2311
4242.592	2356
4244.128	2357
4245.663	2370
4247.197	2386
4248.731	2336
4250.265	2275
4251.798	2419
4253.333	2383
4254.865	2299
4256.397	2346
4257.93	2331
4259.461	2316
4260.994	2396
4262.525	2314
4264.056	2342
4265.586	2347
4267.115	2307
4268.646	2270
4270.176	2311
4271.705	2330
4273.232	2302
4274.761	2350
4276.289	2306
4277.818	2271
4279.345	2320
4280.872	2286
4282.399	2312
4283.924	2323
4285.452	2326
4286.976	2311
4288.502	2272
4290.026	2258
4291.551	2284
4293.074	2275
4294.6	2232
4296.123	2294
4297.646	2313
4299.168	2209
4300.691	2308
4302.214	2265
4303.736	2305
4305.257	2323
4306.778	2361
4308.299	2290
4309.82	2274
4311.34	2247
4312.86	2275
4314.379	2211
