400.0745	3594
402.597	3631
405.1208	3562
407.6419	3630
410.1623	3595
412.6819	3660
415.201	3629
417.7172	3740
420.2369	3714
422.7538	3766
425.2701	3860
427.7856	3791
430.3005	3796
432.8147	3923
435.3282	3894
437.841	3995
440.3511	3798
442.8625	3870
445.3753	3972
447.8854	3922
450.3927	3965
452.9014	3882
455.4073	3858
457.9146	3798
460.4233	3831
462.9272	3942
465.4325	3929
467.935	3838
470.4389	3863
472.9421	3854
475.4446	3997
477.9444	3831
480.4456	3941
482.944	3866
485.4417	3845
487.9429	4028
490.4393	3952
492.935	3930
495.4321	3898
497.9264	3911
500.4221	4019
502.9171	3999
505.4094	3982
507.9011	4000
510.392	4017
512.8864	4022
515.3759	3958
517.8649	4015
520.3531	3994
522.8406	4091
525.3275	3969
527.8178	3973
530.3033	3921
532.7881	4055
535.2723	4016
537.7558	4032
540.2407	4054
542.7228	4068
545.2043	4046
547.6851	4053
550.1652	4030
552.6467	4121
555.1255	3966
557.6016	4123
560.079	4046
562.5557	4051
565.0318	4052
567.5092	4023
569.984	4047
572.456	4091
574.9294	4176
577.4022	4119
579.8762	4168
582.3456	4137
584.8163	4109
587.2863	4203
589.7557	4285
592.2224	4281
594.6924	4177
597.1578	4116
599.6245	4253
602.0905	4200
604.5538	4099
607.0206	4195
609.4825	4144
611.9459	4104
614.4066	4208
616.8686	4213
619.33	4183
621.7906	4131
624.2487	4159
626.708	4217
629.1647	4121
631.6207	4248
634.0801	4202
636.5348	4156
638.9888	4132
641.4442	4153
643.8969	4097
646.3509	4177
648.8022	4236
651.255	4167
653.705	4123
656.1544	4220
658.6031	4210
661.0532	4270
663.5026	4197
665.9493	4230
668.3954	4342
670.8409	4266
673.2877	4172
675.7318	4341
678.1752	4237
680.618	4305
683.0601	4282
685.5035	4307
687.9444	4244
690.3845	4334
692.824	4326
695.2628	4349
697.701	4296
700.1406	4323
702.5774	4348
705.0116	4370
707.4472	4377
709.8821	4359
712.3183	4345
714.7519	4248
717.1829	4366
719.6151	4489
722.0468	4453
724.4777	4419
726.908	4407
729.3377	4422
731.7667	4442
734.1931	4419
736.6208	4396
739.0498	4463
741.4742	4526
743.9	4527
746.3231	4506
748.7476	4475
751.1713	4502
753.5945	4611
756.015	4563
758.4368	4484
760.856	4549
763.2766	4696
765.6965	4644
768.1157	4635
770.5323	4602
772.9483	4652
775.3656	4625
777.7822	4676
780.1963	4630
782.6116	4552
785.0244	4589
787.4365	4718
789.8499	4638
792.2626	4627
794.6728	4560
797.0823	4693
799.4911	4549
801.8994	4596
804.3109	4712
806.7178	4687
809.124	4553
811.5297	4676
813.9347	4687
816.341	4655
818.7447	4746
821.1478	4707
823.5502	4721
825.952	4658
828.3531	4751
830.7556	4735
833.1554	4750
835.5546	4628
837.9532	4689
840.3511	4719
842.7504	4722
845.1451	4719
847.5411	4741
849.9365	4776
852.3312	4842
854.7272	4843
857.1187	4816
859.5115	4821
861.9037	4735
864.2952	4792
866.6842	4709
869.0764	4781
871.4661	4638
873.8531	4783
876.2415	4702
878.6272	4802
881.0162	4774
883.4026	4749
885.7866	4722
888.1717	4737
890.5543	4727
892.9382	4813
895.3215	4743
897.7041	4737
900.0842	4726
902.4655	4851
904.8443	4797
907.2244	4812
909.6039	4770
911.9808	4916
914.357	4881
916.7346	4977
919.1115	4973
921.4859	5107
923.8616	5176
926.2347	5109
928.6071	5115
930.979	5014
933.3541	5072
935.7247	5063
938.0946	5064
940.4639	5119
942.8326	5100
945.2026	5163
947.5701	5110
949.9369	5158
952.305	5473
954.6705	5490
957.0355	5519
959.4017	5903
961.7654	5861
964.1284	5892
966.4908	5765
968.8527	5624
971.2138	5535
973.5743	5310
975.9343	5138
978.2936	5079
980.6522	4974
983.0122	4971
985.3696	4988
987.7245	4924
990.0807	4923
992.4362	4874
994.7911	4960
997.1474	4962
999.4991	4883
1001.852	4947
1004.205	5009
1006.555	4996
1008.908	4893
1011.258	4972
1013.606	4920
1015.956	5051
1018.302	4979
1020.652	4883
1022.998	4972
1025.345	5002
1027.691	4850
1030.035	5024
1032.378	5027
1034.724	5091
1037.066	4967
1039.409	5019
1041.75	5059
1044.092	5087
1046.433	5129
1048.771	5012
1051.112	4908
1053.449	5041
1055.786	4954
1058.124	5095
1060.462	5126
1062.797	5011
1065.131	5018
1067.467	5076
1069.8	5139
1072.135	5095
1074.467	5078
1076.798	5112
1079.129	5035
1081.459	4996
1083.792	5058
1086.121	5042
1088.449	5091
1090.777	4947
1093.104	5008
1095.431	5011
1097.759	5019
1100.084	5055
1102.408	5057
1104.732	5078
1107.056	5103
1109.379	5021
1111.701	5078
1114.022	5078
1116.343	5111
1118.664	5078
1120.983	5086
1123.303	5101
1125.621	5094
1127.939	5167
1130.256	5144
1132.573	5035
1134.889	5061
1137.205	4909
1139.52	5117
1141.832	5026
1144.146	5057
1146.461	5019
1148.771	5031
1151.083	5006
1153.392	5129
1155.703	5025
1158.011	5155
1160.323	5043
1162.629	5049
1164.938	5096
1167.243	5045
1169.55	5014
1171.857	5031
1174.163	5040
1176.466	5147
1178.769	5038
1181.073	5069
1183.374	5046
1185.677	5149
1187.979	5063
1190.279	5087
1192.578	5081
1194.878	5133
1197.178	5150
1199.476	5014
1201.772	5041
1204.068	5091
1206.366	5132
1208.663	5105
1210.957	5130
1213.251	5050
1215.544	5034
1217.836	5045
1220.128	5128
1222.421	5128
1224.712	5110
1227.002	5165
1229.292	5208
1231.581	5247
1233.871	5232
1236.159	5262
1238.446	5291
1240.732	5239
1243.018	5229
1245.304	5287
1247.59	5395
1249.874	5317
1252.156	5337
1254.439	5301
1256.721	5352
1259.005	5270
1261.286	5263
1263.565	5322
1265.845	5219
1268.125	5306
1270.403	5391
1272.682	5377
1274.959	5360
1277.234	5261
1279.511	5243
1281.787	5266
1284.062	5275
1286.337	5289
1288.609	5179
1290.882	5170
1293.153	5280
1295.428	5247
1297.698	5248
1299.969	5167
1302.237	5275
1304.507	5268
1306.777	5095
1309.044	5224
1311.312	5130
1313.578	5209
1315.844	5257
1318.109	5175
1320.375	5292
1322.638	5169
1324.903	5207
1327.165	5183
1329.427	5254
1331.69	5298
1333.952	5185
1336.212	5236
1338.471	5227
1340.73	5271
1342.988	5225
1345.248	5238
1347.505	5133
1349.763	5172
1352.019	5238
1354.274	5209
1356.53	5268
1358.784	5244
1361.038	5268
1363.291	5104
1365.543	5210
1367.797	5234
1370.048	5155
1372.296	5129
1374.546	5223
1376.796	5192
1379.045	5201
1381.295	5320
1383.542	5324
1385.787	5217
1388.034	5285
1390.28	5158
1392.527	5374
1394.772	5437
1397.014	5442
1399.258	5337
1401.501	5448
1403.741	5402
1405.985	5420
1408.226	5449
1410.465	5348
1412.705	5347
1414.943	5370
1417.184	5331
1419.42	5382
1421.658	5320
1423.894	5429
1426.13	5394
1428.366	5338
1430.602	5407
1432.835	5301
1435.069	5423
1437.301	5541
1439.535	5412
1441.767	5513
1443.997	5439
1446.229	5467
1448.458	5609
1450.687	5468
1452.916	5391
1455.146	5453
1457.372	5450
1459.599	5570
1461.824	5573
1464.051	5530
1466.277	5642
1468.501	5456
1470.725	5493
1472.948	5417
1475.17	5365
1477.393	5233
1479.614	5405
1481.837	5270
1484.057	5253
1486.276	5301
1488.497	5246
1490.715	5213
1492.932	5240
1495.148	5062
1497.364	5201
1499.58	5258
1501.798	5209
1504.012	5210
1506.227	5158
1508.44	5115
1510.653	5118
1512.866	5283
1515.078	5231
1517.289	5230
1519.5	5155
1521.711	5165
1523.92	5179
1526.13	5049
1528.338	5123
1530.544	5130
1532.752	5118
1534.959	5177
1537.165	5123
1539.371	5208
1541.574	5272
1543.779	5183
1545.983	5233
1548.187	5134
1550.39	5169
1552.59	5233
1554.792	5280
1556.991	5215
1559.19	5270
1561.392	5281
1563.59	5250
1565.789	5212
1567.986	5276
1570.182	5211
1572.381	5196
1574.576	5288
1576.771	5214
1578.966	5377
1581.16	5253
1583.354	5373
1585.546	5357
1587.74	5279
1589.931	5265
1592.121	5362
1594.311	5382
1596.502	5316
1598.693	5451
1600.881	5280
1603.069	5283
1605.256	5363
1607.445	5395
1609.631	5329
1611.816	5329
1614.001	5336
1616.186	5404
1618.37	5323
1620.555	5279
1622.737	5304
1624.919	5448
1627.101	5386
1629.282	5381
1631.463	5344
1633.643	5445
1635.822	5476
1638.001	5317
1640.179	5403
1642.359	5511
1644.534	5371
1646.711	5483
1648.887	5422
1651.062	5411
1653.235	5404
1655.412	5381
1657.586	5429
1659.757	5510
1661.93	5374
1664.1	5366
1666.274	5446
1668.445	5354
1670.614	5439
1672.784	5459
1674.951	5458
1677.12	5514
1679.289	5518
1681.457	5354
1683.622	5446
1685.789	5429
1687.953	5415
1690.121	5460
1692.284	5399
1694.447	5364
1696.611	5381
1698.772	5270
1700.935	5315
1703.098	5360
1705.258	5307
1707.417	5347
1709.576	5292
1711.736	5273
1713.896	5255
1716.053	5267
1718.21	5373
1720.366	5313
1722.522	5296
1724.68	5274
1726.835	5353
1728.989	5312
1731.142	5317
1733.295	5287
1735.449	5280
1737.601	5153
1739.753	5307
1741.903	5203
1744.054	5339
1746.203	5285
1748.354	5264
1750.503	5262
1752.651	5356
1754.798	5253
1756.944	5274
1759.092	5257
1761.238	5327
1763.383	5328
1765.528	5269
1767.672	5254
1769.814	5278
1771.959	5362
1774.102	5308
1776.242	5360
1778.384	5376
1780.525	5366
1782.665	5382
1784.805	5318
1786.945	5383
1789.082	5317
1791.22	5314
1793.36	5281
1795.495	5401
1797.632	5326
1799.766	5352
1801.902	5299
1804.035	5382
1806.172	5273
1808.304	5385
1810.436	5256
1812.569	5381
1814.699	5297
1816.833	5242
1818.963	5331
1821.092	5290
1823.222	5291
1825.35	5316
1827.478	5402
1829.608	5265
1831.734	5423
1833.86	5252
1835.986	5321
1838.11	5279
1840.238	5377
1842.362	5306
1844.485	5255
1846.608	5289
1848.73	5333
1850.853	5256
1852.974	5242
1855.097	5189
1857.217	5305
1859.336	5267
1861.455	5293
1863.576	5221
1865.693	5323
1867.811	5298
1869.926	5243
1872.042	5252
1874.16	5269
1876.275	5254
1878.39	5289
1880.504	5345
1882.618	5301
1884.731	5349
1886.843	5227
1888.956	5194
1891.067	5286
1893.178	5303
1895.287	5214
1897.399	5278
1899.508	5393
1901.617	5292
1903.724	5286
1905.832	5317
1907.941	5311
1910.046	5271
1912.152	5381
1914.256	5283
1916.361	5227
1918.464	5358
1920.57	5366
1922.672	5303
1924.775	5347
1926.876	5314
1928.978	5396
1931.08	5265
1933.181	5315
1935.28	5387
1937.38	5336
1939.478	5432
1941.577	5298
1943.675	5337
1945.771	5276
1947.867	5340
1949.964	5432
1952.058	5295
1954.154	5290
1956.248	5350
1958.343	5357
1960.435	5327
1962.527	5437
1964.62	5201
1966.711	5442
1968.802	5242
1970.892	5309
1972.983	5283
1975.072	5255
1977.162	5295
1979.25	5320
1981.337	5418
1983.424	5355
1985.51	5392
1987.598	5342
1989.683	5289
1991.768	5358
1993.852	5352
1995.934	5252
1998.019	5216
2000.102	5307
2002.184	5317
2004.266	5318
2006.347	5341
2008.427	5320
2010.508	5306
2012.587	5281
2014.666	5271
2016.745	5260
2018.821	5350
2020.9	5258
2022.977	5315
2025.052	5373
2027.128	5376
2029.204	5158
2031.277	5315
2033.353	5408
2035.425	5362
2037.499	5196
2039.57	5375
2041.642	5255
2043.714	5294
2045.786	5310
2047.855	5345
2049.925	5215
2051.993	5250
2054.064	5250
2056.132	5240
2058.2	5258
2060.266	5227
2062.332	5383
2064.398	5280
2066.465	5300
2068.529	5250
2070.592	5388
2072.657	5240
2074.719	5308
2076.783	5301
2078.845	5309
2080.907	5294
2082.968	5245
2085.028	5256
2087.087	5344
2089.148	5208
2091.207	5363
2093.264	5305
2095.322	5261
2097.379	5299
2099.439	5303
2101.495	5258
2103.55	5267
2105.605	5255
2107.658	5344
2109.713	5228
2111.767	5368
2113.82	5330
2115.872	5257
2117.924	5271
2119.975	5226
2122.028	5275
2124.078	5280
2126.126	5234
2128.176	5352
2130.225	5203
2132.275	5203
2134.321	5302
2136.368	5261
2138.415	5304
2140.461	5200
2142.505	5252
2144.552	5247
2146.597	5294
2148.64	5314
2150.684	5284
2152.725	5275
2154.77	5234
2156.811	5185
2158.852	5140
2160.894	5243
2162.933	5250
2164.973	5198
2167.013	5209
2169.051	5232
2171.089	5329
2173.126	5230
2175.164	5188
2177.201	5223
2179.236	5234
2181.273	5250
2183.307	5255
2185.341	5154
2187.377	5115
2189.41	5160
2191.442	5227
2193.473	5226
2195.506	5096
2197.539	5176
2199.569	5117
2201.598	5118
2203.628	5149
2205.656	5153
2207.686	5156
2209.716	5096
2211.743	5145
2213.769	5120
2215.796	5136
2217.821	5151
2219.848	5153
2221.873	5185
2223.897	5227
2225.921	5160
2227.944	5086
2229.967	5061
2231.991	5065
2234.011	5122
2236.032	5132
2238.053	5111
2240.073	5090
2242.094	4993
2244.114	5140
2246.131	5094
2248.149	5129
2250.167	5084
2252.186	5053
2254.201	5135
2256.218	5114
2258.233	5134
2260.247	5103
2262.262	5191
2264.278	5125
2266.29	5072
2268.303	5046
2270.315	5114
2272.327	5078
2274.341	5058
2276.35	5104
2278.361	5084
2280.37	5206
2282.38	5179
2284.388	5016
2286.397	5043
2288.405	5155
2290.412	5122
2292.419	4985
2294.425	5114
2296.431	5097
2298.437	5121
2300.441	5059
2302.445	5077
2304.449	5093
2306.453	5081
2308.455	4955
2310.457	5143
2312.459	4997
2314.46	5060
2316.46	5103
2318.461	5133
2320.46	5045
2322.458	4953
2324.458	5117
2326.456	5037
2328.455	5191
2330.451	5071
2332.447	5055
2334.443	5140
2336.438	4990
2338.433	4962
2340.429	5006
2342.422	5029
2344.416	5050
2346.408	4946
2348.399	4908
2350.393	5025
2352.384	4961
2354.375	5024
2356.365	5033
2358.355	4965
2360.344	4942
2362.333	5050
2364.322	5029
2366.309	4985
2368.295	4979
2370.282	4961
2372.27	5019
2374.256	5036
2376.24	5056
2378.225	4979
2380.208	4987
2382.194	4926
2384.177	4910
2386.159	4982
2388.142	4884
2390.122	4977
2392.105	4984
2394.085	4848
2396.066	4930
2398.044	4939
2400.024	4925
2402.002	4936
2403.982	4913
2405.959	5018
2407.935	4887
2409.913	4920
2411.888	4875
2413.865	4877
2415.84	4957
2417.814	4873
2419.788	5002
2421.762	4935
2423.735	4873
2425.708	4881
2427.68	5056
2429.651	4942
2431.623	4841
2433.593	4957
2435.564	4856
2437.533	4899
2439.502	4893
2441.47	4860
2443.438	4875
2445.406	4922
2447.373	4817
2449.34	4913
2451.305	4899
2453.271	4890
2455.235	4834
2457.201	4946
2459.165	4882
2461.129	4860
2463.092	4899
2465.054	4948
2467.018	4839
2468.978	4854
2470.939	4805
2472.899	4875
2474.86	4870
2476.819	4912
2478.778	4843
2480.737	4827
2482.695	4831
2484.653	4861
2486.609	4777
2488.567	4941
2490.524	4894
2492.478	4810
2494.433	4893
2496.387	4953
2498.343	4881
2500.297	4741
2502.249	4840
2504.202	4857
2506.153	4866
2508.105	4783
2510.057	4861
2512.008	4832
2513.957	4886
2515.906	4778
2517.855	4790
2519.805	4864
2521.754	4691
2523.7	4816
2525.647	4816
2527.594	4796
2529.54	4771
2531.486	4749
2533.431	4816
2535.376	4785
2537.32	4916
2539.263	4809
2541.207	4761
2543.151	4755
2545.093	4802
2547.034	4835
2548.975	4770
2550.917	4723
2552.856	4799
2554.796	4840
2556.735	4814
2558.673	4726
2560.611	4844
2562.55	4775
2564.487	4691
2566.424	4785
2568.36	4787
2570.296	4681
2572.232	4771
2574.167	4904
2576.101	4750
2578.035	4784
2579.969	4799
2581.902	4686
2583.834	4749
2585.766	4921
2587.698	4727
2589.628	4752
2591.557	4807
2593.489	4840
2595.419	4906
2597.348	4882
2599.275	4886
2601.204	4759
2603.131	4779
2605.059	4846
2606.986	4870
2608.911	4816
2610.837	4756
2612.76	4816
2614.687	4789
2616.61	4770
2618.534	4839
2620.457	4859
2622.38	4764
2624.302	4803
2626.225	4754
2628.145	4864
2630.067	4857
2631.986	4765
2633.906	4876
2635.827	4811
2637.745	4823
2639.662	4786
2641.581	4801
2643.498	4748
2645.415	4843
2647.331	4820
2649.248	4800
2651.163	4819
2653.077	4824
2654.993	4754
2656.906	4824
2658.821	4823
2660.733	4683
2662.646	4844
2664.557	4779
2666.47	4876
2668.381	4768
2670.291	4699
2672.201	4742
2674.11	4730
2676.021	4804
2677.929	4807
2679.837	4733
2681.745	4815
2683.652	4823
2685.56	4675
2687.466	4647
2689.371	4714
2691.276	4744
2693.181	4792
2695.085	4749
2696.991	4785
2698.893	4751
2700.796	4720
2702.698	4816
2704.601	4599
2706.502	4757
2708.404	4615
2710.304	4686
2712.203	4771
2714.103	4683
2716.003	4670
2717.902	4680
2719.8	4686
2721.697	4711
2723.594	4724
2725.49	4722
2727.389	4693
2729.283	4616
2731.179	4669
2733.073	4696
2734.968	4729
2736.863	4624
2738.757	4694
2740.649	4653
2742.541	4664
2744.433	4664
2746.324	4697
2748.216	4680
2750.107	4706
2751.997	4715
2753.886	4671
2755.776	4736
2757.666	4705
2759.553	4675
2761.44	4628
2763.327	4684
2765.215	4649
2767.102	4733
2768.988	4677
2770.873	4714
2772.757	4599
2774.641	4721
2776.525	4685
2778.41	4587
2780.292	4673
2782.175	4663
2784.057	4645
2785.938	4732
2787.821	4627
2789.701	4677
2791.581	4679
2793.461	4720
2795.34	4720
2797.219	4636
2799.099	4633
2800.975	4697
2802.853	4617
2804.73	4560
2806.606	4559
2808.484	4746
2810.358	4619
2812.233	4527
2814.108	4580
2815.981	4614
2817.857	4619
2819.73	4602
2821.602	4577
2823.474	4529
2825.346	4693
2827.217	4520
2829.089	4671
2830.959	4564
2832.829	4642
2834.698	4653
2836.567	4643
2838.436	4653
2840.305	4710
2842.172	4718
2844.04	4658
2845.905	4682
2847.772	4742
2849.639	4773
2851.503	4704
2853.369	4760
2855.232	4828
2857.096	4799
2858.961	4837
2860.824	4849
2862.686	4863
2864.547	4844
2866.41	4924
2868.272	4992
2870.132	4902
2871.992	4955
2873.851	5031
2875.711	5093
2877.57	5163
2879.429	5223
2881.287	5104
2883.144	5308
2885.001	5247
2886.857	5149
2888.714	5284
2890.57	5305
2892.425	5489
2894.279	5376
2896.133	5317
2897.987	5380
2899.842	5332
2901.694	5273
2903.547	5310
2905.397	5243
2907.249	5270
2909.101	5266
2910.952	5254
2912.802	5202
2914.652	5382
2916.5	5284
2918.35	5456
2920.198	5434
2922.045	5453
2923.893	5383
2925.74	5452
2927.585	5515
2929.433	5603
2931.279	5650
2933.123	5650
2934.968	5736
2936.811	5737
2938.656	5651
2940.5	5743
2942.342	5733
2944.185	5834
2946.026	5883
2947.87	5953
2949.71	5929
2951.549	5975
2953.39	5953
2955.229	5841
2957.069	5858
2958.908	5730
2960.746	5770
2962.584	5695
2964.421	5825
2966.257	5763
2968.094	5658
2969.931	5558
2971.766	5408
2973.601	5341
2975.435	5424
2977.27	5271
2979.105	5393
2980.938	5287
2982.77	5249
2984.602	5131
2986.434	5086
2988.267	5069
2990.097	4915
2991.927	4965
2993.757	4878
2995.587	4883
2997.417	4810
2999.246	4899
3001.074	4929
3002.902	4835
3004.729	4772
3006.556	4710
3008.384	4631
3010.21	4750
3012.036	4478
3013.861	4524
3015.684	4581
3017.51	4568
3019.334	4449
3021.157	4478
3022.981	4461
3024.802	4358
3026.624	4403
3028.448	4438
3030.267	4383
3032.088	4422
3033.909	4384
3035.728	4433
3037.549	4341
3039.368	4409
3041.186	4397
3043.004	4358
3044.821	4302
3046.64	4350
3048.455	4424
3050.272	4312
3052.087	4421
3053.903	4372
3055.717	4353
3057.534	4321
3059.347	4356
3061.16	4259
3062.974	4271
3064.785	4358
3066.598	4296
3068.411	4304
3070.222	4352
3072.032	4273
3073.844	4248
3075.653	4263
3077.463	4286
3079.272	4187
3081.08	4208
3082.889	4171
3084.697	4243
3086.505	4251
3088.312	4243
3090.118	4191
3091.924	4253
3093.729	4216
3095.535	4214
3097.34	4126
3099.144	4188
3100.947	4156
3102.75	4102
3104.553	4199
3106.357	4217
3108.159	4178
3109.961	4171
3111.762	4119
3113.562	4169
3115.365	4144
3117.164	4095
3118.964	4104
3120.761	4115
3122.56	4225
3124.36	4233
3126.158	4183
3127.954	4111
3129.75	4150
3131.547	4104
3133.343	4141
3135.139	4166
3136.934	4149
3138.729	4112
3140.522	4044
3142.317	4161
3144.11	4073
3145.904	4155
3147.695	4194
3149.488	4081
3151.28	4062
3153.07	4071
3154.863	4061
3156.652	4019
3158.441	4120
3160.231	3944
3162.019	4065
3163.81	4103
3165.597	4015
3167.384	4045
3169.172	4101
3170.958	4062
3172.745	4009
3174.532	4061
3176.317	4082
3178.101	4103
3179.885	4075
3181.67	4007
3183.455	3961
3185.238	4047
3187.02	4024
3188.802	3973
3190.585	4100
3192.368	4038
3194.149	4112
3195.929	4078
3197.709	4028
3199.489	4012
3201.268	4055
3203.048	4074
3204.826	4017
3206.604	4051
3208.382	4005
3210.159	3941
3211.937	4003
3213.713	4026
3215.489	3974
3217.263	4014
3219.038	3979
3220.815	4023
3222.589	4083
3224.363	3959
3226.136	3979
3227.908	4032
3229.681	3973
3231.454	4005
3233.226	4011
3234.996	4001
3236.767	3965
3238.538	4067
3240.308	3950
3242.078	3967
3243.847	3979
3245.615	3993
3247.384	3978
3249.15	4050
3250.92	4039
3252.686	3978
3254.453	4006
3256.218	3992
3257.984	4001
3259.75	3983
3261.515	3947
3263.279	3956
3265.044	3997
3266.806	3942
3268.57	4003
3270.334	3959
3272.095	4044
3273.856	3995
3275.619	3928
3277.379	4029
3279.14	4048
3280.9	4014
3282.661	3902
3284.419	4041
3286.178	3940
3287.937	4025
3289.695	3951
3291.453	3944
3293.21	3987
3294.967	3963
3296.723	3974
3298.48	4013
3300.235	4025
3301.99	3952
3303.744	3937
3305.498	3965
3307.253	4058
3309.006	3970
3310.759	3897
3312.511	3973
3314.263	4008
3316.017	3959
3317.768	3933
3319.519	3965
3321.268	3919
3323.018	3969
3324.767	3999
3326.518	4067
3328.267	4037
3330.014	4006
3331.762	3894
3333.509	3908
3335.258	3982
3337.003	3947
3338.75	3994
3340.496	3877
3342.24	3968
3343.987	3918
3345.732	4017
3347.475	3932
3349.219	3939
3350.961	3984
3352.705	3865
3354.448	3931
3356.19	3945
3357.931	3901
3359.672	3887
3361.412	3963
3363.155	3977
3364.894	3890
3366.633	3882
3368.372	3878
3370.11	3867
3371.849	3890
3373.588	3915
3375.325	3846
3377.061	3866
3378.799	3826
3380.534	3791
3382.271	3894
3384.006	3875
3385.741	3834
3387.475	3872
3389.209	3847
3390.944	3807
3392.677	3796
3394.409	3807
3396.143	3854
3397.874	3816
3399.606	3851
3401.338	3878
3403.069	3846
3404.799	3861
3406.528	3763
3408.258	3858
3409.988	3759
3411.717	3804
3413.445	3746
3415.173	3825
3416.899	3808
3418.626	3764
3420.354	3760
3422.08	3804
3423.806	3794
3425.531	3860
3427.255	3662
3428.981	3722
3430.705	3765
3432.429	3679
3434.151	3694
3435.875	3718
3437.599	3722
3439.321	3663
3441.042	3733
3442.763	3679
3444.483	3635
3446.204	3692
3447.926	3808
3449.645	3684
3451.364	3662
3453.082	3638
3454.801	3762
3456.52	3722
3458.238	3745
3459.954	3710
3461.671	3664
3463.387	3721
3465.104	3676
3466.82	3655
3468.534	3655
3470.25	3574
3471.963	3616
3473.676	3635
3475.392	3647
3477.104	3646
3478.817	3616
3480.528	3615
3482.241	3644
3483.954	3650
3485.664	3583
3487.374	3603
3489.084	3583
3490.795	3543
3492.504	3566
3494.214	3603
3495.922	3514
3497.63	3614
3499.338	3521
3501.045	3531
3502.753	3537
3504.459	3563
3506.166	3558
3507.871	3620
3509.576	3519
3511.283	3600
3512.987	3418
3514.691	3479
3516.395	3559
3518.098	3525
3519.8	3484
3521.504	3459
3523.206	3471
3524.908	3493
3526.609	3463
3528.309	3456
3530.011	3495
3531.711	3418
3533.411	3482
3535.109	3410
3536.808	3431
3538.507	3422
3540.206	3437
3541.904	3503
3543.601	3467
3545.297	3394
3546.994	3465
3548.69	3347
3550.387	3462
3552.081	3479
3553.776	3492
3555.47	3397
3557.166	3384
3558.859	3460
3560.553	3451
3562.245	3412
3563.938	3438
3565.629	3484
3567.322	3346
3569.014	3407
3570.704	3458
3572.394	3387
3574.084	3388
3575.775	3366
3577.464	3471
3579.152	3344
3580.842	3358
3582.529	3406
3584.216	3289
3585.905	3321
3587.591	3344
3589.279	3321
3590.964	3395
3592.649	3386
3594.336	3272
3596.021	3287
3597.705	3323
3599.388	3350
3601.072	3349
3602.757	3238
3604.439	3348
3606.122	3325
3607.803	3271
3609.485	3296
3611.167	3312
3612.849	3309
3614.529	3302
3616.208	3249
3617.888	3162
3619.567	3196
3621.247	3212
3622.926	3189
3624.603	3148
3626.281	3268
3627.958	3252
3629.635	3143
3631.312	3207
3632.989	3146
3634.665	3257
3636.339	3223
3638.014	3219
3639.691	3232
3641.364	3165
3643.038	3162
3644.71	3202
3646.384	3180
3648.058	3116
3649.729	3129
3651.402	3198
3653.073	3225
3654.744	3135
3656.414	3167
3658.085	3129
3659.755	3149
3661.424	3109
3663.094	3148
3664.762	3082
3666.431	3163
3668.099	3140
3669.766	3112
3671.433	3087
3673.099	3129
3674.768	3070
3676.433	3162
3678.098	3063
3679.763	3137
3681.428	3087
3683.093	3123
3684.757	3069
3686.421	3108
3688.083	3141
3689.746	3114
3691.408	3096
3693.071	3065
3694.733	3112
3696.394	3052
3698.054	2975
3699.715	3128
3701.375	3114
3703.036	3081
3704.695	3091
3706.354	3144
3708.012	3093
3709.67	3057
3711.329	3103
3712.987	3082
3714.644	3024
3716.299	3079
3717.955	3029
3719.613	3024
3721.268	3031
3722.923	3041
3724.577	3054
3726.231	3028
3727.885	3078
3729.539	3029
3731.192	2977
3732.845	3080
3734.497	3048
3736.149	2999
3737.802	2981
3739.453	3020
3741.104	3042
3742.753	3037
3744.404	3008
3746.052	3015
3747.704	3016
3749.352	3008
3751	2974
3752.648	2970
3754.296	3021
3755.944	3058
3757.59	3002
3759.238	2934
3760.883	2933
3762.528	2994
3764.176	2884
3765.82	2970
3767.464	2969
3769.109	3003
3770.753	2960
3772.396	3001
3774.04	2943
3775.683	2883
3777.325	2948
3778.967	2942
3780.608	2909
3782.25	2929
3783.89	2943
3785.531	2972
3787.17	3012
3788.81	2940
3790.45	2958
3792.09	2941
3793.729	2918
3795.366	2933
3797.003	2904
3798.64	2918
3800.278	2913
3801.915	2937
3803.551	2942
3805.187	2921
3806.822	2894
3808.458	2873
3810.093	2825
3811.726	2913
3813.36	2916
3814.994	2858
3816.627	2939
3818.262	2889
3819.893	2890
3821.525	2866
3823.157	2830
3824.787	2935
3826.42	2869
3828.051	2906
3829.68	2885
3831.31	2868
3832.938	2862
3834.569	2850
3836.198	2826
3837.825	2809
3839.454	2744
3841.08	2847
3842.708	2881
3844.335	2800
3845.962	2792
3847.587	2771
3849.212	2837
3850.838	2779
3852.463	2797
3854.089	2802
3855.712	2789
3857.335	2832
3858.959	2853
3860.582	2849
3862.205	2750
3863.827	2839
3865.449	2794
3867.07	2779
3868.691	2759
3870.312	2782
3871.933	2816
3873.553	2831
3875.173	2798
3876.792	2740
3878.411	2756
3880.03	2814
3881.647	2737
3883.265	2815
3884.882	2822
3886.499	2803
3888.116	2835
3889.732	2717
3891.348	2806
3892.964	2746
3894.579	2781
3896.195	2842
3897.809	2805
3899.423	2804
3901.036	2734
3902.648	2748
3904.261	2776
3905.875	2783
3907.487	2749
3909.099	2753
3910.709	2717
3912.321	2802
3913.933	2759
3915.542	2702
3917.152	2743
3918.762	2701
3920.37	2752
3921.98	2684
3923.589	2711
3925.196	2772
3926.804	2701
3928.41	2751
3930.018	2780
3931.626	2744
3933.231	2694
3934.838	2696
3936.442	2648
3938.046	2679
3939.653	2777
3941.257	2670
3942.861	2770
3944.464	2678
3946.068	2721
3947.67	2666
3949.273	2708
3950.876	2687
3952.477	2713
3954.078	2742
3955.678	2736
3957.281	2674
3958.881	2727
3960.48	2716
3962.079	2701
3963.678	2655
3965.279	2663
3966.877	2699
3968.475	2679
3970.072	2636
3971.669	2674
3973.266	2668
3974.864	2717
3976.459	2634
3978.055	2645
3979.65	2650
3981.245	2673
3982.841	2673
3984.436	2635
3986.03	2646
3987.623	2623
3989.216	2623
3990.809	2614
3992.403	2612
3993.995	2600
3995.586	2609
3997.177	2560
3998.768	2623
4000.361	2566
4001.951	2576
4003.54	2602
4005.13	2555
4006.719	2632
4008.31	2597
4009.897	2575
4011.485	2566
4013.073	2546
4014.66	2573
4016.247	2605
4017.834	2526
4019.421	2541
4021.006	2555
4022.592	2551
4024.178	2561
4025.763	2489
4027.348	2557
4028.932	2537
4030.515	2553
4032.099	2597
4033.682	2581
4035.266	2533
4036.847	2495
4038.429	2527
4040.011	2515
4041.592	2549
4043.173	2452
4044.755	2487
4046.334	2496
4047.913	2473
4049.494	2507
4051.074	2507
4052.652	2523
4054.23	2538
4055.807	2476
4057.385	2455
4058.963	2451
4060.541	2497
4062.117	2525
4063.693	2513
4065.269	2492
4066.844	2444
4068.42	2471
4069.995	2500
4071.569	2511
4073.143	2497
4074.716	2484
4076.291	2471
4077.864	2474
4079.436	2432
4081.009	2487
4082.58	2422
4084.152	2462
4085.723	2525
4087.294	2461
4088.865	2478
4090.435	2446
4092.005	2502
4093.574	2437
4095.143	2461
4096.712	2453
4098.279	2416
4099.848	2418
4101.416	2432
4102.984	2461
4104.55	2454
4106.117	2474
4107.682	2461
4109.248	2464
4110.815	2363
4112.379	2400
4113.945	2387
4115.508	2452
4117.073	2457
4118.637	2404
4120.201	2458
4121.763	2399
4123.325	2392
4124.888	2386
4126.449	2419
4128.013	2394
4129.573	2338
4131.133	2424
4132.694	2396
4134.254	2413
4135.814	2399
4137.374	2366
4138.933	2420
4140.491	2288
4142.049	2387
4143.607	2393
4145.167	2413
4146.724	2421
4148.28	2418
4149.836	2301
4151.392	2375
4152.949	2369
4154.504	2361
4156.059	2298
4157.614	2287
4159.168	2275
4160.723	2386
4162.277	2360
4163.83	2320
4165.383	2338
4166.936	2360
4168.488	2376
4170.041	2327
4171.593	2343
4173.144	2364
4174.695	2291
4176.246	2382
4177.796	2299
4179.346	2321
4180.896	2328
4182.445	2246
4183.994	2253
4185.542	2325
4187.091	2262
4188.639	2350
4190.185	2308
4191.732	2271
4193.279	2222
4194.826	2224
4196.373	2257
4197.918	2293
4199.463	2222
4201.008	2265
4202.553	2262
4204.098	2288
4205.641	2277
4207.185	2276
4208.728	2299
4210.271	2227
4211.814	2232
4213.357	2246
4214.898	2248
4216.439	2257
4217.98	2276
4219.522	2148
4221.062	2267
4222.603	2252
4224.142	2217
4225.681	2225
4227.222	2247
4228.76	2234
4230.298	2277
4231.835	2256
4233.373	2258
4234.911	2253
4236.449	2212
4237.985	2205
4239.521	2282
4241.057	2269
4242.592	2251
4244.128	2220
4245.663	2169
4247.197	2197
4248.731	2196
4250.265	2277
4251.798	2234
4253.333	2224
4254.865	2266
4256.397	2190
4257.93	2213
4259.461	2217
4260.994	2263
4262.525	2179
4264.056	2150
4265.586	2242
4267.115	2185
4268.646	2221
4270.176	2192
4271.705	2198
4273.232	2269
4274.761	2194
4276.289	2244
4277.818	2204
4279.345	2190
4280.872	2152
4282.399	2210
4283.924	2154
4285.452	2160
4286.976	2178
4288.502	2105
4290.026	2172
4291.551	2182
4293.074	2132
4294.6	2204
4296.123	2165
4297.646	2139
4299.168	2202
4300.691	2180
4302.214	2130
4303.736	2159
4305.257	2131
4306.778	2174
4308.299	2175
4309.82	2118
4311.34	2159
4312.86	2134
4314.379	2118
