400.0745	4358
402.597	4372
405.1208	4409
407.6419	4304
410.1623	4348
412.6819	4398
415.201	4435
417.7172	4457
420.2369	4546
422.7538	4585
425.2701	4553
427.7856	4551
430.3005	4550
432.8147	4675
435.3282	4541
437.841	4658
440.3511	4718
442.8625	4620
445.3753	4664
447.8854	4604
450.3927	4725
452.9014	4674
455.4073	4626
457.9146	4605
460.4233	4677
462.9272	4645
465.4325	4677
467.935	4618
470.4389	4603
472.9421	4611
475.4446	4592
477.9444	4751
480.4456	4685
482.944	4764
485.4417	4710
487.9429	4795
490.4393	4732
492.935	4794
495.4321	4802
497.9264	4786
500.4221	4805
502.9171	4907
505.4094	4740
507.9011	4883
510.392	4827
512.8864	4835
515.3759	4846
517.8649	4862
520.3531	4924
522.8406	4853
525.3275	4880
527.8178	4982
530.3033	5019
532.7881	4872
535.2723	4868
537.7558	4875
540.2407	4851
542.7228	4885
545.2043	4904
547.6851	4904
550.1652	4901
552.6467	5022
555.1255	4983
557.6016	4929
560.079	4958
562.5557	4959
565.0318	4989
567.5092	5035
569.984	4975
572.456	4996
574.9294	5063
577.4022	5123
579.8762	5091
582.3456	5092
584.8163	5064
587.2863	5080
589.7557	5009
592.2224	5144
594.6924	5036
597.1578	5193
599.6245	5089
602.0905	5074
604.5538	5001
607.0206	4947
609.4825	5034
611.9459	5098
614.4066	5041
616.8686	5088
619.33	5174
621.7906	5049
624.2487	5056
626.708	5040
629.1647	5130
631.6207	5125
634.0801	5108
636.5348	5034
638.9888	5024
641.4442	5141
643.8969	5201
646.3509	5195
648.8022	5141
651.255	5158
653.705	5066
656.1544	5007
658.6031	5196
661.0532	5166
663.5026	5142
665.9493	5168
668.3954	5244
670.8409	5244
673.2877	5275
675.7318	5115
678.1752	5177
680.618	5281
683.0601	5240
685.5035	5196
687.9444	5286
690.3845	5259
692.824	5305
695.2628	5179
697.701	5318
700.1406	5397
702.5774	5321
705.0116	5377
707.4472	5253
709.8821	5396
712.3183	5288
714.7519	5380
717.1829	5402
719.6151	5401
722.0468	5392
724.4777	5400
726.908	5486
729.3377	5403
731.7667	5464
734.1931	5465
736.6208	5546
739.0498	5530
741.4742	5577
743.9	5481
746.3231	5554
748.7476	5557
751.1713	5583
753.5945	5595
756.015	5490
758.4368	5586
760.856	5607
763.2766	5668
765.6965	5520
768.1157	5592
770.5323	5609
772.9483	5612
775.3656	5668
777.7822	5648
780.1963	5503
782.6116	5702
785.0244	5566
787.4365	5589
789.8499	5626
792.2626	5613
794.6728	5652
797.0823	5543
799.4911	5720
801.8994	5556
804.3109	5730
806.7178	5760
809.124	5668
811.5297	5655
813.9347	5631
816.341	5706
818.7447	5739
821.1478	5706
823.5502	5792
825.952	5751
828.3531	5806
830.7556	5652
833.1554	5829
835.5546	5840
837.9532	5732
840.3511	5677
842.7504	5831
845.1451	5827
847.5411	5824
849.9365	5736
852.3312	5914
854.7272	5840
857.1187	5771
859.5115	5769
861.9037	5784
864.2952	5895
866.6842	5771
869.0764	5720
871.4661	5835
873.8531	5798
876.2415	5933
878.6272	5813
881.0162	5784
883.4026	5773
885.7866	5843
888.1717	5854
890.5543	5856
892.9382	5725
895.3215	5794
897.7041	5805
900.0842	5702
902.4655	5748
904.8443	5884
907.2244	5929
909.6039	5945
911.9808	5858
914.357	5919
916.7346	5943
919.1115	5983
921.4859	6170
923.8616	6091
926.2347	5990
928.6071	6070
930.979	5979
933.3541	6034
935.7247	6136
938.0946	6149
940.4639	6053
942.8326	6204
945.2026	6194
947.5701	6234
949.9369	6255
952.305	6565
954.6705	6564
957.0355	6778
959.4017	6825
961.7654	6950
964.1284	6964
966.4908	6682
968.8527	6535
971.2138	6469
973.5743	6293
975.9343	6225
978.2936	6163
980.6522	6112
983.0122	5992
985.3696	6023
987.7245	6030
990.0807	6069
992.4362	5970
994.7911	6033
997.1474	6023
999.4991	6071
1001.852	6106
1004.205	6096
1006.555	6020
1008.908	6066
1011.258	6050
1013.606	5996
1015.956	5936
1018.302	6072
1020.652	6125
1022.998	5982
1025.345	6060
1027.691	6112
1030.035	6028
1032.378	6082
1034.724	6015
1037.066	6139
1039.409	6135
1041.75	6038
1044.092	6062
1046.433	6125
1048.771	6163
1051.112	6108
1053.449	6106
1055.786	6037
1058.124	6141
1060.462	6121
1062.797	6240
1065.131	6171
1067.467	6243
1069.8	6311
1072.135	6277
1074.467	6199
1076.798	6125
1079.129	6187
1081.459	6143
1083.792	6115
1086.121	6146
1088.449	6064
1090.777	6189
1093.104	6097
1095.431	6211
1097.759	6168
1100.084	6094
1102.408	6132
1104.732	6114
1107.056	6236
1109.379	6095
1111.701	6196
1114.022	6204
1116.343	6246
1118.664	6222
1120.983	6303
1123.303	6077
1125.621	6227
1127.939	6261
1130.256	6148
1132.573	6258
1134.889	6246
1137.205	6256
1139.52	6172
1141.832	6183
1144.146	6219
1146.461	6156
1148.771	6099
1151.083	6113
1153.392	6206
1155.703	6123
1158.011	6123
1160.323	6117
1162.629	6145
1164.938	6266
1167.243	6145
1169.55	6237
1171.857	6174
1174.163	6070
1176.466	6256
1178.769	6052
1181.073	6141
1183.374	6108
1185.677	6048
1187.979	6173
1190.279	6227
1192.578	6205
1194.878	6188
1197.178	6182
1199.476	6206
1201.772	6229
1204.068	6225
1206.366	6179
1208.663	6152
1210.957	6074
1213.251	6237
1215.544	6125
1217.836	6226
1220.128	6221
1222.421	6145
1224.712	6270
1227.002	6276
1229.292	6252
1231.581	6358
1233.871	6378
1236.159	6254
1238.446	6362
1240.732	6379
1243.018	6397
1245.304	6357
1247.59	6368
1249.874	6420
1252.156	6364
1254.439	6311
1256.721	6394
1259.005	6531
1261.286	6439
1263.565	6418
1265.845	6510
1268.125	6393
1270.403	6344
1272.682	6301
1274.959	6474
1277.234	6308
1279.511	6272
1281.787	6391
1284.062	6438
1286.337	6371
1288.609	6353
1290.882	6205
1293.153	6257
1295.428	6228
1297.698	6280
1299.969	6345
1302.237	6251
1304.507	6254
1306.777	6183
1309.044	6381
1311.312	6265
1313.578	6192
1315.844	6313
1318.109	6244
1320.375	6256
1322.638	6273
1324.903	6323
1327.165	6304
1329.427	6313
1331.69	6328
1333.952	6448
1336.212	6156
1338.471	6406
1340.73	6292
1342.988	6289
1345.248	6309
1347.505	6312
1349.763	6314
1352.019	6247
1354.274	6235
1356.53	6309
1358.784	6320
1361.038	6316
1363.291	6256
1365.543	6389
1367.797	6364
1370.048	6422
1372.296	6337
1374.546	6369
1376.796	6424
1379.045	6335
1381.295	6356
1383.542	6273
1385.787	6410
1388.034	6315
1390.28	6427
1392.527	6419
1394.772	6463
1397.014	6472
1399.258	6347
1401.501	6457
1403.741	6407
1405.985	6363
1408.226	6521
1410.465	6482
1412.705	6417
1414.943	6526
1417.184	6501
1419.42	6461
1421.658	6454
1423.894	6417
1426.13	6584
1428.366	6550
1430.602	6467
1432.835	6516
1435.069	6580
1437.301	6538
1439.535	6537
1441.767	6690
1443.997	6611
1446.229	6598
1448.458	6538
1450.687	6631
1452.916	6597
1455.146	6734
1457.372	6630
1459.599	6670
1461.824	6701
1464.051	6631
1466.277	6589
1468.501	6581
1470.725	6557
1472.948	6526
1475.17	6456
1477.393	6468
1479.614	6429
1481.837	6394
1484.057	6396
1486.276	6432
1488.497	6472
1490.715	6357
1492.932	6236
1495.148	6325
1497.364	6322
1499.58	6324
1501.798	6252
1504.012	6316
1506.227	6429
1508.44	6392
1510.653	6294
1512.866	6283
1515.078	6207
1517.289	6198
1519.5	6218
1521.711	6289
1523.92	6312
1526.13	6238
1528.338	6320
1530.544	6265
1532.752	6204
1534.959	6284
1537.165	6232
1539.371	6429
1541.574	6320
1543.779	6266
1545.983	6269
1548.187	6365
1550.39	6343
1552.59	6301
1554.792	6300
1556.991	6405
1559.19	6410
1561.392	6403
1563.59	6348
1565.789	6378
1567.986	6471
1570.182	6466
1572.381	6422
1574.576	6538
1576.771	6575
1578.966	6438
1581.16	6553
1583.354	6491
1585.546	6473
1587.74	6505
1589.931	6488
1592.121	6558
1594.311	6521
1596.502	6636
1598.693	6411
1600.881	6437
1603.069	6418
1605.256	6514
1607.445	6512
1609.631	6474
1611.816	6602
1614.001	6395
1616.186	6519
1618.37	6439
1620.555	6521
1622.737	6472
1624.919	6516
1627.101	6510
1629.282	6522
1631.463	6649
1633.643	6511
1635.822	6531
1638.001	6570
1640.179	6601
1642.359	6586
1644.534	6493
1646.711	6493
1648.887	6524
1651.062	6518
1653.235	6540
1655.412	6642
1657.586	6638
1659.757	6661
1661.93	6548
1664.1	6668
1666.274	6535
1668.445	6691
1670.614	6599
1672.784	6623
1674.951	6644
1677.12	6644
1679.289	6734
1681.457	6493
1683.622	6673
1685.789	6618
1687.953	6669
1690.121	6569
1692.284	6470
1694.447	6560
1696.611	6515
1698.772	6530
1700.935	6561
1703.098	6513
1705.258	6488
1707.417	6376
1709.576	6552
1711.736	6380
1713.896	6495
1716.053	6440
1718.21	6434
1720.366	6482
1722.522	6448
1724.68	6444
1726.835	6367
1728.989	6471
1731.142	6410
1733.295	6359
1735.449	6618
1737.601	6529
1739.753	6500
1741.903	6509
1744.054	6432
1746.203	6452
1748.354	6502
1750.503	6401
1752.651	6581
1754.798	6316
1756.944	6468
1759.092	6532
1761.238	6429
1763.383	6602
1765.528	6539
1767.672	6506
1769.814	6558
1771.959	6630
1774.102	6510
1776.242	6618
1778.384	6478
1780.525	6605
1782.665	6566
1784.805	6480
1786.945	6432
1789.082	6517
1791.22	6501
1793.36	6550
1795.495	6544
1797.632	6574
1799.766	6583
1801.902	6507
1804.035	6347
1806.172	6531
1808.304	6478
1810.436	6553
1812.569	6508
1814.699	6599
1816.833	6567
1818.963	6472
1821.092	6631
1823.222	6573
1825.35	6491
1827.478	6497
1829.608	6431
1831.734	6528
1833.86	6501
1835.986	6508
1838.11	6528
1840.238	6471
1842.362	6338
1844.485	6441
1846.608	6431
1848.73	6389
1850.853	6445
1852.974	6462
1855.097	6411
1857.217	6487
1859.336	6469
1861.455	6405
1863.576	6463
1865.693	6401
1867.811	6392
1869.926	6381
1872.042	6305
1874.16	6412
1876.275	6466
1878.39	6298
1880.504	6476
1882.618	6409
1884.731	6394
1886.843	6538
1888.956	6459
1891.067	6440
1893.178	6431
1895.287	6407
1897.399	6416
1899.508	6536
1901.617	6416
1903.724	6548
1905.832	6503
1907.941	6569
1910.046	6468
1912.152	6501
1914.256	6485
1916.361	6436
1918.464	6565
1920.57	6454
1922.672	6500
1924.775	6450
1926.876	6577
1928.978	6546
1931.08	6503
1933.181	6562
1935.28	6655
1937.38	6572
1939.478	6561
1941.577	6641
1943.675	6558
1945.771	6562
1947.867	6460
1949.964	6414
1952.058	6553
1954.154	6588
1956.248	6473
1958.343	6444
1960.435	6488
1962.527	6497
1964.62	6469
1966.711	6510
1968.802	6475
1970.892	6586
1972.983	6565
1975.072	6523
1977.162	6494
1979.25	6507
1981.337	6574
1983.424	6513
1985.51	6435
1987.598	6478
1989.683	6439
1991.768	6334
1993.852	6401
1995.934	6590
1998.019	6466
2000.102	6457
2002.184	6554
2004.266	6456
2006.347	6480
2008.427	6494
2010.508	6482
2012.587	6470
2014.666	6408
2016.745	6379
2018.821	6501
2020.9	6428
2022.977	6376
2025.052	6446
2027.128	6572
2029.204	6382
2031.277	6450
2033.353	6566
2035.425	6347
2037.499	6492
2039.57	6458
2041.642	6367
2043.714	6420
2045.786	6444
2047.855	6433
2049.925	6362
2051.993	6386
2054.064	6487
2056.132	6440
2058.2	6403
2060.266	6384
2062.332	6430
2064.398	6384
2066.465	6278
2068.529	6454
2070.592	6460
2072.657	6561
2074.719	6479
2076.783	6430
2078.845	6320
2080.907	6381
2082.968	6466
2085.028	6358
2087.087	6559
2089.148	6459
2091.207	6472
2093.264	6401
2095.322	6474
2097.379	6439
2099.439	6407
2101.495	6486
2103.55	6380
2105.605	6506
2107.658	6293
2109.713	6486
2111.767	6404
2113.82	6426
2115.872	6463
2117.924	6447
2119.975	6439
2122.028	6345
2124.078	6508
2126.126	6465
2128.176	6376
2130.225	6367
2132.275	6251
2134.321	6419
2136.368	6383
2138.415	6392
2140.461	6311
2142.505	6379
2144.552	6312
2146.597	6385
2148.64	6326
2150.684	6333
2152.725	6459
2154.77	6454
2156.811	6362
2158.852	6335
2160.894	6374
2162.933	6375
2164.973	6420
2167.013	6379
2169.051	6266
2171.089	6307
2173.126	6320
2175.164	6414
2177.201	6347
2179.236	6285
2181.273	6460
2183.307	6223
2185.341	6375
2187.377	6326
2189.41	6210
2191.442	6194
2193.473	6233
2195.506	6255
2197.539	6302
2199.569	6279
2201.598	6323
2203.628	6255
2205.656	6264
2207.686	6310
2209.716	6162
2211.743	6360
2213.769	6235
2215.796	6234
2217.821	6159
2219.848	6169
2221.873	6163
2223.897	6171
2225.921	6344
2227.944	6167
2229.967	6287
2231.991	6226
2234.011	6272
2236.032	6110
2238.053	6112
2240.073	6230
2242.094	6345
2244.114	6188
2246.131	6133
2248.149	6163
2250.167	6161
2252.186	6232
2254.201	6320
2256.218	6221
2258.233	6303
2260.247	6160
2262.262	6158
2264.278	6208
2266.29	6191
2268.303	6243
2270.315	6234
2272.327	6209
2274.341	6294
2276.35	6289
2278.361	6096
2280.37	6085
2282.38	6189
2284.388	6140
2286.397	6205
2288.405	6271
2290.412	6058
2292.419	6152
2294.425	6243
2296.431	6150
2298.437	6265
2300.441	6217
2302.445	6147
2304.449	6183
2306.453	6220
2308.455	6191
2310.457	6061
2312.459	6192
2314.46	6096
2316.46	6150
2318.461	6131
2320.46	6016
2322.458	6143
2324.458	6123
2326.456	6126
2328.455	6172
2330.451	6022
2332.447	6041
2334.443	6111
2336.438	6053
2338.433	6177
2340.429	6048
2342.422	6156
2344.416	6181
2346.408	6146
2348.399	6042
2350.393	5919
2352.384	6106
2354.375	6034
2356.365	6041
2358.355	6080
2360.344	5994
2362.333	5976
2364.322	6030
2366.309	5939
2368.295	6076
2370.282	6062
2372.27	5993
2374.256	5995
2376.24	6097
2378.225	6061
2380.208	5970
2382.194	6032
2384.177	5819
2386.159	6061
2388.142	5864
2390.122	5968
2392.105	5938
2394.085	5911
2396.066	5955
2398.044	5969
2400.024	6083
2402.002	5968
2403.982	5983
2405.959	6005
2407.935	5967
2409.913	6006
2411.888	5954
2413.865	5909
2415.84	5921
2417.814	5812
2419.788	6040
2421.762	5985
2423.735	5889
2425.708	5902
2427.68	5883
2429.651	5857
2431.623	5889
2433.593	5907
2435.564	5955
2437.533	5941
2439.502	6007
2441.47	5908
2443.438	5945
2445.406	6039
2447.373	5908
2449.34	5925
2451.305	5896
2453.271	5941
2455.235	5808
2457.201	5959
2459.165	5813
2461.129	5920
2463.092	5900
2465.054	5918
2467.018	5890
2468.978	5827
2470.939	5783
2472.899	5906
2474.86	5922
2476.819	5818
2478.778	5861
2480.737	5802
2482.695	5918
2484.653	5889
2486.609	5828
2488.567	5798
2490.524	5777
2492.478	5769
2494.433	5765
2496.387	5764
2498.343	5857
2500.297	5867
2502.249	5733
2504.202	5769
2506.153	5825
2508.105	5809
2510.057	5682
2512.008	5783
2513.957	5776
2515.906	5780
2517.855	5726
2519.805	5776
2521.754	5828
2523.7	5803
2525.647	5835
2527.594	5794
2529.54	5802
2531.486	5890
2533.431	5897
2535.376	5846
2537.32	5671
2539.263	5669
2541.207	5700
2543.151	5820
2545.093	5745
2547.034	5826
2548.975	5748
2550.917	5746
2552.856	5758
2554.796	5730
2556.735	5880
2558.673	5778
2560.611	5762
2562.55	5804
2564.487	5845
2566.424	5775
2568.36	5723
2570.296	5829
2572.232	5731
2574.167	5827
2576.101	5714
2578.035	5603
2579.969	5832
2581.902	5834
2583.834	5755
2585.766	5890
2587.698	5823
2589.628	5791
2591.557	5749
2593.489	5768
2595.419	5785
2597.348	5758
2599.275	5759
2601.204	5740
2603.131	5722
2605.059	5796
2606.986	5856
2608.911	5692
2610.837	5790
2612.76	5780
2614.687	5761
2616.61	5748
2618.534	5733
2620.457	5657
2622.38	5730
2624.302	5741
2626.225	5821
2628.145	5769
2630.067	5739
2631.986	5746
2633.906	5745
2635.827	5902
2637.745	5783
2639.662	5904
2641.581	5769
2643.498	5746
2645.415	5637
2647.331	5612
2649.248	5845
2651.163	5702
2653.077	5721
2654.993	5720
2656.906	5755
2658.821	5729
2660.733	5712
2662.646	5786
2664.557	5811
2666.47	5872
2668.381	5711
2670.291	5684
2672.201	5550
2674.11	5687
2676.021	5748
2677.929	5733
2679.837	5705
2681.745	5751
2683.652	5681
2685.56	5610
2687.466	5538
2689.371	5731
2691.276	5876
2693.181	5619
2695.085	5629
2696.991	5601
2698.893	5659
2700.796	5669
2702.698	5644
2704.601	5715
2706.502	5691
2708.404	5581
2710.304	5516
2712.203	5607
2714.103	5699
2716.003	5707
2717.902	5574
2719.8	5504
2721.697	5619
2723.594	5607
2725.49	5580
2727.389	5621
2729.283	5617
2731.179	5632
2733.073	5609
2734.968	5698
2736.863	5615
2738.757	5553
2740.649	5640
2742.541	5650
2744.433	5620
2746.324	5640
2748.216	5602
2750.107	5623
2751.997	5517
2753.886	5466
2755.776	5591
2757.666	5593
2759.553	5728
2761.44	5566
2763.327	5494
2765.215	5577
2767.102	5530
2768.988	5582
2770.873	5655
2772.757	5491
2774.641	5638
2776.525	5578
2778.41	5578
2780.292	5624
2782.175	5600
2784.057	5511
2785.938	5460
2787.821	5561
2789.701	5498
2791.581	5431
2793.461	5522
2795.34	5581
2797.219	5626
2799.099	5450
2800.975	5487
2802.853	5525
2804.73	5603
2806.606	5500
2808.484	5550
2810.358	5445
2812.233	5553
2814.108	5577
2815.981	5494
2817.857	5387
2819.73	5444
2821.602	5516
2823.474	5442
2825.346	5560
2827.217	5349
2829.089	5478
2830.959	5432
2832.829	5474
2834.698	5361
2836.567	5574
2838.436	5557
2840.305	5493
2842.172	5613
2844.04	5436
2845.905	5539
2847.772	5528
2849.639	5515
2851.503	5529
2853.369	5623
2855.232	5482
2857.096	5433
2858.961	5660
2860.824	5519
2862.686	5429
2864.547	5655
2866.41	5651
2868.272	5749
2870.132	5671
2871.992	5734
2873.851	5728
2875.711	5807
2877.57	5911
2879.429	5804
2881.287	5875
2883.144	5845
2885.001	5870
2886.857	5868
2888.714	5991
2890.57	6007
2892.425	5939
2894.279	5960
2896.133	5929
2897.987	5946
2899.842	5932
2901.694	5801
2903.547	5964
2905.397	5827
2907.249	5894
2909.101	5908
2910.952	5841
2912.802	6013
2914.652	5949
2916.5	5998
2918.35	6086
2920.198	6035
2922.045	6129
2923.893	6078
2925.74	6194
2927.585	6305
2929.433	6332
2931.279	6235
2933.123	6194
2934.968	6308
2936.811	6369
2938.656	6467
2940.5	6435
2942.342	6520
2944.185	6423
2946.026	6617
2947.87	6652
2949.71	6608
2951.549	6619
2953.39	6479
2955.229	6430
2957.069	6269
2958.908	6310
2960.746	6184
2962.584	6278
2964.421	6192
2966.257	6202
2968.094	6254
2969.931	6012
2971.766	6135
2973.601	6058
2975.435	6071
2977.27	6026
2979.105	5862
2980.938	5971
2982.77	5802
2984.602	5905
2986.434	5819
2988.267	5741
2990.097	5728
2991.927	5761
2993.757	5795
2995.587	5639
2997.417	5675
2999.246	5728
3001.074	5688
3002.902	5560
3004.729	5566
3006.556	5446
3008.384	5529
3010.21	5427
3012.036	5360
3013.861	5308
3015.684	5270
3017.51	5266
3019.334	5232
3021.157	5280
3022.981	5230
3024.802	5294
3026.624	5174
3028.448	5157
3030.267	5156
3032.088	5187
3033.909	5114
3035.728	5172
3037.549	5164
3039.368	5100
3041.186	5202
3043.004	5196
3044.821	5030
3046.64	5128
3048.455	5049
3050.272	5169
3052.087	5118
3053.903	5086
3055.717	5099
3057.534	5177
3059.347	5149
3061.16	5098
3062.974	5135
3064.785	5063
3066.598	5101
3068.411	5156
3070.222	5091
3072.032	5114
3073.844	5017
3075.653	4942
3077.463	5150
3079.272	5061
3081.08	5045
3082.889	5004
3084.697	5019
3086.505	5107
3088.312	4929
3090.118	4953
3091.924	4879
3093.729	4911
3095.535	5003
3097.34	4921
3099.144	5018
3100.947	4880
3102.75	5041
3104.553	4948
3106.357	4894
3108.159	4792
3109.961	4968
3111.762	4897
3113.562	4908
3115.365	4913
3117.164	4949
3118.964	4863
3120.761	4954
3122.56	4819
3124.36	4965
3126.158	4779
3127.954	4921
3129.75	4849
3131.547	4876
3133.343	4931
3135.139	4908
3136.934	4843
3138.729	4871
3140.522	4823
3142.317	4891
3144.11	4818
3145.904	4848
3147.695	4804
3149.488	4870
3151.28	4777
3153.07	4842
3154.863	4711
3156.652	4747
3158.441	4803
3160.231	4859
3162.019	4704
3163.81	4832
3165.597	4758
3167.384	4756
3169.172	4752
3170.958	4803
3172.745	4758
3174.532	4802
3176.317	4846
3178.101	4744
3179.885	4799
3181.67	4828
3183.455	4814
3185.238	4735
3187.02	4751
3188.802	4672
3190.585	4713
3192.368	4741
3194.149	4746
3195.929	4759
3197.709	4708
3199.489	4668
3201.268	4624
3203.048	4731
3204.826	4735
3206.604	4696
3208.382	4683
3210.159	4748
3211.937	4744
3213.713	4694
3215.489	4617
3217.263	4675
3219.038	4648
3220.815	4523
3222.589	4640
3224.363	4762
3226.136	4733
3227.908	4689
3229.681	4690
3231.454	4613
3233.226	4657
3234.996	4710
3236.767	4727
3238.538	4738
3240.308	4746
3242.078	4648
3243.847	4660
3245.615	4692
3247.384	4723
3249.15	4696
3250.92	4666
3252.686	4661
3254.453	4660
3256.218	4678
3257.984	4710
3259.75	4685
3261.515	4661
3263.279	4675
3265.044	4609
3266.806	4657
3268.57	4576
3270.334	4706
3272.095	4705
3273.856	4738
3275.619	4653
3277.379	4684
3279.14	4672
3280.9	4687
3282.661	4617
3284.419	4739
3286.178	4692
3287.937	4636
3289.695	4721
3291.453	4631
3293.21	4578
3294.967	4664
3296.723	4736
3298.48	4769
3300.235	4636
3301.99	4609
3303.744	4694
3305.498	4515
3307.253	4647
3309.006	4691
3310.759	4715
3312.511	4589
3314.263	4591
3316.017	4622
3317.768	4650
3319.519	4637
3321.268	4528
3323.018	4712
3324.767	4592
3326.518	4660
3328.267	4668
3330.014	4625
3331.762	4636
3333.509	4510
3335.258	4634
3337.003	4619
3338.75	4610
3340.496	4666
3342.24	4674
3343.987	4488
3345.732	4569
3347.475	4469
3349.219	4580
3350.961	4518
3352.705	4538
3354.448	4589
3356.19	4508
3357.931	4470
3359.672	4594
3361.412	4550
3363.155	4519
3364.894	4576
3366.633	4384
3368.372	4488
3370.11	4549
3371.849	4522
3373.588	4644
3375.325	4503
3377.061	4584
3378.799	4459
3380.534	4534
3382.271	4452
3384.006	4467
3385.741	4469
3387.475	4449
3389.209	4422
3390.944	4513
3392.677	4444
3394.409	4436
3396.143	4472
3397.874	4514
3399.606	4360
3401.338	4478
3403.069	4451
3404.799	4383
3406.528	4341
3408.258	4374
3409.988	4420
3411.717	4476
3413.445	4412
3415.173	4387
3416.899	4443
3418.626	4526
3420.354	4430
3422.08	4368
3423.806	4428
3425.531	4384
3427.255	4441
3428.981	4380
3430.705	4306
3432.429	4438
3434.151	4389
3435.875	4439
3437.599	4297
3439.321	4343
3441.042	4378
3442.763	4341
3444.483	4337
3446.204	4311
3447.926	4278
3449.645	4234
3451.364	4326
3453.082	4313
3454.801	4299
3456.52	4347
3458.238	4349
3459.954	4277
3461.671	4260
3463.387	4287
3465.104	4224
3466.82	4242
3468.534	4135
3470.25	4338
3471.963	4263
3473.676	4208
3475.392	4216
3477.104	4279
3478.817	4162
3480.528	4187
3482.241	4141
3483.954	4159
3485.664	4273
3487.374	4222
3489.084	4206
3490.795	4184
3492.504	4158
3494.214	4105
3495.922	4129
3497.63	4183
3499.338	4240
3501.045	4147
3502.753	4135
3504.459	4091
3506.166	4188
3507.871	4105
3509.576	4168
3511.283	4022
3512.987	4055
3514.691	4116
3516.395	4097
3518.098	4024
3519.8	4062
3521.504	4138
3523.206	4101
3524.908	4145
3526.609	4090
3528.309	4065
3530.011	4035
3531.711	4082
3533.411	4115
3535.109	4108
3536.808	4034
3538.507	4098
3540.206	3987
3541.904	3954
3543.601	4022
3545.297	3984
3546.994	4063
3548.69	4080
3550.387	3978
3552.081	4039
3553.776	3935
3555.47	4001
3557.166	4034
3558.859	3968
3560.553	4026
3562.245	4000
3563.938	4026
3565.629	3967
3567.322	3956
3569.014	3918
3570.704	3975
3572.394	3925
3574.084	3973
3575.775	3879
3577.464	4055
3579.152	3975
3580.842	3898
3582.529	3861
3584.216	4001
3585.905	4008
3587.591	3925
3589.279	3942
3590.964	3943
3592.649	3852
3594.336	3979
3596.021	3881
3597.705	3889
3599.388	3843
3601.072	3855
3602.757	3908
3604.439	3838
3606.122	3816
3607.803	3844
3609.485	3813
3611.167	3829
3612.849	3823
3614.529	3882
3616.208	3842
3617.888	3895
3619.567	3767
3621.247	3775
3622.926	3779
3624.603	3763
3626.281	3854
3627.958	3789
3629.635	3746
3631.312	3808
3632.989	3752
3634.665	3726
3636.339	3749
3638.014	3767
3639.691	3843
3641.364	3709
3643.038	3673
3644.71	3786
3646.384	3722
3648.058	3714
3649.729	3661
3651.402	3758
3653.073	3773
3654.744	3722
3656.414	3683
3658.085	3591
3659.755	3661
3661.424	3664
3663.094	3689
3664.762	3700
3666.431	3725
3668.099	3631
3669.766	3705
3671.433	3780
3673.099	3721
3674.768	3656
3676.433	3687
3678.098	3657
3679.763	3649
3681.428	3666
3683.093	3658
3684.757	3661
3686.421	3631
3688.083	3658
3689.746	3635
3691.408	3648
3693.071	3705
3694.733	3649
3696.394	3620
3698.054	3659
3699.715	3610
3701.375	3611
3703.036	3564
3704.695	3578
3706.354	3588
3708.012	3638
3709.67	3583
3711.329	3557
3712.987	3624
3714.644	3536
3716.299	3575
3717.955	3570
3719.613	3571
3721.268	3655
3722.923	3643
3724.577	3568
3726.231	3597
3727.885	3594
3729.539	3585
3731.192	3585
3732.845	3512
3734.497	3514
3736.149	3624
3737.802	3530
3739.453	3577
3741.104	3552
3742.753	3448
3744.404	3507
3746.052	3502
3747.704	3579
3749.352	3576
3751	3513
3752.648	3529
3754.296	3596
3755.944	3548
3757.59	3457
3759.238	3532
3760.883	3464
3762.528	3489
3764.176	3421
3765.82	3486
3767.464	3548
3769.109	3483
3770.753	3461
3772.396	3427
3774.04	3529
3775.683	3478
3777.325	3481
3778.967	3387
3780.608	3447
3782.25	3417
3783.89	3427
3785.531	3428
3787.17	3505
3788.81	3423
3790.45	3372
3792.09	3482
3793.729	3459
3795.366	3427
3797.003	3430
3798.64	3398
3800.278	3422
3801.915	3436
3803.551	3442
3805.187	3388
3806.822	3394
3808.458	3363
3810.093	3511
3811.726	3378
3813.36	3387
3814.994	3395
3816.627	3368
3818.262	3386
3819.893	3400
3821.525	3335
3823.157	3363
3824.787	3365
3826.42	3373
3828.051	3314
3829.68	3367
3831.31	3364
3832.938	3350
3834.569	3330
3836.198	3336
3837.825	3310
3839.454	3374
3841.08	3282
3842.708	3342
3844.335	3256
3845.962	3322
3847.587	3324
3849.212	3376
3850.838	3256
3852.463	3241
3854.089	3339
3855.712	3368
3857.335	3322
3858.959	3258
3860.582	3299
3862.205	3262
3863.827	3258
3865.449	3336
3867.07	3352
3868.691	3213
3870.312	3302
3871.933	3277
3873.553	3323
3875.173	3283
3876.792	3217
3878.411	3272
3880.03	3285
3881.647	3303
3883.265	3336
3884.882	3235
3886.499	3299
3888.116	3329
3889.732	3312
3891.348	3284
3892.964	3225
3894.579	3257
3896.195	3293
3897.809	3264
3899.423	3238
3901.036	3211
3902.648	3124
3904.261	3229
3905.875	3192
3907.487	3263
3909.099	3216
3910.709	3123
3912.321	3251
3913.933	3202
3915.542	3210
3917.152	3193
3918.762	3205
3920.37	3211
3921.98	3191
3923.589	3201
3925.196	3212
3926.804	3250
3928.41	3164
3930.018	3253
3931.626	3180
3933.231	3238
3934.838	3204
3936.442	3211
3938.046	3133
3939.653	3190
3941.257	3177
3942.861	3149
3944.464	3154
3946.068	3170
3947.67	3167
3949.273	3066
3950.876	3141
3952.477	3240
3954.078	3167
3955.678	3112
3957.281	3159
3958.881	3129
3960.48	3144
3962.079	3054
3963.678	3183
3965.279	3138
3966.877	3155
3968.475	3121
3970.072	3115
3971.669	3068
3973.266	3093
3974.864	3099
3976.459	3075
3978.055	3133
3979.65	3066
3981.245	3098
3982.841	3123
3984.436	3084
3986.03	3105
3987.623	3099
3989.216	3118
3990.809	3017
3992.403	3118
3993.995	3003
3995.586	3048
3997.177	3089
3998.768	3028
4000.361	2998
4001.951	2976
4003.54	3008
4005.13	3051
4006.719	2968
4008.31	3035
4009.897	3000
4011.485	3032
4013.073	2967
4014.66	3066
4016.247	2990
4017.834	3017
4019.421	2982
4021.006	2969
4022.592	2976
4024.178	3038
4025.763	2963
4027.348	2962
4028.932	3013
4030.515	3004
4032.099	2930
4033.682	2988
4035.266	2942
4036.847	2986
4038.429	2915
4040.011	2893
4041.592	2948
4043.173	2965
4044.755	3005
4046.334	2897
4047.913	2941
4049.494	2898
4051.074	2975
4052.652	2891
4054.23	2864
4055.807	2908
4057.385	2892
4058.963	2912
4060.541	2932
4062.117	2885
4063.693	2914
4065.269	2929
4066.844	2883
4068.42	2886
4069.995	2921
4071.569	2926
4073.143	2877
4074.716	2859
4076.291	2920
4077.864	2875
4079.436	2935
4081.009	2901
4082.58	2925
4084.152	2857
4085.723	2893
4087.294	2871
4088.865	2861
4090.435	2874
4092.005	2854
4093.574	2865
4095.143	2884
4096.712	2821
4098.279	2812
4099.848	2810
4101.416	2812
4102.984	2826
4104.55	2845
4106.117	2741
4107.682	2885
4109.248	2798
4110.815	2842
4112.379	2844
4113.945	2788
4115.508	2821
4117.073	2816
4118.637	2800
4120.201	2794
4121.763	2786
4123.325	2846
4124.888	2830
4126.449	2764
4128.013	2843
4129.573	2852
4131.133	2749
4132.694	2784
4134.254	2723
4135.814	2815
4137.374	2686
4138.933	2762
4140.491	2747
4142.049	2817
4143.607	2767
4145.167	2701
4146.724	2788
4148.28	2736
4149.836	2728
4151.392	2763
4152.949	2738
4154.504	2722
4156.059	2695
4157.614	2762
4159.168	2750
4160.723	2751
4162.277	2666
4163.83	2737
4165.383	2742
4166.936	2729
4168.488	2669
4170.041	2719
4171.593	2670
4173.144	2680
4174.695	2579
4176.246	2645
4177.796	2716
4179.346	2706
4180.896	2661
4182.445	2672
4183.994	2694
4185.542	2666
4187.091	2712
4188.639	2659
4190.185	2647
4191.732	2585
4193.279	2667
4194.826	2610
4196.373	2631
4197.918	2682
4199.463	2659
4201.008	2658
4202.553	2644
4204.098	2633
4205.641	2633
4207.185	2579
4208.728	2629
4210.271	2543
4211.814	2614
4213.357	2644
4214.898	2596
4216.439	2590
4217.98	2597
4219.522	2543
4221.062	2621
4222.603	2612
4224.142	2631
4225.681	2619
4227.222	2551
4228.76	2602
4230.298	2624
4231.835	2554
4233.373	2639
4234.911	2588
4236.449	2590
4237.985	2632
4239.521	2551
4241.057	2590
4242.592	2617
4244.128	2619
4245.663	2585
4247.197	2605
4248.731	2638
4250.265	2522
4251.798	2583
4253.333	2556
4254.865	2581
4256.397	2535
4257.93	2588
4259.461	2564
4260.994	2598
4262.525	2565
4264.056	2535
4265.586	2543
4267.115	2524
4268.646	2481
4270.176	2513
4271.705	2513
4273.232	2620
4274.761	2512
4276.289	2580
4277.818	2610
4279.345	2470
4280.872	2558
4282.399	2495
4283.924	2526
4285.452	2520
4286.976	2458
4288.502	2475
4290.026	2465
4291.551	2496
4293.074	2457
4294.6	2500
4296.123	2537
4297.646	2468
4299.168	2432
4300.691	2464
4302.214	2520
4303.736	2486
4305.257	2464
4306.778	2417
4308.299	2443
4309.82	2485
4311.34	2441
4312.86	2420
4314.379	2493
