400.0745	5940
402.597	5989
405.1208	5997
407.6419	6087
410.1623	5972
412.6819	6057
415.201	6160
417.7172	6078
420.2369	6220
422.7538	6249
425.2701	6300
427.7856	6258
430.3005	6383
432.8147	6511
435.3282	6435
437.841	6520
440.3511	6457
442.8625	6399
445.3753	6424
447.8854	6474
450.3927	6377
452.9014	6406
455.4073	6479
457.9146	6436
460.4233	6405
462.9272	6448
465.4325	6529
467.935	6318
470.4389	6381
472.9421	6486
475.4446	6394
477.9444	6474
480.4456	6518
482.944	6545
485.4417	6535
487.9429	6595
490.4393	6468
492.935	6583
495.4321	6574
497.9264	6599
500.4221	6617
502.9171	6640
505.4094	6540
507.9011	6594
510.392	6745
512.8864	6737
515.3759	6634
517.8649	6790
520.3531	6732
522.8406	6739
525.3275	6732
527.8178	6798
530.3033	6780
532.7881	6680
535.2723	6743
537.7558	6689
540.2407	6721
542.7228	6704
545.2043	6627
547.6851	6739
550.1652	6878
552.6467	6839
555.1255	6701
557.6016	6758
560.079	6907
562.5557	6875
565.0318	6915
567.5092	6879
569.984	7049
572.456	7067
574.9294	7019
577.4022	7015
579.8762	6995
582.3456	6996
584.8163	7011
587.2863	7075
589.7557	6982
592.2224	7105
594.6924	7134
597.1578	6958
599.6245	6996
602.0905	6912
604.5538	7047
607.0206	7096
609.4825	6991
611.9459	6976
614.4066	7002
616.8686	6991
619.33	6945
621.7906	6897
624.2487	7028
626.708	6929
629.1647	7021
631.6207	6927
634.0801	6929
636.5348	7081
638.9888	6996
641.4442	7033
643.8969	7112
646.3509	6955
648.8022	7159
651.255	7015
653.705	7038
656.1544	7100
658.6031	7032
661.0532	7142
663.5026	7086
665.9493	7169
668.3954	7204
670.8409	7203
673.2877	7228
675.7318	7178
678.1752	7156
680.618	7207
683.0601	7248
685.5035	7232
687.9444	7312
690.3845	7331
692.824	7340
695.2628	7273
697.701	7244
700.1406	7186
702.5774	7316
705.0116	7324
707.4472	7223
709.8821	7257
712.3183	7271
714.7519	7256
717.1829	7232
719.6151	7362
722.0468	7493
724.4777	7291
726.908	7499
729.3377	7506
731.7667	7583
734.1931	7585
736.6208	7540
739.0498	7545
741.4742	7596
743.9	7507
746.3231	7648
748.7476	7565
751.1713	7702
753.5945	7722
756.015	7604
758.4368	7714
760.856	7728
763.2766	7791
765.6965	7713
768.1157	7878
770.5323	7708
772.9483	7822
775.3656	7834
777.7822	7723
780.1963	7919
782.6116	7781
785.0244	7798
787.4365	7866
789.8499	7735
792.2626	7841
794.6728	7624
797.0823	7800
799.4911	7762
801.8994	7809
804.3109	7861
806.7178	7883
809.124	7776
811.5297	7928
813.9347	7944
816.341	7964
818.7447	7865
821.1478	7972
823.5502	7980
825.952	7927
828.3531	7929
830.7556	7926
833.1554	7816
835.5546	7902
837.9532	7928
840.3511	7995
842.7504	7893
845.1451	7997
847.5411	7870
849.9365	8088
852.3312	8027
854.7272	7972
857.1187	8040
859.5115	8058
861.9037	7979
864.2952	8022
866.6842	7928
869.0764	7972
871.4661	8020
873.8531	7968
876.2415	8088
878.6272	7894
881.0162	8021
883.4026	7972
885.7866	7955
888.1717	7942
890.5543	8016
892.9382	8185
895.3215	7975
897.7041	7988
900.0842	8013
902.4655	8009
904.8443	8041
907.2244	8115
909.6039	8041
911.9808	8049
914.357	8101
916.7346	8200
919.1115	8235
921.4859	8206
923.8616	8292
926.2347	8232
928.6071	8351
930.979	8272
933.3541	8410
935.7247	8321
938.0946	8465
940.4639	8524
942.8326	8595
945.2026	8799
947.5701	8842
949.9369	9138
952.305	9229
954.6705	9567
957.0355	9778
959.4017	10241
961.7654	10413
964.1284	10237
966.4908	10034
968.8527	9747
971.2138	9135
973.5743	8888
975.9343	8911
978.2936	8527
980.6522	8391
983.0122	8405
985.3696	8273
987.7245	8249
990.0807	8262
992.4362	8248
994.7911	8195
997.1474	8194
999.4991	8337
1001.852	8134
1004.205	8379
1006.555	8184
1008.908	8275
1011.258	8295
1013.606	8277
1015.956	8259
1018.302	8271
1020.652	8354
1022.998	8367
1025.345	8509
1027.691	8410
1030.035	8265
1032.378	8484
1034.724	8613
1037.066	8493
1039.409	8444
1041.75	8537
1044.092	8438
1046.433	8536
1048.771	8535
1051.112	8418
1053.449	8455
1055.786	8621
1058.124	8566
1060.462	8593
1062.797	8594
1065.131	8531
1067.467	8598
1069.8	8657
1072.135	8548
1074.467	8608
1076.798	8719
1079.129	8689
1081.459	8502
1083.792	8548
1086.121	8501
1088.449	8533
1090.777	8419
1093.104	8639
1095.431	8669
1097.759	8539
1100.084	8444
1102.408	8474
1104.732	8463
1107.056	8399
1109.379	8530
1111.701	8438
1114.022	8487
1116.343	8520
1118.664	8448
1120.983	8610
1123.303	8465
1125.621	8444
1127.939	8484
1130.256	8434
1132.573	8403
1134.889	8460
1137.205	8475
1139.52	8557
1141.832	8443
1144.146	8454
1146.461	8417
1148.771	8463
1151.083	8586
1153.392	8575
1155.703	8501
1158.011	8436
1160.323	8494
1162.629	8527
1164.938	8356
1167.243	8520
1169.55	8415
1171.857	8403
1174.163	8573
1176.466	8478
1178.769	8465
1181.073	8510
1183.374	8424
1185.677	8585
1187.979	8504
1190.279	8487
1192.578	8484
1194.878	8578
1197.178	8504
1199.476	8488
1201.772	8586
1204.068	8438
1206.366	8495
1208.663	8605
1210.957	8529
1213.251	8621
1215.544	8514
1217.836	8586
1220.128	8661
1222.421	8683
1224.712	8593
1227.002	8687
1229.292	8610
1231.581	8635
1233.871	8628
1236.159	8595
1238.446	8668
1240.732	8713
1243.018	8844
1245.304	8842
1247.59	8831
1249.874	8811
1252.156	8756
1254.439	8802
1256.721	8799
1259.005	8894
1261.286	8779
1263.565	8805
1265.845	8760
1268.125	8773
1270.403	8764
1272.682	8737
1274.959	8778
1277.234	8934
1279.511	8784
1281.787	8731
1284.062	8885
1286.337	8683
1288.609	8748
1290.882	8709
1293.153	8631
1295.428	8661
1297.698	8722
1299.969	8638
1302.237	8602
1304.507	8477
1306.777	8645
1309.044	8622
1311.312	8685
1313.578	8465
1315.844	8641
1318.109	8706
1320.375	8695
1322.638	8608
1324.903	8755
1327.165	8623
1329.427	8587
1331.69	8592
1333.952	8595
1336.212	8590
1338.471	8835
1340.73	8665
1342.988	8659
1345.248	8713
1347.505	8667
1349.763	8580
1352.019	8645
1354.274	8637
1356.53	8845
1358.784	8542
1361.038	8657
1363.291	8536
1365.543	8624
1367.797	8536
1370.048	8772
1372.296	8573
1374.546	8618
1376.796	8752
1379.045	8733
1381.295	8750
1383.542	8765
1385.787	8638
1388.034	8754
1390.28	8687
1392.527	8627
1394.772	8875
1397.014	8647
1399.258	8726
1401.501	8714
1403.741	8827
1405.985	8679
1408.226	8748
1410.465	8885
1412.705	8811
1414.943	8781
1417.184	8654
1419.42	8824
1421.658	8869
1423.894	8957
1426.13	8882
1428.366	8953
1430.602	8865
1432.835	8930
1435.069	8968
1437.301	9036
1439.535	9069
1441.767	8951
1443.997	8997
1446.229	8931
1448.458	9043
1450.687	9088
1452.916	8993
1455.146	9005
1457.372	9104
1459.599	9052
1461.824	9034
1464.051	9004
1466.277	9035
1468.501	8964
1470.725	8879
1472.948	8851
1475.17	8767
1477.393	8774
1479.614	8950
1481.837	8727
1484.057	8706
1486.276	8755
1488.497	8755
1490.715	8677
1492.932	8698
1495.148	8756
1497.364	8693
1499.58	8619
1501.798	8535
1504.012	8583
1506.227	8688
1508.44	8441
1510.653	8724
1512.866	8666
1515.078	8708
1517.289	8671
1519.5	8569
1521.711	8628
1523.92	8604
1526.13	8681
1528.338	8648
1530.544	8725
1532.752	8662
1534.959	8674
1537.165	8636
1539.371	8666
1541.574	8817
1543.779	8603
1545.983	8631
1548.187	8602
1550.39	8663
1552.59	8731
1554.792	8796
1556.991	8643
1559.19	8698
1561.392	8791
1563.59	8810
1565.789	8637
1567.986	8937
1570.182	8764
1572.381	8669
1574.576	8765
1576.771	8770
1578.966	8672
1581.16	8833
1583.354	8745
1585.546	8876
1587.74	8943
1589.931	8897
1592.121	8905
1594.311	8997
1596.502	8945
1598.693	8969
1600.881	8873
1603.069	8812
1605.256	8939
1607.445	9039
1609.631	8970
1611.816	9049
1614.001	8880
1616.186	8898
1618.37	8906
1620.555	8835
1622.737	8998
1624.919	8805
1627.101	8931
1629.282	8855
1631.463	9010
1633.643	9088
1635.822	9042
1638.001	8926
1640.179	8956
1642.359	8949
1644.534	9183
1646.711	9073
1648.887	9040
1651.062	9075
1653.235	8975
1655.412	9101
1657.586	9039
1659.757	9124
1661.93	9005
1664.1	9130
1666.274	9145
1668.445	8952
1670.614	9168
1672.784	9089
1674.951	9079
1677.12	9062
1679.289	9044
1681.457	8989
1683.622	8991
1685.789	9121
1687.953	9042
1690.121	9068
1692.284	8987
1694.447	8943
1696.611	8908
1698.772	8994
1700.935	8933
1703.098	8914
1705.258	8856
1707.417	8653
1709.576	8732
1711.736	8878
1713.896	8845
1716.053	8777
1718.21	8871
1720.366	8801
1722.522	8956
1724.68	8782
1726.835	8925
1728.989	8779
1731.142	8852
1733.295	8668
1735.449	8921
1737.601	8863
1739.753	8865
1741.903	8815
1744.054	9001
1746.203	9011
1748.354	8971
1750.503	8884
1752.651	8838
1754.798	8765
1756.944	8968
1759.092	8756
1761.238	8950
1763.383	8909
1765.528	8829
1767.672	8900
1769.814	8996
1771.959	8917
1774.102	8869
1776.242	9000
1778.384	8959
1780.525	8949
1782.665	8854
1784.805	8912
1786.945	8893
1789.082	8937
1791.22	8957
1793.36	8982
1795.495	9032
1797.632	8880
1799.766	8845
1801.902	8968
1804.035	8950
1806.172	8808
1808.304	8857
1810.436	8966
1812.569	9077
1814.699	8903
1816.833	8887
1818.963	8908
1821.092	8774
1823.222	8908
1825.35	9002
1827.478	8746
1829.608	8892
1831.734	8758
1833.86	8867
1835.986	8838
1838.11	8773
1840.238	8766
1842.362	8937
1844.485	8841
1846.608	8810
1848.73	8768
1850.853	8882
1852.974	8720
1855.097	8763
1857.217	8701
1859.336	8924
1861.455	8679
1863.576	8726
1865.693	8817
1867.811	8873
1869.926	8942
1872.042	8693
1874.16	8867
1876.275	8816
1878.39	8818
1880.504	8859
1882.618	8774
1884.731	8805
1886.843	8941
1888.956	8797
1891.067	8842
1893.178	8901
1895.287	8835
1897.399	8940
1899.508	8833
1901.617	9026
1903.724	8881
1905.832	8844
1907.941	8850
1910.046	8960
1912.152	8992
1914.256	8764
1916.361	8753
1918.464	8934
1920.57	9019
1922.672	8811
1924.775	8852
1926.876	9011
1928.978	8961
1931.08	8935
1933.181	8982
1935.28	8961
1937.38	8810
1939.478	8901
1941.577	8936
1943.675	8930
1945.771	8931
1947.867	9006
1949.964	8851
1952.058	9051
1954.154	8888
1956.248	8788
1958.343	8940
1960.435	8815
1962.527	8920
1964.62	8966
1966.711	8974
1968.802	8861
1970.892	8887
1972.983	8915
1975.072	8974
1977.162	8860
1979.25	8980
1981.337	8807
1983.424	9002
1985.51	8964
1987.598	8855
1989.683	8815
1991.768	8705
1993.852	8842
1995.934	8790
1998.019	8845
2000.102	8840
2002.184	8772
2004.266	8864
2006.347	8845
2008.427	8695
2010.508	8920
2012.587	8903
2014.666	8903
2016.745	8653
2018.821	8700
2020.9	8710
2022.977	8815
2025.052	8876
2027.128	8839
2029.204	8725
2031.277	8848
2033.353	8849
2035.425	8787
2037.499	8918
2039.57	8748
2041.642	8859
2043.714	8785
2045.786	8854
2047.855	8781
2049.925	8730
2051.993	8762
2054.064	8660
2056.132	8755
2058.2	8965
2060.266	8738
2062.332	8834
2064.398	8679
2066.465	8774
2068.529	8878
2070.592	8647
2072.657	8741
2074.719	8924
2076.783	8821
2078.845	8740
2080.907	8818
2082.968	8792
2085.028	8835
2087.087	8988
2089.148	8889
2091.207	8760
2093.264	8836
2095.322	8806
2097.379	8810
2099.439	8721
2101.495	8764
2103.55	8834
2105.605	8774
2107.658	8713
2109.713	8807
2111.767	8813
2113.82	8846
2115.872	8830
2117.924	8829
2119.975	8889
2122.028	8821
2124.078	8903
2126.126	8746
2128.176	8750
2130.225	8798
2132.275	8799
2134.321	8675
2136.368	8831
2138.415	8711
2140.461	8713
2142.505	8765
2144.552	8646
2146.597	8721
2148.64	8730
2150.684	8767
2152.725	8693
2154.77	8670
2156.811	8738
2158.852	8709
2160.894	8799
2162.933	8658
2164.973	8682
2167.013	8691
2169.051	8796
2171.089	8689
2173.126	8798
2175.164	8560
2177.201	8565
2179.236	8712
2181.273	8553
2183.307	8744
2185.341	8632
2187.377	8659
2189.41	8548
2191.442	8636
2193.473	8636
2195.506	8531
2197.539	8642
2199.569	8680
2201.598	8480
2203.628	8563
2205.656	8539
2207.686	8543
2209.716	8568
2211.743	8590
2213.769	8422
2215.796	8657
2217.821	8607
2219.848	8467
2221.873	8500
2223.897	8461
2225.921	8478
2227.944	8558
2229.967	8549
2231.991	8503
2234.011	8496
2236.032	8491
2238.053	8358
2240.073	8576
2242.094	8416
2244.114	8415
2246.131	8500
2248.149	8480
2250.167	8402
2252.186	8371
2254.201	8552
2256.218	8558
2258.233	8477
2260.247	8487
2262.262	8458
2264.278	8477
2266.29	8551
2268.303	8528
2270.315	8459
2272.327	8362
2274.341	8448
2276.35	8509
2278.361	8481
2280.37	8427
2282.38	8275
2284.388	8480
2286.397	8435
2288.405	8513
2290.412	8454
2292.419	8521
2294.425	8445
2296.431	8507
2298.437	8431
2300.441	8471
2302.445	8580
2304.449	8438
2306.453	8432
2308.455	8337
2310.457	8512
2312.459	8485
2314.46	8433
2316.46	8382
2318.461	8319
2320.46	8363
2322.458	8255
2324.458	8497
2326.456	8284
2328.455	8357
2330.451	8362
2332.447	8321
2334.443	8269
2336.438	8281
2338.433	8339
2340.429	8394
2342.422	8124
2344.416	8216
2346.408	8393
2348.399	8347
2350.393	8197
2352.384	8156
2354.375	8182
2356.365	8350
2358.355	8174
2360.344	8163
2362.333	8274
2364.322	8181
2366.309	8258
2368.295	8246
2370.282	8065
2372.27	8358
2374.256	8185
2376.24	8181
2378.225	8244
2380.208	8142
2382.194	8238
2384.177	8208
2386.159	8202
2388.142	8168
2390.122	8071
2392.105	8281
2394.085	8175
2396.066	8065
2398.044	8142
2400.024	8310
2402.002	8043
2403.982	8228
2405.959	8041
2407.935	8049
2409.913	8083
2411.888	8187
2413.865	8052
2415.84	8106
2417.814	8035
2419.788	8262
2421.762	8098
2423.735	8036
2425.708	8168
2427.68	8023
2429.651	8202
2431.623	8069
2433.593	8139
2435.564	8207
2437.533	8203
2439.502	8197
2441.47	8058
2443.438	8089
2445.406	8113
2447.373	8018
2449.34	8123
2451.305	7972
2453.271	8174
2455.235	8040
2457.201	7983
2459.165	8019
2461.129	8174
2463.092	8050
2465.054	7981
2467.018	7993
2468.978	8085
2470.939	7936
2472.899	7969
2474.86	7913
2476.819	7939
2478.778	8029
2480.737	7875
2482.695	7942
2484.653	8059
2486.609	7817
2488.567	7988
2490.524	7955
2492.478	7885
2494.433	8012
2496.387	7942
2498.343	7991
2500.297	7943
2502.249	7880
2504.202	7907
2506.153	8030
2508.105	7853
2510.057	7953
2512.008	7925
2513.957	7968
2515.906	7939
2517.855	7855
2519.805	7874
2521.754	7967
2523.7	7791
2525.647	7875
2527.594	7950
2529.54	7902
2531.486	7857
2533.431	7780
2535.376	7711
2537.32	7800
2539.263	7813
2541.207	7878
2543.151	7926
2545.093	7978
2547.034	7807
2548.975	7851
2550.917	7831
2552.856	7948
2554.796	7941
2556.735	7888
2558.673	7821
2560.611	7933
2562.55	7911
2564.487	7810
2566.424	7898
2568.36	7822
2570.296	7791
2572.232	7818
2574.167	7980
2576.101	7890
2578.035	7915
2579.969	7875
2581.902	7657
2583.834	7857
2585.766	7858
2587.698	7889
2589.628	7844
2591.557	7836
2593.489	7724
2595.419	7916
2597.348	7839
2599.275	7872
2601.204	7857
2603.131	7830
2605.059	7900
2606.986	7827
2608.911	7880
2610.837	7830
2612.76	7829
2614.687	7852
2616.61	7911
2618.534	7935
2620.457	7821
2622.38	7875
2624.302	7855
2626.225	7894
2628.145	7855
2630.067	7939
2631.986	7910
2633.906	7802
2635.827	7886
2637.745	7980
2639.662	7876
2641.581	7819
2643.498	7832
2645.415	7787
2647.331	7894
2649.248	7856
2651.163	7884
2653.077	7785
2654.993	7884
2656.906	7761
2658.821	7881
2660.733	7865
2662.646	7983
2664.557	7908
2666.47	7736
2668.381	7775
2670.291	7849
2672.201	7801
2674.11	7697
2676.021	7783
2677.929	7806
2679.837	7786
2681.745	7802
2683.652	7846
2685.56	7774
2687.466	7648
2689.371	7799
2691.276	7799
2693.181	7732
2695.085	7673
2696.991	7635
2698.893	7780
2700.796	7716
2702.698	7646
2704.601	7641
2706.502	7756
2708.404	7733
2710.304	7699
2712.203	7693
2714.103	7598
2716.003	7623
2717.902	7695
2719.8	7602
2721.697	7682
2723.594	7628
2725.49	7601
2727.389	7705
2729.283	7682
2731.179	7588
2733.073	7647
2734.968	7646
2736.863	7501
2738.757	7647
2740.649	7640
2742.541	7517
2744.433	7760
2746.324	7643
2748.216	7537
2750.107	7627
2751.997	7516
2753.886	7610
2755.776	7590
2757.666	7612
2759.553	7684
2761.44	7646
2763.327	7526
2765.215	7661
2767.102	7545
2768.988	7620
2770.873	7511
2772.757	7523
2774.641	7662
2776.525	7586
2778.41	7633
2780.292	7505
2782.175	7561
2784.057	7508
2785.938	7492
2787.821	7551
2789.701	7620
2791.581	7535
2793.461	7507
2795.34	7569
2797.219	7562
2799.099	7394
2800.975	7482
2802.853	7504
2804.73	7349
2806.606	7404
2808.484	7509
2810.358	7367
2812.233	7507
2814.108	7442
2815.981	7508
2817.857	7386
2819.73	7488
2821.602	7489
2823.474	7505
2825.346	7408
2827.217	7382
2829.089	7529
2830.959	7553
2832.829	7360
2834.698	7500
2836.567	7431
2838.436	7576
2840.305	7461
2842.172	7388
2844.04	7453
2845.905	7503
2847.772	7432
2849.639	7579
2851.503	7455
2853.369	7469
2855.232	7580
2857.096	7441
2858.961	7412
2860.824	7489
2862.686	7496
2864.547	7568
2866.41	7481
2868.272	7694
2870.132	7793
2871.992	7744
2873.851	7694
2875.711	7819
2877.57	7896
2879.429	7882
2881.287	7878
2883.144	7951
2885.001	7953
2886.857	7954
2888.714	7966
2890.57	8055
2892.425	7912
2894.279	7979
2896.133	7856
2897.987	8027
2899.842	7906
2901.694	7868
2903.547	7878
2905.397	7876
2907.249	7897
2909.101	7953
2910.952	7917
2912.802	7997
2914.652	8024
2916.5	7976
2918.35	8215
2920.198	8224
2922.045	8220
2923.893	8443
2925.74	8295
2927.585	8453
2929.433	8370
2931.279	8443
2933.123	8620
2934.968	8564
2936.811	8724
2938.656	8835
2940.5	8683
2942.342	8876
2944.185	8734
2946.026	8866
2947.87	8878
2949.71	8775
2951.549	8747
2953.39	8845
2955.229	8710
2957.069	8536
2958.908	8566
2960.746	8315
2962.584	8272
2964.421	8241
2966.257	8295
2968.094	8048
2969.931	8271
2971.766	8150
2973.601	8118
2975.435	8060
2977.27	8128
2979.105	8034
2980.938	7993
2982.77	7949
2984.602	8010
2986.434	7979
2988.267	7915
2990.097	7998
2991.927	7900
2993.757	7827
2995.587	7772
2997.417	7656
2999.246	7687
3001.074	7594
3002.902	7685
3004.729	7386
3006.556	7609
3008.384	7431
3010.21	7304
3012.036	7297
3013.861	7301
3015.684	7403
3017.51	7272
3019.334	7243
3021.157	7104
3022.981	7216
3024.802	7163
3026.624	7011
3028.448	7061
3030.267	7125
3032.088	7017
3033.909	7041
3035.728	6994
3037.549	6957
3039.368	7038
3041.186	6898
3043.004	6914
3044.821	6958
3046.64	6918
3048.455	6895
3050.272	6958
3052.087	6986
3053.903	6863
3055.717	6976
3057.534	7103
3059.347	7004
3061.16	6883
3062.974	6850
3064.785	6935
3066.598	6929
3068.411	7041
3070.222	6927
3072.032	6903
3073.844	6941
3075.653	7018
3077.463	6849
3079.272	6694
3081.08	6802
3082.889	6740
3084.697	6859
3086.505	6726
3088.312	6615
3090.118	6761
3091.924	6698
3093.729	6757
3095.535	6742
3097.34	6702
3099.144	6708
3100.947	6679
3102.75	6645
3104.553	6608
3106.357	6633
3108.159	6804
3109.961	6764
3111.762	6637
3113.562	6718
3115.365	6600
3117.164	6695
3118.964	6657
3120.761	6653
3122.56	6526
3124.36	6648
3126.158	6715
3127.954	6728
3129.75	6577
3131.547	6703
3133.343	6596
3135.139	6698
3136.934	6550
3138.729	6541
3140.522	6530
3142.317	6536
3144.11	6602
3145.904	6571
3147.695	6476
3149.488	6473
3151.28	6476
3153.07	6531
3154.863	6489
3156.652	6550
3158.441	6508
3160.231	6565
3162.019	6468
3163.81	6507
3165.597	6484
3167.384	6565
3169.172	6515
3170.958	6501
3172.745	6525
3174.532	6631
3176.317	6538
3178.101	6440
3179.885	6347
3181.67	6477
3183.455	6644
3185.238	6440
3187.02	6476
3188.802	6363
3190.585	6335
3192.368	6382
3194.149	6341
3195.929	6470
3197.709	6306
3199.489	6411
3201.268	6429
3203.048	6498
3204.826	6446
3206.604	6453
3208.382	6434
3210.159	6344
3211.937	6415
3213.713	6394
3215.489	6335
3217.263	6364
3219.038	6468
3220.815	6425
3222.589	6294
3224.363	6445
3226.136	6438
3227.908	6391
3229.681	6387
3231.454	6433
3233.226	6325
3234.996	6389
3236.767	6391
3238.538	6298
3240.308	6427
3242.078	6338
3243.847	6338
3245.615	6345
3247.384	6405
3249.15	6325
3250.92	6374
3252.686	6418
3254.453	6333
3256.218	6423
3257.984	6384
3259.75	6421
3261.515	6305
3263.279	6385
3265.044	6473
3266.806	6286
3268.57	6280
3270.334	6422
3272.095	6281
3273.856	6433
3275.619	6225
3277.379	6306
3279.14	6400
3280.9	6334
3282.661	6317
3284.419	6482
3286.178	6415
3287.937	6422
3289.695	6433
3291.453	6372
3293.21	6321
3294.967	6421
3296.723	6276
3298.48	6527
3300.235	6283
3301.99	6375
3303.744	6384
3305.498	6346
3307.253	6248
3309.006	6326
3310.759	6390
3312.511	6317
3314.263	6395
3316.017	6391
3317.768	6279
3319.519	6283
3321.268	6352
3323.018	6381
3324.767	6326
3326.518	6347
3328.267	6315
3330.014	6324
3331.762	6382
3333.509	6335
3335.258	6377
3337.003	6285
3338.75	6357
3340.496	6132
3342.24	6340
3343.987	6168
3345.732	6310
3347.475	6267
3349.219	6338
3350.961	6274
3352.705	6192
3354.448	6273
3356.19	6301
3357.931	6319
3359.672	6205
3361.412	6170
3363.155	6144
3364.894	6251
3366.633	6355
3368.372	6024
3370.11	6244
3371.849	6151
3373.588	6090
3375.325	6090
3377.061	6185
3378.799	6099
3380.534	6070
3382.271	6126
3384.006	6015
3385.741	6185
3387.475	6086
3389.209	6088
3390.944	6171
3392.677	6084
3394.409	6156
3396.143	6084
3397.874	6029
3399.606	6073
3401.338	6048
3403.069	6153
3404.799	5922
3406.528	5957
3408.258	5975
3409.988	6029
3411.717	6108
3413.445	5940
3415.173	6095
3416.899	5960
3418.626	6078
3420.354	5957
3422.08	5859
3423.806	5983
3425.531	6039
3427.255	6044
3428.981	6044
3430.705	5983
3432.429	5846
3434.151	5948
3435.875	5886
3437.599	5989
3439.321	5913
3441.042	5916
3442.763	5974
3444.483	5861
3446.204	5935
3447.926	5986
3449.645	5809
3451.364	5879
3453.082	5914
3454.801	6017
3456.52	5915
3458.238	5687
3459.954	5819
3461.671	5842
3463.387	5780
3465.104	5766
3466.82	5697
3468.534	5704
3470.25	5752
3471.963	5739
3473.676	5811
3475.392	5751
3477.104	5785
3478.817	5701
3480.528	5782
3482.241	5720
3483.954	5654
3485.664	5620
3487.374	5597
3489.084	5673
3490.795	5729
3492.504	5684
3494.214	5665
3495.922	5725
3497.63	5644
3499.338	5658
3501.045	5562
3502.753	5617
3504.459	5669
3506.166	5592
3507.871	5722
3509.576	5524
3511.283	5621
3512.987	5581
3514.691	5556
3516.395	5541
3518.098	5541
3519.8	5623
3521.504	5558
3523.206	5596
3524.908	5506
3526.609	5587
3528.309	5574
3530.011	5529
3531.711	5603
3533.411	5592
3535.109	5527
3536.808	5530
3538.507	5413
3540.206	5587
3541.904	5493
3543.601	5443
3545.297	5456
3546.994	5442
3548.69	5495
3550.387	5325
3552.081	5403
3553.776	5487
3555.47	5452
3557.166	5482
3558.859	5412
3560.553	5363
3562.245	5380
3563.938	5384
3565.629	5390
3567.322	5386
3569.014	5476
3570.704	5342
3572.394	5469
3574.084	5273
3575.775	5496
3577.464	5412
3579.152	5409
3580.842	5273
3582.529	5290
3584.216	5233
3585.905	5380
3587.591	5293
3589.279	5352
3590.964	5276
3592.649	5217
3594.336	5228
3596.021	5306
3597.705	5265
3599.388	5314
3601.072	5295
3602.757	5164
3604.439	5255
3606.122	5185
3607.803	5245
3609.485	5261
3611.167	5180
3612.849	5235
3614.529	5118
3616.208	5278
3617.888	5135
3619.567	5142
3621.247	5132
3622.926	5160
3624.603	5062
3626.281	5152
3627.958	5146
3629.635	5068
3631.312	5083
3632.989	5128
3634.665	5054
3636.339	5032
3638.014	5002
3639.691	5090
3641.364	5036
3643.038	4981
3644.71	4998
3646.384	4985
3648.058	4926
3649.729	5136
3651.402	4958
3653.073	5066
3654.744	5036
3656.414	4979
3658.085	4966
3659.755	5148
3661.424	5054
3663.094	4927
3664.762	4956
3666.431	4929
3668.099	4942
3669.766	4990
3671.433	4898
3673.099	4883
3674.768	5005
3676.433	4920
3678.098	4961
3679.763	4963
3681.428	4937
3683.093	4967
3684.757	5001
3686.421	4853
3688.083	4979
3689.746	4897
3691.408	4856
3693.071	4921
3694.733	4860
3696.394	4924
3698.054	4949
3699.715	4797
3701.375	4909
3703.036	4823
3704.695	4874
3706.354	4853
3708.012	4789
3709.67	4772
3711.329	4847
3712.987	4791
3714.644	4846
3716.299	4879
3717.955	4828
3719.613	4815
3721.268	4899
3722.923	4803
3724.577	4839
3726.231	4870
3727.885	4701
3729.539	4810
3731.192	4781
3732.845	4771
3734.497	4805
3736.149	4730
3737.802	4841
3739.453	4681
3741.104	4747
3742.753	4753
3744.404	4747
3746.052	4750
3747.704	4698
3749.352	4882
3751	4821
3752.648	4717
3754.296	4751
3755.944	4752
3757.59	4625
3759.238	4734
3760.883	4757
3762.528	4729
3764.176	4697
3765.82	4760
3767.464	4664
3769.109	4775
3770.753	4682
3772.396	4551
3774.04	4749
3775.683	4641
3777.325	4613
3778.967	4625
3780.608	4626
3782.25	4640
3783.89	4628
3785.531	4659
3787.17	4672
3788.81	4650
3790.45	4748
3792.09	4662
3793.729	4675
3795.366	4619
3797.003	4628
3798.64	4557
3800.278	4540
3801.915	4516
3803.551	4585
3805.187	4515
3806.822	4502
3808.458	4647
3810.093	4534
3811.726	4488
3813.36	4573
3814.994	4560
3816.627	4543
3818.262	4584
3819.893	4563
3821.525	4542
3823.157	4515
3824.787	4550
3826.42	4594
3828.051	4548
3829.68	4507
3831.31	4451
3832.938	4495
3834.569	4504
3836.198	4608
3837.825	4542
3839.454	4359
3841.08	4475
3842.708	4444
3844.335	4486
3845.962	4472
3847.587	4396
3849.212	4392
3850.838	4587
3852.463	4489
3854.089	4331
3855.712	4368
3857.335	4401
3858.959	4343
3860.582	4495
3862.205	4433
3863.827	4400
3865.449	4380
3867.07	4442
3868.691	4415
3870.312	4373
3871.933	4393
3873.553	4343
3875.173	4414
3876.792	4359
3878.411	4441
3880.03	4392
3881.647	4381
3883.265	4398
3884.882	4442
3886.499	4364
3888.116	4353
3889.732	4398
3891.348	4413
3892.964	4457
3894.579	4257
3896.195	4282
3897.809	4342
3899.423	4406
3901.036	4424
3902.648	4341
3904.261	4349
3905.875	4363
3907.487	4289
3909.099	4239
3910.709	4264
3912.321	4212
3913.933	4274
3915.542	4382
3917.152	4208
3918.762	4354
3920.37	4311
3921.98	4271
3923.589	4271
3925.196	4289
3926.804	4237
3928.41	4280
3930.018	4307
3931.626	4257
3933.231	4238
3934.838	4281
3936.442	4316
3938.046	4221
3939.653	4200
3941.257	4270
3942.861	4277
3944.464	4251
3946.068	4196
3947.67	4187
3949.273	4220
3950.876	4171
3952.477	4231
3954.078	4227
3955.678	4244
3957.281	4278
3958.881	4123
3960.48	4219
3962.079	4229
3963.678	4199
3965.279	4213
3966.877	4186
3968.475	4251
3970.072	4086
3971.669	4247
3973.266	4144
3974.864	4091
3976.459	4178
3978.055	4170
3979.65	4229
3981.245	4063
3982.841	4165
3984.436	4227
3986.03	4060
3987.623	4101
3989.216	4084
3990.809	4142
3992.403	4003
3993.995	4077
3995.586	4104
3997.177	4060
3998.768	4148
4000.361	4065
4001.951	4113
4003.54	4151
4005.13	4088
4006.719	4008
4008.31	4069
4009.897	4081
4011.485	4040
4013.073	4014
4014.66	4047
4016.247	4039
4017.834	3958
4019.421	4004
4021.006	3990
4022.592	3924
4024.178	3997
4025.763	3971
4027.348	4043
4028.932	3955
4030.515	4008
4032.099	3978
4033.682	3916
4035.266	3987
4036.847	3984
4038.429	3872
4040.011	3959
4041.592	3910
4043.173	3925
4044.755	3906
4046.334	3913
4047.913	3990
4049.494	3849
4051.074	3881
4052.652	3880
4054.23	3889
4055.807	3875
4057.385	3871
4058.963	3892
4060.541	3814
4062.117	3870
4063.693	3869
4065.269	3770
4066.844	3918
4068.42	3899
4069.995	3848
4071.569	3893
4073.143	3853
4074.716	3842
4076.291	3889
4077.864	3776
4079.436	3910
4081.009	3857
4082.58	3771
4084.152	3818
4085.723	3737
4087.294	3849
4088.865	3847
4090.435	3808
4092.005	3913
4093.574	3795
4095.143	3696
4096.712	3795
4098.279	3820
4099.848	3773
4101.416	3814
4102.984	3733
4104.55	3801
4106.117	3704
4107.682	3838
4109.248	3779
4110.815	3754
4112.379	3863
4113.945	3767
4115.508	3781
4117.073	3745
4118.637	3718
4120.201	3870
4121.763	3699
4123.325	3685
4124.888	3707
4126.449	3733
4128.013	3766
4129.573	3732
4131.133	3629
4132.694	3744
4134.254	3698
4135.814	3709
4137.374	3742
4138.933	3665
4140.491	3631
4142.049	3678
4143.607	3704
4145.167	3627
4146.724	3629
4148.28	3656
4149.836	3674
4151.392	3569
4152.949	3622
4154.504	3627
4156.059	3544
4157.614	3596
4159.168	3661
4160.723	3617
4162.277	3525
4163.83	3513
4165.383	3603
4166.936	3568
4168.488	3527
4170.041	3495
4171.593	3568
4173.144	3546
4174.695	3553
4176.246	3588
4177.796	3579
4179.346	3489
4180.896	3502
4182.445	3504
4183.994	3543
4185.542	3589
4187.091	3517
4188.639	3522
4190.185	3523
4191.732	3576
4193.279	3553
4194.826	3563
4196.373	3564
4197.918	3455
4199.463	3470
4201.008	3429
4202.553	3479
4204.098	3506
4205.641	3558
4207.185	3498
4208.728	3482
4210.271	3422
4211.814	3474
4213.357	3497
4214.898	3482
4216.439	3533
4217.98	3498
4219.522	3437
4221.062	3443
4222.603	3444
4224.142	3499
4225.681	3505
4227.222	3359
4228.76	3471
4230.298	3424
4231.835	3449
4233.373	3431
4234.911	3406
4236.449	3442
4237.985	3440
4239.521	3454
4241.057	3426
4242.592	3497
4244.128	3480
4245.663	3380
4247.197	3358
4248.731	3419
4250.265	3428
4251.798	3413
4253.333	3385
4254.865	3335
4256.397	3362
4257.93	3362
4259.461	3356
4260.994	3405
4262.525	3444
4264.056	3333
4265.586	3372
4267.115	3383
4268.646	3365
4270.176	3405
4271.705	3344
4273.232	3354
4274.761	3375
4276.289	3301
4277.818	3344
4279.345	3320
4280.872	3294
4282.399	3272
4283.924	3320
4285.452	3295
4286.976	3257
4288.502	3339
4290.026	3316
4291.551	3377
4293.074	3326
4294.6	3321
4296.123	3344
4297.646	3355
4299.168	3374
4300.691	3355
4302.214	3280
4303.736	3289
4305.257	3299
4306.778	3214
4308.299	3299
4309.82	3298
4311.34	3292
4312.86	3222
4314.379	3281
