400.0745	3944
402.597	4056
405.1208	4001
407.6419	4069
410.1623	4040
412.6819	4073
415.201	4054
417.7172	4067
420.2369	4160
422.7538	4182
425.2701	4110
427.7856	4277
430.3005	4239
432.8147	4263
435.3282	4353
437.841	4228
440.3511	4343
442.8625	4177
445.3753	4252
447.8854	4291
450.3927	4371
452.9014	4332
455.4073	4249
457.9146	4325
460.4233	4329
462.9272	4258
465.4325	4314
467.935	4280
470.4389	4175
472.9421	4287
475.4446	4265
477.9444	4276
480.4456	4211
482.944	4288
485.4417	4334
487.9429	4320
490.4393	4342
492.935	4326
495.4321	4343
497.9264	4505
500.4221	4370
502.9171	4468
505.4094	4422
507.9011	4360
510.392	4451
512.8864	4350
515.3759	4344
517.8649	4443
520.3531	4344
522.8406	4499
525.3275	4423
527.8178	4444
530.3033	4465
532.7881	4528
535.2723	4471
537.7558	4508
540.2407	4407
542.7228	4466
545.2043	4421
547.6851	4432
550.1652	4493
552.6467	4465
555.1255	4468
557.6016	4495
560.079	4560
562.5557	4495
565.0318	4551
567.5092	4591
569.984	4623
572.456	4577
574.9294	4629
577.4022	4550
579.8762	4614
582.3456	4653
584.8163	4643
587.2863	4600
589.7557	4788
592.2224	4640
594.6924	4685
597.1578	4561
599.6245	4657
602.0905	4544
604.5538	4711
607.0206	4710
609.4825	4553
611.9459	4643
614.4066	4651
616.8686	4549
619.33	4638
621.7906	4632
624.2487	4706
626.708	4627
629.1647	4519
631.6207	4539
634.0801	4619
636.5348	4466
638.9888	4549
641.4442	4604
643.8969	4674
646.3509	4596
648.8022	4642
651.255	4694
653.705	4672
656.1544	4725
658.6031	4699
661.0532	4700
663.5026	4703
665.9493	4634
668.3954	4733
670.8409	4739
673.2877	4737
675.7318	4733
678.1752	4664
680.618	4743
683.0601	4737
685.5035	4731
687.9444	4711
690.3845	4735
692.824	4823
695.2628	4777
697.701	4764
700.1406	4835
702.5774	4776
705.0116	4788
707.4472	4837
709.8821	4884
712.3183	4981
714.7519	4799
717.1829	4893
719.6151	4883
722.0468	4786
724.4777	4852
726.908	4902
729.3377	4941
731.7667	4977
734.1931	4868
736.6208	4922
739.0498	4972
741.4742	4907
743.9	5035
746.3231	5101
748.7476	5062
751.1713	5083
753.5945	5176
756.015	5069
758.4368	5089
760.856	5133
763.2766	5127
765.6965	5109
768.1157	5188
770.5323	5093
772.9483	5033
775.3656	5121
777.7822	5101
780.1963	5157
782.6116	5119
785.0244	5101
787.4365	5083
789.8499	5188
792.2626	5111
794.6728	5034
797.0823	5099
799.4911	5166
801.8994	5091
804.3109	5112
806.7178	5185
809.124	5221
811.5297	5132
813.9347	5133
816.341	5253
818.7447	5194
821.1478	5218
823.5502	5216
825.952	5277
828.3531	5217
830.7556	5135
833.1554	5212
835.5546	5159
837.9532	5220
840.3511	5212
842.7504	5206
845.1451	5322
847.5411	5308
849.9365	5355
852.3312	5342
854.7272	5410
857.1187	5417
859.5115	5396
861.9037	5429
864.2952	5390
866.6842	5317
869.0764	5330
871.4661	5293
873.8531	5360
876.2415	5373
878.6272	5319
881.0162	5338
883.4026	5411
885.7866	5353
888.1717	5203
890.5543	5235
892.9382	5239
895.3215	5250
897.7041	5380
900.0842	5330
902.4655	5335
904.8443	5327
907.2244	5364
909.6039	5370
911.9808	5445
914.357	5522
916.7346	5468
919.1115	5517
921.4859	5548
923.8616	5726
926.2347	5733
928.6071	5539
930.979	5623
933.3541	5642
935.7247	5550
938.0946	5605
940.4639	5755
942.8326	5714
945.2026	5686
947.5701	5889
949.9369	5874
952.305	6004
954.6705	6206
957.0355	6405
959.4017	6657
961.7654	6822
964.1284	6682
966.4908	6498
968.8527	6264
971.2138	6213
973.5743	5974
975.9343	5704
978.2936	5666
980.6522	5609
983.0122	5575
985.3696	5553
987.7245	5487
990.0807	5486
992.4362	5533
994.7911	5456
997.1474	5583
999.4991	5539
1001.852	5474
1004.205	5530
1006.555	5484
1008.908	5494
1011.258	5489
1013.606	5454
1015.956	5459
1018.302	5470
1020.652	5428
1022.998	5483
1025.345	5616
1027.691	5606
1030.035	5550
1032.378	5540
1034.724	5577
1037.066	5561
1039.409	5589
1041.75	5503
1044.092	5601
1046.433	5691
1048.771	5708
1051.112	5582
1053.449	5606
1055.786	5566
1058.124	5521
1060.462	5599
1062.797	5684
1065.131	5867
1067.467	5692
1069.8	5710
1072.135	5649
1074.467	5703
1076.798	5688
1079.129	5652
1081.459	5662
1083.792	5682
1086.121	5684
1088.449	5639
1090.777	5586
1093.104	5591
1095.431	5534
1097.759	5679
1100.084	5509
1102.408	5611
1104.732	5666
1107.056	5693
1109.379	5556
1111.701	5582
1114.022	5695
1116.343	5512
1118.664	5676
1120.983	5573
1123.303	5647
1125.621	5623
1127.939	5574
1130.256	5656
1132.573	5536
1134.889	5688
1137.205	5609
1139.52	5621
1141.832	5684
1144.146	5519
1146.461	5628
1148.771	5689
1151.083	5615
1153.392	5590
1155.703	5558
1158.011	5594
1160.323	5614
1162.629	5614
1164.938	5588
1167.243	5561
1169.55	5593
1171.857	5618
1174.163	5600
1176.466	5700
1178.769	5606
1181.073	5524
1183.374	5663
1185.677	5593
1187.979	5565
1190.279	5569
1192.578	5612
1194.878	5767
1197.178	5587
1199.476	5656
1201.772	5625
1204.068	5624
1206.366	5588
1208.663	5712
1210.957	5686
1213.251	5648
1215.544	5709
1217.836	5642
1220.128	5635
1222.421	5646
1224.712	5685
1227.002	5780
1229.292	5761
1231.581	5776
1233.871	5800
1236.159	5695
1238.446	5865
1240.732	5761
1243.018	5876
1245.304	5871
1247.59	5958
1249.874	5899
1252.156	5944
1254.439	5876
1256.721	5945
1259.005	5957
1261.286	5919
1263.565	5861
1265.845	5940
1268.125	5923
1270.403	5840
1272.682	5876
1274.959	5922
1277.234	5841
1279.511	5861
1281.787	5802
1284.062	5923
1286.337	5884
1288.609	5753
1290.882	5843
1293.153	5813
1295.428	5686
1297.698	5811
1299.969	5669
1302.237	5774
1304.507	5753
1306.777	5775
1309.044	5715
1311.312	5850
1313.578	5771
1315.844	5821
1318.109	5803
1320.375	5869
1322.638	5756
1324.903	5739
1327.165	5816
1329.427	5776
1331.69	5865
1333.952	5904
1336.212	5826
1338.471	5845
1340.73	5833
1342.988	5782
1345.248	5780
1347.505	5715
1349.763	5707
1352.019	5672
1354.274	5868
1356.53	5875
1358.784	5767
1361.038	5748
1363.291	5701
1365.543	5778
1367.797	5723
1370.048	5847
1372.296	5705
1374.546	5833
1376.796	5859
1379.045	5752
1381.295	5798
1383.542	5786
1385.787	5879
1388.034	5852
1390.28	5940
1392.527	5912
1394.772	5968
1397.014	5921
1399.258	5927
1401.501	5962
1403.741	5963
1405.985	5939
1408.226	5910
1410.465	5942
1412.705	5955
1414.943	5943
1417.184	5955
1419.42	5881
1421.658	5912
1423.894	6022
1426.13	5975
1428.366	5944
1430.602	6052
1432.835	6069
1435.069	5914
1437.301	6157
1439.535	6168
1441.767	6025
1443.997	6016
1446.229	6207
1448.458	6033
1450.687	6120
1452.916	6143
1455.146	6182
1457.372	6092
1459.599	6107
1461.824	6191
1464.051	6022
1466.277	6065
1468.501	5988
1470.725	5977
1472.948	5992
1475.17	5862
1477.393	5925
1479.614	5956
1481.837	5931
1484.057	5799
1486.276	5828
1488.497	5756
1490.715	5793
1492.932	5735
1495.148	5693
1497.364	5731
1499.58	5649
1501.798	5751
1504.012	5805
1506.227	5697
1508.44	5715
1510.653	5692
1512.866	5674
1515.078	5760
1517.289	5588
1519.5	5659
1521.711	5601
1523.92	5699
1526.13	5685
1528.338	5614
1530.544	5722
1532.752	5711
1534.959	5723
1537.165	5655
1539.371	5807
1541.574	5762
1543.779	5692
1545.983	5652
1548.187	5842
1550.39	5817
1552.59	5879
1554.792	5695
1556.991	5777
1559.19	5827
1561.392	5862
1563.59	5786
1565.789	5869
1567.986	5909
1570.182	5849
1572.381	5844
1574.576	5901
1576.771	5779
1578.966	5872
1581.16	5859
1583.354	5838
1585.546	5814
1587.74	5738
1589.931	5973
1592.121	5947
1594.311	5834
1596.502	5852
1598.693	5824
1600.881	5940
1603.069	5924
1605.256	6021
1607.445	5938
1609.631	5973
1611.816	5883
1614.001	5946
1616.186	5826
1618.37	5885
1620.555	5943
1622.737	5944
1624.919	5924
1627.101	5975
1629.282	6079
1631.463	5863
1633.643	5888
1635.822	6064
1638.001	5947
1640.179	5944
1642.359	6019
1644.534	6122
1646.711	6001
1648.887	5955
1651.062	6114
1653.235	5994
1655.412	5944
1657.586	6065
1659.757	6105
1661.93	6093
1664.1	6177
1666.274	6156
1668.445	6040
1670.614	6088
1672.784	6146
1674.951	6104
1677.12	6076
1679.289	6076
1681.457	6047
1683.622	6155
1685.789	6069
1687.953	6059
1690.121	6065
1692.284	5986
1694.447	6094
1696.611	6081
1698.772	6006
1700.935	5857
1703.098	5985
1705.258	5932
1707.417	5839
1709.576	5940
1711.736	5759
1713.896	5754
1716.053	5959
1718.21	5835
1720.366	5981
1722.522	5841
1724.68	5895
1726.835	5761
1728.989	5772
1731.142	5788
1733.295	5888
1735.449	5831
1737.601	5811
1739.753	5844
1741.903	5955
1744.054	5889
1746.203	5918
1748.354	5839
1750.503	5847
1752.651	5840
1754.798	5806
1756.944	5927
1759.092	5916
1761.238	5881
1763.383	5879
1765.528	5760
1767.672	5935
1769.814	5978
1771.959	5928
1774.102	5964
1776.242	5933
1778.384	5888
1780.525	5924
1782.665	5959
1784.805	5921
1786.945	6016
1789.082	5839
1791.22	6124
1793.36	6056
1795.495	5865
1797.632	6030
1799.766	5882
1801.902	5777
1804.035	5963
1806.172	5958
1808.304	5935
1810.436	5838
1812.569	5872
1814.699	5906
1816.833	5855
1818.963	5925
1821.092	5765
1823.222	5938
1825.35	5772
1827.478	5877
1829.608	5929
1831.734	5960
1833.86	5785
1835.986	5857
1838.11	5840
1840.238	5837
1842.362	5845
1844.485	5794
1846.608	5808
1848.73	5795
1850.853	5876
1852.974	5914
1855.097	5860
1857.217	5832
1859.336	5839
1861.455	5889
1863.576	5719
1865.693	5807
1867.811	5805
1869.926	5830
1872.042	5905
1874.16	5894
1876.275	5826
1878.39	5773
1880.504	5809
1882.618	5805
1884.731	5764
1886.843	6007
1888.956	5818
1891.067	5801
1893.178	5890
1895.287	5750
1897.399	5875
1899.508	5900
1901.617	5815
1903.724	5738
1905.832	5895
1907.941	5903
1910.046	5880
1912.152	5910
1914.256	5900
1916.361	5945
1918.464	5963
1920.57	5900
1922.672	6034
1924.775	5935
1926.876	5905
1928.978	5932
1931.08	5851
1933.181	5924
1935.28	5925
1937.38	5899
1939.478	5885
1941.577	5845
1943.675	5901
1945.771	5933
1947.867	5909
1949.964	6028
1952.058	5866
1954.154	5953
1956.248	5803
1958.343	5995
1960.435	5989
1962.527	5819
1964.62	5874
1966.711	5777
1968.802	5879
1970.892	5969
1972.983	5904
1975.072	5890
1977.162	5870
1979.25	5893
1981.337	5854
1983.424	5852
1985.51	5872
1987.598	5933
1989.683	5922
1991.768	5826
1993.852	5837
1995.934	5974
1998.019	5894
2000.102	5740
2002.184	5836
2004.266	5935
2006.347	5860
2008.427	5837
2010.508	5866
2012.587	5835
2014.666	5767
2016.745	5844
2018.821	5730
2020.9	5759
2022.977	5791
2025.052	5785
2027.128	5751
2029.204	5787
2031.277	5819
2033.353	5892
2035.425	5913
2037.499	5803
2039.57	5850
2041.642	5881
2043.714	5833
2045.786	5822
2047.855	5803
2049.925	5929
2051.993	5868
2054.064	5865
2056.132	5903
2058.2	5817
2060.266	5831
2062.332	5894
2064.398	5856
2066.465	5830
2068.529	5870
2070.592	5880
2072.657	5917
2074.719	5890
2076.783	5767
2078.845	5875
2080.907	5736
2082.968	5891
2085.028	5869
2087.087	5811
2089.148	5795
2091.207	5811
2093.264	5847
2095.322	5857
2097.379	5792
2099.439	5851
2101.495	5881
2103.55	5971
2105.605	5801
2107.658	5774
2109.713	5906
2111.767	5822
2113.82	5764
2115.872	5851
2117.924	5802
2119.975	5779
2122.028	5732
2124.078	5911
2126.126	5825
2128.176	5778
2130.225	5984
2132.275	5828
2134.321	5852
2136.368	5682
2138.415	5830
2140.461	5901
2142.505	5744
2144.552	5782
2146.597	5792
2148.64	5819
2150.684	5803
2152.725	5870
2154.77	5812
2156.811	5806
2158.852	5764
2160.894	5820
2162.933	5688
2164.973	5803
2167.013	5739
2169.051	5824
2171.089	5761
2173.126	5776
2175.164	5728
2177.201	5744
2179.236	5795
2181.273	5761
2183.307	5729
2185.341	5698
2187.377	5687
2189.41	5777
2191.442	5736
2193.473	5678
2195.506	5827
2197.539	5652
2199.569	5704
2201.598	5647
2203.628	5640
2205.656	5661
2207.686	5641
2209.716	5676
2211.743	5601
2213.769	5673
2215.796	5760
2217.821	5667
2219.848	5611
2221.873	5612
2223.897	5780
2225.921	5620
2227.944	5591
2229.967	5659
2231.991	5666
2234.011	5694
2236.032	5649
2238.053	5656
2240.073	5693
2242.094	5612
2244.114	5598
2246.131	5693
2248.149	5671
2250.167	5694
2252.186	5768
2254.201	5592
2256.218	5720
2258.233	5683
2260.247	5649
2262.262	5768
2264.278	5656
2266.29	5712
2268.303	5642
2270.315	5664
2272.327	5661
2274.341	5748
2276.35	5635
2278.361	5668
2280.37	5738
2282.38	5611
2284.388	5642
2286.397	5744
2288.405	5669
2290.412	5617
2292.419	5736
2294.425	5598
2296.431	5618
2298.437	5685
2300.441	5659
2302.445	5680
2304.449	5570
2306.453	5616
2308.455	5601
2310.457	5660
2312.459	5610
2314.46	5634
2316.46	5545
2318.461	5585
2320.46	5490
2322.458	5627
2324.458	5558
2326.456	5467
2328.455	5592
2330.451	5591
2332.447	5586
2334.443	5519
2336.438	5515
2338.433	5530
2340.429	5490
2342.422	5555
2344.416	5553
2346.408	5650
2348.399	5549
2350.393	5472
2352.384	5533
2354.375	5407
2356.365	5507
2358.355	5517
2360.344	5628
2362.333	5511
2364.322	5468
2366.309	5578
2368.295	5544
2370.282	5421
2372.27	5602
2374.256	5479
2376.24	5470
2378.225	5598
2380.208	5499
2382.194	5505
2384.177	5466
2386.159	5471
2388.142	5371
2390.122	5430
2392.105	5568
2394.085	5441
2396.066	5373
2398.044	5363
2400.024	5501
2402.002	5423
2403.982	5514
2405.959	5333
2407.935	5367
2409.913	5399
2411.888	5414
2413.865	5557
2415.84	5480
2417.814	5417
2419.788	5417
2421.762	5414
2423.735	5401
2425.708	5457
2427.68	5456
2429.651	5443
2431.623	5520
2433.593	5350
2435.564	5407
2437.533	5447
2439.502	5410
2441.47	5498
2443.438	5520
2445.406	5425
2447.373	5390
2449.34	5478
2451.305	5407
2453.271	5330
2455.235	5410
2457.201	5434
2459.165	5371
2461.129	5347
2463.092	5441
2465.054	5397
2467.018	5381
2468.978	5453
2470.939	5438
2472.899	5346
2474.86	5358
2476.819	5337
2478.778	5454
2480.737	5404
2482.695	5367
2484.653	5314
2486.609	5430
2488.567	5399
2490.524	5316
2492.478	5361
2494.433	5366
2496.387	5425
2498.343	5358
2500.297	5267
2502.249	5390
2504.202	5424
2506.153	5331
2508.105	5307
2510.057	5352
2512.008	5317
2513.957	5358
2515.906	5240
2517.855	5414
2519.805	5310
2521.754	5281
2523.7	5405
2525.647	5245
2527.594	5208
2529.54	5279
2531.486	5205
2533.431	5379
2535.376	5288
2537.32	5235
2539.263	5358
2541.207	5284
2543.151	5315
2545.093	5286
2547.034	5264
2548.975	5305
2550.917	5264
2552.856	5286
2554.796	5325
2556.735	5225
2558.673	5221
2560.611	5368
2562.55	5279
2564.487	5322
2566.424	5284
2568.36	5267
2570.296	5292
2572.232	5302
2574.167	5402
2576.101	5391
2578.035	5260
2579.969	5325
2581.902	5297
2583.834	5347
2585.766	5383
2587.698	5297
2589.628	5309
2591.557	5302
2593.489	5245
2595.419	5291
2597.348	5326
2599.275	5426
2601.204	5280
2603.131	5281
2605.059	5267
2606.986	5286
2608.911	5265
2610.837	5316
2612.76	5298
2614.687	5309
2616.61	5283
2618.534	5319
2620.457	5394
2622.38	5341
2624.302	5236
2626.225	5269
2628.145	5297
2630.067	5270
2631.986	5260
2633.906	5349
2635.827	5280
2637.745	5323
2639.662	5363
2641.581	5395
2643.498	5282
2645.415	5312
2647.331	5388
2649.248	5310
2651.163	5312
2653.077	5411
2654.993	5277
2656.906	5295
2658.821	5315
2660.733	5270
2662.646	5255
2664.557	5326
2666.47	5251
2668.381	5331
2670.291	5240
2672.201	5295
2674.11	5260
2676.021	5274
2677.929	5393
2679.837	5175
2681.745	5202
2683.652	5263
2685.56	5302
2687.466	5291
2689.371	5275
2691.276	5318
2693.181	5291
2695.085	5211
2696.991	5242
2698.893	5255
2700.796	5153
2702.698	5227
2704.601	5214
2706.502	5168
2708.404	5155
2710.304	5147
2712.203	5182
2714.103	5088
2716.003	5208
2717.902	5160
2719.8	5237
2721.697	5223
2723.594	5135
2725.49	5216
2727.389	5110
2729.283	5186
2731.179	5164
2733.073	5160
2734.968	5166
2736.863	5165
2738.757	5234
2740.649	5186
2742.541	5125
2744.433	5233
2746.324	5242
2748.216	5201
2750.107	5174
2751.997	5244
2753.886	5258
2755.776	5177
2757.666	5171
2759.553	5102
2761.44	5092
2763.327	5189
2765.215	5153
2767.102	5121
2768.988	5139
2770.873	5158
2772.757	5137
2774.641	5195
2776.525	5152
2778.41	5096
2780.292	5097
2782.175	5139
2784.057	5165
2785.938	5106
2787.821	5172
2789.701	5112
2791.581	5032
2793.461	5096
2795.34	5119
2797.219	5068
2799.099	5134
2800.975	5157
2802.853	5078
2804.73	5071
2806.606	5005
2808.484	5051
2810.358	5211
2812.233	5080
2814.108	5111
2815.981	5104
2817.857	5134
2819.73	5001
2821.602	5118
2823.474	5094
2825.346	5159
2827.217	5063
2829.089	5164
2830.959	5065
2832.829	5114
2834.698	5161
2836.567	5102
2838.436	5164
2840.305	5109
2842.172	5251
2844.04	5162
2845.905	5156
2847.772	5063
2849.639	5136
2851.503	5192
2853.369	5246
2855.232	5202
2857.096	5191
2858.961	5123
2860.824	5357
2862.686	5260
2864.547	5377
2866.41	5379
2868.272	5383
2870.132	5385
2871.992	5486
2873.851	5460
2875.711	5643
2877.57	5630
2879.429	5613
2881.287	5757
2883.144	5698
2885.001	5831
2886.857	5737
2888.714	5714
2890.57	5796
2892.425	5822
2894.279	5724
2896.133	5727
2897.987	5777
2899.842	5678
2901.694	5701
2903.547	5810
2905.397	5711
2907.249	5729
2909.101	5733
2910.952	5726
2912.802	5811
2914.652	5872
2916.5	5853
2918.35	6005
2920.198	6043
2922.045	6016
2923.893	6095
2925.74	6158
2927.585	6235
2929.433	6226
2931.279	6387
2933.123	6444
2934.968	6445
2936.811	6547
2938.656	6515
2940.5	6650
2942.342	6708
2944.185	6819
2946.026	6711
2947.87	6759
2949.71	6772
2951.549	6661
2953.39	6550
2955.229	6669
2957.069	6424
2958.908	6420
2960.746	6518
2962.584	6362
2964.421	6343
2966.257	6328
2968.094	6187
2969.931	6054
2971.766	6083
2973.601	5977
2975.435	5945
2977.27	5827
2979.105	5775
2980.938	5924
2982.77	5699
2984.602	5765
2986.434	5860
2988.267	5673
2990.097	5663
2991.927	5702
2993.757	5608
2995.587	5582
2997.417	5475
2999.246	5472
3001.074	5429
3002.902	5330
3004.729	5371
3006.556	5224
3008.384	5272
3010.21	5208
3012.036	5119
3013.861	5095
3015.684	5080
3017.51	5013
3019.334	4950
3021.157	4998
3022.981	5002
3024.802	4856
3026.624	4820
3028.448	4882
3030.267	4871
3032.088	4851
3033.909	4912
3035.728	4856
3037.549	4825
3039.368	4872
3041.186	4813
3043.004	4901
3044.821	4857
3046.64	4819
3048.455	4813
3050.272	4697
3052.087	4729
3053.903	4780
3055.717	4783
3057.534	4834
3059.347	4759
3061.16	4784
3062.974	4762
3064.785	4768
3066.598	4766
3068.411	4792
3070.222	4815
3072.032	4833
3073.844	4723
3075.653	4803
3077.463	4712
3079.272	4700
3081.08	4715
3082.889	4736
3084.697	4733
3086.505	4690
3088.312	4631
3090.118	4779
3091.924	4715
3093.729	4605
3095.535	4635
3097.34	4581
3099.144	4651
3100.947	4582
3102.75	4606
3104.553	4581
3106.357	4590
3108.159	4572
3109.961	4638
3111.762	4598
3113.562	4702
3115.365	4484
3117.164	4622
3118.964	4615
3120.761	4632
3122.56	4559
3124.36	4414
3126.158	4549
3127.954	4560
3129.75	4505
3131.547	4584
3133.343	4445
3135.139	4516
3136.934	4547
3138.729	4612
3140.522	4567
3142.317	4524
3144.11	4494
3145.904	4551
3147.695	4566
3149.488	4587
3151.28	4597
3153.07	4495
3154.863	4435
3156.652	4443
3158.441	4457
3160.231	4484
3162.019	4467
3163.81	4570
3165.597	4521
3167.384	4504
3169.172	4532
3170.958	4429
3172.745	4481
3174.532	4446
3176.317	4581
3178.101	4436
3179.885	4445
3181.67	4490
3183.455	4460
3185.238	4525
3187.02	4521
3188.802	4582
3190.585	4536
3192.368	4404
3194.149	4457
3195.929	4490
3197.709	4407
3199.489	4370
3201.268	4466
3203.048	4453
3204.826	4441
3206.604	4446
3208.382	4423
3210.159	4445
3211.937	4428
3213.713	4492
3215.489	4458
3217.263	4433
3219.038	4456
3220.815	4479
3222.589	4426
3224.363	4389
3226.136	4458
3227.908	4520
3229.681	4448
3231.454	4348
3233.226	4462
3234.996	4458
3236.767	4446
3238.538	4480
3240.308	4389
3242.078	4401
3243.847	4388
3245.615	4395
3247.384	4414
3249.15	4405
3250.92	4540
3252.686	4402
3254.453	4455
3256.218	4459
3257.984	4342
3259.75	4387
3261.515	4400
3263.279	4422
3265.044	4471
3266.806	4373
3268.57	4378
3270.334	4380
3272.095	4456
3273.856	4517
3275.619	4365
3277.379	4484
3279.14	4424
3280.9	4339
3282.661	4406
3284.419	4493
3286.178	4418
3287.937	4412
3289.695	4444
3291.453	4447
3293.21	4470
3294.967	4455
3296.723	4401
3298.48	4456
3300.235	4505
3301.99	4451
3303.744	4424
3305.498	4526
3307.253	4470
3309.006	4473
3310.759	4389
3312.511	4360
3314.263	4461
3316.017	4384
3317.768	4356
3319.519	4426
3321.268	4469
3323.018	4479
3324.767	4473
3326.518	4433
3328.267	4337
3330.014	4467
3331.762	4366
3333.509	4418
3335.258	4382
3337.003	4422
3338.75	4417
3340.496	4338
3342.24	4390
3343.987	4418
3345.732	4225
3347.475	4303
3349.219	4384
3350.961	4444
3352.705	4312
3354.448	4360
3356.19	4375
3357.931	4289
3359.672	4470
3361.412	4382
3363.155	4387
3364.894	4304
3366.633	4395
3368.372	4313
3370.11	4239
3371.849	4261
3373.588	4348
3375.325	4368
3377.061	4240
3378.799	4349
3380.534	4299
3382.271	4320
3384.006	4337
3385.741	4257
3387.475	4305
3389.209	4239
3390.944	4390
3392.677	4290
3394.409	4229
3396.143	4269
3397.874	4282
3399.606	4222
3401.338	4214
3403.069	4171
3404.799	4261
3406.528	4183
3408.258	4214
3409.988	4229
3411.717	4285
3413.445	4132
3415.173	4179
3416.899	4241
3418.626	4248
3420.354	4182
3422.08	4212
3423.806	4190
3425.531	4192
3427.255	4084
3428.981	4165
3430.705	4117
3432.429	4209
3434.151	4141
3435.875	4093
3437.599	4163
3439.321	4267
3441.042	4054
3442.763	4150
3444.483	4144
3446.204	4129
3447.926	4086
3449.645	4041
3451.364	4084
3453.082	4057
3454.801	4175
3456.52	4024
3458.238	4121
3459.954	4038
3461.671	4120
3463.387	4100
3465.104	4041
3466.82	4048
3468.534	4063
3470.25	4002
3471.963	3982
3473.676	3997
3475.392	4022
3477.104	3936
3478.817	4019
3480.528	3987
3482.241	4051
3483.954	4004
3485.664	4007
3487.374	3930
3489.084	4062
3490.795	3870
3492.504	3980
3494.214	3893
3495.922	3931
3497.63	4001
3499.338	3903
3501.045	3925
3502.753	3957
3504.459	3952
3506.166	4011
3507.871	3842
3509.576	3871
3511.283	3881
3512.987	3955
3514.691	3897
3516.395	3910
3518.098	3823
3519.8	3798
3521.504	3929
3523.206	3836
3524.908	3918
3526.609	3898
3528.309	3817
3530.011	3833
3531.711	3776
3533.411	3869
3535.109	3851
3536.808	3838
3538.507	3822
3540.206	3811
3541.904	3786
3543.601	3813
3545.297	3813
3546.994	3757
3548.69	3814
3550.387	3812
3552.081	3825
3553.776	3761
3555.47	3750
3557.166	3710
3558.859	3805
3560.553	3790
3562.245	3747
3563.938	3826
3565.629	3706
3567.322	3729
3569.014	3748
3570.704	3738
3572.394	3723
3574.084	3742
3575.775	3774
3577.464	3784
3579.152	3779
3580.842	3624
3582.529	3755
3584.216	3696
3585.905	3653
3587.591	3756
3589.279	3640
3590.964	3651
3592.649	3605
3594.336	3740
3596.021	3690
3597.705	3730
3599.388	3695
3601.072	3634
3602.757	3595
3604.439	3621
3606.122	3661
3607.803	3660
3609.485	3621
3611.167	3587
3612.849	3645
3614.529	3593
3616.208	3558
3617.888	3642
3619.567	3601
3621.247	3527
3622.926	3580
3624.603	3559
3626.281	3572
3627.958	3596
3629.635	3577
3631.312	3526
3632.989	3448
3634.665	3507
3636.339	3518
3638.014	3539
3639.691	3510
3641.364	3420
3643.038	3505
3644.71	3377
3646.384	3489
3648.058	3478
3649.729	3410
3651.402	3466
3653.073	3465
3654.744	3465
3656.414	3438
3658.085	3492
3659.755	3458
3661.424	3477
3663.094	3456
3664.762	3449
3666.431	3481
3668.099	3432
3669.766	3312
3671.433	3445
3673.099	3487
3674.768	3408
3676.433	3407
3678.098	3471
3679.763	3388
3681.428	3456
3683.093	3440
3684.757	3386
3686.421	3445
3688.083	3436
3689.746	3366
3691.408	3368
3693.071	3497
3694.733	3311
3696.394	3343
3698.054	3352
3699.715	3396
3701.375	3411
3703.036	3455
3704.695	3386
3706.354	3419
3708.012	3406
3709.67	3312
3711.329	3352
3712.987	3420
3714.644	3423
3716.299	3341
3717.955	3359
3719.613	3258
3721.268	3347
3722.923	3286
3724.577	3296
3726.231	3395
3727.885	3282
3729.539	3343
3731.192	3335
3732.845	3288
3734.497	3322
3736.149	3297
3737.802	3349
3739.453	3300
3741.104	3271
3742.753	3302
3744.404	3306
3746.052	3229
3747.704	3354
3749.352	3278
3751	3268
3752.648	3286
3754.296	3332
3755.944	3227
3757.59	3287
3759.238	3275
3760.883	3327
3762.528	3344
3764.176	3251
3765.82	3281
3767.464	3326
3769.109	3232
3770.753	3283
3772.396	3178
3774.04	3262
3775.683	3170
3777.325	3233
3778.967	3263
3780.608	3266
3782.25	3267
3783.89	3298
3785.531	3226
3787.17	3164
3788.81	3251
3790.45	3160
3792.09	3198
3793.729	3166
3795.366	3242
3797.003	3114
3798.64	3195
3800.278	3214
3801.915	3212
3803.551	3222
3805.187	3165
3806.822	3152
3808.458	3196
3810.093	3133
3811.726	3178
3813.36	3110
3814.994	3164
3816.627	3180
3818.262	3241
3819.893	3225
3821.525	3127
3823.157	3112
3824.787	3131
3826.42	3113
3828.051	3100
3829.68	3096
3831.31	3116
3832.938	3144
3834.569	3100
3836.198	3095
3837.825	3145
3839.454	3134
3841.08	3125
3842.708	3094
3844.335	3081
3845.962	3135
3847.587	3113
3849.212	3110
3850.838	3146
3852.463	3157
3854.089	3057
3855.712	3055
3857.335	3059
3858.959	3027
3860.582	3134
3862.205	3109
3863.827	3074
3865.449	3059
3867.07	3114
3868.691	3054
3870.312	3035
3871.933	3165
3873.553	3056
3875.173	3018
3876.792	3036
3878.411	3049
3880.03	3014
3881.647	3005
3883.265	3069
3884.882	3051
3886.499	3103
3888.116	3002
3889.732	2999
3891.348	3011
3892.964	2996
3894.579	3119
3896.195	3075
3897.809	2960
3899.423	2984
3901.036	3013
3902.648	3072
3904.261	3080
3905.875	3015
3907.487	3044
3909.099	3008
3910.709	3045
3912.321	2976
3913.933	2953
3915.542	2956
3917.152	2993
3918.762	3004
3920.37	3013
3921.98	3027
3923.589	3048
3925.196	2975
3926.804	3037
3928.41	2998
3930.018	2991
3931.626	2928
3933.231	2975
3934.838	3000
3936.442	2949
3938.046	2932
3939.653	3001
3941.257	2964
3942.861	3020
3944.464	2980
3946.068	2985
3947.67	2946
3949.273	2969
3950.876	2910
3952.477	3018
3954.078	2984
3955.678	3010
3957.281	2940
3958.881	2919
3960.48	2943
3962.079	2929
3963.678	3021
3965.279	3000
3966.877	2967
3968.475	2892
3970.072	2936
3971.669	2899
3973.266	2991
3974.864	2939
3976.459	2938
3978.055	2976
3979.65	2860
3981.245	2838
3982.841	2830
3984.436	2891
3986.03	2902
3987.623	2874
3989.216	2811
3990.809	2824
3992.403	2833
3993.995	2879
3995.586	2817
3997.177	2895
3998.768	2826
4000.361	2870
4001.951	2806
4003.54	2834
4005.13	2852
4006.719	2845
4008.31	2805
4009.897	2808
4011.485	2807
4013.073	2885
4014.66	2824
4016.247	2778
4017.834	2782
4019.421	2800
4021.006	2830
4022.592	2816
4024.178	2759
4025.763	2774
4027.348	2765
4028.932	2818
4030.515	2814
4032.099	2733
4033.682	2771
4035.266	2828
4036.847	2764
4038.429	2815
4040.011	2721
4041.592	2770
4043.173	2838
4044.755	2773
4046.334	2681
4047.913	2728
4049.494	2714
4051.074	2747
4052.652	2719
4054.23	2726
4055.807	2686
4057.385	2742
4058.963	2742
4060.541	2729
4062.117	2712
4063.693	2682
4065.269	2737
4066.844	2744
4068.42	2688
4069.995	2705
4071.569	2681
4073.143	2702
4074.716	2706
4076.291	2719
4077.864	2712
4079.436	2695
4081.009	2700
4082.58	2751
4084.152	2726
4085.723	2716
4087.294	2707
4088.865	2643
4090.435	2684
4092.005	2682
4093.574	2611
4095.143	2662
4096.712	2658
4098.279	2666
4099.848	2677
4101.416	2649
4102.984	2601
4104.55	2629
4106.117	2712
4107.682	2714
4109.248	2648
4110.815	2670
4112.379	2617
4113.945	2678
4115.508	2646
4117.073	2629
4118.637	2709
4120.201	2636
4121.763	2609
4123.325	2684
4124.888	2600
4126.449	2591
4128.013	2612
4129.573	2638
4131.133	2613
4132.694	2568
4134.254	2571
4135.814	2637
4137.374	2569
4138.933	2540
4140.491	2603
4142.049	2630
4143.607	2572
4145.167	2572
4146.724	2570
4148.28	2636
4149.836	2569
4151.392	2592
4152.949	2659
4154.504	2599
4156.059	2588
4157.614	2551
4159.168	2571
4160.723	2471
4162.277	2561
4163.83	2549
4165.383	2542
4166.936	2534
4168.488	2539
4170.041	2566
4171.593	2506
4173.144	2519
4174.695	2528
4176.246	2511
4177.796	2535
4179.346	2497
4180.896	2513
4182.445	2516
4183.994	2445
4185.542	2463
4187.091	2529
4188.639	2495
4190.185	2500
4191.732	2501
4193.279	2408
4194.826	2435
4196.373	2474
4197.918	2500
4199.463	2460
4201.008	2477
4202.553	2450
4204.098	2533
4205.641	2533
4207.185	2441
4208.728	2477
4210.271	2492
4211.814	2424
4213.357	2519
4214.898	2434
4216.439	2477
4217.98	2468
4219.522	2510
4221.062	2474
4222.603	2467
4224.142	2434
4225.681	2448
4227.222	2428
4228.76	2466
4230.298	2442
4231.835	2439
4233.373	2429
4234.911	2448
4236.449	2367
4237.985	2504
4239.521	2399
4241.057	2436
4242.592	2427
4244.128	2412
4245.663	2430
4247.197	2476
4248.731	2391
4250.265	2391
4251.798	2428
4253.333	2418
4254.865	2454
4256.397	2361
4257.93	2430
4259.461	2473
4260.994	2428
4262.525	2401
4264.056	2443
4265.586	2355
4267.115	2438
4268.646	2367
4270.176	2442
4271.705	2399
4273.232	2396
4274.761	2378
4276.289	2368
4277.818	2285
4279.345	2363
4280.872	2340
4282.399	2427
4283.924	2392
4285.452	2469
4286.976	2368
4288.502	2389
4290.026	2356
4291.551	2283
4293.074	2320
4294.6	2341
4296.123	2316
4297.646	2356
4299.168	2393
4300.691	2368
4302.214	2310
4303.736	2307
4305.257	2315
4306.778	2305
4308.299	2326
4309.82	2337
4311.34	2307
4312.86	2342
4314.379	2360
