400.0745	4104
402.597	4073
405.1208	4104
407.6419	4059
410.1623	4017
412.6819	4096
415.201	4151
417.7172	4191
420.2369	4222
422.7538	4255
425.2701	4267
427.7856	4284
430.3005	4379
432.8147	4331
435.3282	4428
437.841	4297
440.3511	4258
442.8625	4298
445.3753	4350
447.8854	4349
450.3927	4349
452.9014	4340
455.4073	4373
457.9146	4378
460.4233	4348
462.9272	4335
465.4325	4319
467.935	4285
470.4389	4403
472.9421	4319
475.4446	4301
477.9444	4354
480.4456	4287
482.944	4419
485.4417	4387
487.9429	4418
490.4393	4415
492.935	4328
495.4321	4395
497.9264	4438
500.4221	4388
502.9171	4345
505.4094	4475
507.9011	4487
510.392	4564
512.8864	4515
515.3759	4502
517.8649	4525
520.3531	4512
522.8406	4529
525.3275	4508
527.8178	4560
530.3033	4458
532.7881	4562
535.2723	4500
537.7558	4507
540.2407	4522
542.7228	4525
545.2043	4504
547.6851	4479
550.1652	4514
552.6467	4592
555.1255	4599
557.6016	4543
560.079	4601
562.5557	4545
565.0318	4576
567.5092	4685
569.984	4607
572.456	4619
574.9294	4714
577.4022	4720
579.8762	4682
582.3456	4742
584.8163	4612
587.2863	4699
589.7557	4749
592.2224	4714
594.6924	4690
597.1578	4705
599.6245	4688
602.0905	4653
604.5538	4706
607.0206	4680
609.4825	4716
611.9459	4693
614.4066	4642
616.8686	4766
619.33	4673
621.7906	4779
624.2487	4595
626.708	4692
629.1647	4687
631.6207	4630
634.0801	4619
636.5348	4654
638.9888	4670
641.4442	4679
643.8969	4653
646.3509	4676
648.8022	4758
651.255	4765
653.705	4696
656.1544	4723
658.6031	4693
661.0532	4799
663.5026	4817
665.9493	4662
668.3954	4786
670.8409	4829
673.2877	4821
675.7318	4774
678.1752	4775
680.618	4828
683.0601	4852
685.5035	4775
687.9444	4885
690.3845	4845
692.824	4931
695.2628	4874
697.701	4869
700.1406	4806
702.5774	4832
705.0116	4851
707.4472	4861
709.8821	4883
712.3183	4818
714.7519	4979
717.1829	4851
719.6151	4934
722.0468	4897
724.4777	5006
726.908	4991
729.3377	5064
731.7667	4995
734.1931	4955
736.6208	5015
739.0498	4987
741.4742	5085
743.9	5111
746.3231	5107
748.7476	5067
751.1713	5147
753.5945	5103
756.015	5127
758.4368	5267
760.856	5226
763.2766	5165
765.6965	5111
768.1157	5166
770.5323	5268
772.9483	5205
775.3656	5308
777.7822	5174
780.1963	5152
782.6116	5167
785.0244	5191
787.4365	5259
789.8499	5237
792.2626	5134
794.6728	5161
797.0823	5241
799.4911	5170
801.8994	5138
804.3109	5216
806.7178	5192
809.124	5146
811.5297	5269
813.9347	5267
816.341	5298
818.7447	5343
821.1478	5341
823.5502	5279
825.952	5320
828.3531	5297
830.7556	5242
833.1554	5279
835.5546	5273
837.9532	5378
840.3511	5267
842.7504	5334
845.1451	5402
847.5411	5404
849.9365	5427
852.3312	5460
854.7272	5420
857.1187	5488
859.5115	5473
861.9037	5408
864.2952	5396
866.6842	5408
869.0764	5290
871.4661	5328
873.8531	5393
876.2415	5318
878.6272	5306
881.0162	5395
883.4026	5300
885.7866	5332
888.1717	5395
890.5543	5419
892.9382	5248
895.3215	5370
897.7041	5403
900.0842	5303
902.4655	5392
904.8443	5355
907.2244	5302
909.6039	5395
911.9808	5457
914.357	5462
916.7346	5520
919.1115	5550
921.4859	5557
923.8616	5567
926.2347	5625
928.6071	5603
930.979	5668
933.3541	5740
935.7247	5669
938.0946	5699
940.4639	5795
942.8326	5800
945.2026	5829
947.5701	5873
949.9369	5978
952.305	6207
954.6705	6394
957.0355	6668
959.4017	6861
961.7654	6909
964.1284	6908
966.4908	6718
968.8527	6391
971.2138	6203
973.5743	5874
975.9343	5793
978.2936	5703
980.6522	5635
983.0122	5509
985.3696	5462
987.7245	5455
990.0807	5512
992.4362	5544
994.7911	5594
997.1474	5442
999.4991	5572
1001.852	5544
1004.205	5600
1006.555	5591
1008.908	5683
1011.258	5512
1013.606	5628
1015.956	5504
1018.302	5594
1020.652	5505
1022.998	5627
1025.345	5663
1027.691	5644
1030.035	5685
1032.378	5567
1034.724	5640
1037.066	5672
1039.409	5663
1041.75	5639
1044.092	5779
1046.433	5667
1048.771	5725
1051.112	5701
1053.449	5651
1055.786	5691
1058.124	5692
1060.462	5753
1062.797	5618
1065.131	5838
1067.467	5751
1069.8	5702
1072.135	5786
1074.467	5733
1076.798	5848
1079.129	5786
1081.459	5774
1083.792	5710
1086.121	5711
1088.449	5663
1090.777	5635
1093.104	5698
1095.431	5762
1097.759	5655
1100.084	5654
1102.408	5737
1104.732	5666
1107.056	5755
1109.379	5675
1111.701	5699
1114.022	5756
1116.343	5766
1118.664	5777
1120.983	5670
1123.303	5667
1125.621	5780
1127.939	5828
1130.256	5726
1132.573	5710
1134.889	5743
1137.205	5698
1139.52	5732
1141.832	5711
1144.146	5719
1146.461	5762
1148.771	5803
1151.083	5708
1153.392	5646
1155.703	5757
1158.011	5736
1160.323	5800
1162.629	5814
1164.938	5662
1167.243	5768
1169.55	5667
1171.857	5760
1174.163	5732
1176.466	5649
1178.769	5766
1181.073	5718
1183.374	5721
1185.677	5721
1187.979	5702
1190.279	5756
1192.578	5663
1194.878	5672
1197.178	5592
1199.476	5797
1201.772	5772
1204.068	5708
1206.366	5724
1208.663	5665
1210.957	5711
1213.251	5715
1215.544	5749
1217.836	5697
1220.128	5759
1222.421	5762
1224.712	5807
1227.002	5850
1229.292	5794
1231.581	5847
1233.871	5889
1236.159	5898
1238.446	5982
1240.732	5903
1243.018	6027
1245.304	6045
1247.59	6025
1249.874	5978
1252.156	6010
1254.439	5928
1256.721	6011
1259.005	5956
1261.286	5875
1263.565	5992
1265.845	5974
1268.125	5956
1270.403	5998
1272.682	5958
1274.959	6020
1277.234	5950
1279.511	5885
1281.787	6065
1284.062	5868
1286.337	5935
1288.609	5937
1290.882	5857
1293.153	5789
1295.428	5817
1297.698	5824
1299.969	5887
1302.237	5884
1304.507	5804
1306.777	5827
1309.044	5747
1311.312	5803
1313.578	5860
1315.844	5897
1318.109	5861
1320.375	5913
1322.638	5930
1324.903	5846
1327.165	5948
1329.427	5757
1331.69	5906
1333.952	5822
1336.212	5847
1338.471	5864
1340.73	5922
1342.988	5798
1345.248	5922
1347.505	5899
1349.763	5998
1352.019	5870
1354.274	5773
1356.53	5872
1358.784	5935
1361.038	5839
1363.291	5738
1365.543	5837
1367.797	5848
1370.048	5714
1372.296	6013
1374.546	5896
1376.796	5887
1379.045	5841
1381.295	5866
1383.542	5918
1385.787	5949
1388.034	5962
1390.28	5914
1392.527	5912
1394.772	6083
1397.014	5973
1399.258	5914
1401.501	5926
1403.741	5988
1405.985	5939
1408.226	5923
1410.465	5998
1412.705	5976
1414.943	6085
1417.184	6040
1419.42	6037
1421.658	6070
1423.894	6006
1426.13	6029
1428.366	6141
1430.602	6101
1432.835	6055
1435.069	6025
1437.301	6027
1439.535	6094
1441.767	6204
1443.997	6250
1446.229	6230
1448.458	6217
1450.687	6119
1452.916	6229
1455.146	6259
1457.372	6064
1459.599	6183
1461.824	6132
1464.051	6257
1466.277	6218
1468.501	6108
1470.725	6142
1472.948	6144
1475.17	6001
1477.393	6046
1479.614	5984
1481.837	5906
1484.057	6019
1486.276	5927
1488.497	6026
1490.715	5824
1492.932	5983
1495.148	5887
1497.364	6013
1499.58	5845
1501.798	5882
1504.012	5767
1506.227	5886
1508.44	5886
1510.653	5787
1512.866	5939
1515.078	5804
1517.289	5911
1519.5	5884
1521.711	5854
1523.92	5928
1526.13	5844
1528.338	5802
1530.544	5792
1532.752	5790
1534.959	5897
1537.165	5820
1539.371	5781
1541.574	5822
1543.779	5841
1545.983	5905
1548.187	5866
1550.39	5896
1552.59	5951
1554.792	5931
1556.991	5891
1559.19	6040
1561.392	5947
1563.59	5848
1565.789	5870
1567.986	5997
1570.182	6034
1572.381	6005
1574.576	6009
1576.771	6030
1578.966	5998
1581.16	5883
1583.354	6054
1585.546	5982
1587.74	6088
1589.931	5969
1592.121	6073
1594.311	5995
1596.502	6116
1598.693	6011
1600.881	6061
1603.069	6042
1605.256	6025
1607.445	6026
1609.631	6042
1611.816	6177
1614.001	6154
1616.186	6072
1618.37	6090
1620.555	6128
1622.737	6114
1624.919	6004
1627.101	6017
1629.282	6094
1631.463	6004
1633.643	6129
1635.822	6151
1638.001	6148
1640.179	6086
1642.359	6178
1644.534	6076
1646.711	6018
1648.887	6074
1651.062	6150
1653.235	6129
1655.412	6161
1657.586	6098
1659.757	6217
1661.93	6204
1664.1	6248
1666.274	6077
1668.445	6186
1670.614	6098
1672.784	6154
1674.951	6360
1677.12	6363
1679.289	6241
1681.457	6142
1683.622	6152
1685.789	6252
1687.953	6104
1690.121	6227
1692.284	6084
1694.447	6192
1696.611	6093
1698.772	6171
1700.935	5998
1703.098	6027
1705.258	6032
1707.417	6050
1709.576	6111
1711.736	5978
1713.896	5943
1716.053	6083
1718.21	5958
1720.366	5944
1722.522	6008
1724.68	5962
1726.835	5917
1728.989	6092
1731.142	6043
1733.295	5988
1735.449	5988
1737.601	5996
1739.753	6015
1741.903	5891
1744.054	6111
1746.203	5993
1748.354	5959
1750.503	5930
1752.651	5954
1754.798	6003
1756.944	6043
1759.092	6104
1761.238	6079
1763.383	5938
1765.528	6015
1767.672	6073
1769.814	5892
1771.959	5919
1774.102	6048
1776.242	5989
1778.384	6009
1780.525	6014
1782.665	6019
1784.805	6070
1786.945	6044
1789.082	5933
1791.22	6073
1793.36	6042
1795.495	6059
1797.632	6047
1799.766	6068
1801.902	5951
1804.035	5918
1806.172	6058
1808.304	6033
1810.436	6024
1812.569	5991
1814.699	6130
1816.833	6159
1818.963	6077
1821.092	6015
1823.222	6085
1825.35	6025
1827.478	6147
1829.608	6077
1831.734	6074
1833.86	5947
1835.986	5999
1838.11	5950
1840.238	5931
1842.362	5988
1844.485	5966
1846.608	6064
1848.73	5998
1850.853	5883
1852.974	5881
1855.097	5921
1857.217	6029
1859.336	6023
1861.455	6029
1863.576	5946
1865.693	5949
1867.811	5948
1869.926	6002
1872.042	5957
1874.16	6034
1876.275	6017
1878.39	5916
1880.504	5976
1882.618	5945
1884.731	5958
1886.843	5892
1888.956	6037
1891.067	5966
1893.178	5976
1895.287	6009
1897.399	5953
1899.508	6093
1901.617	6037
1903.724	5953
1905.832	6116
1907.941	6012
1910.046	6162
1912.152	5977
1914.256	6060
1916.361	5982
1918.464	6164
1920.57	5964
1922.672	6122
1924.775	6094
1926.876	6060
1928.978	6004
1931.08	6164
1933.181	5920
1935.28	6085
1937.38	6029
1939.478	6067
1941.577	6130
1943.675	6091
1945.771	6130
1947.867	5971
1949.964	6012
1952.058	6068
1954.154	6108
1956.248	6115
1958.343	6123
1960.435	6045
1962.527	6020
1964.62	6015
1966.711	6065
1968.802	5937
1970.892	6070
1972.983	6089
1975.072	6026
1977.162	5996
1979.25	6084
1981.337	6098
1983.424	6032
1985.51	5929
1987.598	6020
1989.683	6006
1991.768	5969
1993.852	5991
1995.934	6008
1998.019	6052
2000.102	5946
2002.184	5949
2004.266	5962
2006.347	6009
2008.427	5966
2010.508	5952
2012.587	6055
2014.666	5984
2016.745	5839
2018.821	5982
2020.9	5957
2022.977	6085
2025.052	6013
2027.128	6076
2029.204	5889
2031.277	5941
2033.353	5926
2035.425	5920
2037.499	6011
2039.57	5998
2041.642	5955
2043.714	5944
2045.786	5912
2047.855	6059
2049.925	6088
2051.993	5852
2054.064	5933
2056.132	5923
2058.2	6005
2060.266	6013
2062.332	6010
2064.398	6078
2066.465	5935
2068.529	6051
2070.592	6102
2072.657	6033
2074.719	6047
2076.783	6017
2078.845	5908
2080.907	6032
2082.968	5989
2085.028	5957
2087.087	6068
2089.148	6000
2091.207	6040
2093.264	6099
2095.322	6058
2097.379	6006
2099.439	5944
2101.495	6044
2103.55	6099
2105.605	6068
2107.658	6097
2109.713	6034
2111.767	6028
2113.82	6102
2115.872	5986
2117.924	5880
2119.975	6019
2122.028	5944
2124.078	6043
2126.126	6021
2128.176	6157
2130.225	5997
2132.275	6053
2134.321	6006
2136.368	5981
2138.415	5992
2140.461	5889
2142.505	6098
2144.552	5897
2146.597	5933
2148.64	5910
2150.684	5905
2152.725	5980
2154.77	5887
2156.811	5912
2158.852	5990
2160.894	5972
2162.933	5897
2164.973	5871
2167.013	6066
2169.051	5916
2171.089	5905
2173.126	5874
2175.164	5883
2177.201	5876
2179.236	5963
2181.273	5926
2183.307	5913
2185.341	5916
2187.377	5868
2189.41	5862
2191.442	5844
2193.473	5871
2195.506	5886
2197.539	5840
2199.569	5794
2201.598	5815
2203.628	5834
2205.656	5842
2207.686	5807
2209.716	5930
2211.743	5805
2213.769	5801
2215.796	5794
2217.821	5785
2219.848	5707
2221.873	5922
2223.897	5774
2225.921	5840
2227.944	5878
2229.967	5759
2231.991	5912
2234.011	5778
2236.032	5742
2238.053	5751
2240.073	5782
2242.094	5784
2244.114	5782
2246.131	5805
2248.149	5776
2250.167	5772
2252.186	5790
2254.201	5849
2256.218	5826
2258.233	5808
2260.247	5797
2262.262	5884
2264.278	5950
2266.29	5741
2268.303	5840
2270.315	5718
2272.327	5885
2274.341	5828
2276.35	5824
2278.361	5835
2280.37	5829
2282.38	5800
2284.388	5706
2286.397	5780
2288.405	5786
2290.412	5719
2292.419	5837
2294.425	5760
2296.431	5855
2298.437	5839
2300.441	5710
2302.445	5869
2304.449	5748
2306.453	5846
2308.455	5737
2310.457	5759
2312.459	5830
2314.46	5763
2316.46	5897
2318.461	5903
2320.46	5785
2322.458	5791
2324.458	5847
2326.456	5725
2328.455	5759
2330.451	5650
2332.447	5785
2334.443	5759
2336.438	5710
2338.433	5621
2340.429	5797
2342.422	5756
2344.416	5738
2346.408	5720
2348.399	5578
2350.393	5773
2352.384	5767
2354.375	5689
2356.365	5627
2358.355	5772
2360.344	5536
2362.333	5623
2364.322	5595
2366.309	5753
2368.295	5609
2370.282	5715
2372.27	5648
2374.256	5658
2376.24	5648
2378.225	5682
2380.208	5704
2382.194	5634
2384.177	5709
2386.159	5582
2388.142	5611
2390.122	5731
2392.105	5834
2394.085	5598
2396.066	5625
2398.044	5589
2400.024	5598
2402.002	5556
2403.982	5655
2405.959	5542
2407.935	5652
2409.913	5617
2411.888	5565
2413.865	5673
2415.84	5601
2417.814	5543
2419.788	5581
2421.762	5611
2423.735	5548
2425.708	5568
2427.68	5528
2429.651	5668
2431.623	5749
2433.593	5574
2435.564	5553
2437.533	5590
2439.502	5626
2441.47	5509
2443.438	5580
2445.406	5732
2447.373	5565
2449.34	5580
2451.305	5507
2453.271	5460
2455.235	5527
2457.201	5575
2459.165	5494
2461.129	5539
2463.092	5522
2465.054	5624
2467.018	5598
2468.978	5611
2470.939	5559
2472.899	5539
2474.86	5507
2476.819	5477
2478.778	5472
2480.737	5570
2482.695	5489
2484.653	5557
2486.609	5466
2488.567	5554
2490.524	5502
2492.478	5585
2494.433	5613
2496.387	5574
2498.343	5418
2500.297	5482
2502.249	5549
2504.202	5510
2506.153	5613
2508.105	5492
2510.057	5499
2512.008	5497
2513.957	5494
2515.906	5480
2517.855	5410
2519.805	5474
2521.754	5505
2523.7	5428
2525.647	5486
2527.594	5458
2529.54	5349
2531.486	5366
2533.431	5451
2535.376	5476
2537.32	5515
2539.263	5484
2541.207	5504
2543.151	5431
2545.093	5351
2547.034	5432
2548.975	5401
2550.917	5457
2552.856	5477
2554.796	5441
2556.735	5447
2558.673	5574
2560.611	5415
2562.55	5475
2564.487	5448
2566.424	5583
2568.36	5446
2570.296	5447
2572.232	5539
2574.167	5458
2576.101	5377
2578.035	5381
2579.969	5375
2581.902	5384
2583.834	5474
2585.766	5438
2587.698	5336
2589.628	5426
2591.557	5529
2593.489	5418
2595.419	5564
2597.348	5401
2599.275	5467
2601.204	5317
2603.131	5411
2605.059	5488
2606.986	5515
2608.911	5439
2610.837	5431
2612.76	5382
2614.687	5414
2616.61	5400
2618.534	5427
2620.457	5471
2622.38	5492
2624.302	5510
2626.225	5420
2628.145	5446
2630.067	5444
2631.986	5502
2633.906	5493
2635.827	5376
2637.745	5491
2639.662	5427
2641.581	5470
2643.498	5460
2645.415	5431
2647.331	5378
2649.248	5392
2651.163	5478
2653.077	5443
2654.993	5527
2656.906	5334
2658.821	5422
2660.733	5446
2662.646	5443
2664.557	5492
2666.47	5494
2668.381	5451
2670.291	5397
2672.201	5382
2674.11	5394
2676.021	5393
2677.929	5367
2679.837	5385
2681.745	5398
2683.652	5355
2685.56	5389
2687.466	5471
2689.371	5340
2691.276	5462
2693.181	5283
2695.085	5373
2696.991	5360
2698.893	5344
2700.796	5339
2702.698	5328
2704.601	5406
2706.502	5343
2708.404	5382
2710.304	5348
2712.203	5424
2714.103	5422
2716.003	5331
2717.902	5355
2719.8	5281
2721.697	5389
2723.594	5395
2725.49	5351
2727.389	5330
2729.283	5287
2731.179	5448
2733.073	5279
2734.968	5287
2736.863	5415
2738.757	5364
2740.649	5246
2742.541	5196
2744.433	5448
2746.324	5339
2748.216	5289
2750.107	5270
2751.997	5469
2753.886	5387
2755.776	5390
2757.666	5263
2759.553	5267
2761.44	5374
2763.327	5216
2765.215	5270
2767.102	5217
2768.988	5242
2770.873	5247
2772.757	5262
2774.641	5276
2776.525	5347
2778.41	5285
2780.292	5226
2782.175	5320
2784.057	5352
2785.938	5257
2787.821	5193
2789.701	5314
2791.581	5281
2793.461	5277
2795.34	5219
2797.219	5245
2799.099	5304
2800.975	5261
2802.853	5150
2804.73	5170
2806.606	5204
2808.484	5169
2810.358	5196
2812.233	5235
2814.108	5329
2815.981	5223
2817.857	5142
2819.73	5211
2821.602	5238
2823.474	5088
2825.346	5221
2827.217	5250
2829.089	5186
2830.959	5237
2832.829	5238
2834.698	5225
2836.567	5226
2838.436	5234
2840.305	5211
2842.172	5191
2844.04	5173
2845.905	5179
2847.772	5361
2849.639	5325
2851.503	5207
2853.369	5341
2855.232	5306
2857.096	5257
2858.961	5261
2860.824	5338
2862.686	5241
2864.547	5301
2866.41	5375
2868.272	5463
2870.132	5466
2871.992	5595
2873.851	5453
2875.711	5639
2877.57	5717
2879.429	5592
2881.287	5672
2883.144	5709
2885.001	5670
2886.857	5742
2888.714	5682
2890.57	5582
2892.425	5631
2894.279	5763
2896.133	5580
2897.987	5673
2899.842	5629
2901.694	5613
2903.547	5814
2905.397	5524
2907.249	5742
2909.101	5615
2910.952	5689
2912.802	5697
2914.652	5757
2916.5	5781
2918.35	5869
2920.198	5875
2922.045	5823
2923.893	5989
2925.74	6077
2927.585	6160
2929.433	6140
2931.279	6224
2933.123	6143
2934.968	6277
2936.811	6357
2938.656	6308
2940.5	6394
2942.342	6465
2944.185	6463
2946.026	6341
2947.87	6523
2949.71	6399
2951.549	6323
2953.39	6342
2955.229	6298
2957.069	6084
2958.908	6012
2960.746	6137
2962.584	5906
2964.421	5945
2966.257	5909
2968.094	5917
2969.931	5739
2971.766	5813
2973.601	5817
2975.435	5816
2977.27	5749
2979.105	5650
2980.938	5777
2982.77	5763
2984.602	5736
2986.434	5752
2988.267	5581
2990.097	5647
2991.927	5689
2993.757	5476
2995.587	5563
2997.417	5497
2999.246	5391
3001.074	5388
3002.902	5372
3004.729	5272
3006.556	5193
3008.384	5264
3010.21	5221
3012.036	5142
3013.861	5162
3015.684	5247
3017.51	5027
3019.334	5098
3021.157	5058
3022.981	5007
3024.802	4979
3026.624	4949
3028.448	5024
3030.267	5021
3032.088	4887
3033.909	4874
3035.728	4983
3037.549	4910
3039.368	4911
3041.186	4933
3043.004	4943
3044.821	4944
3046.64	4791
3048.455	4953
3050.272	4869
3052.087	4844
3053.903	4909
3055.717	4818
3057.534	4832
3059.347	4835
3061.16	4881
3062.974	4921
3064.785	4770
3066.598	4871
3068.411	4945
3070.222	4947
3072.032	4768
3073.844	4852
3075.653	4870
3077.463	4810
3079.272	4806
3081.08	4800
3082.889	4741
3084.697	4757
3086.505	4863
3088.312	4710
3090.118	4866
3091.924	4696
3093.729	4754
3095.535	4699
3097.34	4748
3099.144	4753
3100.947	4685
3102.75	4620
3104.553	4814
3106.357	4654
3108.159	4698
3109.961	4677
3111.762	4686
3113.562	4727
3115.365	4587
3117.164	4696
3118.964	4606
3120.761	4683
3122.56	4668
3124.36	4747
3126.158	4659
3127.954	4682
3129.75	4620
3131.547	4698
3133.343	4629
3135.139	4716
3136.934	4640
3138.729	4551
3140.522	4456
3142.317	4640
3144.11	4520
3145.904	4552
3147.695	4696
3149.488	4680
3151.28	4600
3153.07	4592
3154.863	4572
3156.652	4525
3158.441	4698
3160.231	4604
3162.019	4638
3163.81	4631
3165.597	4529
3167.384	4574
3169.172	4574
3170.958	4552
3172.745	4600
3174.532	4516
3176.317	4576
3178.101	4612
3179.885	4554
3181.67	4596
3183.455	4554
3185.238	4610
3187.02	4507
3188.802	4484
3190.585	4580
3192.368	4494
3194.149	4560
3195.929	4514
3197.709	4508
3199.489	4543
3201.268	4510
3203.048	4497
3204.826	4506
3206.604	4565
3208.382	4513
3210.159	4497
3211.937	4544
3213.713	4559
3215.489	4506
3217.263	4510
3219.038	4591
3220.815	4551
3222.589	4516
3224.363	4455
3226.136	4471
3227.908	4450
3229.681	4478
3231.454	4486
3233.226	4512
3234.996	4447
3236.767	4501
3238.538	4500
3240.308	4488
3242.078	4482
3243.847	4372
3245.615	4509
3247.384	4384
3249.15	4540
3250.92	4455
3252.686	4529
3254.453	4576
3256.218	4458
3257.984	4529
3259.75	4515
3261.515	4574
3263.279	4503
3265.044	4566
3266.806	4503
3268.57	4409
3270.334	4494
3272.095	4431
3273.856	4527
3275.619	4420
3277.379	4451
3279.14	4564
3280.9	4443
3282.661	4431
3284.419	4532
3286.178	4487
3287.937	4457
3289.695	4383
3291.453	4488
3293.21	4505
3294.967	4505
3296.723	4514
3298.48	4598
3300.235	4461
3301.99	4541
3303.744	4439
3305.498	4496
3307.253	4463
3309.006	4551
3310.759	4492
3312.511	4491
3314.263	4482
3316.017	4449
3317.768	4553
3319.519	4394
3321.268	4490
3323.018	4482
3324.767	4482
3326.518	4408
3328.267	4451
3330.014	4468
3331.762	4490
3333.509	4473
3335.258	4477
3337.003	4470
3338.75	4519
3340.496	4482
3342.24	4491
3343.987	4439
3345.732	4387
3347.475	4399
3349.219	4406
3350.961	4454
3352.705	4354
3354.448	4446
3356.19	4399
3357.931	4323
3359.672	4393
3361.412	4266
3363.155	4345
3364.894	4442
3366.633	4398
3368.372	4296
3370.11	4370
3371.849	4429
3373.588	4313
3375.325	4324
3377.061	4321
3378.799	4298
3380.534	4321
3382.271	4353
3384.006	4293
3385.741	4347
3387.475	4355
3389.209	4402
3390.944	4307
3392.677	4291
3394.409	4301
3396.143	4313
3397.874	4238
3399.606	4300
3401.338	4263
3403.069	4255
3404.799	4282
3406.528	4272
3408.258	4330
3409.988	4310
3411.717	4198
3413.445	4250
3415.173	4381
3416.899	4270
3418.626	4254
3420.354	4236
3422.08	4241
3423.806	4176
3425.531	4232
3427.255	4285
3428.981	4268
3430.705	4289
3432.429	4252
3434.151	4219
3435.875	4209
3437.599	4165
3439.321	4237
3441.042	4200
3442.763	4185
3444.483	4166
3446.204	4237
3447.926	4211
3449.645	4159
3451.364	4137
3453.082	4115
3454.801	4146
3456.52	4141
3458.238	4128
3459.954	4166
3461.671	4116
3463.387	4132
3465.104	4170
3466.82	4106
3468.534	4097
3470.25	4083
3471.963	4113
3473.676	4115
3475.392	4067
3477.104	4094
3478.817	4029
3480.528	4105
3482.241	4054
3483.954	4061
3485.664	4056
3487.374	4030
3489.084	4043
3490.795	4043
3492.504	4051
3494.214	4048
3495.922	4002
3497.63	4013
3499.338	4018
3501.045	3911
3502.753	3992
3504.459	3996
3506.166	3947
3507.871	3940
3509.576	4034
3511.283	4000
3512.987	3995
3514.691	3950
3516.395	4004
3518.098	4008
3519.8	3923
3521.504	3984
3523.206	3964
3524.908	3998
3526.609	3905
3528.309	3978
3530.011	3887
3531.711	3920
3533.411	3914
3535.109	3894
3536.808	3879
3538.507	3993
3540.206	3979
3541.904	3857
3543.601	3893
3545.297	3934
3546.994	3899
3548.69	3909
3550.387	3887
3552.081	3854
3553.776	3792
3555.47	3835
3557.166	3852
3558.859	3841
3560.553	3898
3562.245	3841
3563.938	3871
3565.629	3897
3567.322	3881
3569.014	3830
3570.704	3824
3572.394	3804
3574.084	3874
3575.775	3841
3577.464	3778
3579.152	3811
3580.842	3807
3582.529	3822
3584.216	3754
3585.905	3846
3587.591	3700
3589.279	3775
3590.964	3759
3592.649	3775
3594.336	3724
3596.021	3719
3597.705	3745
3599.388	3718
3601.072	3762
3602.757	3751
3604.439	3769
3606.122	3706
3607.803	3691
3609.485	3667
3611.167	3753
3612.849	3724
3614.529	3630
3616.208	3695
3617.888	3666
3619.567	3701
3621.247	3610
3622.926	3700
3624.603	3716
3626.281	3702
3627.958	3539
3629.635	3692
3631.312	3648
3632.989	3600
3634.665	3594
3636.339	3603
3638.014	3703
3639.691	3622
3641.364	3569
3643.038	3613
3644.71	3603
3646.384	3686
3648.058	3641
3649.729	3603
3651.402	3558
3653.073	3624
3654.744	3539
3656.414	3572
3658.085	3547
3659.755	3655
3661.424	3539
3663.094	3499
3664.762	3556
3666.431	3659
3668.099	3503
3669.766	3521
3671.433	3580
3673.099	3585
3674.768	3527
3676.433	3484
3678.098	3551
3679.763	3485
3681.428	3561
3683.093	3532
3684.757	3548
3686.421	3539
3688.083	3440
3689.746	3500
3691.408	3531
3693.071	3505
3694.733	3472
3696.394	3469
3698.054	3562
3699.715	3448
3701.375	3491
3703.036	3532
3704.695	3562
3706.354	3424
3708.012	3518
3709.67	3430
3711.329	3407
3712.987	3512
3714.644	3455
3716.299	3460
3717.955	3450
3719.613	3425
3721.268	3441
3722.923	3367
3724.577	3492
3726.231	3416
3727.885	3448
3729.539	3409
3731.192	3427
3732.845	3417
3734.497	3382
3736.149	3424
3737.802	3484
3739.453	3467
3741.104	3478
3742.753	3420
3744.404	3335
3746.052	3398
3747.704	3397
3749.352	3378
3751	3383
3752.648	3358
3754.296	3401
3755.944	3339
3757.59	3365
3759.238	3328
3760.883	3397
3762.528	3325
3764.176	3357
3765.82	3343
3767.464	3300
3769.109	3412
3770.753	3320
3772.396	3335
3774.04	3291
3775.683	3269
3777.325	3396
3778.967	3329
3780.608	3324
3782.25	3376
3783.89	3325
3785.531	3308
3787.17	3286
3788.81	3340
3790.45	3312
3792.09	3316
3793.729	3290
3795.366	3261
3797.003	3280
3798.64	3267
3800.278	3216
3801.915	3276
3803.551	3320
3805.187	3289
3806.822	3306
3808.458	3257
3810.093	3172
3811.726	3262
3813.36	3245
3814.994	3345
3816.627	3219
3818.262	3313
3819.893	3250
3821.525	3219
3823.157	3235
3824.787	3188
3826.42	3231
3828.051	3267
3829.68	3269
3831.31	3226
3832.938	3167
3834.569	3303
3836.198	3240
3837.825	3218
3839.454	3254
3841.08	3214
3842.708	3218
3844.335	3219
3845.962	3194
3847.587	3154
3849.212	3135
3850.838	3156
3852.463	3185
3854.089	3146
3855.712	3178
3857.335	3143
3858.959	3143
3860.582	3265
3862.205	3133
3863.827	3159
3865.449	3073
3867.07	3133
3868.691	3161
3870.312	3138
3871.933	3138
3873.553	3111
3875.173	3169
3876.792	3212
3878.411	3156
3880.03	3100
3881.647	3069
3883.265	3109
3884.882	3195
3886.499	3048
3888.116	3176
3889.732	3123
3891.348	3093
3892.964	3140
3894.579	3143
3896.195	3174
3897.809	3149
3899.423	3132
3901.036	3090
3902.648	3152
3904.261	3100
3905.875	3110
3907.487	3103
3909.099	3119
3910.709	3034
3912.321	3095
3913.933	3073
3915.542	3127
3917.152	3103
3918.762	3141
3920.37	3113
3921.98	3086
3923.589	3081
3925.196	3085
3926.804	3029
3928.41	3065
3930.018	3111
3931.626	2960
3933.231	3095
3934.838	3115
3936.442	3020
3938.046	3018
3939.653	3049
3941.257	3065
3942.861	3068
3944.464	3091
3946.068	3116
3947.67	3106
3949.273	3070
3950.876	3029
3952.477	3042
3954.078	3045
3955.678	3015
3957.281	3079
3958.881	3010
3960.48	2997
3962.079	3083
3963.678	3014
3965.279	3043
3966.877	3083
3968.475	3048
3970.072	3031
3971.669	3032
3973.266	2963
3974.864	2991
3976.459	2896
3978.055	3013
3979.65	3008
3981.245	3046
3982.841	3017
3984.436	3032
3986.03	2926
3987.623	3002
3989.216	2957
3990.809	2970
3992.403	2958
3993.995	3005
3995.586	3012
3997.177	2902
3998.768	2943
4000.361	2864
4001.951	2943
4003.54	2947
4005.13	2891
4006.719	2917
4008.31	2869
4009.897	2953
4011.485	2836
4013.073	2860
4014.66	2904
4016.247	2897
4017.834	2850
4019.421	2784
4021.006	2920
4022.592	2933
4024.178	2904
4025.763	2871
4027.348	2911
4028.932	2904
4030.515	2820
4032.099	2852
4033.682	2816
4035.266	2915
4036.847	2856
4038.429	2822
4040.011	2888
4041.592	2867
4043.173	2762
4044.755	2857
4046.334	2848
4047.913	2815
4049.494	2852
4051.074	2852
4052.652	2790
4054.23	2865
4055.807	2906
4057.385	2744
4058.963	2810
4060.541	2839
4062.117	2779
4063.693	2887
4065.269	2870
4066.844	2801
4068.42	2743
4069.995	2833
4071.569	2798
4073.143	2752
4074.716	2809
4076.291	2771
4077.864	2733
4079.436	2842
4081.009	2749
4082.58	2787
4084.152	2733
4085.723	2712
4087.294	2828
4088.865	2758
4090.435	2791
4092.005	2737
4093.574	2721
4095.143	2728
4096.712	2711
4098.279	2740
4099.848	2690
4101.416	2728
4102.984	2751
4104.55	2745
4106.117	2790
4107.682	2721
4109.248	2712
4110.815	2764
4112.379	2665
4113.945	2708
4115.508	2732
4117.073	2761
4118.637	2703
4120.201	2704
4121.763	2705
4123.325	2671
4124.888	2631
4126.449	2717
4128.013	2682
4129.573	2756
4131.133	2695
4132.694	2738
4134.254	2696
4135.814	2728
4137.374	2689
4138.933	2655
4140.491	2623
4142.049	2681
4143.607	2655
4145.167	2647
4146.724	2677
4148.28	2660
4149.836	2655
4151.392	2664
4152.949	2606
4154.504	2643
4156.059	2585
4157.614	2633
4159.168	2595
4160.723	2593
4162.277	2553
4163.83	2590
4165.383	2628
4166.936	2674
4168.488	2529
4170.041	2639
4171.593	2589
4173.144	2613
4174.695	2597
4176.246	2604
4177.796	2606
4179.346	2606
4180.896	2577
4182.445	2548
4183.994	2638
4185.542	2589
4187.091	2629
4188.639	2565
4190.185	2621
4191.732	2609
4193.279	2515
4194.826	2522
4196.373	2589
4197.918	2616
4199.463	2525
4201.008	2587
4202.553	2528
4204.098	2515
4205.641	2526
4207.185	2450
4208.728	2503
4210.271	2544
4211.814	2550
4213.357	2564
4214.898	2527
4216.439	2530
4217.98	2518
4219.522	2553
4221.062	2485
4222.603	2548
4224.142	2536
4225.681	2523
4227.222	2565
4228.76	2505
4230.298	2524
4231.835	2506
4233.373	2504
4234.911	2511
4236.449	2551
4237.985	2453
4239.521	2513
4241.057	2475
4242.592	2509
4244.128	2515
4245.663	2498
4247.197	2519
4248.731	2509
4250.265	2452
4251.798	2473
4253.333	2477
4254.865	2434
4256.397	2448
4257.93	2469
4259.461	2463
4260.994	2445
4262.525	2445
4264.056	2475
4265.586	2462
4267.115	2454
4268.646	2487
4270.176	2435
4271.705	2488
4273.232	2446
4274.761	2405
4276.289	2484
4277.818	2470
4279.345	2461
4280.872	2404
4282.399	2413
4283.924	2446
4285.452	2409
4286.976	2450
4288.502	2453
4290.026	2398
4291.551	2453
4293.074	2381
4294.6	2438
4296.123	2383
4297.646	2415
4299.168	2449
4300.691	2407
4302.214	2362
4303.736	2414
4305.257	2431
4306.778	2381
4308.299	2369
4309.82	2399
4311.34	2386
4312.86	2371
4314.379	2377
