400.0745	5511
402.597	5524
405.1208	5545
407.6419	5461
410.1623	5554
412.6819	5531
415.201	5627
417.7172	5695
420.2369	5762
422.7538	5703
425.2701	5789
427.7856	5810
430.3005	5942
432.8147	5992
435.3282	5967
437.841	5937
440.3511	5908
442.8625	5939
445.3753	5888
447.8854	5911
450.3927	6013
452.9014	5980
455.4073	5939
457.9146	5915
460.4233	5958
462.9272	6093
465.4325	5944
467.935	5999
470.4389	6006
472.9421	5895
475.4446	5998
477.9444	6040
480.4456	6001
482.944	6105
485.4417	5973
487.9429	6092
490.4393	6116
492.935	6043
495.4321	6131
497.9264	6070
500.4221	6102
502.9171	6144
505.4094	6074
507.9011	6135
510.392	6148
512.8864	6190
515.3759	6197
517.8649	6093
520.3531	6229
522.8406	6185
525.3275	6175
527.8178	6266
530.3033	6196
532.7881	6137
535.2723	6284
537.7558	6210
540.2407	6241
542.7228	6329
545.2043	6234
547.6851	6229
550.1652	6211
552.6467	6206
555.1255	6290
557.6016	6285
560.079	6337
562.5557	6313
565.0318	6318
567.5092	6343
569.984	6369
572.456	6431
574.9294	6415
577.4022	6423
579.8762	6447
582.3456	6535
584.8163	6544
587.2863	6463
589.7557	6469
592.2224	6575
594.6924	6533
597.1578	6714
599.6245	6571
602.0905	6514
604.5538	6547
607.0206	6480
609.4825	6436
611.9459	6550
614.4066	6543
616.8686	6528
619.33	6545
621.7906	6327
624.2487	6417
626.708	6430
629.1647	6560
631.6207	6345
634.0801	6518
636.5348	6562
638.9888	6474
641.4442	6601
643.8969	6539
646.3509	6595
648.8022	6454
651.255	6492
653.705	6516
656.1544	6555
658.6031	6497
661.0532	6664
663.5026	6661
665.9493	6520
668.3954	6608
670.8409	6578
673.2877	6713
675.7318	6544
678.1752	6651
680.618	6653
683.0601	6607
685.5035	6597
687.9444	6667
690.3845	6706
692.824	6784
695.2628	6708
697.701	6836
700.1406	6773
702.5774	6611
705.0116	6761
707.4472	6798
709.8821	6829
712.3183	6880
714.7519	6799
717.1829	6842
719.6151	6735
722.0468	6833
724.4777	6907
726.908	6965
729.3377	6935
731.7667	6918
734.1931	6977
736.6208	6996
739.0498	6915
741.4742	6991
743.9	6905
746.3231	7049
748.7476	7070
751.1713	7136
753.5945	7088
756.015	7211
758.4368	7062
760.856	7071
763.2766	7108
765.6965	7230
768.1157	7234
770.5323	7184
772.9483	7294
775.3656	7168
777.7822	7094
780.1963	7184
782.6116	7116
785.0244	7183
787.4365	7309
789.8499	7333
792.2626	7159
794.6728	7306
797.0823	7207
799.4911	7121
801.8994	7266
804.3109	7257
806.7178	7310
809.124	7219
811.5297	7152
813.9347	7325
816.341	7276
818.7447	7180
821.1478	7275
823.5502	7313
825.952	7328
828.3531	7258
830.7556	7244
833.1554	7264
835.5546	7428
837.9532	7366
840.3511	7360
842.7504	7536
845.1451	7378
847.5411	7403
849.9365	7365
852.3312	7339
854.7272	7460
857.1187	7387
859.5115	7449
861.9037	7467
864.2952	7455
866.6842	7430
869.0764	7499
871.4661	7360
873.8531	7437
876.2415	7544
878.6272	7424
881.0162	7530
883.4026	7401
885.7866	7489
888.1717	7362
890.5543	7449
892.9382	7427
895.3215	7439
897.7041	7521
900.0842	7404
902.4655	7447
904.8443	7327
907.2244	7437
909.6039	7389
911.9808	7411
914.357	7551
916.7346	7549
919.1115	7648
921.4859	7585
923.8616	7529
926.2347	7629
928.6071	7571
930.979	7620
933.3541	7796
935.7247	7813
938.0946	7787
940.4639	7860
942.8326	8037
945.2026	8037
947.5701	8141
949.9369	8452
952.305	8688
954.6705	8970
957.0355	9277
959.4017	9642
961.7654	9703
964.1284	9505
966.4908	9170
968.8527	8840
971.2138	8619
973.5743	8264
975.9343	8082
978.2936	7935
980.6522	7834
983.0122	7681
985.3696	7804
987.7245	7758
990.0807	7509
992.4362	7707
994.7911	7640
997.1474	7825
999.4991	7761
1001.852	7731
1004.205	7883
1006.555	7667
1008.908	7723
1011.258	7759
1013.606	7775
1015.956	7758
1018.302	7847
1020.652	7688
1022.998	7804
1025.345	7859
1027.691	7920
1030.035	7784
1032.378	7927
1034.724	7758
1037.066	7962
1039.409	7730
1041.75	7793
1044.092	8007
1046.433	7944
1048.771	7919
1051.112	7838
1053.449	7944
1055.786	7908
1058.124	7839
1060.462	8039
1062.797	7923
1065.131	8129
1067.467	8077
1069.8	8017
1072.135	7933
1074.467	7943
1076.798	8187
1079.129	7959
1081.459	7990
1083.792	8012
1086.121	8065
1088.449	7891
1090.777	7960
1093.104	7908
1095.431	8062
1097.759	7856
1100.084	7878
1102.408	7859
1104.732	7792
1107.056	7971
1109.379	7919
1111.701	7893
1114.022	7690
1116.343	7903
1118.664	7887
1120.983	7889
1123.303	7838
1125.621	7804
1127.939	7867
1130.256	7821
1132.573	7840
1134.889	7952
1137.205	7980
1139.52	7896
1141.832	7858
1144.146	7943
1146.461	7876
1148.771	7923
1151.083	7845
1153.392	7841
1155.703	7909
1158.011	7872
1160.323	7904
1162.629	7968
1164.938	7907
1167.243	7869
1169.55	7850
1171.857	7755
1174.163	7709
1176.466	7903
1178.769	7811
1181.073	8013
1183.374	7823
1185.677	7887
1187.979	7994
1190.279	7955
1192.578	7895
1194.878	7815
1197.178	8073
1199.476	7850
1201.772	7804
1204.068	7861
1206.366	7882
1208.663	8059
1210.957	7912
1213.251	7931
1215.544	7863
1217.836	7840
1220.128	7864
1222.421	7879
1224.712	7927
1227.002	8053
1229.292	7952
1231.581	8148
1233.871	8044
1236.159	8252
1238.446	8162
1240.732	8186
1243.018	8216
1245.304	8045
1247.59	8139
1249.874	8169
1252.156	8066
1254.439	8278
1256.721	8196
1259.005	8129
1261.286	8227
1263.565	8254
1265.845	8116
1268.125	8209
1270.403	8078
1272.682	8145
1274.959	8239
1277.234	8161
1279.511	8208
1281.787	8063
1284.062	8215
1286.337	8141
1288.609	8217
1290.882	8013
1293.153	7963
1295.428	7953
1297.698	7966
1299.969	8060
1302.237	8053
1304.507	7903
1306.777	8114
1309.044	7929
1311.312	8051
1313.578	8112
1315.844	7989
1318.109	7952
1320.375	8089
1322.638	7969
1324.903	8014
1327.165	8076
1329.427	8126
1331.69	8014
1333.952	8052
1336.212	8029
1338.471	7993
1340.73	8022
1342.988	7956
1345.248	8025
1347.505	8010
1349.763	7966
1352.019	8272
1354.274	8033
1356.53	8055
1358.784	8009
1361.038	8047
1363.291	8003
1365.543	8026
1367.797	8047
1370.048	8015
1372.296	8103
1374.546	8008
1376.796	8119
1379.045	8069
1381.295	8081
1383.542	8085
1385.787	8271
1388.034	8142
1390.28	8107
1392.527	8063
1394.772	8123
1397.014	8082
1399.258	8089
1401.501	8118
1403.741	8042
1405.985	8103
1408.226	8362
1410.465	8077
1412.705	8280
1414.943	8214
1417.184	8322
1419.42	8226
1421.658	8199
1423.894	8257
1426.13	8183
1428.366	8264
1430.602	8119
1432.835	8221
1435.069	8207
1437.301	8269
1439.535	8317
1441.767	8320
1443.997	8375
1446.229	8327
1448.458	8398
1450.687	8388
1452.916	8383
1455.146	8323
1457.372	8368
1459.599	8467
1461.824	8293
1464.051	8385
1466.277	8250
1468.501	8284
1470.725	8380
1472.948	8291
1475.17	8162
1477.393	8199
1479.614	8261
1481.837	8168
1484.057	8132
1486.276	8043
1488.497	8126
1490.715	8031
1492.932	8012
1495.148	8014
1497.364	8102
1499.58	8112
1501.798	8040
1504.012	8029
1506.227	7966
1508.44	7955
1510.653	8012
1512.866	7994
1515.078	8010
1517.289	7991
1519.5	8036
1521.711	7817
1523.92	8012
1526.13	8061
1528.338	7963
1530.544	8047
1532.752	7866
1534.959	7992
1537.165	8020
1539.371	7921
1541.574	7981
1543.779	8039
1545.983	8144
1548.187	8012
1550.39	8093
1552.59	8135
1554.792	8156
1556.991	8066
1559.19	8145
1561.392	8110
1563.59	8173
1565.789	8165
1567.986	8209
1570.182	8167
1572.381	8014
1574.576	8221
1576.771	8092
1578.966	8141
1581.16	8304
1583.354	8217
1585.546	8222
1587.74	8381
1589.931	8247
1592.121	8268
1594.311	8206
1596.502	8241
1598.693	8243
1600.881	8225
1603.069	8225
1605.256	8310
1607.445	8260
1609.631	8318
1611.816	8258
1614.001	8338
1616.186	8323
1618.37	8416
1620.555	8157
1622.737	8430
1624.919	8289
1627.101	8288
1629.282	8287
1631.463	8279
1633.643	8315
1635.822	8281
1638.001	8322
1640.179	8323
1642.359	8406
1644.534	8389
1646.711	8374
1648.887	8391
1651.062	8371
1653.235	8270
1655.412	8309
1657.586	8402
1659.757	8393
1661.93	8447
1664.1	8448
1666.274	8337
1668.445	8345
1670.614	8443
1672.784	8568
1674.951	8292
1677.12	8358
1679.289	8429
1681.457	8365
1683.622	8362
1685.789	8446
1687.953	8351
1690.121	8226
1692.284	8343
1694.447	8432
1696.611	8328
1698.772	8253
1700.935	8389
1703.098	8150
1705.258	8220
1707.417	8202
1709.576	8241
1711.736	8243
1713.896	8239
1716.053	8223
1718.21	8180
1720.366	8212
1722.522	8236
1724.68	8227
1726.835	8208
1728.989	8101
1731.142	8184
1733.295	8118
1735.449	8260
1737.601	8253
1739.753	8271
1741.903	8188
1744.054	8235
1746.203	8190
1748.354	8171
1750.503	8191
1752.651	8044
1754.798	8253
1756.944	8233
1759.092	8083
1761.238	8189
1763.383	8224
1765.528	8223
1767.672	8143
1769.814	8315
1771.959	8279
1774.102	8199
1776.242	8198
1778.384	8184
1780.525	8381
1782.665	8189
1784.805	8246
1786.945	8248
1789.082	8278
1791.22	8336
1793.36	8184
1795.495	8305
1797.632	8300
1799.766	8156
1801.902	8262
1804.035	8364
1806.172	8186
1808.304	8268
1810.436	8290
1812.569	8216
1814.699	8259
1816.833	8289
1818.963	8214
1821.092	8380
1823.222	8175
1825.35	8293
1827.478	8236
1829.608	8333
1831.734	8119
1833.86	8234
1835.986	8125
1838.11	8259
1840.238	8290
1842.362	8228
1844.485	8123
1846.608	8236
1848.73	8144
1850.853	8083
1852.974	8162
1855.097	8197
1857.217	8136
1859.336	8190
1861.455	8173
1863.576	8046
1865.693	8191
1867.811	8234
1869.926	8174
1872.042	8189
1874.16	8158
1876.275	8164
1878.39	8176
1880.504	8255
1882.618	8223
1884.731	8123
1886.843	8237
1888.956	8192
1891.067	8085
1893.178	8182
1895.287	8130
1897.399	8285
1899.508	8193
1901.617	8192
1903.724	8129
1905.832	8244
1907.941	8151
1910.046	8221
1912.152	8199
1914.256	8314
1916.361	8212
1918.464	8220
1920.57	8433
1922.672	8226
1924.775	8294
1926.876	8225
1928.978	8231
1931.08	8288
1933.181	8272
1935.28	8256
1937.38	8288
1939.478	8262
1941.577	8348
1943.675	8279
1945.771	8255
1947.867	8288
1949.964	8172
1952.058	8352
1954.154	8342
1956.248	8233
1958.343	8147
1960.435	8270
1962.527	8268
1964.62	8324
1966.711	8333
1968.802	8265
1970.892	8175
1972.983	8359
1975.072	8203
1977.162	8315
1979.25	8228
1981.337	8226
1983.424	8185
1985.51	8257
1987.598	8125
1989.683	8049
1991.768	8127
1993.852	8206
1995.934	8197
1998.019	8265
2000.102	8251
2002.184	8129
2004.266	8246
2006.347	8074
2008.427	8095
2010.508	8180
2012.587	8160
2014.666	8175
2016.745	8028
2018.821	8156
2020.9	8011
2022.977	8166
2025.052	8176
2027.128	8259
2029.204	8268
2031.277	8298
2033.353	8190
2035.425	8111
2037.499	8097
2039.57	8130
2041.642	8060
2043.714	8004
2045.786	8124
2047.855	8136
2049.925	8074
2051.993	8107
2054.064	8244
2056.132	8239
2058.2	8214
2060.266	8308
2062.332	8227
2064.398	8166
2066.465	8192
2068.529	8211
2070.592	8199
2072.657	8197
2074.719	8060
2076.783	8076
2078.845	8174
2080.907	8058
2082.968	8173
2085.028	8151
2087.087	8176
2089.148	8054
2091.207	8124
2093.264	8134
2095.322	8268
2097.379	8158
2099.439	8166
2101.495	8225
2103.55	8066
2105.605	8098
2107.658	7992
2109.713	8114
2111.767	8054
2113.82	8151
2115.872	8043
2117.924	8269
2119.975	8099
2122.028	8159
2124.078	8115
2126.126	8167
2128.176	8125
2130.225	8082
2132.275	8153
2134.321	8036
2136.368	8010
2138.415	8195
2140.461	8194
2142.505	8164
2144.552	8090
2146.597	8071
2148.64	8064
2150.684	7974
2152.725	8173
2154.77	8070
2156.811	8065
2158.852	8260
2160.894	8062
2162.933	8105
2164.973	8145
2167.013	8036
2169.051	7924
2171.089	8015
2173.126	8083
2175.164	8057
2177.201	7872
2179.236	8064
2181.273	7975
2183.307	8035
2185.341	8092
2187.377	7903
2189.41	7884
2191.442	7975
2193.473	8018
2195.506	7885
2197.539	8020
2199.569	7947
2201.598	7931
2203.628	7791
2205.656	7798
2207.686	7913
2209.716	7863
2211.743	7808
2213.769	7979
2215.796	7853
2217.821	7929
2219.848	7916
2221.873	7846
2223.897	7901
2225.921	7894
2227.944	7841
2229.967	7884
2231.991	7879
2234.011	7972
2236.032	7883
2238.053	7847
2240.073	7891
2242.094	7868
2244.114	7970
2246.131	7872
2248.149	7943
2250.167	7945
2252.186	7801
2254.201	7822
2256.218	7777
2258.233	7879
2260.247	7853
2262.262	7807
2264.278	7775
2266.29	7843
2268.303	7797
2270.315	7975
2272.327	7808
2274.341	7915
2276.35	7824
2278.361	7883
2280.37	7824
2282.38	7898
2284.388	7827
2286.397	7929
2288.405	7834
2290.412	7970
2292.419	7842
2294.425	7829
2296.431	7839
2298.437	7845
2300.441	8028
2302.445	7993
2304.449	7785
2306.453	7852
2308.455	7859
2310.457	7849
2312.459	7772
2314.46	7852
2316.46	7695
2318.461	7831
2320.46	7721
2322.458	7851
2324.458	7800
2326.456	7774
2328.455	7595
2330.451	7840
2332.447	7614
2334.443	7777
2336.438	7797
2338.433	7764
2340.429	7764
2342.422	7678
2344.416	7850
2346.408	7683
2348.399	7753
2350.393	7559
2352.384	7697
2354.375	7648
2356.365	7608
2358.355	7609
2360.344	7712
2362.333	7642
2364.322	7700
2366.309	7590
2368.295	7617
2370.282	7651
2372.27	7615
2374.256	7645
2376.24	7721
2378.225	7588
2380.208	7493
2382.194	7604
2384.177	7565
2386.159	7682
2388.142	7550
2390.122	7625
2392.105	7534
2394.085	7541
2396.066	7533
2398.044	7546
2400.024	7613
2402.002	7540
2403.982	7517
2405.959	7684
2407.935	7642
2409.913	7492
2411.888	7534
2413.865	7522
2415.84	7507
2417.814	7532
2419.788	7570
2421.762	7578
2423.735	7498
2425.708	7451
2427.68	7500
2429.651	7529
2431.623	7634
2433.593	7543
2435.564	7461
2437.533	7443
2439.502	7500
2441.47	7475
2443.438	7526
2445.406	7443
2447.373	7493
2449.34	7553
2451.305	7438
2453.271	7540
2455.235	7341
2457.201	7377
2459.165	7436
2461.129	7517
2463.092	7461
2465.054	7602
2467.018	7417
2468.978	7447
2470.939	7432
2472.899	7492
2474.86	7433
2476.819	7349
2478.778	7481
2480.737	7401
2482.695	7376
2484.653	7532
2486.609	7394
2488.567	7371
2490.524	7426
2492.478	7389
2494.433	7423
2496.387	7403
2498.343	7475
2500.297	7277
2502.249	7259
2504.202	7347
2506.153	7287
2508.105	7373
2510.057	7263
2512.008	7398
2513.957	7413
2515.906	7226
2517.855	7403
2519.805	7220
2521.754	7219
2523.7	7445
2525.647	7239
2527.594	7341
2529.54	7345
2531.486	7244
2533.431	7333
2535.376	7374
2537.32	7177
2539.263	7296
2541.207	7390
2543.151	7300
2545.093	7345
2547.034	7270
2548.975	7236
2550.917	7262
2552.856	7315
2554.796	7253
2556.735	7275
2558.673	7203
2560.611	7313
2562.55	7286
2564.487	7304
2566.424	7318
2568.36	7257
2570.296	7268
2572.232	7444
2574.167	7347
2576.101	7282
2578.035	7230
2579.969	7309
2581.902	7217
2583.834	7171
2585.766	7236
2587.698	7313
2589.628	7365
2591.557	7165
2593.489	7249
2595.419	7255
2597.348	7183
2599.275	7307
2601.204	7358
2603.131	7318
2605.059	7283
2606.986	7250
2608.911	7202
2610.837	7260
2612.76	7392
2614.687	7215
2616.61	7253
2618.534	7321
2620.457	7322
2622.38	7294
2624.302	7397
2626.225	7288
2628.145	7296
2630.067	7330
2631.986	7258
2633.906	7356
2635.827	7392
2637.745	7259
2639.662	7402
2641.581	7261
2643.498	7196
2645.415	7299
2647.331	7208
2649.248	7193
2651.163	7390
2653.077	7171
2654.993	7290
2656.906	7230
2658.821	7386
2660.733	7231
2662.646	7243
2664.557	7274
2666.47	7163
2668.381	7267
2670.291	7224
2672.201	7314
2674.11	7292
2676.021	7259
2677.929	7170
2679.837	7206
2681.745	7094
2683.652	7182
2685.56	7165
2687.466	7092
2689.371	7103
2691.276	7221
2693.181	7179
2695.085	7142
2696.991	7039
2698.893	7196
2700.796	7161
2702.698	6951
2704.601	7175
2706.502	7160
2708.404	7050
2710.304	7080
2712.203	7140
2714.103	7017
2716.003	7173
2717.902	7128
2719.8	7109
2721.697	7153
2723.594	7064
2725.49	7090
2727.389	7087
2729.283	7161
2731.179	7089
2733.073	7062
2734.968	7096
2736.863	7102
2738.757	7072
2740.649	7008
2742.541	6969
2744.433	6982
2746.324	6930
2748.216	6975
2750.107	7035
2751.997	7050
2753.886	7009
2755.776	7000
2757.666	7042
2759.553	7072
2761.44	6914
2763.327	7001
2765.215	6981
2767.102	7036
2768.988	7111
2770.873	7023
2772.757	6963
2774.641	6946
2776.525	7007
2778.41	7013
2780.292	7025
2782.175	7033
2784.057	6975
2785.938	6936
2787.821	6878
2789.701	6857
2791.581	7031
2793.461	6947
2795.34	6837
2797.219	6875
2799.099	6784
2800.975	6819
2802.853	6930
2804.73	6824
2806.606	6925
2808.484	6919
2810.358	6884
2812.233	6944
2814.108	6814
2815.981	7017
2817.857	6920
2819.73	6795
2821.602	6847
2823.474	6831
2825.346	6757
2827.217	6871
2829.089	6941
2830.959	6904
2832.829	6773
2834.698	6974
2836.567	6928
2838.436	6885
2840.305	6789
2842.172	6870
2844.04	6899
2845.905	6763
2847.772	6941
2849.639	6802
2851.503	6895
2853.369	6847
2855.232	6795
2857.096	6928
2858.961	6838
2860.824	6871
2862.686	7001
2864.547	7023
2866.41	6866
2868.272	6998
2870.132	7059
2871.992	7065
2873.851	7133
2875.711	7094
2877.57	7272
2879.429	7126
2881.287	7329
2883.144	7295
2885.001	7398
2886.857	7418
2888.714	7265
2890.57	7257
2892.425	7246
2894.279	7242
2896.133	7444
2897.987	7403
2899.842	7317
2901.694	7281
2903.547	7293
2905.397	7246
2907.249	7200
2909.101	7207
2910.952	7268
2912.802	7350
2914.652	7376
2916.5	7354
2918.35	7503
2920.198	7526
2922.045	7486
2923.893	7477
2925.74	7636
2927.585	7680
2929.433	7811
2931.279	7792
2933.123	7812
2934.968	7893
2936.811	8077
2938.656	8055
2940.5	8049
2942.342	8145
2944.185	8099
2946.026	8143
2947.87	8119
2949.71	8131
2951.549	8066
2953.39	8056
2955.229	7946
2957.069	7772
2958.908	7830
2960.746	7722
2962.584	7701
2964.421	7678
2966.257	7481
2968.094	7516
2969.931	7388
2971.766	7417
2973.601	7418
2975.435	7371
2977.27	7322
2979.105	7354
2980.938	7329
2982.77	7275
2984.602	7280
2986.434	7330
2988.267	7434
2990.097	7273
2991.927	7145
2993.757	7200
2995.587	7162
2997.417	7051
2999.246	7097
3001.074	6939
3002.902	7133
3004.729	6910
3006.556	6716
3008.384	6900
3010.21	6810
3012.036	6605
3013.861	6641
3015.684	6673
3017.51	6636
3019.334	6648
3021.157	6577
3022.981	6616
3024.802	6507
3026.624	6588
3028.448	6577
3030.267	6443
3032.088	6428
3033.909	6492
3035.728	6476
3037.549	6536
3039.368	6426
3041.186	6352
3043.004	6349
3044.821	6341
3046.64	6404
3048.455	6435
3050.272	6384
3052.087	6331
3053.903	6438
3055.717	6245
3057.534	6410
3059.347	6421
3061.16	6480
3062.974	6310
3064.785	6389
3066.598	6390
3068.411	6338
3070.222	6391
3072.032	6407
3073.844	6146
3075.653	6424
3077.463	6311
3079.272	6396
3081.08	6271
3082.889	6231
3084.697	6227
3086.505	6373
3088.312	6193
3090.118	6310
3091.924	6183
3093.729	6223
3095.535	6177
3097.34	6208
3099.144	6235
3100.947	6113
3102.75	6117
3104.553	6178
3106.357	6203
3108.159	6059
3109.961	6158
3111.762	6175
3113.562	6133
3115.365	6074
3117.164	6171
3118.964	6038
3120.761	6154
3122.56	6109
3124.36	5977
3126.158	6088
3127.954	6035
3129.75	6023
3131.547	6152
3133.343	6117
3135.139	6179
3136.934	6050
3138.729	6034
3140.522	6084
3142.317	6013
3144.11	5965
3145.904	5941
3147.695	5965
3149.488	5957
3151.28	6043
3153.07	5941
3154.863	5964
3156.652	5984
3158.441	5849
3160.231	6007
3162.019	5827
3163.81	5965
3165.597	5941
3167.384	5946
3169.172	5875
3170.958	6016
3172.745	5996
3174.532	5934
3176.317	5933
3178.101	5920
3179.885	5989
3181.67	5929
3183.455	5913
3185.238	5857
3187.02	5812
3188.802	6013
3190.585	5974
3192.368	5925
3194.149	6046
3195.929	5926
3197.709	5820
3199.489	5921
3201.268	5890
3203.048	5882
3204.826	5860
3206.604	5810
3208.382	5917
3210.159	5910
3211.937	5862
3213.713	5804
3215.489	5839
3217.263	5800
3219.038	5873
3220.815	5848
3222.589	5849
3224.363	5807
3226.136	5879
3227.908	5863
3229.681	5792
3231.454	5793
3233.226	5875
3234.996	5906
3236.767	5880
3238.538	5810
3240.308	5807
3242.078	5854
3243.847	5873
3245.615	5749
3247.384	5774
3249.15	5777
3250.92	5832
3252.686	5738
3254.453	5816
3256.218	5790
3257.984	5868
3259.75	5756
3261.515	5883
3263.279	5812
3265.044	5862
3266.806	5832
3268.57	5892
3270.334	5790
3272.095	5789
3273.856	5762
3275.619	5841
3277.379	5826
3279.14	5867
3280.9	5806
3282.661	5753
3284.419	5869
3286.178	5832
3287.937	5777
3289.695	5827
3291.453	5798
3293.21	5764
3294.967	5858
3296.723	5933
3298.48	5841
3300.235	5935
3301.99	5758
3303.744	5820
3305.498	5798
3307.253	5855
3309.006	5746
3310.759	5834
3312.511	5801
3314.263	5761
3316.017	5749
3317.768	5795
3319.519	5781
3321.268	5749
3323.018	5950
3324.767	5763
3326.518	5953
3328.267	5736
3330.014	5696
3331.762	5764
3333.509	5686
3335.258	5878
3337.003	5719
3338.75	5801
3340.496	5826
3342.24	5789
3343.987	5709
3345.732	5705
3347.475	5715
3349.219	5820
3350.961	5745
3352.705	5677
3354.448	5767
3356.19	5674
3357.931	5727
3359.672	5658
3361.412	5734
3363.155	5647
3364.894	5761
3366.633	5688
3368.372	5551
3370.11	5678
3371.849	5670
3373.588	5607
3375.325	5670
3377.061	5560
3378.799	5582
3380.534	5625
3382.271	5601
3384.006	5590
3385.741	5555
3387.475	5574
3389.209	5633
3390.944	5635
3392.677	5580
3394.409	5542
3396.143	5595
3397.874	5546
3399.606	5518
3401.338	5529
3403.069	5516
3404.799	5530
3406.528	5454
3408.258	5474
3409.988	5599
3411.717	5399
3413.445	5479
3415.173	5544
3416.899	5555
3418.626	5537
3420.354	5499
3422.08	5460
3423.806	5460
3425.531	5535
3427.255	5432
3428.981	5449
3430.705	5571
3432.429	5436
3434.151	5399
3435.875	5452
3437.599	5500
3439.321	5433
3441.042	5444
3442.763	5324
3444.483	5395
3446.204	5451
3447.926	5429
3449.645	5298
3451.364	5369
3453.082	5406
3454.801	5418
3456.52	5423
3458.238	5276
3459.954	5271
3461.671	5369
3463.387	5247
3465.104	5359
3466.82	5346
3468.534	5204
3470.25	5260
3471.963	5300
3473.676	5257
3475.392	5347
3477.104	5211
3478.817	5317
3480.528	5216
3482.241	5193
3483.954	5199
3485.664	5343
3487.374	5135
3489.084	5213
3490.795	5130
3492.504	5224
3494.214	5260
3495.922	5245
3497.63	5229
3499.338	5173
3501.045	5120
3502.753	5135
3504.459	5097
3506.166	5167
3507.871	5072
3509.576	5008
3511.283	5125
3512.987	5058
3514.691	5044
3516.395	5147
3518.098	5097
3519.8	4974
3521.504	5071
3523.206	5049
3524.908	5012
3526.609	5010
3528.309	5014
3530.011	5002
3531.711	5113
3533.411	5024
3535.109	5023
3536.808	4875
3538.507	4993
3540.206	5028
3541.904	5006
3543.601	4996
3545.297	4942
3546.994	4976
3548.69	5041
3550.387	5007
3552.081	4990
3553.776	4967
3555.47	4910
3557.166	4945
3558.859	4949
3560.553	5016
3562.245	4959
3563.938	4939
3565.629	4919
3567.322	4927
3569.014	4865
3570.704	4917
3572.394	4916
3574.084	4915
3575.775	4913
3577.464	4890
3579.152	4978
3580.842	4923
3582.529	4912
3584.216	4879
3585.905	4823
3587.591	4935
3589.279	4863
3590.964	4859
3592.649	4859
3594.336	4801
3596.021	4869
3597.705	4864
3599.388	4819
3601.072	4885
3602.757	4844
3604.439	4779
3606.122	4677
3607.803	4827
3609.485	4739
3611.167	4751
3612.849	4713
3614.529	4807
3616.208	4766
3617.888	4785
3619.567	4793
3621.247	4730
3622.926	4697
3624.603	4728
3626.281	4671
3627.958	4699
3629.635	4734
3631.312	4650
3632.989	4635
3634.665	4568
3636.339	4549
3638.014	4637
3639.691	4581
3641.364	4656
3643.038	4554
3644.71	4620
3646.384	4641
3648.058	4599
3649.729	4658
3651.402	4622
3653.073	4504
3654.744	4578
3656.414	4488
3658.085	4632
3659.755	4586
3661.424	4543
3663.094	4590
3664.762	4467
3666.431	4586
3668.099	4521
3669.766	4529
3671.433	4534
3673.099	4505
3674.768	4474
3676.433	4562
3678.098	4569
3679.763	4454
3681.428	4518
3683.093	4547
3684.757	4503
3686.421	4445
3688.083	4420
3689.746	4424
3691.408	4414
3693.071	4407
3694.733	4471
3696.394	4422
3698.054	4394
3699.715	4495
3701.375	4422
3703.036	4476
3704.695	4274
3706.354	4394
3708.012	4461
3709.67	4340
3711.329	4390
3712.987	4453
3714.644	4442
3716.299	4401
3717.955	4317
3719.613	4391
3721.268	4307
3722.923	4358
3724.577	4437
3726.231	4419
3727.885	4367
3729.539	4430
3731.192	4411
3732.845	4370
3734.497	4325
3736.149	4423
3737.802	4438
3739.453	4410
3741.104	4340
3742.753	4312
3744.404	4391
3746.052	4351
3747.704	4391
3749.352	4320
3751	4281
3752.648	4253
3754.296	4244
3755.944	4326
3757.59	4256
3759.238	4249
3760.883	4361
3762.528	4381
3764.176	4326
3765.82	4349
3767.464	4319
3769.109	4293
3770.753	4245
3772.396	4300
3774.04	4216
3775.683	4268
3777.325	4241
3778.967	4294
3780.608	4183
3782.25	4202
3783.89	4212
3785.531	4234
3787.17	4222
3788.81	4219
3790.45	4229
3792.09	4158
3793.729	4274
3795.366	4227
3797.003	4169
3798.64	4289
3800.278	4206
3801.915	4165
3803.551	4175
3805.187	4127
3806.822	4299
3808.458	4212
3810.093	4141
3811.726	4108
3813.36	4125
3814.994	4150
3816.627	4102
3818.262	4131
3819.893	4109
3821.525	4133
3823.157	4090
3824.787	4090
3826.42	4127
3828.051	4103
3829.68	4075
3831.31	4169
3832.938	4141
3834.569	4109
3836.198	4093
3837.825	4018
3839.454	4013
3841.08	4066
3842.708	4124
3844.335	4117
3845.962	3958
3847.587	4120
3849.212	4017
3850.838	4041
3852.463	4054
3854.089	4112
3855.712	4012
3857.335	4046
3858.959	4042
3860.582	4036
3862.205	4117
3863.827	4026
3865.449	3907
3867.07	4079
3868.691	4042
3870.312	3969
3871.933	4023
3873.553	4004
3875.173	4044
3876.792	3990
3878.411	3981
3880.03	3948
3881.647	3952
3883.265	3953
3884.882	3930
3886.499	3933
3888.116	3975
3889.732	4027
3891.348	3946
3892.964	3932
3894.579	3954
3896.195	4062
3897.809	3987
3899.423	3929
3901.036	3890
3902.648	3974
3904.261	3959
3905.875	3957
3907.487	3991
3909.099	3842
3910.709	3930
3912.321	3976
3913.933	3817
3915.542	3943
3917.152	3878
3918.762	3974
3920.37	3901
3921.98	3864
3923.589	3967
3925.196	3848
3926.804	3914
3928.41	3935
3930.018	3879
3931.626	3852
3933.231	3881
3934.838	3892
3936.442	3894
3938.046	3921
3939.653	3863
3941.257	3869
3942.861	3979
3944.464	3838
3946.068	3827
3947.67	3822
3949.273	3831
3950.876	3835
3952.477	3797
3954.078	3821
3955.678	3783
3957.281	3824
3958.881	3792
3960.48	3798
3962.079	3837
3963.678	3812
3965.279	3875
3966.877	3818
3968.475	3763
3970.072	3830
3971.669	3746
3973.266	3806
3974.864	3776
3976.459	3743
3978.055	3787
3979.65	3760
3981.245	3779
3982.841	3800
3984.436	3754
3986.03	3799
3987.623	3756
3989.216	3752
3990.809	3658
3992.403	3732
3993.995	3673
3995.586	3715
3997.177	3716
3998.768	3703
4000.361	3676
4001.951	3729
4003.54	3741
4005.13	3670
4006.719	3682
4008.31	3717
4009.897	3655
4011.485	3706
4013.073	3627
4014.66	3566
4016.247	3690
4017.834	3608
4019.421	3601
4021.006	3709
4022.592	3651
4024.178	3639
4025.763	3588
4027.348	3627
4028.932	3630
4030.515	3617
4032.099	3599
4033.682	3609
4035.266	3537
4036.847	3519
4038.429	3512
4040.011	3605
4041.592	3454
4043.173	3456
4044.755	3517
4046.334	3521
4047.913	3532
4049.494	3540
4051.074	3565
4052.652	3535
4054.23	3513
4055.807	3590
4057.385	3540
4058.963	3538
4060.541	3548
4062.117	3579
4063.693	3574
4065.269	3549
4066.844	3535
4068.42	3559
4069.995	3525
4071.569	3535
4073.143	3537
4074.716	3531
4076.291	3477
4077.864	3520
4079.436	3498
4081.009	3519
4082.58	3481
4084.152	3506
4085.723	3519
4087.294	3410
4088.865	3567
4090.435	3411
4092.005	3468
4093.574	3384
4095.143	3389
4096.712	3471
4098.279	3468
4099.848	3390
4101.416	3512
4102.984	3450
4104.55	3360
4106.117	3500
4107.682	3429
4109.248	3392
4110.815	3420
4112.379	3388
4113.945	3383
4115.508	3444
4117.073	3389
4118.637	3501
4120.201	3238
4121.763	3352
4123.325	3402
4124.888	3371
4126.449	3397
4128.013	3272
4129.573	3455
4131.133	3308
4132.694	3339
4134.254	3365
4135.814	3364
4137.374	3402
4138.933	3274
4140.491	3376
4142.049	3293
4143.607	3321
4145.167	3323
4146.724	3341
4148.28	3338
4149.836	3260
4151.392	3348
4152.949	3290
4154.504	3320
4156.059	3257
4157.614	3267
4159.168	3248
4160.723	3294
4162.277	3282
4163.83	3249
4165.383	3279
4166.936	3248
4168.488	3288
4170.041	3234
4171.593	3211
4173.144	3198
4174.695	3167
4176.246	3280
4177.796	3185
4179.346	3201
4180.896	3177
4182.445	3248
4183.994	3255
4185.542	3229
4187.091	3184
4188.639	3186
4190.185	3178
4191.732	3222
4193.279	3147
4194.826	3212
4196.373	3247
4197.918	3231
4199.463	3193
4201.008	3174
4202.553	3168
4204.098	3113
4205.641	3174
4207.185	3156
4208.728	3163
4210.271	3184
4211.814	3240
4213.357	3173
4214.898	3106
4216.439	3119
4217.98	3189
4219.522	3093
4221.062	3194
4222.603	3074
4224.142	3095
4225.681	3030
4227.222	3162
4228.76	3055
4230.298	3140
4231.835	3133
4233.373	3067
4234.911	3120
4236.449	3086
4237.985	3173
4239.521	3168
4241.057	3070
4242.592	3105
4244.128	3010
4245.663	3078
4247.197	3085
4248.731	3092
4250.265	3065
4251.798	3072
4253.333	3052
4254.865	3100
4256.397	2988
4257.93	3079
4259.461	3087
4260.994	3066
4262.525	2978
4264.056	3098
4265.586	3020
4267.115	2998
4268.646	3090
4270.176	3047
4271.705	3011
4273.232	3061
4274.761	3078
4276.289	3001
4277.818	3038
4279.345	3000
4280.872	3056
4282.399	3030
4283.924	2980
4285.452	2967
4286.976	2974
4288.502	3116
4290.026	2988
4291.551	2933
4293.074	3029
4294.6	3071
4296.123	2972
4297.646	2955
4299.168	2970
4300.691	3000
4302.214	2918
4303.736	2952
4305.257	2875
4306.778	2977
4308.299	2921
4309.82	2976
4311.34	3004
4312.86	2885
4314.379	2964
