400.0745	6537
402.597	6685
405.1208	6692
407.6419	6705
410.1623	6710
412.6819	6739
415.201	6819
417.7172	6774
420.2369	6921
422.7538	6892
425.2701	6941
427.7856	7168
430.3005	6980
432.8147	7259
435.3282	7181
437.841	7164
440.3511	7013
442.8625	7075
445.3753	7137
447.8854	7129
450.3927	7178
452.9014	7202
455.4073	7162
457.9146	7184
460.4233	7188
462.9272	7171
465.4325	7049
467.935	7094
470.4389	7221
472.9421	7169
475.4446	7203
477.9444	7190
480.4456	7284
482.944	7323
485.4417	7229
487.9429	7217
490.4393	7207
492.935	7290
495.4321	7256
497.9264	7366
500.4221	7348
502.9171	7361
505.4094	7288
507.9011	7504
510.392	7435
512.8864	7319
515.3759	7482
517.8649	7484
520.3531	7446
522.8406	7476
525.3275	7434
527.8178	7495
530.3033	7485
532.7881	7527
535.2723	7608
537.7558	7403
540.2407	7419
542.7228	7419
545.2043	7435
547.6851	7474
550.1652	7484
552.6467	7512
555.1255	7514
557.6016	7582
560.079	7469
562.5557	7400
565.0318	7569
567.5092	7624
569.984	7721
572.456	7728
574.9294	7821
577.4022	7799
579.8762	7787
582.3456	7903
584.8163	7818
587.2863	7863
589.7557	7803
592.2224	7701
594.6924	7892
597.1578	7844
599.6245	7918
602.0905	7697
604.5538	7741
607.0206	7741
609.4825	7716
611.9459	7679
614.4066	7788
616.8686	7779
619.33	7708
621.7906	7798
624.2487	7743
626.708	7774
629.1647	7741
631.6207	7779
634.0801	7721
636.5348	7759
638.9888	7680
641.4442	7709
643.8969	7748
646.3509	7876
648.8022	7734
651.255	7806
653.705	7771
656.1544	7817
658.6031	7827
661.0532	7865
663.5026	7933
665.9493	7819
668.3954	7907
670.8409	7953
673.2877	7936
675.7318	8006
678.1752	7967
680.618	7892
683.0601	7837
685.5035	8059
687.9444	8097
690.3845	8022
692.824	7958
695.2628	7998
697.701	7974
700.1406	8064
702.5774	8066
705.0116	8137
707.4472	8040
709.8821	7955
712.3183	8148
714.7519	7994
717.1829	8088
719.6151	8221
722.0468	8165
724.4777	8174
726.908	8142
729.3377	8286
731.7667	8316
734.1931	8429
736.6208	8337
739.0498	8220
741.4742	8454
743.9	8493
746.3231	8466
748.7476	8416
751.1713	8535
753.5945	8519
756.015	8562
758.4368	8561
760.856	8588
763.2766	8406
765.6965	8688
768.1157	8539
770.5323	8565
772.9483	8793
775.3656	8610
777.7822	8453
780.1963	8613
782.6116	8695
785.0244	8641
787.4365	8594
789.8499	8609
792.2626	8562
794.6728	8684
797.0823	8574
799.4911	8526
801.8994	8461
804.3109	8564
806.7178	8739
809.124	8582
811.5297	8678
813.9347	8714
816.341	8719
818.7447	8751
821.1478	8821
823.5502	8761
825.952	8829
828.3531	8659
830.7556	8598
833.1554	8727
835.5546	8818
837.9532	8638
840.3511	8811
842.7504	8749
845.1451	8811
847.5411	8839
849.9365	8930
852.3312	8954
854.7272	8938
857.1187	8937
859.5115	8974
861.9037	8875
864.2952	8891
866.6842	8798
869.0764	8898
871.4661	8893
873.8531	8767
876.2415	8845
878.6272	8780
881.0162	8903
883.4026	8831
885.7866	8855
888.1717	8975
890.5543	8775
892.9382	8795
895.3215	8844
897.7041	8886
900.0842	8892
902.4655	8959
904.8443	9099
907.2244	8927
909.6039	8937
911.9808	8992
914.357	8942
916.7346	9089
919.1115	9206
921.4859	9075
923.8616	9126
926.2347	9254
928.6071	9192
930.979	9261
933.3541	9367
935.7247	9388
938.0946	9325
940.4639	9631
942.8326	9508
945.2026	9767
947.5701	9826
949.9369	10116
952.305	10390
954.6705	10700
957.0355	11144
959.4017	11466
961.7654	11755
964.1284	11563
966.4908	11306
968.8527	10878
971.2138	10279
973.5743	10021
975.9343	9659
978.2936	9557
980.6522	9279
983.0122	9271
985.3696	9176
987.7245	9211
990.0807	9138
992.4362	9142
994.7911	9219
997.1474	9233
999.4991	9357
1001.852	9237
1004.205	9220
1006.555	9210
1008.908	9158
1011.258	9161
1013.606	9220
1015.956	9239
1018.302	9211
1020.652	9353
1022.998	9383
1025.345	9251
1027.691	9282
1030.035	9290
1032.378	9354
1034.724	9361
1037.066	9350
1039.409	9362
1041.75	9401
1044.092	9372
1046.433	9358
1048.771	9419
1051.112	9464
1053.449	9380
1055.786	9443
1058.124	9344
1060.462	9475
1062.797	9406
1065.131	9392
1067.467	9375
1069.8	9694
1072.135	9716
1074.467	9570
1076.798	9601
1079.129	9501
1081.459	9577
1083.792	9658
1086.121	9518
1088.449	9276
1090.777	9416
1093.104	9311
1095.431	9493
1097.759	9396
1100.084	9320
1102.408	9487
1104.732	9298
1107.056	9265
1109.379	9380
1111.701	9331
1114.022	9357
1116.343	9392
1118.664	9234
1120.983	9545
1123.303	9368
1125.621	9381
1127.939	9289
1130.256	9361
1132.573	9481
1134.889	9349
1137.205	9309
1139.52	9342
1141.832	9432
1144.146	9250
1146.461	9452
1148.771	9401
1151.083	9473
1153.392	9374
1155.703	9375
1158.011	9522
1160.323	9497
1162.629	9370
1164.938	9405
1167.243	9333
1169.55	9409
1171.857	9341
1174.163	9424
1176.466	9397
1178.769	9340
1181.073	9422
1183.374	9396
1185.677	9449
1187.979	9388
1190.279	9401
1192.578	9339
1194.878	9388
1197.178	9451
1199.476	9191
1201.772	9289
1204.068	9262
1206.366	9505
1208.663	9310
1210.957	9510
1213.251	9404
1215.544	9471
1217.836	9416
1220.128	9595
1222.421	9376
1224.712	9520
1227.002	9558
1229.292	9498
1231.581	9553
1233.871	9615
1236.159	9617
1238.446	9704
1240.732	9712
1243.018	9798
1245.304	9720
1247.59	9829
1249.874	9629
1252.156	9729
1254.439	9788
1256.721	9643
1259.005	9750
1261.286	9810
1263.565	9655
1265.845	9731
1268.125	9757
1270.403	9720
1272.682	9894
1274.959	9675
1277.234	9716
1279.511	9747
1281.787	9810
1284.062	9618
1286.337	9587
1288.609	9684
1290.882	9560
1293.153	9513
1295.428	9595
1297.698	9605
1299.969	9597
1302.237	9571
1304.507	9536
1306.777	9634
1309.044	9584
1311.312	9519
1313.578	9530
1315.844	9556
1318.109	9419
1320.375	9557
1322.638	9526
1324.903	9576
1327.165	9525
1329.427	9521
1331.69	9564
1333.952	9457
1336.212	9574
1338.471	9637
1340.73	9570
1342.988	9523
1345.248	9640
1347.505	9720
1349.763	9686
1352.019	9655
1354.274	9594
1356.53	9538
1358.784	9425
1361.038	9383
1363.291	9554
1365.543	9436
1367.797	9531
1370.048	9541
1372.296	9457
1374.546	9574
1376.796	9703
1379.045	9456
1381.295	9550
1383.542	9663
1385.787	9566
1388.034	9633
1390.28	9713
1392.527	9597
1394.772	9566
1397.014	9692
1399.258	9673
1401.501	9600
1403.741	9702
1405.985	9648
1408.226	9757
1410.465	9796
1412.705	9756
1414.943	9681
1417.184	9701
1419.42	9735
1421.658	9798
1423.894	9762
1426.13	9633
1428.366	9868
1430.602	9868
1432.835	9811
1435.069	9833
1437.301	9888
1439.535	9780
1441.767	9930
1443.997	9872
1446.229	9940
1448.458	10031
1450.687	9916
1452.916	10076
1455.146	10074
1457.372	9938
1459.599	9983
1461.824	9840
1464.051	10000
1466.277	9939
1468.501	9831
1470.725	9858
1472.948	9784
1475.17	9811
1477.393	9863
1479.614	9648
1481.837	9674
1484.057	9708
1486.276	9568
1488.497	9465
1490.715	9431
1492.932	9382
1495.148	9527
1497.364	9479
1499.58	9697
1501.798	9602
1504.012	9415
1506.227	9544
1508.44	9548
1510.653	9502
1512.866	9676
1515.078	9400
1517.289	9451
1519.5	9375
1521.711	9320
1523.92	9532
1526.13	9442
1528.338	9416
1530.544	9503
1532.752	9454
1534.959	9458
1537.165	9538
1539.371	9464
1541.574	9359
1543.779	9661
1545.983	9419
1548.187	9451
1550.39	9544
1552.59	9425
1554.792	9676
1556.991	9590
1559.19	9653
1561.392	9678
1563.59	9527
1565.789	9633
1567.986	9729
1570.182	9765
1572.381	9669
1574.576	9748
1576.771	9697
1578.966	9812
1581.16	9833
1583.354	9664
1585.546	9719
1587.74	9723
1589.931	9676
1592.121	9772
1594.311	9813
1596.502	9797
1598.693	9837
1600.881	9983
1603.069	9831
1605.256	9809
1607.445	9749
1609.631	9692
1611.816	9820
1614.001	9748
1616.186	9730
1618.37	9729
1620.555	9745
1622.737	9858
1624.919	9909
1627.101	9760
1629.282	9953
1631.463	9956
1633.643	10006
1635.822	9899
1638.001	10044
1640.179	9794
1642.359	9979
1644.534	9919
1646.711	9912
1648.887	9936
1651.062	10038
1653.235	9988
1655.412	10010
1657.586	9902
1659.757	10035
1661.93	9864
1664.1	10021
1666.274	10058
1668.445	9945
1670.614	10085
1672.784	9969
1674.951	9908
1677.12	10084
1679.289	10145
1681.457	9992
1683.622	10037
1685.789	9925
1687.953	9993
1690.121	9984
1692.284	9842
1694.447	9860
1696.611	9740
1698.772	9962
1700.935	9785
1703.098	9773
1705.258	9756
1707.417	9793
1709.576	9810
1711.736	9596
1713.896	9611
1716.053	9703
1718.21	9718
1720.366	9603
1722.522	9536
1724.68	9685
1726.835	9643
1728.989	9666
1731.142	9689
1733.295	9761
1735.449	9856
1737.601	9775
1739.753	9604
1741.903	9631
1744.054	9778
1746.203	9801
1748.354	9630
1750.503	9708
1752.651	9741
1754.798	9735
1756.944	9720
1759.092	9613
1761.238	9738
1763.383	9675
1765.528	9807
1767.672	9710
1769.814	9864
1771.959	9835
1774.102	9730
1776.242	9837
1778.384	9816
1780.525	9805
1782.665	9853
1784.805	9776
1786.945	9880
1789.082	9743
1791.22	9691
1793.36	9791
1795.495	9792
1797.632	9723
1799.766	9723
1801.902	9892
1804.035	9900
1806.172	9769
1808.304	9566
1810.436	9725
1812.569	9842
1814.699	9839
1816.833	9676
1818.963	9743
1821.092	9721
1823.222	9578
1825.35	9827
1827.478	9729
1829.608	9633
1831.734	9753
1833.86	9559
1835.986	9771
1838.11	9679
1840.238	9875
1842.362	9543
1844.485	9547
1846.608	9676
1848.73	9734
1850.853	9656
1852.974	9624
1855.097	9623
1857.217	9729
1859.336	9696
1861.455	9542
1863.576	9491
1865.693	9587
1867.811	9559
1869.926	9521
1872.042	9563
1874.16	9718
1876.275	9641
1878.39	9648
1880.504	9741
1882.618	9770
1884.731	9625
1886.843	9581
1888.956	9650
1891.067	9610
1893.178	9748
1895.287	9539
1897.399	9611
1899.508	9615
1901.617	9651
1903.724	9826
1905.832	9650
1907.941	9633
1910.046	9736
1912.152	9763
1914.256	9760
1916.361	9736
1918.464	9879
1920.57	9842
1922.672	9709
1924.775	9705
1926.876	9835
1928.978	9710
1931.08	9729
1933.181	9835
1935.28	9792
1937.38	9670
1939.478	9829
1941.577	9789
1943.675	9762
1945.771	9756
1947.867	9829
1949.964	9793
1952.058	9680
1954.154	9691
1956.248	9604
1958.343	9646
1960.435	9778
1962.527	9849
1964.62	9658
1966.711	9839
1968.802	9778
1970.892	9749
1972.983	9709
1975.072	9784
1977.162	9601
1979.25	9671
1981.337	9552
1983.424	9590
1985.51	9685
1987.598	9696
1989.683	9677
1991.768	9598
1993.852	9622
1995.934	9716
1998.019	9699
2000.102	9522
2002.184	9657
2004.266	9671
2006.347	9633
2008.427	9453
2010.508	9542
2012.587	9584
2014.666	9690
2016.745	9535
2018.821	9726
2020.9	9572
2022.977	9718
2025.052	9570
2027.128	9573
2029.204	9625
2031.277	9570
2033.353	9635
2035.425	9636
2037.499	9506
2039.57	9447
2041.642	9601
2043.714	9600
2045.786	9694
2047.855	9518
2049.925	9653
2051.993	9703
2054.064	9537
2056.132	9727
2058.2	9463
2060.266	9528
2062.332	9624
2064.398	9706
2066.465	9522
2068.529	9542
2070.592	9603
2072.657	9647
2074.719	9561
2076.783	9563
2078.845	9679
2080.907	9696
2082.968	9613
2085.028	9595
2087.087	9508
2089.148	9714
2091.207	9543
2093.264	9535
2095.322	9688
2097.379	9673
2099.439	9597
2101.495	9670
2103.55	9591
2105.605	9580
2107.658	9438
2109.713	9569
2111.767	9511
2113.82	9587
2115.872	9669
2117.924	9543
2119.975	9600
2122.028	9607
2124.078	9548
2126.126	9471
2128.176	9449
2130.225	9548
2132.275	9555
2134.321	9577
2136.368	9439
2138.415	9600
2140.461	9623
2142.505	9550
2144.552	9372
2146.597	9502
2148.64	9399
2150.684	9441
2152.725	9517
2154.77	9407
2156.811	9393
2158.852	9500
2160.894	9430
2162.933	9310
2164.973	9646
2167.013	9404
2169.051	9608
2171.089	9341
2173.126	9382
2175.164	9491
2177.201	9420
2179.236	9338
2181.273	9560
2183.307	9404
2185.341	9418
2187.377	9391
2189.41	9299
2191.442	9330
2193.473	9370
2195.506	9277
2197.539	9283
2199.569	9413
2201.598	9305
2203.628	9323
2205.656	9315
2207.686	9298
2209.716	9221
2211.743	9253
2213.769	9285
2215.796	9290
2217.821	9141
2219.848	9235
2221.873	9304
2223.897	9228
2225.921	9181
2227.944	9240
2229.967	9227
2231.991	9258
2234.011	9277
2236.032	9215
2238.053	9201
2240.073	9284
2242.094	9350
2244.114	9235
2246.131	9174
2248.149	9277
2250.167	9272
2252.186	9073
2254.201	9248
2256.218	9249
2258.233	9308
2260.247	9129
2262.262	9314
2264.278	9145
2266.29	8945
2268.303	9192
2270.315	9095
2272.327	9321
2274.341	9151
2276.35	9172
2278.361	9207
2280.37	9199
2282.38	9164
2284.388	9175
2286.397	9232
2288.405	9271
2290.412	9131
2292.419	9258
2294.425	9171
2296.431	8955
2298.437	9147
2300.441	9093
2302.445	9213
2304.449	9079
2306.453	9265
2308.455	9156
2310.457	9057
2312.459	9227
2314.46	9107
2316.46	9096
2318.461	9128
2320.46	9088
2322.458	9123
2324.458	8897
2326.456	9083
2328.455	9207
2330.451	9068
2332.447	9030
2334.443	9205
2336.438	9176
2338.433	8988
2340.429	9098
2342.422	8937
2344.416	8989
2346.408	8933
2348.399	9037
2350.393	8910
2352.384	8971
2354.375	8940
2356.365	8925
2358.355	9001
2360.344	8988
2362.333	9017
2364.322	8962
2366.309	9006
2368.295	9029
2370.282	8970
2372.27	9102
2374.256	8948
2376.24	8945
2378.225	8873
2380.208	8838
2382.194	8892
2384.177	8825
2386.159	8899
2388.142	8857
2390.122	8966
2392.105	8833
2394.085	8877
2396.066	8840
2398.044	8845
2400.024	9078
2402.002	8713
2403.982	8678
2405.959	8738
2407.935	8818
2409.913	8706
2411.888	8900
2413.865	8785
2415.84	8802
2417.814	8704
2419.788	8742
2421.762	8828
2423.735	8709
2425.708	8799
2427.68	8808
2429.651	8732
2431.623	8635
2433.593	8731
2435.564	8584
2437.533	8771
2439.502	8932
2441.47	8829
2443.438	8760
2445.406	8799
2447.373	8763
2449.34	8819
2451.305	8765
2453.271	8703
2455.235	8608
2457.201	8749
2459.165	8731
2461.129	8653
2463.092	8652
2465.054	8655
2467.018	8792
2468.978	8794
2470.939	8584
2472.899	8554
2474.86	8653
2476.819	8568
2478.778	8756
2480.737	8647
2482.695	8731
2484.653	8716
2486.609	8586
2488.567	8677
2490.524	8595
2492.478	8639
2494.433	8635
2496.387	8679
2498.343	8524
2500.297	8680
2502.249	8355
2504.202	8612
2506.153	8537
2508.105	8547
2510.057	8510
2512.008	8539
2513.957	8573
2515.906	8344
2517.855	8514
2519.805	8510
2521.754	8551
2523.7	8450
2525.647	8561
2527.594	8508
2529.54	8549
2531.486	8540
2533.431	8501
2535.376	8557
2537.32	8664
2539.263	8465
2541.207	8502
2543.151	8446
2545.093	8440
2547.034	8651
2548.975	8546
2550.917	8521
2552.856	8459
2554.796	8555
2556.735	8472
2558.673	8534
2560.611	8530
2562.55	8482
2564.487	8550
2566.424	8469
2568.36	8568
2570.296	8400
2572.232	8504
2574.167	8570
2576.101	8566
2578.035	8404
2579.969	8463
2581.902	8487
2583.834	8461
2585.766	8476
2587.698	8508
2589.628	8439
2591.557	8436
2593.489	8428
2595.419	8451
2597.348	8539
2599.275	8478
2601.204	8407
2603.131	8400
2605.059	8499
2606.986	8585
2608.911	8579
2610.837	8522
2612.76	8521
2614.687	8487
2616.61	8464
2618.534	8468
2620.457	8596
2622.38	8591
2624.302	8535
2626.225	8508
2628.145	8471
2630.067	8510
2631.986	8441
2633.906	8562
2635.827	8457
2637.745	8445
2639.662	8465
2641.581	8485
2643.498	8413
2645.415	8373
2647.331	8430
2649.248	8614
2651.163	8419
2653.077	8589
2654.993	8441
2656.906	8422
2658.821	8517
2660.733	8400
2662.646	8447
2664.557	8472
2666.47	8538
2668.381	8444
2670.291	8492
2672.201	8390
2674.11	8488
2676.021	8340
2677.929	8531
2679.837	8424
2681.745	8486
2683.652	8326
2685.56	8314
2687.466	8406
2689.371	8363
2691.276	8458
2693.181	8298
2695.085	8326
2696.991	8288
2698.893	8252
2700.796	8367
2702.698	8257
2704.601	8292
2706.502	8358
2708.404	8163
2710.304	8317
2712.203	8359
2714.103	8270
2716.003	8369
2717.902	8287
2719.8	8337
2721.697	8391
2723.594	8198
2725.49	8428
2727.389	8231
2729.283	8160
2731.179	8257
2733.073	8299
2734.968	8273
2736.863	8085
2738.757	8264
2740.649	8180
2742.541	8233
2744.433	8171
2746.324	8089
2748.216	8210
2750.107	8157
2751.997	8157
2753.886	8212
2755.776	8222
2757.666	8205
2759.553	8207
2761.44	8159
2763.327	8173
2765.215	8226
2767.102	8201
2768.988	8165
2770.873	8206
2772.757	8192
2774.641	8203
2776.525	8295
2778.41	8126
2780.292	8009
2782.175	8157
2784.057	8106
2785.938	8053
2787.821	8161
2789.701	8210
2791.581	8128
2793.461	8086
2795.34	8123
2797.219	8151
2799.099	8080
2800.975	8001
2802.853	8169
2804.73	7979
2806.606	8070
2808.484	8044
2810.358	8022
2812.233	8020
2814.108	8129
2815.981	7989
2817.857	8013
2819.73	8143
2821.602	8170
2823.474	8123
2825.346	8090
2827.217	7976
2829.089	7989
2830.959	8101
2832.829	8016
2834.698	8069
2836.567	7928
2838.436	8040
2840.305	7993
2842.172	8084
2844.04	7959
2845.905	8094
2847.772	8021
2849.639	8061
2851.503	8194
2853.369	8094
2855.232	8030
2857.096	8016
2858.961	8059
2860.824	8176
2862.686	8131
2864.547	8101
2866.41	8273
2868.272	8172
2870.132	8282
2871.992	8396
2873.851	8387
2875.711	8570
2877.57	8523
2879.429	8507
2881.287	8557
2883.144	8641
2885.001	8604
2886.857	8675
2888.714	8641
2890.57	8707
2892.425	8711
2894.279	8609
2896.133	8646
2897.987	8687
2899.842	8624
2901.694	8658
2903.547	8605
2905.397	8620
2907.249	8615
2909.101	8725
2910.952	8546
2912.802	8684
2914.652	8645
2916.5	8608
2918.35	8934
2920.198	8856
2922.045	8863
2923.893	9138
2925.74	9073
2927.585	9157
2929.433	9252
2931.279	9263
2933.123	9410
2934.968	9412
2936.811	9571
2938.656	9695
2940.5	9590
2942.342	9654
2944.185	9652
2946.026	9636
2947.87	9732
2949.71	9523
2951.549	9516
2953.39	9538
2955.229	9438
2957.069	9297
2958.908	9186
2960.746	9197
2962.584	9061
2964.421	9131
2966.257	9202
2968.094	8929
2969.931	8896
2971.766	8947
2973.601	8822
2975.435	8750
2977.27	8841
2979.105	8758
2980.938	8857
2982.77	8698
2984.602	8692
2986.434	8762
2988.267	8601
2990.097	8619
2991.927	8579
2993.757	8437
2995.587	8441
2997.417	8438
2999.246	8317
3001.074	8273
3002.902	8163
3004.729	8166
3006.556	7966
3008.384	7955
3010.21	7954
3012.036	7955
3013.861	7758
3015.684	7894
3017.51	7808
3019.334	7800
3021.157	7745
3022.981	7736
3024.802	7769
3026.624	7592
3028.448	7595
3030.267	7614
3032.088	7554
3033.909	7615
3035.728	7587
3037.549	7619
3039.368	7522
3041.186	7587
3043.004	7534
3044.821	7449
3046.64	7505
3048.455	7571
3050.272	7458
3052.087	7513
3053.903	7502
3055.717	7533
3057.534	7426
3059.347	7466
3061.16	7533
3062.974	7452
3064.785	7353
3066.598	7430
3068.411	7512
3070.222	7498
3072.032	7429
3073.844	7502
3075.653	7381
3077.463	7575
3079.272	7324
3081.08	7440
3082.889	7393
3084.697	7394
3086.505	7306
3088.312	7359
3090.118	7325
3091.924	7183
3093.729	7250
3095.535	7328
3097.34	7355
3099.144	7291
3100.947	7197
3102.75	7227
3104.553	7252
3106.357	7221
3108.159	7225
3109.961	7111
3111.762	6954
3113.562	7221
3115.365	7193
3117.164	7171
3118.964	7090
3120.761	7016
3122.56	7130
3124.36	7184
3126.158	7118
3127.954	6980
3129.75	7098
3131.547	7232
3133.343	7200
3135.139	7194
3136.934	7050
3138.729	7040
3140.522	7020
3142.317	7122
3144.11	7121
3145.904	7001
3147.695	6952
3149.488	7198
3151.28	7038
3153.07	6958
3154.863	6979
3156.652	7012
3158.441	6957
3160.231	6966
3162.019	6999
3163.81	6956
3165.597	7045
3167.384	7052
3169.172	7064
3170.958	6853
3172.745	6984
3174.532	7032
3176.317	6916
3178.101	6950
3179.885	6795
3181.67	6971
3183.455	6969
3185.238	6940
3187.02	6919
3188.802	6942
3190.585	7099
3192.368	6940
3194.149	6898
3195.929	6809
3197.709	6764
3199.489	6882
3201.268	6977
3203.048	6894
3204.826	6951
3206.604	6842
3208.382	6867
3210.159	6878
3211.937	6842
3213.713	6831
3215.489	6864
3217.263	7008
3219.038	6892
3220.815	6840
3222.589	6840
3224.363	6897
3226.136	6869
3227.908	6832
3229.681	6824
3231.454	6856
3233.226	6853
3234.996	6891
3236.767	6810
3238.538	6786
3240.308	6801
3242.078	6863
3243.847	6821
3245.615	6976
3247.384	6940
3249.15	6954
3250.92	6817
3252.686	6787
3254.453	6761
3256.218	6775
3257.984	6789
3259.75	6794
3261.515	6899
3263.279	6894
3265.044	6904
3266.806	6869
3268.57	6818
3270.334	6928
3272.095	6701
3273.856	6830
3275.619	6799
3277.379	6755
3279.14	6745
3280.9	6883
3282.661	6816
3284.419	6852
3286.178	6826
3287.937	6851
3289.695	6790
3291.453	6807
3293.21	6809
3294.967	6850
3296.723	6846
3298.48	6775
3300.235	6777
3301.99	6786
3303.744	6769
3305.498	6981
3307.253	6903
3309.006	6770
3310.759	6841
3312.511	6809
3314.263	6835
3316.017	6856
3317.768	6851
3319.519	6871
3321.268	6736
3323.018	6778
3324.767	6660
3326.518	6724
3328.267	6778
3330.014	6770
3331.762	6728
3333.509	6835
3335.258	6762
3337.003	6740
3338.75	6672
3340.496	6783
3342.24	6847
3343.987	6661
3345.732	6803
3347.475	6618
3349.219	6724
3350.961	6725
3352.705	6744
3354.448	6687
3356.19	6638
3357.931	6632
3359.672	6564
3361.412	6749
3363.155	6726
3364.894	6597
3366.633	6438
3368.372	6647
3370.11	6645
3371.849	6737
3373.588	6719
3375.325	6511
3377.061	6587
3378.799	6499
3380.534	6557
3382.271	6620
3384.006	6613
3385.741	6493
3387.475	6584
3389.209	6574
3390.944	6448
3392.677	6510
3394.409	6546
3396.143	6577
3397.874	6525
3399.606	6418
3401.338	6525
3403.069	6450
3404.799	6498
3406.528	6380
3408.258	6419
3409.988	6522
3411.717	6505
3413.445	6497
3415.173	6417
3416.899	6395
3418.626	6547
3420.354	6420
3422.08	6507
3423.806	6349
3425.531	6536
3427.255	6369
3428.981	6418
3430.705	6367
3432.429	6387
3434.151	6325
3435.875	6309
3437.599	6306
3439.321	6412
3441.042	6278
3442.763	6319
3444.483	6224
3446.204	6323
3447.926	6206
3449.645	6340
3451.364	6378
3453.082	6172
3454.801	6382
3456.52	6320
3458.238	6360
3459.954	6155
3461.671	6291
3463.387	6253
3465.104	6252
3466.82	6253
3468.534	6226
3470.25	6165
3471.963	6123
3473.676	6127
3475.392	6148
3477.104	6134
3478.817	6081
3480.528	6186
3482.241	6096
3483.954	6109
3485.664	6175
3487.374	6087
3489.084	6175
3490.795	6042
3492.504	6117
3494.214	6006
3495.922	6058
3497.63	6011
3499.338	5923
3501.045	6114
3502.753	6084
3504.459	5896
3506.166	6057
3507.871	6076
3509.576	5900
3511.283	6049
3512.987	5957
3514.691	6049
3516.395	5914
3518.098	5905
3519.8	5952
3521.504	5930
3523.206	5942
3524.908	5896
3526.609	5887
3528.309	5934
3530.011	5977
3531.711	5903
3533.411	5984
3535.109	5835
3536.808	5828
3538.507	5832
3540.206	5841
3541.904	5743
3543.601	5756
3545.297	5921
3546.994	5813
3548.69	5871
3550.387	5734
3552.081	5816
3553.776	5874
3555.47	5779
3557.166	5772
3558.859	5748
3560.553	5836
3562.245	5772
3563.938	5717
3565.629	5746
3567.322	5842
3569.014	5717
3570.704	5684
3572.394	5715
3574.084	5788
3575.775	5662
3577.464	5716
3579.152	5627
3580.842	5714
3582.529	5698
3584.216	5707
3585.905	5749
3587.591	5682
3589.279	5668
3590.964	5652
3592.649	5579
3594.336	5552
3596.021	5610
3597.705	5529
3599.388	5669
3601.072	5549
3602.757	5608
3604.439	5592
3606.122	5531
3607.803	5602
3609.485	5467
3611.167	5397
3612.849	5549
3614.529	5499
3616.208	5538
3617.888	5359
3619.567	5500
3621.247	5631
3622.926	5371
3624.603	5388
3626.281	5410
3627.958	5378
3629.635	5432
3631.312	5491
3632.989	5340
3634.665	5474
3636.339	5286
3638.014	5375
3639.691	5391
3641.364	5348
3643.038	5336
3644.71	5320
3646.384	5398
3648.058	5317
3649.729	5388
3651.402	5344
3653.073	5355
3654.744	5363
3656.414	5244
3658.085	5318
3659.755	5343
3661.424	5348
3663.094	5249
3664.762	5245
3666.431	5291
3668.099	5279
3669.766	5280
3671.433	5261
3673.099	5307
3674.768	5247
3676.433	5217
3678.098	5235
3679.763	5226
3681.428	5273
3683.093	5179
3684.757	5275
3686.421	5272
3688.083	5322
3689.746	5159
3691.408	5275
3693.071	5189
3694.733	5243
3696.394	5140
3698.054	5197
3699.715	5198
3701.375	5135
3703.036	5039
3704.695	5075
3706.354	5169
3708.012	5279
3709.67	5148
3711.329	5201
3712.987	5110
3714.644	5150
3716.299	5180
3717.955	5063
3719.613	5159
3721.268	5151
3722.923	5192
3724.577	5062
3726.231	5104
3727.885	5097
3729.539	5088
3731.192	5182
3732.845	4971
3734.497	5104
3736.149	5001
3737.802	5043
3739.453	4984
3741.104	4969
3742.753	5066
3744.404	5001
3746.052	5078
3747.704	4989
3749.352	4981
3751	5082
3752.648	4972
3754.296	5026
3755.944	5007
3757.59	5068
3759.238	5029
3760.883	4950
3762.528	4993
3764.176	5046
3765.82	5115
3767.464	4954
3769.109	4951
3770.753	4919
3772.396	4884
3774.04	4959
3775.683	4943
3777.325	4978
3778.967	4871
3780.608	5026
3782.25	4875
3783.89	4991
3785.531	4887
3787.17	4873
3788.81	4927
3790.45	4948
3792.09	4833
3793.729	4854
3795.366	4742
3797.003	4847
3798.64	4858
3800.278	4840
3801.915	4860
3803.551	4915
3805.187	4764
3806.822	4820
3808.458	4769
3810.093	4745
3811.726	4749
3813.36	4862
3814.994	4827
3816.627	4785
3818.262	4752
3819.893	4725
3821.525	4701
3823.157	4760
3824.787	4785
3826.42	4783
3828.051	4716
3829.68	4754
3831.31	4738
3832.938	4739
3834.569	4752
3836.198	4758
3837.825	4760
3839.454	4765
3841.08	4777
3842.708	4724
3844.335	4694
3845.962	4754
3847.587	4632
3849.212	4647
3850.838	4725
3852.463	4717
3854.089	4555
3855.712	4661
3857.335	4730
3858.959	4734
3860.582	4574
3862.205	4664
3863.827	4690
3865.449	4702
3867.07	4726
3868.691	4606
3870.312	4670
3871.933	4623
3873.553	4593
3875.173	4651
3876.792	4611
3878.411	4660
3880.03	4605
3881.647	4562
3883.265	4622
3884.882	4550
3886.499	4654
3888.116	4601
3889.732	4639
3891.348	4589
3892.964	4602
3894.579	4562
3896.195	4610
3897.809	4529
3899.423	4513
3901.036	4545
3902.648	4621
3904.261	4535
3905.875	4495
3907.487	4594
3909.099	4580
3910.709	4567
3912.321	4550
3913.933	4466
3915.542	4478
3917.152	4552
3918.762	4559
3920.37	4501
3921.98	4545
3923.589	4482
3925.196	4516
3926.804	4511
3928.41	4537
3930.018	4520
3931.626	4536
3933.231	4626
3934.838	4542
3936.442	4433
3938.046	4431
3939.653	4435
3941.257	4512
3942.861	4510
3944.464	4367
3946.068	4463
3947.67	4446
3949.273	4492
3950.876	4502
3952.477	4578
3954.078	4495
3955.678	4524
3957.281	4341
3958.881	4374
3960.48	4405
3962.079	4454
3963.678	4444
3965.279	4429
3966.877	4467
3968.475	4378
3970.072	4427
3971.669	4365
3973.266	4385
3974.864	4444
3976.459	4454
3978.055	4458
3979.65	4430
3981.245	4325
3982.841	4435
3984.436	4401
3986.03	4297
3987.623	4353
3989.216	4377
3990.809	4352
3992.403	4358
3993.995	4246
3995.586	4304
3997.177	4361
3998.768	4313
4000.361	4331
4001.951	4275
4003.54	4260
4005.13	4257
4006.719	4197
4008.31	4307
4009.897	4255
4011.485	4123
4013.073	4246
4014.66	4234
4016.247	4182
4017.834	4258
4019.421	4231
4021.006	4128
4022.592	4218
4024.178	4271
4025.763	4217
4027.348	4161
4028.932	4129
4030.515	4159
4032.099	4163
4033.682	4205
4035.266	4125
4036.847	4148
4038.429	4096
4040.011	4113
4041.592	4110
4043.173	4048
4044.755	4181
4046.334	4060
4047.913	4024
4049.494	4048
4051.074	4102
4052.652	4132
4054.23	4118
4055.807	4091
4057.385	4052
4058.963	4107
4060.541	4133
4062.117	4097
4063.693	4128
4065.269	4169
4066.844	3981
4068.42	4076
4069.995	4032
4071.569	4097
4073.143	4050
4074.716	4050
4076.291	4138
4077.864	4025
4079.436	4021
4081.009	4039
4082.58	4022
4084.152	4029
4085.723	4102
4087.294	4129
4088.865	4046
4090.435	4062
4092.005	4041
4093.574	3991
4095.143	3984
4096.712	4006
4098.279	4009
4099.848	4106
4101.416	3955
4102.984	3954
4104.55	3944
4106.117	3959
4107.682	3988
4109.248	3958
4110.815	4059
4112.379	3948
4113.945	4012
4115.508	3959
4117.073	3975
4118.637	3934
4120.201	3908
4121.763	3936
4123.325	3879
4124.888	3815
4126.449	3937
4128.013	3946
4129.573	3852
4131.133	3900
4132.694	3907
4134.254	3825
4135.814	3846
4137.374	3815
4138.933	3804
4140.491	3871
4142.049	3849
4143.607	3821
4145.167	3851
4146.724	3889
4148.28	3829
4149.836	3828
4151.392	3761
4152.949	3748
4154.504	3821
4156.059	3811
4157.614	3866
4159.168	3783
4160.723	3821
4162.277	3822
4163.83	3747
4165.383	3715
4166.936	3715
4168.488	3847
4170.041	3806
4171.593	3765
4173.144	3853
4174.695	3737
4176.246	3730
4177.796	3759
4179.346	3684
4180.896	3789
4182.445	3722
4183.994	3724
4185.542	3720
4187.091	3647
4188.639	3644
4190.185	3721
4191.732	3688
4193.279	3749
4194.826	3652
4196.373	3757
4197.918	3695
4199.463	3654
4201.008	3618
4202.553	3633
4204.098	3665
4205.641	3706
4207.185	3614
4208.728	3638
4210.271	3678
4211.814	3656
4213.357	3645
4214.898	3686
4216.439	3669
4217.98	3649
4219.522	3604
4221.062	3665
4222.603	3594
4224.142	3640
4225.681	3584
4227.222	3592
4228.76	3517
4230.298	3616
4231.835	3642
4233.373	3582
4234.911	3629
4236.449	3606
4237.985	3594
4239.521	3575
4241.057	3620
4242.592	3577
4244.128	3560
4245.663	3549
4247.197	3662
4248.731	3575
4250.265	3604
4251.798	3536
4253.333	3564
4254.865	3531
4256.397	3607
4257.93	3498
4259.461	3507
4260.994	3484
4262.525	3540
4264.056	3608
4265.586	3508
4267.115	3455
4268.646	3545
4270.176	3530
4271.705	3505
4273.232	3492
4274.761	3492
4276.289	3513
4277.818	3456
4279.345	3514
4280.872	3550
4282.399	3524
4283.924	3475
4285.452	3449
4286.976	3411
4288.502	3460
4290.026	3390
4291.551	3429
4293.074	3403
4294.6	3397
4296.123	3425
4297.646	3402
4299.168	3487
4300.691	3398
4302.214	3457
4303.736	3419
4305.257	3423
4306.778	3439
4308.299	3382
4309.82	3470
4311.34	3429
4312.86	3453
4314.379	3406
