400.0745	3737
402.597	3881
405.1208	3852
407.6419	3787
410.1623	3838
412.6819	3892
415.201	3915
417.7172	3853
420.2369	3964
422.7538	3978
425.2701	3962
427.7856	4081
430.3005	4056
432.8147	4043
435.3282	4061
437.841	4098
440.3511	4111
442.8625	4105
445.3753	4041
447.8854	3992
450.3927	4086
452.9014	4010
455.4073	4122
457.9146	4061
460.4233	3951
462.9272	4099
465.4325	4015
467.935	4068
470.4389	3947
472.9421	3995
475.4446	3952
477.9444	3995
480.4456	4036
482.944	4078
485.4417	3992
487.9429	4080
490.4393	4017
492.935	4013
495.4321	4014
497.9264	4111
500.4221	4160
502.9171	4068
505.4094	4101
507.9011	4119
510.392	4155
512.8864	4194
515.3759	4111
517.8649	4147
520.3531	4121
522.8406	4035
525.3275	4157
527.8178	4245
530.3033	4061
532.7881	4236
535.2723	4183
537.7558	4227
540.2407	4073
542.7228	4109
545.2043	4174
547.6851	4160
550.1652	4227
552.6467	4208
555.1255	4165
557.6016	4114
560.079	4254
562.5557	4250
565.0318	4237
567.5092	4346
569.984	4305
572.456	4317
574.9294	4307
577.4022	4264
579.8762	4293
582.3456	4376
584.8163	4385
587.2863	4444
589.7557	4434
592.2224	4426
594.6924	4447
597.1578	4416
599.6245	4391
602.0905	4348
604.5538	4466
607.0206	4340
609.4825	4335
611.9459	4341
614.4066	4373
616.8686	4398
619.33	4310
621.7906	4402
624.2487	4248
626.708	4302
629.1647	4235
631.6207	4300
634.0801	4233
636.5348	4328
638.9888	4313
641.4442	4329
643.8969	4320
646.3509	4380
648.8022	4371
651.255	4277
653.705	4344
656.1544	4393
658.6031	4341
661.0532	4307
663.5026	4476
665.9493	4341
668.3954	4341
670.8409	4374
673.2877	4399
675.7318	4382
678.1752	4401
680.618	4369
683.0601	4427
685.5035	4401
687.9444	4356
690.3845	4423
692.824	4372
695.2628	4553
697.701	4377
700.1406	4469
702.5774	4458
705.0116	4493
707.4472	4466
709.8821	4594
712.3183	4530
714.7519	4509
717.1829	4500
719.6151	4480
722.0468	4578
724.4777	4604
726.908	4567
729.3377	4581
731.7667	4572
734.1931	4583
736.6208	4599
739.0498	4618
741.4742	4598
743.9	4645
746.3231	4666
748.7476	4756
751.1713	4740
753.5945	4613
756.015	4680
758.4368	4753
760.856	4693
763.2766	4808
765.6965	4787
768.1157	4768
770.5323	4792
772.9483	4771
775.3656	4809
777.7822	4807
780.1963	4777
782.6116	4745
785.0244	4758
787.4365	4768
789.8499	4713
792.2626	4755
794.6728	4774
797.0823	4808
799.4911	4848
801.8994	4802
804.3109	4730
806.7178	4849
809.124	4823
811.5297	4848
813.9347	4804
816.341	4867
818.7447	4777
821.1478	4973
823.5502	4902
825.952	4881
828.3531	4900
830.7556	4915
833.1554	4856
835.5546	4942
837.9532	4863
840.3511	4940
842.7504	4838
845.1451	4972
847.5411	4837
849.9365	4992
852.3312	5049
854.7272	5019
857.1187	4983
859.5115	5049
861.9037	5013
864.2952	4916
866.6842	5054
869.0764	4951
871.4661	4937
873.8531	5024
876.2415	5039
878.6272	4968
881.0162	4942
883.4026	4995
885.7866	4940
888.1717	5018
890.5543	4971
892.9382	4938
895.3215	4981
897.7041	4859
900.0842	4902
902.4655	4925
904.8443	4979
907.2244	5039
909.6039	4983
911.9808	5011
914.357	5193
916.7346	5062
919.1115	5205
921.4859	5318
923.8616	5200
926.2347	5280
928.6071	5270
930.979	5215
933.3541	5259
935.7247	5378
938.0946	5318
940.4639	5521
942.8326	5442
945.2026	5508
947.5701	5784
949.9369	5749
952.305	5977
954.6705	6415
957.0355	6656
959.4017	6974
961.7654	7024
964.1284	7097
966.4908	6895
968.8527	6529
971.2138	6144
973.5743	5779
975.9343	5592
978.2936	5444
980.6522	5349
983.0122	5247
985.3696	5088
987.7245	5177
990.0807	5134
992.4362	5142
994.7911	5098
997.1474	4997
999.4991	5107
1001.852	5234
1004.205	5225
1006.555	5241
1008.908	5171
1011.258	5336
1013.606	5062
1015.956	5259
1018.302	5132
1020.652	5203
1022.998	5109
1025.345	5279
1027.691	5309
1030.035	5217
1032.378	5328
1034.724	5294
1037.066	5310
1039.409	5270
1041.75	5331
1044.092	5300
1046.433	5328
1048.771	5388
1051.112	5218
1053.449	5276
1055.786	5265
1058.124	5320
1060.462	5327
1062.797	5238
1065.131	5284
1067.467	5415
1069.8	5525
1072.135	5512
1074.467	5486
1076.798	5358
1079.129	5416
1081.459	5343
1083.792	5248
1086.121	5260
1088.449	5393
1090.777	5287
1093.104	5307
1095.431	5277
1097.759	5216
1100.084	5369
1102.408	5157
1104.732	5305
1107.056	5218
1109.379	5275
1111.701	5256
1114.022	5236
1116.343	5244
1118.664	5207
1120.983	5285
1123.303	5096
1125.621	5173
1127.939	5170
1130.256	5167
1132.573	5164
1134.889	5168
1137.205	5120
1139.52	5179
1141.832	5103
1144.146	5107
1146.461	5205
1148.771	5254
1151.083	5153
1153.392	5248
1155.703	5235
1158.011	5143
1160.323	5259
1162.629	5289
1164.938	5198
1167.243	5357
1169.55	5274
1171.857	5252
1174.163	5198
1176.466	5242
1178.769	5341
1181.073	5222
1183.374	5364
1185.677	5248
1187.979	5181
1190.279	5187
1192.578	5304
1194.878	5199
1197.178	5244
1199.476	5210
1201.772	5331
1204.068	5310
1206.366	5316
1208.663	5239
1210.957	5207
1213.251	5212
1215.544	5284
1217.836	5217
1220.128	5249
1222.421	5266
1224.712	5281
1227.002	5289
1229.292	5293
1231.581	5224
1233.871	5446
1236.159	5403
1238.446	5422
1240.732	5455
1243.018	5486
1245.304	5614
1247.59	5519
1249.874	5536
1252.156	5536
1254.439	5545
1256.721	5505
1259.005	5545
1261.286	5485
1263.565	5450
1265.845	5676
1268.125	5642
1270.403	5500
1272.682	5444
1274.959	5513
1277.234	5518
1279.511	5540
1281.787	5473
1284.062	5569
1286.337	5541
1288.609	5477
1290.882	5388
1293.153	5433
1295.428	5428
1297.698	5465
1299.969	5250
1302.237	5292
1304.507	5283
1306.777	5336
1309.044	5334
1311.312	5329
1313.578	5334
1315.844	5267
1318.109	5353
1320.375	5344
1322.638	5350
1324.903	5363
1327.165	5344
1329.427	5388
1331.69	5377
1333.952	5386
1336.212	5263
1338.471	5466
1340.73	5426
1342.988	5315
1345.248	5392
1347.505	5381
1349.763	5420
1352.019	5302
1354.274	5343
1356.53	5414
1358.784	5296
1361.038	5422
1363.291	5266
1365.543	5297
1367.797	5363
1370.048	5326
1372.296	5298
1374.546	5281
1376.796	5485
1379.045	5374
1381.295	5321
1383.542	5354
1385.787	5484
1388.034	5381
1390.28	5550
1392.527	5519
1394.772	5450
1397.014	5516
1399.258	5470
1401.501	5457
1403.741	5497
1405.985	5455
1408.226	5389
1410.465	5383
1412.705	5466
1414.943	5525
1417.184	5474
1419.42	5567
1421.658	5624
1423.894	5630
1426.13	5594
1428.366	5562
1430.602	5495
1432.835	5596
1435.069	5566
1437.301	5515
1439.535	5604
1441.767	5544
1443.997	5655
1446.229	5601
1448.458	5761
1450.687	5684
1452.916	5949
1455.146	5671
1457.372	5731
1459.599	5690
1461.824	5641
1464.051	5608
1466.277	5668
1468.501	5695
1470.725	5596
1472.948	5615
1475.17	5494
1477.393	5451
1479.614	5558
1481.837	5498
1484.057	5468
1486.276	5408
1488.497	5307
1490.715	5288
1492.932	5320
1495.148	5298
1497.364	5365
1499.58	5377
1501.798	5339
1504.012	5391
1506.227	5230
1508.44	5319
1510.653	5224
1512.866	5293
1515.078	5225
1517.289	5264
1519.5	5309
1521.711	5257
1523.92	5279
1526.13	5306
1528.338	5199
1530.544	5283
1532.752	5296
1534.959	5318
1537.165	5209
1539.371	5294
1541.574	5391
1543.779	5261
1545.983	5254
1548.187	5291
1550.39	5383
1552.59	5364
1554.792	5334
1556.991	5350
1559.19	5426
1561.392	5298
1563.59	5390
1565.789	5411
1567.986	5378
1570.182	5420
1572.381	5430
1574.576	5398
1576.771	5360
1578.966	5391
1581.16	5444
1583.354	5374
1585.546	5421
1587.74	5415
1589.931	5555
1592.121	5400
1594.311	5516
1596.502	5399
1598.693	5509
1600.881	5409
1603.069	5495
1605.256	5501
1607.445	5527
1609.631	5427
1611.816	5449
1614.001	5544
1616.186	5418
1618.37	5628
1620.555	5509
1622.737	5514
1624.919	5556
1627.101	5423
1629.282	5543
1631.463	5583
1633.643	5639
1635.822	5614
1638.001	5679
1640.179	5647
1642.359	5638
1644.534	5588
1646.711	5649
1648.887	5601
1651.062	5574
1653.235	5639
1655.412	5588
1657.586	5647
1659.757	5692
1661.93	5705
1664.1	5771
1666.274	5715
1668.445	5703
1670.614	5789
1672.784	5839
1674.951	5756
1677.12	5760
1679.289	5683
1681.457	5712
1683.622	5742
1685.789	5729
1687.953	5591
1690.121	5740
1692.284	5645
1694.447	5601
1696.611	5602
1698.772	5493
1700.935	5543
1703.098	5552
1705.258	5499
1707.417	5514
1709.576	5465
1711.736	5415
1713.896	5361
1716.053	5412
1718.21	5359
1720.366	5427
1722.522	5451
1724.68	5401
1726.835	5351
1728.989	5432
1731.142	5410
1733.295	5375
1735.449	5437
1737.601	5445
1739.753	5455
1741.903	5316
1744.054	5422
1746.203	5339
1748.354	5373
1750.503	5482
1752.651	5438
1754.798	5284
1756.944	5368
1759.092	5466
1761.238	5375
1763.383	5456
1765.528	5489
1767.672	5457
1769.814	5451
1771.959	5437
1774.102	5454
1776.242	5355
1778.384	5354
1780.525	5523
1782.665	5440
1784.805	5474
1786.945	5443
1789.082	5381
1791.22	5465
1793.36	5435
1795.495	5416
1797.632	5487
1799.766	5350
1801.902	5530
1804.035	5515
1806.172	5400
1808.304	5454
1810.436	5440
1812.569	5359
1814.699	5479
1816.833	5447
1818.963	5459
1821.092	5472
1823.222	5400
1825.35	5397
1827.478	5470
1829.608	5503
1831.734	5317
1833.86	5426
1835.986	5472
1838.11	5386
1840.238	5350
1842.362	5432
1844.485	5416
1846.608	5356
1848.73	5399
1850.853	5297
1852.974	5380
1855.097	5327
1857.217	5287
1859.336	5470
1861.455	5339
1863.576	5424
1865.693	5377
1867.811	5430
1869.926	5482
1872.042	5264
1874.16	5403
1876.275	5375
1878.39	5327
1880.504	5339
1882.618	5401
1884.731	5350
1886.843	5312
1888.956	5386
1891.067	5431
1893.178	5401
1895.287	5375
1897.399	5440
1899.508	5473
1901.617	5341
1903.724	5427
1905.832	5473
1907.941	5380
1910.046	5374
1912.152	5287
1914.256	5519
1916.361	5513
1918.464	5446
1920.57	5435
1922.672	5434
1924.775	5423
1926.876	5487
1928.978	5484
1931.08	5419
1933.181	5410
1935.28	5463
1937.38	5429
1939.478	5496
1941.577	5497
1943.675	5424
1945.771	5446
1947.867	5350
1949.964	5366
1952.058	5485
1954.154	5472
1956.248	5466
1958.343	5398
1960.435	5495
1962.527	5488
1964.62	5526
1966.711	5481
1968.802	5423
1970.892	5337
1972.983	5439
1975.072	5436
1977.162	5385
1979.25	5417
1981.337	5325
1983.424	5382
1985.51	5428
1987.598	5387
1989.683	5446
1991.768	5512
1993.852	5568
1995.934	5546
1998.019	5360
2000.102	5330
2002.184	5410
2004.266	5440
2006.347	5400
2008.427	5294
2010.508	5339
2012.587	5377
2014.666	5435
2016.745	5299
2018.821	5318
2020.9	5400
2022.977	5396
2025.052	5352
2027.128	5343
2029.204	5401
2031.277	5374
2033.353	5408
2035.425	5283
2037.499	5350
2039.57	5361
2041.642	5409
2043.714	5338
2045.786	5297
2047.855	5403
2049.925	5513
2051.993	5240
2054.064	5379
2056.132	5361
2058.2	5485
2060.266	5373
2062.332	5296
2064.398	5389
2066.465	5410
2068.529	5502
2070.592	5395
2072.657	5433
2074.719	5228
2076.783	5489
2078.845	5453
2080.907	5355
2082.968	5398
2085.028	5370
2087.087	5337
2089.148	5388
2091.207	5417
2093.264	5372
2095.322	5393
2097.379	5393
2099.439	5446
2101.495	5476
2103.55	5397
2105.605	5345
2107.658	5355
2109.713	5352
2111.767	5335
2113.82	5405
2115.872	5347
2117.924	5410
2119.975	5330
2122.028	5337
2124.078	5360
2126.126	5350
2128.176	5332
2130.225	5422
2132.275	5338
2134.321	5313
2136.368	5267
2138.415	5337
2140.461	5321
2142.505	5327
2144.552	5375
2146.597	5345
2148.64	5236
2150.684	5309
2152.725	5292
2154.77	5372
2156.811	5435
2158.852	5355
2160.894	5377
2162.933	5450
2164.973	5313
2167.013	5364
2169.051	5259
2171.089	5279
2173.126	5287
2175.164	5294
2177.201	5283
2179.236	5226
2181.273	5162
2183.307	5338
2185.341	5242
2187.377	5261
2189.41	5184
2191.442	5318
2193.473	5186
2195.506	5270
2197.539	5239
2199.569	5194
2201.598	5184
2203.628	5279
2205.656	5169
2207.686	5190
2209.716	5298
2211.743	5224
2213.769	5153
2215.796	5158
2217.821	5089
2219.848	5173
2221.873	5168
2223.897	5187
2225.921	5197
2227.944	5180
2229.967	5274
2231.991	5237
2234.011	5237
2236.032	5191
2238.053	5255
2240.073	5202
2242.094	5064
2244.114	5254
2246.131	5194
2248.149	5217
2250.167	5281
2252.186	5208
2254.201	5226
2256.218	5309
2258.233	5109
2260.247	5172
2262.262	5310
2264.278	5206
2266.29	5178
2268.303	5153
2270.315	5128
2272.327	5248
2274.341	5262
2276.35	5261
2278.361	5210
2280.37	5179
2282.38	5206
2284.388	5229
2286.397	5145
2288.405	5124
2290.412	5134
2292.419	5253
2294.425	5224
2296.431	5111
2298.437	5250
2300.441	5262
2302.445	5228
2304.449	5229
2306.453	5208
2308.455	5174
2310.457	5139
2312.459	5215
2314.46	5170
2316.46	5223
2318.461	5074
2320.46	5155
2322.458	5317
2324.458	5105
2326.456	5241
2328.455	5195
2330.451	5179
2332.447	5095
2334.443	5222
2336.438	5154
2338.433	5137
2340.429	5172
2342.422	5068
2344.416	5106
2346.408	5180
2348.399	5064
2350.393	5108
2352.384	5051
2354.375	5073
2356.365	5195
2358.355	5151
2360.344	5131
2362.333	5093
2364.322	5133
2366.309	5035
2368.295	5053
2370.282	5099
2372.27	5019
2374.256	4984
2376.24	5126
2378.225	5045
2380.208	5065
2382.194	4997
2384.177	4983
2386.159	5060
2388.142	4939
2390.122	4951
2392.105	5070
2394.085	4992
2396.066	5022
2398.044	5011
2400.024	5061
2402.002	4982
2403.982	5016
2405.959	4954
2407.935	4995
2409.913	4977
2411.888	5014
2413.865	5008
2415.84	4979
2417.814	4949
2419.788	4935
2421.762	4987
2423.735	5011
2425.708	4952
2427.68	4920
2429.651	5048
2431.623	5048
2433.593	5034
2435.564	5025
2437.533	4952
2439.502	5075
2441.47	5028
2443.438	5025
2445.406	5005
2447.373	4943
2449.34	4989
2451.305	4962
2453.271	4987
2455.235	5042
2457.201	5051
2459.165	4890
2461.129	4861
2463.092	4962
2465.054	4999
2467.018	4961
2468.978	4982
2470.939	4952
2472.899	4912
2474.86	4830
2476.819	4873
2478.778	4900
2480.737	5068
2482.695	4948
2484.653	4839
2486.609	4871
2488.567	4895
2490.524	5007
2492.478	4993
2494.433	4982
2496.387	4935
2498.343	4860
2500.297	4888
2502.249	4980
2504.202	4912
2506.153	4877
2508.105	4885
2510.057	4945
2512.008	4838
2513.957	4809
2515.906	4923
2517.855	4932
2519.805	4863
2521.754	4889
2523.7	4871
2525.647	4923
2527.594	4904
2529.54	4912
2531.486	4918
2533.431	4856
2535.376	4869
2537.32	4968
2539.263	4822
2541.207	4796
2543.151	4990
2545.093	4897
2547.034	4867
2548.975	4917
2550.917	4847
2552.856	4868
2554.796	4914
2556.735	4882
2558.673	4771
2560.611	4876
2562.55	4846
2564.487	4958
2566.424	4893
2568.36	4888
2570.296	4845
2572.232	4819
2574.167	4989
2576.101	4857
2578.035	4872
2579.969	4910
2581.902	4882
2583.834	4811
2585.766	4876
2587.698	4852
2589.628	4948
2591.557	4862
2593.489	4868
2595.419	4862
2597.348	4880
2599.275	4860
2601.204	4964
2603.131	4780
2605.059	4820
2606.986	4944
2608.911	4930
2610.837	4784
2612.76	4785
2614.687	4914
2616.61	4844
2618.534	4888
2620.457	4901
2622.38	4918
2624.302	4930
2626.225	4865
2628.145	4922
2630.067	4917
2631.986	4883
2633.906	4835
2635.827	4850
2637.745	4903
2639.662	4925
2641.581	4827
2643.498	4894
2645.415	4929
2647.331	4935
2649.248	4906
2651.163	4907
2653.077	4921
2654.993	4889
2656.906	4821
2658.821	4891
2660.733	4867
2662.646	4841
2664.557	4889
2666.47	4944
2668.381	4899
2670.291	4881
2672.201	4878
2674.11	4794
2676.021	4846
2677.929	4927
2679.837	4809
2681.745	4819
2683.652	4791
2685.56	4834
2687.466	4815
2689.371	4780
2691.276	4779
2693.181	4812
2695.085	4820
2696.991	4826
2698.893	4802
2700.796	4764
2702.698	4805
2704.601	4765
2706.502	4794
2708.404	4798
2710.304	4848
2712.203	4850
2714.103	4844
2716.003	4683
2717.902	4691
2719.8	4818
2721.697	4813
2723.594	4826
2725.49	4810
2727.389	4764
2729.283	4716
2731.179	4756
2733.073	4793
2734.968	4781
2736.863	4751
2738.757	4844
2740.649	4740
2742.541	4764
2744.433	4823
2746.324	4804
2748.216	4684
2750.107	4758
2751.997	4814
2753.886	4634
2755.776	4763
2757.666	4880
2759.553	4764
2761.44	4716
2763.327	4712
2765.215	4805
2767.102	4751
2768.988	4703
2770.873	4750
2772.757	4634
2774.641	4711
2776.525	4705
2778.41	4707
2780.292	4712
2782.175	4733
2784.057	4731
2785.938	4703
2787.821	4737
2789.701	4687
2791.581	4722
2793.461	4734
2795.34	4676
2797.219	4704
2799.099	4620
2800.975	4661
2802.853	4729
2804.73	4592
2806.606	4690
2808.484	4630
2810.358	4679
2812.233	4744
2814.108	4583
2815.981	4842
2817.857	4685
2819.73	4655
2821.602	4704
2823.474	4617
2825.346	4736
2827.217	4733
2829.089	4677
2830.959	4806
2832.829	4698
2834.698	4675
2836.567	4745
2838.436	4708
2840.305	4836
2842.172	4706
2844.04	4791
2845.905	4746
2847.772	4786
2849.639	4710
2851.503	4801
2853.369	4702
2855.232	4781
2857.096	4884
2858.961	4798
2860.824	4794
2862.686	4924
2864.547	4950
2866.41	4900
2868.272	4961
2870.132	5127
2871.992	5142
2873.851	5079
2875.711	5233
2877.57	5297
2879.429	5316
2881.287	5279
2883.144	5388
2885.001	5334
2886.857	5283
2888.714	5423
2890.57	5423
2892.425	5357
2894.279	5326
2896.133	5354
2897.987	5410
2899.842	5384
2901.694	5406
2903.547	5414
2905.397	5272
2907.249	5375
2909.101	5428
2910.952	5405
2912.802	5555
2914.652	5510
2916.5	5518
2918.35	5483
2920.198	5707
2922.045	5792
2923.893	5831
2925.74	5885
2927.585	5981
2929.433	6005
2931.279	6063
2933.123	6224
2934.968	6247
2936.811	6373
2938.656	6465
2940.5	6495
2942.342	6541
2944.185	6575
2946.026	6490
2947.87	6465
2949.71	6387
2951.549	6396
2953.39	6316
2955.229	6257
2957.069	6304
2958.908	6057
2960.746	6161
2962.584	5979
2964.421	5895
2966.257	5880
2968.094	5853
2969.931	5712
2971.766	5709
2973.601	5677
2975.435	5696
2977.27	5610
2979.105	5515
2980.938	5607
2982.77	5571
2984.602	5617
2986.434	5568
2988.267	5529
2990.097	5589
2991.927	5432
2993.757	5317
2995.587	5279
2997.417	5311
2999.246	5299
3001.074	5188
3002.902	5104
3004.729	5144
3006.556	4954
3008.384	4974
3010.21	4863
3012.036	4899
3013.861	4746
3015.684	4750
3017.51	4648
3019.334	4721
3021.157	4741
3022.981	4689
3024.802	4637
3026.624	4531
3028.448	4610
3030.267	4522
3032.088	4498
3033.909	4477
3035.728	4597
3037.549	4579
3039.368	4478
3041.186	4469
3043.004	4489
3044.821	4437
3046.64	4451
3048.455	4510
3050.272	4515
3052.087	4553
3053.903	4421
3055.717	4425
3057.534	4466
3059.347	4420
3061.16	4468
3062.974	4491
3064.785	4457
3066.598	4485
3068.411	4513
3070.222	4378
3072.032	4469
3073.844	4400
3075.653	4342
3077.463	4463
3079.272	4360
3081.08	4443
3082.889	4383
3084.697	4252
3086.505	4348
3088.312	4288
3090.118	4347
3091.924	4308
3093.729	4362
3095.535	4356
3097.34	4338
3099.144	4322
3100.947	4347
3102.75	4265
3104.553	4328
3106.357	4236
3108.159	4307
3109.961	4249
3111.762	4382
3113.562	4268
3115.365	4232
3117.164	4245
3118.964	4194
3120.761	4290
3122.56	4165
3124.36	4274
3126.158	4338
3127.954	4260
3129.75	4212
3131.547	4189
3133.343	4184
3135.139	4200
3136.934	4170
3138.729	4260
3140.522	4274
3142.317	4277
3144.11	4114
3145.904	4215
3147.695	4187
3149.488	4238
3151.28	4243
3153.07	4165
3154.863	4164
3156.652	4142
3158.441	4149
3160.231	4212
3162.019	4199
3163.81	4129
3165.597	4173
3167.384	4197
3169.172	4148
3170.958	4229
3172.745	4185
3174.532	4176
3176.317	4116
3178.101	4142
3179.885	4042
3181.67	4141
3183.455	4196
3185.238	4229
3187.02	4100
3188.802	4095
3190.585	4260
3192.368	4155
3194.149	4162
3195.929	4176
3197.709	4155
3199.489	4130
3201.268	4109
3203.048	4220
3204.826	4146
3206.604	4126
3208.382	4193
3210.159	4095
3211.937	4173
3213.713	4140
3215.489	4134
3217.263	4142
3219.038	4160
3220.815	4167
3222.589	4086
3224.363	4103
3226.136	4222
3227.908	4120
3229.681	4141
3231.454	4154
3233.226	4134
3234.996	4176
3236.767	4225
3238.538	4159
3240.308	4175
3242.078	4167
3243.847	4149
3245.615	4135
3247.384	4088
3249.15	4128
3250.92	4215
3252.686	4149
3254.453	4178
3256.218	4163
3257.984	4125
3259.75	4268
3261.515	4102
3263.279	4266
3265.044	4161
3266.806	4137
3268.57	4098
3270.334	4141
3272.095	4126
3273.856	4112
3275.619	4125
3277.379	4132
3279.14	4206
3280.9	4219
3282.661	4247
3284.419	4142
3286.178	4153
3287.937	4205
3289.695	4149
3291.453	4188
3293.21	4220
3294.967	4059
3296.723	4150
3298.48	4167
3300.235	4197
3301.99	4226
3303.744	4262
3305.498	4218
3307.253	4250
3309.006	4203
3310.759	4265
3312.511	4214
3314.263	4223
3316.017	4029
3317.768	4200
3319.519	4149
3321.268	4243
3323.018	4194
3324.767	4136
3326.518	4203
3328.267	4087
3330.014	4212
3331.762	4105
3333.509	4269
3335.258	4132
3337.003	4161
3338.75	4207
3340.496	4182
3342.24	4067
3343.987	4180
3345.732	4137
3347.475	4079
3349.219	4145
3350.961	4112
3352.705	4141
3354.448	4173
3356.19	4104
3357.931	4239
3359.672	4059
3361.412	4139
3363.155	4101
3364.894	4200
3366.633	4153
3368.372	3970
3370.11	4067
3371.849	4094
3373.588	4128
3375.325	4060
3377.061	4143
3378.799	4000
3380.534	4014
3382.271	3934
3384.006	3986
3385.741	3983
3387.475	4057
3389.209	4043
3390.944	3966
3392.677	4015
3394.409	4036
3396.143	4033
3397.874	4005
3399.606	4028
3401.338	3929
3403.069	3977
3404.799	3979
3406.528	3987
3408.258	3958
3409.988	3886
3411.717	3960
3413.445	3932
3415.173	3941
3416.899	3966
3418.626	3992
3420.354	3905
3422.08	3995
3423.806	3874
3425.531	3852
3427.255	3984
3428.981	4041
3430.705	3967
3432.429	3917
3434.151	3967
3435.875	3910
3437.599	3900
3439.321	3848
3441.042	3931
3442.763	3918
3444.483	3840
3446.204	3875
3447.926	3909
3449.645	3860
3451.364	3877
3453.082	3754
3454.801	3821
3456.52	3794
3458.238	3804
3459.954	3852
3461.671	3800
3463.387	3823
3465.104	3830
3466.82	3778
3468.534	3896
3470.25	3815
3471.963	3805
3473.676	3758
3475.392	3841
3477.104	3811
3478.817	3777
3480.528	3832
3482.241	3763
3483.954	3700
3485.664	3702
3487.374	3685
3489.084	3768
3490.795	3770
3492.504	3718
3494.214	3796
3495.922	3642
3497.63	3733
3499.338	3714
3501.045	3716
3502.753	3758
3504.459	3645
3506.166	3709
3507.871	3722
3509.576	3697
3511.283	3691
3512.987	3634
3514.691	3629
3516.395	3562
3518.098	3595
3519.8	3694
3521.504	3638
3523.206	3683
3524.908	3625
3526.609	3554
3528.309	3597
3530.011	3627
3531.711	3592
3533.411	3622
3535.109	3569
3536.808	3632
3538.507	3616
3540.206	3645
3541.904	3534
3543.601	3605
3545.297	3549
3546.994	3591
3548.69	3564
3550.387	3586
3552.081	3559
3553.776	3562
3555.47	3542
3557.166	3515
3558.859	3604
3560.553	3461
3562.245	3620
3563.938	3533
3565.629	3495
3567.322	3492
3569.014	3474
3570.704	3522
3572.394	3447
3574.084	3492
3575.775	3598
3577.464	3426
3579.152	3528
3580.842	3537
3582.529	3507
3584.216	3442
3585.905	3537
3587.591	3515
3589.279	3451
3590.964	3402
3592.649	3447
3594.336	3371
3596.021	3462
3597.705	3391
3599.388	3492
3601.072	3403
3602.757	3415
3604.439	3373
3606.122	3365
3607.803	3379
3609.485	3278
3611.167	3376
3612.849	3377
3614.529	3351
3616.208	3313
3617.888	3325
3619.567	3317
3621.247	3324
3622.926	3341
3624.603	3366
3626.281	3323
3627.958	3301
3629.635	3355
3631.312	3324
3632.989	3256
3634.665	3247
3636.339	3204
3638.014	3258
3639.691	3286
3641.364	3321
3643.038	3319
3644.71	3257
3646.384	3299
3648.058	3198
3649.729	3271
3651.402	3227
3653.073	3170
3654.744	3283
3656.414	3180
3658.085	3226
3659.755	3212
3661.424	3258
3663.094	3123
3664.762	3179
3666.431	3242
3668.099	3207
3669.766	3162
3671.433	3118
3673.099	3187
3674.768	3183
3676.433	3217
3678.098	3203
3679.763	3198
3681.428	3097
3683.093	3182
3684.757	3182
3686.421	3161
3688.083	3222
3689.746	3073
3691.408	3238
3693.071	3144
3694.733	3229
3696.394	3128
3698.054	3122
3699.715	3159
3701.375	3179
3703.036	3085
3704.695	3094
3706.354	3188
3708.012	3104
3709.67	3186
3711.329	3101
3712.987	3144
3714.644	3114
3716.299	3074
3717.955	3076
3719.613	3149
3721.268	3073
3722.923	3141
3724.577	2983
3726.231	3157
3727.885	3041
3729.539	3116
3731.192	3101
3732.845	3087
3734.497	3149
3736.149	3078
3737.802	3077
3739.453	3097
3741.104	3126
3742.753	3104
3744.404	3151
3746.052	3121
3747.704	3015
3749.352	3059
3751	3049
3752.648	3045
3754.296	3072
3755.944	3085
3757.59	3030
3759.238	2985
3760.883	3092
3762.528	2965
3764.176	2978
3765.82	3005
3767.464	3078
3769.109	3087
3770.753	3031
3772.396	2952
3774.04	2997
3775.683	2975
3777.325	2962
3778.967	2992
3780.608	3034
3782.25	2993
3783.89	3053
3785.531	2986
3787.17	2941
3788.81	2960
3790.45	2982
3792.09	2987
3793.729	2973
3795.366	2994
3797.003	3017
3798.64	2916
3800.278	2981
3801.915	2920
3803.551	2950
3805.187	2899
3806.822	2920
3808.458	2970
3810.093	2893
3811.726	2923
3813.36	2927
3814.994	2934
3816.627	2966
3818.262	2948
3819.893	2929
3821.525	2933
3823.157	2901
3824.787	2929
3826.42	2983
3828.051	2847
3829.68	2896
3831.31	2907
3832.938	2902
3834.569	2852
3836.198	2967
3837.825	2947
3839.454	2861
3841.08	2936
3842.708	2855
3844.335	2934
3845.962	2882
3847.587	2859
3849.212	2928
3850.838	2917
3852.463	2832
3854.089	2844
3855.712	2897
3857.335	2902
3858.959	2822
3860.582	2908
3862.205	2872
3863.827	2892
3865.449	2875
3867.07	2843
3868.691	2808
3870.312	2880
3871.933	2784
3873.553	2843
3875.173	2845
3876.792	2918
3878.411	2782
3880.03	2765
3881.647	2870
3883.265	2806
3884.882	2837
3886.499	2849
3888.116	2814
3889.732	2860
3891.348	2821
3892.964	2856
3894.579	2757
3896.195	2812
3897.809	2807
3899.423	2836
3901.036	2759
3902.648	2863
3904.261	2804
3905.875	2854
3907.487	2865
3909.099	2743
3910.709	2778
3912.321	2835
3913.933	2738
3915.542	2780
3917.152	2841
3918.762	2768
3920.37	2829
3921.98	2823
3923.589	2847
3925.196	2765
3926.804	2719
3928.41	2828
3930.018	2845
3931.626	2784
3933.231	2710
3934.838	2801
3936.442	2793
3938.046	2761
3939.653	2755
3941.257	2738
3942.861	2784
3944.464	2753
3946.068	2752
3947.67	2802
3949.273	2732
3950.876	2766
3952.477	2796
3954.078	2821
3955.678	2683
3957.281	2695
3958.881	2734
3960.48	2733
3962.079	2698
3963.678	2757
3965.279	2811
3966.877	2698
3968.475	2717
3970.072	2657
3971.669	2726
3973.266	2713
3974.864	2782
3976.459	2734
3978.055	2702
3979.65	2744
3981.245	2722
3982.841	2651
3984.436	2685
3986.03	2648
3987.623	2665
3989.216	2712
3990.809	2690
3992.403	2667
3993.995	2714
3995.586	2715
3997.177	2641
3998.768	2654
4000.361	2750
4001.951	2661
4003.54	2626
4005.13	2511
4006.719	2740
4008.31	2650
4009.897	2663
4011.485	2640
4013.073	2622
4014.66	2633
4016.247	2665
4017.834	2640
4019.421	2605
4021.006	2675
4022.592	2626
4024.178	2550
4025.763	2605
4027.348	2591
4028.932	2599
4030.515	2573
4032.099	2646
4033.682	2564
4035.266	2565
4036.847	2532
4038.429	2541
4040.011	2537
4041.592	2560
4043.173	2574
4044.755	2605
4046.334	2573
4047.913	2592
4049.494	2537
4051.074	2580
4052.652	2576
4054.23	2551
4055.807	2598
4057.385	2547
4058.963	2517
4060.541	2549
4062.117	2528
4063.693	2564
4065.269	2514
4066.844	2603
4068.42	2600
4069.995	2510
4071.569	2544
4073.143	2544
4074.716	2498
4076.291	2567
4077.864	2504
4079.436	2548
4081.009	2494
4082.58	2463
4084.152	2532
4085.723	2496
4087.294	2467
4088.865	2508
4090.435	2529
4092.005	2492
4093.574	2510
4095.143	2508
4096.712	2442
4098.279	2499
4099.848	2488
4101.416	2495
4102.984	2518
4104.55	2526
4106.117	2500
4107.682	2489
4109.248	2491
4110.815	2521
4112.379	2467
4113.945	2493
4115.508	2427
4117.073	2426
4118.637	2462
4120.201	2455
4121.763	2477
4123.325	2450
4124.888	2484
4126.449	2460
4128.013	2489
4129.573	2394
4131.133	2447
4132.694	2447
4134.254	2503
4135.814	2384
4137.374	2436
4138.933	2424
4140.491	2442
4142.049	2398
4143.607	2389
4145.167	2412
4146.724	2468
4148.28	2377
4149.836	2422
4151.392	2454
4152.949	2435
4154.504	2445
4156.059	2398
4157.614	2376
4159.168	2444
4160.723	2416
4162.277	2415
4163.83	2372
4165.383	2373
4166.936	2382
4168.488	2374
4170.041	2414
4171.593	2359
4173.144	2413
4174.695	2375
4176.246	2312
4177.796	2349
4179.346	2343
4180.896	2440
4182.445	2383
4183.994	2358
4185.542	2355
4187.091	2437
4188.639	2360
4190.185	2283
4191.732	2327
4193.279	2312
4194.826	2303
4196.373	2331
4197.918	2285
4199.463	2290
4201.008	2292
4202.553	2351
4204.098	2234
4205.641	2348
4207.185	2351
4208.728	2339
4210.271	2339
4211.814	2315
4213.357	2323
4214.898	2355
4216.439	2312
4217.98	2323
4219.522	2308
4221.062	2318
4222.603	2339
4224.142	2327
4225.681	2290
4227.222	2298
4228.76	2341
4230.298	2320
4231.835	2319
4233.373	2317
4234.911	2277
4236.449	2304
4237.985	2303
4239.521	2262
4241.057	2290
4242.592	2230
4244.128	2276
4245.663	2243
4247.197	2337
4248.731	2292
4250.265	2226
4251.798	2278
4253.333	2250
4254.865	2196
4256.397	2218
4257.93	2297
4259.461	2236
4260.994	2214
4262.525	2297
4264.056	2266
4265.586	2276
4267.115	2307
4268.646	2271
4270.176	2230
4271.705	2279
4273.232	2269
4274.761	2251
4276.289	2237
4277.818	2282
4279.345	2285
4280.872	2199
4282.399	2208
4283.924	2221
4285.452	2183
4286.976	2220
4288.502	2299
4290.026	2202
4291.551	2233
4293.074	2281
4294.6	2176
4296.123	2187
4297.646	2216
4299.168	2191
4300.691	2134
4302.214	2169
4303.736	2194
4305.257	2232
4306.778	2207
4308.299	2214
4309.82	2219
4311.34	2222
4312.86	2240
4314.379	2163
