400.0745	6784
402.597	6758
405.1208	6910
407.6419	6845
410.1623	6921
412.6819	6823
415.201	6938
417.7172	6970
420.2369	6894
422.7538	7003
425.2701	7016
427.7856	7219
430.3005	7155
432.8147	7261
435.3282	7180
437.841	7259
440.3511	7215
442.8625	7270
445.3753	7332
447.8854	7222
450.3927	7319
452.9014	7271
455.4073	7333
457.9146	7266
460.4233	7332
462.9272	7365
465.4325	7309
467.935	7404
470.4389	7364
472.9421	7342
475.4446	7398
477.9444	7427
480.4456	7513
482.944	7517
485.4417	7492
487.9429	7438
490.4393	7367
492.935	7522
495.4321	7618
497.9264	7480
500.4221	7541
502.9171	7716
505.4094	7619
507.9011	7542
510.392	7561
512.8864	7734
515.3759	7678
517.8649	7647
520.3531	7643
522.8406	7842
525.3275	7665
527.8178	7707
530.3033	7708
532.7881	7687
535.2723	7662
537.7558	7806
540.2407	7787
542.7228	7838
545.2043	7716
547.6851	7694
550.1652	7734
552.6467	7840
555.1255	7909
557.6016	7688
560.079	7712
562.5557	7668
565.0318	7782
567.5092	7801
569.984	7886
572.456	7896
574.9294	7821
577.4022	8023
579.8762	7973
582.3456	7985
584.8163	8076
587.2863	7935
589.7557	7958
592.2224	8055
594.6924	7987
597.1578	8060
599.6245	7870
602.0905	7948
604.5538	8031
607.0206	8099
609.4825	8097
611.9459	7918
614.4066	7887
616.8686	8035
619.33	7977
621.7906	8055
624.2487	8079
626.708	8037
629.1647	7980
631.6207	7852
634.0801	7885
636.5348	8064
638.9888	8053
641.4442	7888
643.8969	8006
646.3509	8062
648.8022	8145
651.255	8083
653.705	8076
656.1544	8308
658.6031	8216
661.0532	8032
663.5026	8207
665.9493	8273
668.3954	8214
670.8409	8225
673.2877	8234
675.7318	8290
678.1752	8170
680.618	8415
683.0601	8350
685.5035	8166
687.9444	8193
690.3845	8471
692.824	8277
695.2628	8427
697.701	8314
700.1406	8376
702.5774	8398
705.0116	8392
707.4472	8394
709.8821	8380
712.3183	8456
714.7519	8545
717.1829	8408
719.6151	8480
722.0468	8611
724.4777	8490
726.908	8476
729.3377	8427
731.7667	8623
734.1931	8694
736.6208	8651
739.0498	8607
741.4742	8590
743.9	8631
746.3231	8854
748.7476	8708
751.1713	8743
753.5945	8877
756.015	8867
758.4368	8754
760.856	8858
763.2766	8937
765.6965	8921
768.1157	8871
770.5323	8922
772.9483	8950
775.3656	8844
777.7822	8938
780.1963	9018
782.6116	9033
785.0244	8966
787.4365	8878
789.8499	8831
792.2626	8864
794.6728	8873
797.0823	8914
799.4911	8875
801.8994	8869
804.3109	9019
806.7178	9003
809.124	8916
811.5297	9007
813.9347	8990
816.341	9041
818.7447	9089
821.1478	8946
823.5502	9019
825.952	9088
828.3531	9059
830.7556	8964
833.1554	8996
835.5546	9055
837.9532	9165
840.3511	8974
842.7504	9229
845.1451	9176
847.5411	9127
849.9365	9045
852.3312	9138
854.7272	9200
857.1187	9175
859.5115	9212
861.9037	9052
864.2952	9211
866.6842	9001
869.0764	9209
871.4661	9135
873.8531	9064
876.2415	9240
878.6272	9117
881.0162	9086
883.4026	9075
885.7866	9142
888.1717	9216
890.5543	9228
892.9382	9140
895.3215	9175
897.7041	9163
900.0842	9034
902.4655	9200
904.8443	9204
907.2244	9203
909.6039	9228
911.9808	9276
914.357	9312
916.7346	9314
919.1115	9549
921.4859	9405
923.8616	9466
926.2347	9563
928.6071	9417
930.979	9580
933.3541	9467
935.7247	9524
938.0946	9570
940.4639	9546
942.8326	9632
945.2026	9600
947.5701	9630
949.9369	9770
952.305	9866
954.6705	10078
957.0355	10156
959.4017	10360
961.7654	10505
964.1284	10537
966.4908	10552
968.8527	10330
971.2138	10103
973.5743	9921
975.9343	9794
978.2936	9688
980.6522	9540
983.0122	9499
985.3696	9426
987.7245	9457
990.0807	9602
992.4362	9352
994.7911	9421
997.1474	9482
999.4991	9409
1001.852	9518
1004.205	9605
1006.555	9580
1008.908	9520
1011.258	9517
1013.606	9379
1015.956	9498
1018.302	9508
1020.652	9446
1022.998	9479
1025.345	9545
1027.691	9580
1030.035	9579
1032.378	9510
1034.724	9568
1037.066	9575
1039.409	9445
1041.75	9657
1044.092	9596
1046.433	9626
1048.771	9684
1051.112	9569
1053.449	9615
1055.786	9605
1058.124	9739
1060.462	9594
1062.797	9691
1065.131	9604
1067.467	9545
1069.8	9621
1072.135	9726
1074.467	9605
1076.798	9922
1079.129	9779
1081.459	9639
1083.792	9735
1086.121	9788
1088.449	9746
1090.777	9569
1093.104	9596
1095.431	9677
1097.759	9740
1100.084	9674
1102.408	9706
1104.732	9679
1107.056	9695
1109.379	9684
1111.701	9887
1114.022	9867
1116.343	9735
1118.664	9718
1120.983	9724
1123.303	9763
1125.621	9676
1127.939	9830
1130.256	9804
1132.573	9602
1134.889	9649
1137.205	9684
1139.52	9823
1141.832	9727
1144.146	9770
1146.461	9654
1148.771	9744
1151.083	9664
1153.392	9709
1155.703	10062
1158.011	9823
1160.323	9754
1162.629	9794
1164.938	9760
1167.243	9799
1169.55	9812
1171.857	9718
1174.163	9946
1176.466	9767
1178.769	9740
1181.073	9735
1183.374	9809
1185.677	9682
1187.979	9698
1190.279	9698
1192.578	9682
1194.878	9784
1197.178	9753
1199.476	9878
1201.772	10017
1204.068	9712
1206.366	9956
1208.663	9814
1210.957	9722
1213.251	9761
1215.544	9812
1217.836	9765
1220.128	9839
1222.421	9663
1224.712	9761
1227.002	9990
1229.292	9915
1231.581	9957
1233.871	9830
1236.159	10062
1238.446	10055
1240.732	10025
1243.018	10162
1245.304	10069
1247.59	10041
1249.874	10103
1252.156	10099
1254.439	9959
1256.721	10002
1259.005	10046
1261.286	10116
1263.565	10071
1265.845	10119
1268.125	10125
1270.403	10231
1272.682	9959
1274.959	10085
1277.234	10148
1279.511	10010
1281.787	10124
1284.062	10056
1286.337	9997
1288.609	10133
1290.882	9945
1293.153	9978
1295.428	9956
1297.698	9963
1299.969	9913
1302.237	9982
1304.507	9993
1306.777	9955
1309.044	9908
1311.312	9788
1313.578	10002
1315.844	10115
1318.109	9892
1320.375	10014
1322.638	10051
1324.903	9855
1327.165	9976
1329.427	10039
1331.69	10098
1333.952	9967
1336.212	9804
1338.471	9920
1340.73	9999
1342.988	10065
1345.248	9888
1347.505	9988
1349.763	9852
1352.019	9963
1354.274	9947
1356.53	9967
1358.784	9948
1361.038	10039
1363.291	9787
1365.543	9912
1367.797	10062
1370.048	9974
1372.296	10063
1374.546	9899
1376.796	10063
1379.045	10028
1381.295	10032
1383.542	10089
1385.787	9967
1388.034	9948
1390.28	10107
1392.527	9959
1394.772	10230
1397.014	10046
1399.258	10074
1401.501	10162
1403.741	10182
1405.985	10214
1408.226	10285
1410.465	10005
1412.705	10057
1414.943	10253
1417.184	9965
1419.42	10303
1421.658	10074
1423.894	10001
1426.13	10214
1428.366	10168
1430.602	10110
1432.835	10402
1435.069	10204
1437.301	10385
1439.535	10418
1441.767	10500
1443.997	10288
1446.229	10361
1448.458	10408
1450.687	10340
1452.916	10303
1455.146	10403
1457.372	10368
1459.599	10400
1461.824	10408
1464.051	10379
1466.277	10321
1468.501	10371
1470.725	10133
1472.948	10184
1475.17	10232
1477.393	10186
1479.614	10162
1481.837	10046
1484.057	10207
1486.276	10012
1488.497	10026
1490.715	9957
1492.932	9873
1495.148	9981
1497.364	10083
1499.58	9904
1501.798	9885
1504.012	9929
1506.227	10162
1508.44	9839
1510.653	9892
1512.866	9793
1515.078	10070
1517.289	9869
1519.5	10017
1521.711	10020
1523.92	9871
1526.13	9867
1528.338	9879
1530.544	9791
1532.752	9925
1534.959	9990
1537.165	9921
1539.371	10018
1541.574	9982
1543.779	9968
1545.983	10014
1548.187	10082
1550.39	10111
1552.59	9869
1554.792	10036
1556.991	9964
1559.19	10239
1561.392	10242
1563.59	10099
1565.789	10104
1567.986	10129
1570.182	10069
1572.381	10320
1574.576	10042
1576.771	10084
1578.966	10280
1581.16	10125
1583.354	10256
1585.546	10281
1587.74	10228
1589.931	10152
1592.121	10249
1594.311	10174
1596.502	10330
1598.693	10320
1600.881	10322
1603.069	10256
1605.256	10484
1607.445	10260
1609.631	10466
1611.816	10298
1614.001	10228
1616.186	10174
1618.37	10190
1620.555	10073
1622.737	10237
1624.919	10252
1627.101	10169
1629.282	10308
1631.463	10240
1633.643	10346
1635.822	10282
1638.001	10332
1640.179	10223
1642.359	10208
1644.534	10260
1646.711	10269
1648.887	10174
1651.062	10380
1653.235	10182
1655.412	10367
1657.586	10229
1659.757	10429
1661.93	10243
1664.1	10323
1666.274	10373
1668.445	10423
1670.614	10450
1672.784	10356
1674.951	10300
1677.12	10392
1679.289	10338
1681.457	10275
1683.622	10372
1685.789	10402
1687.953	10288
1690.121	10360
1692.284	10336
1694.447	10314
1696.611	10240
1698.772	10261
1700.935	10286
1703.098	10227
1705.258	10249
1707.417	10146
1709.576	10177
1711.736	10136
1713.896	10081
1716.053	10230
1718.21	10168
1720.366	9936
1722.522	10172
1724.68	10111
1726.835	10122
1728.989	10083
1731.142	10212
1733.295	10023
1735.449	10149
1737.601	10077
1739.753	10124
1741.903	10155
1744.054	10089
1746.203	10071
1748.354	10105
1750.503	10238
1752.651	10150
1754.798	10133
1756.944	10092
1759.092	10211
1761.238	10192
1763.383	10252
1765.528	10263
1767.672	10109
1769.814	10262
1771.959	10115
1774.102	10176
1776.242	10211
1778.384	10261
1780.525	10204
1782.665	10262
1784.805	10178
1786.945	10200
1789.082	10254
1791.22	10324
1793.36	10243
1795.495	10082
1797.632	10295
1799.766	10182
1801.902	10202
1804.035	10246
1806.172	10218
1808.304	10150
1810.436	10367
1812.569	10118
1814.699	10321
1816.833	10116
1818.963	10194
1821.092	10184
1823.222	10234
1825.35	10192
1827.478	10274
1829.608	10197
1831.734	10268
1833.86	10171
1835.986	10165
1838.11	10254
1840.238	10060
1842.362	10096
1844.485	10130
1846.608	10131
1848.73	10127
1850.853	9976
1852.974	10161
1855.097	10102
1857.217	10107
1859.336	10078
1861.455	10024
1863.576	10042
1865.693	10071
1867.811	10034
1869.926	10119
1872.042	10050
1874.16	10182
1876.275	10015
1878.39	10064
1880.504	10093
1882.618	10198
1884.731	10130
1886.843	10234
1888.956	10063
1891.067	10087
1893.178	10186
1895.287	10238
1897.399	10028
1899.508	10198
1901.617	10140
1903.724	10096
1905.832	10209
1907.941	10117
1910.046	10145
1912.152	10158
1914.256	10128
1916.361	10143
1918.464	10220
1920.57	10151
1922.672	10214
1924.775	10212
1926.876	10156
1928.978	10336
1931.08	10087
1933.181	10253
1935.28	10254
1937.38	10164
1939.478	10350
1941.577	10306
1943.675	10201
1945.771	10171
1947.867	10204
1949.964	10269
1952.058	10275
1954.154	10176
1956.248	10110
1958.343	10225
1960.435	10210
1962.527	10334
1964.62	10067
1966.711	10265
1968.802	10237
1970.892	10117
1972.983	10210
1975.072	10222
1977.162	10058
1979.25	10071
1981.337	10179
1983.424	10183
1985.51	10033
1987.598	10134
1989.683	10060
1991.768	10030
1993.852	10119
1995.934	10189
1998.019	10181
2000.102	9955
2002.184	10009
2004.266	10056
2006.347	9783
2008.427	10170
2010.508	10133
2012.587	10070
2014.666	10110
2016.745	10047
2018.821	10068
2020.9	10037
2022.977	10019
2025.052	10051
2027.128	10095
2029.204	10242
2031.277	9985
2033.353	10088
2035.425	10054
2037.499	10066
2039.57	10051
2041.642	10038
2043.714	9992
2045.786	10111
2047.855	10038
2049.925	10139
2051.993	9929
2054.064	10067
2056.132	9955
2058.2	10070
2060.266	10000
2062.332	10088
2064.398	9974
2066.465	10048
2068.529	9986
2070.592	10115
2072.657	10080
2074.719	10028
2076.783	9942
2078.845	9930
2080.907	9969
2082.968	10077
2085.028	10093
2087.087	10000
2089.148	10082
2091.207	9954
2093.264	9940
2095.322	10041
2097.379	9953
2099.439	10035
2101.495	10051
2103.55	9998
2105.605	10121
2107.658	9956
2109.713	10131
2111.767	10124
2113.82	10045
2115.872	10088
2117.924	9962
2119.975	9968
2122.028	9999
2124.078	10076
2126.126	9987
2128.176	10023
2130.225	10007
2132.275	9914
2134.321	9988
2136.368	10030
2138.415	10048
2140.461	9964
2142.505	9895
2144.552	10054
2146.597	9858
2148.64	10000
2150.684	9954
2152.725	9902
2154.77	9919
2156.811	9838
2158.852	9862
2160.894	9845
2162.933	9843
2164.973	9851
2167.013	9746
2169.051	9797
2171.089	9799
2173.126	9785
2175.164	9905
2177.201	9946
2179.236	9833
2181.273	9930
2183.307	9700
2185.341	9889
2187.377	9787
2189.41	9783
2191.442	9739
2193.473	9825
2195.506	9695
2197.539	9610
2199.569	9790
2201.598	9672
2203.628	9727
2205.656	9730
2207.686	9819
2209.716	9865
2211.743	9645
2213.769	9710
2215.796	9777
2217.821	9564
2219.848	9686
2221.873	9650
2223.897	9703
2225.921	9653
2227.944	9620
2229.967	9503
2231.991	9590
2234.011	9704
2236.032	9721
2238.053	9516
2240.073	9679
2242.094	9607
2244.114	9592
2246.131	9684
2248.149	9635
2250.167	9769
2252.186	9621
2254.201	9637
2256.218	9715
2258.233	9608
2260.247	9640
2262.262	9731
2264.278	9485
2266.29	9568
2268.303	9715
2270.315	9537
2272.327	9612
2274.341	9564
2276.35	9624
2278.361	9728
2280.37	9677
2282.38	9749
2284.388	9625
2286.397	9648
2288.405	9758
2290.412	9483
2292.419	9689
2294.425	9556
2296.431	9653
2298.437	9630
2300.441	9578
2302.445	9742
2304.449	9545
2306.453	9554
2308.455	9487
2310.457	9545
2312.459	9662
2314.46	9532
2316.46	9709
2318.461	9474
2320.46	9443
2322.458	9591
2324.458	9496
2326.456	9530
2328.455	9446
2330.451	9523
2332.447	9427
2334.443	9576
2336.438	9494
2338.433	9395
2340.429	9596
2342.422	9484
2344.416	9405
2346.408	9634
2348.399	9590
2350.393	9383
2352.384	9372
2354.375	9444
2356.365	9477
2358.355	9404
2360.344	9413
2362.333	9373
2364.322	9423
2366.309	9491
2368.295	9300
2370.282	9305
2372.27	9242
2374.256	9306
2376.24	9316
2378.225	9332
2380.208	9257
2382.194	9226
2384.177	9226
2386.159	9355
2388.142	9284
2390.122	9205
2392.105	9216
2394.085	9253
2396.066	9279
2398.044	9216
2400.024	9231
2402.002	9082
2403.982	9283
2405.959	9226
2407.935	9170
2409.913	9235
2411.888	9151
2413.865	9130
2415.84	9273
2417.814	9218
2419.788	9294
2421.762	9215
2423.735	9168
2425.708	9185
2427.68	9136
2429.651	9229
2431.623	9208
2433.593	9228
2435.564	9225
2437.533	9191
2439.502	9266
2441.47	9212
2443.438	9290
2445.406	9180
2447.373	9082
2449.34	9188
2451.305	9096
2453.271	9152
2455.235	9217
2457.201	9109
2459.165	9212
2461.129	9000
2463.092	9092
2465.054	9253
2467.018	9159
2468.978	9166
2470.939	9040
2472.899	9192
2474.86	9113
2476.819	9146
2478.778	9007
2480.737	9157
2482.695	9006
2484.653	9090
2486.609	9012
2488.567	9063
2490.524	9010
2492.478	9098
2494.433	8997
2496.387	9105
2498.343	9119
2500.297	9108
2502.249	9105
2504.202	9063
2506.153	9042
2508.105	8968
2510.057	8923
2512.008	9074
2513.957	8900
2515.906	8932
2517.855	8975
2519.805	8876
2521.754	8961
2523.7	8794
2525.647	9122
2527.594	8933
2529.54	8962
2531.486	8933
2533.431	8978
2535.376	8988
2537.32	8887
2539.263	8912
2541.207	9012
2543.151	8790
2545.093	8971
2547.034	8992
2548.975	9017
2550.917	8864
2552.856	8878
2554.796	8982
2556.735	8947
2558.673	8896
2560.611	9016
2562.55	8843
2564.487	8941
2566.424	8911
2568.36	8758
2570.296	8998
2572.232	8856
2574.167	8874
2576.101	8865
2578.035	8980
2579.969	9016
2581.902	8925
2583.834	8925
2585.766	9078
2587.698	8835
2589.628	8905
2591.557	8859
2593.489	8916
2595.419	9046
2597.348	8923
2599.275	8873
2601.204	9004
2603.131	8874
2605.059	8853
2606.986	8804
2608.911	8934
2610.837	8779
2612.76	8837
2614.687	8994
2616.61	8947
2618.534	8898
2620.457	8934
2622.38	8935
2624.302	8947
2626.225	8981
2628.145	8856
2630.067	8932
2631.986	8825
2633.906	8896
2635.827	8852
2637.745	8944
2639.662	8855
2641.581	8976
2643.498	8887
2645.415	8804
2647.331	8790
2649.248	8858
2651.163	8801
2653.077	8815
2654.993	8798
2656.906	8848
2658.821	8798
2660.733	8858
2662.646	8836
2664.557	8759
2666.47	8917
2668.381	8895
2670.291	8802
2672.201	8723
2674.11	8759
2676.021	8711
2677.929	8807
2679.837	8798
2681.745	8658
2683.652	8740
2685.56	8779
2687.466	8817
2689.371	8742
2691.276	8680
2693.181	8611
2695.085	8760
2696.991	8758
2698.893	8717
2700.796	8770
2702.698	8696
2704.601	8741
2706.502	8658
2708.404	8587
2710.304	8740
2712.203	8702
2714.103	8660
2716.003	8717
2717.902	8769
2719.8	8695
2721.697	8568
2723.594	8659
2725.49	8583
2727.389	8620
2729.283	8602
2731.179	8623
2733.073	8487
2734.968	8715
2736.863	8632
2738.757	8569
2740.649	8563
2742.541	8624
2744.433	8694
2746.324	8665
2748.216	8592
2750.107	8470
2751.997	8682
2753.886	8532
2755.776	8492
2757.666	8415
2759.553	8574
2761.44	8475
2763.327	8451
2765.215	8559
2767.102	8507
2768.988	8495
2770.873	8491
2772.757	8469
2774.641	8598
2776.525	8416
2778.41	8360
2780.292	8496
2782.175	8460
2784.057	8582
2785.938	8401
2787.821	8427
2789.701	8522
2791.581	8387
2793.461	8440
2795.34	8455
2797.219	8509
2799.099	8524
2800.975	8427
2802.853	8354
2804.73	8422
2806.606	8411
2808.484	8448
2810.358	8551
2812.233	8445
2814.108	8439
2815.981	8350
2817.857	8354
2819.73	8270
2821.602	8502
2823.474	8336
2825.346	8341
2827.217	8358
2829.089	8306
2830.959	8370
2832.829	8613
2834.698	8353
2836.567	8348
2838.436	8388
2840.305	8304
2842.172	8467
2844.04	8484
2845.905	8457
2847.772	8314
2849.639	8424
2851.503	8494
2853.369	8432
2855.232	8360
2857.096	8484
2858.961	8421
2860.824	8372
2862.686	8432
2864.547	8580
2866.41	8412
2868.272	8520
2870.132	8575
2871.992	8630
2873.851	8608
2875.711	8704
2877.57	8806
2879.429	8727
2881.287	8629
2883.144	8601
2885.001	8856
2886.857	8728
2888.714	8663
2890.57	8752
2892.425	8780
2894.279	8778
2896.133	8730
2897.987	8697
2899.842	8791
2901.694	8624
2903.547	8726
2905.397	8732
2907.249	8708
2909.101	8741
2910.952	8720
2912.802	8741
2914.652	8768
2916.5	8718
2918.35	8913
2920.198	8826
2922.045	8911
2923.893	8947
2925.74	8825
2927.585	9019
2929.433	9117
2931.279	9124
2933.123	9039
2934.968	9194
2936.811	9306
2938.656	9315
2940.5	9300
2942.342	9465
2944.185	9328
2946.026	9322
2947.87	9324
2949.71	9221
2951.549	9205
2953.39	9430
2955.229	9242
2957.069	9251
2958.908	9089
2960.746	9056
2962.584	8949
2964.421	9119
2966.257	8992
2968.094	8849
2969.931	8913
2971.766	8725
2973.601	8919
2975.435	8786
2977.27	8850
2979.105	8740
2980.938	8787
2982.77	8589
2984.602	8605
2986.434	8620
2988.267	8504
2990.097	8631
2991.927	8553
2993.757	8462
2995.587	8530
2997.417	8351
2999.246	8542
3001.074	8346
3002.902	8429
3004.729	8337
3006.556	8184
3008.384	8247
3010.21	8079
3012.036	8111
3013.861	8065
3015.684	8114
3017.51	7955
3019.334	8001
3021.157	7938
3022.981	7931
3024.802	7864
3026.624	7939
3028.448	7817
3030.267	7719
3032.088	7771
3033.909	7827
3035.728	7722
3037.549	7727
3039.368	7776
3041.186	7824
3043.004	7792
3044.821	7711
3046.64	7566
3048.455	7782
3050.272	7771
3052.087	7822
3053.903	7577
3055.717	7683
3057.534	7680
3059.347	7655
3061.16	7691
3062.974	7535
3064.785	7762
3066.598	7631
3068.411	7669
3070.222	7713
3072.032	7773
3073.844	7718
3075.653	7650
3077.463	7533
3079.272	7618
3081.08	7537
3082.889	7651
3084.697	7581
3086.505	7633
3088.312	7632
3090.118	7520
3091.924	7493
3093.729	7603
3095.535	7507
3097.34	7386
3099.144	7500
3100.947	7400
3102.75	7446
3104.553	7486
3106.357	7385
3108.159	7459
3109.961	7469
3111.762	7403
3113.562	7475
3115.365	7383
3117.164	7470
3118.964	7228
3120.761	7254
3122.56	7311
3124.36	7288
3126.158	7316
3127.954	7403
3129.75	7302
3131.547	7355
3133.343	7223
3135.139	7278
3136.934	7359
3138.729	7295
3140.522	7129
3142.317	7189
3144.11	7291
3145.904	7216
3147.695	7179
3149.488	7133
3151.28	7244
3153.07	7176
3154.863	7220
3156.652	7220
3158.441	7171
3160.231	7092
3162.019	7249
3163.81	7185
3165.597	7069
3167.384	7161
3169.172	7232
3170.958	7146
3172.745	7109
3174.532	7209
3176.317	7169
3178.101	7065
3179.885	7124
3181.67	7022
3183.455	7158
3185.238	7082
3187.02	7046
3188.802	7034
3190.585	7187
3192.368	7064
3194.149	7067
3195.929	7103
3197.709	7082
3199.489	7034
3201.268	7054
3203.048	7064
3204.826	6994
3206.604	7134
3208.382	7013
3210.159	7043
3211.937	7089
3213.713	6988
3215.489	7057
3217.263	6925
3219.038	7010
3220.815	7061
3222.589	7044
3224.363	6983
3226.136	7012
3227.908	7049
3229.681	6932
3231.454	7076
3233.226	7023
3234.996	7072
3236.767	6942
3238.538	7015
3240.308	6988
3242.078	6923
3243.847	6944
3245.615	6897
3247.384	6856
3249.15	7007
3250.92	6877
3252.686	6914
3254.453	6962
3256.218	6915
3257.984	6952
3259.75	6998
3261.515	7076
3263.279	6960
3265.044	6879
3266.806	6867
3268.57	6879
3270.334	6968
3272.095	6848
3273.856	6871
3275.619	6815
3277.379	6995
3279.14	6969
3280.9	6952
3282.661	6852
3284.419	6935
3286.178	6886
3287.937	6958
3289.695	6882
3291.453	6887
3293.21	6833
3294.967	6832
3296.723	6894
3298.48	6739
3300.235	6960
3301.99	6820
3303.744	6834
3305.498	6915
3307.253	6915
3309.006	6952
3310.759	6801
3312.511	6797
3314.263	6938
3316.017	6884
3317.768	6752
3319.519	6818
3321.268	6818
3323.018	6806
3324.767	6805
3326.518	6857
3328.267	6785
3330.014	6898
3331.762	6896
3333.509	6925
3335.258	6839
3337.003	6699
3338.75	6820
3340.496	6787
3342.24	6806
3343.987	6831
3345.732	6868
3347.475	6730
3349.219	6680
3350.961	6800
3352.705	6696
3354.448	6813
3356.19	6745
3357.931	6764
3359.672	6710
3361.412	6770
3363.155	6627
3364.894	6764
3366.633	6640
3368.372	6743
3370.11	6674
3371.849	6735
3373.588	6739
3375.325	6578
3377.061	6630
3378.799	6695
3380.534	6559
3382.271	6659
3384.006	6644
3385.741	6658
3387.475	6638
3389.209	6612
3390.944	6551
3392.677	6801
3394.409	6610
3396.143	6518
3397.874	6615
3399.606	6629
3401.338	6459
3403.069	6651
3404.799	6561
3406.528	6547
3408.258	6563
3409.988	6575
3411.717	6522
3413.445	6508
3415.173	6384
3416.899	6615
3418.626	6489
3420.354	6442
3422.08	6578
3423.806	6417
3425.531	6488
3427.255	6472
3428.981	6410
3430.705	6413
3432.429	6490
3434.151	6565
3435.875	6333
3437.599	6505
3439.321	6406
3441.042	6382
3442.763	6490
3444.483	6445
3446.204	6302
3447.926	6364
3449.645	6388
3451.364	6367
3453.082	6253
3454.801	6280
3456.52	6324
3458.238	6319
3459.954	6347
3461.671	6398
3463.387	6352
3465.104	6183
3466.82	6216
3468.534	6241
3470.25	6316
3471.963	6271
3473.676	6139
3475.392	6236
3477.104	6115
3478.817	6263
3480.528	6196
3482.241	6196
3483.954	6150
3485.664	6149
3487.374	6153
3489.084	6183
3490.795	6150
3492.504	6214
3494.214	6225
3495.922	6118
3497.63	6247
3499.338	6084
3501.045	6089
3502.753	6175
3504.459	6031
3506.166	6039
3507.871	6252
3509.576	6055
3511.283	5966
3512.987	6092
3514.691	6231
3516.395	6091
3518.098	5963
3519.8	6076
3521.504	6027
3523.206	5983
3524.908	6060
3526.609	5979
3528.309	6060
3530.011	6089
3531.711	5994
3533.411	5914
3535.109	5991
3536.808	6015
3538.507	5944
3540.206	6097
3541.904	6002
3543.601	6005
3545.297	5938
3546.994	6027
3548.69	6019
3550.387	5991
3552.081	5936
3553.776	5871
3555.47	5870
3557.166	5963
3558.859	6021
3560.553	5872
3562.245	5994
3563.938	6005
3565.629	5859
3567.322	5799
3569.014	5932
3570.704	5910
3572.394	5906
3574.084	5917
3575.775	5840
3577.464	5865
3579.152	5886
3580.842	5819
3582.529	5910
3584.216	5816
3585.905	5914
3587.591	5879
3589.279	5873
3590.964	5805
3592.649	5802
3594.336	5769
3596.021	5771
3597.705	5751
3599.388	5686
3601.072	5707
3602.757	5707
3604.439	5802
3606.122	5723
3607.803	5718
3609.485	5776
3611.167	5641
3612.849	5642
3614.529	5733
3616.208	5574
3617.888	5646
3619.567	5608
3621.247	5585
3622.926	5667
3624.603	5547
3626.281	5667
3627.958	5609
3629.635	5592
3631.312	5637
3632.989	5570
3634.665	5517
3636.339	5602
3638.014	5598
3639.691	5624
3641.364	5574
3643.038	5564
3644.71	5670
3646.384	5557
3648.058	5581
3649.729	5551
3651.402	5521
3653.073	5525
3654.744	5591
3656.414	5424
3658.085	5662
3659.755	5532
3661.424	5554
3663.094	5556
3664.762	5415
3666.431	5421
3668.099	5542
3669.766	5541
3671.433	5579
3673.099	5392
3674.768	5445
3676.433	5473
3678.098	5324
3679.763	5378
3681.428	5416
3683.093	5492
3684.757	5413
3686.421	5475
3688.083	5465
3689.746	5365
3691.408	5461
3693.071	5452
3694.733	5465
3696.394	5345
3698.054	5490
3699.715	5442
3701.375	5305
3703.036	5365
3704.695	5381
3706.354	5359
3708.012	5465
3709.67	5363
3711.329	5331
3712.987	5358
3714.644	5311
3716.299	5322
3717.955	5368
3719.613	5274
3721.268	5337
3722.923	5250
3724.577	5239
3726.231	5365
3727.885	5420
3729.539	5274
3731.192	5295
3732.845	5135
3734.497	5239
3736.149	5289
3737.802	5271
3739.453	5245
3741.104	5284
3742.753	5297
3744.404	5259
3746.052	5239
3747.704	5160
3749.352	5197
3751	5157
3752.648	5258
3754.296	5232
3755.944	5140
3757.59	5210
3759.238	5189
3760.883	5251
3762.528	5258
3764.176	5290
3765.82	5175
3767.464	5128
3769.109	5145
3770.753	5182
3772.396	5063
3774.04	5226
3775.683	5213
3777.325	5032
3778.967	5176
3780.608	5230
3782.25	5097
3783.89	5045
3785.531	5125
3787.17	5087
3788.81	5200
3790.45	5132
3792.09	5087
3793.729	4989
3795.366	5034
3797.003	5024
3798.64	5129
3800.278	5065
3801.915	4977
3803.551	4931
3805.187	5030
3806.822	5001
3808.458	5015
3810.093	4988
3811.726	5057
3813.36	5000
3814.994	4921
3816.627	5036
3818.262	5002
3819.893	4951
3821.525	4963
3823.157	4926
3824.787	4920
3826.42	4997
3828.051	5011
3829.68	4879
3831.31	4879
3832.938	5017
3834.569	5000
3836.198	4911
3837.825	4914
3839.454	4902
3841.08	4945
3842.708	4919
3844.335	4983
3845.962	4903
3847.587	4843
3849.212	4953
3850.838	4879
3852.463	4771
3854.089	4876
3855.712	4886
3857.335	4815
3858.959	4858
3860.582	4894
3862.205	4824
3863.827	4963
3865.449	4837
3867.07	4826
3868.691	4912
3870.312	4890
3871.933	4858
3873.553	4915
3875.173	4750
3876.792	4810
3878.411	4797
3880.03	4887
3881.647	4836
3883.265	4788
3884.882	4717
3886.499	4786
3888.116	4701
3889.732	4741
3891.348	4749
3892.964	4803
3894.579	4705
3896.195	4807
3897.809	4724
3899.423	4734
3901.036	4666
3902.648	4782
3904.261	4788
3905.875	4788
3907.487	4737
3909.099	4789
3910.709	4752
3912.321	4759
3913.933	4696
3915.542	4770
3917.152	4743
3918.762	4676
3920.37	4667
3921.98	4705
3923.589	4675
3925.196	4699
3926.804	4625
3928.41	4699
3930.018	4709
3931.626	4642
3933.231	4672
3934.838	4551
3936.442	4670
3938.046	4667
3939.653	4708
3941.257	4775
3942.861	4675
3944.464	4629
3946.068	4633
3947.67	4675
3949.273	4710
3950.876	4593
3952.477	4611
3954.078	4535
3955.678	4572
3957.281	4646
3958.881	4637
3960.48	4605
3962.079	4674
3963.678	4502
3965.279	4621
3966.877	4620
3968.475	4632
3970.072	4602
3971.669	4597
3973.266	4604
3974.864	4702
3976.459	4512
3978.055	4520
3979.65	4551
3981.245	4503
3982.841	4457
3984.436	4565
3986.03	4520
3987.623	4595
3989.216	4478
3990.809	4471
3992.403	4489
3993.995	4474
3995.586	4508
3997.177	4402
3998.768	4482
4000.361	4478
4001.951	4410
4003.54	4525
4005.13	4499
4006.719	4379
4008.31	4469
4009.897	4471
4011.485	4419
4013.073	4440
4014.66	4461
4016.247	4503
4017.834	4470
4019.421	4412
4021.006	4379
4022.592	4402
4024.178	4321
4025.763	4469
4027.348	4303
4028.932	4295
4030.515	4329
4032.099	4309
4033.682	4331
4035.266	4275
4036.847	4327
4038.429	4236
4040.011	4276
4041.592	4261
4043.173	4306
4044.755	4317
4046.334	4286
4047.913	4252
4049.494	4240
4051.074	4275
4052.652	4283
4054.23	4253
4055.807	4283
4057.385	4203
4058.963	4183
4060.541	4290
4062.117	4260
4063.693	4109
4065.269	4285
4066.844	4227
4068.42	4204
4069.995	4223
4071.569	4205
4073.143	4169
4074.716	4211
4076.291	4248
4077.864	4129
4079.436	4216
4081.009	4123
4082.58	4145
4084.152	4187
4085.723	4201
4087.294	4203
4088.865	4127
4090.435	4182
4092.005	4155
4093.574	4162
4095.143	4198
4096.712	4143
4098.279	4141
4099.848	4185
4101.416	4112
4102.984	4060
4104.55	4204
4106.117	4140
4107.682	4127
4109.248	4034
4110.815	4168
4112.379	4144
4113.945	4090
4115.508	4076
4117.073	4076
4118.637	4078
4120.201	4050
4121.763	4095
4123.325	4021
4124.888	3989
4126.449	4116
4128.013	4057
4129.573	4114
4131.133	4019
4132.694	4022
4134.254	3980
4135.814	4038
4137.374	4098
4138.933	3995
4140.491	4003
4142.049	3982
4143.607	4009
4145.167	3982
4146.724	4002
4148.28	3946
4149.836	3920
4151.392	3988
4152.949	3941
4154.504	3983
4156.059	3968
4157.614	3936
4159.168	3987
4160.723	3928
4162.277	3930
4163.83	3883
4165.383	3963
4166.936	3928
4168.488	3890
4170.041	3975
4171.593	3862
4173.144	3855
4174.695	3905
4176.246	3850
4177.796	3870
4179.346	3869
4180.896	3910
4182.445	3778
4183.994	3863
4185.542	3889
4187.091	3845
4188.639	3917
4190.185	3821
4191.732	3748
4193.279	3837
4194.826	3824
4196.373	3804
4197.918	3775
4199.463	3742
4201.008	3841
4202.553	3832
4204.098	3782
4205.641	3867
4207.185	3807
4208.728	3749
4210.271	3834
4211.814	3809
4213.357	3752
4214.898	3830
4216.439	3786
4217.98	3859
4219.522	3794
4221.062	3718
4222.603	3655
4224.142	3686
4225.681	3749
4227.222	3752
4228.76	3836
4230.298	3763
4231.835	3679
4233.373	3782
4234.911	3749
4236.449	3812
4237.985	3683
4239.521	3831
4241.057	3677
4242.592	3760
4244.128	3689
4245.663	3775
4247.197	3747
4248.731	3665
4250.265	3680
4251.798	3710
4253.333	3695
4254.865	3752
4256.397	3687
4257.93	3599
4259.461	3652
4260.994	3642
4262.525	3596
4264.056	3609
4265.586	3658
4267.115	3649
4268.646	3689
4270.176	3634
4271.705	3717
4273.232	3669
4274.761	3617
4276.289	3644
4277.818	3680
4279.345	3600
4280.872	3649
4282.399	3661
4283.924	3609
4285.452	3655
4286.976	3601
4288.502	3610
4290.026	3621
4291.551	3630
4293.074	3536
4294.6	3480
4296.123	3643
4297.646	3629
4299.168	3565
4300.691	3596
4302.214	3542
4303.736	3589
4305.257	3513
4306.778	3572
4308.299	3538
4309.82	3607
4311.34	3543
4312.86	3520
4314.379	3486
