400.0745	3822
402.597	3961
405.1208	3927
407.6419	3913
410.1623	4056
412.6819	3931
415.201	3981
417.7172	4069
420.2369	4049
422.7538	4013
425.2701	4009
427.7856	4113
430.3005	4125
432.8147	4121
435.3282	4145
437.841	4191
440.3511	4162
442.8625	4226
445.3753	4225
447.8854	4102
450.3927	4215
452.9014	4211
455.4073	4236
457.9146	4209
460.4233	4126
462.9272	4153
465.4325	4232
467.935	4143
470.4389	4139
472.9421	4139
475.4446	4204
477.9444	4264
480.4456	4229
482.944	4310
485.4417	4265
487.9429	4308
490.4393	4159
492.935	4364
495.4321	4210
497.9264	4324
500.4221	4355
502.9171	4275
505.4094	4366
507.9011	4251
510.392	4467
512.8864	4335
515.3759	4338
517.8649	4313
520.3531	4421
522.8406	4353
525.3275	4417
527.8178	4381
530.3033	4339
532.7881	4393
535.2723	4330
537.7558	4452
540.2407	4329
542.7228	4326
545.2043	4409
547.6851	4411
550.1652	4409
552.6467	4399
555.1255	4358
557.6016	4490
560.079	4474
562.5557	4414
565.0318	4399
567.5092	4380
569.984	4496
572.456	4408
574.9294	4486
577.4022	4476
579.8762	4536
582.3456	4524
584.8163	4477
587.2863	4533
589.7557	4539
592.2224	4596
594.6924	4562
597.1578	4621
599.6245	4610
602.0905	4640
604.5538	4563
607.0206	4541
609.4825	4583
611.9459	4529
614.4066	4598
616.8686	4498
619.33	4590
621.7906	4559
624.2487	4522
626.708	4559
629.1647	4522
631.6207	4465
634.0801	4472
636.5348	4591
638.9888	4525
641.4442	4481
643.8969	4559
646.3509	4498
648.8022	4585
651.255	4506
653.705	4664
656.1544	4578
658.6031	4543
661.0532	4645
663.5026	4648
665.9493	4655
668.3954	4612
670.8409	4828
673.2877	4695
675.7318	4587
678.1752	4618
680.618	4638
683.0601	4513
685.5035	4770
687.9444	4742
690.3845	4641
692.824	4660
695.2628	4758
697.701	4796
700.1406	4744
702.5774	4705
705.0116	4809
707.4472	4729
709.8821	4732
712.3183	4783
714.7519	4735
717.1829	4732
719.6151	4722
722.0468	4806
724.4777	4831
726.908	4874
729.3377	4893
731.7667	4793
734.1931	4905
736.6208	4841
739.0498	4839
741.4742	4843
743.9	4881
746.3231	4919
748.7476	4912
751.1713	5030
753.5945	5024
756.015	5084
758.4368	4956
760.856	4902
763.2766	4977
765.6965	4922
768.1157	5113
770.5323	4999
772.9483	5148
775.3656	4974
777.7822	5095
780.1963	5096
782.6116	5044
785.0244	5032
787.4365	5010
789.8499	5072
792.2626	5084
794.6728	5069
797.0823	5064
799.4911	5032
801.8994	4989
804.3109	5063
806.7178	5072
809.124	5126
811.5297	5097
813.9347	5172
816.341	5071
818.7447	5071
821.1478	5157
823.5502	5147
825.952	5091
828.3531	5113
830.7556	5029
833.1554	5143
835.5546	5081
837.9532	5121
840.3511	5144
842.7504	5194
845.1451	5296
847.5411	5242
849.9365	5156
852.3312	5301
854.7272	5158
857.1187	5165
859.5115	5254
861.9037	5321
864.2952	5256
866.6842	5211
869.0764	5243
871.4661	5213
873.8531	5294
876.2415	5222
878.6272	5228
881.0162	5265
883.4026	5255
885.7866	5168
888.1717	5176
890.5543	5133
892.9382	5166
895.3215	5196
897.7041	5192
900.0842	5235
902.4655	5377
904.8443	5212
907.2244	5253
909.6039	5311
911.9808	5288
914.357	5308
916.7346	5333
919.1115	5295
921.4859	5438
923.8616	5397
926.2347	5357
928.6071	5483
930.979	5456
933.3541	5449
935.7247	5514
938.0946	5565
940.4639	5641
942.8326	5552
945.2026	5622
947.5701	5743
949.9369	5589
952.305	5734
954.6705	5990
957.0355	6105
959.4017	6342
961.7654	6478
964.1284	6279
966.4908	6407
968.8527	6144
971.2138	6000
973.5743	5824
975.9343	5694
978.2936	5593
980.6522	5507
983.0122	5449
985.3696	5503
987.7245	5414
990.0807	5487
992.4362	5571
994.7911	5439
997.1474	5493
999.4991	5577
1001.852	5639
1004.205	5536
1006.555	5482
1008.908	5568
1011.258	5466
1013.606	5572
1015.956	5542
1018.302	5575
1020.652	5559
1022.998	5530
1025.345	5528
1027.691	5413
1030.035	5563
1032.378	5512
1034.724	5657
1037.066	5538
1039.409	5690
1041.75	5565
1044.092	5569
1046.433	5547
1048.771	5546
1051.112	5556
1053.449	5511
1055.786	5673
1058.124	5474
1060.462	5549
1062.797	5707
1065.131	5725
1067.467	5564
1069.8	5678
1072.135	5706
1074.467	5702
1076.798	5736
1079.129	5693
1081.459	5642
1083.792	5585
1086.121	5577
1088.449	5762
1090.777	5766
1093.104	5627
1095.431	5521
1097.759	5589
1100.084	5725
1102.408	5613
1104.732	5579
1107.056	5648
1109.379	5738
1111.701	5665
1114.022	5661
1116.343	5728
1118.664	5665
1120.983	5758
1123.303	5676
1125.621	5728
1127.939	5657
1130.256	5715
1132.573	5724
1134.889	5729
1137.205	5680
1139.52	5703
1141.832	5789
1144.146	5686
1146.461	5825
1148.771	5828
1151.083	5855
1153.392	5725
1155.703	5732
1158.011	5788
1160.323	5638
1162.629	5768
1164.938	5788
1167.243	5825
1169.55	5736
1171.857	5771
1174.163	5766
1176.466	5714
1178.769	5743
1181.073	5774
1183.374	5762
1185.677	5790
1187.979	5778
1190.279	5818
1192.578	5853
1194.878	5850
1197.178	5893
1199.476	5892
1201.772	5753
1204.068	5788
1206.366	5906
1208.663	5839
1210.957	5775
1213.251	5884
1215.544	5809
1217.836	5906
1220.128	5888
1222.421	5833
1224.712	5889
1227.002	5848
1229.292	5927
1231.581	5851
1233.871	5961
1236.159	6064
1238.446	5934
1240.732	6043
1243.018	5970
1245.304	6084
1247.59	5991
1249.874	6069
1252.156	6135
1254.439	6128
1256.721	6100
1259.005	6032
1261.286	6110
1263.565	6042
1265.845	6180
1268.125	6017
1270.403	6074
1272.682	6092
1274.959	6256
1277.234	6101
1279.511	6107
1281.787	6119
1284.062	6151
1286.337	6087
1288.609	6123
1290.882	5969
1293.153	6103
1295.428	6094
1297.698	6100
1299.969	6203
1302.237	6042
1304.507	6083
1306.777	6068
1309.044	6001
1311.312	6095
1313.578	6003
1315.844	6193
1318.109	6037
1320.375	6086
1322.638	6015
1324.903	6083
1327.165	6000
1329.427	6141
1331.69	6118
1333.952	6179
1336.212	6104
1338.471	6179
1340.73	6126
1342.988	6103
1345.248	6197
1347.505	6194
1349.763	6097
1352.019	6224
1354.274	6276
1356.53	6252
1358.784	6194
1361.038	6071
1363.291	6112
1365.543	6236
1367.797	6226
1370.048	6212
1372.296	6243
1374.546	6266
1376.796	6273
1379.045	6265
1381.295	6335
1383.542	6406
1385.787	6298
1388.034	6422
1390.28	6375
1392.527	6253
1394.772	6469
1397.014	6332
1399.258	6336
1401.501	6314
1403.741	6411
1405.985	6448
1408.226	6204
1410.465	6308
1412.705	6421
1414.943	6402
1417.184	6422
1419.42	6443
1421.658	6426
1423.894	6353
1426.13	6418
1428.366	6483
1430.602	6530
1432.835	6523
1435.069	6566
1437.301	6496
1439.535	6538
1441.767	6512
1443.997	6559
1446.229	6565
1448.458	6500
1450.687	6534
1452.916	6617
1455.146	6640
1457.372	6613
1459.599	6573
1461.824	6625
1464.051	6605
1466.277	6477
1468.501	6585
1470.725	6663
1472.948	6605
1475.17	6455
1477.393	6485
1479.614	6448
1481.837	6441
1484.057	6549
1486.276	6448
1488.497	6390
1490.715	6567
1492.932	6410
1495.148	6395
1497.364	6444
1499.58	6420
1501.798	6558
1504.012	6404
1506.227	6405
1508.44	6408
1510.653	6488
1512.866	6260
1515.078	6290
1517.289	6476
1519.5	6364
1521.711	6502
1523.92	6519
1526.13	6403
1528.338	6389
1530.544	6523
1532.752	6468
1534.959	6401
1537.165	6524
1539.371	6504
1541.574	6463
1543.779	6497
1545.983	6585
1548.187	6543
1550.39	6566
1552.59	6540
1554.792	6555
1556.991	6656
1559.19	6593
1561.392	6589
1563.59	6668
1565.789	6655
1567.986	6511
1570.182	6681
1572.381	6474
1574.576	6763
1576.771	6551
1578.966	6620
1581.16	6629
1583.354	6602
1585.546	6717
1587.74	6656
1589.931	6705
1592.121	6656
1594.311	6706
1596.502	6806
1598.693	6684
1600.881	6626
1603.069	6750
1605.256	6726
1607.445	6747
1609.631	6762
1611.816	6732
1614.001	6698
1616.186	6871
1618.37	6818
1620.555	6746
1622.737	6752
1624.919	6756
1627.101	6775
1629.282	6816
1631.463	6791
1633.643	6740
1635.822	6684
1638.001	6813
1640.179	6825
1642.359	6801
1644.534	6832
1646.711	6843
1648.887	6815
1651.062	6920
1653.235	6837
1655.412	6783
1657.586	6925
1659.757	6963
1661.93	6829
1664.1	6880
1666.274	6961
1668.445	6846
1670.614	6942
1672.784	6969
1674.951	6863
1677.12	6912
1679.289	6950
1681.457	6828
1683.622	6842
1685.789	6880
1687.953	6819
1690.121	6943
1692.284	6784
1694.447	6746
1696.611	6756
1698.772	6753
1700.935	6774
1703.098	6832
1705.258	6783
1707.417	6750
1709.576	6775
1711.736	6823
1713.896	6694
1716.053	6858
1718.21	6868
1720.366	6746
1722.522	6665
1724.68	6831
1726.835	6770
1728.989	6751
1731.142	6758
1733.295	6680
1735.449	6788
1737.601	6731
1739.753	6757
1741.903	6803
1744.054	6770
1746.203	6871
1748.354	6843
1750.503	6924
1752.651	6797
1754.798	6816
1756.944	6916
1759.092	6824
1761.238	6816
1763.383	6771
1765.528	6827
1767.672	6796
1769.814	6888
1771.959	6857
1774.102	6891
1776.242	6835
1778.384	6935
1780.525	6861
1782.665	6914
1784.805	6844
1786.945	6876
1789.082	6828
1791.22	6867
1793.36	6891
1795.495	6777
1797.632	6904
1799.766	6879
1801.902	6985
1804.035	6822
1806.172	6912
1808.304	6796
1810.436	6821
1812.569	6879
1814.699	6856
1816.833	6915
1818.963	6955
1821.092	6896
1823.222	6952
1825.35	6938
1827.478	6854
1829.608	6951
1831.734	6795
1833.86	6827
1835.986	6960
1838.11	6899
1840.238	6838
1842.362	6926
1844.485	6790
1846.608	6885
1848.73	6861
1850.853	6786
1852.974	6742
1855.097	6795
1857.217	6740
1859.336	6826
1861.455	6898
1863.576	6857
1865.693	6830
1867.811	6770
1869.926	6766
1872.042	6782
1874.16	6865
1876.275	6846
1878.39	6773
1880.504	6864
1882.618	6874
1884.731	6865
1886.843	6805
1888.956	6909
1891.067	6890
1893.178	6852
1895.287	6893
1897.399	6914
1899.508	6885
1901.617	6957
1903.724	6891
1905.832	6867
1907.941	6917
1910.046	6883
1912.152	7002
1914.256	6816
1916.361	6941
1918.464	7016
1920.57	6932
1922.672	6927
1924.775	6966
1926.876	6917
1928.978	7016
1931.08	6952
1933.181	6868
1935.28	7089
1937.38	6868
1939.478	7032
1941.577	7045
1943.675	6869
1945.771	6914
1947.867	6992
1949.964	6974
1952.058	6961
1954.154	7007
1956.248	6948
1958.343	6929
1960.435	6926
1962.527	6896
1964.62	7025
1966.711	6978
1968.802	7014
1970.892	6947
1972.983	6949
1975.072	6955
1977.162	7039
1979.25	6966
1981.337	6922
1983.424	6991
1985.51	6992
1987.598	6941
1989.683	6917
1991.768	6916
1993.852	7012
1995.934	7021
1998.019	6896
2000.102	6903
2002.184	6854
2004.266	6903
2006.347	6792
2008.427	6922
2010.508	6909
2012.587	7039
2014.666	6822
2016.745	6970
2018.821	6837
2020.9	6823
2022.977	6957
2025.052	6913
2027.128	6959
2029.204	6949
2031.277	6936
2033.353	6907
2035.425	6976
2037.499	7006
2039.57	6934
2041.642	6941
2043.714	6979
2045.786	6940
2047.855	6981
2049.925	6918
2051.993	6921
2054.064	6952
2056.132	6970
2058.2	6954
2060.266	6847
2062.332	6947
2064.398	6940
2066.465	6906
2068.529	6909
2070.592	6896
2072.657	6894
2074.719	6939
2076.783	6883
2078.845	6963
2080.907	6842
2082.968	6973
2085.028	6906
2087.087	6895
2089.148	6969
2091.207	6934
2093.264	6814
2095.322	6892
2097.379	6886
2099.439	6833
2101.495	6881
2103.55	6985
2105.605	6913
2107.658	7036
2109.713	6953
2111.767	6749
2113.82	6826
2115.872	6834
2117.924	6913
2119.975	6866
2122.028	6912
2124.078	6901
2126.126	6821
2128.176	6939
2130.225	6831
2132.275	6896
2134.321	6832
2136.368	6815
2138.415	6874
2140.461	6956
2142.505	6875
2144.552	6723
2146.597	6838
2148.64	6848
2150.684	6923
2152.725	6897
2154.77	6822
2156.811	6847
2158.852	6760
2160.894	6811
2162.933	6728
2164.973	6816
2167.013	6947
2169.051	6828
2171.089	6845
2173.126	6856
2175.164	6725
2177.201	6787
2179.236	6823
2181.273	6847
2183.307	6747
2185.341	6771
2187.377	6628
2189.41	6797
2191.442	6696
2193.473	6801
2195.506	6776
2197.539	6640
2199.569	6834
2201.598	6629
2203.628	6777
2205.656	6728
2207.686	6645
2209.716	6772
2211.743	6710
2213.769	6855
2215.796	6694
2217.821	6659
2219.848	6614
2221.873	6616
2223.897	6648
2225.921	6635
2227.944	6668
2229.967	6611
2231.991	6715
2234.011	6656
2236.032	6643
2238.053	6667
2240.073	6708
2242.094	6499
2244.114	6689
2246.131	6599
2248.149	6643
2250.167	6692
2252.186	6639
2254.201	6656
2256.218	6631
2258.233	6617
2260.247	6689
2262.262	6679
2264.278	6618
2266.29	6628
2268.303	6651
2270.315	6525
2272.327	6802
2274.341	6706
2276.35	6639
2278.361	6664
2280.37	6631
2282.38	6774
2284.388	6671
2286.397	6551
2288.405	6653
2290.412	6576
2292.419	6581
2294.425	6589
2296.431	6623
2298.437	6637
2300.441	6681
2302.445	6488
2304.449	6671
2306.453	6595
2308.455	6537
2310.457	6545
2312.459	6587
2314.46	6664
2316.46	6600
2318.461	6608
2320.46	6588
2322.458	6590
2324.458	6598
2326.456	6509
2328.455	6518
2330.451	6512
2332.447	6598
2334.443	6563
2336.438	6458
2338.433	6516
2340.429	6566
2342.422	6495
2344.416	6440
2346.408	6538
2348.399	6401
2350.393	6629
2352.384	6398
2354.375	6473
2356.365	6475
2358.355	6475
2360.344	6526
2362.333	6476
2364.322	6469
2366.309	6433
2368.295	6491
2370.282	6454
2372.27	6498
2374.256	6383
2376.24	6572
2378.225	6479
2380.208	6528
2382.194	6479
2384.177	6367
2386.159	6339
2388.142	6411
2390.122	6441
2392.105	6355
2394.085	6487
2396.066	6399
2398.044	6374
2400.024	6346
2402.002	6374
2403.982	6398
2405.959	6340
2407.935	6337
2409.913	6369
2411.888	6292
2413.865	6429
2415.84	6344
2417.814	6395
2419.788	6274
2421.762	6453
2423.735	6437
2425.708	6497
2427.68	6305
2429.651	6407
2431.623	6328
2433.593	6376
2435.564	6416
2437.533	6436
2439.502	6235
2441.47	6410
2443.438	6292
2445.406	6366
2447.373	6282
2449.34	6359
2451.305	6381
2453.271	6303
2455.235	6298
2457.201	6387
2459.165	6168
2461.129	6385
2463.092	6412
2465.054	6392
2467.018	6251
2468.978	6318
2470.939	6301
2472.899	6297
2474.86	6334
2476.819	6228
2478.778	6344
2480.737	6379
2482.695	6322
2484.653	6340
2486.609	6282
2488.567	6323
2490.524	6297
2492.478	6201
2494.433	6323
2496.387	6290
2498.343	6222
2500.297	6444
2502.249	6309
2504.202	6269
2506.153	6273
2508.105	6386
2510.057	6161
2512.008	6377
2513.957	6294
2515.906	6188
2517.855	6255
2519.805	6311
2521.754	6305
2523.7	6180
2525.647	6283
2527.594	6279
2529.54	6226
2531.486	6230
2533.431	6256
2535.376	6361
2537.32	6263
2539.263	6284
2541.207	6300
2543.151	6246
2545.093	6251
2547.034	6348
2548.975	6270
2550.917	6266
2552.856	6210
2554.796	6251
2556.735	6156
2558.673	6373
2560.611	6207
2562.55	6191
2564.487	6290
2566.424	6360
2568.36	6179
2570.296	6320
2572.232	6214
2574.167	6245
2576.101	6295
2578.035	6189
2579.969	6295
2581.902	6225
2583.834	6280
2585.766	6221
2587.698	6232
2589.628	6316
2591.557	6195
2593.489	6314
2595.419	6287
2597.348	6227
2599.275	6299
2601.204	6322
2603.131	6323
2605.059	6264
2606.986	6147
2608.911	6187
2610.837	6265
2612.76	6253
2614.687	6293
2616.61	6328
2618.534	6240
2620.457	6330
2622.38	6321
2624.302	6405
2626.225	6176
2628.145	6266
2630.067	6306
2631.986	6273
2633.906	6246
2635.827	6245
2637.745	6320
2639.662	6339
2641.581	6202
2643.498	6398
2645.415	6239
2647.331	6241
2649.248	6284
2651.163	6301
2653.077	6176
2654.993	6173
2656.906	6296
2658.821	6265
2660.733	6226
2662.646	6291
2664.557	6259
2666.47	6358
2668.381	6336
2670.291	6239
2672.201	6224
2674.11	6271
2676.021	6310
2677.929	6251
2679.837	6170
2681.745	6190
2683.652	6246
2685.56	6169
2687.466	6118
2689.371	6115
2691.276	6180
2693.181	6053
2695.085	6090
2696.991	6246
2698.893	6134
2700.796	6168
2702.698	6122
2704.601	6084
2706.502	6261
2708.404	6154
2710.304	6126
2712.203	6127
2714.103	6079
2716.003	6150
2717.902	6154
2719.8	6089
2721.697	6164
2723.594	6034
2725.49	6078
2727.389	6108
2729.283	6018
2731.179	5967
2733.073	6093
2734.968	6038
2736.863	6010
2738.757	6132
2740.649	6242
2742.541	5996
2744.433	6073
2746.324	6061
2748.216	6058
2750.107	6072
2751.997	6004
2753.886	6063
2755.776	6178
2757.666	6138
2759.553	6099
2761.44	6186
2763.327	6007
2765.215	6047
2767.102	6038
2768.988	6086
2770.873	6086
2772.757	6089
2774.641	6108
2776.525	6046
2778.41	6016
2780.292	6015
2782.175	5998
2784.057	6029
2785.938	5999
2787.821	5920
2789.701	5998
2791.581	5985
2793.461	5927
2795.34	6010
2797.219	6054
2799.099	6118
2800.975	5995
2802.853	5932
2804.73	6053
2806.606	5977
2808.484	5968
2810.358	5944
2812.233	6107
2814.108	5971
2815.981	6009
2817.857	5887
2819.73	5950
2821.602	5991
2823.474	6004
2825.346	6002
2827.217	5953
2829.089	5975
2830.959	6028
2832.829	6000
2834.698	5970
2836.567	5902
2838.436	5992
2840.305	5986
2842.172	5933
2844.04	6004
2845.905	5915
2847.772	5975
2849.639	6098
2851.503	6061
2853.369	5985
2855.232	6124
2857.096	5987
2858.961	6055
2860.824	6044
2862.686	6018
2864.547	6059
2866.41	6189
2868.272	6094
2870.132	6166
2871.992	6167
2873.851	6101
2875.711	6235
2877.57	6197
2879.429	6307
2881.287	6375
2883.144	6335
2885.001	6389
2886.857	6354
2888.714	6307
2890.57	6439
2892.425	6310
2894.279	6306
2896.133	6408
2897.987	6217
2899.842	6343
2901.694	6301
2903.547	6343
2905.397	6297
2907.249	6326
2909.101	6220
2910.952	6230
2912.802	6365
2914.652	6386
2916.5	6344
2918.35	6362
2920.198	6524
2922.045	6425
2923.893	6521
2925.74	6410
2927.585	6497
2929.433	6634
2931.279	6585
2933.123	6697
2934.968	6608
2936.811	6641
2938.656	6765
2940.5	6637
2942.342	6732
2944.185	6698
2946.026	6778
2947.87	6784
2949.71	6888
2951.549	6716
2953.39	6833
2955.229	6601
2957.069	6608
2958.908	6585
2960.746	6535
2962.584	6493
2964.421	6386
2966.257	6513
2968.094	6368
2969.931	6424
2971.766	6378
2973.601	6226
2975.435	6333
2977.27	6230
2979.105	6300
2980.938	6232
2982.77	6235
2984.602	6237
2986.434	6203
2988.267	6124
2990.097	6183
2991.927	6162
2993.757	6076
2995.587	6111
2997.417	6063
2999.246	6044
3001.074	5970
3002.902	6001
3004.729	5936
3006.556	5946
3008.384	5927
3010.21	5776
3012.036	5837
3013.861	5708
3015.684	5826
3017.51	5840
3019.334	5720
3021.157	5662
3022.981	5698
3024.802	5777
3026.624	5587
3028.448	5734
3030.267	5715
3032.088	5682
3033.909	5700
3035.728	5610
3037.549	5608
3039.368	5726
3041.186	5558
3043.004	5654
3044.821	5556
3046.64	5493
3048.455	5599
3050.272	5564
3052.087	5603
3053.903	5645
3055.717	5583
3057.534	5598
3059.347	5466
3061.16	5559
3062.974	5509
3064.785	5553
3066.598	5568
3068.411	5588
3070.222	5546
3072.032	5506
3073.844	5537
3075.653	5534
3077.463	5497
3079.272	5405
3081.08	5552
3082.889	5534
3084.697	5418
3086.505	5449
3088.312	5555
3090.118	5583
3091.924	5354
3093.729	5359
3095.535	5403
3097.34	5404
3099.144	5370
3100.947	5401
3102.75	5410
3104.553	5358
3106.357	5385
3108.159	5462
3109.961	5418
3111.762	5357
3113.562	5345
3115.365	5277
3117.164	5373
3118.964	5370
3120.761	5310
3122.56	5354
3124.36	5289
3126.158	5294
3127.954	5391
3129.75	5269
3131.547	5294
3133.343	5368
3135.139	5230
3136.934	5257
3138.729	5346
3140.522	5255
3142.317	5340
3144.11	5230
3145.904	5301
3147.695	5206
3149.488	5343
3151.28	5229
3153.07	5227
3154.863	5234
3156.652	5360
3158.441	5223
3160.231	5208
3162.019	5207
3163.81	5203
3165.597	5195
3167.384	5245
3169.172	5278
3170.958	5203
3172.745	5226
3174.532	5166
3176.317	5131
3178.101	5196
3179.885	5096
3181.67	5189
3183.455	5153
3185.238	5204
3187.02	5151
3188.802	5180
3190.585	5019
3192.368	5162
3194.149	5108
3195.929	5074
3197.709	5161
3199.489	5196
3201.268	5176
3203.048	5069
3204.826	5128
3206.604	5139
3208.382	5073
3210.159	5271
3211.937	5119
3213.713	5154
3215.489	5121
3217.263	5034
3219.038	5135
3220.815	5096
3222.589	5038
3224.363	5245
3226.136	5064
3227.908	5208
3229.681	5109
3231.454	5157
3233.226	5058
3234.996	5102
3236.767	5148
3238.538	5090
3240.308	5152
3242.078	5058
3243.847	5091
3245.615	5098
3247.384	4977
3249.15	5077
3250.92	5109
3252.686	5097
3254.453	5169
3256.218	5116
3257.984	5085
3259.75	5122
3261.515	5159
3263.279	5108
3265.044	5118
3266.806	5048
3268.57	4973
3270.334	5105
3272.095	5081
3273.856	5102
3275.619	5079
3277.379	5116
3279.14	5132
3280.9	5104
3282.661	5123
3284.419	5062
3286.178	5089
3287.937	5054
3289.695	5026
3291.453	5125
3293.21	5129
3294.967	5111
3296.723	5153
3298.48	5120
3300.235	5042
3301.99	5046
3303.744	5147
3305.498	5096
3307.253	5028
3309.006	4975
3310.759	4970
3312.511	5004
3314.263	5040
3316.017	5078
3317.768	5087
3319.519	5002
3321.268	5013
3323.018	5073
3324.767	5064
3326.518	5078
3328.267	5039
3330.014	5095
3331.762	5122
3333.509	5026
3335.258	5052
3337.003	4999
3338.75	4965
3340.496	5043
3342.24	4987
3343.987	5100
3345.732	5008
3347.475	4974
3349.219	4946
3350.961	4921
3352.705	5065
3354.448	5008
3356.19	5021
3357.931	4940
3359.672	4988
3361.412	4941
3363.155	4981
3364.894	5099
3366.633	4949
3368.372	4949
3370.11	4973
3371.849	4878
3373.588	4974
3375.325	4929
3377.061	4972
3378.799	4896
3380.534	4842
3382.271	4915
3384.006	4855
3385.741	4934
3387.475	4905
3389.209	4935
3390.944	4896
3392.677	4920
3394.409	4780
3396.143	4853
3397.874	4938
3399.606	4911
3401.338	4835
3403.069	4837
3404.799	4899
3406.528	4870
3408.258	4812
3409.988	4831
3411.717	4839
3413.445	4845
3415.173	4810
3416.899	4799
3418.626	4813
3420.354	4812
3422.08	4833
3423.806	4818
3425.531	4841
3427.255	4785
3428.981	4817
3430.705	4838
3432.429	4839
3434.151	4801
3435.875	4664
3437.599	4812
3439.321	4723
3441.042	4723
3442.763	4739
3444.483	4739
3446.204	4666
3447.926	4706
3449.645	4700
3451.364	4652
3453.082	4686
3454.801	4792
3456.52	4725
3458.238	4715
3459.954	4714
3461.671	4684
3463.387	4644
3465.104	4704
3466.82	4719
3468.534	4685
3470.25	4759
3471.963	4730
3473.676	4743
3475.392	4640
3477.104	4625
3478.817	4519
3480.528	4613
3482.241	4524
3483.954	4595
3485.664	4556
3487.374	4643
3489.084	4538
3490.795	4575
3492.504	4652
3494.214	4652
3495.922	4520
3497.63	4627
3499.338	4542
3501.045	4601
3502.753	4561
3504.459	4522
3506.166	4501
3507.871	4547
3509.576	4551
3511.283	4587
3512.987	4502
3514.691	4474
3516.395	4494
3518.098	4573
3519.8	4411
3521.504	4534
3523.206	4555
3524.908	4580
3526.609	4388
3528.309	4518
3530.011	4504
3531.711	4522
3533.411	4534
3535.109	4459
3536.808	4389
3538.507	4444
3540.206	4273
3541.904	4459
3543.601	4460
3545.297	4464
3546.994	4395
3548.69	4408
3550.387	4401
3552.081	4439
3553.776	4396
3555.47	4476
3557.166	4403
3558.859	4397
3560.553	4422
3562.245	4388
3563.938	4406
3565.629	4512
3567.322	4329
3569.014	4426
3570.704	4368
3572.394	4406
3574.084	4351
3575.775	4288
3577.464	4373
3579.152	4440
3580.842	4394
3582.529	4463
3584.216	4373
3585.905	4222
3587.591	4412
3589.279	4281
3590.964	4231
3592.649	4394
3594.336	4216
3596.021	4251
3597.705	4211
3599.388	4214
3601.072	4336
3602.757	4258
3604.439	4291
3606.122	4285
3607.803	4217
3609.485	4189
3611.167	4266
3612.849	4179
3614.529	4259
3616.208	4156
3617.888	4220
3619.567	4230
3621.247	4174
3622.926	4168
3624.603	4201
3626.281	4296
3627.958	4227
3629.635	4188
3631.312	4169
3632.989	4176
3634.665	4143
3636.339	4178
3638.014	4131
3639.691	4154
3641.364	4119
3643.038	4114
3644.71	4149
3646.384	4140
3648.058	4173
3649.729	4126
3651.402	4068
3653.073	4078
3654.744	4167
3656.414	4094
3658.085	4117
3659.755	4068
3661.424	4084
3663.094	4061
3664.762	4107
3666.431	4039
3668.099	4165
3669.766	4052
3671.433	3998
3673.099	4066
3674.768	4020
3676.433	4017
3678.098	4123
3679.763	4110
3681.428	4053
3683.093	4003
3684.757	4008
3686.421	4019
3688.083	3982
3689.746	3863
3691.408	3948
3693.071	4032
3694.733	4015
3696.394	4030
3698.054	4076
3699.715	3945
3701.375	3994
3703.036	4032
3704.695	4036
3706.354	4024
3708.012	4019
3709.67	3976
3711.329	3941
3712.987	3973
3714.644	4038
3716.299	3957
3717.955	3955
3719.613	3970
3721.268	3994
3722.923	3919
3724.577	3978
3726.231	3916
3727.885	3951
3729.539	3942
3731.192	3978
3732.845	4055
3734.497	3927
3736.149	4029
3737.802	3944
3739.453	3899
3741.104	3980
3742.753	3966
3744.404	3939
3746.052	3895
3747.704	3878
3749.352	3905
3751	3957
3752.648	3948
3754.296	3943
3755.944	3935
3757.59	3884
3759.238	3866
3760.883	3831
3762.528	3924
3764.176	3859
3765.82	3903
3767.464	3848
3769.109	3876
3770.753	3846
3772.396	3828
3774.04	3845
3775.683	3813
3777.325	3829
3778.967	3813
3780.608	3857
3782.25	3808
3783.89	3810
3785.531	3832
3787.17	3755
3788.81	3838
3790.45	3793
3792.09	3833
3793.729	3885
3795.366	3798
3797.003	3800
3798.64	3841
3800.278	3758
3801.915	3831
3803.551	3782
3805.187	3783
3806.822	3737
3808.458	3803
3810.093	3786
3811.726	3756
3813.36	3656
3814.994	3799
3816.627	3699
3818.262	3725
3819.893	3775
3821.525	3712
3823.157	3684
3824.787	3730
3826.42	3704
3828.051	3666
3829.68	3757
3831.31	3706
3832.938	3705
3834.569	3690
3836.198	3762
3837.825	3602
3839.454	3670
3841.08	3728
3842.708	3656
3844.335	3708
3845.962	3738
3847.587	3675
3849.212	3680
3850.838	3708
3852.463	3676
3854.089	3602
3855.712	3679
3857.335	3640
3858.959	3658
3860.582	3713
3862.205	3622
3863.827	3660
3865.449	3637
3867.07	3662
3868.691	3688
3870.312	3620
3871.933	3638
3873.553	3612
3875.173	3545
3876.792	3696
3878.411	3654
3880.03	3594
3881.647	3672
3883.265	3520
3884.882	3598
3886.499	3662
3888.116	3595
3889.732	3655
3891.348	3635
3892.964	3533
3894.579	3547
3896.195	3578
3897.809	3544
3899.423	3588
3901.036	3604
3902.648	3633
3904.261	3605
3905.875	3583
3907.487	3631
3909.099	3526
3910.709	3567
3912.321	3518
3913.933	3557
3915.542	3605
3917.152	3549
3918.762	3553
3920.37	3493
3921.98	3564
3923.589	3554
3925.196	3583
3926.804	3528
3928.41	3520
3930.018	3594
3931.626	3523
3933.231	3475
3934.838	3537
3936.442	3579
3938.046	3560
3939.653	3499
3941.257	3508
3942.861	3437
3944.464	3490
3946.068	3513
3947.67	3457
3949.273	3471
3950.876	3426
3952.477	3528
3954.078	3520
3955.678	3494
3957.281	3482
3958.881	3431
3960.48	3507
3962.079	3476
3963.678	3473
3965.279	3440
3966.877	3467
3968.475	3492
3970.072	3444
3971.669	3431
3973.266	3432
3974.864	3472
3976.459	3425
3978.055	3477
3979.65	3447
3981.245	3413
3982.841	3405
3984.436	3336
3986.03	3390
3987.623	3424
3989.216	3415
3990.809	3426
3992.403	3383
3993.995	3335
3995.586	3428
3997.177	3424
3998.768	3334
4000.361	3332
4001.951	3344
4003.54	3396
4005.13	3371
4006.719	3354
4008.31	3219
4009.897	3325
4011.485	3343
4013.073	3257
4014.66	3242
4016.247	3349
4017.834	3349
4019.421	3344
4021.006	3359
4022.592	3318
4024.178	3306
4025.763	3336
4027.348	3316
4028.932	3303
4030.515	3253
4032.099	3329
4033.682	3238
4035.266	3214
4036.847	3312
4038.429	3340
4040.011	3323
4041.592	3202
4043.173	3240
4044.755	3266
4046.334	3250
4047.913	3245
4049.494	3183
4051.074	3225
4052.652	3199
4054.23	3249
4055.807	3191
4057.385	3251
4058.963	3153
4060.541	3272
4062.117	3274
4063.693	3202
4065.269	3142
4066.844	3184
4068.42	3215
4069.995	3189
4071.569	3195
4073.143	3199
4074.716	3192
4076.291	3181
4077.864	3199
4079.436	3223
4081.009	3190
4082.58	3229
4084.152	3214
4085.723	3174
4087.294	3140
4088.865	3162
4090.435	3227
4092.005	3126
4093.574	3056
4095.143	3180
4096.712	3122
4098.279	3081
4099.848	3109
4101.416	3131
4102.984	3187
4104.55	3095
4106.117	3179
4107.682	3129
4109.248	3125
4110.815	3065
4112.379	3113
4113.945	3136
4115.508	3133
4117.073	3112
4118.637	3065
4120.201	3090
4121.763	3075
4123.325	3067
4124.888	3126
4126.449	3044
4128.013	3041
4129.573	3118
4131.133	3058
4132.694	3083
4134.254	2993
4135.814	3024
4137.374	3094
4138.933	3018
4140.491	3054
4142.049	3097
4143.607	3014
4145.167	3041
4146.724	3008
4148.28	3028
4149.836	2956
4151.392	3041
4152.949	3068
4154.504	3007
4156.059	2972
4157.614	2980
4159.168	2965
4160.723	2977
4162.277	2939
4163.83	2997
4165.383	2933
4166.936	3011
4168.488	2975
4170.041	2986
4171.593	2983
4173.144	3012
4174.695	2943
4176.246	2980
4177.796	2936
4179.346	2917
4180.896	2928
4182.445	2972
4183.994	2977
4185.542	2997
4187.091	2958
4188.639	2923
4190.185	2873
4191.732	2978
4193.279	2884
4194.826	3016
4196.373	2908
4197.918	2949
4199.463	2916
4201.008	2947
4202.553	2892
4204.098	2832
4205.641	2906
4207.185	2791
4208.728	2899
4210.271	2939
4211.814	2885
4213.357	2874
4214.898	2922
4216.439	2865
4217.98	2855
4219.522	2877
4221.062	2888
4222.603	2902
4224.142	2842
4225.681	2827
4227.222	2804
4228.76	2872
4230.298	2869
4231.835	2835
4233.373	2844
4234.911	2868
4236.449	2807
4237.985	2913
4239.521	2857
4241.057	2745
4242.592	2891
4244.128	2815
4245.663	2870
4247.197	2811
4248.731	2869
4250.265	2773
4251.798	2792
4253.333	2799
4254.865	2824
4256.397	2759
4257.93	2838
4259.461	2773
4260.994	2809
4262.525	2857
4264.056	2815
4265.586	2809
4267.115	2782
4268.646	2789
4270.176	2878
4271.705	2724
4273.232	2810
4274.761	2819
4276.289	2827
4277.818	2823
4279.345	2744
4280.872	2812
4282.399	2793
4283.924	2798
4285.452	2770
4286.976	2798
4288.502	2764
4290.026	2814
4291.551	2805
4293.074	2710
4294.6	2704
4296.123	2729
4297.646	2785
4299.168	2771
4300.691	2735
4302.214	2702
4303.736	2734
4305.257	2807
4306.778	2711
4308.299	2729
4309.82	2771
4311.34	2660
4312.86	2677
4314.379	2642
