400.0745	4208
402.597	4191
405.1208	4245
407.6419	4291
410.1623	4360
412.6819	4291
415.201	4350
417.7172	4395
420.2369	4343
422.7538	4389
425.2701	4593
427.7856	4523
430.3005	4596
432.8147	4632
435.3282	4557
437.841	4585
440.3511	4614
442.8625	4591
445.3753	4584
447.8854	4598
450.3927	4542
452.9014	4600
455.4073	4499
457.9146	4539
460.4233	4564
462.9272	4497
465.4325	4507
467.935	4500
470.4389	4556
472.9421	4533
475.4446	4462
477.9444	4517
480.4456	4472
482.944	4553
485.4417	4518
487.9429	4577
490.4393	4502
492.935	4620
495.4321	4618
497.9264	4594
500.4221	4599
502.9171	4652
505.4094	4644
507.9011	4712
510.392	4519
512.8864	4613
515.3759	4674
517.8649	4634
520.3531	4718
522.8406	4642
525.3275	4689
527.8178	4686
530.3033	4708
532.7881	4739
535.2723	4660
537.7558	4793
540.2407	4719
542.7228	4711
545.2043	4767
547.6851	4769
550.1652	4727
552.6467	4759
555.1255	4737
557.6016	4668
560.079	4733
562.5557	4847
565.0318	4843
567.5092	4765
569.984	4877
572.456	4799
574.9294	4841
577.4022	4943
579.8762	5012
582.3456	5047
584.8163	4956
587.2863	4963
589.7557	4977
592.2224	5005
594.6924	4953
597.1578	5009
599.6245	4855
602.0905	4956
604.5538	4918
607.0206	4877
609.4825	4919
611.9459	4982
614.4066	4838
616.8686	4909
619.33	4856
621.7906	4937
624.2487	4852
626.708	4792
629.1647	4838
631.6207	4838
634.0801	4743
636.5348	4856
638.9888	4859
641.4442	4821
643.8969	4822
646.3509	4796
648.8022	4836
651.255	4875
653.705	4829
656.1544	4900
658.6031	4907
661.0532	4893
663.5026	4873
665.9493	4924
668.3954	4911
670.8409	4878
673.2877	4973
675.7318	4924
678.1752	4927
680.618	4900
683.0601	4937
685.5035	5038
687.9444	4909
690.3845	4954
692.824	4955
695.2628	5111
697.701	5065
700.1406	4979
702.5774	5011
705.0116	5096
707.4472	5041
709.8821	5089
712.3183	5088
714.7519	5065
717.1829	5153
719.6151	5036
722.0468	5150
724.4777	5061
726.908	5182
729.3377	5133
731.7667	5249
734.1931	5121
736.6208	5214
739.0498	5108
741.4742	5103
743.9	5287
746.3231	5379
748.7476	5305
751.1713	5336
753.5945	5364
756.015	5288
758.4368	5322
760.856	5274
763.2766	5399
765.6965	5374
768.1157	5380
770.5323	5423
772.9483	5308
775.3656	5300
777.7822	5353
780.1963	5275
782.6116	5331
785.0244	5354
787.4365	5438
789.8499	5326
792.2626	5414
794.6728	5271
797.0823	5390
799.4911	5461
801.8994	5343
804.3109	5453
806.7178	5403
809.124	5358
811.5297	5484
813.9347	5556
816.341	5579
818.7447	5525
821.1478	5481
823.5502	5504
825.952	5525
828.3531	5428
830.7556	5346
833.1554	5542
835.5546	5494
837.9532	5519
840.3511	5568
842.7504	5521
845.1451	5561
847.5411	5613
849.9365	5592
852.3312	5643
854.7272	5637
857.1187	5626
859.5115	5574
861.9037	5704
864.2952	5595
866.6842	5650
869.0764	5585
871.4661	5623
873.8531	5489
876.2415	5502
878.6272	5574
881.0162	5641
883.4026	5571
885.7866	5611
888.1717	5518
890.5543	5520
892.9382	5596
895.3215	5686
897.7041	5581
900.0842	5602
902.4655	5539
904.8443	5564
907.2244	5658
909.6039	5643
911.9808	5687
914.357	5694
916.7346	5801
919.1115	5790
921.4859	5683
923.8616	5845
926.2347	5828
928.6071	5968
930.979	5861
933.3541	5944
935.7247	5935
938.0946	5926
940.4639	6052
942.8326	6079
945.2026	6302
947.5701	6347
949.9369	6622
952.305	6778
954.6705	7100
957.0355	7440
959.4017	7854
961.7654	7850
964.1284	8078
966.4908	7671
968.8527	7399
971.2138	6950
973.5743	6708
975.9343	6336
978.2936	6095
980.6522	5904
983.0122	5991
985.3696	5950
987.7245	5840
990.0807	5793
992.4362	5761
994.7911	5832
997.1474	5820
999.4991	5840
1001.852	5990
1004.205	5910
1006.555	5866
1008.908	5892
1011.258	5852
1013.606	5820
1015.956	5740
1018.302	5855
1020.652	5772
1022.998	5825
1025.345	5918
1027.691	5906
1030.035	5915
1032.378	5960
1034.724	6007
1037.066	5991
1039.409	6019
1041.75	5968
1044.092	5952
1046.433	6033
1048.771	6019
1051.112	6092
1053.449	5937
1055.786	6009
1058.124	5962
1060.462	6039
1062.797	6025
1065.131	6017
1067.467	6041
1069.8	6182
1072.135	6084
1074.467	6054
1076.798	6261
1079.129	6095
1081.459	5997
1083.792	5987
1086.121	6031
1088.449	5957
1090.777	5904
1093.104	5739
1095.431	5949
1097.759	5940
1100.084	5866
1102.408	5901
1104.732	5929
1107.056	5870
1109.379	6029
1111.701	5859
1114.022	5868
1116.343	6070
1118.664	5953
1120.983	5942
1123.303	5807
1125.621	5790
1127.939	5893
1130.256	5971
1132.573	5851
1134.889	5864
1137.205	5945
1139.52	5902
1141.832	5855
1144.146	5884
1146.461	5961
1148.771	5814
1151.083	5859
1153.392	5945
1155.703	5928
1158.011	5897
1160.323	5866
1162.629	5854
1164.938	5907
1167.243	5910
1169.55	5993
1171.857	5879
1174.163	5933
1176.466	5966
1178.769	5908
1181.073	6059
1183.374	5898
1185.677	5992
1187.979	5808
1190.279	5857
1192.578	5926
1194.878	5887
1197.178	5913
1199.476	5889
1201.772	5947
1204.068	5941
1206.366	5996
1208.663	5935
1210.957	5935
1213.251	5902
1215.544	5912
1217.836	5932
1220.128	5915
1222.421	6032
1224.712	5909
1227.002	6070
1229.292	6012
1231.581	5997
1233.871	6105
1236.159	6084
1238.446	6133
1240.732	6106
1243.018	6266
1245.304	6094
1247.59	6288
1249.874	6233
1252.156	6272
1254.439	6174
1256.721	6143
1259.005	6327
1261.286	6283
1263.565	6181
1265.845	6301
1268.125	6152
1270.403	6154
1272.682	6272
1274.959	6340
1277.234	6178
1279.511	6266
1281.787	6119
1284.062	6175
1286.337	6175
1288.609	6071
1290.882	6023
1293.153	6097
1295.428	6117
1297.698	6075
1299.969	6016
1302.237	5966
1304.507	5967
1306.777	5982
1309.044	6066
1311.312	6090
1313.578	6105
1315.844	6036
1318.109	6053
1320.375	6095
1322.638	6064
1324.903	5996
1327.165	6051
1329.427	6114
1331.69	6072
1333.952	6113
1336.212	6141
1338.471	6066
1340.73	6158
1342.988	6057
1345.248	5961
1347.505	6019
1349.763	6106
1352.019	6096
1354.274	6032
1356.53	6035
1358.784	6003
1361.038	5987
1363.291	5890
1365.543	5989
1367.797	6018
1370.048	6018
1372.296	6132
1374.546	5971
1376.796	6112
1379.045	5957
1381.295	6136
1383.542	6032
1385.787	6053
1388.034	6105
1390.28	6039
1392.527	6033
1394.772	6121
1397.014	6125
1399.258	6154
1401.501	6241
1403.741	6309
1405.985	6257
1408.226	6152
1410.465	6274
1412.705	6231
1414.943	6188
1417.184	6369
1419.42	6161
1421.658	6179
1423.894	6251
1426.13	6201
1428.366	6285
1430.602	6253
1432.835	6344
1435.069	6230
1437.301	6229
1439.535	6354
1441.767	6380
1443.997	6225
1446.229	6335
1448.458	6388
1450.687	6359
1452.916	6468
1455.146	6363
1457.372	6404
1459.599	6391
1461.824	6370
1464.051	6384
1466.277	6381
1468.501	6272
1470.725	6273
1472.948	6398
1475.17	6102
1477.393	6178
1479.614	6178
1481.837	6020
1484.057	6093
1486.276	6035
1488.497	5963
1490.715	6080
1492.932	6038
1495.148	5997
1497.364	5930
1499.58	6056
1501.798	5976
1504.012	5919
1506.227	6012
1508.44	5981
1510.653	5921
1512.866	5916
1515.078	5885
1517.289	5880
1519.5	5985
1521.711	5891
1523.92	6007
1526.13	5979
1528.338	5873
1530.544	6007
1532.752	6006
1534.959	5991
1537.165	5936
1539.371	6010
1541.574	5972
1543.779	6095
1545.983	5884
1548.187	5927
1550.39	6062
1552.59	5960
1554.792	6035
1556.991	6086
1559.19	6111
1561.392	6040
1563.59	6099
1565.789	6048
1567.986	6098
1570.182	6145
1572.381	5911
1574.576	6122
1576.771	6083
1578.966	6162
1581.16	6143
1583.354	6134
1585.546	6181
1587.74	6125
1589.931	6050
1592.121	6175
1594.311	6199
1596.502	6136
1598.693	6080
1600.881	6316
1603.069	6137
1605.256	6168
1607.445	6287
1609.631	6178
1611.816	6271
1614.001	6257
1616.186	6157
1618.37	6283
1620.555	6148
1622.737	6182
1624.919	6334
1627.101	6260
1629.282	6290
1631.463	6214
1633.643	6262
1635.822	6220
1638.001	6322
1640.179	6363
1642.359	6321
1644.534	6360
1646.711	6329
1648.887	6334
1651.062	6328
1653.235	6458
1655.412	6362
1657.586	6424
1659.757	6472
1661.93	6333
1664.1	6441
1666.274	6429
1668.445	6432
1670.614	6485
1672.784	6465
1674.951	6459
1677.12	6502
1679.289	6396
1681.457	6385
1683.622	6432
1685.789	6432
1687.953	6390
1690.121	6402
1692.284	6326
1694.447	6248
1696.611	6298
1698.772	6199
1700.935	6171
1703.098	6181
1705.258	6240
1707.417	6181
1709.576	6119
1711.736	6081
1713.896	5989
1716.053	6117
1718.21	6180
1720.366	6104
1722.522	6095
1724.68	6141
1726.835	6144
1728.989	6150
1731.142	5978
1733.295	6094
1735.449	6133
1737.601	6156
1739.753	6043
1741.903	6072
1744.054	6184
1746.203	6162
1748.354	6250
1750.503	6182
1752.651	6147
1754.798	6197
1756.944	6105
1759.092	6206
1761.238	6281
1763.383	6218
1765.528	6100
1767.672	6053
1769.814	6140
1771.959	6108
1774.102	6175
1776.242	6207
1778.384	6114
1780.525	6198
1782.665	6086
1784.805	6208
1786.945	6229
1789.082	6088
1791.22	6308
1793.36	6146
1795.495	6148
1797.632	6289
1799.766	6187
1801.902	6219
1804.035	6212
1806.172	6194
1808.304	6183
1810.436	6189
1812.569	6185
1814.699	6164
1816.833	6175
1818.963	6118
1821.092	6146
1823.222	6024
1825.35	6181
1827.478	6037
1829.608	6187
1831.734	6093
1833.86	6113
1835.986	6129
1838.11	6057
1840.238	6082
1842.362	6086
1844.485	6138
1846.608	6281
1848.73	6134
1850.853	6130
1852.974	5996
1855.097	6034
1857.217	6068
1859.336	5981
1861.455	6045
1863.576	6092
1865.693	6043
1867.811	6069
1869.926	6141
1872.042	6019
1874.16	6077
1876.275	5996
1878.39	6087
1880.504	6092
1882.618	6216
1884.731	6053
1886.843	6040
1888.956	6094
1891.067	6110
1893.178	6149
1895.287	6037
1897.399	6197
1899.508	6232
1901.617	6225
1903.724	6121
1905.832	6130
1907.941	6135
1910.046	6268
1912.152	6216
1914.256	6236
1916.361	6136
1918.464	6179
1920.57	6215
1922.672	6128
1924.775	6202
1926.876	6178
1928.978	6224
1931.08	6265
1933.181	6191
1935.28	6203
1937.38	6094
1939.478	6118
1941.577	6240
1943.675	6161
1945.771	6218
1947.867	6163
1949.964	6153
1952.058	6099
1954.154	6202
1956.248	6057
1958.343	6152
1960.435	6150
1962.527	6111
1964.62	6196
1966.711	6262
1968.802	6122
1970.892	6176
1972.983	6097
1975.072	6128
1977.162	6130
1979.25	6083
1981.337	6106
1983.424	6134
1985.51	6190
1987.598	6042
1989.683	6212
1991.768	6162
1993.852	6090
1995.934	6041
1998.019	6084
2000.102	6158
2002.184	6135
2004.266	6146
2006.347	6038
2008.427	6091
2010.508	5974
2012.587	6082
2014.666	6116
2016.745	6127
2018.821	6115
2020.9	6038
2022.977	6173
2025.052	6100
2027.128	6155
2029.204	6027
2031.277	6032
2033.353	6000
2035.425	6075
2037.499	6062
2039.57	5969
2041.642	6108
2043.714	6081
2045.786	6139
2047.855	6074
2049.925	6033
2051.993	6093
2054.064	6094
2056.132	6097
2058.2	6118
2060.266	6172
2062.332	6086
2064.398	6020
2066.465	6150
2068.529	6034
2070.592	6102
2072.657	6072
2074.719	5972
2076.783	6141
2078.845	6058
2080.907	6109
2082.968	6146
2085.028	5981
2087.087	6024
2089.148	6016
2091.207	6095
2093.264	6110
2095.322	6175
2097.379	6038
2099.439	6096
2101.495	6023
2103.55	6162
2105.605	6030
2107.658	5950
2109.713	6056
2111.767	5965
2113.82	6073
2115.872	6043
2117.924	6112
2119.975	6080
2122.028	6153
2124.078	5963
2126.126	6118
2128.176	6057
2130.225	5987
2132.275	6114
2134.321	6130
2136.368	6136
2138.415	6166
2140.461	5966
2142.505	6075
2144.552	6100
2146.597	6089
2148.64	5934
2150.684	6040
2152.725	5954
2154.77	6085
2156.811	6092
2158.852	5965
2160.894	5960
2162.933	5963
2164.973	6110
2167.013	5989
2169.051	6019
2171.089	6079
2173.126	6079
2175.164	5986
2177.201	5993
2179.236	5892
2181.273	6127
2183.307	5996
2185.341	6038
2187.377	5930
2189.41	5934
2191.442	5898
2193.473	6064
2195.506	5989
2197.539	5960
2199.569	6031
2201.598	5972
2203.628	5922
2205.656	5849
2207.686	5808
2209.716	5923
2211.743	6022
2213.769	5851
2215.796	5967
2217.821	5885
2219.848	5992
2221.873	5893
2223.897	5841
2225.921	5884
2227.944	5941
2229.967	5928
2231.991	5894
2234.011	5873
2236.032	5900
2238.053	5941
2240.073	5927
2242.094	5864
2244.114	5926
2246.131	5972
2248.149	5884
2250.167	5930
2252.186	5789
2254.201	5823
2256.218	5894
2258.233	5881
2260.247	5899
2262.262	5858
2264.278	5887
2266.29	5854
2268.303	5945
2270.315	5856
2272.327	5920
2274.341	5932
2276.35	5850
2278.361	5921
2280.37	5953
2282.38	6005
2284.388	6012
2286.397	5914
2288.405	5887
2290.412	5927
2292.419	5885
2294.425	5970
2296.431	5906
2298.437	5937
2300.441	5909
2302.445	5803
2304.449	5907
2306.453	5931
2308.455	5885
2310.457	5846
2312.459	5947
2314.46	5818
2316.46	5857
2318.461	5855
2320.46	5835
2322.458	5797
2324.458	5794
2326.456	5878
2328.455	5806
2330.451	5898
2332.447	5748
2334.443	5735
2336.438	5739
2338.433	5818
2340.429	5891
2342.422	5886
2344.416	5836
2346.408	5783
2348.399	5720
2350.393	5769
2352.384	5713
2354.375	5778
2356.365	5823
2358.355	5705
2360.344	5700
2362.333	5724
2364.322	5777
2366.309	5709
2368.295	5745
2370.282	5733
2372.27	5835
2374.256	5733
2376.24	5775
2378.225	5743
2380.208	5744
2382.194	5809
2384.177	5825
2386.159	5712
2388.142	5652
2390.122	5616
2392.105	5797
2394.085	5676
2396.066	5622
2398.044	5618
2400.024	5721
2402.002	5739
2403.982	5668
2405.959	5692
2407.935	5741
2409.913	5646
2411.888	5711
2413.865	5711
2415.84	5669
2417.814	5539
2419.788	5730
2421.762	5598
2423.735	5708
2425.708	5685
2427.68	5715
2429.651	5703
2431.623	5783
2433.593	5698
2435.564	5585
2437.533	5645
2439.502	5576
2441.47	5639
2443.438	5653
2445.406	5654
2447.373	5583
2449.34	5640
2451.305	5670
2453.271	5652
2455.235	5666
2457.201	5706
2459.165	5552
2461.129	5659
2463.092	5647
2465.054	5576
2467.018	5670
2468.978	5553
2470.939	5619
2472.899	5671
2474.86	5551
2476.819	5558
2478.778	5469
2480.737	5637
2482.695	5515
2484.653	5581
2486.609	5570
2488.567	5601
2490.524	5524
2492.478	5560
2494.433	5508
2496.387	5566
2498.343	5612
2500.297	5568
2502.249	5525
2504.202	5536
2506.153	5663
2508.105	5530
2510.057	5583
2512.008	5558
2513.957	5606
2515.906	5571
2517.855	5551
2519.805	5632
2521.754	5525
2523.7	5574
2525.647	5520
2527.594	5464
2529.54	5588
2531.486	5506
2533.431	5546
2535.376	5505
2537.32	5486
2539.263	5436
2541.207	5455
2543.151	5550
2545.093	5554
2547.034	5476
2548.975	5461
2550.917	5520
2552.856	5608
2554.796	5556
2556.735	5450
2558.673	5442
2560.611	5597
2562.55	5481
2564.487	5499
2566.424	5492
2568.36	5530
2570.296	5575
2572.232	5462
2574.167	5526
2576.101	5547
2578.035	5513
2579.969	5648
2581.902	5540
2583.834	5516
2585.766	5600
2587.698	5532
2589.628	5489
2591.557	5495
2593.489	5462
2595.419	5545
2597.348	5504
2599.275	5698
2601.204	5470
2603.131	5495
2605.059	5474
2606.986	5622
2608.911	5499
2610.837	5470
2612.76	5573
2614.687	5532
2616.61	5563
2618.534	5517
2620.457	5662
2622.38	5446
2624.302	5524
2626.225	5480
2628.145	5559
2630.067	5574
2631.986	5526
2633.906	5593
2635.827	5536
2637.745	5539
2639.662	5523
2641.581	5452
2643.498	5508
2645.415	5586
2647.331	5452
2649.248	5517
2651.163	5535
2653.077	5620
2654.993	5527
2656.906	5525
2658.821	5457
2660.733	5547
2662.646	5503
2664.557	5472
2666.47	5395
2668.381	5486
2670.291	5500
2672.201	5560
2674.11	5550
2676.021	5555
2677.929	5559
2679.837	5481
2681.745	5531
2683.652	5498
2685.56	5487
2687.466	5459
2689.371	5493
2691.276	5454
2693.181	5417
2695.085	5459
2696.991	5487
2698.893	5423
2700.796	5543
2702.698	5417
2704.601	5462
2706.502	5411
2708.404	5460
2710.304	5447
2712.203	5434
2714.103	5373
2716.003	5473
2717.902	5373
2719.8	5369
2721.697	5392
2723.594	5438
2725.49	5449
2727.389	5424
2729.283	5421
2731.179	5291
2733.073	5437
2734.968	5381
2736.863	5470
2738.757	5456
2740.649	5338
2742.541	5407
2744.433	5385
2746.324	5416
2748.216	5459
2750.107	5384
2751.997	5299
2753.886	5424
2755.776	5387
2757.666	5419
2759.553	5405
2761.44	5331
2763.327	5413
2765.215	5372
2767.102	5402
2768.988	5370
2770.873	5410
2772.757	5344
2774.641	5334
2776.525	5337
2778.41	5348
2780.292	5305
2782.175	5392
2784.057	5397
2785.938	5352
2787.821	5422
2789.701	5315
2791.581	5377
2793.461	5289
2795.34	5408
2797.219	5386
2799.099	5417
2800.975	5317
2802.853	5403
2804.73	5299
2806.606	5256
2808.484	5294
2810.358	5455
2812.233	5355
2814.108	5399
2815.981	5294
2817.857	5301
2819.73	5236
2821.602	5297
2823.474	5365
2825.346	5230
2827.217	5295
2829.089	5275
2830.959	5352
2832.829	5317
2834.698	5302
2836.567	5294
2838.436	5435
2840.305	5365
2842.172	5319
2844.04	5375
2845.905	5319
2847.772	5328
2849.639	5330
2851.503	5383
2853.369	5451
2855.232	5433
2857.096	5428
2858.961	5496
2860.824	5409
2862.686	5488
2864.547	5584
2866.41	5481
2868.272	5649
2870.132	5751
2871.992	5774
2873.851	5736
2875.711	5885
2877.57	6044
2879.429	5993
2881.287	6034
2883.144	6014
2885.001	6136
2886.857	6071
2888.714	6076
2890.57	6117
2892.425	6136
2894.279	6043
2896.133	5897
2897.987	6061
2899.842	6030
2901.694	6005
2903.547	6056
2905.397	6035
2907.249	6029
2909.101	6072
2910.952	6136
2912.802	6233
2914.652	6168
2916.5	6314
2918.35	6433
2920.198	6379
2922.045	6488
2923.893	6451
2925.74	6686
2927.585	6689
2929.433	6722
2931.279	6764
2933.123	6997
2934.968	6976
2936.811	7053
2938.656	7160
2940.5	7036
2942.342	7213
2944.185	7283
2946.026	7242
2947.87	7307
2949.71	7160
2951.549	7244
2953.39	7179
2955.229	7028
2957.069	6814
2958.908	6909
2960.746	6867
2962.584	6885
2964.421	6657
2966.257	6646
2968.094	6410
2969.931	6488
2971.766	6517
2973.601	6357
2975.435	6304
2977.27	6409
2979.105	6352
2980.938	6318
2982.77	6183
2984.602	6225
2986.434	6220
2988.267	6270
2990.097	6103
2991.927	6146
2993.757	6114
2995.587	5992
2997.417	5891
2999.246	5812
3001.074	5881
3002.902	5703
3004.729	5712
3006.556	5686
3008.384	5522
3010.21	5457
3012.036	5440
3013.861	5390
3015.684	5451
3017.51	5298
3019.334	5350
3021.157	5262
3022.981	5313
3024.802	5243
3026.624	5251
3028.448	5114
3030.267	5135
3032.088	5141
3033.909	5245
3035.728	5074
3037.549	5054
3039.368	5087
3041.186	5138
3043.004	5062
3044.821	5128
3046.64	5001
3048.455	5032
3050.272	5047
3052.087	5013
3053.903	4968
3055.717	5014
3057.534	5044
3059.347	5046
3061.16	5099
3062.974	5060
3064.785	5034
3066.598	5068
3068.411	5114
3070.222	5027
3072.032	5014
3073.844	4982
3075.653	5000
3077.463	5042
3079.272	4944
3081.08	5060
3082.889	4955
3084.697	4973
3086.505	5018
3088.312	4940
3090.118	4929
3091.924	4985
3093.729	4901
3095.535	4742
3097.34	4860
3099.144	4958
3100.947	4853
3102.75	4898
3104.553	4902
3106.357	4881
3108.159	4831
3109.961	4835
3111.762	4793
3113.562	4939
3115.365	4829
3117.164	4838
3118.964	4808
3120.761	4760
3122.56	4869
3124.36	4803
3126.158	4712
3127.954	4829
3129.75	4718
3131.547	4777
3133.343	4706
3135.139	4729
3136.934	4845
3138.729	4806
3140.522	4812
3142.317	4693
3144.11	4779
3145.904	4730
3147.695	4810
3149.488	4712
3151.28	4725
3153.07	4748
3154.863	4652
3156.652	4704
3158.441	4721
3160.231	4754
3162.019	4712
3163.81	4721
3165.597	4615
3167.384	4689
3169.172	4684
3170.958	4671
3172.745	4677
3174.532	4637
3176.317	4660
3178.101	4743
3179.885	4724
3181.67	4726
3183.455	4686
3185.238	4719
3187.02	4666
3188.802	4734
3190.585	4694
3192.368	4696
3194.149	4696
3195.929	4756
3197.709	4732
3199.489	4657
3201.268	4747
3203.048	4763
3204.826	4796
3206.604	4751
3208.382	4655
3210.159	4723
3211.937	4662
3213.713	4758
3215.489	4727
3217.263	4683
3219.038	4776
3220.815	4696
3222.589	4624
3224.363	4680
3226.136	4755
3227.908	4656
3229.681	4760
3231.454	4763
3233.226	4662
3234.996	4733
3236.767	4676
3238.538	4694
3240.308	4743
3242.078	4800
3243.847	4674
3245.615	4765
3247.384	4646
3249.15	4681
3250.92	4766
3252.686	4743
3254.453	4698
3256.218	4798
3257.984	4679
3259.75	4695
3261.515	4682
3263.279	4725
3265.044	4730
3266.806	4721
3268.57	4725
3270.334	4766
3272.095	4702
3273.856	4620
3275.619	4768
3277.379	4777
3279.14	4667
3280.9	4716
3282.661	4722
3284.419	4807
3286.178	4728
3287.937	4683
3289.695	4705
3291.453	4720
3293.21	4787
3294.967	4713
3296.723	4682
3298.48	4770
3300.235	4669
3301.99	4797
3303.744	4776
3305.498	4858
3307.253	4617
3309.006	4663
3310.759	4777
3312.511	4702
3314.263	4804
3316.017	4806
3317.768	4733
3319.519	4682
3321.268	4648
3323.018	4669
3324.767	4712
3326.518	4654
3328.267	4673
3330.014	4731
3331.762	4758
3333.509	4760
3335.258	4767
3337.003	4678
3338.75	4718
3340.496	4774
3342.24	4678
3343.987	4704
3345.732	4685
3347.475	4649
3349.219	4622
3350.961	4690
3352.705	4763
3354.448	4648
3356.19	4667
3357.931	4647
3359.672	4647
3361.412	4634
3363.155	4680
3364.894	4650
3366.633	4665
3368.372	4704
3370.11	4589
3371.849	4589
3373.588	4565
3375.325	4624
3377.061	4641
3378.799	4663
3380.534	4602
3382.271	4587
3384.006	4635
3385.741	4665
3387.475	4554
3389.209	4582
3390.944	4571
3392.677	4508
3394.409	4577
3396.143	4559
3397.874	4610
3399.606	4505
3401.338	4527
3403.069	4517
3404.799	4456
3406.528	4544
3408.258	4551
3409.988	4468
3411.717	4589
3413.445	4452
3415.173	4541
3416.899	4557
3418.626	4501
3420.354	4491
3422.08	4502
3423.806	4529
3425.531	4401
3427.255	4486
3428.981	4413
3430.705	4410
3432.429	4442
3434.151	4358
3435.875	4537
3437.599	4569
3439.321	4417
3441.042	4541
3442.763	4394
3444.483	4451
3446.204	4447
3447.926	4443
3449.645	4305
3451.364	4351
3453.082	4400
3454.801	4314
3456.52	4320
3458.238	4355
3459.954	4362
3461.671	4313
3463.387	4355
3465.104	4312
3466.82	4352
3468.534	4367
3470.25	4255
3471.963	4339
3473.676	4289
3475.392	4396
3477.104	4263
3478.817	4239
3480.528	4284
3482.241	4252
3483.954	4242
3485.664	4222
3487.374	4243
3489.084	4281
3490.795	4162
3492.504	4203
3494.214	4143
3495.922	4212
3497.63	4220
3499.338	4153
3501.045	4194
3502.753	4154
3504.459	4173
3506.166	4132
3507.871	4171
3509.576	4095
3511.283	4117
3512.987	4120
3514.691	4041
3516.395	4240
3518.098	4088
3519.8	4154
3521.504	4177
3523.206	4040
3524.908	4163
3526.609	4064
3528.309	4124
3530.011	4122
3531.711	4064
3533.411	4040
3535.109	4029
3536.808	4009
3538.507	4094
3540.206	4039
3541.904	4058
3543.601	4059
3545.297	4086
3546.994	4014
3548.69	4033
3550.387	4024
3552.081	3968
3553.776	4007
3555.47	3991
3557.166	3985
3558.859	3998
3560.553	3957
3562.245	4001
3563.938	3910
3565.629	4005
3567.322	3990
3569.014	4036
3570.704	3957
3572.394	4061
3574.084	3918
3575.775	3934
3577.464	3881
3579.152	3949
3580.842	3976
3582.529	3946
3584.216	3916
3585.905	3963
3587.591	3881
3589.279	3918
3590.964	3886
3592.649	3909
3594.336	3866
3596.021	3869
3597.705	3847
3599.388	3859
3601.072	3761
3602.757	3844
3604.439	3841
3606.122	3811
3607.803	3862
3609.485	3775
3611.167	3744
3612.849	3789
3614.529	3805
3616.208	3730
3617.888	3800
3619.567	3716
3621.247	3822
3622.926	3708
3624.603	3727
3626.281	3742
3627.958	3738
3629.635	3676
3631.312	3687
3632.989	3667
3634.665	3672
3636.339	3695
3638.014	3716
3639.691	3720
3641.364	3667
3643.038	3724
3644.71	3668
3646.384	3701
3648.058	3637
3649.729	3652
3651.402	3719
3653.073	3595
3654.744	3657
3656.414	3653
3658.085	3543
3659.755	3616
3661.424	3634
3663.094	3606
3664.762	3732
3666.431	3594
3668.099	3579
3669.766	3605
3671.433	3568
3673.099	3627
3674.768	3561
3676.433	3592
3678.098	3592
3679.763	3580
3681.428	3576
3683.093	3555
3684.757	3559
3686.421	3622
3688.083	3558
3689.746	3529
3691.408	3580
3693.071	3574
3694.733	3578
3696.394	3602
3698.054	3568
3699.715	3600
3701.375	3574
3703.036	3528
3704.695	3504
3706.354	3531
3708.012	3636
3709.67	3575
3711.329	3543
3712.987	3530
3714.644	3512
3716.299	3531
3717.955	3623
3719.613	3506
3721.268	3586
3722.923	3439
3724.577	3558
3726.231	3487
3727.885	3475
3729.539	3496
3731.192	3449
3732.845	3550
3734.497	3495
3736.149	3464
3737.802	3512
3739.453	3462
3741.104	3423
3742.753	3422
3744.404	3501
3746.052	3497
3747.704	3418
3749.352	3418
3751	3511
3752.648	3411
3754.296	3418
3755.944	3452
3757.59	3467
3759.238	3387
3760.883	3385
3762.528	3498
3764.176	3389
3765.82	3367
3767.464	3387
3769.109	3443
3770.753	3390
3772.396	3393
3774.04	3384
3775.683	3356
3777.325	3383
3778.967	3363
3780.608	3413
3782.25	3413
3783.89	3450
3785.531	3407
3787.17	3380
3788.81	3323
3790.45	3371
3792.09	3400
3793.729	3354
3795.366	3307
3797.003	3377
3798.64	3376
3800.278	3368
3801.915	3331
3803.551	3316
3805.187	3335
3806.822	3355
3808.458	3313
3810.093	3244
3811.726	3285
3813.36	3336
3814.994	3401
3816.627	3302
3818.262	3344
3819.893	3288
3821.525	3277
3823.157	3262
3824.787	3229
3826.42	3278
3828.051	3306
3829.68	3269
3831.31	3293
3832.938	3222
3834.569	3307
3836.198	3218
3837.825	3302
3839.454	3187
3841.08	3246
3842.708	3309
3844.335	3222
3845.962	3226
3847.587	3301
3849.212	3257
3850.838	3298
3852.463	3254
3854.089	3224
3855.712	3219
3857.335	3176
3858.959	3265
3860.582	3243
3862.205	3225
3863.827	3219
3865.449	3237
3867.07	3287
3868.691	3240
3870.312	3186
3871.933	3123
3873.553	3195
3875.173	3200
3876.792	3221
3878.411	3152
3880.03	3167
3881.647	3193
3883.265	3205
3884.882	3206
3886.499	3153
3888.116	3149
3889.732	3250
3891.348	3155
3892.964	3138
3894.579	3145
3896.195	3211
3897.809	3084
3899.423	3136
3901.036	3181
3902.648	3158
3904.261	3174
3905.875	3183
3907.487	3107
3909.099	3173
3910.709	3096
3912.321	3111
3913.933	3174
3915.542	3189
3917.152	3140
3918.762	3199
3920.37	3042
3921.98	3073
3923.589	3168
3925.196	3136
3926.804	3111
3928.41	3139
3930.018	3089
3931.626	3123
3933.231	3153
3934.838	3055
3936.442	3135
3938.046	3138
3939.653	3033
3941.257	3057
3942.861	3161
3944.464	3050
3946.068	3110
3947.67	3089
3949.273	3085
3950.876	3128
3952.477	2995
3954.078	3041
3955.678	3074
3957.281	3048
3958.881	3142
3960.48	3086
3962.079	3089
3963.678	3034
3965.279	3050
3966.877	3049
3968.475	3048
3970.072	3154
3971.669	3045
3973.266	3104
3974.864	3076
3976.459	3106
3978.055	3043
3979.65	3027
3981.245	3037
3982.841	2967
3984.436	3001
3986.03	2992
3987.623	2958
3989.216	2957
3990.809	2981
3992.403	2935
3993.995	3018
3995.586	2986
3997.177	3001
3998.768	3048
4000.361	2958
4001.951	2975
4003.54	2959
4005.13	2979
4006.719	2969
4008.31	2908
4009.897	2996
4011.485	2932
4013.073	2894
4014.66	2817
4016.247	2925
4017.834	2962
4019.421	2994
4021.006	2866
4022.592	2863
4024.178	2945
4025.763	2907
4027.348	2852
4028.932	2944
4030.515	2907
4032.099	2904
4033.682	2937
4035.266	2839
4036.847	2877
4038.429	2789
4040.011	2932
4041.592	2912
4043.173	2853
4044.755	2860
4046.334	2855
4047.913	2842
4049.494	2873
4051.074	2903
4052.652	2874
4054.23	2833
4055.807	2854
4057.385	2842
4058.963	2869
4060.541	2917
4062.117	2866
4063.693	2848
4065.269	2843
4066.844	2834
4068.42	2830
4069.995	2809
4071.569	2802
4073.143	2799
4074.716	2864
4076.291	2813
4077.864	2774
4079.436	2860
4081.009	2805
4082.58	2715
4084.152	2754
4085.723	2821
4087.294	2781
4088.865	2758
4090.435	2818
4092.005	2791
4093.574	2781
4095.143	2865
4096.712	2830
4098.279	2819
4099.848	2776
4101.416	2746
4102.984	2729
4104.55	2790
4106.117	2784
4107.682	2782
4109.248	2769
4110.815	2735
4112.379	2781
4113.945	2744
4115.508	2797
4117.073	2746
4118.637	2780
4120.201	2768
4121.763	2786
4123.325	2779
4124.888	2711
4126.449	2716
4128.013	2808
4129.573	2680
4131.133	2716
4132.694	2790
4134.254	2695
4135.814	2743
4137.374	2659
4138.933	2755
4140.491	2683
4142.049	2673
4143.607	2695
4145.167	2727
4146.724	2636
4148.28	2701
4149.836	2621
4151.392	2674
4152.949	2712
4154.504	2659
4156.059	2661
4157.614	2708
4159.168	2579
4160.723	2617
4162.277	2627
4163.83	2650
4165.383	2657
4166.936	2635
4168.488	2547
4170.041	2625
4171.593	2648
4173.144	2628
4174.695	2641
4176.246	2558
4177.796	2689
4179.346	2641
4180.896	2615
4182.445	2686
4183.994	2590
4185.542	2643
4187.091	2563
4188.639	2606
4190.185	2639
4191.732	2605
4193.279	2591
4194.826	2640
4196.373	2612
4197.918	2571
4199.463	2602
4201.008	2552
4202.553	2562
4204.098	2588
4205.641	2566
4207.185	2575
4208.728	2581
4210.271	2562
4211.814	2563
4213.357	2546
4214.898	2567
4216.439	2573
4217.98	2546
4219.522	2560
4221.062	2579
4222.603	2547
4224.142	2578
4225.681	2550
4227.222	2562
4228.76	2585
4230.298	2604
4231.835	2483
4233.373	2559
4234.911	2506
4236.449	2566
4237.985	2513
4239.521	2558
4241.057	2543
4242.592	2561
4244.128	2521
4245.663	2619
4247.197	2585
4248.731	2508
4250.265	2522
4251.798	2488
4253.333	2533
4254.865	2475
4256.397	2518
4257.93	2547
4259.461	2479
4260.994	2457
4262.525	2483
4264.056	2509
4265.586	2529
4267.115	2445
4268.646	2548
4270.176	2479
4271.705	2532
4273.232	2498
4274.761	2523
4276.289	2462
4277.818	2469
4279.345	2458
4280.872	2554
4282.399	2482
4283.924	2472
4285.452	2472
4286.976	2470
4288.502	2409
4290.026	2485
4291.551	2492
4293.074	2445
4294.6	2540
4296.123	2439
4297.646	2456
4299.168	2451
4300.691	2426
4302.214	2458
4303.736	2450
4305.257	2458
4306.778	2459
4308.299	2401
4309.82	2401
4311.34	2430
4312.86	2368
4314.379	2381
