400.0745	3991
402.597	3948
405.1208	3927
407.6419	4027
410.1623	3957
412.6819	4008
415.201	4035
417.7172	4078
420.2369	4156
422.7538	4127
425.2701	4136
427.7856	4125
430.3005	4143
432.8147	4211
435.3282	4117
437.841	4185
440.3511	4132
442.8625	4176
445.3753	4299
447.8854	4310
450.3927	4268
452.9014	4180
455.4073	4192
457.9146	4249
460.4233	4224
462.9272	4255
465.4325	4180
467.935	4316
470.4389	4124
472.9421	4372
475.4446	4334
477.9444	4336
480.4456	4216
482.944	4367
485.4417	4315
487.9429	4319
490.4393	4308
492.935	4432
495.4321	4378
497.9264	4429
500.4221	4390
502.9171	4351
505.4094	4419
507.9011	4434
510.392	4452
512.8864	4541
515.3759	4475
517.8649	4484
520.3531	4428
522.8406	4478
525.3275	4422
527.8178	4522
530.3033	4473
532.7881	4462
535.2723	4453
537.7558	4458
540.2407	4493
542.7228	4434
545.2043	4482
547.6851	4427
550.1652	4462
552.6467	4505
555.1255	4492
557.6016	4472
560.079	4510
562.5557	4524
565.0318	4448
567.5092	4578
569.984	4543
572.456	4527
574.9294	4556
577.4022	4621
579.8762	4621
582.3456	4537
584.8163	4576
587.2863	4591
589.7557	4703
592.2224	4708
594.6924	4641
597.1578	4609
599.6245	4702
602.0905	4691
604.5538	4667
607.0206	4657
609.4825	4612
611.9459	4519
614.4066	4592
616.8686	4586
619.33	4683
621.7906	4585
624.2487	4741
626.708	4663
629.1647	4627
631.6207	4618
634.0801	4546
636.5348	4710
638.9888	4701
641.4442	4571
643.8969	4631
646.3509	4596
648.8022	4645
651.255	4597
653.705	4642
656.1544	4723
658.6031	4669
661.0532	4584
663.5026	4703
665.9493	4694
668.3954	4775
670.8409	4688
673.2877	4757
675.7318	4743
678.1752	4794
680.618	4822
683.0601	4798
685.5035	4710
687.9444	4840
690.3845	4767
692.824	4809
695.2628	4880
697.701	4870
700.1406	4814
702.5774	4899
705.0116	4846
707.4472	4958
709.8821	4944
712.3183	4860
714.7519	4775
717.1829	4914
719.6151	4948
722.0468	4952
724.4777	4891
726.908	4956
729.3377	4967
731.7667	4973
734.1931	4897
736.6208	4990
739.0498	4940
741.4742	5017
743.9	4992
746.3231	5048
748.7476	5110
751.1713	5097
753.5945	5104
756.015	5104
758.4368	5068
760.856	5156
763.2766	5146
765.6965	5190
768.1157	5153
770.5323	5127
772.9483	5183
775.3656	5095
777.7822	5190
780.1963	5098
782.6116	5138
785.0244	4999
787.4365	5163
789.8499	5208
792.2626	5173
794.6728	5142
797.0823	5259
799.4911	5133
801.8994	5190
804.3109	5214
806.7178	5258
809.124	5150
811.5297	5281
813.9347	5149
816.341	5226
818.7447	5226
821.1478	5275
823.5502	5184
825.952	5192
828.3531	5229
830.7556	5223
833.1554	5227
835.5546	5216
837.9532	5246
840.3511	5128
842.7504	5239
845.1451	5344
847.5411	5298
849.9365	5369
852.3312	5232
854.7272	5354
857.1187	5282
859.5115	5314
861.9037	5276
864.2952	5255
866.6842	5297
869.0764	5222
871.4661	5313
873.8531	5367
876.2415	5229
878.6272	5148
881.0162	5275
883.4026	5312
885.7866	5298
888.1717	5308
890.5543	5269
892.9382	5243
895.3215	5203
897.7041	5375
900.0842	5321
902.4655	5316
904.8443	5334
907.2244	5413
909.6039	5395
911.9808	5324
914.357	5460
916.7346	5454
919.1115	5270
921.4859	5405
923.8616	5405
926.2347	5439
928.6071	5474
930.979	5405
933.3541	5515
935.7247	5583
938.0946	5492
940.4639	5485
942.8326	5604
945.2026	5557
947.5701	5632
949.9369	5678
952.305	5794
954.6705	5860
957.0355	5947
959.4017	5977
961.7654	6092
964.1284	6092
966.4908	6022
968.8527	5874
971.2138	5834
973.5743	5648
975.9343	5609
978.2936	5528
980.6522	5528
983.0122	5494
985.3696	5428
987.7245	5479
990.0807	5522
992.4362	5439
994.7911	5437
997.1474	5538
999.4991	5478
1001.852	5480
1004.205	5603
1006.555	5498
1008.908	5553
1011.258	5389
1013.606	5518
1015.956	5530
1018.302	5436
1020.652	5493
1022.998	5472
1025.345	5531
1027.691	5553
1030.035	5689
1032.378	5561
1034.724	5569
1037.066	5531
1039.409	5531
1041.75	5503
1044.092	5466
1046.433	5584
1048.771	5562
1051.112	5499
1053.449	5648
1055.786	5516
1058.124	5503
1060.462	5539
1062.797	5645
1065.131	5574
1067.467	5708
1069.8	5622
1072.135	5623
1074.467	5661
1076.798	5659
1079.129	5668
1081.459	5684
1083.792	5593
1086.121	5539
1088.449	5628
1090.777	5715
1093.104	5627
1095.431	5691
1097.759	5599
1100.084	5600
1102.408	5676
1104.732	5642
1107.056	5607
1109.379	5633
1111.701	5618
1114.022	5690
1116.343	5689
1118.664	5565
1120.983	5721
1123.303	5724
1125.621	5658
1127.939	5624
1130.256	5687
1132.573	5623
1134.889	5668
1137.205	5657
1139.52	5666
1141.832	5688
1144.146	5722
1146.461	5591
1148.771	5732
1151.083	5679
1153.392	5690
1155.703	5631
1158.011	5756
1160.323	5627
1162.629	5670
1164.938	5550
1167.243	5638
1169.55	5683
1171.857	5633
1174.163	5625
1176.466	5590
1178.769	5747
1181.073	5699
1183.374	5657
1185.677	5704
1187.979	5608
1190.279	5639
1192.578	5586
1194.878	5681
1197.178	5685
1199.476	5742
1201.772	5609
1204.068	5749
1206.366	5718
1208.663	5674
1210.957	5674
1213.251	5662
1215.544	5744
1217.836	5688
1220.128	5777
1222.421	5701
1224.712	5707
1227.002	5766
1229.292	5840
1231.581	5822
1233.871	5787
1236.159	5881
1238.446	5790
1240.732	5831
1243.018	5816
1245.304	5830
1247.59	5742
1249.874	5821
1252.156	5803
1254.439	5854
1256.721	5862
1259.005	5895
1261.286	5824
1263.565	5854
1265.845	5894
1268.125	5953
1270.403	5901
1272.682	5941
1274.959	5772
1277.234	5864
1279.511	5862
1281.787	5767
1284.062	5830
1286.337	5819
1288.609	5808
1290.882	5823
1293.153	5797
1295.428	5901
1297.698	5835
1299.969	5781
1302.237	5793
1304.507	5790
1306.777	5869
1309.044	5744
1311.312	5781
1313.578	5788
1315.844	5797
1318.109	5734
1320.375	5777
1322.638	5804
1324.903	5825
1327.165	5756
1329.427	5746
1331.69	5656
1333.952	5860
1336.212	5798
1338.471	5816
1340.73	5835
1342.988	5853
1345.248	5804
1347.505	5843
1349.763	5903
1352.019	5799
1354.274	5707
1356.53	5893
1358.784	5898
1361.038	5904
1363.291	5785
1365.543	5799
1367.797	5809
1370.048	5703
1372.296	5962
1374.546	5834
1376.796	5868
1379.045	5906
1381.295	5906
1383.542	5759
1385.787	5805
1388.034	5821
1390.28	5876
1392.527	5833
1394.772	6004
1397.014	5873
1399.258	5898
1401.501	5866
1403.741	5974
1405.985	5879
1408.226	5864
1410.465	5855
1412.705	5988
1414.943	5847
1417.184	6041
1419.42	5943
1421.658	5976
1423.894	6015
1426.13	5891
1428.366	6027
1430.602	6064
1432.835	5984
1435.069	6004
1437.301	6048
1439.535	5985
1441.767	5952
1443.997	5985
1446.229	6044
1448.458	6049
1450.687	6047
1452.916	6051
1455.146	6188
1457.372	6081
1459.599	6048
1461.824	5964
1464.051	6061
1466.277	6106
1468.501	6018
1470.725	6002
1472.948	5929
1475.17	6075
1477.393	6012
1479.614	5934
1481.837	5876
1484.057	6029
1486.276	5756
1488.497	5944
1490.715	5771
1492.932	5910
1495.148	5838
1497.364	5906
1499.58	5961
1501.798	5877
1504.012	5782
1506.227	5878
1508.44	5925
1510.653	5751
1512.866	5777
1515.078	5855
1517.289	5767
1519.5	5845
1521.711	5852
1523.92	5805
1526.13	5782
1528.338	5856
1530.544	5847
1532.752	5810
1534.959	5811
1537.165	5908
1539.371	5881
1541.574	5830
1543.779	5977
1545.983	5819
1548.187	5849
1550.39	5821
1552.59	5915
1554.792	5972
1556.991	5817
1559.19	5995
1561.392	5871
1563.59	5933
1565.789	5961
1567.986	5944
1570.182	6020
1572.381	5867
1574.576	5946
1576.771	5925
1578.966	5904
1581.16	5992
1583.354	6072
1585.546	5965
1587.74	6019
1589.931	6063
1592.121	5938
1594.311	6000
1596.502	6058
1598.693	5997
1600.881	6003
1603.069	6033
1605.256	6016
1607.445	6093
1609.631	6031
1611.816	5946
1614.001	5996
1616.186	6024
1618.37	6080
1620.555	6140
1622.737	5985
1624.919	6089
1627.101	6150
1629.282	6080
1631.463	6055
1633.643	6138
1635.822	6023
1638.001	6081
1640.179	5967
1642.359	6044
1644.534	6156
1646.711	6075
1648.887	6070
1651.062	6201
1653.235	6008
1655.412	6050
1657.586	6043
1659.757	6035
1661.93	6155
1664.1	6014
1666.274	6112
1668.445	6032
1670.614	6059
1672.784	6055
1674.951	6223
1677.12	6173
1679.289	6241
1681.457	5964
1683.622	6187
1685.789	6093
1687.953	6071
1690.121	6094
1692.284	6030
1694.447	6017
1696.611	5990
1698.772	6064
1700.935	5968
1703.098	6112
1705.258	6123
1707.417	5916
1709.576	5999
1711.736	6031
1713.896	6067
1716.053	6088
1718.21	5980
1720.366	6044
1722.522	5922
1724.68	5990
1726.835	5960
1728.989	6069
1731.142	5993
1733.295	5917
1735.449	5994
1737.601	5995
1739.753	6058
1741.903	5971
1744.054	6095
1746.203	6026
1748.354	5998
1750.503	6077
1752.651	5961
1754.798	6155
1756.944	6017
1759.092	5999
1761.238	5950
1763.383	5966
1765.528	6002
1767.672	6163
1769.814	6070
1771.959	6114
1774.102	6060
1776.242	6073
1778.384	6090
1780.525	6152
1782.665	6048
1784.805	6071
1786.945	6105
1789.082	6075
1791.22	6136
1793.36	6061
1795.495	6142
1797.632	6067
1799.766	6088
1801.902	6096
1804.035	6053
1806.172	6152
1808.304	6188
1810.436	6071
1812.569	6123
1814.699	6177
1816.833	6096
1818.963	6029
1821.092	6033
1823.222	6000
1825.35	6048
1827.478	6118
1829.608	6030
1831.734	6056
1833.86	6090
1835.986	6003
1838.11	6116
1840.238	6046
1842.362	6196
1844.485	5973
1846.608	6082
1848.73	6045
1850.853	5927
1852.974	6065
1855.097	6232
1857.217	6079
1859.336	6037
1861.455	5918
1863.576	6089
1865.693	5975
1867.811	6046
1869.926	6096
1872.042	5962
1874.16	5989
1876.275	6026
1878.39	6052
1880.504	6130
1882.618	6026
1884.731	5987
1886.843	5997
1888.956	6111
1891.067	6051
1893.178	6164
1895.287	6046
1897.399	6155
1899.508	6035
1901.617	6159
1903.724	6167
1905.832	6175
1907.941	6112
1910.046	6105
1912.152	6139
1914.256	6176
1916.361	6141
1918.464	6179
1920.57	6211
1922.672	6142
1924.775	6177
1926.876	6220
1928.978	6085
1931.08	6120
1933.181	6206
1935.28	6114
1937.38	6129
1939.478	6148
1941.577	6158
1943.675	6231
1945.771	6191
1947.867	6193
1949.964	6121
1952.058	6164
1954.154	6209
1956.248	6265
1958.343	6061
1960.435	6206
1962.527	6224
1964.62	6107
1966.711	6216
1968.802	6075
1970.892	6097
1972.983	6170
1975.072	6119
1977.162	6192
1979.25	6183
1981.337	6084
1983.424	6174
1985.51	6077
1987.598	6162
1989.683	6075
1991.768	6124
1993.852	6159
1995.934	6082
1998.019	6201
2000.102	5974
2002.184	6144
2004.266	6170
2006.347	6097
2008.427	6052
2010.508	6124
2012.587	6096
2014.666	6154
2016.745	6182
2018.821	6117
2020.9	6159
2022.977	6150
2025.052	6150
2027.128	6017
2029.204	6179
2031.277	6135
2033.353	6139
2035.425	6074
2037.499	6185
2039.57	6176
2041.642	6146
2043.714	6071
2045.786	6142
2047.855	6154
2049.925	6194
2051.993	6204
2054.064	6178
2056.132	6189
2058.2	6160
2060.266	6191
2062.332	6221
2064.398	6154
2066.465	6180
2068.529	6151
2070.592	6184
2072.657	6317
2074.719	6141
2076.783	6146
2078.845	6204
2080.907	6189
2082.968	6252
2085.028	6277
2087.087	6191
2089.148	6180
2091.207	6143
2093.264	6206
2095.322	6241
2097.379	6205
2099.439	6215
2101.495	6232
2103.55	6223
2105.605	6202
2107.658	6201
2109.713	6125
2111.767	6134
2113.82	6193
2115.872	6302
2117.924	6161
2119.975	6171
2122.028	6261
2124.078	6150
2126.126	6227
2128.176	6173
2130.225	6214
2132.275	6113
2134.321	6234
2136.368	6197
2138.415	6290
2140.461	6171
2142.505	6136
2144.552	6136
2146.597	6224
2148.64	6237
2150.684	6106
2152.725	6262
2154.77	6105
2156.811	6129
2158.852	6092
2160.894	6036
2162.933	6246
2164.973	6182
2167.013	6033
2169.051	6098
2171.089	6194
2173.126	6146
2175.164	6091
2177.201	6080
2179.236	6102
2181.273	6169
2183.307	5979
2185.341	6190
2187.377	6034
2189.41	6026
2191.442	6114
2193.473	6088
2195.506	6029
2197.539	6025
2199.569	5953
2201.598	6010
2203.628	5979
2205.656	6142
2207.686	6117
2209.716	6028
2211.743	6049
2213.769	6020
2215.796	6048
2217.821	5989
2219.848	6156
2221.873	6110
2223.897	6005
2225.921	5868
2227.944	6051
2229.967	6009
2231.991	6024
2234.011	6001
2236.032	6134
2238.053	5982
2240.073	6050
2242.094	6163
2244.114	6058
2246.131	6082
2248.149	6017
2250.167	6044
2252.186	5924
2254.201	6164
2256.218	6003
2258.233	6095
2260.247	5972
2262.262	6117
2264.278	6001
2266.29	6036
2268.303	5986
2270.315	5948
2272.327	6037
2274.341	5902
2276.35	6047
2278.361	5996
2280.37	6033
2282.38	6174
2284.388	5976
2286.397	6028
2288.405	6023
2290.412	6075
2292.419	6044
2294.425	5961
2296.431	5980
2298.437	6119
2300.441	5911
2302.445	5972
2304.449	5908
2306.453	6021
2308.455	5952
2310.457	6050
2312.459	5997
2314.46	6034
2316.46	5951
2318.461	5992
2320.46	6000
2322.458	5976
2324.458	6006
2326.456	6032
2328.455	5952
2330.451	5919
2332.447	5953
2334.443	5944
2336.438	5782
2338.433	5784
2340.429	5823
2342.422	5886
2344.416	5941
2346.408	5887
2348.399	5925
2350.393	5930
2352.384	5952
2354.375	5919
2356.365	5977
2358.355	5859
2360.344	5839
2362.333	5939
2364.322	5822
2366.309	5785
2368.295	5813
2370.282	5764
2372.27	5891
2374.256	5857
2376.24	5748
2378.225	5763
2380.208	5764
2382.194	5890
2384.177	5764
2386.159	5780
2388.142	5779
2390.122	5719
2392.105	5860
2394.085	5782
2396.066	5823
2398.044	5838
2400.024	5779
2402.002	5784
2403.982	5837
2405.959	5739
2407.935	5787
2409.913	5692
2411.888	5735
2413.865	5788
2415.84	5652
2417.814	5809
2419.788	5797
2421.762	5817
2423.735	5706
2425.708	5765
2427.68	5744
2429.651	5827
2431.623	5838
2433.593	5815
2435.564	5811
2437.533	5710
2439.502	5900
2441.47	5716
2443.438	5822
2445.406	5702
2447.373	5687
2449.34	5817
2451.305	5717
2453.271	5695
2455.235	5724
2457.201	5741
2459.165	5802
2461.129	5682
2463.092	5694
2465.054	5774
2467.018	5723
2468.978	5706
2470.939	5666
2472.899	5701
2474.86	5774
2476.819	5612
2478.778	5622
2480.737	5753
2482.695	5656
2484.653	5716
2486.609	5602
2488.567	5671
2490.524	5693
2492.478	5604
2494.433	5689
2496.387	5678
2498.343	5616
2500.297	5696
2502.249	5731
2504.202	5677
2506.153	5676
2508.105	5632
2510.057	5671
2512.008	5627
2513.957	5641
2515.906	5617
2517.855	5732
2519.805	5552
2521.754	5615
2523.7	5662
2525.647	5586
2527.594	5680
2529.54	5638
2531.486	5589
2533.431	5626
2535.376	5632
2537.32	5510
2539.263	5578
2541.207	5515
2543.151	5686
2545.093	5570
2547.034	5682
2548.975	5611
2550.917	5536
2552.856	5607
2554.796	5610
2556.735	5563
2558.673	5576
2560.611	5697
2562.55	5556
2564.487	5607
2566.424	5627
2568.36	5521
2570.296	5643
2572.232	5610
2574.167	5659
2576.101	5568
2578.035	5588
2579.969	5558
2581.902	5625
2583.834	5624
2585.766	5651
2587.698	5728
2589.628	5633
2591.557	5632
2593.489	5596
2595.419	5609
2597.348	5575
2599.275	5565
2601.204	5582
2603.131	5652
2605.059	5607
2606.986	5591
2608.911	5654
2610.837	5562
2612.76	5489
2614.687	5648
2616.61	5569
2618.534	5624
2620.457	5624
2622.38	5519
2624.302	5677
2626.225	5624
2628.145	5547
2630.067	5625
2631.986	5684
2633.906	5604
2635.827	5585
2637.745	5661
2639.662	5651
2641.581	5705
2643.498	5641
2645.415	5545
2647.331	5560
2649.248	5544
2651.163	5658
2653.077	5629
2654.993	5567
2656.906	5617
2658.821	5666
2660.733	5485
2662.646	5623
2664.557	5478
2666.47	5639
2668.381	5595
2670.291	5590
2672.201	5518
2674.11	5476
2676.021	5544
2677.929	5655
2679.837	5485
2681.745	5562
2683.652	5594
2685.56	5504
2687.466	5469
2689.371	5496
2691.276	5492
2693.181	5560
2695.085	5488
2696.991	5581
2698.893	5553
2700.796	5493
2702.698	5458
2704.601	5429
2706.502	5529
2708.404	5440
2710.304	5469
2712.203	5504
2714.103	5409
2716.003	5583
2717.902	5496
2719.8	5466
2721.697	5450
2723.594	5507
2725.49	5512
2727.389	5365
2729.283	5416
2731.179	5422
2733.073	5480
2734.968	5400
2736.863	5399
2738.757	5406
2740.649	5384
2742.541	5456
2744.433	5425
2746.324	5397
2748.216	5473
2750.107	5479
2751.997	5479
2753.886	5415
2755.776	5356
2757.666	5405
2759.553	5339
2761.44	5533
2763.327	5454
2765.215	5426
2767.102	5392
2768.988	5427
2770.873	5408
2772.757	5269
2774.641	5391
2776.525	5481
2778.41	5355
2780.292	5425
2782.175	5518
2784.057	5292
2785.938	5448
2787.821	5398
2789.701	5293
2791.581	5289
2793.461	5349
2795.34	5326
2797.219	5333
2799.099	5351
2800.975	5365
2802.853	5398
2804.73	5288
2806.606	5194
2808.484	5444
2810.358	5373
2812.233	5238
2814.108	5474
2815.981	5372
2817.857	5430
2819.73	5263
2821.602	5323
2823.474	5206
2825.346	5302
2827.217	5367
2829.089	5282
2830.959	5291
2832.829	5173
2834.698	5282
2836.567	5298
2838.436	5319
2840.305	5277
2842.172	5334
2844.04	5336
2845.905	5307
2847.772	5302
2849.639	5229
2851.503	5314
2853.369	5358
2855.232	5345
2857.096	5192
2858.961	5283
2860.824	5258
2862.686	5325
2864.547	5392
2866.41	5354
2868.272	5315
2870.132	5430
2871.992	5432
2873.851	5395
2875.711	5459
2877.57	5403
2879.429	5455
2881.287	5460
2883.144	5405
2885.001	5550
2886.857	5578
2888.714	5480
2890.57	5477
2892.425	5544
2894.279	5510
2896.133	5471
2897.987	5428
2899.842	5566
2901.694	5513
2903.547	5529
2905.397	5518
2907.249	5514
2909.101	5472
2910.952	5607
2912.802	5595
2914.652	5455
2916.5	5407
2918.35	5500
2920.198	5595
2922.045	5468
2923.893	5488
2925.74	5613
2927.585	5571
2929.433	5739
2931.279	5767
2933.123	5767
2934.968	5690
2936.811	5842
2938.656	5840
2940.5	5737
2942.342	5737
2944.185	5846
2946.026	5811
2947.87	5846
2949.71	5840
2951.549	5787
2953.39	5829
2955.229	5728
2957.069	5775
2958.908	5719
2960.746	5712
2962.584	5503
2964.421	5633
2966.257	5613
2968.094	5636
2969.931	5438
2971.766	5566
2973.601	5435
2975.435	5474
2977.27	5418
2979.105	5597
2980.938	5494
2982.77	5442
2984.602	5468
2986.434	5468
2988.267	5380
2990.097	5397
2991.927	5402
2993.757	5377
2995.587	5320
2997.417	5391
2999.246	5347
3001.074	5318
3002.902	5346
3004.729	5217
3006.556	5229
3008.384	5168
3010.21	5198
3012.036	5092
3013.861	5133
3015.684	5121
3017.51	5143
3019.334	5106
3021.157	5181
3022.981	5035
3024.802	5058
3026.624	5063
3028.448	5083
3030.267	5039
3032.088	4903
3033.909	5073
3035.728	4938
3037.549	4959
3039.368	4989
3041.186	4992
3043.004	4999
3044.821	4983
3046.64	4980
3048.455	5006
3050.272	4977
3052.087	4953
3053.903	4967
3055.717	4905
3057.534	4975
3059.347	4965
3061.16	4906
3062.974	4952
3064.785	4967
3066.598	4933
3068.411	4903
3070.222	4984
3072.032	4956
3073.844	4978
3075.653	4925
3077.463	4963
3079.272	4878
3081.08	4911
3082.889	4816
3084.697	4818
3086.505	4902
3088.312	4872
3090.118	4900
3091.924	4883
3093.729	4942
3095.535	4795
3097.34	4812
3099.144	4878
3100.947	4860
3102.75	4757
3104.553	4780
3106.357	4836
3108.159	4806
3109.961	4815
3111.762	4812
3113.562	4817
3115.365	4808
3117.164	4732
3118.964	4756
3120.761	4810
3122.56	4790
3124.36	4803
3126.158	4684
3127.954	4783
3129.75	4818
3131.547	4802
3133.343	4721
3135.139	4700
3136.934	4719
3138.729	4677
3140.522	4775
3142.317	4697
3144.11	4669
3145.904	4688
3147.695	4708
3149.488	4721
3151.28	4795
3153.07	4666
3154.863	4672
3156.652	4674
3158.441	4625
3160.231	4698
3162.019	4592
3163.81	4627
3165.597	4648
3167.384	4708
3169.172	4794
3170.958	4565
3172.745	4654
3174.532	4722
3176.317	4702
3178.101	4550
3179.885	4642
3181.67	4629
3183.455	4582
3185.238	4729
3187.02	4604
3188.802	4580
3190.585	4644
3192.368	4632
3194.149	4542
3195.929	4597
3197.709	4565
3199.489	4676
3201.268	4514
3203.048	4571
3204.826	4597
3206.604	4504
3208.382	4603
3210.159	4493
3211.937	4554
3213.713	4604
3215.489	4626
3217.263	4620
3219.038	4608
3220.815	4497
3222.589	4561
3224.363	4501
3226.136	4462
3227.908	4504
3229.681	4577
3231.454	4526
3233.226	4591
3234.996	4530
3236.767	4505
3238.538	4549
3240.308	4494
3242.078	4466
3243.847	4487
3245.615	4549
3247.384	4522
3249.15	4577
3250.92	4565
3252.686	4608
3254.453	4474
3256.218	4478
3257.984	4483
3259.75	4581
3261.515	4507
3263.279	4571
3265.044	4571
3266.806	4482
3268.57	4557
3270.334	4451
3272.095	4459
3273.856	4609
3275.619	4493
3277.379	4524
3279.14	4541
3280.9	4508
3282.661	4519
3284.419	4598
3286.178	4418
3287.937	4524
3289.695	4473
3291.453	4552
3293.21	4523
3294.967	4484
3296.723	4474
3298.48	4521
3300.235	4526
3301.99	4503
3303.744	4518
3305.498	4550
3307.253	4489
3309.006	4466
3310.759	4520
3312.511	4577
3314.263	4564
3316.017	4526
3317.768	4498
3319.519	4548
3321.268	4483
3323.018	4429
3324.767	4446
3326.518	4444
3328.267	4509
3330.014	4466
3331.762	4434
3333.509	4528
3335.258	4481
3337.003	4501
3338.75	4426
3340.496	4372
3342.24	4410
3343.987	4448
3345.732	4453
3347.475	4467
3349.219	4417
3350.961	4396
3352.705	4466
3354.448	4455
3356.19	4375
3357.931	4485
3359.672	4387
3361.412	4369
3363.155	4376
3364.894	4439
3366.633	4491
3368.372	4416
3370.11	4503
3371.849	4406
3373.588	4438
3375.325	4491
3377.061	4348
3378.799	4414
3380.534	4425
3382.271	4305
3384.006	4414
3385.741	4386
3387.475	4311
3389.209	4313
3390.944	4324
3392.677	4350
3394.409	4282
3396.143	4330
3397.874	4354
3399.606	4410
3401.338	4343
3403.069	4284
3404.799	4208
3406.528	4371
3408.258	4354
3409.988	4302
3411.717	4346
3413.445	4301
3415.173	4277
3416.899	4272
3418.626	4323
3420.354	4315
3422.08	4251
3423.806	4380
3425.531	4283
3427.255	4198
3428.981	4304
3430.705	4295
3432.429	4332
3434.151	4320
3435.875	4326
3437.599	4304
3439.321	4253
3441.042	4318
3442.763	4187
3444.483	4193
3446.204	4264
3447.926	4159
3449.645	4186
3451.364	4278
3453.082	4224
3454.801	4267
3456.52	4212
3458.238	4217
3459.954	4181
3461.671	4221
3463.387	4139
3465.104	4250
3466.82	4169
3468.534	4153
3470.25	4122
3471.963	4095
3473.676	4076
3475.392	4119
3477.104	4126
3478.817	4117
3480.528	4100
3482.241	4187
3483.954	4042
3485.664	4167
3487.374	4151
3489.084	4152
3490.795	4054
3492.504	4017
3494.214	4167
3495.922	4102
3497.63	4082
3499.338	4043
3501.045	4085
3502.753	4057
3504.459	4097
3506.166	4054
3507.871	4148
3509.576	4072
3511.283	4157
3512.987	4025
3514.691	4081
3516.395	4054
3518.098	4034
3519.8	4040
3521.504	3983
3523.206	4103
3524.908	4116
3526.609	4006
3528.309	4003
3530.011	4016
3531.711	4017
3533.411	4042
3535.109	4075
3536.808	4021
3538.507	4042
3540.206	3976
3541.904	3954
3543.601	4035
3545.297	4028
3546.994	4102
3548.69	3864
3550.387	3936
3552.081	4041
3553.776	4018
3555.47	3984
3557.166	4012
3558.859	3928
3560.553	4026
3562.245	3949
3563.938	4055
3565.629	3933
3567.322	3935
3569.014	3959
3570.704	3944
3572.394	3958
3574.084	3848
3575.775	3878
3577.464	3930
3579.152	3884
3580.842	3869
3582.529	3937
3584.216	3908
3585.905	3960
3587.591	3839
3589.279	3927
3590.964	3899
3592.649	3884
3594.336	3888
3596.021	3891
3597.705	3903
3599.388	3876
3601.072	3908
3602.757	3782
3604.439	3919
3606.122	3780
3607.803	3833
3609.485	3835
3611.167	3872
3612.849	3863
3614.529	3828
3616.208	3845
3617.888	3827
3619.567	3767
3621.247	3790
3622.926	3806
3624.603	3765
3626.281	3826
3627.958	3766
3629.635	3767
3631.312	3819
3632.989	3799
3634.665	3745
3636.339	3792
3638.014	3770
3639.691	3782
3641.364	3801
3643.038	3760
3644.71	3707
3646.384	3746
3648.058	3746
3649.729	3689
3651.402	3710
3653.073	3745
3654.744	3742
3656.414	3750
3658.085	3751
3659.755	3679
3661.424	3645
3663.094	3678
3664.762	3713
3666.431	3682
3668.099	3716
3669.766	3708
3671.433	3703
3673.099	3641
3674.768	3643
3676.433	3731
3678.098	3686
3679.763	3656
3681.428	3675
3683.093	3679
3684.757	3656
3686.421	3631
3688.083	3731
3689.746	3691
3691.408	3654
3693.071	3689
3694.733	3618
3696.394	3638
3698.054	3693
3699.715	3658
3701.375	3684
3703.036	3619
3704.695	3594
3706.354	3647
3708.012	3687
3709.67	3627
3711.329	3596
3712.987	3610
3714.644	3603
3716.299	3674
3717.955	3609
3719.613	3682
3721.268	3577
3722.923	3587
3724.577	3546
3726.231	3574
3727.885	3623
3729.539	3589
3731.192	3517
3732.845	3611
3734.497	3578
3736.149	3595
3737.802	3566
3739.453	3629
3741.104	3635
3742.753	3602
3744.404	3547
3746.052	3549
3747.704	3561
3749.352	3518
3751	3525
3752.648	3533
3754.296	3596
3755.944	3555
3757.59	3571
3759.238	3481
3760.883	3524
3762.528	3589
3764.176	3535
3765.82	3605
3767.464	3502
3769.109	3554
3770.753	3584
3772.396	3541
3774.04	3543
3775.683	3491
3777.325	3401
3778.967	3477
3780.608	3521
3782.25	3447
3783.89	3449
3785.531	3513
3787.17	3462
3788.81	3482
3790.45	3427
3792.09	3366
3793.729	3403
3795.366	3443
3797.003	3470
3798.64	3470
3800.278	3393
3801.915	3439
3803.551	3414
3805.187	3467
3806.822	3362
3808.458	3452
3810.093	3435
3811.726	3424
3813.36	3477
3814.994	3433
3816.627	3335
3818.262	3340
3819.893	3424
3821.525	3416
3823.157	3428
3824.787	3344
3826.42	3390
3828.051	3442
3829.68	3406
3831.31	3410
3832.938	3487
3834.569	3298
3836.198	3323
3837.825	3431
3839.454	3385
3841.08	3364
3842.708	3294
3844.335	3407
3845.962	3314
3847.587	3342
3849.212	3340
3850.838	3286
3852.463	3372
3854.089	3277
3855.712	3408
3857.335	3379
3858.959	3369
3860.582	3335
3862.205	3316
3863.827	3341
3865.449	3398
3867.07	3329
3868.691	3285
3870.312	3324
3871.933	3345
3873.553	3331
3875.173	3331
3876.792	3224
3878.411	3316
3880.03	3295
3881.647	3262
3883.265	3300
3884.882	3295
3886.499	3304
3888.116	3261
3889.732	3181
3891.348	3285
3892.964	3285
3894.579	3268
3896.195	3287
3897.809	3283
3899.423	3295
3901.036	3297
3902.648	3281
3904.261	3307
3905.875	3356
3907.487	3312
3909.099	3282
3910.709	3198
3912.321	3293
3913.933	3189
3915.542	3228
3917.152	3171
3918.762	3200
3920.37	3232
3921.98	3288
3923.589	3264
3925.196	3221
3926.804	3273
3928.41	3199
3930.018	3236
3931.626	3173
3933.231	3194
3934.838	3208
3936.442	3266
3938.046	3227
3939.653	3271
3941.257	3225
3942.861	3251
3944.464	3119
3946.068	3248
3947.67	3137
3949.273	3181
3950.876	3201
3952.477	3194
3954.078	3190
3955.678	3212
3957.281	3249
3958.881	3168
3960.48	3187
3962.079	3233
3963.678	3204
3965.279	3148
3966.877	3143
3968.475	3214
3970.072	3109
3971.669	3180
3973.266	3193
3974.864	3120
3976.459	3137
3978.055	3197
3979.65	3106
3981.245	3180
3982.841	3079
3984.436	3063
3986.03	3162
3987.623	3086
3989.216	3036
3990.809	3075
3992.403	3094
3993.995	3082
3995.586	3109
3997.177	3121
3998.768	3088
4000.361	3102
4001.951	3086
4003.54	3097
4005.13	3089
4006.719	3069
4008.31	3062
4009.897	3032
4011.485	3071
4013.073	2995
4014.66	3011
4016.247	3069
4017.834	3019
4019.421	2987
4021.006	3010
4022.592	3003
4024.178	3030
4025.763	3043
4027.348	2944
4028.932	3005
4030.515	2984
4032.099	2985
4033.682	2953
4035.266	3031
4036.847	2971
4038.429	3015
4040.011	3008
4041.592	2953
4043.173	2893
4044.755	2956
4046.334	2990
4047.913	2913
4049.494	2987
4051.074	2991
4052.652	2919
4054.23	2887
4055.807	2893
4057.385	2900
4058.963	2987
4060.541	2972
4062.117	2954
4063.693	2898
4065.269	2977
4066.844	2951
4068.42	2975
4069.995	2983
4071.569	2914
4073.143	2914
4074.716	2915
4076.291	2848
4077.864	2893
4079.436	2906
4081.009	2916
4082.58	2901
4084.152	2890
4085.723	2922
4087.294	2888
4088.865	2895
4090.435	2888
4092.005	2852
4093.574	2872
4095.143	2975
4096.712	2839
4098.279	2884
4099.848	2860
4101.416	2808
4102.984	2869
4104.55	2823
4106.117	2844
4107.682	2888
4109.248	2851
4110.815	2908
4112.379	2877
4113.945	2864
4115.508	2835
4117.073	2901
4118.637	2876
4120.201	2858
4121.763	2825
4123.325	2778
4124.888	2885
4126.449	2849
4128.013	2844
4129.573	2830
4131.133	2807
4132.694	2823
4134.254	2825
4135.814	2789
4137.374	2775
4138.933	2770
4140.491	2811
4142.049	2737
4143.607	2874
4145.167	2869
4146.724	2723
4148.28	2757
4149.836	2841
4151.392	2764
4152.949	2796
4154.504	2731
4156.059	2745
4157.614	2899
4159.168	2694
4160.723	2708
4162.277	2736
4163.83	2819
4165.383	2696
4166.936	2765
4168.488	2703
4170.041	2749
4171.593	2706
4173.144	2753
4174.695	2737
4176.246	2716
4177.796	2646
4179.346	2725
4180.896	2690
4182.445	2735
4183.994	2703
4185.542	2780
4187.091	2693
4188.639	2728
4190.185	2679
4191.732	2731
4193.279	2691
4194.826	2697
4196.373	2700
4197.918	2692
4199.463	2656
4201.008	2693
4202.553	2677
4204.098	2695
4205.641	2671
4207.185	2708
4208.728	2682
4210.271	2712
4211.814	2747
4213.357	2616
4214.898	2660
4216.439	2666
4217.98	2649
4219.522	2641
4221.062	2675
4222.603	2673
4224.142	2612
4225.681	2668
4227.222	2668
4228.76	2662
4230.298	2665
4231.835	2612
4233.373	2637
4234.911	2556
4236.449	2684
4237.985	2603
4239.521	2568
4241.057	2643
4242.592	2652
4244.128	2564
4245.663	2623
4247.197	2642
4248.731	2617
4250.265	2609
4251.798	2567
4253.333	2628
4254.865	2580
4256.397	2584
4257.93	2580
4259.461	2701
4260.994	2594
4262.525	2564
4264.056	2560
4265.586	2606
4267.115	2599
4268.646	2576
4270.176	2624
4271.705	2582
4273.232	2598
4274.761	2569
4276.289	2583
4277.818	2609
4279.345	2588
4280.872	2559
4282.399	2543
4283.924	2567
4285.452	2533
4286.976	2514
4288.502	2496
4290.026	2531
4291.551	2518
4293.074	2543
4294.6	2518
4296.123	2567
4297.646	2574
4299.168	2561
4300.691	2499
4302.214	2561
4303.736	2497
4305.257	2542
4306.778	2526
4308.299	2527
4309.82	2499
4311.34	2543
4312.86	2519
4314.379	2515
