400.0745	5454
402.597	5499
405.1208	5490
407.6419	5549
410.1623	5518
412.6819	5511
415.201	5605
417.7172	5660
420.2369	5566
422.7538	5760
425.2701	5796
427.7856	5772
430.3005	5749
432.8147	5856
435.3282	5901
437.841	5893
440.3511	5918
442.8625	5920
445.3753	5890
447.8854	5854
450.3927	5927
452.9014	5887
455.4073	5844
457.9146	6009
460.4233	5897
462.9272	5898
465.4325	5891
467.935	5908
470.4389	5899
472.9421	5911
475.4446	5914
477.9444	5985
480.4456	6043
482.944	5990
485.4417	6013
487.9429	6000
490.4393	6104
492.935	6058
495.4321	6092
497.9264	6161
500.4221	6059
502.9171	6207
505.4094	6094
507.9011	6044
510.392	6180
512.8864	6178
515.3759	6135
517.8649	6148
520.3531	6298
522.8406	6118
525.3275	6118
527.8178	6200
530.3033	6152
532.7881	6298
535.2723	6198
537.7558	6167
540.2407	6151
542.7228	6123
545.2043	6132
547.6851	6176
550.1652	6200
552.6467	6280
555.1255	6268
557.6016	6203
560.079	6184
562.5557	6216
565.0318	6194
567.5092	6322
569.984	6358
572.456	6388
574.9294	6369
577.4022	6538
579.8762	6461
582.3456	6442
584.8163	6480
587.2863	6540
589.7557	6494
592.2224	6489
594.6924	6442
597.1578	6554
599.6245	6450
602.0905	6508
604.5538	6556
607.0206	6398
609.4825	6417
611.9459	6408
614.4066	6404
616.8686	6450
619.33	6470
621.7906	6416
624.2487	6311
626.708	6383
629.1647	6262
631.6207	6366
634.0801	6378
636.5348	6413
638.9888	6305
641.4442	6447
643.8969	6412
646.3509	6443
648.8022	6442
651.255	6434
653.705	6494
656.1544	6515
658.6031	6555
661.0532	6435
663.5026	6469
665.9493	6416
668.3954	6635
670.8409	6584
673.2877	6625
675.7318	6605
678.1752	6496
680.618	6667
683.0601	6671
685.5035	6532
687.9444	6640
690.3845	6742
692.824	6607
695.2628	6657
697.701	6711
700.1406	6656
702.5774	6765
705.0116	6808
707.4472	6750
709.8821	6819
712.3183	6756
714.7519	6725
717.1829	6875
719.6151	6970
722.0468	6836
724.4777	6792
726.908	6834
729.3377	6814
731.7667	6939
734.1931	6912
736.6208	6937
739.0498	6847
741.4742	6997
743.9	6969
746.3231	7056
748.7476	6900
751.1713	7073
753.5945	7040
756.015	7189
758.4368	7091
760.856	7079
763.2766	7119
765.6965	7048
768.1157	7184
770.5323	7212
772.9483	7110
775.3656	7180
777.7822	7202
780.1963	7088
782.6116	7012
785.0244	7121
787.4365	7125
789.8499	7150
792.2626	7184
794.6728	7109
797.0823	7113
799.4911	7212
801.8994	7132
804.3109	7117
806.7178	7317
809.124	7251
811.5297	7202
813.9347	7188
816.341	7221
818.7447	7222
821.1478	7222
823.5502	7172
825.952	7229
828.3531	7306
830.7556	7294
833.1554	7268
835.5546	7317
837.9532	7289
840.3511	7305
842.7504	7309
845.1451	7343
847.5411	7494
849.9365	7365
852.3312	7426
854.7272	7587
857.1187	7424
859.5115	7352
861.9037	7321
864.2952	7344
866.6842	7383
869.0764	7500
871.4661	7361
873.8531	7321
876.2415	7403
878.6272	7409
881.0162	7361
883.4026	7306
885.7866	7424
888.1717	7360
890.5543	7404
892.9382	7412
895.3215	7357
897.7041	7343
900.0842	7399
902.4655	7450
904.8443	7309
907.2244	7427
909.6039	7424
911.9808	7448
914.357	7624
916.7346	7433
919.1115	7590
921.4859	7650
923.8616	7690
926.2347	7780
928.6071	7614
930.979	7731
933.3541	7678
935.7247	7824
938.0946	7693
940.4639	7895
942.8326	7936
945.2026	7858
947.5701	8099
949.9369	8323
952.305	8432
954.6705	8725
957.0355	9115
959.4017	9221
961.7654	9368
964.1284	9142
966.4908	9038
968.8527	8592
971.2138	8373
973.5743	8041
975.9343	7905
978.2936	7733
980.6522	7687
983.0122	7634
985.3696	7632
987.7245	7709
990.0807	7525
992.4362	7500
994.7911	7579
997.1474	7514
999.4991	7622
1001.852	7753
1004.205	7770
1006.555	7589
1008.908	7685
1011.258	7661
1013.606	7553
1015.956	7704
1018.302	7599
1020.652	7631
1022.998	7683
1025.345	7765
1027.691	7748
1030.035	7779
1032.378	7763
1034.724	7812
1037.066	7774
1039.409	7792
1041.75	7730
1044.092	7688
1046.433	7698
1048.771	7715
1051.112	7846
1053.449	7748
1055.786	7775
1058.124	7872
1060.462	7849
1062.797	7673
1065.131	7941
1067.467	7903
1069.8	7976
1072.135	7890
1074.467	7915
1076.798	7994
1079.129	7876
1081.459	7914
1083.792	7904
1086.121	7799
1088.449	7743
1090.777	7699
1093.104	7747
1095.431	7779
1097.759	7731
1100.084	7770
1102.408	7806
1104.732	7832
1107.056	7765
1109.379	7844
1111.701	7655
1114.022	7887
1116.343	7763
1118.664	7697
1120.983	7971
1123.303	7848
1125.621	7911
1127.939	7751
1130.256	7834
1132.573	7827
1134.889	7905
1137.205	7658
1139.52	7839
1141.832	7807
1144.146	7813
1146.461	7818
1148.771	7731
1151.083	7736
1153.392	7826
1155.703	7804
1158.011	7782
1160.323	7834
1162.629	7839
1164.938	7898
1167.243	7893
1169.55	7660
1171.857	7852
1174.163	7891
1176.466	7816
1178.769	7927
1181.073	7882
1183.374	7896
1185.677	7844
1187.979	7797
1190.279	7805
1192.578	7803
1194.878	7827
1197.178	7773
1199.476	7697
1201.772	7976
1204.068	7810
1206.366	7964
1208.663	7812
1210.957	7850
1213.251	7877
1215.544	7823
1217.836	7735
1220.128	7977
1222.421	7831
1224.712	7920
1227.002	7777
1229.292	7905
1231.581	7932
1233.871	8100
1236.159	8151
1238.446	8118
1240.732	8123
1243.018	8149
1245.304	8152
1247.59	8246
1249.874	8105
1252.156	8099
1254.439	8055
1256.721	8065
1259.005	8133
1261.286	8132
1263.565	8221
1265.845	8028
1268.125	8103
1270.403	8190
1272.682	8068
1274.959	8179
1277.234	8166
1279.511	8105
1281.787	7925
1284.062	7966
1286.337	8071
1288.609	8140
1290.882	7962
1293.153	8135
1295.428	8089
1297.698	7963
1299.969	8076
1302.237	8005
1304.507	7979
1306.777	7981
1309.044	7957
1311.312	8156
1313.578	8079
1315.844	7997
1318.109	7941
1320.375	7920
1322.638	7858
1324.903	7949
1327.165	7933
1329.427	7967
1331.69	8026
1333.952	8064
1336.212	7991
1338.471	7940
1340.73	8033
1342.988	7885
1345.248	8054
1347.505	8005
1349.763	7970
1352.019	7958
1354.274	8057
1356.53	8028
1358.784	8063
1361.038	7905
1363.291	8035
1365.543	7937
1367.797	8060
1370.048	8066
1372.296	7935
1374.546	7932
1376.796	8020
1379.045	8025
1381.295	8033
1383.542	8235
1385.787	8109
1388.034	7980
1390.28	8025
1392.527	8121
1394.772	8071
1397.014	8053
1399.258	8036
1401.501	8100
1403.741	8138
1405.985	8065
1408.226	8082
1410.465	8052
1412.705	8301
1414.943	8276
1417.184	8273
1419.42	8195
1421.658	8208
1423.894	8150
1426.13	8232
1428.366	8106
1430.602	8126
1432.835	8196
1435.069	8171
1437.301	8150
1439.535	8208
1441.767	8376
1443.997	8445
1446.229	8434
1448.458	8179
1450.687	8281
1452.916	8371
1455.146	8399
1457.372	8418
1459.599	8387
1461.824	8352
1464.051	8261
1466.277	8302
1468.501	8230
1470.725	8147
1472.948	8280
1475.17	8188
1477.393	8150
1479.614	8203
1481.837	8060
1484.057	8152
1486.276	8073
1488.497	8075
1490.715	8039
1492.932	8002
1495.148	8042
1497.364	7998
1499.58	7958
1501.798	7900
1504.012	7963
1506.227	7953
1508.44	7853
1510.653	7862
1512.866	7830
1515.078	7876
1517.289	7896
1519.5	7944
1521.711	7887
1523.92	7983
1526.13	7901
1528.338	7812
1530.544	8020
1532.752	7985
1534.959	8072
1537.165	7954
1539.371	7914
1541.574	7964
1543.779	8042
1545.983	7975
1548.187	7917
1550.39	7990
1552.59	7948
1554.792	8030
1556.991	7978
1559.19	7936
1561.392	8183
1563.59	8013
1565.789	8038
1567.986	8011
1570.182	8213
1572.381	8166
1574.576	8083
1576.771	8126
1578.966	8057
1581.16	8209
1583.354	8021
1585.546	8140
1587.74	8117
1589.931	8134
1592.121	8202
1594.311	8069
1596.502	8147
1598.693	8261
1600.881	8355
1603.069	8192
1605.256	8268
1607.445	8236
1609.631	8141
1611.816	8224
1614.001	8301
1616.186	8234
1618.37	8234
1620.555	8293
1622.737	8382
1624.919	8307
1627.101	8231
1629.282	8327
1631.463	8245
1633.643	8314
1635.822	8325
1638.001	8338
1640.179	8269
1642.359	8250
1644.534	8254
1646.711	8124
1648.887	8255
1651.062	8287
1653.235	8361
1655.412	8478
1657.586	8266
1659.757	8279
1661.93	8244
1664.1	8321
1666.274	8424
1668.445	8277
1670.614	8550
1672.784	8442
1674.951	8383
1677.12	8338
1679.289	8324
1681.457	8291
1683.622	8245
1685.789	8323
1687.953	8353
1690.121	8391
1692.284	8371
1694.447	8312
1696.611	8253
1698.772	8380
1700.935	8100
1703.098	8183
1705.258	8079
1707.417	8250
1709.576	8271
1711.736	8064
1713.896	8252
1716.053	8119
1718.21	8080
1720.366	8195
1722.522	8081
1724.68	8251
1726.835	8086
1728.989	8084
1731.142	8197
1733.295	8129
1735.449	8321
1737.601	8230
1739.753	8077
1741.903	8226
1744.054	8079
1746.203	8175
1748.354	8147
1750.503	8097
1752.651	8183
1754.798	8103
1756.944	8109
1759.092	8175
1761.238	8107
1763.383	8195
1765.528	8181
1767.672	8174
1769.814	8188
1771.959	8199
1774.102	8145
1776.242	8225
1778.384	8213
1780.525	8216
1782.665	8223
1784.805	8330
1786.945	8189
1789.082	8093
1791.22	8268
1793.36	8169
1795.495	8291
1797.632	8211
1799.766	8168
1801.902	8167
1804.035	8223
1806.172	8188
1808.304	8152
1810.436	8256
1812.569	8228
1814.699	8148
1816.833	8271
1818.963	8314
1821.092	8303
1823.222	8177
1825.35	8182
1827.478	8140
1829.608	8188
1831.734	8177
1833.86	8236
1835.986	8083
1838.11	8153
1840.238	8143
1842.362	8086
1844.485	8106
1846.608	8104
1848.73	8157
1850.853	8077
1852.974	8062
1855.097	8009
1857.217	8124
1859.336	8063
1861.455	8041
1863.576	8112
1865.693	8109
1867.811	8009
1869.926	7976
1872.042	7932
1874.16	8116
1876.275	8109
1878.39	7944
1880.504	8012
1882.618	8053
1884.731	8105
1886.843	8201
1888.956	8007
1891.067	8193
1893.178	8073
1895.287	8033
1897.399	8131
1899.508	8087
1901.617	8109
1903.724	8189
1905.832	8199
1907.941	8174
1910.046	8168
1912.152	8116
1914.256	8194
1916.361	8335
1918.464	8189
1920.57	8106
1922.672	8092
1924.775	8145
1926.876	8046
1928.978	8198
1931.08	8202
1933.181	8135
1935.28	8091
1937.38	8139
1939.478	8288
1941.577	8272
1943.675	8164
1945.771	8179
1947.867	8146
1949.964	8235
1952.058	8154
1954.154	8261
1956.248	8128
1958.343	8201
1960.435	8183
1962.527	8201
1964.62	8325
1966.711	8094
1968.802	8329
1970.892	8106
1972.983	8122
1975.072	8213
1977.162	8164
1979.25	8192
1981.337	8190
1983.424	8109
1985.51	8007
1987.598	8177
1989.683	8166
1991.768	8152
1993.852	8064
1995.934	8104
1998.019	8083
2000.102	8077
2002.184	8133
2004.266	8181
2006.347	8125
2008.427	8046
2010.508	8057
2012.587	8096
2014.666	8147
2016.745	8106
2018.821	8083
2020.9	7945
2022.977	8003
2025.052	8095
2027.128	8078
2029.204	8158
2031.277	7968
2033.353	8019
2035.425	8137
2037.499	8091
2039.57	8003
2041.642	8065
2043.714	8203
2045.786	8048
2047.855	8027
2049.925	7920
2051.993	8054
2054.064	8071
2056.132	8118
2058.2	8127
2060.266	8055
2062.332	7999
2064.398	8073
2066.465	8009
2068.529	8227
2070.592	8149
2072.657	7968
2074.719	8111
2076.783	8080
2078.845	8190
2080.907	7996
2082.968	8042
2085.028	8081
2087.087	8233
2089.148	8164
2091.207	8198
2093.264	8083
2095.322	8022
2097.379	8060
2099.439	8187
2101.495	7946
2103.55	8057
2105.605	7915
2107.658	8029
2109.713	8018
2111.767	8013
2113.82	7993
2115.872	7986
2117.924	8011
2119.975	8067
2122.028	7996
2124.078	8038
2126.126	8084
2128.176	7983
2130.225	8026
2132.275	8005
2134.321	8184
2136.368	8056
2138.415	8128
2140.461	8087
2142.505	7973
2144.552	7927
2146.597	7983
2148.64	8012
2150.684	7997
2152.725	7845
2154.77	8002
2156.811	7947
2158.852	7988
2160.894	8055
2162.933	7885
2164.973	7983
2167.013	8075
2169.051	7942
2171.089	7940
2173.126	8004
2175.164	7936
2177.201	7826
2179.236	7946
2181.273	7924
2183.307	7811
2185.341	7864
2187.377	7877
2189.41	7771
2191.442	7781
2193.473	7927
2195.506	7823
2197.539	7870
2199.569	7803
2201.598	7866
2203.628	7887
2205.656	7730
2207.686	7840
2209.716	7776
2211.743	7961
2213.769	7718
2215.796	7823
2217.821	7737
2219.848	7746
2221.873	7750
2223.897	7674
2225.921	7835
2227.944	7694
2229.967	7819
2231.991	7740
2234.011	7921
2236.032	7851
2238.053	7639
2240.073	7803
2242.094	7719
2244.114	7828
2246.131	7732
2248.149	7713
2250.167	7830
2252.186	7756
2254.201	7821
2256.218	7680
2258.233	7729
2260.247	7733
2262.262	7680
2264.278	7777
2266.29	7791
2268.303	7892
2270.315	7812
2272.327	7843
2274.341	7770
2276.35	7723
2278.361	7772
2280.37	7695
2282.38	7829
2284.388	7727
2286.397	7772
2288.405	7786
2290.412	7717
2292.419	7790
2294.425	7702
2296.431	7759
2298.437	7897
2300.441	7642
2302.445	7729
2304.449	7704
2306.453	7729
2308.455	7747
2310.457	7682
2312.459	7766
2314.46	7604
2316.46	7713
2318.461	7789
2320.46	7573
2322.458	7682
2324.458	7722
2326.456	7526
2328.455	7697
2330.451	7602
2332.447	7581
2334.443	7672
2336.438	7645
2338.433	7592
2340.429	7634
2342.422	7526
2344.416	7650
2346.408	7698
2348.399	7598
2350.393	7619
2352.384	7413
2354.375	7506
2356.365	7520
2358.355	7545
2360.344	7619
2362.333	7578
2364.322	7586
2366.309	7623
2368.295	7613
2370.282	7577
2372.27	7634
2374.256	7535
2376.24	7422
2378.225	7605
2380.208	7605
2382.194	7511
2384.177	7429
2386.159	7469
2388.142	7468
2390.122	7421
2392.105	7484
2394.085	7482
2396.066	7539
2398.044	7376
2400.024	7481
2402.002	7412
2403.982	7543
2405.959	7444
2407.935	7385
2409.913	7376
2411.888	7427
2413.865	7433
2415.84	7390
2417.814	7464
2419.788	7480
2421.762	7411
2423.735	7528
2425.708	7431
2427.68	7354
2429.651	7421
2431.623	7374
2433.593	7423
2435.564	7443
2437.533	7492
2439.502	7290
2441.47	7163
2443.438	7483
2445.406	7302
2447.373	7330
2449.34	7340
2451.305	7438
2453.271	7342
2455.235	7307
2457.201	7459
2459.165	7367
2461.129	7333
2463.092	7241
2465.054	7297
2467.018	7415
2468.978	7381
2470.939	7187
2472.899	7368
2474.86	7389
2476.819	7354
2478.778	7339
2480.737	7226
2482.695	7171
2484.653	7315
2486.609	7209
2488.567	7316
2490.524	7311
2492.478	7284
2494.433	7255
2496.387	7351
2498.343	7340
2500.297	7261
2502.249	7268
2504.202	7451
2506.153	7334
2508.105	7283
2510.057	7185
2512.008	7162
2513.957	7153
2515.906	7271
2517.855	7162
2519.805	7227
2521.754	7261
2523.7	7223
2525.647	7269
2527.594	7193
2529.54	7176
2531.486	7206
2533.431	7122
2535.376	7239
2537.32	7216
2539.263	7190
2541.207	7243
2543.151	7242
2545.093	7191
2547.034	7311
2548.975	7177
2550.917	7105
2552.856	7144
2554.796	7191
2556.735	7027
2558.673	7211
2560.611	7304
2562.55	7229
2564.487	7260
2566.424	7255
2568.36	7211
2570.296	7195
2572.232	7148
2574.167	7306
2576.101	7270
2578.035	7090
2579.969	7132
2581.902	7074
2583.834	7187
2585.766	7175
2587.698	7241
2589.628	7279
2591.557	7017
2593.489	7300
2595.419	7245
2597.348	7053
2599.275	7238
2601.204	7214
2603.131	7079
2605.059	7189
2606.986	7083
2608.911	7157
2610.837	7230
2612.76	7155
2614.687	7177
2616.61	7124
2618.534	7180
2620.457	7186
2622.38	7165
2624.302	7104
2626.225	7230
2628.145	7078
2630.067	7239
2631.986	7230
2633.906	7371
2635.827	7123
2637.745	7161
2639.662	7126
2641.581	7231
2643.498	7100
2645.415	7107
2647.331	7212
2649.248	7083
2651.163	7208
2653.077	7106
2654.993	7120
2656.906	7179
2658.821	7109
2660.733	7086
2662.646	7150
2664.557	7088
2666.47	7152
2668.381	7266
2670.291	7120
2672.201	7072
2674.11	7061
2676.021	7024
2677.929	7179
2679.837	7080
2681.745	7056
2683.652	7051
2685.56	7077
2687.466	7084
2689.371	7165
2691.276	7130
2693.181	7105
2695.085	7020
2696.991	7009
2698.893	7067
2700.796	7085
2702.698	7079
2704.601	6944
2706.502	7040
2708.404	7024
2710.304	7039
2712.203	7032
2714.103	7008
2716.003	7086
2717.902	6941
2719.8	7023
2721.697	7028
2723.594	6871
2725.49	7088
2727.389	6997
2729.283	6863
2731.179	7027
2733.073	6922
2734.968	6949
2736.863	6948
2738.757	6986
2740.649	6926
2742.541	6980
2744.433	6989
2746.324	6951
2748.216	6928
2750.107	7057
2751.997	6943
2753.886	6954
2755.776	6978
2757.666	6891
2759.553	6832
2761.44	6988
2763.327	6818
2765.215	6939
2767.102	6925
2768.988	6872
2770.873	6917
2772.757	6844
2774.641	6988
2776.525	6992
2778.41	6827
2780.292	6923
2782.175	6985
2784.057	6956
2785.938	6945
2787.821	6960
2789.701	6900
2791.581	6780
2793.461	6868
2795.34	6812
2797.219	6831
2799.099	6853
2800.975	6894
2802.853	6773
2804.73	6712
2806.606	6788
2808.484	6887
2810.358	7024
2812.233	6925
2814.108	6775
2815.981	6758
2817.857	6774
2819.73	6761
2821.602	6820
2823.474	6682
2825.346	6764
2827.217	6704
2829.089	6806
2830.959	6790
2832.829	6660
2834.698	6925
2836.567	6816
2838.436	6823
2840.305	6784
2842.172	6847
2844.04	6903
2845.905	6769
2847.772	6880
2849.639	6811
2851.503	6763
2853.369	6795
2855.232	6953
2857.096	6882
2858.961	6996
2860.824	6929
2862.686	6894
2864.547	7022
2866.41	7006
2868.272	6989
2870.132	7045
2871.992	7146
2873.851	7174
2875.711	7181
2877.57	7250
2879.429	7269
2881.287	7471
2883.144	7478
2885.001	7391
2886.857	7513
2888.714	7218
2890.57	7398
2892.425	7428
2894.279	7434
2896.133	7445
2897.987	7339
2899.842	7382
2901.694	7407
2903.547	7336
2905.397	7351
2907.249	7298
2909.101	7362
2910.952	7304
2912.802	7424
2914.652	7461
2916.5	7499
2918.35	7553
2920.198	7595
2922.045	7670
2923.893	7777
2925.74	7826
2927.585	7800
2929.433	7828
2931.279	7930
2933.123	7960
2934.968	8077
2936.811	8106
2938.656	8119
2940.5	8103
2942.342	8359
2944.185	8214
2946.026	8259
2947.87	8286
2949.71	8179
2951.549	8130
2953.39	8210
2955.229	7961
2957.069	7876
2958.908	7994
2960.746	7895
2962.584	7862
2964.421	7833
2966.257	7716
2968.094	7744
2969.931	7592
2971.766	7676
2973.601	7467
2975.435	7472
2977.27	7470
2979.105	7589
2980.938	7459
2982.77	7354
2984.602	7400
2986.434	7296
2988.267	7344
2990.097	7314
2991.927	7157
2993.757	7136
2995.587	7130
2997.417	7047
2999.246	7108
3001.074	7091
3002.902	6993
3004.729	6853
3006.556	6868
3008.384	6647
3010.21	6717
3012.036	6706
3013.861	6622
3015.684	6657
3017.51	6707
3019.334	6545
3021.157	6516
3022.981	6601
3024.802	6574
3026.624	6538
3028.448	6431
3030.267	6494
3032.088	6304
3033.909	6472
3035.728	6493
3037.549	6368
3039.368	6326
3041.186	6339
3043.004	6393
3044.821	6344
3046.64	6347
3048.455	6350
3050.272	6353
3052.087	6306
3053.903	6242
3055.717	6264
3057.534	6380
3059.347	6276
3061.16	6332
3062.974	6353
3064.785	6335
3066.598	6361
3068.411	6286
3070.222	6231
3072.032	6455
3073.844	6196
3075.653	6287
3077.463	6261
3079.272	6284
3081.08	6213
3082.889	6212
3084.697	6320
3086.505	6165
3088.312	6190
3090.118	6353
3091.924	6137
3093.729	6097
3095.535	6244
3097.34	6179
3099.144	6051
3100.947	6240
3102.75	6021
3104.553	6223
3106.357	6072
3108.159	6066
3109.961	6149
3111.762	5951
3113.562	6009
3115.365	6032
3117.164	6116
3118.964	5944
3120.761	6050
3122.56	6022
3124.36	6077
3126.158	5981
3127.954	5979
3129.75	5960
3131.547	6112
3133.343	6016
3135.139	6127
3136.934	6171
3138.729	5958
3140.522	5954
3142.317	6096
3144.11	6072
3145.904	5923
3147.695	5949
3149.488	5943
3151.28	6008
3153.07	5844
3154.863	6034
3156.652	5877
3158.441	6020
3160.231	5899
3162.019	5951
3163.81	5963
3165.597	5843
3167.384	5946
3169.172	5962
3170.958	5976
3172.745	5849
3174.532	5893
3176.317	5861
3178.101	5840
3179.885	5870
3181.67	5788
3183.455	5844
3185.238	5914
3187.02	5762
3188.802	5858
3190.585	5921
3192.368	5888
3194.149	5883
3195.929	5841
3197.709	5836
3199.489	5846
3201.268	5822
3203.048	5849
3204.826	6001
3206.604	5929
3208.382	5819
3210.159	5765
3211.937	5814
3213.713	5854
3215.489	5782
3217.263	5813
3219.038	5930
3220.815	5892
3222.589	5821
3224.363	5808
3226.136	5800
3227.908	5713
3229.681	5759
3231.454	5831
3233.226	5757
3234.996	5877
3236.767	5821
3238.538	5823
3240.308	5776
3242.078	5806
3243.847	5846
3245.615	5789
3247.384	5753
3249.15	5760
3250.92	5691
3252.686	5878
3254.453	5789
3256.218	5695
3257.984	5768
3259.75	5806
3261.515	5712
3263.279	5742
3265.044	5702
3266.806	5783
3268.57	5782
3270.334	5824
3272.095	5771
3273.856	5674
3275.619	5708
3277.379	5778
3279.14	5762
3280.9	5868
3282.661	5672
3284.419	5839
3286.178	5873
3287.937	5717
3289.695	5816
3291.453	5713
3293.21	5825
3294.967	5801
3296.723	5772
3298.48	5758
3300.235	5720
3301.99	5844
3303.744	5782
3305.498	5767
3307.253	5748
3309.006	5744
3310.759	5803
3312.511	5813
3314.263	5693
3316.017	5692
3317.768	5774
3319.519	5765
3321.268	5741
3323.018	5776
3324.767	5691
3326.518	5725
3328.267	5676
3330.014	5839
3331.762	5762
3333.509	5741
3335.258	5801
3337.003	5812
3338.75	5623
3340.496	5752
3342.24	5726
3343.987	5803
3345.732	5701
3347.475	5716
3349.219	5655
3350.961	5618
3352.705	5611
3354.448	5669
3356.19	5629
3357.931	5633
3359.672	5490
3361.412	5618
3363.155	5524
3364.894	5518
3366.633	5590
3368.372	5611
3370.11	5656
3371.849	5526
3373.588	5553
3375.325	5564
3377.061	5689
3378.799	5558
3380.534	5627
3382.271	5618
3384.006	5534
3385.741	5459
3387.475	5642
3389.209	5565
3390.944	5500
3392.677	5503
3394.409	5564
3396.143	5530
3397.874	5583
3399.606	5505
3401.338	5432
3403.069	5621
3404.799	5423
3406.528	5461
3408.258	5454
3409.988	5436
3411.717	5481
3413.445	5511
3415.173	5473
3416.899	5475
3418.626	5366
3420.354	5480
3422.08	5531
3423.806	5470
3425.531	5575
3427.255	5466
3428.981	5448
3430.705	5462
3432.429	5462
3434.151	5351
3435.875	5494
3437.599	5414
3439.321	5354
3441.042	5484
3442.763	5395
3444.483	5336
3446.204	5371
3447.926	5344
3449.645	5352
3451.364	5343
3453.082	5321
3454.801	5283
3456.52	5295
3458.238	5247
3459.954	5224
3461.671	5287
3463.387	5274
3465.104	5363
3466.82	5181
3468.534	5194
3470.25	5189
3471.963	5172
3473.676	5206
3475.392	5204
3477.104	5171
3478.817	5249
3480.528	5160
3482.241	5137
3483.954	5202
3485.664	5267
3487.374	5162
3489.084	5139
3490.795	5136
3492.504	5100
3494.214	5225
3495.922	5184
3497.63	5146
3499.338	5191
3501.045	5090
3502.753	5115
3504.459	5075
3506.166	5060
3507.871	5054
3509.576	5022
3511.283	5136
3512.987	5106
3514.691	5098
3516.395	4995
3518.098	5014
3519.8	5079
3521.504	4974
3523.206	5084
3524.908	5013
3526.609	4957
3528.309	5004
3530.011	5008
3531.711	5003
3533.411	5096
3535.109	4955
3536.808	5001
3538.507	5089
3540.206	4950
3541.904	5005
3543.601	4894
3545.297	4923
3546.994	4933
3548.69	4962
3550.387	4943
3552.081	5000
3553.776	4920
3555.47	4869
3557.166	4914
3558.859	4938
3560.553	4883
3562.245	4870
3563.938	4898
3565.629	4961
3567.322	4854
3569.014	4841
3570.704	4935
3572.394	4859
3574.084	4798
3575.775	4795
3577.464	4857
3579.152	4909
3580.842	4879
3582.529	4901
3584.216	4882
3585.905	4768
3587.591	4838
3589.279	4851
3590.964	4779
3592.649	4743
3594.336	4904
3596.021	4736
3597.705	4618
3599.388	4845
3601.072	4771
3602.757	4648
3604.439	4696
3606.122	4705
3607.803	4741
3609.485	4676
3611.167	4622
3612.849	4698
3614.529	4664
3616.208	4677
3617.888	4589
3619.567	4666
3621.247	4637
3622.926	4596
3624.603	4716
3626.281	4613
3627.958	4614
3629.635	4645
3631.312	4751
3632.989	4603
3634.665	4599
3636.339	4502
3638.014	4571
3639.691	4552
3641.364	4629
3643.038	4507
3644.71	4602
3646.384	4455
3648.058	4509
3649.729	4640
3651.402	4543
3653.073	4503
3654.744	4617
3656.414	4558
3658.085	4582
3659.755	4516
3661.424	4554
3663.094	4393
3664.762	4527
3666.431	4564
3668.099	4375
3669.766	4498
3671.433	4378
3673.099	4379
3674.768	4439
3676.433	4431
3678.098	4456
3679.763	4479
3681.428	4458
3683.093	4485
3684.757	4482
3686.421	4449
3688.083	4414
3689.746	4384
3691.408	4444
3693.071	4576
3694.733	4445
3696.394	4352
3698.054	4497
3699.715	4389
3701.375	4466
3703.036	4418
3704.695	4445
3706.354	4333
3708.012	4389
3709.67	4423
3711.329	4354
3712.987	4342
3714.644	4357
3716.299	4398
3717.955	4375
3719.613	4413
3721.268	4362
3722.923	4266
3724.577	4343
3726.231	4270
3727.885	4362
3729.539	4279
3731.192	4356
3732.845	4299
3734.497	4308
3736.149	4275
3737.802	4347
3739.453	4311
3741.104	4315
3742.753	4304
3744.404	4301
3746.052	4267
3747.704	4323
3749.352	4270
3751	4237
3752.648	4349
3754.296	4327
3755.944	4261
3757.59	4259
3759.238	4167
3760.883	4179
3762.528	4252
3764.176	4269
3765.82	4268
3767.464	4267
3769.109	4271
3770.753	4235
3772.396	4203
3774.04	4189
3775.683	4248
3777.325	4283
3778.967	4240
3780.608	4292
3782.25	4257
3783.89	4144
3785.531	4174
3787.17	4141
3788.81	4113
3790.45	4177
3792.09	4165
3793.729	4187
3795.366	4161
3797.003	4130
3798.64	4299
3800.278	4142
3801.915	4073
3803.551	4175
3805.187	4152
3806.822	4124
3808.458	4134
3810.093	4057
3811.726	4105
3813.36	4183
3814.994	4096
3816.627	4108
3818.262	4174
3819.893	4181
3821.525	4045
3823.157	4082
3824.787	3999
3826.42	4074
3828.051	4085
3829.68	4111
3831.31	4113
3832.938	4047
3834.569	4056
3836.198	4062
3837.825	4018
3839.454	4084
3841.08	4060
3842.708	4016
3844.335	4075
3845.962	3951
3847.587	3975
3849.212	3990
3850.838	4058
3852.463	4032
3854.089	4005
3855.712	3927
3857.335	4033
3858.959	3948
3860.582	3966
3862.205	4057
3863.827	4010
3865.449	4000
3867.07	4028
3868.691	4032
3870.312	4004
3871.933	3950
3873.553	4010
3875.173	3925
3876.792	3976
3878.411	3969
3880.03	3936
3881.647	3965
3883.265	3894
3884.882	3879
3886.499	3941
3888.116	3954
3889.732	3874
3891.348	3991
3892.964	3882
3894.579	3899
3896.195	3963
3897.809	3852
3899.423	3911
3901.036	3943
3902.648	3950
3904.261	3893
3905.875	3892
3907.487	3942
3909.099	3810
3910.709	3876
3912.321	3886
3913.933	3872
3915.542	3788
3917.152	3938
3918.762	3799
3920.37	3935
3921.98	3874
3923.589	3834
3925.196	3823
3926.804	3914
3928.41	3941
3930.018	3886
3931.626	3843
3933.231	3810
3934.838	3935
3936.442	3851
3938.046	3801
3939.653	3752
3941.257	3791
3942.861	3758
3944.464	3783
3946.068	3824
3947.67	3795
3949.273	3825
3950.876	3906
3952.477	3795
3954.078	3803
3955.678	3833
3957.281	3755
3958.881	3708
3960.48	3833
3962.079	3816
3963.678	3734
3965.279	3759
3966.877	3760
3968.475	3875
3970.072	3799
3971.669	3785
3973.266	3793
3974.864	3757
3976.459	3836
3978.055	3719
3979.65	3694
3981.245	3676
3982.841	3696
3984.436	3724
3986.03	3695
3987.623	3702
3989.216	3713
3990.809	3633
3992.403	3685
3993.995	3741
3995.586	3761
3997.177	3675
3998.768	3681
4000.361	3658
4001.951	3627
4003.54	3594
4005.13	3664
4006.719	3631
4008.31	3684
4009.897	3640
4011.485	3619
4013.073	3617
4014.66	3541
4016.247	3620
4017.834	3562
4019.421	3665
4021.006	3538
4022.592	3495
4024.178	3548
4025.763	3571
4027.348	3568
4028.932	3641
4030.515	3552
4032.099	3541
4033.682	3569
4035.266	3491
4036.847	3492
4038.429	3546
4040.011	3611
4041.592	3549
4043.173	3578
4044.755	3483
4046.334	3500
4047.913	3537
4049.494	3529
4051.074	3490
4052.652	3595
4054.23	3495
4055.807	3442
4057.385	3562
4058.963	3499
4060.541	3516
4062.117	3439
4063.693	3413
4065.269	3418
4066.844	3498
4068.42	3474
4069.995	3539
4071.569	3475
4073.143	3475
4074.716	3497
4076.291	3499
4077.864	3389
4079.436	3420
4081.009	3512
4082.58	3446
4084.152	3411
4085.723	3415
4087.294	3440
4088.865	3389
4090.435	3465
4092.005	3430
4093.574	3392
4095.143	3405
4096.712	3379
4098.279	3403
4099.848	3433
4101.416	3441
4102.984	3394
4104.55	3370
4106.117	3400
4107.682	3464
4109.248	3455
4110.815	3491
4112.379	3354
4113.945	3382
4115.508	3383
4117.073	3303
4118.637	3386
4120.201	3373
4121.763	3346
4123.325	3404
4124.888	3348
4126.449	3301
4128.013	3309
4129.573	3310
4131.133	3352
4132.694	3305
4134.254	3374
4135.814	3341
4137.374	3249
4138.933	3272
4140.491	3320
4142.049	3383
4143.607	3341
4145.167	3369
4146.724	3321
4148.28	3343
4149.836	3313
4151.392	3264
4152.949	3321
4154.504	3242
4156.059	3284
4157.614	3196
4159.168	3296
4160.723	3269
4162.277	3165
4163.83	3329
4165.383	3173
4166.936	3209
4168.488	3257
4170.041	3209
4171.593	3267
4173.144	3215
4174.695	3158
4176.246	3117
4177.796	3240
4179.346	3186
4180.896	3211
4182.445	3173
4183.994	3251
4185.542	3222
4187.091	3208
4188.639	3235
4190.185	3208
4191.732	3142
4193.279	3139
4194.826	3179
4196.373	3195
4197.918	3159
4199.463	3097
4201.008	3148
4202.553	3092
4204.098	3155
4205.641	3175
4207.185	3173
4208.728	3178
4210.271	3139
4211.814	3162
4213.357	3153
4214.898	3119
4216.439	3159
4217.98	3162
4219.522	3162
4221.062	3144
4222.603	3079
4224.142	3093
4225.681	3049
4227.222	3153
4228.76	3096
4230.298	3106
4231.835	3072
4233.373	3099
4234.911	3110
4236.449	3079
4237.985	3096
4239.521	3146
4241.057	3132
4242.592	3070
4244.128	3056
4245.663	3073
4247.197	3079
4248.731	3064
4250.265	3049
4251.798	3050
4253.333	3036
4254.865	3092
4256.397	2961
4257.93	3048
4259.461	3021
4260.994	3089
4262.525	2978
4264.056	3068
4265.586	3041
4267.115	3010
4268.646	3020
4270.176	3050
4271.705	3085
4273.232	3055
4274.761	3047
4276.289	3068
4277.818	2974
4279.345	3010
4280.872	3064
4282.399	3014
4283.924	2961
4285.452	3004
4286.976	3035
4288.502	2941
4290.026	2973
4291.551	2992
4293.074	2949
4294.6	2903
4296.123	2942
4297.646	2959
4299.168	2958
4300.691	2950
4302.214	2964
4303.736	2950
4305.257	2981
4306.778	2962
4308.299	2933
4309.82	2960
4311.34	2993
4312.86	2891
4314.379	2957
