400.0745	4689
402.597	4675
405.1208	4766
407.6419	4733
410.1623	4776
412.6819	4704
415.201	4740
417.7172	4798
420.2369	4739
422.7538	4930
425.2701	4917
427.7856	4960
430.3005	4975
432.8147	4929
435.3282	4999
437.841	5002
440.3511	4899
442.8625	5123
445.3753	4960
447.8854	5089
450.3927	5001
452.9014	4887
455.4073	5035
457.9146	5054
460.4233	4995
462.9272	4964
465.4325	4978
467.935	4978
470.4389	4990
472.9421	4972
475.4446	5067
477.9444	4995
480.4456	5034
482.944	5062
485.4417	5014
487.9429	5108
490.4393	5160
492.935	5184
495.4321	5165
497.9264	5223
500.4221	5042
502.9171	5256
505.4094	5171
507.9011	5243
510.392	5212
512.8864	5183
515.3759	5241
517.8649	5164
520.3531	5293
522.8406	5152
525.3275	5264
527.8178	5240
530.3033	5161
532.7881	5373
535.2723	5325
537.7558	5222
540.2407	5238
542.7228	5226
545.2043	5229
547.6851	5214
550.1652	5235
552.6467	5348
555.1255	5302
557.6016	5364
560.079	5315
562.5557	5367
565.0318	5423
567.5092	5344
569.984	5298
572.456	5380
574.9294	5398
577.4022	5324
579.8762	5539
582.3456	5460
584.8163	5418
587.2863	5520
589.7557	5530
592.2224	5397
594.6924	5474
597.1578	5475
599.6245	5468
602.0905	5432
604.5538	5474
607.0206	5457
609.4825	5336
611.9459	5449
614.4066	5431
616.8686	5489
619.33	5403
621.7906	5405
624.2487	5421
626.708	5487
629.1647	5464
631.6207	5380
634.0801	5398
636.5348	5411
638.9888	5465
641.4442	5448
643.8969	5435
646.3509	5488
648.8022	5480
651.255	5451
653.705	5591
656.1544	5471
658.6031	5528
661.0532	5481
663.5026	5585
665.9493	5543
668.3954	5592
670.8409	5581
673.2877	5626
675.7318	5556
678.1752	5654
680.618	5646
683.0601	5552
685.5035	5580
687.9444	5550
690.3845	5574
692.824	5569
695.2628	5682
697.701	5638
700.1406	5643
702.5774	5575
705.0116	5536
707.4472	5690
709.8821	5659
712.3183	5692
714.7519	5699
717.1829	5678
719.6151	5758
722.0468	5823
724.4777	5809
726.908	5894
729.3377	5832
731.7667	5718
734.1931	5895
736.6208	5798
739.0498	5839
741.4742	5871
743.9	5899
746.3231	5869
748.7476	5871
751.1713	6119
753.5945	5964
756.015	6029
758.4368	6029
760.856	5972
763.2766	6007
765.6965	6110
768.1157	6160
770.5323	6007
772.9483	5997
775.3656	5887
777.7822	6118
780.1963	6013
782.6116	6100
785.0244	6088
787.4365	6055
789.8499	6147
792.2626	6002
794.6728	6057
797.0823	6074
799.4911	6042
801.8994	6034
804.3109	6103
806.7178	6263
809.124	6160
811.5297	6078
813.9347	6232
816.341	6215
818.7447	6122
821.1478	6178
823.5502	6046
825.952	6102
828.3531	6024
830.7556	6245
833.1554	6176
835.5546	6157
837.9532	6077
840.3511	6127
842.7504	6182
845.1451	6293
847.5411	6203
849.9365	6205
852.3312	6244
854.7272	6212
857.1187	6290
859.5115	6217
861.9037	6296
864.2952	6235
866.6842	6287
869.0764	6218
871.4661	6116
873.8531	6229
876.2415	6281
878.6272	6102
881.0162	6260
883.4026	6287
885.7866	6245
888.1717	6111
890.5543	6173
892.9382	6246
895.3215	6170
897.7041	6100
900.0842	6285
902.4655	6133
904.8443	6160
907.2244	6273
909.6039	6238
911.9808	6226
914.357	6399
916.7346	6451
919.1115	6446
921.4859	6544
923.8616	6524
926.2347	6404
928.6071	6552
930.979	6519
933.3541	6665
935.7247	6516
938.0946	6606
940.4639	6515
942.8326	6557
945.2026	6733
947.5701	6805
949.9369	6883
952.305	6925
954.6705	7100
957.0355	7243
959.4017	7432
961.7654	7597
964.1284	7514
966.4908	7414
968.8527	7252
971.2138	6983
973.5743	6885
975.9343	6795
978.2936	6467
980.6522	6697
983.0122	6445
985.3696	6440
987.7245	6415
990.0807	6475
992.4362	6320
994.7911	6439
997.1474	6561
999.4991	6351
1001.852	6481
1004.205	6606
1006.555	6416
1008.908	6470
1011.258	6400
1013.606	6428
1015.956	6437
1018.302	6576
1020.652	6460
1022.998	6450
1025.345	6513
1027.691	6579
1030.035	6493
1032.378	6514
1034.724	6458
1037.066	6598
1039.409	6612
1041.75	6488
1044.092	6499
1046.433	6586
1048.771	6481
1051.112	6541
1053.449	6577
1055.786	6549
1058.124	6520
1060.462	6620
1062.797	6518
1065.131	6696
1067.467	6591
1069.8	6682
1072.135	6621
1074.467	6694
1076.798	6655
1079.129	6572
1081.459	6611
1083.792	6720
1086.121	6742
1088.449	6529
1090.777	6607
1093.104	6517
1095.431	6640
1097.759	6654
1100.084	6692
1102.408	6603
1104.732	6632
1107.056	6628
1109.379	6503
1111.701	6576
1114.022	6637
1116.343	6489
1118.664	6535
1120.983	6644
1123.303	6619
1125.621	6581
1127.939	6597
1130.256	6581
1132.573	6578
1134.889	6658
1137.205	6650
1139.52	6636
1141.832	6681
1144.146	6547
1146.461	6514
1148.771	6594
1151.083	6697
1153.392	6712
1155.703	6670
1158.011	6617
1160.323	6535
1162.629	6700
1164.938	6580
1167.243	6563
1169.55	6742
1171.857	6618
1174.163	6749
1176.466	6561
1178.769	6658
1181.073	6777
1183.374	6714
1185.677	6661
1187.979	6635
1190.279	6741
1192.578	6649
1194.878	6574
1197.178	6597
1199.476	6721
1201.772	6478
1204.068	6681
1206.366	6689
1208.663	6524
1210.957	6578
1213.251	6570
1215.544	6667
1217.836	6625
1220.128	6576
1222.421	6663
1224.712	6627
1227.002	6812
1229.292	6735
1231.581	6805
1233.871	6832
1236.159	6652
1238.446	6744
1240.732	6846
1243.018	6778
1245.304	6856
1247.59	6908
1249.874	6912
1252.156	6936
1254.439	6826
1256.721	6909
1259.005	6887
1261.286	6825
1263.565	6903
1265.845	6938
1268.125	7042
1270.403	6946
1272.682	6853
1274.959	6825
1277.234	6761
1279.511	6920
1281.787	6814
1284.062	6860
1286.337	6924
1288.609	6776
1290.882	6689
1293.153	6785
1295.428	6734
1297.698	6667
1299.969	6769
1302.237	6743
1304.507	6721
1306.777	6876
1309.044	6745
1311.312	6795
1313.578	6806
1315.844	6771
1318.109	6776
1320.375	6762
1322.638	6762
1324.903	6709
1327.165	6785
1329.427	6834
1331.69	6822
1333.952	6845
1336.212	6806
1338.471	6746
1340.73	6757
1342.988	6699
1345.248	6855
1347.505	6750
1349.763	6720
1352.019	6632
1354.274	6848
1356.53	6729
1358.784	6776
1361.038	6791
1363.291	6836
1365.543	6716
1367.797	6891
1370.048	6878
1372.296	6824
1374.546	6805
1376.796	6723
1379.045	6928
1381.295	6889
1383.542	6866
1385.787	6937
1388.034	6830
1390.28	6839
1392.527	6873
1394.772	6879
1397.014	6792
1399.258	6889
1401.501	6843
1403.741	6911
1405.985	6920
1408.226	6998
1410.465	6772
1412.705	6977
1414.943	6903
1417.184	6990
1419.42	6917
1421.658	6969
1423.894	6885
1426.13	6908
1428.366	7059
1430.602	6973
1432.835	6975
1435.069	7034
1437.301	7042
1439.535	7089
1441.767	7020
1443.997	6984
1446.229	7079
1448.458	7070
1450.687	6987
1452.916	7178
1455.146	7151
1457.372	7121
1459.599	7038
1461.824	7114
1464.051	7115
1466.277	7012
1468.501	7033
1470.725	6985
1472.948	6984
1475.17	6911
1477.393	7009
1479.614	6868
1481.837	6930
1484.057	7014
1486.276	6852
1488.497	6900
1490.715	6933
1492.932	6799
1495.148	6782
1497.364	6803
1499.58	6746
1501.798	6783
1504.012	6803
1506.227	6822
1508.44	6718
1510.653	6793
1512.866	6804
1515.078	6750
1517.289	6824
1519.5	6644
1521.711	6804
1523.92	6712
1526.13	6775
1528.338	6752
1530.544	6697
1532.752	6762
1534.959	6691
1537.165	6855
1539.371	6839
1541.574	6685
1543.779	6719
1545.983	6859
1548.187	6870
1550.39	6879
1552.59	6805
1554.792	6947
1556.991	6901
1559.19	6815
1561.392	6870
1563.59	6896
1565.789	6805
1567.986	6979
1570.182	6926
1572.381	6837
1574.576	6899
1576.771	6963
1578.966	6869
1581.16	6927
1583.354	6997
1585.546	6918
1587.74	7023
1589.931	6863
1592.121	7037
1594.311	6984
1596.502	6975
1598.693	6942
1600.881	6998
1603.069	7009
1605.256	7035
1607.445	6978
1609.631	7069
1611.816	7097
1614.001	6990
1616.186	7000
1618.37	7017
1620.555	6950
1622.737	6988
1624.919	6916
1627.101	6994
1629.282	7071
1631.463	7107
1633.643	7158
1635.822	6995
1638.001	7133
1640.179	7091
1642.359	7040
1644.534	7059
1646.711	7231
1648.887	7055
1651.062	7103
1653.235	7089
1655.412	7073
1657.586	7057
1659.757	7067
1661.93	7149
1664.1	7257
1666.274	7147
1668.445	7076
1670.614	7089
1672.784	7143
1674.951	7193
1677.12	7203
1679.289	7073
1681.457	7064
1683.622	7166
1685.789	7088
1687.953	7127
1690.121	7103
1692.284	6998
1694.447	6983
1696.611	7006
1698.772	7005
1700.935	7022
1703.098	7042
1705.258	6912
1707.417	6929
1709.576	6943
1711.736	6999
1713.896	6832
1716.053	7022
1718.21	7004
1720.366	6850
1722.522	6981
1724.68	6927
1726.835	6882
1728.989	6909
1731.142	6914
1733.295	6837
1735.449	6964
1737.601	6923
1739.753	6897
1741.903	7042
1744.054	6919
1746.203	7061
1748.354	6955
1750.503	6904
1752.651	7048
1754.798	7032
1756.944	6997
1759.092	6952
1761.238	6956
1763.383	7020
1765.528	7039
1767.672	7002
1769.814	6955
1771.959	7088
1774.102	6938
1776.242	7060
1778.384	7068
1780.525	6998
1782.665	6971
1784.805	7013
1786.945	6959
1789.082	7089
1791.22	7064
1793.36	7049
1795.495	7017
1797.632	6989
1799.766	7014
1801.902	6973
1804.035	7056
1806.172	7077
1808.304	7076
1810.436	7146
1812.569	6907
1814.699	7078
1816.833	6991
1818.963	7005
1821.092	6984
1823.222	7055
1825.35	7016
1827.478	7039
1829.608	6935
1831.734	6841
1833.86	6985
1835.986	7013
1838.11	7000
1840.238	6998
1842.362	6967
1844.485	6989
1846.608	7039
1848.73	6901
1850.853	6946
1852.974	6994
1855.097	6947
1857.217	6905
1859.336	7020
1861.455	6901
1863.576	7020
1865.693	6840
1867.811	6915
1869.926	6874
1872.042	6923
1874.16	6925
1876.275	6930
1878.39	6970
1880.504	6852
1882.618	6916
1884.731	6869
1886.843	6915
1888.956	6936
1891.067	6925
1893.178	6950
1895.287	6910
1897.399	6836
1899.508	6938
1901.617	6957
1903.724	6968
1905.832	7041
1907.941	7129
1910.046	6921
1912.152	6856
1914.256	6911
1916.361	6989
1918.464	6877
1920.57	6999
1922.672	7018
1924.775	6952
1926.876	7057
1928.978	6965
1931.08	7045
1933.181	6923
1935.28	7021
1937.38	6954
1939.478	7085
1941.577	7005
1943.675	7032
1945.771	6956
1947.867	6996
1949.964	7082
1952.058	7084
1954.154	7061
1956.248	7011
1958.343	7048
1960.435	7014
1962.527	7081
1964.62	7040
1966.711	7110
1968.802	6897
1970.892	7011
1972.983	7017
1975.072	7088
1977.162	6924
1979.25	6939
1981.337	6933
1983.424	7112
1985.51	6947
1987.598	7045
1989.683	6972
1991.768	6860
1993.852	6985
1995.934	6898
1998.019	6999
2000.102	6913
2002.184	6984
2004.266	6939
2006.347	6796
2008.427	6854
2010.508	6989
2012.587	6962
2014.666	6952
2016.745	6815
2018.821	7049
2020.9	6819
2022.977	6999
2025.052	6883
2027.128	6823
2029.204	6880
2031.277	6862
2033.353	6907
2035.425	6925
2037.499	6914
2039.57	6902
2041.642	6935
2043.714	6901
2045.786	6927
2047.855	6876
2049.925	6954
2051.993	6901
2054.064	6955
2056.132	6918
2058.2	6833
2060.266	6932
2062.332	6927
2064.398	6903
2066.465	6981
2068.529	6976
2070.592	6987
2072.657	7036
2074.719	6924
2076.783	6878
2078.845	7032
2080.907	6937
2082.968	6976
2085.028	6937
2087.087	6887
2089.148	6980
2091.207	6861
2093.264	6982
2095.322	6962
2097.379	6921
2099.439	6992
2101.495	6855
2103.55	6975
2105.605	7024
2107.658	6899
2109.713	6985
2111.767	6885
2113.82	6877
2115.872	6967
2117.924	6889
2119.975	6946
2122.028	6933
2124.078	6807
2126.126	6947
2128.176	7048
2130.225	6866
2132.275	6957
2134.321	6786
2136.368	6948
2138.415	6927
2140.461	6896
2142.505	6900
2144.552	6751
2146.597	6860
2148.64	6962
2150.684	6884
2152.725	6982
2154.77	6923
2156.811	6787
2158.852	6798
2160.894	6779
2162.933	6805
2164.973	6865
2167.013	6872
2169.051	6894
2171.089	6843
2173.126	6747
2175.164	6825
2177.201	6696
2179.236	6810
2181.273	6870
2183.307	6753
2185.341	6830
2187.377	6677
2189.41	6761
2191.442	6789
2193.473	6759
2195.506	6789
2197.539	6730
2199.569	6645
2201.598	6790
2203.628	6834
2205.656	6853
2207.686	6779
2209.716	6664
2211.743	6658
2213.769	6739
2215.796	6515
2217.821	6858
2219.848	6662
2221.873	6748
2223.897	6711
2225.921	6755
2227.944	6697
2229.967	6746
2231.991	6809
2234.011	6731
2236.032	6555
2238.053	6610
2240.073	6724
2242.094	6692
2244.114	6717
2246.131	6563
2248.149	6633
2250.167	6714
2252.186	6665
2254.201	6672
2256.218	6705
2258.233	6623
2260.247	6700
2262.262	6742
2264.278	6647
2266.29	6630
2268.303	6645
2270.315	6875
2272.327	6656
2274.341	6710
2276.35	6677
2278.361	6641
2280.37	6666
2282.38	6701
2284.388	6684
2286.397	6747
2288.405	6701
2290.412	6679
2292.419	6596
2294.425	6635
2296.431	6540
2298.437	6647
2300.441	6675
2302.445	6661
2304.449	6655
2306.453	6651
2308.455	6580
2310.457	6618
2312.459	6713
2314.46	6622
2316.46	6599
2318.461	6621
2320.46	6700
2322.458	6736
2324.458	6567
2326.456	6477
2328.455	6599
2330.451	6648
2332.447	6604
2334.443	6594
2336.438	6541
2338.433	6578
2340.429	6586
2342.422	6626
2344.416	6491
2346.408	6711
2348.399	6624
2350.393	6497
2352.384	6543
2354.375	6571
2356.365	6399
2358.355	6418
2360.344	6341
2362.333	6456
2364.322	6428
2366.309	6529
2368.295	6544
2370.282	6518
2372.27	6471
2374.256	6409
2376.24	6523
2378.225	6479
2380.208	6501
2382.194	6478
2384.177	6477
2386.159	6412
2388.142	6407
2390.122	6501
2392.105	6617
2394.085	6383
2396.066	6415
2398.044	6423
2400.024	6476
2402.002	6390
2403.982	6329
2405.959	6425
2407.935	6312
2409.913	6512
2411.888	6470
2413.865	6342
2415.84	6485
2417.814	6288
2419.788	6439
2421.762	6433
2423.735	6285
2425.708	6381
2427.68	6448
2429.651	6384
2431.623	6346
2433.593	6431
2435.564	6386
2437.533	6536
2439.502	6371
2441.47	6386
2443.438	6555
2445.406	6345
2447.373	6313
2449.34	6344
2451.305	6501
2453.271	6346
2455.235	6329
2457.201	6345
2459.165	6382
2461.129	6445
2463.092	6385
2465.054	6371
2467.018	6269
2468.978	6337
2470.939	6313
2472.899	6340
2474.86	6399
2476.819	6330
2478.778	6188
2480.737	6301
2482.695	6420
2484.653	6288
2486.609	6389
2488.567	6353
2490.524	6363
2492.478	6255
2494.433	6254
2496.387	6247
2498.343	6247
2500.297	6234
2502.249	6266
2504.202	6241
2506.153	6365
2508.105	6377
2510.057	6265
2512.008	6303
2513.957	6281
2515.906	6339
2517.855	6342
2519.805	6166
2521.754	6304
2523.7	6216
2525.647	6275
2527.594	6306
2529.54	6210
2531.486	6280
2533.431	6295
2535.376	6286
2537.32	6238
2539.263	6219
2541.207	6161
2543.151	6324
2545.093	6088
2547.034	6200
2548.975	6295
2550.917	6272
2552.856	6235
2554.796	6210
2556.735	6268
2558.673	6261
2560.611	6225
2562.55	6234
2564.487	6331
2566.424	6219
2568.36	6198
2570.296	6166
2572.232	6170
2574.167	6258
2576.101	6235
2578.035	6225
2579.969	6181
2581.902	6105
2583.834	6245
2585.766	6273
2587.698	6235
2589.628	6285
2591.557	6260
2593.489	6243
2595.419	6323
2597.348	6111
2599.275	6319
2601.204	6173
2603.131	6348
2605.059	6289
2606.986	6196
2608.911	6235
2610.837	6194
2612.76	6186
2614.687	6262
2616.61	6281
2618.534	6228
2620.457	6264
2622.38	6246
2624.302	6170
2626.225	6140
2628.145	6269
2630.067	6277
2631.986	6246
2633.906	6229
2635.827	6269
2637.745	6243
2639.662	6322
2641.581	6288
2643.498	6251
2645.415	6323
2647.331	6220
2649.248	6183
2651.163	6214
2653.077	6214
2654.993	6246
2656.906	6312
2658.821	6240
2660.733	6253
2662.646	6242
2664.557	6076
2666.47	6253
2668.381	6167
2670.291	6166
2672.201	6098
2674.11	6291
2676.021	6220
2677.929	6260
2679.837	6119
2681.745	6220
2683.652	6169
2685.56	6087
2687.466	6143
2689.371	6182
2691.276	6106
2693.181	6045
2695.085	6210
2696.991	6131
2698.893	6104
2700.796	6021
2702.698	6147
2704.601	6150
2706.502	6026
2708.404	6075
2710.304	6065
2712.203	6114
2714.103	6020
2716.003	6106
2717.902	6149
2719.8	6088
2721.697	6169
2723.594	6049
2725.49	6161
2727.389	6073
2729.283	6097
2731.179	6110
2733.073	6105
2734.968	6187
2736.863	6007
2738.757	6240
2740.649	6059
2742.541	6090
2744.433	6144
2746.324	6072
2748.216	6078
2750.107	5982
2751.997	6053
2753.886	5990
2755.776	6032
2757.666	5924
2759.553	6059
2761.44	5927
2763.327	6037
2765.215	6015
2767.102	5948
2768.988	6037
2770.873	6045
2772.757	5986
2774.641	6042
2776.525	6010
2778.41	5892
2780.292	5996
2782.175	5929
2784.057	5988
2785.938	5975
2787.821	5940
2789.701	5997
2791.581	5910
2793.461	5904
2795.34	6025
2797.219	5914
2799.099	5946
2800.975	5968
2802.853	6049
2804.73	5957
2806.606	5927
2808.484	6012
2810.358	5932
2812.233	5946
2814.108	5954
2815.981	5874
2817.857	6036
2819.73	5846
2821.602	5906
2823.474	5901
2825.346	5886
2827.217	5977
2829.089	5974
2830.959	5801
2832.829	5964
2834.698	5927
2836.567	5910
2838.436	5930
2840.305	5955
2842.172	5932
2844.04	5901
2845.905	5937
2847.772	5884
2849.639	5955
2851.503	5931
2853.369	5835
2855.232	5924
2857.096	6080
2858.961	6034
2860.824	6007
2862.686	5960
2864.547	6081
2866.41	5998
2868.272	5938
2870.132	6105
2871.992	6226
2873.851	6207
2875.711	6226
2877.57	6117
2879.429	6262
2881.287	6393
2883.144	6302
2885.001	6403
2886.857	6411
2888.714	6433
2890.57	6276
2892.425	6305
2894.279	6296
2896.133	6314
2897.987	6379
2899.842	6315
2901.694	6368
2903.547	6320
2905.397	6341
2907.249	6351
2909.101	6286
2910.952	6274
2912.802	6397
2914.652	6366
2916.5	6501
2918.35	6435
2920.198	6581
2922.045	6402
2923.893	6597
2925.74	6637
2927.585	6656
2929.433	6632
2931.279	6746
2933.123	6718
2934.968	6802
2936.811	6845
2938.656	6854
2940.5	6870
2942.342	7080
2944.185	6935
2946.026	6958
2947.87	7018
2949.71	7093
2951.549	6977
2953.39	6925
2955.229	6939
2957.069	6881
2958.908	6857
2960.746	6753
2962.584	6582
2964.421	6704
2966.257	6651
2968.094	6601
2969.931	6466
2971.766	6535
2973.601	6505
2975.435	6437
2977.27	6483
2979.105	6377
2980.938	6356
2982.77	6296
2984.602	6276
2986.434	6286
2988.267	6293
2990.097	6302
2991.927	6268
2993.757	6161
2995.587	6158
2997.417	6071
2999.246	6040
3001.074	6064
3002.902	5990
3004.729	6061
3006.556	5838
3008.384	5863
3010.21	5854
3012.036	5898
3013.861	5822
3015.684	5903
3017.51	5652
3019.334	5774
3021.157	5720
3022.981	5596
3024.802	5779
3026.624	5595
3028.448	5592
3030.267	5692
3032.088	5566
3033.909	5719
3035.728	5573
3037.549	5527
3039.368	5603
3041.186	5572
3043.004	5638
3044.821	5576
3046.64	5551
3048.455	5578
3050.272	5517
3052.087	5588
3053.903	5502
3055.717	5528
3057.534	5468
3059.347	5499
3061.16	5549
3062.974	5535
3064.785	5477
3066.598	5475
3068.411	5613
3070.222	5495
3072.032	5501
3073.844	5452
3075.653	5460
3077.463	5447
3079.272	5339
3081.08	5429
3082.889	5438
3084.697	5457
3086.505	5389
3088.312	5480
3090.118	5431
3091.924	5386
3093.729	5353
3095.535	5431
3097.34	5291
3099.144	5290
3100.947	5354
3102.75	5448
3104.553	5344
3106.357	5487
3108.159	5328
3109.961	5320
3111.762	5336
3113.562	5310
3115.365	5333
3117.164	5305
3118.964	5351
3120.761	5274
3122.56	5308
3124.36	5384
3126.158	5310
3127.954	5318
3129.75	5200
3131.547	5178
3133.343	5267
3135.139	5287
3136.934	5343
3138.729	5282
3140.522	5253
3142.317	5272
3144.11	5258
3145.904	5242
3147.695	5142
3149.488	5284
3151.28	5243
3153.07	5194
3154.863	5175
3156.652	5246
3158.441	5165
3160.231	5171
3162.019	5227
3163.81	5208
3165.597	5167
3167.384	5216
3169.172	5209
3170.958	5172
3172.745	5156
3174.532	5155
3176.317	5168
3178.101	5211
3179.885	5110
3181.67	5152
3183.455	5057
3185.238	5095
3187.02	5155
3188.802	5201
3190.585	5155
3192.368	5158
3194.149	5130
3195.929	5118
3197.709	5097
3199.489	5175
3201.268	5103
3203.048	5116
3204.826	5091
3206.604	5076
3208.382	5201
3210.159	5132
3211.937	5167
3213.713	5166
3215.489	5149
3217.263	5158
3219.038	5125
3220.815	5141
3222.589	5122
3224.363	5124
3226.136	5103
3227.908	5065
3229.681	5131
3231.454	5002
3233.226	5010
3234.996	5114
3236.767	5019
3238.538	5095
3240.308	5055
3242.078	5053
3243.847	4983
3245.615	5124
3247.384	5157
3249.15	5104
3250.92	5139
3252.686	5025
3254.453	5095
3256.218	5097
3257.984	5042
3259.75	5043
3261.515	4976
3263.279	5054
3265.044	5055
3266.806	5094
3268.57	4976
3270.334	5107
3272.095	5018
3273.856	5144
3275.619	5109
3277.379	5098
3279.14	5012
3280.9	4988
3282.661	4967
3284.419	5012
3286.178	4969
3287.937	5038
3289.695	5061
3291.453	5122
3293.21	5055
3294.967	5195
3296.723	5033
3298.48	5032
3300.235	5166
3301.99	5049
3303.744	4957
3305.498	5068
3307.253	5126
3309.006	5089
3310.759	5122
3312.511	5088
3314.263	5044
3316.017	5058
3317.768	5063
3319.519	4956
3321.268	5030
3323.018	5008
3324.767	5077
3326.518	5007
3328.267	5033
3330.014	5046
3331.762	5066
3333.509	5023
3335.258	5015
3337.003	5058
3338.75	5075
3340.496	4976
3342.24	4967
3343.987	5052
3345.732	5004
3347.475	5011
3349.219	4966
3350.961	5008
3352.705	4950
3354.448	4955
3356.19	4950
3357.931	4884
3359.672	4957
3361.412	4982
3363.155	4926
3364.894	4919
3366.633	4880
3368.372	4971
3370.11	4965
3371.849	4959
3373.588	4879
3375.325	4840
3377.061	4942
3378.799	4955
3380.534	4884
3382.271	4846
3384.006	4853
3385.741	4856
3387.475	4950
3389.209	4918
3390.944	4950
3392.677	4785
3394.409	4923
3396.143	4843
3397.874	4878
3399.606	4830
3401.338	4803
3403.069	4950
3404.799	4762
3406.528	4820
3408.258	4732
3409.988	4821
3411.717	4926
3413.445	4812
3415.173	4783
3416.899	4730
3418.626	4895
3420.354	4826
3422.08	4770
3423.806	4799
3425.531	4699
3427.255	4833
3428.981	4773
3430.705	4796
3432.429	4772
3434.151	4734
3435.875	4885
3437.599	4707
3439.321	4737
3441.042	4833
3442.763	4693
3444.483	4662
3446.204	4747
3447.926	4722
3449.645	4671
3451.364	4648
3453.082	4676
3454.801	4737
3456.52	4677
3458.238	4688
3459.954	4622
3461.671	4652
3463.387	4628
3465.104	4716
3466.82	4632
3468.534	4674
3470.25	4474
3471.963	4678
3473.676	4550
3475.392	4664
3477.104	4610
3478.817	4548
3480.528	4645
3482.241	4651
3483.954	4573
3485.664	4504
3487.374	4610
3489.084	4605
3490.795	4549
3492.504	4507
3494.214	4539
3495.922	4536
3497.63	4586
3499.338	4445
3501.045	4489
3502.753	4488
3504.459	4426
3506.166	4524
3507.871	4587
3509.576	4388
3511.283	4464
3512.987	4382
3514.691	4511
3516.395	4444
3518.098	4387
3519.8	4587
3521.504	4464
3523.206	4399
3524.908	4431
3526.609	4396
3528.309	4382
3530.011	4514
3531.711	4373
3533.411	4526
3535.109	4413
3536.808	4517
3538.507	4427
3540.206	4406
3541.904	4408
3543.601	4359
3545.297	4370
3546.994	4443
3548.69	4404
3550.387	4313
3552.081	4380
3553.776	4380
3555.47	4317
3557.166	4355
3558.859	4274
3560.553	4392
3562.245	4397
3563.938	4322
3565.629	4370
3567.322	4302
3569.014	4339
3570.704	4222
3572.394	4360
3574.084	4218
3575.775	4310
3577.464	4328
3579.152	4302
3580.842	4375
3582.529	4308
3584.216	4263
3585.905	4260
3587.591	4277
3589.279	4211
3590.964	4256
3592.649	4242
3594.336	4219
3596.021	4301
3597.705	4215
3599.388	4301
3601.072	4210
3602.757	4250
3604.439	4208
3606.122	4107
3607.803	4199
3609.485	4177
3611.167	4177
3612.849	4205
3614.529	4197
3616.208	4179
3617.888	4234
3619.567	4180
3621.247	4163
3622.926	4136
3624.603	4159
3626.281	4102
3627.958	4116
3629.635	4149
3631.312	4162
3632.989	4137
3634.665	4090
3636.339	4071
3638.014	4108
3639.691	4154
3641.364	4117
3643.038	4112
3644.71	4005
3646.384	4100
3648.058	4008
3649.729	4061
3651.402	4036
3653.073	4099
3654.744	4036
3656.414	4085
3658.085	4077
3659.755	4137
3661.424	3963
3663.094	4042
3664.762	4003
3666.431	4051
3668.099	3945
3669.766	3991
3671.433	3975
3673.099	4051
3674.768	4008
3676.433	3965
3678.098	3996
3679.763	3978
3681.428	3985
3683.093	3975
3684.757	3915
3686.421	4054
3688.083	3991
3689.746	3974
3691.408	3990
3693.071	3924
3694.733	3939
3696.394	3900
3698.054	3908
3699.715	3989
3701.375	3839
3703.036	3943
3704.695	3926
3706.354	4018
3708.012	3929
3709.67	3839
3711.329	3838
3712.987	3879
3714.644	3988
3716.299	3956
3717.955	3863
3719.613	3851
3721.268	3843
3722.923	3920
3724.577	3913
3726.231	3886
3727.885	3860
3729.539	3884
3731.192	3874
3732.845	3830
3734.497	3929
3736.149	3901
3737.802	3850
3739.453	3858
3741.104	3936
3742.753	3819
3744.404	3891
3746.052	3872
3747.704	3862
3749.352	3874
3751	3901
3752.648	3835
3754.296	3818
3755.944	3849
3757.59	3865
3759.238	3832
3760.883	3827
3762.528	3850
3764.176	3847
3765.82	3794
3767.464	3804
3769.109	3820
3770.753	3776
3772.396	3792
3774.04	3808
3775.683	3765
3777.325	3761
3778.967	3821
3780.608	3746
3782.25	3800
3783.89	3779
3785.531	3794
3787.17	3708
3788.81	3692
3790.45	3770
3792.09	3742
3793.729	3823
3795.366	3717
3797.003	3719
3798.64	3718
3800.278	3707
3801.915	3749
3803.551	3754
3805.187	3743
3806.822	3694
3808.458	3665
3810.093	3694
3811.726	3702
3813.36	3657
3814.994	3682
3816.627	3754
3818.262	3646
3819.893	3761
3821.525	3689
3823.157	3720
3824.787	3671
3826.42	3745
3828.051	3712
3829.68	3687
3831.31	3579
3832.938	3600
3834.569	3666
3836.198	3622
3837.825	3579
3839.454	3652
3841.08	3625
3842.708	3633
3844.335	3659
3845.962	3633
3847.587	3641
3849.212	3541
3850.838	3588
3852.463	3635
3854.089	3643
3855.712	3578
3857.335	3546
3858.959	3594
3860.582	3658
3862.205	3635
3863.827	3620
3865.449	3537
3867.07	3591
3868.691	3544
3870.312	3635
3871.933	3632
3873.553	3549
3875.173	3486
3876.792	3592
3878.411	3517
3880.03	3514
3881.647	3507
3883.265	3542
3884.882	3510
3886.499	3422
3888.116	3597
3889.732	3506
3891.348	3518
3892.964	3588
3894.579	3542
3896.195	3607
3897.809	3490
3899.423	3517
3901.036	3539
3902.648	3544
3904.261	3549
3905.875	3513
3907.487	3543
3909.099	3450
3910.709	3484
3912.321	3565
3913.933	3516
3915.542	3447
3917.152	3475
3918.762	3473
3920.37	3527
3921.98	3545
3923.589	3563
3925.196	3500
3926.804	3502
3928.41	3561
3930.018	3502
3931.626	3436
3933.231	3517
3934.838	3475
3936.442	3392
3938.046	3511
3939.653	3339
3941.257	3472
3942.861	3400
3944.464	3509
3946.068	3454
3947.67	3394
3949.273	3386
3950.876	3421
3952.477	3425
3954.078	3404
3955.678	3413
3957.281	3421
3958.881	3440
3960.48	3451
3962.079	3390
3963.678	3426
3965.279	3377
3966.877	3398
3968.475	3395
3970.072	3402
3971.669	3406
3973.266	3443
3974.864	3425
3976.459	3362
3978.055	3369
3979.65	3310
3981.245	3413
3982.841	3275
3984.436	3395
3986.03	3450
3987.623	3331
3989.216	3369
3990.809	3302
3992.403	3397
3993.995	3358
3995.586	3411
3997.177	3269
3998.768	3327
4000.361	3284
4001.951	3328
4003.54	3223
4005.13	3285
4006.719	3272
4008.31	3271
4009.897	3259
4011.485	3299
4013.073	3283
4014.66	3352
4016.247	3259
4017.834	3248
4019.421	3263
4021.006	3264
4022.592	3246
4024.178	3221
4025.763	3155
4027.348	3190
4028.932	3227
4030.515	3303
4032.099	3215
4033.682	3230
4035.266	3214
4036.847	3242
4038.429	3266
4040.011	3149
4041.592	3224
4043.173	3189
4044.755	3250
4046.334	3255
4047.913	3144
4049.494	3174
4051.074	3159
4052.652	3207
4054.23	3166
4055.807	3174
4057.385	3209
4058.963	3233
4060.541	3120
4062.117	3183
4063.693	3157
4065.269	3156
4066.844	3178
4068.42	3117
4069.995	3228
4071.569	3147
4073.143	3091
4074.716	3046
4076.291	3057
4077.864	3247
4079.436	3196
4081.009	3157
4082.58	3147
4084.152	3170
4085.723	3099
4087.294	3100
4088.865	3116
4090.435	3082
4092.005	3146
4093.574	3110
4095.143	3197
4096.712	3087
4098.279	3162
4099.848	3050
4101.416	3042
4102.984	3148
4104.55	3087
4106.117	3100
4107.682	3111
4109.248	3130
4110.815	3037
4112.379	3002
4113.945	3070
4115.508	3075
4117.073	3085
4118.637	3033
4120.201	3133
4121.763	3031
4123.325	3023
4124.888	3083
4126.449	3017
4128.013	3071
4129.573	2996
4131.133	2996
4132.694	3098
4134.254	2975
4135.814	3065
4137.374	3010
4138.933	3031
4140.491	3043
4142.049	2979
4143.607	2970
4145.167	3020
4146.724	2915
4148.28	3028
4149.836	2946
4151.392	3045
4152.949	3023
4154.504	2912
4156.059	2934
4157.614	2887
4159.168	2957
4160.723	2964
4162.277	2886
4163.83	3068
4165.383	3012
4166.936	2987
4168.488	2998
4170.041	2901
4171.593	2902
4173.144	2938
4174.695	2928
4176.246	2881
4177.796	2869
4179.346	2864
4180.896	2816
4182.445	2918
4183.994	2855
4185.542	2900
4187.091	2919
4188.639	2899
4190.185	2913
4191.732	2855
4193.279	2865
4194.826	2894
4196.373	2856
4197.918	2904
4199.463	2866
4201.008	2886
4202.553	2911
4204.098	2832
4205.641	2798
4207.185	2843
4208.728	2859
4210.271	2864
4211.814	2902
4213.357	2875
4214.898	2871
4216.439	2850
4217.98	2879
4219.522	2859
4221.062	2933
4222.603	2844
4224.142	2859
4225.681	2822
4227.222	2849
4228.76	2799
4230.298	2849
4231.835	2803
4233.373	2817
4234.911	2841
4236.449	2817
4237.985	2811
4239.521	2786
4241.057	2868
4242.592	2825
4244.128	2691
4245.663	2785
4247.197	2718
4248.731	2789
4250.265	2774
4251.798	2835
4253.333	2734
4254.865	2748
4256.397	2803
4257.93	2804
4259.461	2829
4260.994	2757
4262.525	2777
4264.056	2765
4265.586	2810
4267.115	2759
4268.646	2767
4270.176	2732
4271.705	2776
4273.232	2753
4274.761	2689
4276.289	2716
4277.818	2726
4279.345	2677
4280.872	2810
4282.399	2759
4283.924	2711
4285.452	2729
4286.976	2754
4288.502	2736
4290.026	2735
4291.551	2691
4293.074	2743
4294.6	2741
4296.123	2708
4297.646	2661
4299.168	2799
4300.691	2695
4302.214	2694
4303.736	2755
4305.257	2670
4306.778	2647
4308.299	2646
4309.82	2749
4311.34	2689
4312.86	2643
4314.379	2715
