400.0745	3948
402.597	3949
405.1208	3931
407.6419	3899
410.1623	4047
412.6819	4098
415.201	3996
417.7172	4093
420.2369	4104
422.7538	4059
425.2701	4249
427.7856	4311
430.3005	4239
432.8147	4183
435.3282	4279
437.841	4273
440.3511	4301
442.8625	4236
445.3753	4311
447.8854	4216
450.3927	4216
452.9014	4259
455.4073	4276
457.9146	4286
460.4233	4189
462.9272	4243
465.4325	4227
467.935	4228
470.4389	4235
472.9421	4223
475.4446	4286
477.9444	4214
480.4456	4167
482.944	4172
485.4417	4218
487.9429	4298
490.4393	4335
492.935	4261
495.4321	4283
497.9264	4295
500.4221	4323
502.9171	4441
505.4094	4301
507.9011	4330
510.392	4362
512.8864	4405
515.3759	4345
517.8649	4336
520.3531	4455
522.8406	4384
525.3275	4328
527.8178	4400
530.3033	4365
532.7881	4451
535.2723	4384
537.7558	4431
540.2407	4338
542.7228	4489
545.2043	4393
547.6851	4450
550.1652	4485
552.6467	4399
555.1255	4448
557.6016	4493
560.079	4331
562.5557	4388
565.0318	4463
567.5092	4466
569.984	4430
572.456	4569
574.9294	4539
577.4022	4528
579.8762	4586
582.3456	4668
584.8163	4560
587.2863	4608
589.7557	4569
592.2224	4605
594.6924	4586
597.1578	4611
599.6245	4542
602.0905	4540
604.5538	4527
607.0206	4514
609.4825	4494
611.9459	4686
614.4066	4510
616.8686	4580
619.33	4518
621.7906	4546
624.2487	4575
626.708	4519
629.1647	4504
631.6207	4595
634.0801	4473
636.5348	4508
638.9888	4496
641.4442	4566
643.8969	4605
646.3509	4537
648.8022	4541
651.255	4608
653.705	4571
656.1544	4647
658.6031	4567
661.0532	4665
663.5026	4666
665.9493	4567
668.3954	4597
670.8409	4694
673.2877	4544
675.7318	4544
678.1752	4690
680.618	4650
683.0601	4640
685.5035	4735
687.9444	4677
690.3845	4811
692.824	4697
695.2628	4673
697.701	4701
700.1406	4678
702.5774	4778
705.0116	4680
707.4472	4744
709.8821	4701
712.3183	4817
714.7519	4792
717.1829	4746
719.6151	4809
722.0468	4842
724.4777	4782
726.908	4748
729.3377	4833
731.7667	4897
734.1931	4909
736.6208	4864
739.0498	4989
741.4742	4993
743.9	4891
746.3231	5028
748.7476	4933
751.1713	5048
753.5945	4959
756.015	4970
758.4368	4992
760.856	4992
763.2766	4928
765.6965	5062
768.1157	4970
770.5323	4988
772.9483	5044
775.3656	4991
777.7822	5021
780.1963	5053
782.6116	5055
785.0244	4970
787.4365	4986
789.8499	5083
792.2626	4991
794.6728	4968
797.0823	4955
799.4911	5146
801.8994	4997
804.3109	5079
806.7178	5075
809.124	5138
811.5297	5142
813.9347	5042
816.341	5206
818.7447	5155
821.1478	5173
823.5502	5092
825.952	5036
828.3531	5137
830.7556	5113
833.1554	5221
835.5546	5177
837.9532	5216
840.3511	5135
842.7504	5190
845.1451	5144
847.5411	5243
849.9365	5217
852.3312	5246
854.7272	5250
857.1187	5277
859.5115	5321
861.9037	5280
864.2952	5223
866.6842	5193
869.0764	5351
871.4661	5204
873.8531	5324
876.2415	5360
878.6272	5178
881.0162	5245
883.4026	5319
885.7866	5191
888.1717	5226
890.5543	5220
892.9382	5218
895.3215	5180
897.7041	5277
900.0842	5123
902.4655	5187
904.8443	5299
907.2244	5278
909.6039	5448
911.9808	5252
914.357	5423
916.7346	5437
919.1115	5557
921.4859	5511
923.8616	5595
926.2347	5538
928.6071	5599
930.979	5554
933.3541	5675
935.7247	5701
938.0946	5600
940.4639	5700
942.8326	5714
945.2026	5717
947.5701	5932
949.9369	5971
952.305	6170
954.6705	6376
957.0355	6588
959.4017	6832
961.7654	7082
964.1284	6998
966.4908	6789
968.8527	6570
971.2138	6103
973.5743	6083
975.9343	5768
978.2936	5617
980.6522	5593
983.0122	5385
985.3696	5469
987.7245	5359
990.0807	5326
992.4362	5398
994.7911	5353
997.1474	5341
999.4991	5359
1001.852	5524
1004.205	5376
1006.555	5419
1008.908	5502
1011.258	5467
1013.606	5462
1015.956	5349
1018.302	5379
1020.652	5506
1022.998	5449
1025.345	5432
1027.691	5606
1030.035	5515
1032.378	5471
1034.724	5573
1037.066	5557
1039.409	5545
1041.75	5511
1044.092	5520
1046.433	5602
1048.771	5540
1051.112	5633
1053.449	5471
1055.786	5643
1058.124	5582
1060.462	5516
1062.797	5712
1065.131	5585
1067.467	5674
1069.8	5698
1072.135	5711
1074.467	5685
1076.798	5688
1079.129	5592
1081.459	5682
1083.792	5652
1086.121	5699
1088.449	5453
1090.777	5555
1093.104	5617
1095.431	5643
1097.759	5492
1100.084	5631
1102.408	5608
1104.732	5439
1107.056	5531
1109.379	5481
1111.701	5602
1114.022	5559
1116.343	5563
1118.664	5582
1120.983	5656
1123.303	5451
1125.621	5570
1127.939	5513
1130.256	5518
1132.573	5489
1134.889	5563
1137.205	5461
1139.52	5548
1141.832	5583
1144.146	5469
1146.461	5481
1148.771	5555
1151.083	5529
1153.392	5548
1155.703	5511
1158.011	5530
1160.323	5578
1162.629	5461
1164.938	5571
1167.243	5495
1169.55	5508
1171.857	5578
1174.163	5578
1176.466	5509
1178.769	5559
1181.073	5440
1183.374	5490
1185.677	5519
1187.979	5539
1190.279	5514
1192.578	5538
1194.878	5547
1197.178	5615
1199.476	5523
1201.772	5486
1204.068	5544
1206.366	5582
1208.663	5535
1210.957	5568
1213.251	5528
1215.544	5492
1217.836	5416
1220.128	5615
1222.421	5453
1224.712	5496
1227.002	5666
1229.292	5721
1231.581	5695
1233.871	5595
1236.159	5779
1238.446	5687
1240.732	5749
1243.018	5893
1245.304	5836
1247.59	5853
1249.874	5808
1252.156	5878
1254.439	5771
1256.721	5769
1259.005	5752
1261.286	5829
1263.565	5792
1265.845	5746
1268.125	5834
1270.403	5761
1272.682	5832
1274.959	5724
1277.234	5751
1279.511	5750
1281.787	5853
1284.062	5689
1286.337	5779
1288.609	5731
1290.882	5731
1293.153	5724
1295.428	5792
1297.698	5623
1299.969	5698
1302.237	5617
1304.507	5704
1306.777	5716
1309.044	5645
1311.312	5634
1313.578	5714
1315.844	5636
1318.109	5721
1320.375	5594
1322.638	5673
1324.903	5669
1327.165	5609
1329.427	5633
1331.69	5707
1333.952	5747
1336.212	5668
1338.471	5701
1340.73	5727
1342.988	5581
1345.248	5601
1347.505	5767
1349.763	5687
1352.019	5649
1354.274	5727
1356.53	5636
1358.784	5579
1361.038	5747
1363.291	5714
1365.543	5710
1367.797	5749
1370.048	5744
1372.296	5675
1374.546	5595
1376.796	5655
1379.045	5625
1381.295	5646
1383.542	5691
1385.787	5754
1388.034	5728
1390.28	5840
1392.527	5699
1394.772	5712
1397.014	5758
1399.258	5780
1401.501	5750
1403.741	5881
1405.985	5945
1408.226	5766
1410.465	5776
1412.705	5889
1414.943	5827
1417.184	5879
1419.42	5791
1421.658	5815
1423.894	5920
1426.13	5839
1428.366	5877
1430.602	5867
1432.835	5777
1435.069	5905
1437.301	5834
1439.535	5931
1441.767	6090
1443.997	5937
1446.229	6009
1448.458	6053
1450.687	6019
1452.916	6088
1455.146	6036
1457.372	6092
1459.599	6055
1461.824	5985
1464.051	6015
1466.277	5944
1468.501	5977
1470.725	5932
1472.948	5978
1475.17	5842
1477.393	5820
1479.614	5635
1481.837	5819
1484.057	5789
1486.276	5826
1488.497	5634
1490.715	5687
1492.932	5677
1495.148	5713
1497.364	5632
1499.58	5655
1501.798	5637
1504.012	5536
1506.227	5656
1508.44	5539
1510.653	5591
1512.866	5599
1515.078	5573
1517.289	5626
1519.5	5517
1521.711	5680
1523.92	5694
1526.13	5598
1528.338	5603
1530.544	5570
1532.752	5577
1534.959	5619
1537.165	5605
1539.371	5631
1541.574	5692
1543.779	5511
1545.983	5642
1548.187	5712
1550.39	5721
1552.59	5686
1554.792	5736
1556.991	5710
1559.19	5717
1561.392	5717
1563.59	5690
1565.789	5703
1567.986	5821
1570.182	5762
1572.381	5824
1574.576	5809
1576.771	5711
1578.966	5735
1581.16	5764
1583.354	5774
1585.546	5765
1587.74	5664
1589.931	5761
1592.121	5829
1594.311	5810
1596.502	5870
1598.693	5821
1600.881	5837
1603.069	5771
1605.256	5783
1607.445	5764
1609.631	5911
1611.816	5884
1614.001	5795
1616.186	5976
1618.37	5892
1620.555	5769
1622.737	5914
1624.919	5893
1627.101	5909
1629.282	5982
1631.463	5878
1633.643	5986
1635.822	6000
1638.001	5942
1640.179	5844
1642.359	5929
1644.534	6010
1646.711	5944
1648.887	6022
1651.062	5911
1653.235	5911
1655.412	5944
1657.586	5932
1659.757	5985
1661.93	5985
1664.1	6094
1666.274	5933
1668.445	6000
1670.614	5994
1672.784	6012
1674.951	6043
1677.12	6035
1679.289	5974
1681.457	6015
1683.622	5942
1685.789	5966
1687.953	5900
1690.121	5997
1692.284	5821
1694.447	5892
1696.611	5888
1698.772	5912
1700.935	5859
1703.098	5732
1705.258	5826
1707.417	5754
1709.576	5852
1711.736	5809
1713.896	5817
1716.053	5689
1718.21	5700
1720.366	5669
1722.522	5758
1724.68	5727
1726.835	5772
1728.989	5782
1731.142	5726
1733.295	5694
1735.449	5822
1737.601	5660
1739.753	5713
1741.903	5705
1744.054	5858
1746.203	5691
1748.354	5766
1750.503	5798
1752.651	5803
1754.798	5760
1756.944	5732
1759.092	5684
1761.238	5798
1763.383	5751
1765.528	5789
1767.672	5812
1769.814	5847
1771.959	5765
1774.102	5727
1776.242	5709
1778.384	5831
1780.525	5791
1782.665	5843
1784.805	5801
1786.945	5807
1789.082	5849
1791.22	5809
1793.36	5797
1795.495	5835
1797.632	5804
1799.766	5801
1801.902	5882
1804.035	5767
1806.172	5875
1808.304	5798
1810.436	5823
1812.569	5880
1814.699	5870
1816.833	5733
1818.963	5803
1821.092	5746
1823.222	5642
1825.35	5744
1827.478	5853
1829.608	5795
1831.734	5642
1833.86	5785
1835.986	5805
1838.11	5810
1840.238	5842
1842.362	5758
1844.485	5700
1846.608	5794
1848.73	5724
1850.853	5678
1852.974	5688
1855.097	5711
1857.217	5778
1859.336	5713
1861.455	5737
1863.576	5709
1865.693	5818
1867.811	5776
1869.926	5786
1872.042	5706
1874.16	5711
1876.275	5735
1878.39	5722
1880.504	5704
1882.618	5770
1884.731	5777
1886.843	5763
1888.956	5741
1891.067	5709
1893.178	5824
1895.287	5713
1897.399	5835
1899.508	5881
1901.617	5789
1903.724	5816
1905.832	5829
1907.941	5756
1910.046	5749
1912.152	5731
1914.256	5821
1916.361	5818
1918.464	5728
1920.57	5893
1922.672	5829
1924.775	5815
1926.876	5624
1928.978	5783
1931.08	5844
1933.181	5688
1935.28	5880
1937.38	5709
1939.478	5821
1941.577	5862
1943.675	5853
1945.771	5761
1947.867	5713
1949.964	5866
1952.058	5821
1954.154	5812
1956.248	5858
1958.343	5811
1960.435	5858
1962.527	5834
1964.62	5744
1966.711	5871
1968.802	5850
1970.892	5795
1972.983	5804
1975.072	5816
1977.162	5691
1979.25	5786
1981.337	5751
1983.424	5814
1985.51	5810
1987.598	5808
1989.683	5666
1991.768	5849
1993.852	5798
1995.934	5783
1998.019	5944
2000.102	5696
2002.184	5732
2004.266	5733
2006.347	5739
2008.427	5663
2010.508	5716
2012.587	5747
2014.666	5733
2016.745	5671
2018.821	5637
2020.9	5841
2022.977	5672
2025.052	5821
2027.128	5698
2029.204	5751
2031.277	5820
2033.353	5718
2035.425	5757
2037.499	5747
2039.57	5742
2041.642	5693
2043.714	5691
2045.786	5633
2047.855	5701
2049.925	5773
2051.993	5766
2054.064	5740
2056.132	5881
2058.2	5707
2060.266	5643
2062.332	5640
2064.398	5776
2066.465	5781
2068.529	5771
2070.592	5688
2072.657	5721
2074.719	5735
2076.783	5721
2078.845	5601
2080.907	5711
2082.968	5849
2085.028	5805
2087.087	5723
2089.148	5815
2091.207	5764
2093.264	5769
2095.322	5737
2097.379	5711
2099.439	5651
2101.495	5781
2103.55	5814
2105.605	5675
2107.658	5765
2109.713	5798
2111.767	5656
2113.82	5686
2115.872	5736
2117.924	5780
2119.975	5680
2122.028	5786
2124.078	5785
2126.126	5765
2128.176	5738
2130.225	5649
2132.275	5804
2134.321	5665
2136.368	5753
2138.415	5604
2140.461	5778
2142.505	5727
2144.552	5765
2146.597	5663
2148.64	5658
2150.684	5660
2152.725	5763
2154.77	5884
2156.811	5735
2158.852	5622
2160.894	5593
2162.933	5753
2164.973	5533
2167.013	5669
2169.051	5641
2171.089	5651
2173.126	5704
2175.164	5640
2177.201	5743
2179.236	5518
2181.273	5678
2183.307	5617
2185.341	5602
2187.377	5493
2189.41	5677
2191.442	5522
2193.473	5611
2195.506	5672
2197.539	5683
2199.569	5576
2201.598	5556
2203.628	5583
2205.656	5642
2207.686	5557
2209.716	5525
2211.743	5547
2213.769	5570
2215.796	5530
2217.821	5632
2219.848	5646
2221.873	5555
2223.897	5396
2225.921	5456
2227.944	5587
2229.967	5604
2231.991	5624
2234.011	5588
2236.032	5611
2238.053	5545
2240.073	5556
2242.094	5463
2244.114	5647
2246.131	5663
2248.149	5560
2250.167	5684
2252.186	5463
2254.201	5497
2256.218	5616
2258.233	5589
2260.247	5463
2262.262	5566
2264.278	5532
2266.29	5519
2268.303	5533
2270.315	5540
2272.327	5579
2274.341	5563
2276.35	5530
2278.361	5545
2280.37	5501
2282.38	5496
2284.388	5541
2286.397	5542
2288.405	5549
2290.412	5476
2292.419	5588
2294.425	5601
2296.431	5444
2298.437	5538
2300.441	5505
2302.445	5421
2304.449	5653
2306.453	5434
2308.455	5618
2310.457	5417
2312.459	5635
2314.46	5598
2316.46	5543
2318.461	5402
2320.46	5483
2322.458	5495
2324.458	5526
2326.456	5530
2328.455	5458
2330.451	5426
2332.447	5425
2334.443	5397
2336.438	5501
2338.433	5555
2340.429	5543
2342.422	5405
2344.416	5492
2346.408	5388
2348.399	5498
2350.393	5434
2352.384	5471
2354.375	5466
2356.365	5460
2358.355	5282
2360.344	5433
2362.333	5310
2364.322	5305
2366.309	5429
2368.295	5404
2370.282	5390
2372.27	5383
2374.256	5488
2376.24	5422
2378.225	5396
2380.208	5473
2382.194	5407
2384.177	5375
2386.159	5375
2388.142	5401
2390.122	5334
2392.105	5405
2394.085	5428
2396.066	5321
2398.044	5358
2400.024	5370
2402.002	5294
2403.982	5396
2405.959	5321
2407.935	5348
2409.913	5352
2411.888	5339
2413.865	5313
2415.84	5346
2417.814	5327
2419.788	5402
2421.762	5257
2423.735	5317
2425.708	5370
2427.68	5274
2429.651	5423
2431.623	5357
2433.593	5357
2435.564	5341
2437.533	5355
2439.502	5320
2441.47	5380
2443.438	5256
2445.406	5309
2447.373	5307
2449.34	5241
2451.305	5267
2453.271	5289
2455.235	5334
2457.201	5400
2459.165	5286
2461.129	5260
2463.092	5311
2465.054	5264
2467.018	5271
2468.978	5279
2470.939	5298
2472.899	5401
2474.86	5276
2476.819	5197
2478.778	5202
2480.737	5274
2482.695	5123
2484.653	5275
2486.609	5306
2488.567	5201
2490.524	5286
2492.478	5307
2494.433	5213
2496.387	5227
2498.343	5215
2500.297	5209
2502.249	5203
2504.202	5194
2506.153	5309
2508.105	5248
2510.057	5127
2512.008	5259
2513.957	5151
2515.906	5221
2517.855	5182
2519.805	5245
2521.754	5225
2523.7	5289
2525.647	5239
2527.594	5141
2529.54	5145
2531.486	5204
2533.431	5262
2535.376	5285
2537.32	5122
2539.263	5231
2541.207	5230
2543.151	5173
2545.093	5205
2547.034	5244
2548.975	5160
2550.917	5226
2552.856	5188
2554.796	5232
2556.735	5224
2558.673	5174
2560.611	5211
2562.55	5185
2564.487	5358
2566.424	5152
2568.36	5264
2570.296	5297
2572.232	5132
2574.167	5185
2576.101	5276
2578.035	5232
2579.969	5192
2581.902	5161
2583.834	5208
2585.766	5165
2587.698	5136
2589.628	5192
2591.557	5237
2593.489	5205
2595.419	5253
2597.348	5300
2599.275	5336
2601.204	5197
2603.131	5209
2605.059	5181
2606.986	5234
2608.911	5215
2610.837	5257
2612.76	5127
2614.687	5245
2616.61	5268
2618.534	5106
2620.457	5135
2622.38	5190
2624.302	5182
2626.225	5197
2628.145	5203
2630.067	5147
2631.986	5225
2633.906	5298
2635.827	5210
2637.745	5167
2639.662	5225
2641.581	5201
2643.498	5199
2645.415	5202
2647.331	5173
2649.248	5157
2651.163	5192
2653.077	5155
2654.993	5144
2656.906	5254
2658.821	5195
2660.733	5194
2662.646	5237
2664.557	5162
2666.47	5260
2668.381	5148
2670.291	5261
2672.201	5182
2674.11	5190
2676.021	5278
2677.929	5123
2679.837	5179
2681.745	5150
2683.652	5122
2685.56	5101
2687.466	5078
2689.371	5128
2691.276	5182
2693.181	5085
2695.085	5230
2696.991	5115
2698.893	5076
2700.796	5065
2702.698	5071
2704.601	5134
2706.502	5117
2708.404	5084
2710.304	5114
2712.203	5131
2714.103	5084
2716.003	5146
2717.902	4984
2719.8	5053
2721.697	5067
2723.594	5116
2725.49	5171
2727.389	5143
2729.283	5084
2731.179	5013
2733.073	5191
2734.968	5109
2736.863	5024
2738.757	5059
2740.649	5020
2742.541	5010
2744.433	5160
2746.324	5070
2748.216	5161
2750.107	5122
2751.997	5017
2753.886	4959
2755.776	5114
2757.666	5120
2759.553	5057
2761.44	5057
2763.327	5056
2765.215	5028
2767.102	4990
2768.988	5064
2770.873	5052
2772.757	5055
2774.641	5031
2776.525	5066
2778.41	4973
2780.292	5022
2782.175	5011
2784.057	4951
2785.938	4987
2787.821	5046
2789.701	4963
2791.581	4986
2793.461	4964
2795.34	5005
2797.219	5004
2799.099	4935
2800.975	4942
2802.853	5006
2804.73	5019
2806.606	4969
2808.484	5040
2810.358	5110
2812.233	5020
2814.108	5035
2815.981	4888
2817.857	4973
2819.73	4888
2821.602	5000
2823.474	4989
2825.346	5085
2827.217	4988
2829.089	5038
2830.959	5099
2832.829	4983
2834.698	4970
2836.567	5039
2838.436	5028
2840.305	5051
2842.172	5013
2844.04	5094
2845.905	5038
2847.772	5020
2849.639	5087
2851.503	5088
2853.369	5087
2855.232	5142
2857.096	5154
2858.961	5130
2860.824	5122
2862.686	5256
2864.547	5090
2866.41	5250
2868.272	5248
2870.132	5317
2871.992	5392
2873.851	5469
2875.711	5443
2877.57	5575
2879.429	5531
2881.287	5644
2883.144	5582
2885.001	5673
2886.857	5650
2888.714	5696
2890.57	5674
2892.425	5718
2894.279	5633
2896.133	5714
2897.987	5695
2899.842	5669
2901.694	5565
2903.547	5700
2905.397	5662
2907.249	5639
2909.101	5639
2910.952	5676
2912.802	5574
2914.652	5759
2916.5	5911
2918.35	5816
2920.198	5858
2922.045	5889
2923.893	5951
2925.74	6032
2927.585	6147
2929.433	6221
2931.279	6229
2933.123	6354
2934.968	6330
2936.811	6328
2938.656	6441
2940.5	6444
2942.342	6526
2944.185	6652
2946.026	6530
2947.87	6657
2949.71	6565
2951.549	6589
2953.39	6553
2955.229	6398
2957.069	6404
2958.908	6264
2960.746	6315
2962.584	6212
2964.421	6117
2966.257	6191
2968.094	6043
2969.931	5979
2971.766	6015
2973.601	5759
2975.435	5924
2977.27	5937
2979.105	5857
2980.938	5807
2982.77	5730
2984.602	5667
2986.434	5606
2988.267	5652
2990.097	5677
2991.927	5616
2993.757	5388
2995.587	5478
2997.417	5525
2999.246	5366
3001.074	5325
3002.902	5322
3004.729	5142
3006.556	5135
3008.384	5052
3010.21	5119
3012.036	5060
3013.861	4929
3015.684	5034
3017.51	4964
3019.334	4905
3021.157	4911
3022.981	4906
3024.802	4867
3026.624	4845
3028.448	4754
3030.267	4824
3032.088	4835
3033.909	4805
3035.728	4804
3037.549	4785
3039.368	4787
3041.186	4700
3043.004	4731
3044.821	4609
3046.64	4718
3048.455	4681
3050.272	4669
3052.087	4705
3053.903	4758
3055.717	4625
3057.534	4745
3059.347	4725
3061.16	4662
3062.974	4678
3064.785	4583
3066.598	4713
3068.411	4684
3070.222	4640
3072.032	4730
3073.844	4702
3075.653	4704
3077.463	4634
3079.272	4617
3081.08	4756
3082.889	4602
3084.697	4596
3086.505	4644
3088.312	4654
3090.118	4619
3091.924	4438
3093.729	4628
3095.535	4579
3097.34	4507
3099.144	4570
3100.947	4525
3102.75	4478
3104.553	4485
3106.357	4522
3108.159	4506
3109.961	4532
3111.762	4498
3113.562	4526
3115.365	4398
3117.164	4548
3118.964	4347
3120.761	4524
3122.56	4499
3124.36	4450
3126.158	4504
3127.954	4528
3129.75	4508
3131.547	4506
3133.343	4416
3135.139	4486
3136.934	4440
3138.729	4574
3140.522	4419
3142.317	4381
3144.11	4469
3145.904	4486
3147.695	4423
3149.488	4515
3151.28	4489
3153.07	4273
3154.863	4487
3156.652	4420
3158.441	4462
3160.231	4482
3162.019	4422
3163.81	4460
3165.597	4480
3167.384	4408
3169.172	4348
3170.958	4403
3172.745	4327
3174.532	4421
3176.317	4362
3178.101	4418
3179.885	4311
3181.67	4405
3183.455	4320
3185.238	4337
3187.02	4320
3188.802	4421
3190.585	4463
3192.368	4309
3194.149	4368
3195.929	4417
3197.709	4353
3199.489	4317
3201.268	4313
3203.048	4393
3204.826	4381
3206.604	4457
3208.382	4299
3210.159	4233
3211.937	4358
3213.713	4410
3215.489	4330
3217.263	4310
3219.038	4409
3220.815	4351
3222.589	4313
3224.363	4350
3226.136	4301
3227.908	4379
3229.681	4396
3231.454	4385
3233.226	4357
3234.996	4316
3236.767	4353
3238.538	4345
3240.308	4365
3242.078	4348
3243.847	4370
3245.615	4281
3247.384	4400
3249.15	4360
3250.92	4336
3252.686	4422
3254.453	4273
3256.218	4349
3257.984	4327
3259.75	4340
3261.515	4435
3263.279	4337
3265.044	4358
3266.806	4335
3268.57	4359
3270.334	4349
3272.095	4393
3273.856	4336
3275.619	4350
3277.379	4351
3279.14	4382
3280.9	4368
3282.661	4330
3284.419	4363
3286.178	4374
3287.937	4336
3289.695	4329
3291.453	4352
3293.21	4357
3294.967	4325
3296.723	4402
3298.48	4453
3300.235	4336
3301.99	4267
3303.744	4365
3305.498	4365
3307.253	4363
3309.006	4398
3310.759	4382
3312.511	4303
3314.263	4453
3316.017	4384
3317.768	4346
3319.519	4226
3321.268	4408
3323.018	4330
3324.767	4373
3326.518	4390
3328.267	4260
3330.014	4390
3331.762	4361
3333.509	4370
3335.258	4366
3337.003	4362
3338.75	4393
3340.496	4371
3342.24	4262
3343.987	4427
3345.732	4354
3347.475	4329
3349.219	4298
3350.961	4309
3352.705	4308
3354.448	4351
3356.19	4316
3357.931	4224
3359.672	4251
3361.412	4296
3363.155	4215
3364.894	4315
3366.633	4328
3368.372	4281
3370.11	4352
3371.849	4275
3373.588	4311
3375.325	4196
3377.061	4195
3378.799	4153
3380.534	4232
3382.271	4217
3384.006	4281
3385.741	4264
3387.475	4206
3389.209	4230
3390.944	4249
3392.677	4109
3394.409	4204
3396.143	4171
3397.874	4225
3399.606	4200
3401.338	4168
3403.069	4137
3404.799	4202
3406.528	4121
3408.258	4110
3409.988	4139
3411.717	4090
3413.445	4179
3415.173	4144
3416.899	4175
3418.626	4132
3420.354	4081
3422.08	4138
3423.806	4187
3425.531	4146
3427.255	4088
3428.981	4150
3430.705	4095
3432.429	4090
3434.151	4099
3435.875	4150
3437.599	4156
3439.321	4071
3441.042	4093
3442.763	4065
3444.483	4065
3446.204	4105
3447.926	4158
3449.645	4041
3451.364	4001
3453.082	3960
3454.801	4026
3456.52	4047
3458.238	3963
3459.954	3999
3461.671	4008
3463.387	3974
3465.104	4028
3466.82	4013
3468.534	4008
3470.25	3952
3471.963	3959
3473.676	3873
3475.392	3982
3477.104	3973
3478.817	4036
3480.528	3910
3482.241	3912
3483.954	3950
3485.664	3904
3487.374	3942
3489.084	3955
3490.795	3965
3492.504	3781
3494.214	3924
3495.922	3912
3497.63	3790
3499.338	3873
3501.045	3907
3502.753	3890
3504.459	3883
3506.166	3863
3507.871	3842
3509.576	3886
3511.283	3789
3512.987	3870
3514.691	3790
3516.395	3756
3518.098	3890
3519.8	3854
3521.504	3753
3523.206	3909
3524.908	3751
3526.609	3763
3528.309	3760
3530.011	3735
3531.711	3844
3533.411	3818
3535.109	3774
3536.808	3707
3538.507	3728
3540.206	3716
3541.904	3722
3543.601	3704
3545.297	3716
3546.994	3690
3548.69	3707
3550.387	3692
3552.081	3779
3553.776	3675
3555.47	3780
3557.166	3630
3558.859	3693
3560.553	3691
3562.245	3690
3563.938	3726
3565.629	3670
3567.322	3661
3569.014	3716
3570.704	3733
3572.394	3697
3574.084	3665
3575.775	3739
3577.464	3628
3579.152	3661
3580.842	3639
3582.529	3627
3584.216	3616
3585.905	3709
3587.591	3599
3589.279	3515
3590.964	3648
3592.649	3581
3594.336	3614
3596.021	3561
3597.705	3585
3599.388	3499
3601.072	3482
3602.757	3553
3604.439	3579
3606.122	3626
3607.803	3456
3609.485	3537
3611.167	3486
3612.849	3462
3614.529	3468
3616.208	3553
3617.888	3576
3619.567	3548
3621.247	3452
3622.926	3411
3624.603	3569
3626.281	3412
3627.958	3484
3629.635	3500
3631.312	3468
3632.989	3458
3634.665	3448
3636.339	3466
3638.014	3505
3639.691	3452
3641.364	3489
3643.038	3449
3644.71	3395
3646.384	3453
3648.058	3381
3649.729	3388
3651.402	3372
3653.073	3445
3654.744	3377
3656.414	3449
3658.085	3379
3659.755	3378
3661.424	3416
3663.094	3299
3664.762	3346
3666.431	3462
3668.099	3377
3669.766	3424
3671.433	3391
3673.099	3273
3674.768	3433
3676.433	3368
3678.098	3361
3679.763	3392
3681.428	3382
3683.093	3333
3684.757	3357
3686.421	3340
3688.083	3276
3689.746	3335
3691.408	3320
3693.071	3281
3694.733	3390
3696.394	3367
3698.054	3378
3699.715	3298
3701.375	3279
3703.036	3269
3704.695	3416
3706.354	3314
3708.012	3304
3709.67	3279
3711.329	3312
3712.987	3218
3714.644	3234
3716.299	3299
3717.955	3302
3719.613	3307
3721.268	3271
3722.923	3219
3724.577	3288
3726.231	3243
3727.885	3196
3729.539	3282
3731.192	3238
3732.845	3231
3734.497	3304
3736.149	3171
3737.802	3293
3739.453	3290
3741.104	3244
3742.753	3209
3744.404	3230
3746.052	3260
3747.704	3217
3749.352	3193
3751	3193
3752.648	3179
3754.296	3213
3755.944	3241
3757.59	3221
3759.238	3170
3760.883	3108
3762.528	3270
3764.176	3203
3765.82	3219
3767.464	3205
3769.109	3206
3770.753	3229
3772.396	3154
3774.04	3167
3775.683	3224
3777.325	3158
3778.967	3246
3780.608	3225
3782.25	3204
3783.89	3131
3785.531	3112
3787.17	3164
3788.81	3103
3790.45	3210
3792.09	3053
3793.729	3127
3795.366	3142
3797.003	3130
3798.64	3133
3800.278	3116
3801.915	3154
3803.551	3216
3805.187	3078
3806.822	3119
3808.458	3118
3810.093	3039
3811.726	3072
3813.36	3001
3814.994	3048
3816.627	3081
3818.262	3116
3819.893	3039
3821.525	3168
3823.157	3134
3824.787	3174
3826.42	2991
3828.051	3066
3829.68	3101
3831.31	3064
3832.938	3063
3834.569	3040
3836.198	3097
3837.825	3079
3839.454	3010
3841.08	3078
3842.708	3091
3844.335	3031
3845.962	2976
3847.587	3061
3849.212	3039
3850.838	3047
3852.463	3011
3854.089	3016
3855.712	3041
3857.335	3054
3858.959	2948
3860.582	3000
3862.205	3057
3863.827	3025
3865.449	2884
3867.07	2966
3868.691	2987
3870.312	3052
3871.933	3010
3873.553	2989
3875.173	3008
3876.792	2970
3878.411	3081
3880.03	2901
3881.647	2988
3883.265	3019
3884.882	2999
3886.499	2932
3888.116	2987
3889.732	2999
3891.348	2991
3892.964	2952
3894.579	2983
3896.195	2960
3897.809	2958
3899.423	2956
3901.036	2981
3902.648	2916
3904.261	2958
3905.875	2966
3907.487	2852
3909.099	2886
3910.709	3006
3912.321	2927
3913.933	2988
3915.542	2919
3917.152	2904
3918.762	2916
3920.37	2956
3921.98	2926
3923.589	2947
3925.196	2974
3926.804	2922
3928.41	2979
3930.018	2997
3931.626	2902
3933.231	2926
3934.838	2941
3936.442	2914
3938.046	2872
3939.653	2888
3941.257	2869
3942.861	2895
3944.464	2917
3946.068	2975
3947.67	2899
3949.273	2955
3950.876	2853
3952.477	2858
3954.078	2790
3955.678	2986
3957.281	2860
3958.881	2918
3960.48	2863
3962.079	2916
3963.678	2835
3965.279	2852
3966.877	2833
3968.475	2827
3970.072	2926
3971.669	2923
3973.266	2834
3974.864	2829
3976.459	2826
3978.055	2875
3979.65	2841
3981.245	2893
3982.841	2800
3984.436	2815
3986.03	2727
3987.623	2807
3989.216	2760
3990.809	2786
3992.403	2810
3993.995	2779
3995.586	2795
3997.177	2761
3998.768	2734
4000.361	2793
4001.951	2806
4003.54	2796
4005.13	2729
4006.719	2832
4008.31	2745
4009.897	2774
4011.485	2766
4013.073	2738
4014.66	2682
4016.247	2730
4017.834	2699
4019.421	2680
4021.006	2739
4022.592	2772
4024.178	2742
4025.763	2731
4027.348	2704
4028.932	2732
4030.515	2721
4032.099	2775
4033.682	2713
4035.266	2732
4036.847	2701
4038.429	2670
4040.011	2659
4041.592	2721
4043.173	2642
4044.755	2684
4046.334	2724
4047.913	2661
4049.494	2764
4051.074	2711
4052.652	2725
4054.23	2625
4055.807	2686
4057.385	2716
4058.963	2568
4060.541	2685
4062.117	2588
4063.693	2600
4065.269	2727
4066.844	2634
4068.42	2727
4069.995	2709
4071.569	2698
4073.143	2664
4074.716	2612
4076.291	2602
4077.864	2619
4079.436	2700
4081.009	2600
4082.58	2649
4084.152	2705
4085.723	2608
4087.294	2642
4088.865	2618
4090.435	2676
4092.005	2572
4093.574	2563
4095.143	2596
4096.712	2569
4098.279	2589
4099.848	2600
4101.416	2639
4102.984	2640
4104.55	2595
4106.117	2593
4107.682	2581
4109.248	2623
4110.815	2622
4112.379	2576
4113.945	2612
4115.508	2575
4117.073	2572
4118.637	2567
4120.201	2597
4121.763	2543
4123.325	2570
4124.888	2549
4126.449	2582
4128.013	2602
4129.573	2595
4131.133	2590
4132.694	2613
4134.254	2550
4135.814	2543
4137.374	2539
4138.933	2527
4140.491	2537
4142.049	2527
4143.607	2509
4145.167	2492
4146.724	2472
4148.28	2489
4149.836	2550
4151.392	2464
4152.949	2499
4154.504	2503
4156.059	2491
4157.614	2511
4159.168	2467
4160.723	2462
4162.277	2498
4163.83	2495
4165.383	2487
4166.936	2535
4168.488	2498
4170.041	2498
4171.593	2417
4173.144	2480
4174.695	2427
4176.246	2416
4177.796	2462
4179.346	2471
4180.896	2431
4182.445	2482
4183.994	2455
4185.542	2423
4187.091	2467
4188.639	2407
4190.185	2436
4191.732	2393
4193.279	2400
4194.826	2465
4196.373	2501
4197.918	2471
4199.463	2397
4201.008	2422
4202.553	2386
4204.098	2405
4205.641	2359
4207.185	2378
4208.728	2374
4210.271	2465
4211.814	2382
4213.357	2432
4214.898	2356
4216.439	2414
4217.98	2420
4219.522	2368
4221.062	2376
4222.603	2357
4224.142	2369
4225.681	2353
4227.222	2399
4228.76	2383
4230.298	2399
4231.835	2408
4233.373	2321
4234.911	2423
4236.449	2374
4237.985	2325
4239.521	2347
4241.057	2359
4242.592	2378
4244.128	2330
4245.663	2368
4247.197	2372
4248.731	2355
4250.265	2332
4251.798	2404
4253.333	2333
4254.865	2346
4256.397	2290
4257.93	2379
4259.461	2395
4260.994	2345
4262.525	2294
4264.056	2374
4265.586	2372
4267.115	2370
4268.646	2366
4270.176	2318
4271.705	2388
4273.232	2332
4274.761	2335
4276.289	2294
4277.818	2397
4279.345	2330
4280.872	2257
4282.399	2302
4283.924	2338
4285.452	2305
4286.976	2274
4288.502	2324
4290.026	2300
4291.551	2338
4293.074	2194
4294.6	2300
4296.123	2221
4297.646	2320
4299.168	2258
4300.691	2348
4302.214	2301
4303.736	2276
4305.257	2271
4306.778	2218
4308.299	2270
4309.82	2249
4311.34	2291
4312.86	2222
4314.379	2286
