400.0745	4219
402.597	4232
405.1208	4217
407.6419	4217
410.1623	4351
412.6819	4208
415.201	4260
417.7172	4286
420.2369	4317
422.7538	4308
425.2701	4477
427.7856	4508
430.3005	4370
432.8147	4370
435.3282	4440
437.841	4569
440.3511	4428
442.8625	4522
445.3753	4487
447.8854	4336
450.3927	4547
452.9014	4481
455.4073	4488
457.9146	4622
460.4233	4518
462.9272	4518
465.4325	4516
467.935	4453
470.4389	4475
472.9421	4589
475.4446	4559
477.9444	4500
480.4456	4539
482.944	4550
485.4417	4569
487.9429	4634
490.4393	4616
492.935	4570
495.4321	4579
497.9264	4631
500.4221	4636
502.9171	4692
505.4094	4596
507.9011	4646
510.392	4602
512.8864	4701
515.3759	4692
517.8649	4608
520.3531	4701
522.8406	4707
525.3275	4613
527.8178	4751
530.3033	4643
532.7881	4717
535.2723	4688
537.7558	4817
540.2407	4709
542.7228	4702
545.2043	4680
547.6851	4696
550.1652	4695
552.6467	4721
555.1255	4630
557.6016	4750
560.079	4803
562.5557	4824
565.0318	4709
567.5092	4807
569.984	4771
572.456	4849
574.9294	4844
577.4022	4844
579.8762	4841
582.3456	4928
584.8163	4953
587.2863	4826
589.7557	4872
592.2224	4979
594.6924	4928
597.1578	4889
599.6245	4808
602.0905	4874
604.5538	4927
607.0206	4906
609.4825	4896
611.9459	4894
614.4066	4783
616.8686	4866
619.33	4880
621.7906	4869
624.2487	4879
626.708	4765
629.1647	4758
631.6207	4865
634.0801	4814
636.5348	4852
638.9888	4845
641.4442	4820
643.8969	4909
646.3509	4906
648.8022	4822
651.255	4945
653.705	4857
656.1544	4930
658.6031	4941
661.0532	4930
663.5026	4892
665.9493	5020
668.3954	4944
670.8409	4981
673.2877	4954
675.7318	5034
678.1752	4944
680.618	5012
683.0601	5087
685.5035	5044
687.9444	5073
690.3845	5005
692.824	5022
695.2628	5010
697.701	5063
700.1406	5001
702.5774	4951
705.0116	5027
707.4472	5077
709.8821	5026
712.3183	5081
714.7519	5110
717.1829	5057
719.6151	5121
722.0468	5168
724.4777	5153
726.908	5280
729.3377	5179
731.7667	5186
734.1931	5184
736.6208	5183
739.0498	5346
741.4742	5179
743.9	5251
746.3231	5300
748.7476	5278
751.1713	5317
753.5945	5295
756.015	5373
758.4368	5239
760.856	5285
763.2766	5346
765.6965	5396
768.1157	5360
770.5323	5445
772.9483	5372
775.3656	5406
777.7822	5394
780.1963	5463
782.6116	5474
785.0244	5384
787.4365	5424
789.8499	5436
792.2626	5414
794.6728	5468
797.0823	5503
799.4911	5333
801.8994	5427
804.3109	5365
806.7178	5527
809.124	5421
811.5297	5389
813.9347	5506
816.341	5437
818.7447	5468
821.1478	5488
823.5502	5483
825.952	5463
828.3531	5505
830.7556	5508
833.1554	5448
835.5546	5565
837.9532	5533
840.3511	5562
842.7504	5428
845.1451	5623
847.5411	5589
849.9365	5556
852.3312	5602
854.7272	5576
857.1187	5436
859.5115	5639
861.9037	5537
864.2952	5576
866.6842	5536
869.0764	5579
871.4661	5508
873.8531	5563
876.2415	5563
878.6272	5575
881.0162	5475
883.4026	5404
885.7866	5494
888.1717	5531
890.5543	5519
892.9382	5587
895.3215	5563
897.7041	5443
900.0842	5639
902.4655	5593
904.8443	5540
907.2244	5652
909.6039	5584
911.9808	5640
914.357	5621
916.7346	5604
919.1115	5657
921.4859	5648
923.8616	5743
926.2347	5729
928.6071	5837
930.979	5787
933.3541	5867
935.7247	5763
938.0946	5913
940.4639	5897
942.8326	5948
945.2026	5997
947.5701	6089
949.9369	6207
952.305	6253
954.6705	6704
957.0355	6704
959.4017	6963
961.7654	7145
964.1284	7069
966.4908	6912
968.8527	6805
971.2138	6431
973.5743	6245
975.9343	5968
978.2936	6021
980.6522	5907
983.0122	5854
985.3696	5828
987.7245	5881
990.0807	5758
992.4362	5678
994.7911	5710
997.1474	5766
999.4991	5790
1001.852	5778
1004.205	5636
1006.555	5753
1008.908	5812
1011.258	5754
1013.606	5836
1015.956	5796
1018.302	5852
1020.652	5784
1022.998	5910
1025.345	5765
1027.691	5852
1030.035	5809
1032.378	5976
1034.724	5852
1037.066	5942
1039.409	5922
1041.75	5824
1044.092	5873
1046.433	5926
1048.771	5888
1051.112	5869
1053.449	5737
1055.786	5861
1058.124	6012
1060.462	5870
1062.797	6010
1065.131	5906
1067.467	6070
1069.8	6021
1072.135	6031
1074.467	5905
1076.798	5979
1079.129	6032
1081.459	6042
1083.792	5976
1086.121	5990
1088.449	5831
1090.777	5803
1093.104	5919
1095.431	5853
1097.759	5945
1100.084	5883
1102.408	5925
1104.732	5966
1107.056	5871
1109.379	5917
1111.701	5877
1114.022	5873
1116.343	5813
1118.664	5895
1120.983	5878
1123.303	5825
1125.621	5899
1127.939	5938
1130.256	5901
1132.573	5833
1134.889	5956
1137.205	5846
1139.52	5923
1141.832	5866
1144.146	5870
1146.461	5995
1148.771	6047
1151.083	5959
1153.392	5946
1155.703	5798
1158.011	5914
1160.323	5900
1162.629	5919
1164.938	5963
1167.243	5961
1169.55	5890
1171.857	5893
1174.163	5899
1176.466	5884
1178.769	5891
1181.073	5953
1183.374	5855
1185.677	5911
1187.979	5879
1190.279	5856
1192.578	5944
1194.878	5890
1197.178	5869
1199.476	5862
1201.772	5886
1204.068	6063
1206.366	5921
1208.663	5985
1210.957	5944
1213.251	5976
1215.544	5954
1217.836	5917
1220.128	5926
1222.421	5963
1224.712	6056
1227.002	6030
1229.292	6008
1231.581	6002
1233.871	6022
1236.159	5979
1238.446	5995
1240.732	6128
1243.018	6215
1245.304	6092
1247.59	6185
1249.874	6173
1252.156	6178
1254.439	6048
1256.721	6056
1259.005	6161
1261.286	6110
1263.565	6066
1265.845	6119
1268.125	6071
1270.403	6116
1272.682	6142
1274.959	6190
1277.234	6232
1279.511	6158
1281.787	6107
1284.062	6137
1286.337	6081
1288.609	6243
1290.882	6018
1293.153	5938
1295.428	6138
1297.698	6086
1299.969	6134
1302.237	6086
1304.507	6060
1306.777	6127
1309.044	6028
1311.312	5981
1313.578	6051
1315.844	5942
1318.109	6042
1320.375	6124
1322.638	6127
1324.903	5994
1327.165	5860
1329.427	6052
1331.69	6036
1333.952	5964
1336.212	6000
1338.471	5931
1340.73	6199
1342.988	6054
1345.248	6095
1347.505	5989
1349.763	6052
1352.019	6035
1354.274	5992
1356.53	5954
1358.784	5943
1361.038	6030
1363.291	6049
1365.543	6048
1367.797	6090
1370.048	6040
1372.296	6030
1374.546	5973
1376.796	6124
1379.045	5939
1381.295	6133
1383.542	6163
1385.787	6068
1388.034	6211
1390.28	6082
1392.527	6100
1394.772	6122
1397.014	6224
1399.258	6217
1401.501	6112
1403.741	6155
1405.985	6142
1408.226	6221
1410.465	6070
1412.705	6173
1414.943	6241
1417.184	6188
1419.42	6115
1421.658	6137
1423.894	6153
1426.13	6313
1428.366	6260
1430.602	6182
1432.835	6200
1435.069	6242
1437.301	6232
1439.535	6326
1441.767	6216
1443.997	6276
1446.229	6292
1448.458	6364
1450.687	6250
1452.916	6314
1455.146	6376
1457.372	6348
1459.599	6223
1461.824	6351
1464.051	6254
1466.277	6203
1468.501	6300
1470.725	6189
1472.948	6218
1475.17	6196
1477.393	6209
1479.614	6221
1481.837	6129
1484.057	6204
1486.276	6079
1488.497	6105
1490.715	6052
1492.932	6112
1495.148	6008
1497.364	6189
1499.58	6075
1501.798	6083
1504.012	6054
1506.227	6066
1508.44	6048
1510.653	5994
1512.866	6073
1515.078	6009
1517.289	6125
1519.5	6008
1521.711	6100
1523.92	6072
1526.13	6085
1528.338	5944
1530.544	5999
1532.752	6083
1534.959	6035
1537.165	6048
1539.371	6082
1541.574	5986
1543.779	6112
1545.983	6035
1548.187	6084
1550.39	6222
1552.59	6169
1554.792	6106
1556.991	6140
1559.19	6113
1561.392	6130
1563.59	6169
1565.789	6195
1567.986	6228
1570.182	6162
1572.381	6092
1574.576	6183
1576.771	6151
1578.966	6261
1581.16	6219
1583.354	6215
1585.546	6161
1587.74	6270
1589.931	6306
1592.121	6219
1594.311	6336
1596.502	6141
1598.693	6277
1600.881	6274
1603.069	6283
1605.256	6232
1607.445	6170
1609.631	6203
1611.816	6220
1614.001	6327
1616.186	6194
1618.37	6262
1620.555	6232
1622.737	6228
1624.919	6324
1627.101	6288
1629.282	6295
1631.463	6324
1633.643	6333
1635.822	6389
1638.001	6319
1640.179	6256
1642.359	6281
1644.534	6364
1646.711	6327
1648.887	6413
1651.062	6379
1653.235	6310
1655.412	6367
1657.586	6321
1659.757	6351
1661.93	6279
1664.1	6472
1666.274	6360
1668.445	6372
1670.614	6402
1672.784	6393
1674.951	6507
1677.12	6351
1679.289	6399
1681.457	6427
1683.622	6331
1685.789	6312
1687.953	6213
1690.121	6344
1692.284	6252
1694.447	6421
1696.611	6381
1698.772	6365
1700.935	6309
1703.098	6361
1705.258	6260
1707.417	6292
1709.576	6263
1711.736	6223
1713.896	6286
1716.053	6178
1718.21	6290
1720.366	6231
1722.522	6249
1724.68	6216
1726.835	6141
1728.989	6136
1731.142	6221
1733.295	6208
1735.449	6162
1737.601	6192
1739.753	6293
1741.903	6172
1744.054	6264
1746.203	6224
1748.354	6198
1750.503	6211
1752.651	6239
1754.798	6232
1756.944	6252
1759.092	6310
1761.238	6238
1763.383	6172
1765.528	6224
1767.672	6146
1769.814	6287
1771.959	6245
1774.102	6336
1776.242	6226
1778.384	6257
1780.525	6284
1782.665	6352
1784.805	6296
1786.945	6322
1789.082	6377
1791.22	6304
1793.36	6268
1795.495	6338
1797.632	6369
1799.766	6315
1801.902	6242
1804.035	6413
1806.172	6136
1808.304	6352
1810.436	6417
1812.569	6289
1814.699	6354
1816.833	6330
1818.963	6221
1821.092	6248
1823.222	6278
1825.35	6314
1827.478	6298
1829.608	6219
1831.734	6240
1833.86	6152
1835.986	6311
1838.11	6153
1840.238	6176
1842.362	6242
1844.485	6152
1846.608	6223
1848.73	6299
1850.853	6298
1852.974	6241
1855.097	6244
1857.217	6183
1859.336	6285
1861.455	6298
1863.576	6193
1865.693	6188
1867.811	6184
1869.926	6297
1872.042	6181
1874.16	6219
1876.275	6319
1878.39	6227
1880.504	6265
1882.618	6147
1884.731	6192
1886.843	6294
1888.956	6285
1891.067	6320
1893.178	6239
1895.287	6196
1897.399	6290
1899.508	6283
1901.617	6186
1903.724	6299
1905.832	6320
1907.941	6291
1910.046	6204
1912.152	6200
1914.256	6316
1916.361	6262
1918.464	6269
1920.57	6396
1922.672	6355
1924.775	6297
1926.876	6286
1928.978	6298
1931.08	6355
1933.181	6328
1935.28	6479
1937.38	6359
1939.478	6319
1941.577	6369
1943.675	6340
1945.771	6305
1947.867	6330
1949.964	6291
1952.058	6318
1954.154	6429
1956.248	6392
1958.343	6373
1960.435	6338
1962.527	6257
1964.62	6337
1966.711	6266
1968.802	6307
1970.892	6359
1972.983	6307
1975.072	6252
1977.162	6256
1979.25	6237
1981.337	6236
1983.424	6268
1985.51	6158
1987.598	6295
1989.683	6263
1991.768	6237
1993.852	6319
1995.934	6124
1998.019	6308
2000.102	6196
2002.184	6287
2004.266	6251
2006.347	6114
2008.427	6226
2010.508	6136
2012.587	6257
2014.666	6215
2016.745	6150
2018.821	6283
2020.9	6144
2022.977	6242
2025.052	6287
2027.128	6205
2029.204	6211
2031.277	6248
2033.353	6356
2035.425	6308
2037.499	6258
2039.57	6277
2041.642	6253
2043.714	6249
2045.786	6259
2047.855	6279
2049.925	6262
2051.993	6284
2054.064	6205
2056.132	6262
2058.2	6333
2060.266	6280
2062.332	6247
2064.398	6309
2066.465	6189
2068.529	6282
2070.592	6148
2072.657	6246
2074.719	6071
2076.783	6224
2078.845	6216
2080.907	6158
2082.968	6220
2085.028	6324
2087.087	6208
2089.148	6327
2091.207	6294
2093.264	6173
2095.322	6233
2097.379	6172
2099.439	6275
2101.495	6249
2103.55	6219
2105.605	6253
2107.658	6283
2109.713	6239
2111.767	6271
2113.82	6098
2115.872	6263
2117.924	6239
2119.975	6332
2122.028	6129
2124.078	6250
2126.126	6118
2128.176	6222
2130.225	6186
2132.275	6172
2134.321	6186
2136.368	6177
2138.415	6256
2140.461	6285
2142.505	6262
2144.552	6227
2146.597	6153
2148.64	6310
2150.684	6174
2152.725	6154
2154.77	6151
2156.811	6201
2158.852	6134
2160.894	6064
2162.933	6117
2164.973	6233
2167.013	6095
2169.051	6135
2171.089	6185
2173.126	6059
2175.164	6144
2177.201	6140
2179.236	6080
2181.273	6200
2183.307	6091
2185.341	6143
2187.377	6102
2189.41	6036
2191.442	6190
2193.473	5986
2195.506	6151
2197.539	6107
2199.569	6069
2201.598	6092
2203.628	6069
2205.656	6101
2207.686	5969
2209.716	6024
2211.743	6071
2213.769	5978
2215.796	5986
2217.821	6036
2219.848	6075
2221.873	5980
2223.897	5972
2225.921	6031
2227.944	6061
2229.967	6097
2231.991	6167
2234.011	6093
2236.032	5965
2238.053	6047
2240.073	6004
2242.094	6027
2244.114	5986
2246.131	5990
2248.149	5995
2250.167	6083
2252.186	5929
2254.201	5985
2256.218	6085
2258.233	6030
2260.247	5942
2262.262	6055
2264.278	6024
2266.29	6123
2268.303	5998
2270.315	6085
2272.327	6034
2274.341	6138
2276.35	6103
2278.361	6066
2280.37	5976
2282.38	6016
2284.388	5988
2286.397	6000
2288.405	6034
2290.412	6073
2292.419	6126
2294.425	5929
2296.431	5913
2298.437	5993
2300.441	6047
2302.445	5979
2304.449	6036
2306.453	5944
2308.455	5940
2310.457	5960
2312.459	5998
2314.46	5951
2316.46	5928
2318.461	6187
2320.46	6016
2322.458	5943
2324.458	5999
2326.456	6005
2328.455	5861
2330.451	5891
2332.447	6072
2334.443	6042
2336.438	5948
2338.433	5852
2340.429	5998
2342.422	5958
2344.416	5948
2346.408	5961
2348.399	5968
2350.393	5925
2352.384	5812
2354.375	5939
2356.365	5911
2358.355	5836
2360.344	5865
2362.333	5928
2364.322	5777
2366.309	5937
2368.295	5853
2370.282	5886
2372.27	5935
2374.256	5875
2376.24	5823
2378.225	5743
2380.208	5877
2382.194	5850
2384.177	5718
2386.159	5830
2388.142	5770
2390.122	5694
2392.105	5871
2394.085	5759
2396.066	5832
2398.044	5901
2400.024	5875
2402.002	5765
2403.982	5684
2405.959	5814
2407.935	5802
2409.913	5801
2411.888	5822
2413.865	5778
2415.84	5881
2417.814	5814
2419.788	5767
2421.762	5703
2423.735	5724
2425.708	5750
2427.68	5793
2429.651	5771
2431.623	5842
2433.593	5774
2435.564	5824
2437.533	5783
2439.502	5879
2441.47	5789
2443.438	5703
2445.406	5788
2447.373	5751
2449.34	5762
2451.305	5739
2453.271	5728
2455.235	5683
2457.201	5660
2459.165	5708
2461.129	5749
2463.092	5755
2465.054	5740
2467.018	5699
2468.978	5836
2470.939	5734
2472.899	5561
2474.86	5786
2476.819	5641
2478.778	5620
2480.737	5685
2482.695	5714
2484.653	5844
2486.609	5688
2488.567	5658
2490.524	5698
2492.478	5573
2494.433	5672
2496.387	5682
2498.343	5668
2500.297	5601
2502.249	5811
2504.202	5694
2506.153	5597
2508.105	5714
2510.057	5649
2512.008	5702
2513.957	5585
2515.906	5585
2517.855	5599
2519.805	5722
2521.754	5650
2523.7	5645
2525.647	5676
2527.594	5646
2529.54	5725
2531.486	5601
2533.431	5617
2535.376	5592
2537.32	5722
2539.263	5707
2541.207	5619
2543.151	5590
2545.093	5631
2547.034	5599
2548.975	5602
2550.917	5698
2552.856	5638
2554.796	5590
2556.735	5592
2558.673	5725
2560.611	5631
2562.55	5593
2564.487	5635
2566.424	5677
2568.36	5612
2570.296	5683
2572.232	5607
2574.167	5716
2576.101	5611
2578.035	5573
2579.969	5589
2581.902	5601
2583.834	5641
2585.766	5623
2587.698	5655
2589.628	5643
2591.557	5694
2593.489	5575
2595.419	5628
2597.348	5579
2599.275	5656
2601.204	5720
2603.131	5616
2605.059	5635
2606.986	5706
2608.911	5667
2610.837	5616
2612.76	5613
2614.687	5644
2616.61	5664
2618.534	5640
2620.457	5702
2622.38	5626
2624.302	5730
2626.225	5580
2628.145	5627
2630.067	5555
2631.986	5546
2633.906	5645
2635.827	5656
2637.745	5685
2639.662	5558
2641.581	5600
2643.498	5669
2645.415	5705
2647.331	5638
2649.248	5626
2651.163	5539
2653.077	5603
2654.993	5657
2656.906	5706
2658.821	5621
2660.733	5668
2662.646	5597
2664.557	5573
2666.47	5594
2668.381	5610
2670.291	5633
2672.201	5537
2674.11	5580
2676.021	5587
2677.929	5554
2679.837	5593
2681.745	5616
2683.652	5680
2685.56	5608
2687.466	5620
2689.371	5574
2691.276	5582
2693.181	5614
2695.085	5500
2696.991	5537
2698.893	5549
2700.796	5538
2702.698	5546
2704.601	5538
2706.502	5535
2708.404	5494
2710.304	5420
2712.203	5439
2714.103	5390
2716.003	5526
2717.902	5513
2719.8	5421
2721.697	5468
2723.594	5514
2725.49	5476
2727.389	5526
2729.283	5483
2731.179	5479
2733.073	5549
2734.968	5414
2736.863	5462
2738.757	5578
2740.649	5440
2742.541	5552
2744.433	5434
2746.324	5412
2748.216	5391
2750.107	5429
2751.997	5474
2753.886	5433
2755.776	5419
2757.666	5403
2759.553	5435
2761.44	5419
2763.327	5438
2765.215	5491
2767.102	5468
2768.988	5545
2770.873	5345
2772.757	5429
2774.641	5377
2776.525	5492
2778.41	5540
2780.292	5372
2782.175	5444
2784.057	5513
2785.938	5411
2787.821	5381
2789.701	5381
2791.581	5446
2793.461	5308
2795.34	5330
2797.219	5293
2799.099	5256
2800.975	5401
2802.853	5421
2804.73	5366
2806.606	5356
2808.484	5311
2810.358	5382
2812.233	5397
2814.108	5447
2815.981	5307
2817.857	5385
2819.73	5412
2821.602	5390
2823.474	5308
2825.346	5481
2827.217	5356
2829.089	5409
2830.959	5316
2832.829	5453
2834.698	5329
2836.567	5346
2838.436	5400
2840.305	5388
2842.172	5334
2844.04	5554
2845.905	5331
2847.772	5377
2849.639	5430
2851.503	5448
2853.369	5379
2855.232	5396
2857.096	5370
2858.961	5349
2860.824	5454
2862.686	5342
2864.547	5475
2866.41	5403
2868.272	5421
2870.132	5513
2871.992	5475
2873.851	5440
2875.711	5543
2877.57	5649
2879.429	5504
2881.287	5624
2883.144	5665
2885.001	5650
2886.857	5666
2888.714	5766
2890.57	5726
2892.425	5535
2894.279	5699
2896.133	5739
2897.987	5633
2899.842	5774
2901.694	5687
2903.547	5678
2905.397	5559
2907.249	5596
2909.101	5651
2910.952	5616
2912.802	5556
2914.652	5746
2916.5	5732
2918.35	5781
2920.198	5783
2922.045	5840
2923.893	5887
2925.74	5784
2927.585	5928
2929.433	5964
2931.279	6019
2933.123	6088
2934.968	6015
2936.811	6169
2938.656	6074
2940.5	6082
2942.342	6128
2944.185	6312
2946.026	6211
2947.87	6311
2949.71	6236
2951.549	6095
2953.39	6216
2955.229	6055
2957.069	6030
2958.908	6012
2960.746	5978
2962.584	5829
2964.421	5837
2966.257	5980
2968.094	5917
2969.931	5913
2971.766	5760
2973.601	5737
2975.435	5736
2977.27	5732
2979.105	5783
2980.938	5650
2982.77	5639
2984.602	5726
2986.434	5666
2988.267	5693
2990.097	5579
2991.927	5627
2993.757	5536
2995.587	5612
2997.417	5531
2999.246	5552
3001.074	5498
3002.902	5414
3004.729	5351
3006.556	5353
3008.384	5245
3010.21	5317
3012.036	5279
3013.861	5316
3015.684	5254
3017.51	5181
3019.334	5289
3021.157	5182
3022.981	5123
3024.802	5093
3026.624	5137
3028.448	5143
3030.267	5088
3032.088	5041
3033.909	5138
3035.728	5109
3037.549	4919
3039.368	5064
3041.186	5043
3043.004	5050
3044.821	5075
3046.64	5054
3048.455	4970
3050.272	5060
3052.087	5024
3053.903	5005
3055.717	5024
3057.534	4974
3059.347	5023
3061.16	5103
3062.974	5012
3064.785	5001
3066.598	4949
3068.411	5008
3070.222	5001
3072.032	5023
3073.844	4976
3075.653	4970
3077.463	5007
3079.272	4961
3081.08	4870
3082.889	4964
3084.697	5068
3086.505	4901
3088.312	4856
3090.118	4946
3091.924	4869
3093.729	4968
3095.535	4892
3097.34	4882
3099.144	5005
3100.947	4949
3102.75	4863
3104.553	4883
3106.357	4878
3108.159	4745
3109.961	4977
3111.762	4842
3113.562	4905
3115.365	4945
3117.164	4909
3118.964	4789
3120.761	4827
3122.56	4835
3124.36	4827
3126.158	4826
3127.954	4735
3129.75	4784
3131.547	4783
3133.343	4758
3135.139	4880
3136.934	4765
3138.729	4756
3140.522	4773
3142.317	4827
3144.11	4776
3145.904	4736
3147.695	4801
3149.488	4689
3151.28	4797
3153.07	4755
3154.863	4712
3156.652	4767
3158.441	4683
3160.231	4735
3162.019	4638
3163.81	4741
3165.597	4745
3167.384	4747
3169.172	4707
3170.958	4702
3172.745	4830
3174.532	4626
3176.317	4724
3178.101	4716
3179.885	4621
3181.67	4684
3183.455	4717
3185.238	4665
3187.02	4691
3188.802	4645
3190.585	4585
3192.368	4607
3194.149	4697
3195.929	4779
3197.709	4588
3199.489	4616
3201.268	4678
3203.048	4719
3204.826	4700
3206.604	4613
3208.382	4701
3210.159	4662
3211.937	4623
3213.713	4685
3215.489	4609
3217.263	4649
3219.038	4619
3220.815	4636
3222.589	4657
3224.363	4681
3226.136	4643
3227.908	4591
3229.681	4690
3231.454	4678
3233.226	4609
3234.996	4609
3236.767	4574
3238.538	4687
3240.308	4628
3242.078	4606
3243.847	4591
3245.615	4594
3247.384	4699
3249.15	4612
3250.92	4641
3252.686	4639
3254.453	4685
3256.218	4603
3257.984	4689
3259.75	4738
3261.515	4597
3263.279	4632
3265.044	4598
3266.806	4609
3268.57	4669
3270.334	4581
3272.095	4638
3273.856	4603
3275.619	4657
3277.379	4696
3279.14	4601
3280.9	4586
3282.661	4607
3284.419	4685
3286.178	4583
3287.937	4692
3289.695	4553
3291.453	4558
3293.21	4518
3294.967	4480
3296.723	4495
3298.48	4559
3300.235	4672
3301.99	4598
3303.744	4610
3305.498	4606
3307.253	4604
3309.006	4608
3310.759	4664
3312.511	4584
3314.263	4589
3316.017	4594
3317.768	4618
3319.519	4604
3321.268	4551
3323.018	4606
3324.767	4549
3326.518	4583
3328.267	4630
3330.014	4577
3331.762	4595
3333.509	4595
3335.258	4533
3337.003	4603
3338.75	4525
3340.496	4526
3342.24	4464
3343.987	4578
3345.732	4596
3347.475	4486
3349.219	4549
3350.961	4510
3352.705	4564
3354.448	4474
3356.19	4548
3357.931	4513
3359.672	4453
3361.412	4459
3363.155	4485
3364.894	4508
3366.633	4383
3368.372	4485
3370.11	4606
3371.849	4479
3373.588	4475
3375.325	4393
3377.061	4465
3378.799	4517
3380.534	4403
3382.271	4433
3384.006	4472
3385.741	4374
3387.475	4421
3389.209	4481
3390.944	4390
3392.677	4371
3394.409	4457
3396.143	4379
3397.874	4421
3399.606	4452
3401.338	4411
3403.069	4430
3404.799	4506
3406.528	4430
3408.258	4318
3409.988	4389
3411.717	4475
3413.445	4417
3415.173	4334
3416.899	4398
3418.626	4456
3420.354	4381
3422.08	4366
3423.806	4382
3425.531	4380
3427.255	4475
3428.981	4259
3430.705	4364
3432.429	4271
3434.151	4291
3435.875	4347
3437.599	4341
3439.321	4408
3441.042	4274
3442.763	4348
3444.483	4321
3446.204	4225
3447.926	4335
3449.645	4200
3451.364	4308
3453.082	4284
3454.801	4292
3456.52	4353
3458.238	4317
3459.954	4213
3461.671	4206
3463.387	4221
3465.104	4284
3466.82	4245
3468.534	4181
3470.25	4181
3471.963	4294
3473.676	4174
3475.392	4269
3477.104	4266
3478.817	4297
3480.528	4294
3482.241	4244
3483.954	4137
3485.664	4231
3487.374	4129
3489.084	4270
3490.795	4061
3492.504	4068
3494.214	4161
3495.922	4171
3497.63	4096
3499.338	4086
3501.045	4076
3502.753	4145
3504.459	4098
3506.166	4156
3507.871	4163
3509.576	4035
3511.283	4137
3512.987	4023
3514.691	4053
3516.395	4061
3518.098	4098
3519.8	4055
3521.504	4071
3523.206	4073
3524.908	4164
3526.609	4134
3528.309	4019
3530.011	4068
3531.711	4090
3533.411	4023
3535.109	4045
3536.808	4067
3538.507	4037
3540.206	4051
3541.904	4084
3543.601	4073
3545.297	3965
3546.994	4034
3548.69	4013
3550.387	4091
3552.081	3991
3553.776	4019
3555.47	4050
3557.166	4005
3558.859	3989
3560.553	3976
3562.245	4085
3563.938	4100
3565.629	3877
3567.322	3962
3569.014	3980
3570.704	4004
3572.394	3950
3574.084	3906
3575.775	3913
3577.464	4050
3579.152	3910
3580.842	3917
3582.529	3919
3584.216	3923
3585.905	3857
3587.591	3955
3589.279	3942
3590.964	4003
3592.649	3788
3594.336	3905
3596.021	3867
3597.705	3868
3599.388	3928
3601.072	3835
3602.757	3842
3604.439	3886
3606.122	3836
3607.803	3894
3609.485	3817
3611.167	3801
3612.849	3789
3614.529	3923
3616.208	3790
3617.888	3882
3619.567	3838
3621.247	3763
3622.926	3752
3624.603	3836
3626.281	3772
3627.958	3808
3629.635	3776
3631.312	3720
3632.989	3777
3634.665	3774
3636.339	3713
3638.014	3782
3639.691	3841
3641.364	3703
3643.038	3752
3644.71	3717
3646.384	3735
3648.058	3652
3649.729	3676
3651.402	3636
3653.073	3779
3654.744	3717
3656.414	3725
3658.085	3628
3659.755	3692
3661.424	3719
3663.094	3683
3664.762	3681
3666.431	3708
3668.099	3608
3669.766	3626
3671.433	3646
3673.099	3645
3674.768	3631
3676.433	3660
3678.098	3632
3679.763	3650
3681.428	3620
3683.093	3617
3684.757	3614
3686.421	3638
3688.083	3685
3689.746	3658
3691.408	3660
3693.071	3653
3694.733	3649
3696.394	3620
3698.054	3640
3699.715	3642
3701.375	3710
3703.036	3638
3704.695	3600
3706.354	3619
3708.012	3538
3709.67	3592
3711.329	3572
3712.987	3603
3714.644	3561
3716.299	3542
3717.955	3534
3719.613	3634
3721.268	3585
3722.923	3586
3724.577	3538
3726.231	3568
3727.885	3528
3729.539	3537
3731.192	3594
3732.845	3586
3734.497	3551
3736.149	3531
3737.802	3629
3739.453	3524
3741.104	3532
3742.753	3548
3744.404	3505
3746.052	3517
3747.704	3575
3749.352	3600
3751	3516
3752.648	3574
3754.296	3500
3755.944	3405
3757.59	3502
3759.238	3522
3760.883	3541
3762.528	3537
3764.176	3514
3765.82	3519
3767.464	3510
3769.109	3477
3770.753	3441
3772.396	3507
3774.04	3519
3775.683	3451
3777.325	3458
3778.967	3424
3780.608	3501
3782.25	3492
3783.89	3380
3785.531	3426
3787.17	3516
3788.81	3485
3790.45	3389
3792.09	3441
3793.729	3415
3795.366	3495
3797.003	3507
3798.64	3444
3800.278	3375
3801.915	3458
3803.551	3439
3805.187	3392
3806.822	3447
3808.458	3374
3810.093	3441
3811.726	3312
3813.36	3294
3814.994	3387
3816.627	3302
3818.262	3354
3819.893	3315
3821.525	3372
3823.157	3385
3824.787	3322
3826.42	3402
3828.051	3332
3829.68	3374
3831.31	3296
3832.938	3407
3834.569	3364
3836.198	3280
3837.825	3380
3839.454	3351
3841.08	3317
3842.708	3420
3844.335	3392
3845.962	3298
3847.587	3315
3849.212	3317
3850.838	3323
3852.463	3300
3854.089	3333
3855.712	3304
3857.335	3348
3858.959	3255
3860.582	3355
3862.205	3331
3863.827	3255
3865.449	3324
3867.07	3325
3868.691	3265
3870.312	3237
3871.933	3334
3873.553	3349
3875.173	3218
3876.792	3301
3878.411	3229
3880.03	3223
3881.647	3268
3883.265	3264
3884.882	3378
3886.499	3204
3888.116	3186
3889.732	3244
3891.348	3222
3892.964	3201
3894.579	3249
3896.195	3284
3897.809	3180
3899.423	3228
3901.036	3234
3902.648	3262
3904.261	3232
3905.875	3216
3907.487	3195
3909.099	3215
3910.709	3272
3912.321	3152
3913.933	3224
3915.542	3217
3917.152	3247
3918.762	3243
3920.37	3231
3921.98	3205
3923.589	3223
3925.196	3166
3926.804	3146
3928.41	3249
3930.018	3253
3931.626	3277
3933.231	3202
3934.838	3155
3936.442	3209
3938.046	3212
3939.653	3219
3941.257	3178
3942.861	3237
3944.464	3167
3946.068	3180
3947.67	3126
3949.273	3186
3950.876	3256
3952.477	3192
3954.078	3143
3955.678	3145
3957.281	3129
3958.881	3119
3960.48	3153
3962.079	3098
3963.678	3158
3965.279	3132
3966.877	3068
3968.475	3161
3970.072	3132
3971.669	3172
3973.266	3137
3974.864	3047
3976.459	3125
3978.055	3095
3979.65	2984
3981.245	3082
3982.841	3114
3984.436	3075
3986.03	3112
3987.623	3046
3989.216	3125
3990.809	3041
3992.403	3055
3993.995	3083
3995.586	3021
3997.177	3059
3998.768	3083
4000.361	3085
4001.951	3075
4003.54	3009
4005.13	3040
4006.719	3104
4008.31	3110
4009.897	3088
4011.485	3087
4013.073	3040
4014.66	3025
4016.247	3079
4017.834	3017
4019.421	3010
4021.006	3040
4022.592	2960
4024.178	3039
4025.763	2899
4027.348	2973
4028.932	3044
4030.515	2990
4032.099	2931
4033.682	2939
4035.266	2929
4036.847	2936
4038.429	2955
4040.011	2994
4041.592	2907
4043.173	2947
4044.755	2965
4046.334	2939
4047.913	2885
4049.494	2859
4051.074	2944
4052.652	2881
4054.23	2906
4055.807	2941
4057.385	2876
4058.963	2918
4060.541	2921
4062.117	2908
4063.693	2983
4065.269	2922
4066.844	2921
4068.42	2929
4069.995	2976
4071.569	2871
4073.143	2865
4074.716	2882
4076.291	2896
4077.864	2860
4079.436	2882
4081.009	2921
4082.58	2867
4084.152	2855
4085.723	2895
4087.294	2958
4088.865	2781
4090.435	2871
4092.005	2827
4093.574	2857
4095.143	2791
4096.712	2828
4098.279	2854
4099.848	2850
4101.416	2858
4102.984	2820
4104.55	2913
4106.117	2794
4107.682	2815
4109.248	2793
4110.815	2809
4112.379	2875
4113.945	2824
4115.508	2841
4117.073	2857
4118.637	2876
4120.201	2760
4121.763	2830
4123.325	2812
4124.888	2764
4126.449	2808
4128.013	2716
4129.573	2802
4131.133	2769
4132.694	2812
4134.254	2755
4135.814	2846
4137.374	2783
4138.933	2727
4140.491	2760
4142.049	2801
4143.607	2770
4145.167	2756
4146.724	2684
4148.28	2781
4149.836	2810
4151.392	2804
4152.949	2799
4154.504	2756
4156.059	2663
4157.614	2703
4159.168	2729
4160.723	2694
4162.277	2732
4163.83	2722
4165.383	2739
4166.936	2761
4168.488	2700
4170.041	2719
4171.593	2669
4173.144	2652
4174.695	2735
4176.246	2699
4177.796	2614
4179.346	2710
4180.896	2690
4182.445	2681
4183.994	2697
4185.542	2691
4187.091	2745
4188.639	2696
4190.185	2667
4191.732	2717
4193.279	2700
4194.826	2725
4196.373	2688
4197.918	2641
4199.463	2681
4201.008	2650
4202.553	2644
4204.098	2645
4205.641	2586
4207.185	2643
4208.728	2603
4210.271	2644
4211.814	2613
4213.357	2673
4214.898	2622
4216.439	2623
4217.98	2586
4219.522	2555
4221.062	2588
4222.603	2661
4224.142	2626
4225.681	2581
4227.222	2643
4228.76	2563
4230.298	2643
4231.835	2695
4233.373	2601
4234.911	2555
4236.449	2583
4237.985	2594
4239.521	2557
4241.057	2574
4242.592	2586
4244.128	2573
4245.663	2583
4247.197	2575
4248.731	2510
4250.265	2551
4251.798	2666
4253.333	2570
4254.865	2561
4256.397	2583
4257.93	2524
4259.461	2589
4260.994	2528
4262.525	2626
4264.056	2581
4265.586	2557
4267.115	2571
4268.646	2560
4270.176	2548
4271.705	2516
4273.232	2519
4274.761	2538
4276.289	2519
4277.818	2589
4279.345	2530
4280.872	2529
4282.399	2505
4283.924	2523
4285.452	2598
4286.976	2466
4288.502	2590
4290.026	2467
4291.551	2535
4293.074	2489
4294.6	2504
4296.123	2493
4297.646	2525
4299.168	2481
4300.691	2548
4302.214	2508
4303.736	2525
4305.257	2514
4306.778	2468
4308.299	2476
4309.82	2483
4311.34	2483
4312.86	2531
4314.379	2491
