400.0745	5340
402.597	5485
405.1208	5456
407.6419	5392
410.1623	5390
412.6819	5461
415.201	5470
417.7172	5599
420.2369	5622
422.7538	5708
425.2701	5643
427.7856	5682
430.3005	5807
432.8147	5831
435.3282	5813
437.841	5782
440.3511	5752
442.8625	5844
445.3753	5874
447.8854	5872
450.3927	5855
452.9014	5892
455.4073	5807
457.9146	5724
460.4233	5794
462.9272	5740
465.4325	5807
467.935	5926
470.4389	5831
472.9421	5792
475.4446	5913
477.9444	5823
480.4456	5916
482.944	5936
485.4417	5848
487.9429	5886
490.4393	5889
492.935	5911
495.4321	5982
497.9264	5996
500.4221	5858
502.9171	6009
505.4094	6078
507.9011	5987
510.392	6022
512.8864	6043
515.3759	6116
517.8649	6252
520.3531	6097
522.8406	6055
525.3275	6059
527.8178	6124
530.3033	6126
532.7881	6165
535.2723	6106
537.7558	6063
540.2407	6162
542.7228	6057
545.2043	6130
547.6851	6088
550.1652	6230
552.6467	6219
555.1255	6064
557.6016	6100
560.079	6161
562.5557	6198
565.0318	6143
567.5092	6231
569.984	6155
572.456	6285
574.9294	6260
577.4022	6249
579.8762	6280
582.3456	6378
584.8163	6267
587.2863	6310
589.7557	6345
592.2224	6351
594.6924	6414
597.1578	6345
599.6245	6373
602.0905	6412
604.5538	6279
607.0206	6326
609.4825	6318
611.9459	6379
614.4066	6333
616.8686	6474
619.33	6355
621.7906	6367
624.2487	6289
626.708	6263
629.1647	6296
631.6207	6261
634.0801	6179
636.5348	6254
638.9888	6357
641.4442	6434
643.8969	6352
646.3509	6330
648.8022	6389
651.255	6366
653.705	6387
656.1544	6520
658.6031	6435
661.0532	6440
663.5026	6456
665.9493	6632
668.3954	6437
670.8409	6479
673.2877	6445
675.7318	6494
678.1752	6526
680.618	6564
683.0601	6422
685.5035	6578
687.9444	6655
690.3845	6561
692.824	6539
695.2628	6602
697.701	6673
700.1406	6584
702.5774	6583
705.0116	6567
707.4472	6714
709.8821	6522
712.3183	6679
714.7519	6694
717.1829	6570
719.6151	6795
722.0468	6617
724.4777	6788
726.908	6856
729.3377	6791
731.7667	6719
734.1931	6875
736.6208	6733
739.0498	6918
741.4742	6836
743.9	6965
746.3231	6770
748.7476	6845
751.1713	6876
753.5945	6951
756.015	6939
758.4368	7077
760.856	7125
763.2766	6993
765.6965	7028
768.1157	6937
770.5323	6992
772.9483	6966
775.3656	7055
777.7822	6945
780.1963	6984
782.6116	6986
785.0244	7062
787.4365	7043
789.8499	7192
792.2626	6960
794.6728	7019
797.0823	7042
799.4911	6937
801.8994	7138
804.3109	7038
806.7178	7085
809.124	7065
811.5297	7061
813.9347	7094
816.341	7222
818.7447	7063
821.1478	7231
823.5502	7228
825.952	7169
828.3531	7177
830.7556	7120
833.1554	7145
835.5546	7194
837.9532	7196
840.3511	7222
842.7504	7095
845.1451	7089
847.5411	7214
849.9365	7218
852.3312	7374
854.7272	7238
857.1187	7216
859.5115	7184
861.9037	7328
864.2952	7272
866.6842	7152
869.0764	7169
871.4661	7225
873.8531	7351
876.2415	7255
878.6272	7292
881.0162	7131
883.4026	7303
885.7866	7176
888.1717	7162
890.5543	7303
892.9382	7160
895.3215	7206
897.7041	7280
900.0842	7143
902.4655	7213
904.8443	7324
907.2244	7279
909.6039	7381
911.9808	7331
914.357	7371
916.7346	7399
919.1115	7376
921.4859	7476
923.8616	7419
926.2347	7420
928.6071	7710
930.979	7490
933.3541	7479
935.7247	7507
938.0946	7586
940.4639	7720
942.8326	7651
945.2026	7777
947.5701	7774
949.9369	8052
952.305	8052
954.6705	8285
957.0355	8539
959.4017	8785
961.7654	8834
964.1284	8895
966.4908	8678
968.8527	8407
971.2138	8124
973.5743	7933
975.9343	7843
978.2936	7617
980.6522	7673
983.0122	7528
985.3696	7599
987.7245	7499
990.0807	7473
992.4362	7547
994.7911	7439
997.1474	7616
999.4991	7522
1001.852	7529
1004.205	7555
1006.555	7461
1008.908	7529
1011.258	7471
1013.606	7497
1015.956	7457
1018.302	7574
1020.652	7536
1022.998	7529
1025.345	7582
1027.691	7655
1030.035	7709
1032.378	7578
1034.724	7506
1037.066	7643
1039.409	7617
1041.75	7510
1044.092	7789
1046.433	7711
1048.771	7696
1051.112	7591
1053.449	7617
1055.786	7649
1058.124	7641
1060.462	7686
1062.797	7612
1065.131	7661
1067.467	7843
1069.8	7803
1072.135	7773
1074.467	7787
1076.798	7670
1079.129	7712
1081.459	7768
1083.792	7663
1086.121	7598
1088.449	7718
1090.777	7632
1093.104	7757
1095.431	7600
1097.759	7656
1100.084	7694
1102.408	7646
1104.732	7659
1107.056	7752
1109.379	7755
1111.701	7754
1114.022	7660
1116.343	7603
1118.664	7646
1120.983	7692
1123.303	7600
1125.621	7747
1127.939	7657
1130.256	7708
1132.573	7766
1134.889	7752
1137.205	7777
1139.52	7545
1141.832	7584
1144.146	7637
1146.461	7613
1148.771	7717
1151.083	7584
1153.392	7802
1155.703	7712
1158.011	7721
1160.323	7686
1162.629	7719
1164.938	7807
1167.243	7612
1169.55	7706
1171.857	7633
1174.163	7750
1176.466	7689
1178.769	7815
1181.073	7699
1183.374	7741
1185.677	7670
1187.979	7585
1190.279	7762
1192.578	7756
1194.878	7693
1197.178	7725
1199.476	7654
1201.772	7741
1204.068	7736
1206.366	7719
1208.663	7721
1210.957	7758
1213.251	7625
1215.544	7607
1217.836	7623
1220.128	7764
1222.421	7684
1224.712	7746
1227.002	7793
1229.292	7837
1231.581	7813
1233.871	7952
1236.159	7887
1238.446	7897
1240.732	7921
1243.018	7984
1245.304	7931
1247.59	7996
1249.874	7982
1252.156	7983
1254.439	7932
1256.721	7891
1259.005	7925
1261.286	7947
1263.565	7979
1265.845	8121
1268.125	7972
1270.403	7989
1272.682	7895
1274.959	7962
1277.234	8013
1279.511	7823
1281.787	8081
1284.062	7854
1286.337	7991
1288.609	7933
1290.882	7766
1293.153	7865
1295.428	7784
1297.698	7770
1299.969	7849
1302.237	7876
1304.507	7844
1306.777	7954
1309.044	7815
1311.312	7752
1313.578	7895
1315.844	7784
1318.109	7806
1320.375	7744
1322.638	7936
1324.903	7781
1327.165	7778
1329.427	7873
1331.69	7904
1333.952	7752
1336.212	7804
1338.471	7971
1340.73	7869
1342.988	7787
1345.248	7805
1347.505	7966
1349.763	7770
1352.019	7806
1354.274	7855
1356.53	7830
1358.784	7813
1361.038	7733
1363.291	7856
1365.543	7856
1367.797	7891
1370.048	7964
1372.296	7966
1374.546	7863
1376.796	7829
1379.045	7873
1381.295	7822
1383.542	7793
1385.787	7828
1388.034	7877
1390.28	7995
1392.527	7925
1394.772	8122
1397.014	7927
1399.258	7925
1401.501	7908
1403.741	7957
1405.985	7904
1408.226	8006
1410.465	7949
1412.705	7927
1414.943	8047
1417.184	8113
1419.42	7979
1421.658	7952
1423.894	7994
1426.13	8092
1428.366	8100
1430.602	8079
1432.835	8125
1435.069	8058
1437.301	8238
1439.535	8069
1441.767	8122
1443.997	8100
1446.229	8120
1448.458	8132
1450.687	8081
1452.916	8168
1455.146	8233
1457.372	8138
1459.599	8054
1461.824	8025
1464.051	8205
1466.277	8194
1468.501	8123
1470.725	8145
1472.948	8102
1475.17	7994
1477.393	8053
1479.614	8067
1481.837	8023
1484.057	7941
1486.276	7956
1488.497	7960
1490.715	8010
1492.932	7792
1495.148	7744
1497.364	7893
1499.58	7956
1501.798	7838
1504.012	7840
1506.227	7905
1508.44	7897
1510.653	7821
1512.866	7810
1515.078	7777
1517.289	7824
1519.5	7790
1521.711	7820
1523.92	7665
1526.13	7846
1528.338	7771
1530.544	7808
1532.752	7864
1534.959	7896
1537.165	7960
1539.371	7826
1541.574	7900
1543.779	7748
1545.983	7891
1548.187	7876
1550.39	7850
1552.59	7796
1554.792	7817
1556.991	7866
1559.19	7915
1561.392	7951
1563.59	7896
1565.789	7846
1567.986	8015
1570.182	8159
1572.381	8022
1574.576	8020
1576.771	7975
1578.966	7867
1581.16	8017
1583.354	7974
1585.546	7982
1587.74	8168
1589.931	8011
1592.121	8118
1594.311	7977
1596.502	8031
1598.693	8022
1600.881	7974
1603.069	7930
1605.256	8037
1607.445	8054
1609.631	8113
1611.816	8089
1614.001	8005
1616.186	8241
1618.37	8034
1620.555	8093
1622.737	8168
1624.919	8044
1627.101	8079
1629.282	8179
1631.463	8089
1633.643	8069
1635.822	8244
1638.001	8132
1640.179	8144
1642.359	8206
1644.534	8182
1646.711	8064
1648.887	8126
1651.062	8119
1653.235	8185
1655.412	8114
1657.586	8145
1659.757	8172
1661.93	8182
1664.1	8156
1666.274	8313
1668.445	8163
1670.614	8233
1672.784	8118
1674.951	8225
1677.12	8288
1679.289	8331
1681.457	8225
1683.622	8197
1685.789	8220
1687.953	7988
1690.121	8052
1692.284	8041
1694.447	8107
1696.611	8198
1698.772	8080
1700.935	7983
1703.098	8044
1705.258	7932
1707.417	8153
1709.576	8034
1711.736	7989
1713.896	8067
1716.053	8044
1718.21	8030
1720.366	8028
1722.522	8007
1724.68	7921
1726.835	7987
1728.989	7892
1731.142	8010
1733.295	7946
1735.449	7979
1737.601	7936
1739.753	8075
1741.903	8026
1744.054	7971
1746.203	8124
1748.354	7873
1750.503	7937
1752.651	7905
1754.798	8042
1756.944	7963
1759.092	8019
1761.238	8093
1763.383	7970
1765.528	8059
1767.672	8094
1769.814	7938
1771.959	7949
1774.102	8032
1776.242	8139
1778.384	7918
1780.525	8065
1782.665	8065
1784.805	8096
1786.945	8103
1789.082	8013
1791.22	8132
1793.36	7917
1795.495	8089
1797.632	8087
1799.766	8211
1801.902	8037
1804.035	8103
1806.172	8079
1808.304	8047
1810.436	8135
1812.569	8090
1814.699	8027
1816.833	8148
1818.963	8068
1821.092	8007
1823.222	7875
1825.35	8149
1827.478	8216
1829.608	8023
1831.734	7947
1833.86	8068
1835.986	7981
1838.11	7896
1840.238	8101
1842.362	8046
1844.485	7935
1846.608	8006
1848.73	8071
1850.853	8065
1852.974	8056
1855.097	7931
1857.217	7914
1859.336	7973
1861.455	7905
1863.576	7989
1865.693	7985
1867.811	8076
1869.926	8061
1872.042	7990
1874.16	8050
1876.275	7957
1878.39	7963
1880.504	7945
1882.618	8032
1884.731	7866
1886.843	7976
1888.956	7985
1891.067	7999
1893.178	7963
1895.287	7898
1897.399	8006
1899.508	8071
1901.617	7934
1903.724	7988
1905.832	8036
1907.941	8016
1910.046	8002
1912.152	8016
1914.256	8048
1916.361	8092
1918.464	7989
1920.57	8175
1922.672	8075
1924.775	7972
1926.876	8014
1928.978	8080
1931.08	8032
1933.181	8163
1935.28	8168
1937.38	7916
1939.478	8127
1941.577	8110
1943.675	8102
1945.771	8077
1947.867	8081
1949.964	8041
1952.058	8135
1954.154	8076
1956.248	8001
1958.343	8039
1960.435	8089
1962.527	8172
1964.62	8039
1966.711	8047
1968.802	8146
1970.892	7903
1972.983	7888
1975.072	8095
1977.162	7985
1979.25	8057
1981.337	8087
1983.424	8000
1985.51	7990
1987.598	8111
1989.683	8040
1991.768	7955
1993.852	7973
1995.934	7864
1998.019	7977
2000.102	7957
2002.184	7971
2004.266	8008
2006.347	7927
2008.427	8080
2010.508	7984
2012.587	8007
2014.666	7912
2016.745	8071
2018.821	7910
2020.9	7991
2022.977	8055
2025.052	7842
2027.128	7846
2029.204	7894
2031.277	7839
2033.353	7931
2035.425	8056
2037.499	7899
2039.57	7863
2041.642	7873
2043.714	7769
2045.786	7914
2047.855	8036
2049.925	7900
2051.993	7829
2054.064	8027
2056.132	7990
2058.2	7917
2060.266	7845
2062.332	7841
2064.398	7990
2066.465	7889
2068.529	7847
2070.592	7956
2072.657	7923
2074.719	7949
2076.783	7909
2078.845	7968
2080.907	7791
2082.968	7876
2085.028	8024
2087.087	7908
2089.148	8017
2091.207	7872
2093.264	7843
2095.322	7945
2097.379	7936
2099.439	7837
2101.495	7861
2103.55	7954
2105.605	7851
2107.658	7884
2109.713	7979
2111.767	7894
2113.82	7973
2115.872	7897
2117.924	7789
2119.975	8015
2122.028	7885
2124.078	7801
2126.126	7840
2128.176	7905
2130.225	7860
2132.275	7870
2134.321	7850
2136.368	7892
2138.415	7839
2140.461	7837
2142.505	7888
2144.552	7908
2146.597	7977
2148.64	7948
2150.684	7867
2152.725	7798
2154.77	7846
2156.811	7729
2158.852	7914
2160.894	7837
2162.933	7719
2164.973	7760
2167.013	7846
2169.051	7827
2171.089	7690
2173.126	7776
2175.164	7870
2177.201	7750
2179.236	7717
2181.273	7714
2183.307	7809
2185.341	7704
2187.377	7686
2189.41	7673
2191.442	7718
2193.473	7796
2195.506	7719
2197.539	7788
2199.569	7797
2201.598	7753
2203.628	7658
2205.656	7643
2207.686	7718
2209.716	7645
2211.743	7678
2213.769	7734
2215.796	7601
2217.821	7751
2219.848	7694
2221.873	7614
2223.897	7617
2225.921	7640
2227.944	7665
2229.967	7651
2231.991	7609
2234.011	7585
2236.032	7650
2238.053	7722
2240.073	7713
2242.094	7605
2244.114	7680
2246.131	7630
2248.149	7630
2250.167	7570
2252.186	7690
2254.201	7649
2256.218	7596
2258.233	7571
2260.247	7608
2262.262	7612
2264.278	7635
2266.29	7679
2268.303	7584
2270.315	7561
2272.327	7673
2274.341	7580
2276.35	7701
2278.361	7591
2280.37	7696
2282.38	7577
2284.388	7639
2286.397	7656
2288.405	7626
2290.412	7520
2292.419	7481
2294.425	7621
2296.431	7669
2298.437	7516
2300.441	7664
2302.445	7629
2304.449	7639
2306.453	7652
2308.455	7586
2310.457	7616
2312.459	7671
2314.46	7534
2316.46	7612
2318.461	7590
2320.46	7566
2322.458	7417
2324.458	7679
2326.456	7482
2328.455	7494
2330.451	7546
2332.447	7549
2334.443	7528
2336.438	7495
2338.433	7443
2340.429	7581
2342.422	7484
2344.416	7405
2346.408	7456
2348.399	7304
2350.393	7423
2352.384	7444
2354.375	7398
2356.365	7357
2358.355	7406
2360.344	7405
2362.333	7410
2364.322	7397
2366.309	7326
2368.295	7362
2370.282	7315
2372.27	7470
2374.256	7407
2376.24	7391
2378.225	7295
2380.208	7396
2382.194	7393
2384.177	7391
2386.159	7285
2388.142	7421
2390.122	7375
2392.105	7321
2394.085	7244
2396.066	7378
2398.044	7310
2400.024	7462
2402.002	7324
2403.982	7300
2405.959	7334
2407.935	7419
2409.913	7304
2411.888	7204
2413.865	7283
2415.84	7312
2417.814	7287
2419.788	7367
2421.762	7226
2423.735	7175
2425.708	7231
2427.68	7198
2429.651	7198
2431.623	7229
2433.593	7307
2435.564	7226
2437.533	7275
2439.502	7261
2441.47	7232
2443.438	7351
2445.406	7297
2447.373	7177
2449.34	7203
2451.305	7216
2453.271	7212
2455.235	7170
2457.201	7314
2459.165	7188
2461.129	7077
2463.092	7156
2465.054	7223
2467.018	7281
2468.978	7236
2470.939	7202
2472.899	7231
2474.86	7167
2476.819	7179
2478.778	7287
2480.737	7225
2482.695	7150
2484.653	7073
2486.609	7079
2488.567	7034
2490.524	7006
2492.478	7107
2494.433	7216
2496.387	7136
2498.343	7001
2500.297	7167
2502.249	7192
2504.202	7117
2506.153	7143
2508.105	7096
2510.057	7165
2512.008	7070
2513.957	7124
2515.906	7086
2517.855	7073
2519.805	7008
2521.754	7087
2523.7	7059
2525.647	7020
2527.594	6999
2529.54	7178
2531.486	7074
2533.431	7095
2535.376	7068
2537.32	7040
2539.263	7049
2541.207	7216
2543.151	7136
2545.093	7149
2547.034	6969
2548.975	7099
2550.917	7170
2552.856	7108
2554.796	7073
2556.735	7133
2558.673	7076
2560.611	7076
2562.55	6938
2564.487	7095
2566.424	7037
2568.36	7063
2570.296	6978
2572.232	6968
2574.167	7106
2576.101	6999
2578.035	6905
2579.969	7052
2581.902	6974
2583.834	6966
2585.766	6927
2587.698	6915
2589.628	7050
2591.557	6996
2593.489	7061
2595.419	7041
2597.348	7003
2599.275	7026
2601.204	6951
2603.131	6878
2605.059	7027
2606.986	7045
2608.911	7032
2610.837	7159
2612.76	6801
2614.687	7113
2616.61	7074
2618.534	6999
2620.457	7188
2622.38	7075
2624.302	6945
2626.225	7019
2628.145	7004
2630.067	7131
2631.986	7005
2633.906	7031
2635.827	7025
2637.745	7044
2639.662	7026
2641.581	7043
2643.498	7070
2645.415	6995
2647.331	6943
2649.248	6979
2651.163	7018
2653.077	6931
2654.993	7038
2656.906	6938
2658.821	6994
2660.733	7024
2662.646	6981
2664.557	7002
2666.47	7005
2668.381	6961
2670.291	7059
2672.201	6978
2674.11	6892
2676.021	6887
2677.929	6910
2679.837	6922
2681.745	6989
2683.652	6953
2685.56	7043
2687.466	6972
2689.371	6893
2691.276	6850
2693.181	6959
2695.085	6962
2696.991	6829
2698.893	6919
2700.796	6968
2702.698	6881
2704.601	6877
2706.502	6799
2708.404	6868
2710.304	6840
2712.203	6881
2714.103	6788
2716.003	6837
2717.902	6799
2719.8	6833
2721.697	6848
2723.594	6839
2725.49	6787
2727.389	6821
2729.283	6767
2731.179	6656
2733.073	6878
2734.968	6885
2736.863	6855
2738.757	6986
2740.649	6819
2742.541	6924
2744.433	6783
2746.324	6793
2748.216	6832
2750.107	6854
2751.997	6771
2753.886	6742
2755.776	6811
2757.666	6799
2759.553	6721
2761.44	6726
2763.327	6670
2765.215	6699
2767.102	6754
2768.988	6683
2770.873	6692
2772.757	6810
2774.641	6708
2776.525	6679
2778.41	6795
2780.292	6687
2782.175	6664
2784.057	6679
2785.938	6652
2787.821	6684
2789.701	6762
2791.581	6678
2793.461	6724
2795.34	6603
2797.219	6666
2799.099	6775
2800.975	6684
2802.853	6703
2804.73	6727
2806.606	6719
2808.484	6653
2810.358	6713
2812.233	6673
2814.108	6777
2815.981	6692
2817.857	6621
2819.73	6643
2821.602	6636
2823.474	6597
2825.346	6662
2827.217	6624
2829.089	6693
2830.959	6582
2832.829	6671
2834.698	6661
2836.567	6684
2838.436	6711
2840.305	6635
2842.172	6685
2844.04	6597
2845.905	6683
2847.772	6595
2849.639	6577
2851.503	6672
2853.369	6739
2855.232	6543
2857.096	6615
2858.961	6753
2860.824	6666
2862.686	6649
2864.547	6853
2866.41	6738
2868.272	6733
2870.132	6747
2871.992	6907
2873.851	6817
2875.711	6841
2877.57	6916
2879.429	6912
2881.287	7017
2883.144	6890
2885.001	7044
2886.857	7002
2888.714	6953
2890.57	6932
2892.425	7015
2894.279	6978
2896.133	7023
2897.987	6836
2899.842	6881
2901.694	6959
2903.547	6957
2905.397	6876
2907.249	6948
2909.101	6960
2910.952	6846
2912.802	6961
2914.652	7023
2916.5	7061
2918.35	7024
2920.198	7049
2922.045	7156
2923.893	7096
2925.74	7138
2927.585	7189
2929.433	7243
2931.279	7210
2933.123	7352
2934.968	7437
2936.811	7375
2938.656	7452
2940.5	7356
2942.342	7526
2944.185	7446
2946.026	7467
2947.87	7538
2949.71	7555
2951.549	7480
2953.39	7492
2955.229	7379
2957.069	7304
2958.908	7326
2960.746	7375
2962.584	7216
2964.421	7126
2966.257	7142
2968.094	7087
2969.931	7037
2971.766	7088
2973.601	7037
2975.435	6917
2977.27	7007
2979.105	6954
2980.938	6895
2982.77	6896
2984.602	6925
2986.434	6877
2988.267	6910
2990.097	6837
2991.927	6730
2993.757	6717
2995.587	6733
2997.417	6763
2999.246	6684
3001.074	6637
3002.902	6651
3004.729	6499
3006.556	6599
3008.384	6377
3010.21	6396
3012.036	6403
3013.861	6355
3015.684	6389
3017.51	6443
3019.334	6228
3021.157	6308
3022.981	6356
3024.802	6251
3026.624	6190
3028.448	6313
3030.267	6245
3032.088	6308
3033.909	6233
3035.728	6272
3037.549	6202
3039.368	6191
3041.186	6134
3043.004	6171
3044.821	6263
3046.64	6076
3048.455	6256
3050.272	6105
3052.087	6147
3053.903	6256
3055.717	6112
3057.534	6114
3059.347	6074
3061.16	6113
3062.974	6081
3064.785	6125
3066.598	6134
3068.411	6153
3070.222	5982
3072.032	6072
3073.844	6165
3075.653	6178
3077.463	6038
3079.272	5913
3081.08	5972
3082.889	6031
3084.697	6032
3086.505	6036
3088.312	5913
3090.118	6068
3091.924	5964
3093.729	6018
3095.535	5865
3097.34	6017
3099.144	5891
3100.947	5986
3102.75	5858
3104.553	5967
3106.357	5970
3108.159	5936
3109.961	5978
3111.762	5947
3113.562	5896
3115.365	5767
3117.164	5841
3118.964	5826
3120.761	5833
3122.56	5885
3124.36	5877
3126.158	5890
3127.954	5862
3129.75	5753
3131.547	5853
3133.343	5807
3135.139	5804
3136.934	5824
3138.729	5893
3140.522	5879
3142.317	5711
3144.11	5725
3145.904	5877
3147.695	5810
3149.488	5871
3151.28	5868
3153.07	5917
3154.863	5785
3156.652	5779
3158.441	5660
3160.231	5712
3162.019	5582
3163.81	5734
3165.597	5727
3167.384	5663
3169.172	5677
3170.958	5665
3172.745	5771
3174.532	5741
3176.317	5790
3178.101	5659
3179.885	5749
3181.67	5695
3183.455	5618
3185.238	5639
3187.02	5676
3188.802	5728
3190.585	5719
3192.368	5635
3194.149	5815
3195.929	5706
3197.709	5585
3199.489	5624
3201.268	5671
3203.048	5599
3204.826	5554
3206.604	5655
3208.382	5706
3210.159	5558
3211.937	5684
3213.713	5696
3215.489	5616
3217.263	5637
3219.038	5678
3220.815	5433
3222.589	5655
3224.363	5662
3226.136	5604
3227.908	5519
3229.681	5548
3231.454	5638
3233.226	5542
3234.996	5553
3236.767	5583
3238.538	5539
3240.308	5548
3242.078	5477
3243.847	5706
3245.615	5551
3247.384	5584
3249.15	5429
3250.92	5482
3252.686	5515
3254.453	5505
3256.218	5579
3257.984	5578
3259.75	5540
3261.515	5578
3263.279	5637
3265.044	5557
3266.806	5554
3268.57	5507
3270.334	5497
3272.095	5591
3273.856	5498
3275.619	5656
3277.379	5572
3279.14	5637
3280.9	5537
3282.661	5492
3284.419	5593
3286.178	5636
3287.937	5579
3289.695	5590
3291.453	5583
3293.21	5572
3294.967	5555
3296.723	5525
3298.48	5622
3300.235	5565
3301.99	5604
3303.744	5483
3305.498	5524
3307.253	5560
3309.006	5451
3310.759	5507
3312.511	5546
3314.263	5520
3316.017	5438
3317.768	5494
3319.519	5559
3321.268	5538
3323.018	5475
3324.767	5483
3326.518	5452
3328.267	5512
3330.014	5559
3331.762	5562
3333.509	5505
3335.258	5506
3337.003	5524
3338.75	5405
3340.496	5405
3342.24	5479
3343.987	5478
3345.732	5483
3347.475	5449
3349.219	5412
3350.961	5493
3352.705	5426
3354.448	5405
3356.19	5395
3357.931	5390
3359.672	5392
3361.412	5338
3363.155	5324
3364.894	5380
3366.633	5338
3368.372	5369
3370.11	5450
3371.849	5306
3373.588	5368
3375.325	5466
3377.061	5214
3378.799	5242
3380.534	5365
3382.271	5415
3384.006	5301
3385.741	5320
3387.475	5330
3389.209	5257
3390.944	5344
3392.677	5294
3394.409	5250
3396.143	5273
3397.874	5323
3399.606	5199
3401.338	5274
3403.069	5289
3404.799	5330
3406.528	5347
3408.258	5240
3409.988	5286
3411.717	5244
3413.445	5258
3415.173	5225
3416.899	5273
3418.626	5255
3420.354	5237
3422.08	5290
3423.806	5225
3425.531	5201
3427.255	5206
3428.981	5236
3430.705	5149
3432.429	5119
3434.151	5080
3435.875	5109
3437.599	5203
3439.321	5239
3441.042	5128
3442.763	5239
3444.483	5130
3446.204	5177
3447.926	5133
3449.645	5188
3451.364	5069
3453.082	5109
3454.801	5160
3456.52	5194
3458.238	5115
3459.954	4970
3461.671	5214
3463.387	5040
3465.104	5155
3466.82	5046
3468.534	5089
3470.25	5047
3471.963	5073
3473.676	4982
3475.392	4955
3477.104	4935
3478.817	4918
3480.528	5015
3482.241	5082
3483.954	4995
3485.664	5055
3487.374	4978
3489.084	5022
3490.795	5032
3492.504	4929
3494.214	4906
3495.922	4947
3497.63	4981
3499.338	4997
3501.045	4877
3502.753	4985
3504.459	4840
3506.166	4795
3507.871	4936
3509.576	4888
3511.283	4815
3512.987	4852
3514.691	4935
3516.395	4918
3518.098	4941
3519.8	4836
3521.504	4906
3523.206	4931
3524.908	4820
3526.609	4895
3528.309	4891
3530.011	4774
3531.711	4857
3533.411	4884
3535.109	4759
3536.808	4911
3538.507	4860
3540.206	4819
3541.904	4897
3543.601	4774
3545.297	4854
3546.994	4740
3548.69	4806
3550.387	4763
3552.081	4816
3553.776	4844
3555.47	4792
3557.166	4695
3558.859	4748
3560.553	4803
3562.245	4752
3563.938	4765
3565.629	4817
3567.322	4799
3569.014	4603
3570.704	4718
3572.394	4664
3574.084	4732
3575.775	4757
3577.464	4716
3579.152	4729
3580.842	4636
3582.529	4618
3584.216	4645
3585.905	4643
3587.591	4602
3589.279	4702
3590.964	4652
3592.649	4735
3594.336	4697
3596.021	4670
3597.705	4618
3599.388	4623
3601.072	4555
3602.757	4648
3604.439	4691
3606.122	4530
3607.803	4560
3609.485	4520
3611.167	4512
3612.849	4533
3614.529	4664
3616.208	4562
3617.888	4610
3619.567	4522
3621.247	4566
3622.926	4521
3624.603	4470
3626.281	4535
3627.958	4583
3629.635	4526
3631.312	4502
3632.989	4562
3634.665	4435
3636.339	4340
3638.014	4448
3639.691	4503
3641.364	4491
3643.038	4499
3644.71	4477
3646.384	4462
3648.058	4454
3649.729	4387
3651.402	4405
3653.073	4343
3654.744	4505
3656.414	4466
3658.085	4375
3659.755	4420
3661.424	4383
3663.094	4394
3664.762	4446
3666.431	4363
3668.099	4386
3669.766	4317
3671.433	4329
3673.099	4306
3674.768	4379
3676.433	4425
3678.098	4323
3679.763	4381
3681.428	4308
3683.093	4397
3684.757	4374
3686.421	4339
3688.083	4328
3689.746	4307
3691.408	4336
3693.071	4330
3694.733	4358
3696.394	4288
3698.054	4279
3699.715	4271
3701.375	4353
3703.036	4312
3704.695	4267
3706.354	4250
3708.012	4250
3709.67	4263
3711.329	4320
3712.987	4425
3714.644	4218
3716.299	4231
3717.955	4314
3719.613	4368
3721.268	4250
3722.923	4260
3724.577	4199
3726.231	4232
3727.885	4243
3729.539	4204
3731.192	4253
3732.845	4312
3734.497	4316
3736.149	4235
3737.802	4158
3739.453	4185
3741.104	4168
3742.753	4247
3744.404	4268
3746.052	4167
3747.704	4238
3749.352	4153
3751	4239
3752.648	4224
3754.296	4175
3755.944	4171
3757.59	4170
3759.238	4163
3760.883	4178
3762.528	4236
3764.176	4170
3765.82	4179
3767.464	4150
3769.109	4146
3770.753	4190
3772.396	4105
3774.04	4141
3775.683	4183
3777.325	4071
3778.967	4153
3780.608	4009
3782.25	4164
3783.89	4141
3785.531	4173
3787.17	4114
3788.81	4089
3790.45	4111
3792.09	4052
3793.729	4040
3795.366	4095
3797.003	4006
3798.64	4086
3800.278	4081
3801.915	4067
3803.551	4005
3805.187	4053
3806.822	4113
3808.458	4047
3810.093	3983
3811.726	4054
3813.36	4143
3814.994	4092
3816.627	3983
3818.262	3998
3819.893	4042
3821.525	4005
3823.157	3989
3824.787	3977
3826.42	3943
3828.051	4010
3829.68	3938
3831.31	3836
3832.938	4006
3834.569	3955
3836.198	4004
3837.825	3914
3839.454	4013
3841.08	3904
3842.708	3876
3844.335	3997
3845.962	3912
3847.587	3983
3849.212	3954
3850.838	4005
3852.463	3865
3854.089	3935
3855.712	3978
3857.335	3920
3858.959	3952
3860.582	3905
3862.205	3892
3863.827	3940
3865.449	3923
3867.07	3884
3868.691	3873
3870.312	3852
3871.933	3907
3873.553	3758
3875.173	3818
3876.792	3859
3878.411	3910
3880.03	3898
3881.647	3848
3883.265	3918
3884.882	3888
3886.499	3908
3888.116	3835
3889.732	3909
3891.348	3888
3892.964	3832
3894.579	3764
3896.195	3846
3897.809	3844
3899.423	3837
3901.036	3837
3902.648	3816
3904.261	3778
3905.875	3859
3907.487	3810
3909.099	3795
3910.709	3834
3912.321	3811
3913.933	3814
3915.542	3859
3917.152	3737
3918.762	3796
3920.37	3868
3921.98	3719
3923.589	3776
3925.196	3722
3926.804	3739
3928.41	3766
3930.018	3747
3931.626	3710
3933.231	3768
3934.838	3707
3936.442	3787
3938.046	3771
3939.653	3684
3941.257	3726
3942.861	3830
3944.464	3770
3946.068	3712
3947.67	3708
3949.273	3729
3950.876	3823
3952.477	3777
3954.078	3759
3955.678	3726
3957.281	3718
3958.881	3726
3960.48	3740
3962.079	3660
3963.678	3646
3965.279	3706
3966.877	3716
3968.475	3617
3970.072	3656
3971.669	3714
3973.266	3708
3974.864	3661
3976.459	3624
3978.055	3598
3979.65	3746
3981.245	3578
3982.841	3666
3984.436	3597
3986.03	3623
3987.623	3668
3989.216	3591
3990.809	3561
3992.403	3636
3993.995	3600
3995.586	3648
3997.177	3555
3998.768	3647
4000.361	3571
4001.951	3687
4003.54	3543
4005.13	3576
4006.719	3554
4008.31	3624
4009.897	3567
4011.485	3497
4013.073	3549
4014.66	3570
4016.247	3546
4017.834	3517
4019.421	3575
4021.006	3524
4022.592	3528
4024.178	3507
4025.763	3513
4027.348	3465
4028.932	3495
4030.515	3483
4032.099	3513
4033.682	3445
4035.266	3457
4036.847	3547
4038.429	3460
4040.011	3453
4041.592	3455
4043.173	3514
4044.755	3445
4046.334	3394
4047.913	3462
4049.494	3485
4051.074	3483
4052.652	3404
4054.23	3343
4055.807	3439
4057.385	3473
4058.963	3403
4060.541	3502
4062.117	3393
4063.693	3458
4065.269	3452
4066.844	3438
4068.42	3391
4069.995	3455
4071.569	3465
4073.143	3370
4074.716	3391
4076.291	3351
4077.864	3398
4079.436	3408
4081.009	3426
4082.58	3358
4084.152	3356
4085.723	3385
4087.294	3366
4088.865	3424
4090.435	3363
4092.005	3420
4093.574	3334
4095.143	3422
4096.712	3360
4098.279	3336
4099.848	3391
4101.416	3316
4102.984	3381
4104.55	3414
4106.117	3357
4107.682	3326
4109.248	3270
4110.815	3417
4112.379	3275
4113.945	3428
4115.508	3299
4117.073	3233
4118.637	3303
4120.201	3293
4121.763	3275
4123.325	3251
4124.888	3305
4126.449	3323
4128.013	3306
4129.573	3242
4131.133	3319
4132.694	3215
4134.254	3311
4135.814	3217
4137.374	3258
4138.933	3214
4140.491	3206
4142.049	3233
4143.607	3205
4145.167	3245
4146.724	3202
4148.28	3251
4149.836	3232
4151.392	3204
4152.949	3267
4154.504	3203
4156.059	3225
4157.614	3193
4159.168	3236
4160.723	3235
4162.277	3159
4163.83	3181
4165.383	3131
4166.936	3154
4168.488	3133
4170.041	3181
4171.593	3226
4173.144	3108
4174.695	3116
4176.246	3199
4177.796	3157
4179.346	3149
4180.896	3168
4182.445	3155
4183.994	3161
4185.542	3143
4187.091	3081
4188.639	3140
4190.185	3056
4191.732	3044
4193.279	3096
4194.826	3128
4196.373	3051
4197.918	3065
4199.463	3044
4201.008	3062
4202.553	3029
4204.098	3072
4205.641	3168
4207.185	3156
4208.728	3151
4210.271	3103
4211.814	3115
4213.357	3033
4214.898	3061
4216.439	3030
4217.98	3001
4219.522	3044
4221.062	3102
4222.603	3040
4224.142	3031
4225.681	3054
4227.222	2984
4228.76	3028
4230.298	3064
4231.835	2992
4233.373	2976
4234.911	3014
4236.449	3011
4237.985	3026
4239.521	3026
4241.057	3104
4242.592	2942
4244.128	3045
4245.663	3025
4247.197	3000
4248.731	3035
4250.265	2989
4251.798	2969
4253.333	2969
4254.865	2915
4256.397	2972
4257.93	2996
4259.461	3053
4260.994	2944
4262.525	2978
4264.056	2932
4265.586	2983
4267.115	3063
4268.646	2938
4270.176	2929
4271.705	2923
4273.232	2974
4274.761	2985
4276.289	2953
4277.818	2994
4279.345	2909
4280.872	2935
4282.399	2993
4283.924	2925
4285.452	2917
4286.976	2915
4288.502	2928
4290.026	2909
4291.551	2976
4293.074	2930
4294.6	2932
4296.123	2934
4297.646	2913
4299.168	2863
4300.691	2896
4302.214	2922
4303.736	2868
4305.257	2896
4306.778	2880
4308.299	2864
4309.82	2855
4311.34	2885
4312.86	2897
4314.379	2825
