400.0745	5240
402.597	5390
405.1208	5387
407.6419	5357
410.1623	5380
412.6819	5336
415.201	5539
417.7172	5437
420.2369	5549
422.7538	5572
425.2701	5495
427.7856	5578
430.3005	5718
432.8147	5613
435.3282	5632
437.841	5650
440.3511	5640
442.8625	5734
445.3753	5748
447.8854	5724
450.3927	5822
452.9014	5724
455.4073	5763
457.9146	5735
460.4233	5703
462.9272	5721
465.4325	5759
467.935	5753
470.4389	5830
472.9421	5728
475.4446	5816
477.9444	5813
480.4456	5857
482.944	5792
485.4417	5882
487.9429	5737
490.4393	5980
492.935	5840
495.4321	5940
497.9264	5901
500.4221	5858
502.9171	5909
505.4094	5944
507.9011	5964
510.392	5924
512.8864	6012
515.3759	5924
517.8649	5939
520.3531	6051
522.8406	5993
525.3275	6094
527.8178	5982
530.3033	5973
532.7881	6114
535.2723	5926
537.7558	6022
540.2407	6044
542.7228	6015
545.2043	5950
547.6851	6070
550.1652	6018
552.6467	6111
555.1255	6062
557.6016	6079
560.079	6044
562.5557	6101
565.0318	6110
567.5092	6213
569.984	6099
572.456	6239
574.9294	6238
577.4022	6272
579.8762	6279
582.3456	6308
584.8163	6269
587.2863	6281
589.7557	6310
592.2224	6321
594.6924	6286
597.1578	6344
599.6245	6258
602.0905	6218
604.5538	6270
607.0206	6299
609.4825	6293
611.9459	6334
614.4066	6289
616.8686	6242
619.33	6308
621.7906	6211
624.2487	6275
626.708	6323
629.1647	6236
631.6207	6274
634.0801	6254
636.5348	6198
638.9888	6374
641.4442	6242
643.8969	6269
646.3509	6228
648.8022	6380
651.255	6332
653.705	6425
656.1544	6249
658.6031	6392
661.0532	6403
663.5026	6426
665.9493	6465
668.3954	6430
670.8409	6390
673.2877	6413
675.7318	6396
678.1752	6444
680.618	6493
683.0601	6466
685.5035	6573
687.9444	6648
690.3845	6536
692.824	6552
695.2628	6601
697.701	6700
700.1406	6567
702.5774	6494
705.0116	6631
707.4472	6568
709.8821	6549
712.3183	6608
714.7519	6581
717.1829	6640
719.6151	6626
722.0468	6610
724.4777	6739
726.908	6871
729.3377	6623
731.7667	6810
734.1931	6822
736.6208	6821
739.0498	6806
741.4742	6775
743.9	6720
746.3231	6705
748.7476	6883
751.1713	6911
753.5945	6953
756.015	6891
758.4368	6952
760.856	6958
763.2766	7021
765.6965	6972
768.1157	6931
770.5323	7053
772.9483	6932
775.3656	6986
777.7822	6785
780.1963	6964
782.6116	6986
785.0244	7035
787.4365	7015
789.8499	7116
792.2626	6983
794.6728	6915
797.0823	6973
799.4911	7050
801.8994	7007
804.3109	7157
806.7178	7028
809.124	7045
811.5297	7011
813.9347	7149
816.341	7040
818.7447	7082
821.1478	7020
823.5502	7013
825.952	6967
828.3531	7028
830.7556	7171
833.1554	6994
835.5546	7181
837.9532	7184
840.3511	7058
842.7504	7149
845.1451	7169
847.5411	7267
849.9365	7208
852.3312	7264
854.7272	7198
857.1187	7237
859.5115	7227
861.9037	7225
864.2952	7280
866.6842	7192
869.0764	7300
871.4661	7241
873.8531	7298
876.2415	7168
878.6272	7211
881.0162	7177
883.4026	7157
885.7866	7210
888.1717	7283
890.5543	7230
892.9382	7214
895.3215	7296
897.7041	7281
900.0842	7109
902.4655	7243
904.8443	7216
907.2244	7196
909.6039	7197
911.9808	7284
914.357	7291
916.7346	7336
919.1115	7274
921.4859	7343
923.8616	7451
926.2347	7555
928.6071	7360
930.979	7316
933.3541	7496
935.7247	7458
938.0946	7622
940.4639	7585
942.8326	7469
945.2026	7574
947.5701	7735
949.9369	7827
952.305	7939
954.6705	8031
957.0355	8286
959.4017	8284
961.7654	8403
964.1284	8319
966.4908	8335
968.8527	8111
971.2138	8064
973.5743	7855
975.9343	7660
978.2936	7553
980.6522	7545
983.0122	7457
985.3696	7522
987.7245	7433
990.0807	7424
992.4362	7494
994.7911	7502
997.1474	7490
999.4991	7368
1001.852	7496
1004.205	7597
1006.555	7496
1008.908	7507
1011.258	7415
1013.606	7486
1015.956	7530
1018.302	7363
1020.652	7539
1022.998	7596
1025.345	7590
1027.691	7526
1030.035	7603
1032.378	7511
1034.724	7675
1037.066	7650
1039.409	7634
1041.75	7617
1044.092	7624
1046.433	7446
1048.771	7598
1051.112	7596
1053.449	7675
1055.786	7657
1058.124	7627
1060.462	7649
1062.797	7660
1065.131	7679
1067.467	7672
1069.8	7685
1072.135	7737
1074.467	7783
1076.798	7794
1079.129	7670
1081.459	7627
1083.792	7767
1086.121	7580
1088.449	7648
1090.777	7621
1093.104	7728
1095.431	7650
1097.759	7617
1100.084	7721
1102.408	7665
1104.732	7609
1107.056	7737
1109.379	7696
1111.701	7740
1114.022	7719
1116.343	7802
1118.664	7730
1120.983	7867
1123.303	7628
1125.621	7746
1127.939	7738
1130.256	7748
1132.573	7818
1134.889	7780
1137.205	7659
1139.52	7683
1141.832	7783
1144.146	7721
1146.461	7686
1148.771	7811
1151.083	7657
1153.392	7737
1155.703	7652
1158.011	7687
1160.323	7762
1162.629	7753
1164.938	7738
1167.243	7712
1169.55	7811
1171.857	7741
1174.163	7764
1176.466	7717
1178.769	7689
1181.073	7761
1183.374	7691
1185.677	7734
1187.979	7689
1190.279	7757
1192.578	7739
1194.878	7806
1197.178	7814
1199.476	7773
1201.772	7681
1204.068	7766
1206.366	7675
1208.663	7836
1210.957	7647
1213.251	7763
1215.544	7695
1217.836	7876
1220.128	7895
1222.421	7844
1224.712	7882
1227.002	7851
1229.292	7866
1231.581	7929
1233.871	7958
1236.159	7917
1238.446	8026
1240.732	7906
1243.018	8048
1245.304	7927
1247.59	8092
1249.874	8026
1252.156	8001
1254.439	8031
1256.721	8037
1259.005	8026
1261.286	7941
1263.565	8106
1265.845	8029
1268.125	7958
1270.403	7988
1272.682	8052
1274.959	8080
1277.234	8002
1279.511	7953
1281.787	7947
1284.062	8030
1286.337	7945
1288.609	7938
1290.882	7900
1293.153	7948
1295.428	8007
1297.698	8009
1299.969	7909
1302.237	8043
1304.507	7899
1306.777	7883
1309.044	7811
1311.312	7999
1313.578	7975
1315.844	7880
1318.109	7940
1320.375	7861
1322.638	7832
1324.903	7979
1327.165	7853
1329.427	7978
1331.69	7893
1333.952	7948
1336.212	7952
1338.471	8050
1340.73	7930
1342.988	8142
1345.248	8003
1347.505	7847
1349.763	7958
1352.019	7896
1354.274	7994
1356.53	8010
1358.784	7850
1361.038	7956
1363.291	7979
1365.543	7909
1367.797	7939
1370.048	8037
1372.296	7918
1374.546	8088
1376.796	7990
1379.045	7991
1381.295	7893
1383.542	8038
1385.787	7913
1388.034	8023
1390.28	8129
1392.527	8057
1394.772	7963
1397.014	8108
1399.258	8018
1401.501	8076
1403.741	8010
1405.985	8160
1408.226	8025
1410.465	8030
1412.705	8061
1414.943	8164
1417.184	8190
1419.42	8084
1421.658	8069
1423.894	8127
1426.13	8046
1428.366	8118
1430.602	8015
1432.835	8249
1435.069	8270
1437.301	8107
1439.535	8258
1441.767	8267
1443.997	8238
1446.229	8201
1448.458	8257
1450.687	8419
1452.916	8359
1455.146	8257
1457.372	8337
1459.599	8202
1461.824	8233
1464.051	8286
1466.277	8287
1468.501	8298
1470.725	8166
1472.948	8152
1475.17	8151
1477.393	8230
1479.614	8183
1481.837	8172
1484.057	8089
1486.276	8132
1488.497	8102
1490.715	8130
1492.932	8010
1495.148	8141
1497.364	7865
1499.58	8115
1501.798	8006
1504.012	8033
1506.227	7986
1508.44	7895
1510.653	8013
1512.866	8034
1515.078	8048
1517.289	8026
1519.5	8019
1521.711	7981
1523.92	8034
1526.13	7946
1528.338	8045
1530.544	8075
1532.752	7965
1534.959	8066
1537.165	7849
1539.371	8047
1541.574	8002
1543.779	7965
1545.983	8001
1548.187	8094
1550.39	7944
1552.59	8158
1554.792	8220
1556.991	8012
1559.19	8050
1561.392	8112
1563.59	8230
1565.789	8134
1567.986	8182
1570.182	8216
1572.381	8086
1574.576	8175
1576.771	8163
1578.966	8334
1581.16	8202
1583.354	8273
1585.546	8276
1587.74	8310
1589.931	8384
1592.121	8279
1594.311	8307
1596.502	8361
1598.693	8329
1600.881	8401
1603.069	8148
1605.256	8256
1607.445	8305
1609.631	8391
1611.816	8370
1614.001	8345
1616.186	8436
1618.37	8333
1620.555	8205
1622.737	8350
1624.919	8217
1627.101	8327
1629.282	8303
1631.463	8321
1633.643	8421
1635.822	8384
1638.001	8394
1640.179	8322
1642.359	8540
1644.534	8313
1646.711	8457
1648.887	8389
1651.062	8483
1653.235	8535
1655.412	8397
1657.586	8285
1659.757	8580
1661.93	8459
1664.1	8356
1666.274	8456
1668.445	8453
1670.614	8426
1672.784	8526
1674.951	8531
1677.12	8485
1679.289	8508
1681.457	8524
1683.622	8473
1685.789	8588
1687.953	8399
1690.121	8388
1692.284	8375
1694.447	8419
1696.611	8280
1698.772	8533
1700.935	8294
1703.098	8365
1705.258	8428
1707.417	8413
1709.576	8328
1711.736	8439
1713.896	8442
1716.053	8367
1718.21	8313
1720.366	8249
1722.522	8415
1724.68	8250
1726.835	8365
1728.989	8387
1731.142	8396
1733.295	8338
1735.449	8316
1737.601	8379
1739.753	8385
1741.903	8485
1744.054	8371
1746.203	8367
1748.354	8322
1750.503	8414
1752.651	8442
1754.798	8364
1756.944	8435
1759.092	8445
1761.238	8293
1763.383	8465
1765.528	8344
1767.672	8455
1769.814	8444
1771.959	8368
1774.102	8285
1776.242	8570
1778.384	8655
1780.525	8523
1782.665	8399
1784.805	8516
1786.945	8537
1789.082	8455
1791.22	8483
1793.36	8612
1795.495	8449
1797.632	8610
1799.766	8582
1801.902	8436
1804.035	8524
1806.172	8437
1808.304	8505
1810.436	8539
1812.569	8535
1814.699	8490
1816.833	8508
1818.963	8400
1821.092	8412
1823.222	8580
1825.35	8492
1827.478	8511
1829.608	8423
1831.734	8460
1833.86	8654
1835.986	8475
1838.11	8455
1840.238	8502
1842.362	8487
1844.485	8352
1846.608	8465
1848.73	8398
1850.853	8392
1852.974	8539
1855.097	8426
1857.217	8522
1859.336	8550
1861.455	8467
1863.576	8413
1865.693	8519
1867.811	8517
1869.926	8432
1872.042	8520
1874.16	8552
1876.275	8448
1878.39	8487
1880.504	8528
1882.618	8432
1884.731	8385
1886.843	8395
1888.956	8519
1891.067	8546
1893.178	8604
1895.287	8472
1897.399	8413
1899.508	8612
1901.617	8565
1903.724	8567
1905.832	8629
1907.941	8540
1910.046	8752
1912.152	8586
1914.256	8673
1916.361	8681
1918.464	8725
1920.57	8644
1922.672	8611
1924.775	8622
1926.876	8725
1928.978	8570
1931.08	8624
1933.181	8664
1935.28	8680
1937.38	8629
1939.478	8525
1941.577	8649
1943.675	8584
1945.771	8660
1947.867	8636
1949.964	8590
1952.058	8722
1954.154	8560
1956.248	8694
1958.343	8679
1960.435	8620
1962.527	8763
1964.62	8666
1966.711	8634
1968.802	8548
1970.892	8652
1972.983	8800
1975.072	8588
1977.162	8582
1979.25	8560
1981.337	8573
1983.424	8526
1985.51	8556
1987.598	8556
1989.683	8464
1991.768	8483
1993.852	8658
1995.934	8631
1998.019	8500
2000.102	8428
2002.184	8635
2004.266	8485
2006.347	8518
2008.427	8589
2010.508	8471
2012.587	8554
2014.666	8594
2016.745	8520
2018.821	8614
2020.9	8439
2022.977	8488
2025.052	8397
2027.128	8611
2029.204	8619
2031.277	8534
2033.353	8599
2035.425	8553
2037.499	8491
2039.57	8490
2041.642	8484
2043.714	8578
2045.786	8643
2047.855	8520
2049.925	8622
2051.993	8427
2054.064	8516
2056.132	8586
2058.2	8544
2060.266	8434
2062.332	8424
2064.398	8579
2066.465	8630
2068.529	8729
2070.592	8495
2072.657	8583
2074.719	8710
2076.783	8611
2078.845	8501
2080.907	8553
2082.968	8484
2085.028	8469
2087.087	8476
2089.148	8573
2091.207	8576
2093.264	8710
2095.322	8519
2097.379	8544
2099.439	8524
2101.495	8545
2103.55	8651
2105.605	8457
2107.658	8469
2109.713	8490
2111.767	8526
2113.82	8706
2115.872	8612
2117.924	8573
2119.975	8467
2122.028	8394
2124.078	8605
2126.126	8575
2128.176	8655
2130.225	8568
2132.275	8573
2134.321	8521
2136.368	8476
2138.415	8607
2140.461	8554
2142.505	8700
2144.552	8477
2146.597	8483
2148.64	8431
2150.684	8444
2152.725	8640
2154.77	8458
2156.811	8529
2158.852	8406
2160.894	8415
2162.933	8453
2164.973	8374
2167.013	8561
2169.051	8434
2171.089	8385
2173.126	8435
2175.164	8510
2177.201	8472
2179.236	8407
2181.273	8420
2183.307	8371
2185.341	8483
2187.377	8474
2189.41	8334
2191.442	8477
2193.473	8322
2195.506	8374
2197.539	8362
2199.569	8353
2201.598	8410
2203.628	8381
2205.656	8418
2207.686	8326
2209.716	8370
2211.743	8401
2213.769	8347
2215.796	8237
2217.821	8356
2219.848	8295
2221.873	8297
2223.897	8251
2225.921	8343
2227.944	8424
2229.967	8195
2231.991	8267
2234.011	8368
2236.032	8432
2238.053	8113
2240.073	8286
2242.094	8259
2244.114	8291
2246.131	8396
2248.149	8228
2250.167	8456
2252.186	8265
2254.201	8253
2256.218	8380
2258.233	8331
2260.247	8359
2262.262	8216
2264.278	8341
2266.29	8288
2268.303	8246
2270.315	8221
2272.327	8193
2274.341	8347
2276.35	8323
2278.361	8268
2280.37	8242
2282.38	8292
2284.388	8408
2286.397	8442
2288.405	8300
2290.412	8324
2292.419	8318
2294.425	8224
2296.431	8276
2298.437	8316
2300.441	8166
2302.445	8211
2304.449	8234
2306.453	8260
2308.455	8222
2310.457	8285
2312.459	8346
2314.46	8274
2316.46	8325
2318.461	8358
2320.46	8344
2322.458	8259
2324.458	8367
2326.456	8303
2328.455	8252
2330.451	8197
2332.447	8075
2334.443	8238
2336.438	8222
2338.433	8150
2340.429	8048
2342.422	8300
2344.416	8281
2346.408	8230
2348.399	8200
2350.393	8128
2352.384	8190
2354.375	8236
2356.365	8089
2358.355	8162
2360.344	8213
2362.333	8121
2364.322	8134
2366.309	8117
2368.295	8121
2370.282	8109
2372.27	8263
2374.256	8104
2376.24	8086
2378.225	8092
2380.208	8167
2382.194	8052
2384.177	8047
2386.159	8124
2388.142	8114
2390.122	8067
2392.105	8060
2394.085	8059
2396.066	8033
2398.044	7991
2400.024	8122
2402.002	7897
2403.982	8043
2405.959	8056
2407.935	8201
2409.913	8109
2411.888	7946
2413.865	8050
2415.84	8126
2417.814	8088
2419.788	8007
2421.762	8020
2423.735	8035
2425.708	7994
2427.68	7982
2429.651	8134
2431.623	8068
2433.593	8044
2435.564	7975
2437.533	8036
2439.502	8043
2441.47	7947
2443.438	8099
2445.406	8067
2447.373	7896
2449.34	8031
2451.305	7870
2453.271	8010
2455.235	7951
2457.201	7998
2459.165	7994
2461.129	8137
2463.092	8002
2465.054	8026
2467.018	8127
2468.978	8045
2470.939	7972
2472.899	7989
2474.86	7964
2476.819	7959
2478.778	7879
2480.737	7941
2482.695	7851
2484.653	7943
2486.609	7932
2488.567	7973
2490.524	7900
2492.478	7900
2494.433	7941
2496.387	7884
2498.343	7924
2500.297	7992
2502.249	7983
2504.202	7889
2506.153	7948
2508.105	7993
2510.057	7853
2512.008	7942
2513.957	7838
2515.906	7785
2517.855	7879
2519.805	7750
2521.754	7906
2523.7	7867
2525.647	7789
2527.594	7850
2529.54	7784
2531.486	7923
2533.431	7888
2535.376	7876
2537.32	7883
2539.263	7792
2541.207	7866
2543.151	7924
2545.093	7917
2547.034	7759
2548.975	7888
2550.917	7859
2552.856	7783
2554.796	8037
2556.735	7892
2558.673	7867
2560.611	7986
2562.55	7793
2564.487	7900
2566.424	7857
2568.36	7862
2570.296	7813
2572.232	7825
2574.167	7814
2576.101	7845
2578.035	7873
2579.969	8013
2581.902	7803
2583.834	7852
2585.766	8001
2587.698	7791
2589.628	7894
2591.557	7740
2593.489	7843
2595.419	7770
2597.348	7880
2599.275	7882
2601.204	7889
2603.131	7758
2605.059	7770
2606.986	7884
2608.911	7960
2610.837	7906
2612.76	7789
2614.687	7880
2616.61	7795
2618.534	7863
2620.457	7832
2622.38	7846
2624.302	7959
2626.225	7854
2628.145	7765
2630.067	7909
2631.986	7924
2633.906	7869
2635.827	7961
2637.745	7744
2639.662	7857
2641.581	7847
2643.498	7905
2645.415	7872
2647.331	8039
2649.248	7778
2651.163	7924
2653.077	7894
2654.993	7832
2656.906	7800
2658.821	7880
2660.733	7766
2662.646	7939
2664.557	7814
2666.47	7845
2668.381	7841
2670.291	7789
2672.201	7811
2674.11	7834
2676.021	7864
2677.929	7809
2679.837	7758
2681.745	7768
2683.652	7745
2685.56	7714
2687.466	7796
2689.371	7853
2691.276	7792
2693.181	7704
2695.085	7922
2696.991	7794
2698.893	7754
2700.796	7688
2702.698	7674
2704.601	7636
2706.502	7589
2708.404	7760
2710.304	7612
2712.203	7656
2714.103	7648
2716.003	7759
2717.902	7657
2719.8	7702
2721.697	7617
2723.594	7565
2725.49	7636
2727.389	7508
2729.283	7702
2731.179	7541
2733.073	7505
2734.968	7642
2736.863	7652
2738.757	7588
2740.649	7477
2742.541	7670
2744.433	7560
2746.324	7658
2748.216	7680
2750.107	7559
2751.997	7576
2753.886	7591
2755.776	7452
2757.666	7620
2759.553	7544
2761.44	7354
2763.327	7596
2765.215	7561
2767.102	7467
2768.988	7453
2770.873	7566
2772.757	7548
2774.641	7519
2776.525	7525
2778.41	7537
2780.292	7505
2782.175	7513
2784.057	7607
2785.938	7466
2787.821	7442
2789.701	7542
2791.581	7533
2793.461	7472
2795.34	7366
2797.219	7560
2799.099	7457
2800.975	7399
2802.853	7453
2804.73	7447
2806.606	7409
2808.484	7420
2810.358	7413
2812.233	7448
2814.108	7364
2815.981	7445
2817.857	7337
2819.73	7360
2821.602	7536
2823.474	7233
2825.346	7345
2827.217	7406
2829.089	7449
2830.959	7391
2832.829	7344
2834.698	7543
2836.567	7310
2838.436	7450
2840.305	7364
2842.172	7382
2844.04	7439
2845.905	7532
2847.772	7345
2849.639	7452
2851.503	7379
2853.369	7386
2855.232	7501
2857.096	7427
2858.961	7426
2860.824	7471
2862.686	7406
2864.547	7473
2866.41	7460
2868.272	7395
2870.132	7463
2871.992	7544
2873.851	7608
2875.711	7589
2877.57	7700
2879.429	7647
2881.287	7644
2883.144	7642
2885.001	7883
2886.857	7859
2888.714	7771
2890.57	7813
2892.425	7686
2894.279	7677
2896.133	7751
2897.987	7707
2899.842	7749
2901.694	7585
2903.547	7677
2905.397	7586
2907.249	7565
2909.101	7664
2910.952	7574
2912.802	7827
2914.652	7672
2916.5	7754
2918.35	7835
2920.198	7909
2922.045	7773
2923.893	7916
2925.74	7910
2927.585	7935
2929.433	7986
2931.279	8185
2933.123	8005
2934.968	8021
2936.811	8179
2938.656	8152
2940.5	8143
2942.342	8234
2944.185	8270
2946.026	8082
2947.87	8160
2949.71	8347
2951.549	8214
2953.39	8226
2955.229	8135
2957.069	8171
2958.908	8147
2960.746	7893
2962.584	7917
2964.421	7895
2966.257	7851
2968.094	7766
2969.931	7743
2971.766	7755
2973.601	7707
2975.435	7668
2977.27	7691
2979.105	7609
2980.938	7723
2982.77	7559
2984.602	7789
2986.434	7645
2988.267	7526
2990.097	7564
2991.927	7541
2993.757	7390
2995.587	7447
2997.417	7418
2999.246	7426
3001.074	7295
3002.902	7319
3004.729	7357
3006.556	7187
3008.384	7242
3010.21	7178
3012.036	7100
3013.861	7111
3015.684	7122
3017.51	7055
3019.334	7073
3021.157	7028
3022.981	6993
3024.802	7001
3026.624	7013
3028.448	6869
3030.267	6889
3032.088	6867
3033.909	6899
3035.728	6931
3037.549	6813
3039.368	6902
3041.186	6842
3043.004	6739
3044.821	6880
3046.64	6764
3048.455	6928
3050.272	6748
3052.087	6897
3053.903	6829
3055.717	6770
3057.534	6811
3059.347	6786
3061.16	6821
3062.974	6751
3064.785	6688
3066.598	6913
3068.411	6818
3070.222	6738
3072.032	6816
3073.844	6761
3075.653	6766
3077.463	6840
3079.272	6678
3081.08	6693
3082.889	6687
3084.697	6662
3086.505	6804
3088.312	6759
3090.118	6785
3091.924	6609
3093.729	6564
3095.535	6642
3097.34	6636
3099.144	6728
3100.947	6529
3102.75	6709
3104.553	6695
3106.357	6607
3108.159	6572
3109.961	6601
3111.762	6577
3113.562	6634
3115.365	6642
3117.164	6564
3118.964	6607
3120.761	6581
3122.56	6557
3124.36	6530
3126.158	6604
3127.954	6584
3129.75	6558
3131.547	6470
3133.343	6461
3135.139	6556
3136.934	6686
3138.729	6532
3140.522	6386
3142.317	6439
3144.11	6440
3145.904	6518
3147.695	6471
3149.488	6470
3151.28	6490
3153.07	6466
3154.863	6436
3156.652	6520
3158.441	6451
3160.231	6436
3162.019	6373
3163.81	6420
3165.597	6437
3167.384	6452
3169.172	6338
3170.958	6387
3172.745	6353
3174.532	6414
3176.317	6402
3178.101	6460
3179.885	6417
3181.67	6315
3183.455	6343
3185.238	6381
3187.02	6330
3188.802	6380
3190.585	6488
3192.368	6353
3194.149	6302
3195.929	6330
3197.709	6352
3199.489	6331
3201.268	6264
3203.048	6246
3204.826	6243
3206.604	6268
3208.382	6288
3210.159	6354
3211.937	6326
3213.713	6377
3215.489	6393
3217.263	6237
3219.038	6306
3220.815	6321
3222.589	6386
3224.363	6320
3226.136	6349
3227.908	6305
3229.681	6276
3231.454	6411
3233.226	6138
3234.996	6233
3236.767	6287
3238.538	6235
3240.308	6215
3242.078	6287
3243.847	6241
3245.615	6141
3247.384	6258
3249.15	6224
3250.92	6146
3252.686	6244
3254.453	6147
3256.218	6309
3257.984	6241
3259.75	6217
3261.515	6249
3263.279	6277
3265.044	6203
3266.806	6327
3268.57	6149
3270.334	6152
3272.095	6142
3273.856	6325
3275.619	6184
3277.379	6152
3279.14	6224
3280.9	6183
3282.661	6225
3284.419	6259
3286.178	6244
3287.937	6221
3289.695	6170
3291.453	6213
3293.21	6228
3294.967	6149
3296.723	6202
3298.48	6160
3300.235	6222
3301.99	6241
3303.744	6123
3305.498	6122
3307.253	6140
3309.006	6285
3310.759	6291
3312.511	6197
3314.263	6251
3316.017	6158
3317.768	6130
3319.519	6080
3321.268	6308
3323.018	6154
3324.767	6104
3326.518	6178
3328.267	6187
3330.014	6178
3331.762	6142
3333.509	6165
3335.258	6189
3337.003	6139
3338.75	6210
3340.496	6176
3342.24	6218
3343.987	6128
3345.732	6139
3347.475	6085
3349.219	6141
3350.961	5973
3352.705	6084
3354.448	6059
3356.19	5968
3357.931	6021
3359.672	6010
3361.412	5975
3363.155	6152
3364.894	6028
3366.633	5965
3368.372	5978
3370.11	6182
3371.849	6009
3373.588	6071
3375.325	6074
3377.061	5977
3378.799	5966
3380.534	6083
3382.271	5910
3384.006	5964
3385.741	5989
3387.475	5961
3389.209	5957
3390.944	5865
3392.677	6066
3394.409	5802
3396.143	6044
3397.874	6011
3399.606	5803
3401.338	5840
3403.069	5875
3404.799	5884
3406.528	5996
3408.258	5865
3409.988	5851
3411.717	5916
3413.445	5853
3415.173	5907
3416.899	5846
3418.626	5907
3420.354	5947
3422.08	5957
3423.806	5918
3425.531	5979
3427.255	5847
3428.981	5845
3430.705	5872
3432.429	5838
3434.151	5926
3435.875	5764
3437.599	5790
3439.321	5871
3441.042	5858
3442.763	5706
3444.483	5706
3446.204	5816
3447.926	5731
3449.645	5833
3451.364	5796
3453.082	5736
3454.801	5825
3456.52	5692
3458.238	5764
3459.954	5750
3461.671	5771
3463.387	5709
3465.104	5768
3466.82	5630
3468.534	5647
3470.25	5709
3471.963	5647
3473.676	5527
3475.392	5731
3477.104	5619
3478.817	5668
3480.528	5563
3482.241	5603
3483.954	5627
3485.664	5727
3487.374	5550
3489.084	5540
3490.795	5513
3492.504	5584
3494.214	5578
3495.922	5513
3497.63	5596
3499.338	5584
3501.045	5544
3502.753	5572
3504.459	5568
3506.166	5633
3507.871	5595
3509.576	5584
3511.283	5539
3512.987	5564
3514.691	5537
3516.395	5513
3518.098	5447
3519.8	5546
3521.504	5563
3523.206	5438
3524.908	5558
3526.609	5418
3528.309	5301
3530.011	5465
3531.711	5561
3533.411	5450
3535.109	5410
3536.808	5424
3538.507	5478
3540.206	5356
3541.904	5359
3543.601	5422
3545.297	5431
3546.994	5416
3548.69	5307
3550.387	5371
3552.081	5460
3553.776	5319
3555.47	5444
3557.166	5341
3558.859	5322
3560.553	5387
3562.245	5371
3563.938	5406
3565.629	5386
3567.322	5436
3569.014	5328
3570.704	5235
3572.394	5242
3574.084	5379
3575.775	5382
3577.464	5470
3579.152	5249
3580.842	5292
3582.529	5247
3584.216	5270
3585.905	5228
3587.591	5235
3589.279	5149
3590.964	5269
3592.649	5257
3594.336	5311
3596.021	5274
3597.705	5253
3599.388	5280
3601.072	5125
3602.757	5204
3604.439	5131
3606.122	5119
3607.803	5276
3609.485	5169
3611.167	5046
3612.849	5147
3614.529	5157
3616.208	5079
3617.888	5078
3619.567	5180
3621.247	5076
3622.926	5089
3624.603	5097
3626.281	5032
3627.958	5061
3629.635	5067
3631.312	5096
3632.989	5093
3634.665	5062
3636.339	5049
3638.014	5108
3639.691	5096
3641.364	5101
3643.038	5050
3644.71	4951
3646.384	5093
3648.058	5074
3649.729	5038
3651.402	4951
3653.073	5119
3654.744	5015
3656.414	5081
3658.085	4846
3659.755	4950
3661.424	5050
3663.094	5032
3664.762	4962
3666.431	5004
3668.099	5018
3669.766	5010
3671.433	4977
3673.099	4901
3674.768	4897
3676.433	4920
3678.098	4967
3679.763	4957
3681.428	4994
3683.093	4928
3684.757	4819
3686.421	4923
3688.083	4810
3689.746	4900
3691.408	4973
3693.071	4941
3694.733	4932
3696.394	4867
3698.054	4896
3699.715	4960
3701.375	4892
3703.036	4954
3704.695	4885
3706.354	4895
3708.012	4861
3709.67	4850
3711.329	4925
3712.987	4828
3714.644	4981
3716.299	4885
3717.955	4872
3719.613	4923
3721.268	4854
3722.923	4832
3724.577	4771
3726.231	4853
3727.885	4950
3729.539	4831
3731.192	4849
3732.845	4813
3734.497	4830
3736.149	4844
3737.802	4834
3739.453	4675
3741.104	4755
3742.753	4790
3744.404	4931
3746.052	4788
3747.704	4732
3749.352	4795
3751	4744
3752.648	4735
3754.296	4778
3755.944	4736
3757.59	4708
3759.238	4792
3760.883	4703
3762.528	4692
3764.176	4720
3765.82	4755
3767.464	4814
3769.109	4602
3770.753	4714
3772.396	4680
3774.04	4754
3775.683	4657
3777.325	4724
3778.967	4664
3780.608	4724
3782.25	4805
3783.89	4735
3785.531	4568
3787.17	4534
3788.81	4589
3790.45	4663
3792.09	4627
3793.729	4676
3795.366	4597
3797.003	4637
3798.64	4552
3800.278	4680
3801.915	4595
3803.551	4572
3805.187	4619
3806.822	4613
3808.458	4621
3810.093	4573
3811.726	4575
3813.36	4620
3814.994	4524
3816.627	4603
3818.262	4550
3819.893	4623
3821.525	4553
3823.157	4574
3824.787	4528
3826.42	4578
3828.051	4557
3829.68	4531
3831.31	4523
3832.938	4603
3834.569	4617
3836.198	4568
3837.825	4531
3839.454	4508
3841.08	4533
3842.708	4597
3844.335	4482
3845.962	4509
3847.587	4508
3849.212	4561
3850.838	4480
3852.463	4469
3854.089	4511
3855.712	4419
3857.335	4456
3858.959	4428
3860.582	4488
3862.205	4473
3863.827	4467
3865.449	4536
3867.07	4444
3868.691	4501
3870.312	4516
3871.933	4386
3873.553	4406
3875.173	4474
3876.792	4489
3878.411	4433
3880.03	4426
3881.647	4424
3883.265	4378
3884.882	4370
3886.499	4351
3888.116	4398
3889.732	4421
3891.348	4420
3892.964	4374
3894.579	4403
3896.195	4337
3897.809	4408
3899.423	4295
3901.036	4337
3902.648	4303
3904.261	4392
3905.875	4336
3907.487	4349
3909.099	4402
3910.709	4345
3912.321	4357
3913.933	4447
3915.542	4358
3917.152	4320
3918.762	4322
3920.37	4334
3921.98	4349
3923.589	4362
3925.196	4293
3926.804	4273
3928.41	4243
3930.018	4319
3931.626	4348
3933.231	4340
3934.838	4298
3936.442	4322
3938.046	4253
3939.653	4320
3941.257	4268
3942.861	4306
3944.464	4177
3946.068	4327
3947.67	4258
3949.273	4319
3950.876	4339
3952.477	4314
3954.078	4163
3955.678	4336
3957.281	4305
3958.881	4212
3960.48	4257
3962.079	4271
3963.678	4174
3965.279	4178
3966.877	4241
3968.475	4154
3970.072	4250
3971.669	4153
3973.266	4237
3974.864	4188
3976.459	4181
3978.055	4078
3979.65	4158
3981.245	4168
3982.841	4066
3984.436	4155
3986.03	4162
3987.623	4150
3989.216	4166
3990.809	4181
3992.403	4047
3993.995	4037
3995.586	4207
3997.177	4094
3998.768	4123
4000.361	4153
4001.951	4145
4003.54	4085
4005.13	4078
4006.719	4048
4008.31	4084
4009.897	4208
4011.485	4115
4013.073	4066
4014.66	4110
4016.247	4044
4017.834	3946
4019.421	4093
4021.006	4012
4022.592	3974
4024.178	3945
4025.763	4116
4027.348	3971
4028.932	3946
4030.515	3992
4032.099	3973
4033.682	3948
4035.266	4012
4036.847	3854
4038.429	4034
4040.011	3943
4041.592	3953
4043.173	3960
4044.755	4011
4046.334	3947
4047.913	4039
4049.494	3942
4051.074	3888
4052.652	3968
4054.23	3971
4055.807	3827
4057.385	3943
4058.963	3838
4060.541	3910
4062.117	3951
4063.693	3954
4065.269	3870
4066.844	3864
4068.42	3873
4069.995	3914
4071.569	3855
4073.143	3794
4074.716	3903
4076.291	3905
4077.864	3888
4079.436	3869
4081.009	3862
4082.58	3906
4084.152	3780
4085.723	3716
4087.294	3860
4088.865	3918
4090.435	3809
4092.005	3855
4093.574	3910
4095.143	3792
4096.712	3836
4098.279	3770
4099.848	3787
4101.416	3744
4102.984	3713
4104.55	3742
4106.117	3808
4107.682	3814
4109.248	3794
4110.815	3829
4112.379	3757
4113.945	3834
4115.508	3654
4117.073	3763
4118.637	3778
4120.201	3757
4121.763	3744
4123.325	3768
4124.888	3709
4126.449	3712
4128.013	3710
4129.573	3725
4131.133	3620
4132.694	3722
4134.254	3711
4135.814	3728
4137.374	3694
4138.933	3729
4140.491	3758
4142.049	3616
4143.607	3694
4145.167	3682
4146.724	3725
4148.28	3573
4149.836	3647
4151.392	3582
4152.949	3605
4154.504	3620
4156.059	3673
4157.614	3578
4159.168	3548
4160.723	3597
4162.277	3540
4163.83	3682
4165.383	3656
4166.936	3570
4168.488	3561
4170.041	3624
4171.593	3500
4173.144	3576
4174.695	3613
4176.246	3597
4177.796	3556
4179.346	3556
4180.896	3572
4182.445	3575
4183.994	3595
4185.542	3488
4187.091	3585
4188.639	3550
4190.185	3530
4191.732	3541
4193.279	3529
4194.826	3604
4196.373	3529
4197.918	3517
4199.463	3570
4201.008	3445
4202.553	3501
4204.098	3544
4205.641	3526
4207.185	3537
4208.728	3516
4210.271	3527
4211.814	3496
4213.357	3522
4214.898	3457
4216.439	3446
4217.98	3493
4219.522	3477
4221.062	3430
4222.603	3526
4224.142	3446
4225.681	3465
4227.222	3374
4228.76	3486
4230.298	3538
4231.835	3386
4233.373	3497
4234.911	3477
4236.449	3403
4237.985	3380
4239.521	3426
4241.057	3394
4242.592	3387
4244.128	3389
4245.663	3475
4247.197	3456
4248.731	3447
4250.265	3405
4251.798	3377
4253.333	3373
4254.865	3395
4256.397	3365
4257.93	3357
4259.461	3369
4260.994	3376
4262.525	3311
4264.056	3383
4265.586	3389
4267.115	3422
4268.646	3334
4270.176	3333
4271.705	3357
4273.232	3411
4274.761	3349
4276.289	3347
4277.818	3352
4279.345	3279
4280.872	3372
4282.399	3353
4283.924	3303
4285.452	3331
4286.976	3293
4288.502	3307
4290.026	3368
4291.551	3241
4293.074	3303
4294.6	3284
4296.123	3236
4297.646	3268
4299.168	3199
4300.691	3293
4302.214	3302
4303.736	3268
4305.257	3319
4306.778	3266
4308.299	3307
4309.82	3299
4311.34	3231
4312.86	3345
4314.379	3265
