400.0745	4033
402.597	3992
405.1208	4084
407.6419	3988
410.1623	4047
412.6819	4117
415.201	4101
417.7172	4142
420.2369	4038
422.7538	4202
425.2701	4177
427.7856	4231
430.3005	4247
432.8147	4222
435.3282	4171
437.841	4238
440.3511	4310
442.8625	4300
445.3753	4311
447.8854	4303
450.3927	4280
452.9014	4253
455.4073	4281
457.9146	4238
460.4233	4279
462.9272	4294
465.4325	4298
467.935	4298
470.4389	4215
472.9421	4180
475.4446	4272
477.9444	4291
480.4456	4302
482.944	4366
485.4417	4281
487.9429	4387
490.4393	4370
492.935	4285
495.4321	4474
497.9264	4403
500.4221	4503
502.9171	4383
505.4094	4455
507.9011	4407
510.392	4468
512.8864	4416
515.3759	4378
517.8649	4462
520.3531	4403
522.8406	4451
525.3275	4525
527.8178	4511
530.3033	4458
532.7881	4394
535.2723	4412
537.7558	4475
540.2407	4502
542.7228	4402
545.2043	4437
547.6851	4459
550.1652	4505
552.6467	4482
555.1255	4503
557.6016	4526
560.079	4563
562.5557	4585
565.0318	4558
567.5092	4521
569.984	4614
572.456	4582
574.9294	4534
577.4022	4558
579.8762	4715
582.3456	4642
584.8163	4669
587.2863	4610
589.7557	4661
592.2224	4729
594.6924	4714
597.1578	4715
599.6245	4676
602.0905	4702
604.5538	4678
607.0206	4658
609.4825	4631
611.9459	4700
614.4066	4619
616.8686	4693
619.33	4667
621.7906	4632
624.2487	4696
626.708	4603
629.1647	4670
631.6207	4706
634.0801	4591
636.5348	4682
638.9888	4589
641.4442	4649
643.8969	4755
646.3509	4665
648.8022	4728
651.255	4609
653.705	4636
656.1544	4674
658.6031	4806
661.0532	4725
663.5026	4745
665.9493	4670
668.3954	4648
670.8409	4673
673.2877	4771
675.7318	4728
678.1752	4712
680.618	4705
683.0601	4817
685.5035	4806
687.9444	4817
690.3845	4838
692.824	4853
695.2628	4831
697.701	4830
700.1406	4921
702.5774	4818
705.0116	4850
707.4472	4878
709.8821	4809
712.3183	4869
714.7519	4905
717.1829	4897
719.6151	5010
722.0468	4886
724.4777	4941
726.908	4929
729.3377	5023
731.7667	4960
734.1931	5018
736.6208	5015
739.0498	5090
741.4742	4992
743.9	5005
746.3231	5125
748.7476	5117
751.1713	5162
753.5945	5095
756.015	5126
758.4368	5066
760.856	5115
763.2766	5036
765.6965	5138
768.1157	5076
770.5323	5188
772.9483	5220
775.3656	5107
777.7822	5209
780.1963	5191
782.6116	5251
785.0244	5182
787.4365	5157
789.8499	5182
792.2626	5209
794.6728	5061
797.0823	5152
799.4911	5166
801.8994	5144
804.3109	5142
806.7178	5224
809.124	5188
811.5297	5197
813.9347	5270
816.341	5203
818.7447	5142
821.1478	5289
823.5502	5161
825.952	5312
828.3531	5257
830.7556	5206
833.1554	5243
835.5546	5227
837.9532	5387
840.3511	5248
842.7504	5284
845.1451	5237
847.5411	5338
849.9365	5398
852.3312	5286
854.7272	5327
857.1187	5202
859.5115	5401
861.9037	5384
864.2952	5355
866.6842	5251
869.0764	5272
871.4661	5344
873.8531	5246
876.2415	5274
878.6272	5372
881.0162	5292
883.4026	5358
885.7866	5307
888.1717	5327
890.5543	5307
892.9382	5239
895.3215	5406
897.7041	5351
900.0842	5192
902.4655	5305
904.8443	5411
907.2244	5337
909.6039	5295
911.9808	5428
914.357	5375
916.7346	5445
919.1115	5445
921.4859	5531
923.8616	5632
926.2347	5642
928.6071	5487
930.979	5576
933.3541	5472
935.7247	5618
938.0946	5509
940.4639	5619
942.8326	5512
945.2026	5677
947.5701	5702
949.9369	5833
952.305	5981
954.6705	5985
957.0355	6026
959.4017	6370
961.7654	6415
964.1284	6538
966.4908	6377
968.8527	6320
971.2138	6135
973.5743	5997
975.9343	5811
978.2936	5878
980.6522	5693
983.0122	5560
985.3696	5579
987.7245	5486
990.0807	5500
992.4362	5432
994.7911	5443
997.1474	5524
999.4991	5474
1001.852	5413
1004.205	5533
1006.555	5498
1008.908	5701
1011.258	5507
1013.606	5449
1015.956	5513
1018.302	5510
1020.652	5616
1022.998	5572
1025.345	5560
1027.691	5605
1030.035	5544
1032.378	5549
1034.724	5608
1037.066	5553
1039.409	5543
1041.75	5548
1044.092	5531
1046.433	5568
1048.771	5617
1051.112	5651
1053.449	5493
1055.786	5576
1058.124	5683
1060.462	5652
1062.797	5676
1065.131	5737
1067.467	5678
1069.8	5712
1072.135	5700
1074.467	5755
1076.798	5600
1079.129	5703
1081.459	5673
1083.792	5675
1086.121	5598
1088.449	5734
1090.777	5660
1093.104	5622
1095.431	5608
1097.759	5675
1100.084	5672
1102.408	5658
1104.732	5697
1107.056	5619
1109.379	5711
1111.701	5609
1114.022	5660
1116.343	5693
1118.664	5513
1120.983	5658
1123.303	5690
1125.621	5725
1127.939	5745
1130.256	5690
1132.573	5692
1134.889	5794
1137.205	5640
1139.52	5593
1141.832	5685
1144.146	5529
1146.461	5614
1148.771	5672
1151.083	5615
1153.392	5673
1155.703	5710
1158.011	5692
1160.323	5677
1162.629	5722
1164.938	5670
1167.243	5679
1169.55	5701
1171.857	5766
1174.163	5682
1176.466	5658
1178.769	5569
1181.073	5638
1183.374	5728
1185.677	5675
1187.979	5643
1190.279	5639
1192.578	5649
1194.878	5616
1197.178	5778
1199.476	5787
1201.772	5639
1204.068	5603
1206.366	5698
1208.663	5730
1210.957	5765
1213.251	5811
1215.544	5712
1217.836	5639
1220.128	5689
1222.421	5762
1224.712	5674
1227.002	5645
1229.292	5716
1231.581	5870
1233.871	5836
1236.159	5786
1238.446	5731
1240.732	5895
1243.018	5871
1245.304	5820
1247.59	5858
1249.874	5853
1252.156	5868
1254.439	5888
1256.721	5830
1259.005	5872
1261.286	5866
1263.565	5761
1265.845	5863
1268.125	5807
1270.403	5868
1272.682	5826
1274.959	5810
1277.234	5886
1279.511	5858
1281.787	5836
1284.062	5752
1286.337	5786
1288.609	5739
1290.882	5819
1293.153	5819
1295.428	5847
1297.698	5777
1299.969	5639
1302.237	5884
1304.507	5765
1306.777	5807
1309.044	5718
1311.312	5836
1313.578	5751
1315.844	5824
1318.109	5808
1320.375	5734
1322.638	5794
1324.903	5748
1327.165	5810
1329.427	5691
1331.69	5826
1333.952	5785
1336.212	5735
1338.471	5877
1340.73	5804
1342.988	5836
1345.248	5763
1347.505	5848
1349.763	5755
1352.019	5802
1354.274	5767
1356.53	5789
1358.784	5871
1361.038	5768
1363.291	5749
1365.543	5823
1367.797	5752
1370.048	5724
1372.296	5793
1374.546	5811
1376.796	5822
1379.045	5844
1381.295	5820
1383.542	5762
1385.787	5849
1388.034	5827
1390.28	5900
1392.527	5891
1394.772	6028
1397.014	5954
1399.258	5989
1401.501	5965
1403.741	6009
1405.985	5919
1408.226	6058
1410.465	5951
1412.705	5905
1414.943	5935
1417.184	5913
1419.42	5880
1421.658	5861
1423.894	5965
1426.13	5963
1428.366	5927
1430.602	5997
1432.835	5967
1435.069	6055
1437.301	6001
1439.535	6027
1441.767	6069
1443.997	6000
1446.229	5951
1448.458	6010
1450.687	6097
1452.916	6095
1455.146	6152
1457.372	6147
1459.599	6160
1461.824	6070
1464.051	6072
1466.277	6021
1468.501	6096
1470.725	5910
1472.948	5908
1475.17	5940
1477.393	5951
1479.614	5967
1481.837	5883
1484.057	5938
1486.276	5951
1488.497	5793
1490.715	5887
1492.932	5781
1495.148	5849
1497.364	5837
1499.58	5792
1501.798	5813
1504.012	5857
1506.227	5834
1508.44	5857
1510.653	5775
1512.866	5780
1515.078	5747
1517.289	5733
1519.5	5741
1521.711	5845
1523.92	5833
1526.13	5886
1528.338	5822
1530.544	5749
1532.752	5810
1534.959	5906
1537.165	5798
1539.371	5800
1541.574	5786
1543.779	5757
1545.983	5827
1548.187	5916
1550.39	5940
1552.59	5844
1554.792	5758
1556.991	5840
1559.19	5930
1561.392	5871
1563.59	5836
1565.789	6003
1567.986	5876
1570.182	6008
1572.381	5892
1574.576	5872
1576.771	5966
1578.966	5955
1581.16	5914
1583.354	5897
1585.546	5965
1587.74	6073
1589.931	5970
1592.121	5984
1594.311	5938
1596.502	5952
1598.693	5954
1600.881	5987
1603.069	5939
1605.256	6021
1607.445	5849
1609.631	6005
1611.816	6090
1614.001	5939
1616.186	6114
1618.37	5988
1620.555	5893
1622.737	6021
1624.919	6028
1627.101	5980
1629.282	6103
1631.463	6018
1633.643	6032
1635.822	5951
1638.001	6109
1640.179	6112
1642.359	6051
1644.534	6076
1646.711	6013
1648.887	6022
1651.062	6017
1653.235	6081
1655.412	5976
1657.586	6020
1659.757	6157
1661.93	5992
1664.1	6076
1666.274	6091
1668.445	6036
1670.614	6036
1672.784	6026
1674.951	6084
1677.12	6164
1679.289	6155
1681.457	6096
1683.622	6063
1685.789	6101
1687.953	6089
1690.121	6010
1692.284	5949
1694.447	6009
1696.611	6049
1698.772	6106
1700.935	5997
1703.098	5982
1705.258	6026
1707.417	5936
1709.576	6140
1711.736	5935
1713.896	5888
1716.053	5978
1718.21	5947
1720.366	5991
1722.522	5952
1724.68	5885
1726.835	5950
1728.989	6027
1731.142	5970
1733.295	6018
1735.449	5933
1737.601	5967
1739.753	5995
1741.903	5982
1744.054	5929
1746.203	6030
1748.354	5899
1750.503	6073
1752.651	6007
1754.798	6035
1756.944	5977
1759.092	6050
1761.238	5984
1763.383	6008
1765.528	6028
1767.672	5920
1769.814	6064
1771.959	5967
1774.102	5980
1776.242	6006
1778.384	6036
1780.525	6024
1782.665	6004
1784.805	5979
1786.945	6037
1789.082	6029
1791.22	5995
1793.36	6007
1795.495	6065
1797.632	6196
1799.766	6136
1801.902	6115
1804.035	6080
1806.172	6006
1808.304	6118
1810.436	6090
1812.569	5962
1814.699	6064
1816.833	5981
1818.963	6008
1821.092	6023
1823.222	6029
1825.35	6023
1827.478	5944
1829.608	6044
1831.734	5975
1833.86	6052
1835.986	5854
1838.11	5955
1840.238	5998
1842.362	5963
1844.485	5954
1846.608	5996
1848.73	6126
1850.853	6038
1852.974	6061
1855.097	5992
1857.217	5967
1859.336	5886
1861.455	6075
1863.576	6106
1865.693	6001
1867.811	5956
1869.926	6097
1872.042	5867
1874.16	6022
1876.275	6017
1878.39	6006
1880.504	6112
1882.618	5962
1884.731	5908
1886.843	6010
1888.956	5938
1891.067	6102
1893.178	6138
1895.287	5988
1897.399	5949
1899.508	5992
1901.617	5895
1903.724	6116
1905.832	6097
1907.941	6054
1910.046	6048
1912.152	6033
1914.256	6097
1916.361	6039
1918.464	6168
1920.57	6261
1922.672	5998
1924.775	6044
1926.876	6122
1928.978	6082
1931.08	6136
1933.181	6218
1935.28	6266
1937.38	6109
1939.478	6118
1941.577	6156
1943.675	6137
1945.771	6027
1947.867	6282
1949.964	6102
1952.058	6113
1954.154	6153
1956.248	6049
1958.343	6110
1960.435	6112
1962.527	6161
1964.62	6050
1966.711	6008
1968.802	6120
1970.892	6155
1972.983	6080
1975.072	6137
1977.162	6105
1979.25	6160
1981.337	6082
1983.424	5909
1985.51	6096
1987.598	6116
1989.683	6134
1991.768	6187
1993.852	6117
1995.934	6103
1998.019	6067
2000.102	6116
2002.184	6112
2004.266	6145
2006.347	6097
2008.427	6015
2010.508	6059
2012.587	6042
2014.666	6028
2016.745	6053
2018.821	6127
2020.9	6123
2022.977	6071
2025.052	6007
2027.128	6068
2029.204	6062
2031.277	6090
2033.353	6064
2035.425	6051
2037.499	6124
2039.57	6123
2041.642	6112
2043.714	6116
2045.786	6135
2047.855	6072
2049.925	6083
2051.993	6005
2054.064	6128
2056.132	6040
2058.2	6048
2060.266	6133
2062.332	5995
2064.398	6055
2066.465	6167
2068.529	6103
2070.592	6102
2072.657	6081
2074.719	6079
2076.783	6061
2078.845	6108
2080.907	5970
2082.968	5960
2085.028	6204
2087.087	6119
2089.148	6110
2091.207	6060
2093.264	6072
2095.322	6007
2097.379	6066
2099.439	6055
2101.495	6064
2103.55	5996
2105.605	6041
2107.658	6082
2109.713	6134
2111.767	5935
2113.82	6112
2115.872	6114
2117.924	5959
2119.975	6158
2122.028	6127
2124.078	5943
2126.126	6069
2128.176	6088
2130.225	6027
2132.275	6041
2134.321	6030
2136.368	6004
2138.415	6023
2140.461	6064
2142.505	6083
2144.552	5974
2146.597	6003
2148.64	6121
2150.684	5946
2152.725	5958
2154.77	6077
2156.811	5988
2158.852	5914
2160.894	6031
2162.933	5967
2164.973	5954
2167.013	5992
2169.051	6020
2171.089	6041
2173.126	5966
2175.164	6015
2177.201	6141
2179.236	5979
2181.273	5993
2183.307	5924
2185.341	5928
2187.377	5788
2189.41	6060
2191.442	5969
2193.473	6004
2195.506	5942
2197.539	5882
2199.569	5884
2201.598	5857
2203.628	5917
2205.656	5841
2207.686	5886
2209.716	5887
2211.743	5909
2213.769	5867
2215.796	5895
2217.821	5961
2219.848	5817
2221.873	5927
2223.897	5843
2225.921	5813
2227.944	5899
2229.967	5850
2231.991	5899
2234.011	5941
2236.032	5904
2238.053	5898
2240.073	5840
2242.094	5838
2244.114	5865
2246.131	5805
2248.149	5863
2250.167	5864
2252.186	5800
2254.201	5798
2256.218	5898
2258.233	5848
2260.247	5848
2262.262	5970
2264.278	5892
2266.29	5867
2268.303	5967
2270.315	5834
2272.327	5905
2274.341	5746
2276.35	5842
2278.361	5828
2280.37	5728
2282.38	5840
2284.388	5746
2286.397	5807
2288.405	5800
2290.412	5701
2292.419	5798
2294.425	5704
2296.431	5775
2298.437	5801
2300.441	5819
2302.445	5808
2304.449	5798
2306.453	5855
2308.455	5653
2310.457	5754
2312.459	5875
2314.46	5683
2316.46	5785
2318.461	5635
2320.46	5782
2322.458	5818
2324.458	5792
2326.456	5637
2328.455	5655
2330.451	5704
2332.447	5686
2334.443	5686
2336.438	5801
2338.433	5776
2340.429	5692
2342.422	5697
2344.416	5779
2346.408	5739
2348.399	5775
2350.393	5631
2352.384	5717
2354.375	5698
2356.365	5737
2358.355	5704
2360.344	5568
2362.333	5779
2364.322	5645
2366.309	5600
2368.295	5701
2370.282	5594
2372.27	5615
2374.256	5692
2376.24	5618
2378.225	5588
2380.208	5633
2382.194	5643
2384.177	5628
2386.159	5693
2388.142	5665
2390.122	5598
2392.105	5732
2394.085	5604
2396.066	5544
2398.044	5623
2400.024	5789
2402.002	5519
2403.982	5552
2405.959	5573
2407.935	5532
2409.913	5502
2411.888	5645
2413.865	5605
2415.84	5610
2417.814	5549
2419.788	5688
2421.762	5582
2423.735	5515
2425.708	5647
2427.68	5541
2429.651	5631
2431.623	5562
2433.593	5597
2435.564	5659
2437.533	5496
2439.502	5535
2441.47	5579
2443.438	5710
2445.406	5444
2447.373	5577
2449.34	5529
2451.305	5567
2453.271	5501
2455.235	5535
2457.201	5569
2459.165	5524
2461.129	5417
2463.092	5532
2465.054	5434
2467.018	5445
2468.978	5501
2470.939	5449
2472.899	5524
2474.86	5437
2476.819	5518
2478.778	5562
2480.737	5517
2482.695	5461
2484.653	5568
2486.609	5401
2488.567	5515
2490.524	5501
2492.478	5494
2494.433	5495
2496.387	5474
2498.343	5467
2500.297	5502
2502.249	5451
2504.202	5323
2506.153	5523
2508.105	5427
2510.057	5414
2512.008	5402
2513.957	5456
2515.906	5416
2517.855	5393
2519.805	5452
2521.754	5372
2523.7	5441
2525.647	5383
2527.594	5442
2529.54	5409
2531.486	5324
2533.431	5439
2535.376	5463
2537.32	5325
2539.263	5405
2541.207	5418
2543.151	5347
2545.093	5393
2547.034	5390
2548.975	5447
2550.917	5405
2552.856	5301
2554.796	5520
2556.735	5415
2558.673	5340
2560.611	5451
2562.55	5389
2564.487	5482
2566.424	5279
2568.36	5342
2570.296	5338
2572.232	5452
2574.167	5499
2576.101	5485
2578.035	5350
2579.969	5401
2581.902	5421
2583.834	5417
2585.766	5416
2587.698	5260
2589.628	5450
2591.557	5283
2593.489	5361
2595.419	5402
2597.348	5387
2599.275	5501
2601.204	5337
2603.131	5374
2605.059	5378
2606.986	5485
2608.911	5370
2610.837	5438
2612.76	5413
2614.687	5469
2616.61	5423
2618.534	5489
2620.457	5393
2622.38	5328
2624.302	5363
2626.225	5318
2628.145	5384
2630.067	5407
2631.986	5405
2633.906	5376
2635.827	5398
2637.745	5432
2639.662	5325
2641.581	5446
2643.498	5411
2645.415	5501
2647.331	5415
2649.248	5337
2651.163	5458
2653.077	5415
2654.993	5408
2656.906	5419
2658.821	5398
2660.733	5457
2662.646	5345
2664.557	5408
2666.47	5456
2668.381	5382
2670.291	5353
2672.201	5408
2674.11	5320
2676.021	5336
2677.929	5382
2679.837	5315
2681.745	5368
2683.652	5362
2685.56	5292
2687.466	5248
2689.371	5350
2691.276	5309
2693.181	5314
2695.085	5343
2696.991	5286
2698.893	5323
2700.796	5283
2702.698	5308
2704.601	5210
2706.502	5282
2708.404	5246
2710.304	5262
2712.203	5316
2714.103	5280
2716.003	5308
2717.902	5329
2719.8	5209
2721.697	5298
2723.594	5189
2725.49	5286
2727.389	5275
2729.283	5239
2731.179	5312
2733.073	5151
2734.968	5301
2736.863	5228
2738.757	5222
2740.649	5245
2742.541	5252
2744.433	5220
2746.324	5319
2748.216	5181
2750.107	5216
2751.997	5298
2753.886	5234
2755.776	5225
2757.666	5184
2759.553	5146
2761.44	5256
2763.327	5216
2765.215	5173
2767.102	5200
2768.988	5165
2770.873	5169
2772.757	5158
2774.641	5224
2776.525	5203
2778.41	5139
2780.292	5214
2782.175	5171
2784.057	5215
2785.938	5097
2787.821	5277
2789.701	5080
2791.581	5190
2793.461	5206
2795.34	5135
2797.219	5258
2799.099	5082
2800.975	5233
2802.853	5197
2804.73	5125
2806.606	5097
2808.484	5154
2810.358	5118
2812.233	5094
2814.108	5113
2815.981	5224
2817.857	5153
2819.73	5179
2821.602	5212
2823.474	5135
2825.346	5151
2827.217	5115
2829.089	5094
2830.959	5084
2832.829	5111
2834.698	5103
2836.567	5226
2838.436	5176
2840.305	5098
2842.172	5187
2844.04	5199
2845.905	5223
2847.772	5169
2849.639	5203
2851.503	5135
2853.369	5163
2855.232	5243
2857.096	5158
2858.961	5101
2860.824	5233
2862.686	5206
2864.547	5379
2866.41	5320
2868.272	5245
2870.132	5266
2871.992	5206
2873.851	5383
2875.711	5227
2877.57	5385
2879.429	5393
2881.287	5478
2883.144	5465
2885.001	5418
2886.857	5405
2888.714	5442
2890.57	5481
2892.425	5537
2894.279	5567
2896.133	5550
2897.987	5513
2899.842	5591
2901.694	5517
2903.547	5518
2905.397	5422
2907.249	5444
2909.101	5398
2910.952	5434
2912.802	5462
2914.652	5335
2916.5	5443
2918.35	5441
2920.198	5531
2922.045	5618
2923.893	5558
2925.74	5633
2927.585	5687
2929.433	5687
2931.279	5744
2933.123	5712
2934.968	5704
2936.811	5651
2938.656	5778
2940.5	5761
2942.342	5831
2944.185	5942
2946.026	5833
2947.87	5961
2949.71	5859
2951.549	5897
2953.39	6068
2955.229	5875
2957.069	5861
2958.908	5747
2960.746	5909
2962.584	5786
2964.421	5652
2966.257	5815
2968.094	5665
2969.931	5676
2971.766	5582
2973.601	5506
2975.435	5449
2977.27	5410
2979.105	5337
2980.938	5499
2982.77	5327
2984.602	5376
2986.434	5397
2988.267	5375
2990.097	5343
2991.927	5254
2993.757	5339
2995.587	5269
2997.417	5163
2999.246	5238
3001.074	5208
3002.902	5128
3004.729	5050
3006.556	5133
3008.384	5060
3010.21	4992
3012.036	5027
3013.861	4991
3015.684	5046
3017.51	4890
3019.334	4907
3021.157	4856
3022.981	4987
3024.802	4856
3026.624	4870
3028.448	4846
3030.267	4792
3032.088	4766
3033.909	4856
3035.728	4824
3037.549	4842
3039.368	4709
3041.186	4858
3043.004	4816
3044.821	4804
3046.64	4819
3048.455	4806
3050.272	4788
3052.087	4782
3053.903	4911
3055.717	4792
3057.534	4798
3059.347	4758
3061.16	4842
3062.974	4879
3064.785	4665
3066.598	4727
3068.411	4800
3070.222	4728
3072.032	4693
3073.844	4759
3075.653	4724
3077.463	4692
3079.272	4742
3081.08	4689
3082.889	4699
3084.697	4655
3086.505	4672
3088.312	4717
3090.118	4695
3091.924	4648
3093.729	4709
3095.535	4712
3097.34	4690
3099.144	4660
3100.947	4631
3102.75	4551
3104.553	4650
3106.357	4653
3108.159	4661
3109.961	4607
3111.762	4588
3113.562	4649
3115.365	4616
3117.164	4640
3118.964	4578
3120.761	4663
3122.56	4577
3124.36	4605
3126.158	4567
3127.954	4525
3129.75	4552
3131.547	4538
3133.343	4600
3135.139	4581
3136.934	4576
3138.729	4543
3140.522	4639
3142.317	4527
3144.11	4589
3145.904	4458
3147.695	4496
3149.488	4636
3151.28	4511
3153.07	4586
3154.863	4475
3156.652	4434
3158.441	4515
3160.231	4489
3162.019	4541
3163.81	4487
3165.597	4507
3167.384	4544
3169.172	4545
3170.958	4376
3172.745	4498
3174.532	4483
3176.317	4485
3178.101	4534
3179.885	4526
3181.67	4376
3183.455	4342
3185.238	4434
3187.02	4560
3188.802	4444
3190.585	4457
3192.368	4499
3194.149	4386
3195.929	4473
3197.709	4445
3199.489	4364
3201.268	4448
3203.048	4470
3204.826	4406
3206.604	4435
3208.382	4370
3210.159	4517
3211.937	4370
3213.713	4415
3215.489	4425
3217.263	4420
3219.038	4400
3220.815	4446
3222.589	4334
3224.363	4341
3226.136	4435
3227.908	4381
3229.681	4402
3231.454	4475
3233.226	4372
3234.996	4432
3236.767	4391
3238.538	4264
3240.308	4354
3242.078	4394
3243.847	4394
3245.615	4438
3247.384	4454
3249.15	4438
3250.92	4337
3252.686	4334
3254.453	4433
3256.218	4430
3257.984	4385
3259.75	4374
3261.515	4411
3263.279	4437
3265.044	4327
3266.806	4385
3268.57	4357
3270.334	4397
3272.095	4397
3273.856	4380
3275.619	4362
3277.379	4341
3279.14	4352
3280.9	4440
3282.661	4378
3284.419	4388
3286.178	4508
3287.937	4491
3289.695	4367
3291.453	4356
3293.21	4407
3294.967	4431
3296.723	4328
3298.48	4400
3300.235	4414
3301.99	4366
3303.744	4375
3305.498	4412
3307.253	4383
3309.006	4459
3310.759	4345
3312.511	4387
3314.263	4333
3316.017	4306
3317.768	4337
3319.519	4419
3321.268	4396
3323.018	4370
3324.767	4332
3326.518	4329
3328.267	4300
3330.014	4322
3331.762	4378
3333.509	4349
3335.258	4331
3337.003	4331
3338.75	4306
3340.496	4279
3342.24	4344
3343.987	4333
3345.732	4366
3347.475	4379
3349.219	4241
3350.961	4345
3352.705	4260
3354.448	4365
3356.19	4408
3357.931	4275
3359.672	4281
3361.412	4218
3363.155	4294
3364.894	4359
3366.633	4228
3368.372	4303
3370.11	4152
3371.849	4184
3373.588	4343
3375.325	4291
3377.061	4205
3378.799	4162
3380.534	4293
3382.271	4267
3384.006	4270
3385.741	4258
3387.475	4210
3389.209	4254
3390.944	4139
3392.677	4218
3394.409	4221
3396.143	4242
3397.874	4280
3399.606	4241
3401.338	4261
3403.069	4263
3404.799	4284
3406.528	4198
3408.258	4130
3409.988	4201
3411.717	4274
3413.445	4088
3415.173	4230
3416.899	4220
3418.626	4106
3420.354	4104
3422.08	4139
3423.806	4104
3425.531	4154
3427.255	4110
3428.981	4138
3430.705	4062
3432.429	4157
3434.151	4127
3435.875	4174
3437.599	4116
3439.321	4098
3441.042	4066
3442.763	4164
3444.483	4151
3446.204	4042
3447.926	4042
3449.645	4028
3451.364	4161
3453.082	4088
3454.801	4122
3456.52	4106
3458.238	3987
3459.954	4030
3461.671	4105
3463.387	4038
3465.104	3994
3466.82	4068
3468.534	4005
3470.25	3961
3471.963	4095
3473.676	4048
3475.392	3946
3477.104	4027
3478.817	3990
3480.528	3993
3482.241	3970
3483.954	3950
3485.664	4004
3487.374	4006
3489.084	3984
3490.795	3920
3492.504	3973
3494.214	3946
3495.922	3960
3497.63	3962
3499.338	3936
3501.045	3934
3502.753	3993
3504.459	3928
3506.166	3882
3507.871	3926
3509.576	3849
3511.283	3898
3512.987	3963
3514.691	3871
3516.395	3946
3518.098	3873
3519.8	3821
3521.504	3826
3523.206	3864
3524.908	3866
3526.609	3891
3528.309	3881
3530.011	3847
3531.711	3888
3533.411	3901
3535.109	3846
3536.808	3816
3538.507	3889
3540.206	3904
3541.904	3902
3543.601	3745
3545.297	3820
3546.994	3851
3548.69	3777
3550.387	3805
3552.081	3846
3553.776	3813
3555.47	3809
3557.166	3750
3558.859	3770
3560.553	3800
3562.245	3743
3563.938	3739
3565.629	3841
3567.322	3761
3569.014	3793
3570.704	3725
3572.394	3705
3574.084	3675
3575.775	3764
3577.464	3727
3579.152	3760
3580.842	3761
3582.529	3761
3584.216	3753
3585.905	3681
3587.591	3721
3589.279	3688
3590.964	3730
3592.649	3746
3594.336	3777
3596.021	3733
3597.705	3661
3599.388	3751
3601.072	3649
3602.757	3636
3604.439	3683
3606.122	3661
3607.803	3665
3609.485	3616
3611.167	3562
3612.849	3610
3614.529	3587
3616.208	3661
3617.888	3586
3619.567	3559
3621.247	3605
3622.926	3600
3624.603	3650
3626.281	3652
3627.958	3585
3629.635	3522
3631.312	3671
3632.989	3598
3634.665	3604
3636.339	3428
3638.014	3595
3639.691	3546
3641.364	3511
3643.038	3566
3644.71	3567
3646.384	3522
3648.058	3528
3649.729	3485
3651.402	3607
3653.073	3564
3654.744	3550
3656.414	3462
3658.085	3503
3659.755	3509
3661.424	3506
3663.094	3451
3664.762	3475
3666.431	3501
3668.099	3424
3669.766	3533
3671.433	3565
3673.099	3413
3674.768	3535
3676.433	3459
3678.098	3510
3679.763	3419
3681.428	3475
3683.093	3425
3684.757	3478
3686.421	3468
3688.083	3492
3689.746	3385
3691.408	3452
3693.071	3412
3694.733	3390
3696.394	3406
3698.054	3429
3699.715	3468
3701.375	3466
3703.036	3490
3704.695	3414
3706.354	3450
3708.012	3494
3709.67	3402
3711.329	3464
3712.987	3485
3714.644	3452
3716.299	3407
3717.955	3422
3719.613	3405
3721.268	3411
3722.923	3360
3724.577	3383
3726.231	3427
3727.885	3384
3729.539	3348
3731.192	3431
3732.845	3379
3734.497	3418
3736.149	3439
3737.802	3276
3739.453	3345
3741.104	3359
3742.753	3358
3744.404	3372
3746.052	3361
3747.704	3352
3749.352	3351
3751	3361
3752.648	3341
3754.296	3298
3755.944	3377
3757.59	3338
3759.238	3351
3760.883	3309
3762.528	3293
3764.176	3249
3765.82	3351
3767.464	3292
3769.109	3289
3770.753	3386
3772.396	3314
3774.04	3281
3775.683	3329
3777.325	3337
3778.967	3269
3780.608	3259
3782.25	3238
3783.89	3255
3785.531	3320
3787.17	3271
3788.81	3329
3790.45	3225
3792.09	3254
3793.729	3206
3795.366	3193
3797.003	3290
3798.64	3234
3800.278	3218
3801.915	3189
3803.551	3159
3805.187	3263
3806.822	3197
3808.458	3207
3810.093	3208
3811.726	3206
3813.36	3179
3814.994	3225
3816.627	3183
3818.262	3201
3819.893	3249
3821.525	3192
3823.157	3158
3824.787	3254
3826.42	3232
3828.051	3175
3829.68	3129
3831.31	3212
3832.938	3233
3834.569	3162
3836.198	3162
3837.825	3070
3839.454	3196
3841.08	3152
3842.708	3143
3844.335	3134
3845.962	3145
3847.587	3092
3849.212	3182
3850.838	3192
3852.463	3158
3854.089	3095
3855.712	3093
3857.335	3110
3858.959	3161
3860.582	3128
3862.205	3170
3863.827	3128
3865.449	3106
3867.07	3111
3868.691	3099
3870.312	3084
3871.933	3074
3873.553	3126
3875.173	3091
3876.792	3082
3878.411	3041
3880.03	3049
3881.647	3038
3883.265	3136
3884.882	3083
3886.499	3077
3888.116	3091
3889.732	3113
3891.348	3145
3892.964	3015
3894.579	3094
3896.195	3154
3897.809	3055
3899.423	3043
3901.036	3048
3902.648	3068
3904.261	3069
3905.875	3058
3907.487	3001
3909.099	3074
3910.709	3043
3912.321	2979
3913.933	3091
3915.542	3017
3917.152	3044
3918.762	3107
3920.37	2964
3921.98	3022
3923.589	2976
3925.196	3018
3926.804	3078
3928.41	3040
3930.018	3083
3931.626	3002
3933.231	3006
3934.838	3047
3936.442	2971
3938.046	3008
3939.653	3020
3941.257	2957
3942.861	2992
3944.464	3016
3946.068	2982
3947.67	2968
3949.273	3046
3950.876	2952
3952.477	3027
3954.078	2974
3955.678	2976
3957.281	3016
3958.881	3015
3960.48	2989
3962.079	2971
3963.678	2949
3965.279	3069
3966.877	2927
3968.475	2935
3970.072	2935
3971.669	2943
3973.266	2924
3974.864	2987
3976.459	2897
3978.055	2955
3979.65	2902
3981.245	2988
3982.841	2944
3984.436	2844
3986.03	2869
3987.623	2914
3989.216	2965
3990.809	2941
3992.403	2901
3993.995	2864
3995.586	2888
3997.177	2850
3998.768	2890
4000.361	2847
4001.951	2947
4003.54	2881
4005.13	2890
4006.719	2841
4008.31	2871
4009.897	2875
4011.485	2857
4013.073	2875
4014.66	2800
4016.247	2846
4017.834	2763
4019.421	2849
4021.006	2866
4022.592	2803
4024.178	2783
4025.763	2919
4027.348	2817
4028.932	2850
4030.515	2806
4032.099	2828
4033.682	2705
4035.266	2802
4036.847	2794
4038.429	2743
4040.011	2794
4041.592	2817
4043.173	2844
4044.755	2803
4046.334	2841
4047.913	2750
4049.494	2788
4051.074	2747
4052.652	2777
4054.23	2752
4055.807	2728
4057.385	2808
4058.963	2757
4060.541	2783
4062.117	2683
4063.693	2792
4065.269	2754
4066.844	2709
4068.42	2725
4069.995	2727
4071.569	2763
4073.143	2770
4074.716	2659
4076.291	2729
4077.864	2807
4079.436	2692
4081.009	2747
4082.58	2762
4084.152	2748
4085.723	2715
4087.294	2710
4088.865	2701
4090.435	2704
4092.005	2676
4093.574	2729
4095.143	2705
4096.712	2717
4098.279	2611
4099.848	2648
4101.416	2674
4102.984	2691
4104.55	2705
4106.117	2671
4107.682	2754
4109.248	2718
4110.815	2666
4112.379	2648
4113.945	2725
4115.508	2678
4117.073	2647
4118.637	2638
4120.201	2664
4121.763	2639
4123.325	2678
4124.888	2680
4126.449	2663
4128.013	2706
4129.573	2580
4131.133	2639
4132.694	2635
4134.254	2657
4135.814	2655
4137.374	2615
4138.933	2648
4140.491	2644
4142.049	2647
4143.607	2648
4145.167	2600
4146.724	2622
4148.28	2614
4149.836	2576
4151.392	2513
4152.949	2598
4154.504	2591
4156.059	2573
4157.614	2647
4159.168	2619
4160.723	2576
4162.277	2520
4163.83	2477
4165.383	2476
4166.936	2549
4168.488	2544
4170.041	2526
4171.593	2520
4173.144	2584
4174.695	2631
4176.246	2559
4177.796	2534
4179.346	2518
4180.896	2535
4182.445	2585
4183.994	2488
4185.542	2482
4187.091	2517
4188.639	2491
4190.185	2514
4191.732	2534
4193.279	2499
4194.826	2496
4196.373	2487
4197.918	2445
4199.463	2475
4201.008	2476
4202.553	2485
4204.098	2481
4205.641	2501
4207.185	2513
4208.728	2442
4210.271	2485
4211.814	2486
4213.357	2499
4214.898	2461
4216.439	2470
4217.98	2437
4219.522	2408
4221.062	2417
4222.603	2426
4224.142	2420
4225.681	2435
4227.222	2452
4228.76	2483
4230.298	2524
4231.835	2424
4233.373	2486
4234.911	2487
4236.449	2440
4237.985	2505
4239.521	2426
4241.057	2449
4242.592	2448
4244.128	2438
4245.663	2473
4247.197	2481
4248.731	2338
4250.265	2422
4251.798	2460
4253.333	2415
4254.865	2413
4256.397	2485
4257.93	2450
4259.461	2399
4260.994	2329
4262.525	2361
4264.056	2469
4265.586	2448
4267.115	2404
4268.646	2413
4270.176	2430
4271.705	2407
4273.232	2393
4274.761	2436
4276.289	2450
4277.818	2347
4279.345	2441
4280.872	2368
4282.399	2391
4283.924	2420
4285.452	2367
4286.976	2356
4288.502	2386
4290.026	2404
4291.551	2431
4293.074	2448
4294.6	2382
4296.123	2384
4297.646	2310
4299.168	2439
4300.691	2349
4302.214	2361
4303.736	2423
4305.257	2413
4306.778	2338
4308.299	2371
4309.82	2263
4311.34	2280
4312.86	2426
4314.379	2340
