400.0745	3897
402.597	3936
405.1208	3886
407.6419	3898
410.1623	3968
412.6819	4054
415.201	4027
417.7172	4022
420.2369	4062
422.7538	4056
425.2701	4023
427.7856	4116
430.3005	4165
432.8147	4098
435.3282	4108
437.841	4112
440.3511	4095
442.8625	4262
445.3753	4189
447.8854	4138
450.3927	4236
452.9014	4158
455.4073	4122
457.9146	4256
460.4233	4130
462.9272	4271
465.4325	4195
467.935	4228
470.4389	4211
472.9421	4232
475.4446	4208
477.9444	4239
480.4456	4218
482.944	4253
485.4417	4328
487.9429	4300
490.4393	4255
492.935	4309
495.4321	4314
497.9264	4276
500.4221	4307
502.9171	4332
505.4094	4313
507.9011	4390
510.392	4428
512.8864	4464
515.3759	4351
517.8649	4412
520.3531	4351
522.8406	4320
525.3275	4387
527.8178	4431
530.3033	4392
532.7881	4392
535.2723	4434
537.7558	4521
540.2407	4404
542.7228	4448
545.2043	4422
547.6851	4385
550.1652	4400
552.6467	4418
555.1255	4434
557.6016	4439
560.079	4440
562.5557	4436
565.0318	4453
567.5092	4474
569.984	4439
572.456	4489
574.9294	4503
577.4022	4564
579.8762	4509
582.3456	4603
584.8163	4550
587.2863	4576
589.7557	4648
592.2224	4631
594.6924	4550
597.1578	4752
599.6245	4550
602.0905	4561
604.5538	4606
607.0206	4568
609.4825	4633
611.9459	4569
614.4066	4540
616.8686	4578
619.33	4699
621.7906	4526
624.2487	4576
626.708	4629
629.1647	4504
631.6207	4560
634.0801	4526
636.5348	4539
638.9888	4613
641.4442	4674
643.8969	4532
646.3509	4660
648.8022	4613
651.255	4686
653.705	4625
656.1544	4681
658.6031	4619
661.0532	4681
663.5026	4730
665.9493	4727
668.3954	4711
670.8409	4689
673.2877	4651
675.7318	4650
678.1752	4623
680.618	4715
683.0601	4715
685.5035	4768
687.9444	4695
690.3845	4808
692.824	4718
695.2628	4738
697.701	4810
700.1406	4785
702.5774	4800
705.0116	4800
707.4472	4777
709.8821	4857
712.3183	4829
714.7519	4820
717.1829	4765
719.6151	4879
722.0468	4791
724.4777	4935
726.908	4814
729.3377	4883
731.7667	4791
734.1931	4915
736.6208	4904
739.0498	5050
741.4742	4953
743.9	5011
746.3231	4887
748.7476	5045
751.1713	5088
753.5945	5020
756.015	5042
758.4368	5150
760.856	5054
763.2766	5087
765.6965	5070
768.1157	4955
770.5323	5107
772.9483	5062
775.3656	5098
777.7822	5134
780.1963	5131
782.6116	5024
785.0244	5099
787.4365	5046
789.8499	5177
792.2626	5039
794.6728	5096
797.0823	5046
799.4911	5090
801.8994	5043
804.3109	5110
806.7178	5128
809.124	5156
811.5297	5179
813.9347	5159
816.341	5201
818.7447	5083
821.1478	5185
823.5502	5145
825.952	5222
828.3531	5140
830.7556	5271
833.1554	5234
835.5546	5140
837.9532	5292
840.3511	5225
842.7504	5120
845.1451	5266
847.5411	5337
849.9365	5160
852.3312	5143
854.7272	5190
857.1187	5253
859.5115	5208
861.9037	5268
864.2952	5236
866.6842	5237
869.0764	5224
871.4661	5197
873.8531	5258
876.2415	5204
878.6272	5240
881.0162	5238
883.4026	5236
885.7866	5235
888.1717	5230
890.5543	5093
892.9382	5185
895.3215	5237
897.7041	5201
900.0842	5216
902.4655	5253
904.8443	5197
907.2244	5270
909.6039	5296
911.9808	5408
914.357	5300
916.7346	5369
919.1115	5398
921.4859	5388
923.8616	5378
926.2347	5558
928.6071	5465
930.979	5464
933.3541	5522
935.7247	5486
938.0946	5618
940.4639	5480
942.8326	5434
945.2026	5535
947.5701	5648
949.9369	5591
952.305	5838
954.6705	5933
957.0355	6030
959.4017	6030
961.7654	6185
964.1284	6130
966.4908	6008
968.8527	5907
971.2138	5778
973.5743	5635
975.9343	5692
978.2936	5553
980.6522	5466
983.0122	5510
985.3696	5486
987.7245	5504
990.0807	5452
992.4362	5434
994.7911	5570
997.1474	5482
999.4991	5427
1001.852	5457
1004.205	5434
1006.555	5536
1008.908	5480
1011.258	5460
1013.606	5360
1015.956	5515
1018.302	5408
1020.652	5454
1022.998	5515
1025.345	5476
1027.691	5427
1030.035	5514
1032.378	5533
1034.724	5527
1037.066	5576
1039.409	5571
1041.75	5558
1044.092	5540
1046.433	5487
1048.771	5478
1051.112	5407
1053.449	5574
1055.786	5466
1058.124	5530
1060.462	5578
1062.797	5579
1065.131	5611
1067.467	5507
1069.8	5607
1072.135	5531
1074.467	5717
1076.798	5669
1079.129	5488
1081.459	5612
1083.792	5658
1086.121	5620
1088.449	5601
1090.777	5622
1093.104	5523
1095.431	5633
1097.759	5618
1100.084	5500
1102.408	5589
1104.732	5620
1107.056	5603
1109.379	5537
1111.701	5618
1114.022	5651
1116.343	5595
1118.664	5642
1120.983	5465
1123.303	5610
1125.621	5661
1127.939	5639
1130.256	5564
1132.573	5656
1134.889	5793
1137.205	5618
1139.52	5774
1141.832	5736
1144.146	5629
1146.461	5689
1148.771	5629
1151.083	5680
1153.392	5662
1155.703	5691
1158.011	5605
1160.323	5618
1162.629	5598
1164.938	5718
1167.243	5547
1169.55	5591
1171.857	5628
1174.163	5575
1176.466	5669
1178.769	5582
1181.073	5643
1183.374	5602
1185.677	5736
1187.979	5739
1190.279	5626
1192.578	5639
1194.878	5751
1197.178	5686
1199.476	5663
1201.772	5782
1204.068	5729
1206.366	5701
1208.663	5632
1210.957	5558
1213.251	5771
1215.544	5691
1217.836	5697
1220.128	5641
1222.421	5723
1224.712	5690
1227.002	5810
1229.292	5808
1231.581	5769
1233.871	5681
1236.159	5833
1238.446	5748
1240.732	5753
1243.018	5976
1245.304	5802
1247.59	5763
1249.874	5906
1252.156	5817
1254.439	5727
1256.721	5958
1259.005	5865
1261.286	5798
1263.565	5809
1265.845	5849
1268.125	5880
1270.403	5847
1272.682	5832
1274.959	5856
1277.234	5762
1279.511	5823
1281.787	5654
1284.062	5901
1286.337	5816
1288.609	5900
1290.882	5755
1293.153	5844
1295.428	5810
1297.698	5750
1299.969	5735
1302.237	5807
1304.507	5782
1306.777	5801
1309.044	5779
1311.312	5764
1313.578	5749
1315.844	5902
1318.109	5870
1320.375	5838
1322.638	5806
1324.903	5838
1327.165	5825
1329.427	5733
1331.69	5773
1333.952	5759
1336.212	5761
1338.471	5879
1340.73	5794
1342.988	5781
1345.248	5896
1347.505	5734
1349.763	5787
1352.019	5824
1354.274	5803
1356.53	5841
1358.784	5856
1361.038	5729
1363.291	5863
1365.543	5830
1367.797	5804
1370.048	5840
1372.296	5818
1374.546	5805
1376.796	5862
1379.045	5755
1381.295	5731
1383.542	5863
1385.787	6063
1388.034	5865
1390.28	5862
1392.527	5879
1394.772	5950
1397.014	5975
1399.258	5949
1401.501	5919
1403.741	5940
1405.985	5958
1408.226	5890
1410.465	5879
1412.705	5788
1414.943	5978
1417.184	5966
1419.42	5900
1421.658	5876
1423.894	6011
1426.13	5930
1428.366	5913
1430.602	5978
1432.835	5968
1435.069	5983
1437.301	6094
1439.535	5958
1441.767	5920
1443.997	5935
1446.229	6048
1448.458	5971
1450.687	6043
1452.916	6122
1455.146	6147
1457.372	6068
1459.599	6082
1461.824	6123
1464.051	6145
1466.277	6091
1468.501	5960
1470.725	6039
1472.948	6051
1475.17	6006
1477.393	5993
1479.614	5996
1481.837	5926
1484.057	5802
1486.276	6020
1488.497	5926
1490.715	5882
1492.932	5796
1495.148	5940
1497.364	6004
1499.58	5906
1501.798	5837
1504.012	5880
1506.227	5867
1508.44	5868
1510.653	5874
1512.866	5868
1515.078	5908
1517.289	5907
1519.5	5831
1521.711	5852
1523.92	5996
1526.13	5949
1528.338	5837
1530.544	5878
1532.752	5842
1534.959	6006
1537.165	5907
1539.371	5902
1541.574	5911
1543.779	6040
1545.983	5792
1548.187	5928
1550.39	5951
1552.59	5926
1554.792	5895
1556.991	6037
1559.19	5937
1561.392	5970
1563.59	5907
1565.789	5932
1567.986	5972
1570.182	6029
1572.381	5989
1574.576	5975
1576.771	6082
1578.966	6057
1581.16	5970
1583.354	6148
1585.546	6074
1587.74	6006
1589.931	6120
1592.121	6059
1594.311	6043
1596.502	6064
1598.693	6099
1600.881	6056
1603.069	6108
1605.256	6089
1607.445	5974
1609.631	6106
1611.816	6017
1614.001	6133
1616.186	6185
1618.37	6036
1620.555	6251
1622.737	6233
1624.919	6108
1627.101	6054
1629.282	6159
1631.463	6171
1633.643	6242
1635.822	6175
1638.001	6126
1640.179	6177
1642.359	6137
1644.534	6117
1646.711	6130
1648.887	6116
1651.062	6249
1653.235	6251
1655.412	6253
1657.586	6182
1659.757	6202
1661.93	6122
1664.1	6198
1666.274	6353
1668.445	6208
1670.614	6213
1672.784	6274
1674.951	6238
1677.12	6184
1679.289	6217
1681.457	6087
1683.622	6291
1685.789	6212
1687.953	6248
1690.121	6187
1692.284	6249
1694.447	6271
1696.611	6205
1698.772	6196
1700.935	6229
1703.098	6289
1705.258	6152
1707.417	6171
1709.576	6133
1711.736	6163
1713.896	6178
1716.053	6139
1718.21	6227
1720.366	6196
1722.522	6197
1724.68	6151
1726.835	6156
1728.989	6184
1731.142	6276
1733.295	6193
1735.449	6156
1737.601	6124
1739.753	6204
1741.903	6250
1744.054	6189
1746.203	6164
1748.354	6206
1750.503	6149
1752.651	6205
1754.798	6230
1756.944	6279
1759.092	6341
1761.238	6114
1763.383	6284
1765.528	6375
1767.672	6251
1769.814	6269
1771.959	6182
1774.102	6287
1776.242	6162
1778.384	6263
1780.525	6242
1782.665	6338
1784.805	6232
1786.945	6332
1789.082	6326
1791.22	6315
1793.36	6439
1795.495	6355
1797.632	6258
1799.766	6388
1801.902	6390
1804.035	6419
1806.172	6300
1808.304	6294
1810.436	6234
1812.569	6323
1814.699	6328
1816.833	6358
1818.963	6336
1821.092	6328
1823.222	6349
1825.35	6365
1827.478	6424
1829.608	6350
1831.734	6242
1833.86	6340
1835.986	6312
1838.11	6317
1840.238	6269
1842.362	6222
1844.485	6273
1846.608	6357
1848.73	6220
1850.853	6217
1852.974	6281
1855.097	6353
1857.217	6292
1859.336	6262
1861.455	6324
1863.576	6272
1865.693	6330
1867.811	6307
1869.926	6257
1872.042	6272
1874.16	6320
1876.275	6270
1878.39	6401
1880.504	6282
1882.618	6407
1884.731	6215
1886.843	6287
1888.956	6283
1891.067	6245
1893.178	6328
1895.287	6337
1897.399	6355
1899.508	6385
1901.617	6353
1903.724	6279
1905.832	6412
1907.941	6437
1910.046	6269
1912.152	6400
1914.256	6318
1916.361	6376
1918.464	6423
1920.57	6484
1922.672	6542
1924.775	6438
1926.876	6483
1928.978	6533
1931.08	6441
1933.181	6327
1935.28	6440
1937.38	6316
1939.478	6438
1941.577	6391
1943.675	6365
1945.771	6416
1947.867	6322
1949.964	6470
1952.058	6469
1954.154	6509
1956.248	6406
1958.343	6441
1960.435	6491
1962.527	6552
1964.62	6445
1966.711	6382
1968.802	6362
1970.892	6457
1972.983	6435
1975.072	6467
1977.162	6554
1979.25	6482
1981.337	6429
1983.424	6423
1985.51	6378
1987.598	6355
1989.683	6483
1991.768	6471
1993.852	6543
1995.934	6479
1998.019	6407
2000.102	6397
2002.184	6358
2004.266	6423
2006.347	6321
2008.427	6495
2010.508	6388
2012.587	6391
2014.666	6398
2016.745	6328
2018.821	6339
2020.9	6372
2022.977	6456
2025.052	6484
2027.128	6438
2029.204	6412
2031.277	6419
2033.353	6432
2035.425	6450
2037.499	6369
2039.57	6503
2041.642	6629
2043.714	6302
2045.786	6471
2047.855	6408
2049.925	6486
2051.993	6365
2054.064	6465
2056.132	6461
2058.2	6518
2060.266	6553
2062.332	6454
2064.398	6521
2066.465	6446
2068.529	6391
2070.592	6473
2072.657	6379
2074.719	6357
2076.783	6396
2078.845	6499
2080.907	6508
2082.968	6416
2085.028	6511
2087.087	6412
2089.148	6547
2091.207	6465
2093.264	6506
2095.322	6485
2097.379	6410
2099.439	6501
2101.495	6455
2103.55	6488
2105.605	6458
2107.658	6529
2109.713	6477
2111.767	6557
2113.82	6431
2115.872	6532
2117.924	6442
2119.975	6426
2122.028	6436
2124.078	6526
2126.126	6462
2128.176	6410
2130.225	6623
2132.275	6502
2134.321	6520
2136.368	6400
2138.415	6497
2140.461	6572
2142.505	6468
2144.552	6448
2146.597	6399
2148.64	6463
2150.684	6529
2152.725	6453
2154.77	6426
2156.811	6449
2158.852	6459
2160.894	6432
2162.933	6503
2164.973	6394
2167.013	6464
2169.051	6535
2171.089	6399
2173.126	6551
2175.164	6499
2177.201	6334
2179.236	6427
2181.273	6480
2183.307	6470
2185.341	6354
2187.377	6439
2189.41	6403
2191.442	6463
2193.473	6488
2195.506	6277
2197.539	6396
2199.569	6546
2201.598	6417
2203.628	6442
2205.656	6431
2207.686	6287
2209.716	6383
2211.743	6365
2213.769	6417
2215.796	6429
2217.821	6357
2219.848	6462
2221.873	6446
2223.897	6390
2225.921	6447
2227.944	6374
2229.967	6532
2231.991	6364
2234.011	6410
2236.032	6371
2238.053	6358
2240.073	6401
2242.094	6380
2244.114	6521
2246.131	6339
2248.149	6433
2250.167	6414
2252.186	6333
2254.201	6453
2256.218	6263
2258.233	6493
2260.247	6489
2262.262	6462
2264.278	6461
2266.29	6532
2268.303	6476
2270.315	6393
2272.327	6461
2274.341	6477
2276.35	6501
2278.361	6446
2280.37	6388
2282.38	6507
2284.388	6589
2286.397	6518
2288.405	6499
2290.412	6544
2292.419	6409
2294.425	6320
2296.431	6585
2298.437	6422
2300.441	6407
2302.445	6514
2304.449	6386
2306.453	6546
2308.455	6424
2310.457	6462
2312.459	6422
2314.46	6501
2316.46	6420
2318.461	6421
2320.46	6530
2322.458	6378
2324.458	6498
2326.456	6319
2328.455	6389
2330.451	6406
2332.447	6416
2334.443	6479
2336.438	6456
2338.433	6481
2340.429	6425
2342.422	6558
2344.416	6375
2346.408	6454
2348.399	6454
2350.393	6300
2352.384	6288
2354.375	6300
2356.365	6402
2358.355	6285
2360.344	6369
2362.333	6344
2364.322	6334
2366.309	6391
2368.295	6382
2370.282	6396
2372.27	6362
2374.256	6184
2376.24	6441
2378.225	6328
2380.208	6462
2382.194	6348
2384.177	6346
2386.159	6383
2388.142	6310
2390.122	6225
2392.105	6297
2394.085	6426
2396.066	6335
2398.044	6226
2400.024	6334
2402.002	6270
2403.982	6315
2405.959	6260
2407.935	6389
2409.913	6275
2411.888	6264
2413.865	6366
2415.84	6267
2417.814	6222
2419.788	6324
2421.762	6234
2423.735	6197
2425.708	6378
2427.68	6182
2429.651	6373
2431.623	6442
2433.593	6306
2435.564	6407
2437.533	6295
2439.502	6278
2441.47	6256
2443.438	6353
2445.406	6340
2447.373	6301
2449.34	6334
2451.305	6273
2453.271	6314
2455.235	6305
2457.201	6231
2459.165	6355
2461.129	6223
2463.092	6251
2465.054	6364
2467.018	6298
2468.978	6261
2470.939	6265
2472.899	6291
2474.86	6170
2476.819	6285
2478.778	6110
2480.737	6249
2482.695	6200
2484.653	6230
2486.609	6211
2488.567	6198
2490.524	6180
2492.478	6216
2494.433	6159
2496.387	6217
2498.343	6175
2500.297	6155
2502.249	6276
2504.202	6194
2506.153	6209
2508.105	6345
2510.057	6189
2512.008	6110
2513.957	6264
2515.906	6158
2517.855	6323
2519.805	6284
2521.754	6253
2523.7	6189
2525.647	6095
2527.594	6069
2529.54	6240
2531.486	6128
2533.431	6224
2535.376	6141
2537.32	6172
2539.263	6092
2541.207	6219
2543.151	6097
2545.093	6188
2547.034	6240
2548.975	6138
2550.917	6093
2552.856	6076
2554.796	6172
2556.735	6115
2558.673	6173
2560.611	6262
2562.55	6184
2564.487	6283
2566.424	6168
2568.36	6260
2570.296	6177
2572.232	6244
2574.167	6105
2576.101	6129
2578.035	6288
2579.969	6133
2581.902	6152
2583.834	6149
2585.766	6260
2587.698	6173
2589.628	6277
2591.557	6182
2593.489	6145
2595.419	6151
2597.348	6044
2599.275	6260
2601.204	6199
2603.131	6150
2605.059	6154
2606.986	6131
2608.911	6118
2610.837	6130
2612.76	6089
2614.687	6198
2616.61	6208
2618.534	6126
2620.457	6235
2622.38	6241
2624.302	6158
2626.225	6231
2628.145	6184
2630.067	6133
2631.986	6166
2633.906	6174
2635.827	6239
2637.745	6210
2639.662	6195
2641.581	6171
2643.498	6273
2645.415	6140
2647.331	6149
2649.248	6156
2651.163	6064
2653.077	6034
2654.993	6259
2656.906	6102
2658.821	6173
2660.733	6191
2662.646	6117
2664.557	6179
2666.47	6118
2668.381	6078
2670.291	5988
2672.201	6222
2674.11	6256
2676.021	6187
2677.929	6083
2679.837	6175
2681.745	6022
2683.652	6124
2685.56	6046
2687.466	6110
2689.371	6035
2691.276	6128
2693.181	6092
2695.085	6121
2696.991	6029
2698.893	6109
2700.796	5969
2702.698	5948
2704.601	6054
2706.502	6019
2708.404	6039
2710.304	6058
2712.203	5939
2714.103	6016
2716.003	6047
2717.902	5935
2719.8	5990
2721.697	5996
2723.594	5990
2725.49	6058
2727.389	6016
2729.283	5919
2731.179	5985
2733.073	5887
2734.968	5979
2736.863	5934
2738.757	6017
2740.649	6024
2742.541	6000
2744.433	5950
2746.324	5935
2748.216	5910
2750.107	6068
2751.997	5999
2753.886	6018
2755.776	5940
2757.666	5910
2759.553	5920
2761.44	5856
2763.327	5798
2765.215	5929
2767.102	5969
2768.988	5818
2770.873	5888
2772.757	5884
2774.641	5920
2776.525	5929
2778.41	5859
2780.292	6020
2782.175	5996
2784.057	5877
2785.938	5775
2787.821	5998
2789.701	5808
2791.581	5882
2793.461	5928
2795.34	5879
2797.219	5768
2799.099	5875
2800.975	5834
2802.853	5896
2804.73	5860
2806.606	5848
2808.484	5896
2810.358	5885
2812.233	5862
2814.108	5667
2815.981	5763
2817.857	5832
2819.73	5761
2821.602	5859
2823.474	5774
2825.346	5841
2827.217	5773
2829.089	5825
2830.959	5810
2832.829	5798
2834.698	5719
2836.567	5797
2838.436	5845
2840.305	5739
2842.172	5776
2844.04	5907
2845.905	5826
2847.772	5792
2849.639	5809
2851.503	5896
2853.369	5727
2855.232	5892
2857.096	5803
2858.961	5863
2860.824	5800
2862.686	5878
2864.547	5769
2866.41	5880
2868.272	5874
2870.132	5969
2871.992	6016
2873.851	5968
2875.711	5940
2877.57	5846
2879.429	5912
2881.287	6017
2883.144	6068
2885.001	6007
2886.857	6172
2888.714	5984
2890.57	6096
2892.425	6058
2894.279	6062
2896.133	6101
2897.987	6038
2899.842	6074
2901.694	6026
2903.547	6091
2905.397	6031
2907.249	5974
2909.101	5943
2910.952	5956
2912.802	5998
2914.652	6171
2916.5	5989
2918.35	6076
2920.198	6057
2922.045	6114
2923.893	6236
2925.74	6145
2927.585	6162
2929.433	6248
2931.279	6214
2933.123	6301
2934.968	6315
2936.811	6316
2938.656	6357
2940.5	6306
2942.342	6338
2944.185	6296
2946.026	6454
2947.87	6323
2949.71	6354
2951.549	6343
2953.39	6420
2955.229	6301
2957.069	6244
2958.908	6293
2960.746	6174
2962.584	6206
2964.421	6123
2966.257	6197
2968.094	6164
2969.931	6019
2971.766	6048
2973.601	5997
2975.435	5925
2977.27	6006
2979.105	5836
2980.938	5946
2982.77	5990
2984.602	5917
2986.434	6030
2988.267	5929
2990.097	5776
2991.927	5898
2993.757	5805
2995.587	5742
2997.417	5824
2999.246	5717
3001.074	5814
3002.902	5689
3004.729	5719
3006.556	5631
3008.384	5660
3010.21	5575
3012.036	5562
3013.861	5592
3015.684	5590
3017.51	5474
3019.334	5462
3021.157	5543
3022.981	5547
3024.802	5406
3026.624	5424
3028.448	5539
3030.267	5456
3032.088	5437
3033.909	5415
3035.728	5382
3037.549	5463
3039.368	5407
3041.186	5380
3043.004	5352
3044.821	5460
3046.64	5453
3048.455	5369
3050.272	5366
3052.087	5467
3053.903	5314
3055.717	5325
3057.534	5321
3059.347	5319
3061.16	5284
3062.974	5380
3064.785	5310
3066.598	5309
3068.411	5280
3070.222	5349
3072.032	5320
3073.844	5292
3075.653	5354
3077.463	5344
3079.272	5288
3081.08	5357
3082.889	5215
3084.697	5344
3086.505	5255
3088.312	5223
3090.118	5248
3091.924	5217
3093.729	5200
3095.535	5087
3097.34	5189
3099.144	5158
3100.947	5258
3102.75	5212
3104.553	5243
3106.357	5155
3108.159	5184
3109.961	5137
3111.762	5174
3113.562	5209
3115.365	5196
3117.164	5230
3118.964	5180
3120.761	5068
3122.56	5142
3124.36	5044
3126.158	5120
3127.954	5121
3129.75	5119
3131.547	5051
3133.343	5034
3135.139	5154
3136.934	5041
3138.729	5161
3140.522	4994
3142.317	5089
3144.11	5155
3145.904	5132
3147.695	5064
3149.488	5129
3151.28	5037
3153.07	5074
3154.863	4905
3156.652	5086
3158.441	4998
3160.231	5065
3162.019	4988
3163.81	5090
3165.597	4873
3167.384	5024
3169.172	4967
3170.958	4963
3172.745	5014
3174.532	4902
3176.317	5085
3178.101	4982
3179.885	4924
3181.67	4947
3183.455	5079
3185.238	4964
3187.02	4940
3188.802	4938
3190.585	5026
3192.368	5060
3194.149	4911
3195.929	4916
3197.709	4915
3199.489	5010
3201.268	5009
3203.048	5039
3204.826	4947
3206.604	4914
3208.382	4912
3210.159	4967
3211.937	4882
3213.713	4933
3215.489	4894
3217.263	4937
3219.038	4908
3220.815	4854
3222.589	4857
3224.363	4860
3226.136	4883
3227.908	4843
3229.681	4920
3231.454	4813
3233.226	4877
3234.996	4923
3236.767	4890
3238.538	4853
3240.308	4791
3242.078	4924
3243.847	4929
3245.615	4846
3247.384	4898
3249.15	4911
3250.92	4894
3252.686	4875
3254.453	4970
3256.218	4927
3257.984	4840
3259.75	4916
3261.515	4824
3263.279	4867
3265.044	4941
3266.806	4822
3268.57	4773
3270.334	4823
3272.095	4879
3273.856	4895
3275.619	4902
3277.379	4932
3279.14	4892
3280.9	4869
3282.661	4928
3284.419	4941
3286.178	4899
3287.937	4881
3289.695	4848
3291.453	4811
3293.21	4870
3294.967	4830
3296.723	4836
3298.48	4810
3300.235	4809
3301.99	4856
3303.744	4726
3305.498	4873
3307.253	4875
3309.006	4866
3310.759	4801
3312.511	4815
3314.263	4831
3316.017	4852
3317.768	4822
3319.519	4803
3321.268	4869
3323.018	4854
3324.767	4788
3326.518	4803
3328.267	4782
3330.014	4836
3331.762	4802
3333.509	4792
3335.258	4894
3337.003	4797
3338.75	4759
3340.496	4802
3342.24	4762
3343.987	4806
3345.732	4753
3347.475	4815
3349.219	4678
3350.961	4765
3352.705	4814
3354.448	4795
3356.19	4710
3357.931	4725
3359.672	4727
3361.412	4776
3363.155	4719
3364.894	4693
3366.633	4689
3368.372	4721
3370.11	4731
3371.849	4758
3373.588	4749
3375.325	4626
3377.061	4780
3378.799	4688
3380.534	4657
3382.271	4819
3384.006	4696
3385.741	4738
3387.475	4706
3389.209	4710
3390.944	4729
3392.677	4719
3394.409	4709
3396.143	4676
3397.874	4664
3399.606	4674
3401.338	4662
3403.069	4641
3404.799	4688
3406.528	4687
3408.258	4561
3409.988	4626
3411.717	4612
3413.445	4601
3415.173	4502
3416.899	4680
3418.626	4627
3420.354	4645
3422.08	4678
3423.806	4547
3425.531	4625
3427.255	4636
3428.981	4610
3430.705	4612
3432.429	4574
3434.151	4519
3435.875	4606
3437.599	4550
3439.321	4614
3441.042	4545
3442.763	4526
3444.483	4485
3446.204	4515
3447.926	4536
3449.645	4481
3451.364	4582
3453.082	4542
3454.801	4452
3456.52	4517
3458.238	4536
3459.954	4482
3461.671	4521
3463.387	4413
3465.104	4482
3466.82	4397
3468.534	4520
3470.25	4536
3471.963	4443
3473.676	4478
3475.392	4471
3477.104	4496
3478.817	4504
3480.528	4390
3482.241	4507
3483.954	4388
3485.664	4439
3487.374	4342
3489.084	4377
3490.795	4498
3492.504	4428
3494.214	4385
3495.922	4443
3497.63	4370
3499.338	4355
3501.045	4344
3502.753	4341
3504.459	4366
3506.166	4405
3507.871	4396
3509.576	4421
3511.283	4406
3512.987	4200
3514.691	4367
3516.395	4369
3518.098	4455
3519.8	4261
3521.504	4390
3523.206	4422
3524.908	4438
3526.609	4417
3528.309	4354
3530.011	4372
3531.711	4352
3533.411	4371
3535.109	4331
3536.808	4262
3538.507	4250
3540.206	4310
3541.904	4340
3543.601	4366
3545.297	4280
3546.994	4253
3548.69	4272
3550.387	4264
3552.081	4256
3553.776	4381
3555.47	4328
3557.166	4312
3558.859	4377
3560.553	4214
3562.245	4330
3563.938	4239
3565.629	4191
3567.322	4322
3569.014	4255
3570.704	4276
3572.394	4282
3574.084	4190
3575.775	4271
3577.464	4193
3579.152	4234
3580.842	4281
3582.529	4160
3584.216	4269
3585.905	4148
3587.591	4256
3589.279	4170
3590.964	4339
3592.649	4160
3594.336	4170
3596.021	4219
3597.705	4154
3599.388	4199
3601.072	4171
3602.757	4164
3604.439	4158
3606.122	4162
3607.803	4217
3609.485	4274
3611.167	4076
3612.849	4107
3614.529	4145
3616.208	4159
3617.888	4115
3619.567	4167
3621.247	4078
3622.926	4160
3624.603	4139
3626.281	4241
3627.958	4067
3629.635	4055
3631.312	4062
3632.989	4080
3634.665	4059
3636.339	4101
3638.014	4053
3639.691	4120
3641.364	4108
3643.038	4100
3644.71	4108
3646.384	4026
3648.058	4094
3649.729	3992
3651.402	4079
3653.073	4038
3654.744	4129
3656.414	3998
3658.085	3994
3659.755	3994
3661.424	4064
3663.094	3979
3664.762	3983
3666.431	4063
3668.099	4006
3669.766	4032
3671.433	4016
3673.099	3926
3674.768	3997
3676.433	3970
3678.098	4039
3679.763	4020
3681.428	3930
3683.093	3987
3684.757	4021
3686.421	3963
3688.083	4063
3689.746	4001
3691.408	4037
3693.071	3988
3694.733	3967
3696.394	3950
3698.054	4011
3699.715	4057
3701.375	3927
3703.036	3954
3704.695	3986
3706.354	4019
3708.012	3959
3709.67	3941
3711.329	4036
3712.987	3937
3714.644	3916
3716.299	3984
3717.955	3919
3719.613	3911
3721.268	3986
3722.923	3888
3724.577	3916
3726.231	3949
3727.885	3973
3729.539	3890
3731.192	3924
3732.845	3907
3734.497	3936
3736.149	3865
3737.802	3887
3739.453	3927
3741.104	3922
3742.753	3923
3744.404	3819
3746.052	3936
3747.704	3908
3749.352	3899
3751	3832
3752.648	3922
3754.296	3882
3755.944	3865
3757.59	3871
3759.238	3859
3760.883	3816
3762.528	3779
3764.176	3958
3765.82	3844
3767.464	3904
3769.109	3828
3770.753	3813
3772.396	3800
3774.04	3869
3775.683	3778
3777.325	3829
3778.967	3765
3780.608	3819
3782.25	3833
3783.89	3932
3785.531	3762
3787.17	3868
3788.81	3795
3790.45	3876
3792.09	3777
3793.729	3795
3795.366	3803
3797.003	3721
3798.64	3817
3800.278	3757
3801.915	3713
3803.551	3777
3805.187	3777
3806.822	3798
3808.458	3706
3810.093	3755
3811.726	3779
3813.36	3747
3814.994	3711
3816.627	3725
3818.262	3752
3819.893	3721
3821.525	3800
3823.157	3707
3824.787	3763
3826.42	3688
3828.051	3762
3829.68	3698
3831.31	3640
3832.938	3692
3834.569	3688
3836.198	3677
3837.825	3773
3839.454	3643
3841.08	3676
3842.708	3712
3844.335	3692
3845.962	3711
3847.587	3661
3849.212	3636
3850.838	3718
3852.463	3569
3854.089	3644
3855.712	3757
3857.335	3628
3858.959	3668
3860.582	3684
3862.205	3649
3863.827	3661
3865.449	3560
3867.07	3576
3868.691	3610
3870.312	3594
3871.933	3648
3873.553	3622
3875.173	3631
3876.792	3604
3878.411	3621
3880.03	3632
3881.647	3619
3883.265	3585
3884.882	3639
3886.499	3611
3888.116	3627
3889.732	3548
3891.348	3615
3892.964	3639
3894.579	3588
3896.195	3581
3897.809	3579
3899.423	3547
3901.036	3524
3902.648	3618
3904.261	3544
3905.875	3541
3907.487	3519
3909.099	3490
3910.709	3562
3912.321	3560
3913.933	3470
3915.542	3536
3917.152	3610
3918.762	3493
3920.37	3552
3921.98	3453
3923.589	3559
3925.196	3595
3926.804	3487
3928.41	3531
3930.018	3553
3931.626	3492
3933.231	3519
3934.838	3523
3936.442	3566
3938.046	3634
3939.653	3494
3941.257	3460
3942.861	3488
3944.464	3574
3946.068	3491
3947.67	3481
3949.273	3508
3950.876	3533
3952.477	3511
3954.078	3511
3955.678	3460
3957.281	3469
3958.881	3413
3960.48	3489
3962.079	3464
3963.678	3526
3965.279	3462
3966.877	3389
3968.475	3459
3970.072	3450
3971.669	3468
3973.266	3435
3974.864	3495
3976.459	3345
3978.055	3423
3979.65	3415
3981.245	3369
3982.841	3407
3984.436	3395
3986.03	3375
3987.623	3435
3989.216	3429
3990.809	3325
3992.403	3362
3993.995	3404
3995.586	3380
3997.177	3394
3998.768	3363
4000.361	3306
4001.951	3355
4003.54	3385
4005.13	3376
4006.719	3321
4008.31	3334
4009.897	3315
4011.485	3289
4013.073	3292
4014.66	3339
4016.247	3322
4017.834	3356
4019.421	3345
4021.006	3352
4022.592	3186
4024.178	3333
4025.763	3313
4027.348	3249
4028.932	3279
4030.515	3310
4032.099	3238
4033.682	3276
4035.266	3284
4036.847	3323
4038.429	3297
4040.011	3256
4041.592	3282
4043.173	3279
4044.755	3264
4046.334	3269
4047.913	3237
4049.494	3229
4051.074	3240
4052.652	3189
4054.23	3227
4055.807	3192
4057.385	3253
4058.963	3218
4060.541	3180
4062.117	3177
4063.693	3268
4065.269	3171
4066.844	3176
4068.42	3229
4069.995	3150
4071.569	3200
4073.143	3227
4074.716	3229
4076.291	3204
4077.864	3144
4079.436	3183
4081.009	3187
4082.58	3187
4084.152	3173
4085.723	3218
4087.294	3169
4088.865	3097
4090.435	3180
4092.005	3197
4093.574	3099
4095.143	3125
4096.712	3073
4098.279	3083
4099.848	3122
4101.416	3162
4102.984	3136
4104.55	3096
4106.117	3128
4107.682	3105
4109.248	3171
4110.815	3082
4112.379	3181
4113.945	3098
4115.508	3068
4117.073	3035
4118.637	3138
4120.201	3050
4121.763	3111
4123.325	3172
4124.888	3075
4126.449	3086
4128.013	3058
4129.573	3040
4131.133	3054
4132.694	3032
4134.254	3019
4135.814	3035
4137.374	3076
4138.933	3062
4140.491	3079
4142.049	3008
4143.607	3020
4145.167	3003
4146.724	3028
4148.28	2997
4149.836	3032
4151.392	3075
4152.949	2951
4154.504	2970
4156.059	2897
4157.614	2977
4159.168	2989
4160.723	2960
4162.277	2963
4163.83	2963
4165.383	3031
4166.936	2966
4168.488	2900
4170.041	2998
4171.593	2945
4173.144	2890
4174.695	2962
4176.246	2930
4177.796	2940
4179.346	2946
4180.896	2958
4182.445	2927
4183.994	2966
4185.542	2951
4187.091	2989
4188.639	2857
4190.185	2918
4191.732	2916
4193.279	2858
4194.826	2919
4196.373	2886
4197.918	2909
4199.463	2903
4201.008	2943
4202.553	2978
4204.098	2900
4205.641	2872
4207.185	2868
4208.728	2886
4210.271	2869
4211.814	2877
4213.357	2879
4214.898	2855
4216.439	2879
4217.98	2861
4219.522	2837
4221.062	2807
4222.603	2911
4224.142	2876
4225.681	2908
4227.222	2792
4228.76	2881
4230.298	2860
4231.835	2839
4233.373	2838
4234.911	2834
4236.449	2850
4237.985	2785
4239.521	2839
4241.057	2822
4242.592	2853
4244.128	2803
4245.663	2797
4247.197	2804
4248.731	2817
4250.265	2858
4251.798	2864
4253.333	2782
4254.865	2836
4256.397	2783
4257.93	2799
4259.461	2831
4260.994	2755
4262.525	2810
4264.056	2762
4265.586	2816
4267.115	2742
4268.646	2838
4270.176	2766
4271.705	2706
4273.232	2775
4274.761	2776
4276.289	2831
4277.818	2808
4279.345	2774
4280.872	2718
4282.399	2731
4283.924	2754
4285.452	2809
4286.976	2718
4288.502	2766
4290.026	2751
4291.551	2825
4293.074	2726
4294.6	2807
4296.123	2704
4297.646	2754
4299.168	2731
4300.691	2822
4302.214	2652
4303.736	2738
4305.257	2669
4306.778	2696
4308.299	2657
4309.82	2712
4311.34	2717
4312.86	2702
4314.379	2661
