400.0745	4949
402.597	5026
405.1208	5095
407.6419	5099
410.1623	5024
412.6819	5114
415.201	5233
417.7172	5172
420.2369	5257
422.7538	5240
425.2701	5221
427.7856	5273
430.3005	5276
432.8147	5263
435.3282	5352
437.841	5277
440.3511	5360
442.8625	5349
445.3753	5386
447.8854	5375
450.3927	5366
452.9014	5386
455.4073	5447
457.9146	5413
460.4233	5447
462.9272	5417
465.4325	5443
467.935	5419
470.4389	5457
472.9421	5464
475.4446	5487
477.9444	5424
480.4456	5449
482.944	5498
485.4417	5532
487.9429	5458
490.4393	5516
492.935	5526
495.4321	5591
497.9264	5600
500.4221	5571
502.9171	5663
505.4094	5577
507.9011	5641
510.392	5570
512.8864	5687
515.3759	5630
517.8649	5606
520.3531	5523
522.8406	5664
525.3275	5658
527.8178	5733
530.3033	5579
532.7881	5694
535.2723	5587
537.7558	5713
540.2407	5639
542.7228	5703
545.2043	5594
547.6851	5682
550.1652	5736
552.6467	5747
555.1255	5777
557.6016	5671
560.079	5747
562.5557	5721
565.0318	5691
567.5092	5841
569.984	5820
572.456	5824
574.9294	5817
577.4022	5900
579.8762	5838
582.3456	5950
584.8163	5993
587.2863	5918
589.7557	5844
592.2224	5968
594.6924	5970
597.1578	5909
599.6245	5875
602.0905	5791
604.5538	5913
607.0206	5951
609.4825	5845
611.9459	5863
614.4066	5885
616.8686	5829
619.33	5832
621.7906	5934
624.2487	5829
626.708	5940
629.1647	5798
631.6207	5830
634.0801	5847
636.5348	5892
638.9888	5912
641.4442	5912
643.8969	5856
646.3509	5965
648.8022	5882
651.255	5954
653.705	5935
656.1544	6061
658.6031	5958
661.0532	5999
663.5026	5998
665.9493	6024
668.3954	5996
670.8409	6146
673.2877	5967
675.7318	6075
678.1752	6031
680.618	6022
683.0601	6091
685.5035	6175
687.9444	6117
690.3845	6144
692.824	6051
695.2628	6108
697.701	6152
700.1406	6068
702.5774	6110
705.0116	6141
707.4472	6078
709.8821	6311
712.3183	6235
714.7519	6217
717.1829	6230
719.6151	6276
722.0468	6276
724.4777	6329
726.908	6266
729.3377	6284
731.7667	6305
734.1931	6355
736.6208	6313
739.0498	6375
741.4742	6297
743.9	6475
746.3231	6364
748.7476	6468
751.1713	6433
753.5945	6407
756.015	6429
758.4368	6533
760.856	6431
763.2766	6473
765.6965	6513
768.1157	6529
770.5323	6547
772.9483	6658
775.3656	6565
777.7822	6509
780.1963	6669
782.6116	6702
785.0244	6440
787.4365	6575
789.8499	6651
792.2626	6609
794.6728	6704
797.0823	6533
799.4911	6601
801.8994	6647
804.3109	6681
806.7178	6635
809.124	6440
811.5297	6719
813.9347	6654
816.341	6672
818.7447	6739
821.1478	6688
823.5502	6713
825.952	6688
828.3531	6708
830.7556	6615
833.1554	6656
835.5546	6580
837.9532	6688
840.3511	6625
842.7504	6698
845.1451	6815
847.5411	6661
849.9365	6720
852.3312	6773
854.7272	6826
857.1187	6750
859.5115	6734
861.9037	6698
864.2952	6771
866.6842	6784
869.0764	6843
871.4661	6904
873.8531	6636
876.2415	6699
878.6272	6680
881.0162	6721
883.4026	6647
885.7866	6680
888.1717	6854
890.5543	6551
892.9382	6737
895.3215	6856
897.7041	6783
900.0842	6807
902.4655	6738
904.8443	6735
907.2244	6758
909.6039	6705
911.9808	6831
914.357	6932
916.7346	6818
919.1115	7012
921.4859	6996
923.8616	6974
926.2347	6910
928.6071	7089
930.979	6892
933.3541	7150
935.7247	7122
938.0946	6916
940.4639	7169
942.8326	7102
945.2026	7146
947.5701	7252
949.9369	7405
952.305	7375
954.6705	7594
957.0355	7794
959.4017	7884
961.7654	7914
964.1284	7777
966.4908	7734
968.8527	7599
971.2138	7492
973.5743	7298
975.9343	7105
978.2936	7021
980.6522	6981
983.0122	6975
985.3696	7055
987.7245	7057
990.0807	6917
992.4362	7001
994.7911	6933
997.1474	6983
999.4991	6943
1001.852	6951
1004.205	6978
1006.555	6942
1008.908	6974
1011.258	7026
1013.606	7010
1015.956	7024
1018.302	6978
1020.652	7119
1022.998	7119
1025.345	7034
1027.691	7047
1030.035	7161
1032.378	7098
1034.724	6975
1037.066	7180
1039.409	7176
1041.75	7081
1044.092	7223
1046.433	7023
1048.771	7121
1051.112	7146
1053.449	7044
1055.786	7252
1058.124	7142
1060.462	7181
1062.797	7123
1065.131	7269
1067.467	7235
1069.8	7162
1072.135	7192
1074.467	7219
1076.798	7110
1079.129	7167
1081.459	7055
1083.792	7217
1086.121	7231
1088.449	7153
1090.777	6995
1093.104	7097
1095.431	7192
1097.759	7126
1100.084	7169
1102.408	7075
1104.732	7207
1107.056	7073
1109.379	7191
1111.701	7232
1114.022	7285
1116.343	7066
1118.664	7132
1120.983	7273
1123.303	7285
1125.621	7270
1127.939	7232
1130.256	7160
1132.573	7225
1134.889	7182
1137.205	7190
1139.52	7008
1141.832	7219
1144.146	7101
1146.461	7263
1148.771	7234
1151.083	7257
1153.392	7231
1155.703	7204
1158.011	7213
1160.323	7221
1162.629	7289
1164.938	7204
1167.243	7186
1169.55	7172
1171.857	7227
1174.163	7183
1176.466	7266
1178.769	7202
1181.073	7219
1183.374	7109
1185.677	7200
1187.979	7156
1190.279	7288
1192.578	7185
1194.878	7163
1197.178	7329
1199.476	7200
1201.772	7284
1204.068	7300
1206.366	7222
1208.663	7212
1210.957	7218
1213.251	7247
1215.544	7173
1217.836	7233
1220.128	7256
1222.421	7151
1224.712	7315
1227.002	7306
1229.292	7261
1231.581	7379
1233.871	7321
1236.159	7390
1238.446	7319
1240.732	7474
1243.018	7498
1245.304	7376
1247.59	7373
1249.874	7383
1252.156	7435
1254.439	7347
1256.721	7369
1259.005	7426
1261.286	7449
1263.565	7462
1265.845	7368
1268.125	7397
1270.403	7352
1272.682	7483
1274.959	7384
1277.234	7459
1279.511	7408
1281.787	7434
1284.062	7437
1286.337	7442
1288.609	7295
1290.882	7206
1293.153	7402
1295.428	7322
1297.698	7371
1299.969	7356
1302.237	7300
1304.507	7388
1306.777	7344
1309.044	7352
1311.312	7461
1313.578	7243
1315.844	7388
1318.109	7468
1320.375	7261
1322.638	7369
1324.903	7290
1327.165	7377
1329.427	7354
1331.69	7378
1333.952	7234
1336.212	7335
1338.471	7297
1340.73	7439
1342.988	7334
1345.248	7260
1347.505	7327
1349.763	7361
1352.019	7270
1354.274	7313
1356.53	7394
1358.784	7299
1361.038	7224
1363.291	7326
1365.543	7298
1367.797	7340
1370.048	7413
1372.296	7385
1374.546	7292
1376.796	7436
1379.045	7400
1381.295	7436
1383.542	7451
1385.787	7394
1388.034	7311
1390.28	7473
1392.527	7394
1394.772	7515
1397.014	7535
1399.258	7421
1401.501	7571
1403.741	7435
1405.985	7477
1408.226	7533
1410.465	7606
1412.705	7460
1414.943	7550
1417.184	7440
1419.42	7401
1421.658	7512
1423.894	7457
1426.13	7519
1428.366	7480
1430.602	7519
1432.835	7657
1435.069	7535
1437.301	7629
1439.535	7612
1441.767	7642
1443.997	7707
1446.229	7538
1448.458	7675
1450.687	7657
1452.916	7665
1455.146	7579
1457.372	7643
1459.599	7725
1461.824	7612
1464.051	7693
1466.277	7653
1468.501	7539
1470.725	7522
1472.948	7720
1475.17	7522
1477.393	7441
1479.614	7513
1481.837	7433
1484.057	7385
1486.276	7450
1488.497	7441
1490.715	7356
1492.932	7337
1495.148	7384
1497.364	7386
1499.58	7482
1501.798	7395
1504.012	7475
1506.227	7382
1508.44	7302
1510.653	7350
1512.866	7343
1515.078	7459
1517.289	7391
1519.5	7311
1521.711	7322
1523.92	7324
1526.13	7361
1528.338	7435
1530.544	7316
1532.752	7615
1534.959	7330
1537.165	7370
1539.371	7429
1541.574	7449
1543.779	7455
1545.983	7370
1548.187	7307
1550.39	7409
1552.59	7601
1554.792	7406
1556.991	7357
1559.19	7539
1561.392	7475
1563.59	7392
1565.789	7527
1567.986	7452
1570.182	7596
1572.381	7337
1574.576	7536
1576.771	7460
1578.966	7549
1581.16	7480
1583.354	7510
1585.546	7579
1587.74	7515
1589.931	7592
1592.121	7562
1594.311	7581
1596.502	7595
1598.693	7613
1600.881	7655
1603.069	7552
1605.256	7651
1607.445	7644
1609.631	7574
1611.816	7617
1614.001	7592
1616.186	7541
1618.37	7648
1620.555	7677
1622.737	7591
1624.919	7635
1627.101	7651
1629.282	7639
1631.463	7540
1633.643	7614
1635.822	7707
1638.001	7719
1640.179	7574
1642.359	7688
1644.534	7619
1646.711	7725
1648.887	7737
1651.062	7717
1653.235	7637
1655.412	7674
1657.586	7813
1659.757	7607
1661.93	7762
1664.1	7663
1666.274	7591
1668.445	7725
1670.614	7628
1672.784	7773
1674.951	7626
1677.12	7646
1679.289	7870
1681.457	7632
1683.622	7664
1685.789	7685
1687.953	7542
1690.121	7652
1692.284	7739
1694.447	7560
1696.611	7592
1698.772	7634
1700.935	7648
1703.098	7640
1705.258	7711
1707.417	7591
1709.576	7557
1711.736	7648
1713.896	7482
1716.053	7511
1718.21	7541
1720.366	7450
1722.522	7595
1724.68	7598
1726.835	7512
1728.989	7536
1731.142	7493
1733.295	7488
1735.449	7581
1737.601	7521
1739.753	7551
1741.903	7536
1744.054	7466
1746.203	7490
1748.354	7519
1750.503	7517
1752.651	7528
1754.798	7616
1756.944	7525
1759.092	7582
1761.238	7566
1763.383	7689
1765.528	7587
1767.672	7646
1769.814	7558
1771.959	7650
1774.102	7622
1776.242	7662
1778.384	7672
1780.525	7550
1782.665	7625
1784.805	7583
1786.945	7678
1789.082	7619
1791.22	7873
1793.36	7685
1795.495	7586
1797.632	7747
1799.766	7668
1801.902	7541
1804.035	7677
1806.172	7581
1808.304	7628
1810.436	7631
1812.569	7533
1814.699	7702
1816.833	7544
1818.963	7616
1821.092	7588
1823.222	7577
1825.35	7580
1827.478	7641
1829.608	7507
1831.734	7490
1833.86	7611
1835.986	7555
1838.11	7614
1840.238	7621
1842.362	7580
1844.485	7594
1846.608	7584
1848.73	7636
1850.853	7522
1852.974	7560
1855.097	7501
1857.217	7591
1859.336	7584
1861.455	7512
1863.576	7534
1865.693	7458
1867.811	7629
1869.926	7535
1872.042	7387
1874.16	7453
1876.275	7659
1878.39	7646
1880.504	7474
1882.618	7527
1884.731	7519
1886.843	7574
1888.956	7573
1891.067	7692
1893.178	7554
1895.287	7515
1897.399	7483
1899.508	7635
1901.617	7517
1903.724	7671
1905.832	7526
1907.941	7568
1910.046	7591
1912.152	7596
1914.256	7723
1916.361	7560
1918.464	7598
1920.57	7586
1922.672	7603
1924.775	7510
1926.876	7703
1928.978	7703
1931.08	7640
1933.181	7655
1935.28	7624
1937.38	7632
1939.478	7668
1941.577	7718
1943.675	7591
1945.771	7734
1947.867	7609
1949.964	7736
1952.058	7660
1954.154	7759
1956.248	7700
1958.343	7537
1960.435	7684
1962.527	7752
1964.62	7624
1966.711	7787
1968.802	7563
1970.892	7660
1972.983	7593
1975.072	7691
1977.162	7623
1979.25	7594
1981.337	7515
1983.424	7532
1985.51	7652
1987.598	7628
1989.683	7552
1991.768	7688
1993.852	7674
1995.934	7496
1998.019	7588
2000.102	7523
2002.184	7531
2004.266	7594
2006.347	7568
2008.427	7490
2010.508	7528
2012.587	7496
2014.666	7562
2016.745	7544
2018.821	7521
2020.9	7448
2022.977	7571
2025.052	7499
2027.128	7525
2029.204	7555
2031.277	7451
2033.353	7635
2035.425	7554
2037.499	7481
2039.57	7622
2041.642	7552
2043.714	7413
2045.786	7613
2047.855	7517
2049.925	7628
2051.993	7493
2054.064	7581
2056.132	7482
2058.2	7582
2060.266	7534
2062.332	7573
2064.398	7565
2066.465	7563
2068.529	7549
2070.592	7655
2072.657	7593
2074.719	7592
2076.783	7503
2078.845	7670
2080.907	7564
2082.968	7564
2085.028	7561
2087.087	7615
2089.148	7402
2091.207	7569
2093.264	7535
2095.322	7528
2097.379	7573
2099.439	7473
2101.495	7505
2103.55	7659
2105.605	7557
2107.658	7561
2109.713	7565
2111.767	7531
2113.82	7495
2115.872	7528
2117.924	7509
2119.975	7592
2122.028	7518
2124.078	7533
2126.126	7548
2128.176	7558
2130.225	7539
2132.275	7448
2134.321	7561
2136.368	7398
2138.415	7486
2140.461	7545
2142.505	7502
2144.552	7477
2146.597	7376
2148.64	7515
2150.684	7514
2152.725	7418
2154.77	7379
2156.811	7436
2158.852	7439
2160.894	7456
2162.933	7418
2164.973	7383
2167.013	7503
2169.051	7295
2171.089	7443
2173.126	7420
2175.164	7471
2177.201	7386
2179.236	7391
2181.273	7490
2183.307	7313
2185.341	7391
2187.377	7374
2189.41	7280
2191.442	7436
2193.473	7364
2195.506	7215
2197.539	7347
2199.569	7330
2201.598	7313
2203.628	7272
2205.656	7367
2207.686	7287
2209.716	7420
2211.743	7298
2213.769	7251
2215.796	7284
2217.821	7209
2219.848	7302
2221.873	7310
2223.897	7285
2225.921	7314
2227.944	7353
2229.967	7234
2231.991	7211
2234.011	7417
2236.032	7295
2238.053	7365
2240.073	7309
2242.094	7317
2244.114	7415
2246.131	7241
2248.149	7286
2250.167	7178
2252.186	7186
2254.201	7320
2256.218	7241
2258.233	7398
2260.247	7157
2262.262	7267
2264.278	7293
2266.29	7238
2268.303	7172
2270.315	7204
2272.327	7392
2274.341	7199
2276.35	7104
2278.361	7307
2280.37	7274
2282.38	7316
2284.388	7352
2286.397	7267
2288.405	7278
2290.412	7129
2292.419	7255
2294.425	7271
2296.431	7193
2298.437	7364
2300.441	7272
2302.445	7274
2304.449	7207
2306.453	7252
2308.455	7247
2310.457	7204
2312.459	7336
2314.46	7111
2316.46	7259
2318.461	7147
2320.46	7125
2322.458	7208
2324.458	7186
2326.456	7207
2328.455	7300
2330.451	7189
2332.447	7166
2334.443	7279
2336.438	7189
2338.433	7307
2340.429	7238
2342.422	7124
2344.416	7182
2346.408	7114
2348.399	7206
2350.393	7033
2352.384	7177
2354.375	7068
2356.365	7160
2358.355	7066
2360.344	7089
2362.333	7139
2364.322	7130
2366.309	6990
2368.295	7057
2370.282	7051
2372.27	7052
2374.256	6988
2376.24	7108
2378.225	7048
2380.208	7037
2382.194	7130
2384.177	7014
2386.159	7029
2388.142	6904
2390.122	7042
2392.105	7059
2394.085	7064
2396.066	7095
2398.044	6983
2400.024	7029
2402.002	6990
2403.982	6971
2405.959	7023
2407.935	7033
2409.913	6993
2411.888	6916
2413.865	6921
2415.84	7025
2417.814	6945
2419.788	7098
2421.762	6946
2423.735	6965
2425.708	7011
2427.68	6899
2429.651	7089
2431.623	6987
2433.593	6943
2435.564	6978
2437.533	6955
2439.502	7048
2441.47	7001
2443.438	6981
2445.406	6847
2447.373	6893
2449.34	6989
2451.305	6915
2453.271	6871
2455.235	6970
2457.201	6968
2459.165	6860
2461.129	6750
2463.092	6911
2465.054	6882
2467.018	7055
2468.978	6843
2470.939	6870
2472.899	6953
2474.86	6907
2476.819	6914
2478.778	6783
2480.737	6921
2482.695	6851
2484.653	7003
2486.609	6789
2488.567	6890
2490.524	6854
2492.478	6828
2494.433	6781
2496.387	6813
2498.343	6818
2500.297	6825
2502.249	6818
2504.202	6850
2506.153	6817
2508.105	6945
2510.057	6744
2512.008	6822
2513.957	6890
2515.906	6809
2517.855	6870
2519.805	6717
2521.754	6724
2523.7	6695
2525.647	6761
2527.594	6833
2529.54	6736
2531.486	6718
2533.431	6697
2535.376	6913
2537.32	6865
2539.263	6726
2541.207	6792
2543.151	6805
2545.093	6713
2547.034	6872
2548.975	6767
2550.917	6754
2552.856	6758
2554.796	6774
2556.735	6809
2558.673	6738
2560.611	6836
2562.55	6879
2564.487	6648
2566.424	6775
2568.36	6737
2570.296	6824
2572.232	6752
2574.167	6843
2576.101	6873
2578.035	6789
2579.969	6774
2581.902	6644
2583.834	6759
2585.766	6803
2587.698	6799
2589.628	6803
2591.557	6826
2593.489	6774
2595.419	6665
2597.348	6772
2599.275	6755
2601.204	6852
2603.131	6738
2605.059	6595
2606.986	6816
2608.911	6706
2610.837	6817
2612.76	6678
2614.687	6800
2616.61	6687
2618.534	6763
2620.457	6791
2622.38	6784
2624.302	6922
2626.225	6665
2628.145	6744
2630.067	6848
2631.986	6751
2633.906	6803
2635.827	6752
2637.745	6784
2639.662	6791
2641.581	6726
2643.498	6809
2645.415	6735
2647.331	6774
2649.248	6757
2651.163	6755
2653.077	6821
2654.993	6760
2656.906	6665
2658.821	6827
2660.733	6784
2662.646	6908
2664.557	6805
2666.47	6728
2668.381	6729
2670.291	6776
2672.201	6667
2674.11	6589
2676.021	6670
2677.929	6656
2679.837	6735
2681.745	6731
2683.652	6701
2685.56	6667
2687.466	6714
2689.371	6691
2691.276	6673
2693.181	6592
2695.085	6643
2696.991	6657
2698.893	6679
2700.796	6633
2702.698	6690
2704.601	6726
2706.502	6718
2708.404	6704
2710.304	6674
2712.203	6744
2714.103	6631
2716.003	6659
2717.902	6642
2719.8	6525
2721.697	6633
2723.594	6588
2725.49	6595
2727.389	6546
2729.283	6515
2731.179	6562
2733.073	6560
2734.968	6696
2736.863	6568
2738.757	6494
2740.649	6616
2742.541	6671
2744.433	6435
2746.324	6578
2748.216	6561
2750.107	6558
2751.997	6737
2753.886	6494
2755.776	6510
2757.666	6608
2759.553	6425
2761.44	6588
2763.327	6535
2765.215	6504
2767.102	6527
2768.988	6544
2770.873	6564
2772.757	6548
2774.641	6543
2776.525	6592
2778.41	6475
2780.292	6547
2782.175	6532
2784.057	6432
2785.938	6517
2787.821	6489
2789.701	6513
2791.581	6469
2793.461	6499
2795.34	6417
2797.219	6515
2799.099	6398
2800.975	6442
2802.853	6445
2804.73	6395
2806.606	6364
2808.484	6517
2810.358	6438
2812.233	6512
2814.108	6567
2815.981	6401
2817.857	6370
2819.73	6395
2821.602	6406
2823.474	6409
2825.346	6324
2827.217	6420
2829.089	6429
2830.959	6340
2832.829	6452
2834.698	6427
2836.567	6427
2838.436	6446
2840.305	6415
2842.172	6387
2844.04	6319
2845.905	6423
2847.772	6401
2849.639	6547
2851.503	6427
2853.369	6437
2855.232	6488
2857.096	6536
2858.961	6444
2860.824	6553
2862.686	6447
2864.547	6529
2866.41	6500
2868.272	6473
2870.132	6547
2871.992	6617
2873.851	6683
2875.711	6516
2877.57	6667
2879.429	6687
2881.287	6641
2883.144	6794
2885.001	6734
2886.857	6616
2888.714	6685
2890.57	6671
2892.425	6811
2894.279	6825
2896.133	6683
2897.987	6616
2899.842	6729
2901.694	6712
2903.547	6730
2905.397	6746
2907.249	6688
2909.101	6696
2910.952	6873
2912.802	6852
2914.652	6700
2916.5	6864
2918.35	6800
2920.198	6940
2922.045	6876
2923.893	6986
2925.74	6996
2927.585	7074
2929.433	7017
2931.279	7070
2933.123	7044
2934.968	7123
2936.811	7251
2938.656	7149
2940.5	7279
2942.342	7319
2944.185	7417
2946.026	7339
2947.87	7294
2949.71	7376
2951.549	7254
2953.39	7194
2955.229	7239
2957.069	7064
2958.908	6984
2960.746	7155
2962.584	7153
2964.421	6932
2966.257	6935
2968.094	6858
2969.931	6950
2971.766	6871
2973.601	6662
2975.435	6837
2977.27	6753
2979.105	6783
2980.938	6747
2982.77	6781
2984.602	6823
2986.434	6690
2988.267	6670
2990.097	6528
2991.927	6626
2993.757	6547
2995.587	6584
2997.417	6565
2999.246	6604
3001.074	6379
3002.902	6310
3004.729	6413
3006.556	6387
3008.384	6306
3010.21	6328
3012.036	6249
3013.861	6165
3015.684	6115
3017.51	6266
3019.334	6086
3021.157	6183
3022.981	6261
3024.802	6147
3026.624	5982
3028.448	6031
3030.267	5961
3032.088	6017
3033.909	6065
3035.728	6112
3037.549	5965
3039.368	5985
3041.186	5895
3043.004	5934
3044.821	6007
3046.64	5884
3048.455	5894
3050.272	5936
3052.087	5999
3053.903	5989
3055.717	5947
3057.534	5904
3059.347	5962
3061.16	5882
3062.974	5933
3064.785	5946
3066.598	6011
3068.411	5945
3070.222	5858
3072.032	5826
3073.844	5908
3075.653	5838
3077.463	5983
3079.272	5924
3081.08	5835
3082.889	5849
3084.697	5801
3086.505	5921
3088.312	5773
3090.118	5766
3091.924	5895
3093.729	5810
3095.535	5860
3097.34	5842
3099.144	5796
3100.947	5801
3102.75	5807
3104.553	5846
3106.357	5807
3108.159	5783
3109.961	5683
3111.762	5780
3113.562	5752
3115.365	5750
3117.164	5748
3118.964	5701
3120.761	5744
3122.56	5679
3124.36	5709
3126.158	5713
3127.954	5686
3129.75	5561
3131.547	5701
3133.343	5719
3135.139	5726
3136.934	5619
3138.729	5675
3140.522	5584
3142.317	5524
3144.11	5553
3145.904	5716
3147.695	5656
3149.488	5604
3151.28	5579
3153.07	5620
3154.863	5619
3156.652	5565
3158.441	5500
3160.231	5758
3162.019	5598
3163.81	5560
3165.597	5506
3167.384	5617
3169.172	5554
3170.958	5524
3172.745	5532
3174.532	5446
3176.317	5557
3178.101	5471
3179.885	5532
3181.67	5564
3183.455	5610
3185.238	5411
3187.02	5490
3188.802	5504
3190.585	5537
3192.368	5526
3194.149	5507
3195.929	5445
3197.709	5507
3199.489	5339
3201.268	5523
3203.048	5623
3204.826	5473
3206.604	5477
3208.382	5522
3210.159	5455
3211.937	5451
3213.713	5528
3215.489	5408
3217.263	5526
3219.038	5522
3220.815	5434
3222.589	5438
3224.363	5498
3226.136	5523
3227.908	5348
3229.681	5505
3231.454	5419
3233.226	5428
3234.996	5461
3236.767	5494
3238.538	5463
3240.308	5378
3242.078	5510
3243.847	5413
3245.615	5436
3247.384	5338
3249.15	5433
3250.92	5466
3252.686	5343
3254.453	5454
3256.218	5383
3257.984	5515
3259.75	5428
3261.515	5498
3263.279	5446
3265.044	5434
3266.806	5425
3268.57	5407
3270.334	5473
3272.095	5464
3273.856	5431
3275.619	5437
3277.379	5384
3279.14	5462
3280.9	5421
3282.661	5525
3284.419	5502
3286.178	5288
3287.937	5380
3289.695	5431
3291.453	5501
3293.21	5420
3294.967	5413
3296.723	5404
3298.48	5455
3300.235	5383
3301.99	5512
3303.744	5454
3305.498	5421
3307.253	5318
3309.006	5384
3310.759	5407
3312.511	5488
3314.263	5271
3316.017	5357
3317.768	5486
3319.519	5370
3321.268	5378
3323.018	5426
3324.767	5464
3326.518	5409
3328.267	5367
3330.014	5463
3331.762	5335
3333.509	5375
3335.258	5383
3337.003	5371
3338.75	5288
3340.496	5373
3342.24	5425
3343.987	5379
3345.732	5300
3347.475	5390
3349.219	5354
3350.961	5233
3352.705	5308
3354.448	5360
3356.19	5306
3357.931	5240
3359.672	5251
3361.412	5344
3363.155	5234
3364.894	5215
3366.633	5214
3368.372	5279
3370.11	5335
3371.849	5272
3373.588	5225
3375.325	5070
3377.061	5216
3378.799	5289
3380.534	5228
3382.271	5318
3384.006	5198
3385.741	5213
3387.475	5151
3389.209	5124
3390.944	5203
3392.677	5287
3394.409	5127
3396.143	5101
3397.874	5199
3399.606	5138
3401.338	5149
3403.069	5248
3404.799	5165
3406.528	5111
3408.258	5138
3409.988	5136
3411.717	5185
3413.445	5229
3415.173	5253
3416.899	5285
3418.626	5187
3420.354	5140
3422.08	5139
3423.806	5092
3425.531	5054
3427.255	5033
3428.981	5140
3430.705	5103
3432.429	5062
3434.151	5032
3435.875	5112
3437.599	5051
3439.321	5021
3441.042	5171
3442.763	5064
3444.483	4993
3446.204	5048
3447.926	5120
3449.645	5068
3451.364	5019
3453.082	4993
3454.801	5092
3456.52	4965
3458.238	5021
3459.954	4902
3461.671	4939
3463.387	5082
3465.104	4910
3466.82	5025
3468.534	4950
3470.25	4929
3471.963	4913
3473.676	4942
3475.392	4870
3477.104	4992
3478.817	4994
3480.528	4899
3482.241	4869
3483.954	4882
3485.664	5009
3487.374	4828
3489.084	4822
3490.795	4930
3492.504	4781
3494.214	4850
3495.922	4881
3497.63	4827
3499.338	4852
3501.045	4895
3502.753	4848
3504.459	4811
3506.166	4918
3507.871	4778
3509.576	4779
3511.283	4854
3512.987	4837
3514.691	4830
3516.395	4776
3518.098	4783
3519.8	4831
3521.504	4740
3523.206	4755
3524.908	4828
3526.609	4713
3528.309	4758
3530.011	4820
3531.711	4759
3533.411	4833
3535.109	4717
3536.808	4711
3538.507	4699
3540.206	4700
3541.904	4742
3543.601	4777
3545.297	4805
3546.994	4693
3548.69	4730
3550.387	4687
3552.081	4701
3553.776	4689
3555.47	4702
3557.166	4683
3558.859	4608
3560.553	4653
3562.245	4636
3563.938	4721
3565.629	4750
3567.322	4591
3569.014	4625
3570.704	4681
3572.394	4646
3574.084	4641
3575.775	4654
3577.464	4710
3579.152	4648
3580.842	4606
3582.529	4610
3584.216	4545
3585.905	4690
3587.591	4589
3589.279	4553
3590.964	4650
3592.649	4570
3594.336	4588
3596.021	4533
3597.705	4496
3599.388	4556
3601.072	4469
3602.757	4532
3604.439	4430
3606.122	4421
3607.803	4520
3609.485	4446
3611.167	4543
3612.849	4581
3614.529	4519
3616.208	4526
3617.888	4494
3619.567	4536
3621.247	4484
3622.926	4433
3624.603	4469
3626.281	4462
3627.958	4468
3629.635	4350
3631.312	4447
3632.989	4390
3634.665	4446
3636.339	4339
3638.014	4486
3639.691	4393
3641.364	4360
3643.038	4421
3644.71	4287
3646.384	4491
3648.058	4401
3649.729	4332
3651.402	4421
3653.073	4361
3654.744	4252
3656.414	4308
3658.085	4369
3659.755	4384
3661.424	4339
3663.094	4344
3664.762	4343
3666.431	4303
3668.099	4381
3669.766	4340
3671.433	4399
3673.099	4317
3674.768	4327
3676.433	4364
3678.098	4255
3679.763	4283
3681.428	4281
3683.093	4291
3684.757	4204
3686.421	4274
3688.083	4137
3689.746	4212
3691.408	4305
3693.071	4279
3694.733	4277
3696.394	4211
3698.054	4312
3699.715	4373
3701.375	4163
3703.036	4331
3704.695	4302
3706.354	4269
3708.012	4240
3709.67	4165
3711.329	4213
3712.987	4194
3714.644	4174
3716.299	4179
3717.955	4302
3719.613	4190
3721.268	4189
3722.923	4178
3724.577	4185
3726.231	4334
3727.885	4141
3729.539	4160
3731.192	4217
3732.845	4165
3734.497	4197
3736.149	4186
3737.802	4135
3739.453	4175
3741.104	4084
3742.753	4159
3744.404	4119
3746.052	4046
3747.704	4102
3749.352	4158
3751	4181
3752.648	4101
3754.296	4113
3755.944	4141
3757.59	4081
3759.238	4188
3760.883	4187
3762.528	4140
3764.176	4187
3765.82	4007
3767.464	4100
3769.109	4091
3770.753	4223
3772.396	4036
3774.04	4117
3775.683	4032
3777.325	4039
3778.967	4006
3780.608	4126
3782.25	4141
3783.89	4040
3785.531	4133
3787.17	4080
3788.81	4059
3790.45	4025
3792.09	4037
3793.729	4058
3795.366	3992
3797.003	4054
3798.64	4033
3800.278	3983
3801.915	3976
3803.551	4007
3805.187	3888
3806.822	3980
3808.458	3995
3810.093	3982
3811.726	3983
3813.36	4026
3814.994	3958
3816.627	3929
3818.262	3964
3819.893	3973
3821.525	3837
3823.157	3889
3824.787	4018
3826.42	3957
3828.051	3991
3829.68	3999
3831.31	4026
3832.938	3938
3834.569	3940
3836.198	3798
3837.825	3888
3839.454	3909
3841.08	3895
3842.708	3913
3844.335	3878
3845.962	3875
3847.587	3868
3849.212	3952
3850.838	3892
3852.463	3868
3854.089	3779
3855.712	3866
3857.335	3856
3858.959	3949
3860.582	3802
3862.205	3908
3863.827	3885
3865.449	3914
3867.07	3859
3868.691	3849
3870.312	3740
3871.933	3862
3873.553	3830
3875.173	3873
3876.792	3850
3878.411	3765
3880.03	3896
3881.647	3794
3883.265	3780
3884.882	3816
3886.499	3774
3888.116	3808
3889.732	3892
3891.348	3749
3892.964	3882
3894.579	3854
3896.195	3845
3897.809	3755
3899.423	3772
3901.036	3742
3902.648	3769
3904.261	3801
3905.875	3801
3907.487	3776
3909.099	3751
3910.709	3824
3912.321	3872
3913.933	3861
3915.542	3729
3917.152	3807
3918.762	3807
3920.37	3764
3921.98	3717
3923.589	3735
3925.196	3714
3926.804	3712
3928.41	3750
3930.018	3803
3931.626	3774
3933.231	3797
3934.838	3747
3936.442	3732
3938.046	3741
3939.653	3788
3941.257	3732
3942.861	3670
3944.464	3707
3946.068	3668
3947.67	3748
3949.273	3708
3950.876	3722
3952.477	3672
3954.078	3711
3955.678	3816
3957.281	3754
3958.881	3638
3960.48	3671
3962.079	3622
3963.678	3629
3965.279	3720
3966.877	3660
3968.475	3591
3970.072	3693
3971.669	3627
3973.266	3673
3974.864	3627
3976.459	3616
3978.055	3565
3979.65	3580
3981.245	3643
3982.841	3618
3984.436	3617
3986.03	3580
3987.623	3629
3989.216	3614
3990.809	3592
3992.403	3600
3993.995	3596
3995.586	3619
3997.177	3532
3998.768	3543
4000.361	3594
4001.951	3629
4003.54	3565
4005.13	3489
4006.719	3529
4008.31	3506
4009.897	3607
4011.485	3490
4013.073	3580
4014.66	3473
4016.247	3519
4017.834	3526
4019.421	3550
4021.006	3482
4022.592	3502
4024.178	3468
4025.763	3458
4027.348	3489
4028.932	3477
4030.515	3486
4032.099	3442
4033.682	3544
4035.266	3475
4036.847	3508
4038.429	3414
4040.011	3422
4041.592	3478
4043.173	3396
4044.755	3431
4046.334	3425
4047.913	3450
4049.494	3409
4051.074	3443
4052.652	3447
4054.23	3351
4055.807	3400
4057.385	3338
4058.963	3378
4060.541	3435
4062.117	3359
4063.693	3317
4065.269	3391
4066.844	3337
4068.42	3348
4069.995	3366
4071.569	3511
4073.143	3343
4074.716	3322
4076.291	3425
4077.864	3362
4079.436	3423
4081.009	3279
4082.58	3409
4084.152	3346
4085.723	3316
4087.294	3358
4088.865	3296
4090.435	3397
4092.005	3411
4093.574	3335
4095.143	3324
4096.712	3308
4098.279	3418
4099.848	3240
4101.416	3406
4102.984	3412
4104.55	3316
4106.117	3333
4107.682	3397
4109.248	3254
4110.815	3294
4112.379	3294
4113.945	3249
4115.508	3231
4117.073	3288
4118.637	3232
4120.201	3316
4121.763	3237
4123.325	3290
4124.888	3246
4126.449	3321
4128.013	3169
4129.573	3270
4131.133	3252
4132.694	3191
4134.254	3249
4135.814	3191
4137.374	3141
4138.933	3296
4140.491	3262
4142.049	3194
4143.607	3233
4145.167	3254
4146.724	3243
4148.28	3156
4149.836	3242
4151.392	3151
4152.949	3141
4154.504	3144
4156.059	3144
4157.614	3205
4159.168	3173
4160.723	3128
4162.277	3144
4163.83	3205
4165.383	3210
4166.936	3108
4168.488	3158
4170.041	3145
4171.593	3123
4173.144	3093
4174.695	3128
4176.246	3117
4177.796	3122
4179.346	3053
4180.896	3182
4182.445	3156
4183.994	3115
4185.542	3116
4187.091	3164
4188.639	3156
4190.185	3096
4191.732	3043
4193.279	3139
4194.826	3060
4196.373	3069
4197.918	3089
4199.463	3059
4201.008	3039
4202.553	3110
4204.098	3077
4205.641	3028
4207.185	3039
4208.728	3042
4210.271	3078
4211.814	3014
4213.357	3015
4214.898	3067
4216.439	3063
4217.98	3058
4219.522	3089
4221.062	3046
4222.603	3085
4224.142	3084
4225.681	3066
4227.222	3100
4228.76	3032
4230.298	3065
4231.835	2978
4233.373	2975
4234.911	2976
4236.449	2976
4237.985	3020
4239.521	3041
4241.057	3022
4242.592	3020
4244.128	3080
4245.663	3013
4247.197	3010
4248.731	3002
4250.265	2973
4251.798	3005
4253.333	2996
4254.865	2943
4256.397	2987
4257.93	2933
4259.461	2978
4260.994	2947
4262.525	2914
4264.056	3046
4265.586	2984
4267.115	2980
4268.646	2988
4270.176	3007
4271.705	2934
4273.232	2928
4274.761	2949
4276.289	2898
4277.818	2947
4279.345	2955
4280.872	3005
4282.399	2880
4283.924	2982
4285.452	2964
4286.976	2908
4288.502	2910
4290.026	2906
4291.551	2927
4293.074	2890
4294.6	2904
4296.123	2911
4297.646	2872
4299.168	2902
4300.691	2914
4302.214	2937
4303.736	2833
4305.257	2907
4306.778	2862
4308.299	2839
4309.82	2890
4311.34	2831
4312.86	2889
4314.379	2870
