400.0745	3956
402.597	3856
405.1208	3950
407.6419	4007
410.1623	4049
412.6819	4011
415.201	4013
417.7172	4031
420.2369	4015
422.7538	4137
425.2701	4030
427.7856	4167
430.3005	4165
432.8147	4212
435.3282	4168
437.841	4207
440.3511	4208
442.8625	4155
445.3753	4149
447.8854	4223
450.3927	4242
452.9014	4255
455.4073	4195
457.9146	4280
460.4233	4137
462.9272	4214
465.4325	4276
467.935	4217
470.4389	4303
472.9421	4187
475.4446	4214
477.9444	4228
480.4456	4188
482.944	4238
485.4417	4292
487.9429	4374
490.4393	4385
492.935	4311
495.4321	4318
497.9264	4354
500.4221	4417
502.9171	4415
505.4094	4367
507.9011	4307
510.392	4380
512.8864	4326
515.3759	4399
517.8649	4318
520.3531	4410
522.8406	4444
525.3275	4419
527.8178	4429
530.3033	4445
532.7881	4369
535.2723	4462
537.7558	4411
540.2407	4423
542.7228	4399
545.2043	4385
547.6851	4417
550.1652	4479
552.6467	4366
555.1255	4431
557.6016	4389
560.079	4501
562.5557	4445
565.0318	4470
567.5092	4501
569.984	4502
572.456	4611
574.9294	4492
577.4022	4567
579.8762	4540
582.3456	4534
584.8163	4484
587.2863	4596
589.7557	4622
592.2224	4505
594.6924	4541
597.1578	4537
599.6245	4603
602.0905	4533
604.5538	4610
607.0206	4515
609.4825	4538
611.9459	4536
614.4066	4502
616.8686	4616
619.33	4601
621.7906	4567
624.2487	4530
626.708	4633
629.1647	4570
631.6207	4615
634.0801	4538
636.5348	4547
638.9888	4615
641.4442	4618
643.8969	4627
646.3509	4579
648.8022	4609
651.255	4617
653.705	4643
656.1544	4639
658.6031	4640
661.0532	4607
663.5026	4639
665.9493	4652
668.3954	4750
670.8409	4753
673.2877	4764
675.7318	4744
678.1752	4822
680.618	4756
683.0601	4626
685.5035	4690
687.9444	4684
690.3845	4859
692.824	4747
695.2628	4673
697.701	4752
700.1406	4742
702.5774	4747
705.0116	4760
707.4472	4857
709.8821	4690
712.3183	4790
714.7519	4816
717.1829	4855
719.6151	4892
722.0468	4864
724.4777	4929
726.908	4797
729.3377	4784
731.7667	4982
734.1931	5038
736.6208	4883
739.0498	5050
741.4742	4944
743.9	4909
746.3231	4981
748.7476	5022
751.1713	5031
753.5945	5003
756.015	5059
758.4368	5033
760.856	5107
763.2766	5112
765.6965	5139
768.1157	5075
770.5323	5123
772.9483	5173
775.3656	5030
777.7822	5036
780.1963	5112
782.6116	5151
785.0244	5141
787.4365	5210
789.8499	5120
792.2626	5055
794.6728	5169
797.0823	5174
799.4911	5103
801.8994	5069
804.3109	5154
806.7178	5056
809.124	5009
811.5297	5135
813.9347	5205
816.341	5307
818.7447	5185
821.1478	5204
823.5502	5165
825.952	5079
828.3531	5182
830.7556	5251
833.1554	5161
835.5546	5164
837.9532	5240
840.3511	5203
842.7504	5243
845.1451	5232
847.5411	5120
849.9365	5226
852.3312	5239
854.7272	5310
857.1187	5270
859.5115	5292
861.9037	5166
864.2952	5223
866.6842	5284
869.0764	5281
871.4661	5314
873.8531	5230
876.2415	5258
878.6272	5266
881.0162	5230
883.4026	5234
885.7866	5211
888.1717	5271
890.5543	5301
892.9382	5228
895.3215	5169
897.7041	5285
900.0842	5377
902.4655	5305
904.8443	5314
907.2244	5285
909.6039	5259
911.9808	5262
914.357	5291
916.7346	5261
919.1115	5370
921.4859	5408
923.8616	5499
926.2347	5448
928.6071	5292
930.979	5463
933.3541	5491
935.7247	5502
938.0946	5534
940.4639	5469
942.8326	5543
945.2026	5464
947.5701	5525
949.9369	5718
952.305	5913
954.6705	5840
957.0355	6005
959.4017	6128
961.7654	6101
964.1284	6210
966.4908	6002
968.8527	5911
971.2138	5875
973.5743	5737
975.9343	5705
978.2936	5484
980.6522	5554
983.0122	5403
985.3696	5423
987.7245	5384
990.0807	5350
992.4362	5367
994.7911	5416
997.1474	5444
999.4991	5420
1001.852	5495
1004.205	5471
1006.555	5505
1008.908	5487
1011.258	5551
1013.606	5482
1015.956	5470
1018.302	5477
1020.652	5506
1022.998	5478
1025.345	5468
1027.691	5410
1030.035	5524
1032.378	5447
1034.724	5531
1037.066	5541
1039.409	5611
1041.75	5453
1044.092	5476
1046.433	5523
1048.771	5565
1051.112	5590
1053.449	5501
1055.786	5481
1058.124	5584
1060.462	5641
1062.797	5586
1065.131	5555
1067.467	5596
1069.8	5627
1072.135	5578
1074.467	5566
1076.798	5576
1079.129	5569
1081.459	5625
1083.792	5513
1086.121	5566
1088.449	5601
1090.777	5564
1093.104	5513
1095.431	5596
1097.759	5627
1100.084	5537
1102.408	5622
1104.732	5542
1107.056	5622
1109.379	5737
1111.701	5556
1114.022	5558
1116.343	5613
1118.664	5642
1120.983	5600
1123.303	5759
1125.621	5647
1127.939	5620
1130.256	5713
1132.573	5609
1134.889	5677
1137.205	5616
1139.52	5610
1141.832	5633
1144.146	5786
1146.461	5676
1148.771	5590
1151.083	5690
1153.392	5566
1155.703	5716
1158.011	5642
1160.323	5671
1162.629	5617
1164.938	5615
1167.243	5700
1169.55	5576
1171.857	5574
1174.163	5658
1176.466	5636
1178.769	5731
1181.073	5641
1183.374	5579
1185.677	5653
1187.979	5630
1190.279	5656
1192.578	5578
1194.878	5694
1197.178	5624
1199.476	5511
1201.772	5558
1204.068	5702
1206.366	5659
1208.663	5689
1210.957	5609
1213.251	5655
1215.544	5671
1217.836	5766
1220.128	5711
1222.421	5605
1224.712	5704
1227.002	5648
1229.292	5717
1231.581	5805
1233.871	5760
1236.159	5835
1238.446	5818
1240.732	5925
1243.018	5806
1245.304	5844
1247.59	5908
1249.874	5974
1252.156	5869
1254.439	5773
1256.721	5898
1259.005	5810
1261.286	5874
1263.565	5790
1265.845	5800
1268.125	5885
1270.403	5876
1272.682	5870
1274.959	5766
1277.234	5865
1279.511	5829
1281.787	5865
1284.062	5717
1286.337	5904
1288.609	5831
1290.882	5786
1293.153	5745
1295.428	5736
1297.698	5761
1299.969	5846
1302.237	5685
1304.507	5830
1306.777	5697
1309.044	5864
1311.312	5867
1313.578	5754
1315.844	5736
1318.109	5793
1320.375	5897
1322.638	5809
1324.903	5876
1327.165	5845
1329.427	5767
1331.69	5777
1333.952	5754
1336.212	5839
1338.471	5835
1340.73	5866
1342.988	5768
1345.248	5795
1347.505	5753
1349.763	5846
1352.019	5769
1354.274	5826
1356.53	5779
1358.784	5903
1361.038	5799
1363.291	5811
1365.543	5823
1367.797	5835
1370.048	5756
1372.296	5854
1374.546	5691
1376.796	5895
1379.045	5747
1381.295	5809
1383.542	5761
1385.787	5804
1388.034	5902
1390.28	5743
1392.527	5932
1394.772	5876
1397.014	5921
1399.258	5956
1401.501	5917
1403.741	5940
1405.985	5887
1408.226	5933
1410.465	5882
1412.705	5917
1414.943	5870
1417.184	6033
1419.42	6028
1421.658	5851
1423.894	5954
1426.13	5896
1428.366	5954
1430.602	5963
1432.835	5926
1435.069	6086
1437.301	6066
1439.535	6026
1441.767	6024
1443.997	6024
1446.229	6002
1448.458	5968
1450.687	6019
1452.916	6141
1455.146	6171
1457.372	6149
1459.599	6084
1461.824	6045
1464.051	6029
1466.277	6109
1468.501	5921
1470.725	5978
1472.948	6048
1475.17	6047
1477.393	5959
1479.614	5912
1481.837	5940
1484.057	5941
1486.276	5923
1488.497	5933
1490.715	5890
1492.932	5973
1495.148	5914
1497.364	5886
1499.58	5853
1501.798	5884
1504.012	5812
1506.227	5868
1508.44	5888
1510.653	5842
1512.866	5859
1515.078	5909
1517.289	5854
1519.5	5857
1521.711	5983
1523.92	5796
1526.13	5790
1528.338	5897
1530.544	5978
1532.752	5857
1534.959	5876
1537.165	5921
1539.371	5876
1541.574	5862
1543.779	5985
1545.983	5947
1548.187	5892
1550.39	5952
1552.59	5921
1554.792	5801
1556.991	5959
1559.19	5906
1561.392	5962
1563.59	5958
1565.789	6004
1567.986	6031
1570.182	6144
1572.381	6093
1574.576	6063
1576.771	5991
1578.966	6005
1581.16	6046
1583.354	6013
1585.546	5970
1587.74	6175
1589.931	5938
1592.121	6171
1594.311	5978
1596.502	6113
1598.693	6114
1600.881	6038
1603.069	6066
1605.256	6163
1607.445	6041
1609.631	6089
1611.816	6089
1614.001	6085
1616.186	6115
1618.37	6152
1620.555	6230
1622.737	6115
1624.919	6095
1627.101	6181
1629.282	6125
1631.463	6227
1633.643	6098
1635.822	6195
1638.001	6241
1640.179	6200
1642.359	6161
1644.534	6174
1646.711	6069
1648.887	6299
1651.062	6254
1653.235	6071
1655.412	6228
1657.586	6170
1659.757	6317
1661.93	6336
1664.1	6214
1666.274	6241
1668.445	6279
1670.614	6236
1672.784	6292
1674.951	6176
1677.12	6258
1679.289	6234
1681.457	6223
1683.622	6279
1685.789	6235
1687.953	6260
1690.121	6222
1692.284	6183
1694.447	6190
1696.611	6237
1698.772	6101
1700.935	6102
1703.098	6226
1705.258	6243
1707.417	6082
1709.576	6134
1711.736	6288
1713.896	6153
1716.053	6168
1718.21	6211
1720.366	6166
1722.522	6247
1724.68	6143
1726.835	6188
1728.989	6076
1731.142	6183
1733.295	6149
1735.449	6179
1737.601	6234
1739.753	6262
1741.903	6154
1744.054	6175
1746.203	6252
1748.354	6262
1750.503	6236
1752.651	6269
1754.798	6141
1756.944	6241
1759.092	6269
1761.238	6214
1763.383	6289
1765.528	6308
1767.672	6182
1769.814	6209
1771.959	6278
1774.102	6213
1776.242	6236
1778.384	6350
1780.525	6303
1782.665	6256
1784.805	6213
1786.945	6266
1789.082	6259
1791.22	6130
1793.36	6348
1795.495	6334
1797.632	6303
1799.766	6248
1801.902	6150
1804.035	6444
1806.172	6279
1808.304	6268
1810.436	6384
1812.569	6186
1814.699	6324
1816.833	6277
1818.963	6257
1821.092	6238
1823.222	6320
1825.35	6281
1827.478	6377
1829.608	6324
1831.734	6312
1833.86	6368
1835.986	6193
1838.11	6210
1840.238	6314
1842.362	6246
1844.485	6290
1846.608	6305
1848.73	6253
1850.853	6227
1852.974	6239
1855.097	6339
1857.217	6252
1859.336	6134
1861.455	6355
1863.576	6124
1865.693	6274
1867.811	6231
1869.926	6248
1872.042	6302
1874.16	6155
1876.275	6350
1878.39	6253
1880.504	6310
1882.618	6272
1884.731	6146
1886.843	6261
1888.956	6313
1891.067	6205
1893.178	6280
1895.287	6289
1897.399	6404
1899.508	6321
1901.617	6318
1903.724	6294
1905.832	6308
1907.941	6289
1910.046	6368
1912.152	6307
1914.256	6516
1916.361	6368
1918.464	6239
1920.57	6451
1922.672	6334
1924.775	6384
1926.876	6300
1928.978	6488
1931.08	6356
1933.181	6336
1935.28	6458
1937.38	6265
1939.478	6372
1941.577	6406
1943.675	6448
1945.771	6376
1947.867	6394
1949.964	6417
1952.058	6361
1954.154	6434
1956.248	6267
1958.343	6403
1960.435	6424
1962.527	6488
1964.62	6378
1966.711	6381
1968.802	6338
1970.892	6386
1972.983	6443
1975.072	6418
1977.162	6383
1979.25	6308
1981.337	6433
1983.424	6361
1985.51	6268
1987.598	6345
1989.683	6295
1991.768	6340
1993.852	6375
1995.934	6346
1998.019	6345
2000.102	6258
2002.184	6323
2004.266	6409
2006.347	6437
2008.427	6337
2010.508	6339
2012.587	6281
2014.666	6276
2016.745	6441
2018.821	6338
2020.9	6267
2022.977	6344
2025.052	6388
2027.128	6402
2029.204	6259
2031.277	6409
2033.353	6453
2035.425	6408
2037.499	6286
2039.57	6365
2041.642	6398
2043.714	6447
2045.786	6352
2047.855	6333
2049.925	6539
2051.993	6413
2054.064	6406
2056.132	6401
2058.2	6517
2060.266	6446
2062.332	6400
2064.398	6409
2066.465	6444
2068.529	6461
2070.592	6550
2072.657	6493
2074.719	6483
2076.783	6364
2078.845	6370
2080.907	6300
2082.968	6563
2085.028	6447
2087.087	6502
2089.148	6493
2091.207	6360
2093.264	6424
2095.322	6498
2097.379	6515
2099.439	6410
2101.495	6359
2103.55	6414
2105.605	6434
2107.658	6464
2109.713	6465
2111.767	6480
2113.82	6472
2115.872	6496
2117.924	6424
2119.975	6435
2122.028	6528
2124.078	6522
2126.126	6523
2128.176	6507
2130.225	6479
2132.275	6407
2134.321	6529
2136.368	6546
2138.415	6485
2140.461	6534
2142.505	6507
2144.552	6559
2146.597	6427
2148.64	6520
2150.684	6477
2152.725	6465
2154.77	6580
2156.811	6473
2158.852	6495
2160.894	6462
2162.933	6482
2164.973	6465
2167.013	6454
2169.051	6530
2171.089	6438
2173.126	6415
2175.164	6508
2177.201	6510
2179.236	6485
2181.273	6446
2183.307	6484
2185.341	6547
2187.377	6296
2189.41	6322
2191.442	6565
2193.473	6410
2195.506	6451
2197.539	6372
2199.569	6463
2201.598	6389
2203.628	6439
2205.656	6515
2207.686	6402
2209.716	6452
2211.743	6497
2213.769	6422
2215.796	6333
2217.821	6448
2219.848	6491
2221.873	6415
2223.897	6363
2225.921	6485
2227.944	6344
2229.967	6480
2231.991	6345
2234.011	6536
2236.032	6426
2238.053	6537
2240.073	6450
2242.094	6460
2244.114	6489
2246.131	6417
2248.149	6406
2250.167	6517
2252.186	6372
2254.201	6548
2256.218	6472
2258.233	6554
2260.247	6439
2262.262	6375
2264.278	6445
2266.29	6508
2268.303	6591
2270.315	6472
2272.327	6498
2274.341	6450
2276.35	6516
2278.361	6520
2280.37	6497
2282.38	6495
2284.388	6501
2286.397	6478
2288.405	6462
2290.412	6502
2292.419	6548
2294.425	6460
2296.431	6457
2298.437	6558
2300.441	6462
2302.445	6518
2304.449	6496
2306.453	6533
2308.455	6400
2310.457	6461
2312.459	6524
2314.46	6462
2316.46	6498
2318.461	6494
2320.46	6508
2322.458	6443
2324.458	6435
2326.456	6580
2328.455	6519
2330.451	6481
2332.447	6417
2334.443	6484
2336.438	6518
2338.433	6452
2340.429	6471
2342.422	6418
2344.416	6307
2346.408	6476
2348.399	6365
2350.393	6458
2352.384	6439
2354.375	6470
2356.365	6364
2358.355	6420
2360.344	6343
2362.333	6334
2364.322	6376
2366.309	6388
2368.295	6397
2370.282	6360
2372.27	6414
2374.256	6387
2376.24	6368
2378.225	6371
2380.208	6303
2382.194	6332
2384.177	6455
2386.159	6412
2388.142	6372
2390.122	6375
2392.105	6443
2394.085	6331
2396.066	6312
2398.044	6326
2400.024	6441
2402.002	6367
2403.982	6346
2405.959	6390
2407.935	6339
2409.913	6319
2411.888	6292
2413.865	6290
2415.84	6450
2417.814	6304
2419.788	6401
2421.762	6298
2423.735	6421
2425.708	6390
2427.68	6254
2429.651	6351
2431.623	6403
2433.593	6435
2435.564	6432
2437.533	6475
2439.502	6296
2441.47	6259
2443.438	6376
2445.406	6369
2447.373	6359
2449.34	6402
2451.305	6296
2453.271	6311
2455.235	6492
2457.201	6313
2459.165	6261
2461.129	6359
2463.092	6310
2465.054	6317
2467.018	6238
2468.978	6353
2470.939	6285
2472.899	6227
2474.86	6179
2476.819	6303
2478.778	6241
2480.737	6295
2482.695	6235
2484.653	6409
2486.609	6265
2488.567	6223
2490.524	6337
2492.478	6187
2494.433	6318
2496.387	6254
2498.343	6174
2500.297	6249
2502.249	6249
2504.202	6266
2506.153	6255
2508.105	6218
2510.057	6189
2512.008	6265
2513.957	6325
2515.906	6284
2517.855	6308
2519.805	6171
2521.754	6309
2523.7	6060
2525.647	6283
2527.594	6261
2529.54	6265
2531.486	6177
2533.431	6300
2535.376	6170
2537.32	6205
2539.263	6245
2541.207	6235
2543.151	6257
2545.093	6304
2547.034	6148
2548.975	6257
2550.917	6063
2552.856	6342
2554.796	6202
2556.735	6145
2558.673	6117
2560.611	6109
2562.55	6200
2564.487	6242
2566.424	6257
2568.36	6156
2570.296	6142
2572.232	6094
2574.167	6286
2576.101	6273
2578.035	6269
2579.969	6330
2581.902	6216
2583.834	6119
2585.766	6242
2587.698	6110
2589.628	6327
2591.557	6254
2593.489	6263
2595.419	6249
2597.348	6240
2599.275	6444
2601.204	6197
2603.131	6190
2605.059	6247
2606.986	6338
2608.911	6252
2610.837	6229
2612.76	6193
2614.687	6263
2616.61	6231
2618.534	6301
2620.457	6222
2622.38	6199
2624.302	6127
2626.225	6223
2628.145	6219
2630.067	6219
2631.986	6201
2633.906	6247
2635.827	6223
2637.745	6173
2639.662	6280
2641.581	6256
2643.498	6122
2645.415	6269
2647.331	6235
2649.248	6204
2651.163	6308
2653.077	6297
2654.993	6216
2656.906	6145
2658.821	6223
2660.733	6168
2662.646	6209
2664.557	6227
2666.47	6089
2668.381	6135
2670.291	6197
2672.201	6131
2674.11	6203
2676.021	6167
2677.929	6167
2679.837	6155
2681.745	6082
2683.652	6166
2685.56	6209
2687.466	6140
2689.371	6234
2691.276	6164
2693.181	6158
2695.085	6062
2696.991	6122
2698.893	6211
2700.796	6057
2702.698	6034
2704.601	6129
2706.502	6079
2708.404	6042
2710.304	6059
2712.203	6131
2714.103	6039
2716.003	6053
2717.902	6119
2719.8	6010
2721.697	6000
2723.594	6058
2725.49	6083
2727.389	6086
2729.283	6035
2731.179	6081
2733.073	6005
2734.968	5959
2736.863	5981
2738.757	6025
2740.649	6027
2742.541	6142
2744.433	6008
2746.324	5980
2748.216	6011
2750.107	6045
2751.997	6039
2753.886	6004
2755.776	6019
2757.666	5947
2759.553	5964
2761.44	5997
2763.327	5987
2765.215	5958
2767.102	6023
2768.988	5897
2770.873	5961
2772.757	6012
2774.641	5947
2776.525	5927
2778.41	5944
2780.292	5949
2782.175	5829
2784.057	5851
2785.938	5988
2787.821	5924
2789.701	5952
2791.581	5995
2793.461	5921
2795.34	5824
2797.219	5937
2799.099	5930
2800.975	5870
2802.853	5921
2804.73	5983
2806.606	6005
2808.484	5880
2810.358	5921
2812.233	5969
2814.108	5846
2815.981	5934
2817.857	5964
2819.73	5792
2821.602	5884
2823.474	5921
2825.346	5875
2827.217	5894
2829.089	5915
2830.959	5846
2832.829	5811
2834.698	5870
2836.567	5827
2838.436	5817
2840.305	5870
2842.172	5883
2844.04	5911
2845.905	5873
2847.772	5880
2849.639	5946
2851.503	5833
2853.369	5883
2855.232	5910
2857.096	5839
2858.961	5849
2860.824	5887
2862.686	5824
2864.547	5934
2866.41	5859
2868.272	5988
2870.132	5977
2871.992	6012
2873.851	5943
2875.711	6074
2877.57	5869
2879.429	6035
2881.287	6067
2883.144	6152
2885.001	6071
2886.857	6075
2888.714	6070
2890.57	6005
2892.425	6138
2894.279	6184
2896.133	6108
2897.987	6129
2899.842	6053
2901.694	6111
2903.547	6088
2905.397	6106
2907.249	6127
2909.101	6004
2910.952	6025
2912.802	6047
2914.652	6143
2916.5	6038
2918.35	6216
2920.198	6176
2922.045	6240
2923.893	6214
2925.74	6298
2927.585	6261
2929.433	6332
2931.279	6290
2933.123	6430
2934.968	6550
2936.811	6272
2938.656	6430
2940.5	6477
2942.342	6533
2944.185	6483
2946.026	6510
2947.87	6582
2949.71	6436
2951.549	6482
2953.39	6501
2955.229	6249
2957.069	6272
2958.908	6275
2960.746	6229
2962.584	6263
2964.421	6295
2966.257	6203
2968.094	6169
2969.931	6174
2971.766	6092
2973.601	6076
2975.435	6081
2977.27	6096
2979.105	5932
2980.938	6128
2982.77	6051
2984.602	6004
2986.434	5938
2988.267	5985
2990.097	6030
2991.927	5979
2993.757	6037
2995.587	5968
2997.417	5844
2999.246	5762
3001.074	5719
3002.902	5810
3004.729	5670
3006.556	5661
3008.384	5772
3010.21	5687
3012.036	5664
3013.861	5601
3015.684	5678
3017.51	5557
3019.334	5521
3021.157	5463
3022.981	5587
3024.802	5358
3026.624	5523
3028.448	5530
3030.267	5556
3032.088	5390
3033.909	5480
3035.728	5411
3037.549	5466
3039.368	5473
3041.186	5411
3043.004	5457
3044.821	5416
3046.64	5295
3048.455	5483
3050.272	5374
3052.087	5482
3053.903	5412
3055.717	5441
3057.534	5352
3059.347	5306
3061.16	5422
3062.974	5417
3064.785	5330
3066.598	5404
3068.411	5369
3070.222	5375
3072.032	5421
3073.844	5301
3075.653	5441
3077.463	5347
3079.272	5407
3081.08	5354
3082.889	5380
3084.697	5317
3086.505	5265
3088.312	5256
3090.118	5181
3091.924	5262
3093.729	5248
3095.535	5183
3097.34	5222
3099.144	5175
3100.947	5214
3102.75	5204
3104.553	5248
3106.357	5110
3108.159	5257
3109.961	5153
3111.762	5176
3113.562	5279
3115.365	5125
3117.164	5208
3118.964	5199
3120.761	5154
3122.56	5109
3124.36	5100
3126.158	5077
3127.954	5112
3129.75	5046
3131.547	5171
3133.343	5208
3135.139	5168
3136.934	5106
3138.729	5123
3140.522	5171
3142.317	5073
3144.11	5015
3145.904	5106
3147.695	5042
3149.488	5081
3151.28	4977
3153.07	5156
3154.863	5060
3156.652	5052
3158.441	5015
3160.231	5033
3162.019	5062
3163.81	4988
3165.597	4990
3167.384	5067
3169.172	5000
3170.958	4938
3172.745	4983
3174.532	4945
3176.317	5074
3178.101	5099
3179.885	4911
3181.67	5014
3183.455	4979
3185.238	4977
3187.02	4925
3188.802	5011
3190.585	4973
3192.368	4982
3194.149	4988
3195.929	5074
3197.709	4896
3199.489	5013
3201.268	5038
3203.048	5003
3204.826	5021
3206.604	4955
3208.382	5000
3210.159	4931
3211.937	4929
3213.713	4948
3215.489	4935
3217.263	4908
3219.038	4886
3220.815	4942
3222.589	4874
3224.363	5023
3226.136	4868
3227.908	4855
3229.681	5003
3231.454	4999
3233.226	4894
3234.996	4892
3236.767	4875
3238.538	4861
3240.308	4857
3242.078	4981
3243.847	4865
3245.615	4892
3247.384	4916
3249.15	4911
3250.92	4832
3252.686	4805
3254.453	4847
3256.218	4858
3257.984	4918
3259.75	4778
3261.515	4888
3263.279	4902
3265.044	4833
3266.806	4813
3268.57	4790
3270.334	4894
3272.095	4843
3273.856	4934
3275.619	4921
3277.379	4891
3279.14	4882
3280.9	4889
3282.661	4871
3284.419	4879
3286.178	4803
3287.937	4877
3289.695	4870
3291.453	4846
3293.21	4726
3294.967	4887
3296.723	4874
3298.48	4881
3300.235	4749
3301.99	4870
3303.744	4879
3305.498	4856
3307.253	4838
3309.006	4883
3310.759	4885
3312.511	4770
3314.263	4847
3316.017	4813
3317.768	4839
3319.519	4783
3321.268	4800
3323.018	4742
3324.767	4857
3326.518	4759
3328.267	4713
3330.014	4781
3331.762	4828
3333.509	4772
3335.258	4767
3337.003	4829
3338.75	4751
3340.496	4846
3342.24	4688
3343.987	4773
3345.732	4701
3347.475	4725
3349.219	4658
3350.961	4771
3352.705	4732
3354.448	4844
3356.19	4684
3357.931	4657
3359.672	4720
3361.412	4657
3363.155	4761
3364.894	4708
3366.633	4798
3368.372	4797
3370.11	4718
3371.849	4759
3373.588	4667
3375.325	4696
3377.061	4630
3378.799	4718
3380.534	4709
3382.271	4688
3384.006	4622
3385.741	4730
3387.475	4694
3389.209	4722
3390.944	4743
3392.677	4708
3394.409	4737
3396.143	4751
3397.874	4740
3399.606	4623
3401.338	4621
3403.069	4583
3404.799	4718
3406.528	4657
3408.258	4591
3409.988	4746
3411.717	4544
3413.445	4627
3415.173	4580
3416.899	4729
3418.626	4751
3420.354	4613
3422.08	4665
3423.806	4700
3425.531	4588
3427.255	4633
3428.981	4611
3430.705	4562
3432.429	4598
3434.151	4564
3435.875	4618
3437.599	4607
3439.321	4640
3441.042	4499
3442.763	4552
3444.483	4481
3446.204	4526
3447.926	4493
3449.645	4554
3451.364	4599
3453.082	4532
3454.801	4546
3456.52	4492
3458.238	4497
3459.954	4437
3461.671	4472
3463.387	4476
3465.104	4499
3466.82	4462
3468.534	4453
3470.25	4494
3471.963	4375
3473.676	4511
3475.392	4442
3477.104	4445
3478.817	4420
3480.528	4410
3482.241	4458
3483.954	4509
3485.664	4451
3487.374	4399
3489.084	4455
3490.795	4463
3492.504	4458
3494.214	4496
3495.922	4404
3497.63	4499
3499.338	4465
3501.045	4430
3502.753	4359
3504.459	4430
3506.166	4320
3507.871	4437
3509.576	4377
3511.283	4441
3512.987	4271
3514.691	4306
3516.395	4400
3518.098	4353
3519.8	4354
3521.504	4391
3523.206	4421
3524.908	4435
3526.609	4361
3528.309	4316
3530.011	4323
3531.711	4347
3533.411	4385
3535.109	4412
3536.808	4222
3538.507	4336
3540.206	4378
3541.904	4305
3543.601	4336
3545.297	4388
3546.994	4367
3548.69	4357
3550.387	4277
3552.081	4167
3553.776	4359
3555.47	4354
3557.166	4302
3558.859	4372
3560.553	4283
3562.245	4347
3563.938	4326
3565.629	4305
3567.322	4345
3569.014	4267
3570.704	4231
3572.394	4316
3574.084	4300
3575.775	4221
3577.464	4288
3579.152	4290
3580.842	4253
3582.529	4230
3584.216	4245
3585.905	4291
3587.591	4293
3589.279	4256
3590.964	4174
3592.649	4152
3594.336	4260
3596.021	4214
3597.705	4177
3599.388	4181
3601.072	4194
3602.757	4237
3604.439	4173
3606.122	4211
3607.803	4254
3609.485	4183
3611.167	4137
3612.849	4232
3614.529	4190
3616.208	4185
3617.888	4063
3619.567	4087
3621.247	4158
3622.926	4083
3624.603	4080
3626.281	4047
3627.958	4114
3629.635	4169
3631.312	3992
3632.989	4170
3634.665	4047
3636.339	4043
3638.014	4135
3639.691	4113
3641.364	4086
3643.038	4092
3644.71	4132
3646.384	4059
3648.058	4122
3649.729	4073
3651.402	4161
3653.073	4158
3654.744	4150
3656.414	4083
3658.085	4051
3659.755	3958
3661.424	4028
3663.094	4100
3664.762	4059
3666.431	4100
3668.099	4044
3669.766	4098
3671.433	4106
3673.099	4058
3674.768	4022
3676.433	4041
3678.098	4036
3679.763	4000
3681.428	3986
3683.093	3920
3684.757	4007
3686.421	4008
3688.083	3963
3689.746	3979
3691.408	3964
3693.071	3947
3694.733	3925
3696.394	3905
3698.054	3991
3699.715	4003
3701.375	3956
3703.036	3930
3704.695	3980
3706.354	3930
3708.012	3983
3709.67	3966
3711.329	3905
3712.987	3958
3714.644	3913
3716.299	3946
3717.955	3931
3719.613	3959
3721.268	3998
3722.923	3916
3724.577	3946
3726.231	3938
3727.885	3940
3729.539	3956
3731.192	3902
3732.845	3900
3734.497	3916
3736.149	3866
3737.802	3956
3739.453	4004
3741.104	3846
3742.753	3969
3744.404	3904
3746.052	3923
3747.704	3901
3749.352	3881
3751	3904
3752.648	4007
3754.296	3907
3755.944	3874
3757.59	3868
3759.238	3870
3760.883	3873
3762.528	3915
3764.176	3840
3765.82	3894
3767.464	3790
3769.109	3776
3770.753	3862
3772.396	3850
3774.04	3850
3775.683	3790
3777.325	3886
3778.967	3748
3780.608	3867
3782.25	3792
3783.89	3834
3785.531	3863
3787.17	3786
3788.81	3927
3790.45	3784
3792.09	3737
3793.729	3816
3795.366	3775
3797.003	3781
3798.64	3829
3800.278	3759
3801.915	3796
3803.551	3851
3805.187	3744
3806.822	3846
3808.458	3823
3810.093	3794
3811.726	3784
3813.36	3778
3814.994	3792
3816.627	3658
3818.262	3813
3819.893	3792
3821.525	3809
3823.157	3712
3824.787	3659
3826.42	3817
3828.051	3692
3829.68	3739
3831.31	3709
3832.938	3710
3834.569	3781
3836.198	3649
3837.825	3801
3839.454	3668
3841.08	3669
3842.708	3773
3844.335	3660
3845.962	3694
3847.587	3688
3849.212	3690
3850.838	3616
3852.463	3654
3854.089	3621
3855.712	3724
3857.335	3649
3858.959	3738
3860.582	3633
3862.205	3675
3863.827	3597
3865.449	3673
3867.07	3710
3868.691	3614
3870.312	3598
3871.933	3597
3873.553	3661
3875.173	3625
3876.792	3643
3878.411	3590
3880.03	3551
3881.647	3684
3883.265	3561
3884.882	3523
3886.499	3553
3888.116	3588
3889.732	3584
3891.348	3590
3892.964	3633
3894.579	3493
3896.195	3606
3897.809	3623
3899.423	3619
3901.036	3593
3902.648	3535
3904.261	3641
3905.875	3616
3907.487	3578
3909.099	3622
3910.709	3575
3912.321	3600
3913.933	3559
3915.542	3630
3917.152	3537
3918.762	3552
3920.37	3543
3921.98	3488
3923.589	3540
3925.196	3566
3926.804	3617
3928.41	3534
3930.018	3503
3931.626	3545
3933.231	3490
3934.838	3545
3936.442	3532
3938.046	3591
3939.653	3553
3941.257	3587
3942.861	3507
3944.464	3587
3946.068	3542
3947.67	3563
3949.273	3451
3950.876	3553
3952.477	3575
3954.078	3461
3955.678	3581
3957.281	3454
3958.881	3498
3960.48	3524
3962.079	3348
3963.678	3436
3965.279	3394
3966.877	3447
3968.475	3513
3970.072	3485
3971.669	3438
3973.266	3488
3974.864	3501
3976.459	3423
3978.055	3441
3979.65	3431
3981.245	3359
3982.841	3462
3984.436	3398
3986.03	3421
3987.623	3426
3989.216	3400
3990.809	3454
3992.403	3346
3993.995	3352
3995.586	3344
3997.177	3334
3998.768	3408
4000.361	3336
4001.951	3398
4003.54	3358
4005.13	3364
4006.719	3356
4008.31	3341
4009.897	3360
4011.485	3361
4013.073	3361
4014.66	3409
4016.247	3296
4017.834	3332
4019.421	3276
4021.006	3265
4022.592	3371
4024.178	3357
4025.763	3298
4027.348	3303
4028.932	3320
4030.515	3251
4032.099	3303
4033.682	3248
4035.266	3308
4036.847	3295
4038.429	3254
4040.011	3247
4041.592	3313
4043.173	3269
4044.755	3319
4046.334	3257
4047.913	3253
4049.494	3313
4051.074	3260
4052.652	3250
4054.23	3175
4055.807	3326
4057.385	3223
4058.963	3203
4060.541	3253
4062.117	3251
4063.693	3230
4065.269	3216
4066.844	3211
4068.42	3252
4069.995	3209
4071.569	3225
4073.143	3149
4074.716	3203
4076.291	3153
4077.864	3192
4079.436	3240
4081.009	3186
4082.58	3196
4084.152	3181
4085.723	3172
4087.294	3141
4088.865	3133
4090.435	3132
4092.005	3173
4093.574	3194
4095.143	3210
4096.712	3140
4098.279	3188
4099.848	3193
4101.416	3189
4102.984	3209
4104.55	3147
4106.117	3159
4107.682	3099
4109.248	3141
4110.815	3149
4112.379	3089
4113.945	3062
4115.508	3169
4117.073	3029
4118.637	3118
4120.201	3088
4121.763	3071
4123.325	3030
4124.888	3068
4126.449	3035
4128.013	3020
4129.573	3085
4131.133	3068
4132.694	2974
4134.254	3075
4135.814	3059
4137.374	3059
4138.933	3089
4140.491	3059
4142.049	3008
4143.607	3036
4145.167	3089
4146.724	3061
4148.28	3008
4149.836	3008
4151.392	3000
4152.949	2942
4154.504	3021
4156.059	3015
4157.614	2991
4159.168	3041
4160.723	3020
4162.277	2957
4163.83	2973
4165.383	2971
4166.936	2989
4168.488	2960
4170.041	3006
4171.593	2963
4173.144	2938
4174.695	2959
4176.246	2943
4177.796	2967
4179.346	2929
4180.896	2919
4182.445	2932
4183.994	2941
4185.542	2968
4187.091	2915
4188.639	2938
4190.185	2929
4191.732	2894
4193.279	2854
4194.826	3006
4196.373	2948
4197.918	2922
4199.463	2891
4201.008	2839
4202.553	2958
4204.098	2951
4205.641	2902
4207.185	2829
4208.728	2895
4210.271	2890
4211.814	2919
4213.357	2952
4214.898	2869
4216.439	2875
4217.98	2972
4219.522	2914
4221.062	2847
4222.603	2883
4224.142	2814
4225.681	2866
4227.222	2816
4228.76	2866
4230.298	2882
4231.835	2900
4233.373	2872
4234.911	2857
4236.449	2771
4237.985	2822
4239.521	2868
4241.057	2780
4242.592	2859
4244.128	2847
4245.663	2751
4247.197	2798
4248.731	2733
4250.265	2873
4251.798	2869
4253.333	2843
4254.865	2833
4256.397	2855
4257.93	2846
4259.461	2848
4260.994	2792
4262.525	2699
4264.056	2783
4265.586	2811
4267.115	2773
4268.646	2729
4270.176	2767
4271.705	2815
4273.232	2715
4274.761	2790
4276.289	2784
4277.818	2767
4279.345	2782
4280.872	2801
4282.399	2746
4283.924	2794
4285.452	2780
4286.976	2750
4288.502	2755
4290.026	2732
4291.551	2718
4293.074	2780
4294.6	2715
4296.123	2777
4297.646	2757
4299.168	2732
4300.691	2753
4302.214	2659
4303.736	2706
4305.257	2716
4306.778	2721
4308.299	2670
4309.82	2635
4311.34	2710
4312.86	2769
4314.379	2655
