400.0745	4414
402.597	4521
405.1208	4326
407.6419	4487
410.1623	4445
412.6819	4385
415.201	4438
417.7172	4464
420.2369	4519
422.7538	4444
425.2701	4610
427.7856	4589
430.3005	4662
432.8147	4627
435.3282	4531
437.841	4526
440.3511	4596
442.8625	4675
445.3753	4680
447.8854	4696
450.3927	4599
452.9014	4668
455.4073	4695
457.9146	4648
460.4233	4655
462.9272	4598
465.4325	4662
467.935	4753
470.4389	4689
472.9421	4755
475.4446	4729
477.9444	4666
480.4456	4746
482.944	4728
485.4417	4693
487.9429	4757
490.4393	4757
492.935	4768
495.4321	4841
497.9264	4758
500.4221	4772
502.9171	4851
505.4094	4784
507.9011	4884
510.392	4893
512.8864	4919
515.3759	4882
517.8649	4933
520.3531	4899
522.8406	4934
525.3275	4909
527.8178	4881
530.3033	4927
532.7881	4900
535.2723	4878
537.7558	4788
540.2407	4861
542.7228	4922
545.2043	4893
547.6851	4917
550.1652	4992
552.6467	4856
555.1255	4920
557.6016	4918
560.079	5005
562.5557	5019
565.0318	4925
567.5092	5045
569.984	5020
572.456	4915
574.9294	4992
577.4022	5066
579.8762	4999
582.3456	5136
584.8163	5100
587.2863	5067
589.7557	5009
592.2224	5006
594.6924	5119
597.1578	5140
599.6245	5035
602.0905	5015
604.5538	5186
607.0206	4985
609.4825	5109
611.9459	5138
614.4066	5005
616.8686	5148
619.33	5057
621.7906	5093
624.2487	5020
626.708	5079
629.1647	5048
631.6207	5088
634.0801	5084
636.5348	4981
638.9888	5045
641.4442	5148
643.8969	5077
646.3509	5154
648.8022	5065
651.255	5103
653.705	5141
656.1544	5239
658.6031	5196
661.0532	5158
663.5026	5120
665.9493	5149
668.3954	5276
670.8409	5220
673.2877	5253
675.7318	5206
678.1752	5235
680.618	5240
683.0601	5277
685.5035	5316
687.9444	5282
690.3845	5309
692.824	5349
695.2628	5205
697.701	5346
700.1406	5296
702.5774	5281
705.0116	5291
707.4472	5377
709.8821	5350
712.3183	5416
714.7519	5390
717.1829	5351
719.6151	5506
722.0468	5368
724.4777	5368
726.908	5458
729.3377	5403
731.7667	5266
734.1931	5482
736.6208	5540
739.0498	5574
741.4742	5506
743.9	5579
746.3231	5588
748.7476	5532
751.1713	5542
753.5945	5663
756.015	5552
758.4368	5635
760.856	5579
763.2766	5712
765.6965	5649
768.1157	5671
770.5323	5593
772.9483	5702
775.3656	5670
777.7822	5630
780.1963	5624
782.6116	5683
785.0244	5609
787.4365	5760
789.8499	5693
792.2626	5726
794.6728	5758
797.0823	5605
799.4911	5655
801.8994	5588
804.3109	5712
806.7178	5706
809.124	5699
811.5297	5719
813.9347	5728
816.341	5688
818.7447	5717
821.1478	5781
823.5502	5690
825.952	5767
828.3531	5729
830.7556	5743
833.1554	5743
835.5546	5749
837.9532	5805
840.3511	5731
842.7504	5810
845.1451	5778
847.5411	5868
849.9365	5810
852.3312	5962
854.7272	5765
857.1187	5886
859.5115	5867
861.9037	5750
864.2952	5840
866.6842	5822
869.0764	5801
871.4661	5862
873.8531	5906
876.2415	5955
878.6272	5799
881.0162	5880
883.4026	5826
885.7866	5933
888.1717	5805
890.5543	5756
892.9382	5790
895.3215	5894
897.7041	5797
900.0842	5695
902.4655	5762
904.8443	5817
907.2244	5827
909.6039	5881
911.9808	5808
914.357	5926
916.7346	5949
919.1115	5867
921.4859	5958
923.8616	6024
926.2347	5993
928.6071	6080
930.979	6074
933.3541	6037
935.7247	6025
938.0946	6042
940.4639	6062
942.8326	6123
945.2026	6164
947.5701	6324
949.9369	6279
952.305	6525
954.6705	6514
957.0355	6664
959.4017	6850
961.7654	6717
964.1284	6794
966.4908	6770
968.8527	6612
971.2138	6381
973.5743	6376
975.9343	6112
978.2936	6074
980.6522	6082
983.0122	6024
985.3696	6065
987.7245	6004
990.0807	5957
992.4362	6058
994.7911	6117
997.1474	6032
999.4991	6052
1001.852	6027
1004.205	6056
1006.555	6010
1008.908	6097
1011.258	6011
1013.606	6099
1015.956	6034
1018.302	6127
1020.652	6031
1022.998	6093
1025.345	6131
1027.691	5998
1030.035	6023
1032.378	6141
1034.724	6055
1037.066	6056
1039.409	6163
1041.75	6211
1044.092	5964
1046.433	6118
1048.771	6076
1051.112	6124
1053.449	6152
1055.786	6112
1058.124	6144
1060.462	6128
1062.797	6194
1065.131	6082
1067.467	6236
1069.8	6232
1072.135	6202
1074.467	6203
1076.798	6274
1079.129	6120
1081.459	6260
1083.792	6299
1086.121	6208
1088.449	6220
1090.777	6143
1093.104	6100
1095.431	6109
1097.759	6310
1100.084	6142
1102.408	6235
1104.732	6164
1107.056	6167
1109.379	6201
1111.701	6132
1114.022	6257
1116.343	6206
1118.664	6137
1120.983	6251
1123.303	6253
1125.621	6120
1127.939	6283
1130.256	6251
1132.573	6275
1134.889	6318
1137.205	6209
1139.52	6217
1141.832	6299
1144.146	6286
1146.461	6226
1148.771	6188
1151.083	6236
1153.392	6181
1155.703	6281
1158.011	6312
1160.323	6265
1162.629	6287
1164.938	6182
1167.243	6228
1169.55	6254
1171.857	6202
1174.163	6200
1176.466	6215
1178.769	6234
1181.073	6248
1183.374	6257
1185.677	6111
1187.979	6320
1190.279	6275
1192.578	6226
1194.878	6285
1197.178	6203
1199.476	6317
1201.772	6323
1204.068	6263
1206.366	6303
1208.663	6247
1210.957	6232
1213.251	6315
1215.544	6289
1217.836	6213
1220.128	6371
1222.421	6252
1224.712	6361
1227.002	6409
1229.292	6423
1231.581	6444
1233.871	6459
1236.159	6431
1238.446	6409
1240.732	6401
1243.018	6441
1245.304	6476
1247.59	6585
1249.874	6399
1252.156	6397
1254.439	6436
1256.721	6525
1259.005	6571
1261.286	6557
1263.565	6564
1265.845	6428
1268.125	6463
1270.403	6499
1272.682	6438
1274.959	6550
1277.234	6517
1279.511	6494
1281.787	6522
1284.062	6381
1286.337	6422
1288.609	6387
1290.882	6366
1293.153	6453
1295.428	6434
1297.698	6410
1299.969	6396
1302.237	6355
1304.507	6425
1306.777	6311
1309.044	6515
1311.312	6288
1313.578	6313
1315.844	6289
1318.109	6399
1320.375	6420
1322.638	6394
1324.903	6501
1327.165	6407
1329.427	6385
1331.69	6456
1333.952	6387
1336.212	6465
1338.471	6498
1340.73	6582
1342.988	6401
1345.248	6449
1347.505	6526
1349.763	6426
1352.019	6452
1354.274	6440
1356.53	6415
1358.784	6532
1361.038	6432
1363.291	6376
1365.543	6419
1367.797	6467
1370.048	6419
1372.296	6420
1374.546	6453
1376.796	6507
1379.045	6391
1381.295	6433
1383.542	6493
1385.787	6361
1388.034	6403
1390.28	6493
1392.527	6572
1394.772	6657
1397.014	6561
1399.258	6667
1401.501	6630
1403.741	6552
1405.985	6465
1408.226	6581
1410.465	6571
1412.705	6657
1414.943	6541
1417.184	6472
1419.42	6695
1421.658	6510
1423.894	6687
1426.13	6601
1428.366	6681
1430.602	6437
1432.835	6724
1435.069	6525
1437.301	6761
1439.535	6602
1441.767	6740
1443.997	6758
1446.229	6752
1448.458	6730
1450.687	6782
1452.916	6728
1455.146	6752
1457.372	6696
1459.599	6722
1461.824	6755
1464.051	6669
1466.277	6726
1468.501	6619
1470.725	6571
1472.948	6613
1475.17	6616
1477.393	6531
1479.614	6641
1481.837	6620
1484.057	6545
1486.276	6539
1488.497	6517
1490.715	6417
1492.932	6468
1495.148	6399
1497.364	6428
1499.58	6403
1501.798	6454
1504.012	6515
1506.227	6530
1508.44	6436
1510.653	6412
1512.866	6456
1515.078	6423
1517.289	6550
1519.5	6559
1521.711	6440
1523.92	6545
1526.13	6468
1528.338	6611
1530.544	6460
1532.752	6466
1534.959	6517
1537.165	6456
1539.371	6554
1541.574	6439
1543.779	6417
1545.983	6464
1548.187	6401
1550.39	6567
1552.59	6599
1554.792	6492
1556.991	6453
1559.19	6611
1561.392	6591
1563.59	6441
1565.789	6708
1567.986	6559
1570.182	6631
1572.381	6577
1574.576	6643
1576.771	6648
1578.966	6614
1581.16	6616
1583.354	6529
1585.546	6707
1587.74	6635
1589.931	6688
1592.121	6570
1594.311	6566
1596.502	6630
1598.693	6712
1600.881	6681
1603.069	6702
1605.256	6591
1607.445	6604
1609.631	6664
1611.816	6697
1614.001	6672
1616.186	6722
1618.37	6760
1620.555	6762
1622.737	6723
1624.919	6763
1627.101	6615
1629.282	6584
1631.463	6619
1633.643	6733
1635.822	6759
1638.001	6788
1640.179	6697
1642.359	6752
1644.534	6798
1646.711	6859
1648.887	6669
1651.062	6769
1653.235	6683
1655.412	6689
1657.586	6845
1659.757	6800
1661.93	6773
1664.1	6864
1666.274	6806
1668.445	6856
1670.614	6746
1672.784	6818
1674.951	6774
1677.12	6635
1679.289	6727
1681.457	6724
1683.622	6808
1685.789	6845
1687.953	6737
1690.121	6775
1692.284	6637
1694.447	6860
1696.611	6712
1698.772	6744
1700.935	6727
1703.098	6704
1705.258	6716
1707.417	6749
1709.576	6771
1711.736	6639
1713.896	6701
1716.053	6604
1718.21	6615
1720.366	6647
1722.522	6680
1724.68	6631
1726.835	6671
1728.989	6699
1731.142	6721
1733.295	6699
1735.449	6671
1737.601	6610
1739.753	6729
1741.903	6775
1744.054	6687
1746.203	6697
1748.354	6684
1750.503	6718
1752.651	6626
1754.798	6848
1756.944	6697
1759.092	6699
1761.238	6765
1763.383	6738
1765.528	6709
1767.672	6600
1769.814	6801
1771.959	6727
1774.102	6800
1776.242	6814
1778.384	6765
1780.525	6697
1782.665	6704
1784.805	6771
1786.945	6768
1789.082	6906
1791.22	6871
1793.36	6664
1795.495	6860
1797.632	6770
1799.766	6840
1801.902	6763
1804.035	6722
1806.172	6794
1808.304	6816
1810.436	6836
1812.569	6759
1814.699	6876
1816.833	6783
1818.963	6887
1821.092	6781
1823.222	6856
1825.35	6778
1827.478	6862
1829.608	6748
1831.734	6789
1833.86	6755
1835.986	6895
1838.11	6763
1840.238	6809
1842.362	6786
1844.485	6789
1846.608	6766
1848.73	6808
1850.853	6865
1852.974	6661
1855.097	6821
1857.217	6764
1859.336	6743
1861.455	6733
1863.576	6665
1865.693	6728
1867.811	6654
1869.926	6810
1872.042	6737
1874.16	6861
1876.275	6703
1878.39	6800
1880.504	6861
1882.618	6718
1884.731	6799
1886.843	6764
1888.956	6820
1891.067	6761
1893.178	6833
1895.287	6828
1897.399	6796
1899.508	6787
1901.617	6877
1903.724	6945
1905.832	6856
1907.941	6927
1910.046	6910
1912.152	6887
1914.256	6951
1916.361	6840
1918.464	6984
1920.57	6963
1922.672	6931
1924.775	6903
1926.876	7055
1928.978	6970
1931.08	6918
1933.181	6926
1935.28	6973
1937.38	6934
1939.478	6942
1941.577	6942
1943.675	7013
1945.771	7034
1947.867	6957
1949.964	6982
1952.058	7075
1954.154	6969
1956.248	7039
1958.343	6884
1960.435	6925
1962.527	7004
1964.62	6881
1966.711	7006
1968.802	6831
1970.892	6833
1972.983	6962
1975.072	7053
1977.162	6952
1979.25	6888
1981.337	6843
1983.424	6936
1985.51	6922
1987.598	6969
1989.683	6912
1991.768	6892
1993.852	6986
1995.934	6873
1998.019	6948
2000.102	6970
2002.184	6795
2004.266	7043
2006.347	6841
2008.427	6826
2010.508	6899
2012.587	7032
2014.666	6880
2016.745	6838
2018.821	6842
2020.9	6890
2022.977	6890
2025.052	6868
2027.128	6911
2029.204	6920
2031.277	6890
2033.353	6876
2035.425	6875
2037.499	7038
2039.57	6976
2041.642	6951
2043.714	6901
2045.786	6977
2047.855	6995
2049.925	6951
2051.993	6978
2054.064	6881
2056.132	7051
2058.2	6863
2060.266	6954
2062.332	6864
2064.398	6894
2066.465	6893
2068.529	6845
2070.592	6925
2072.657	7057
2074.719	6997
2076.783	6918
2078.845	6950
2080.907	6919
2082.968	6787
2085.028	7013
2087.087	7003
2089.148	6944
2091.207	6980
2093.264	6951
2095.322	7042
2097.379	6937
2099.439	6854
2101.495	7044
2103.55	7009
2105.605	6908
2107.658	6885
2109.713	7001
2111.767	7013
2113.82	6943
2115.872	6986
2117.924	7028
2119.975	6950
2122.028	6982
2124.078	6906
2126.126	6956
2128.176	6862
2130.225	6892
2132.275	6958
2134.321	6869
2136.368	6994
2138.415	6918
2140.461	6934
2142.505	6947
2144.552	6874
2146.597	6951
2148.64	6986
2150.684	6947
2152.725	6972
2154.77	6888
2156.811	7020
2158.852	6866
2160.894	6823
2162.933	6841
2164.973	6876
2167.013	6975
2169.051	6831
2171.089	7001
2173.126	6833
2175.164	6953
2177.201	6864
2179.236	6832
2181.273	6889
2183.307	6811
2185.341	6871
2187.377	6851
2189.41	6870
2191.442	6766
2193.473	6856
2195.506	6851
2197.539	6822
2199.569	6808
2201.598	6776
2203.628	6644
2205.656	6852
2207.686	6840
2209.716	6819
2211.743	6674
2213.769	6766
2215.796	6833
2217.821	6650
2219.848	6804
2221.873	6745
2223.897	6840
2225.921	6857
2227.944	6766
2229.967	6758
2231.991	6850
2234.011	6743
2236.032	6799
2238.053	6638
2240.073	6802
2242.094	6814
2244.114	6730
2246.131	6819
2248.149	6616
2250.167	6812
2252.186	6652
2254.201	6770
2256.218	6802
2258.233	6743
2260.247	6722
2262.262	6721
2264.278	6751
2266.29	6594
2268.303	6689
2270.315	6636
2272.327	6693
2274.341	6695
2276.35	6635
2278.361	6808
2280.37	6769
2282.38	6713
2284.388	6706
2286.397	6776
2288.405	6737
2290.412	6699
2292.419	6676
2294.425	6708
2296.431	6653
2298.437	6712
2300.441	6645
2302.445	6624
2304.449	6696
2306.453	6680
2308.455	6696
2310.457	6764
2312.459	6747
2314.46	6605
2316.46	6614
2318.461	6605
2320.46	6685
2322.458	6733
2324.458	6649
2326.456	6572
2328.455	6616
2330.451	6716
2332.447	6688
2334.443	6511
2336.438	6606
2338.433	6496
2340.429	6403
2342.422	6589
2344.416	6650
2346.408	6662
2348.399	6549
2350.393	6520
2352.384	6576
2354.375	6497
2356.365	6415
2358.355	6564
2360.344	6570
2362.333	6497
2364.322	6493
2366.309	6588
2368.295	6404
2370.282	6597
2372.27	6479
2374.256	6483
2376.24	6636
2378.225	6655
2380.208	6361
2382.194	6515
2384.177	6470
2386.159	6431
2388.142	6479
2390.122	6445
2392.105	6435
2394.085	6408
2396.066	6474
2398.044	6425
2400.024	6416
2402.002	6465
2403.982	6445
2405.959	6472
2407.935	6444
2409.913	6398
2411.888	6270
2413.865	6480
2415.84	6452
2417.814	6494
2419.788	6390
2421.762	6330
2423.735	6438
2425.708	6398
2427.68	6365
2429.651	6255
2431.623	6427
2433.593	6492
2435.564	6468
2437.533	6324
2439.502	6326
2441.47	6370
2443.438	6365
2445.406	6511
2447.373	6360
2449.34	6403
2451.305	6360
2453.271	6299
2455.235	6298
2457.201	6421
2459.165	6342
2461.129	6436
2463.092	6402
2465.054	6344
2467.018	6431
2468.978	6334
2470.939	6263
2472.899	6434
2474.86	6341
2476.819	6361
2478.778	6231
2480.737	6268
2482.695	6323
2484.653	6277
2486.609	6332
2488.567	6233
2490.524	6237
2492.478	6260
2494.433	6282
2496.387	6327
2498.343	6248
2500.297	6223
2502.249	6196
2504.202	6310
2506.153	6279
2508.105	6324
2510.057	6136
2512.008	6266
2513.957	6239
2515.906	6225
2517.855	6213
2519.805	6253
2521.754	6233
2523.7	6167
2525.647	6260
2527.594	6226
2529.54	6171
2531.486	6230
2533.431	6167
2535.376	6200
2537.32	6220
2539.263	6262
2541.207	6341
2543.151	6186
2545.093	6205
2547.034	6236
2548.975	6309
2550.917	6138
2552.856	6098
2554.796	6157
2556.735	6145
2558.673	6095
2560.611	6231
2562.55	6125
2564.487	6294
2566.424	6308
2568.36	6277
2570.296	6207
2572.232	6081
2574.167	6089
2576.101	6309
2578.035	6191
2579.969	6137
2581.902	6131
2583.834	6205
2585.766	6281
2587.698	6107
2589.628	6192
2591.557	6184
2593.489	6057
2595.419	6247
2597.348	6174
2599.275	6189
2601.204	6280
2603.131	6209
2605.059	6135
2606.986	6137
2608.911	6097
2610.837	6292
2612.76	6201
2614.687	6319
2616.61	6162
2618.534	6126
2620.457	6095
2622.38	6200
2624.302	6188
2626.225	6205
2628.145	6067
2630.067	6152
2631.986	6196
2633.906	6209
2635.827	6271
2637.745	6063
2639.662	6254
2641.581	6163
2643.498	6109
2645.415	6137
2647.331	6189
2649.248	6230
2651.163	6203
2653.077	6039
2654.993	6102
2656.906	6127
2658.821	6118
2660.733	5962
2662.646	6232
2664.557	6038
2666.47	6104
2668.381	6183
2670.291	6034
2672.201	6079
2674.11	6059
2676.021	6169
2677.929	6190
2679.837	6106
2681.745	6051
2683.652	6003
2685.56	6094
2687.466	5979
2689.371	6106
2691.276	5890
2693.181	6038
2695.085	5983
2696.991	6098
2698.893	5974
2700.796	6179
2702.698	6118
2704.601	6001
2706.502	5987
2708.404	5967
2710.304	6018
2712.203	5960
2714.103	5906
2716.003	6135
2717.902	5947
2719.8	6031
2721.697	5976
2723.594	5990
2725.49	6085
2727.389	5969
2729.283	5990
2731.179	5861
2733.073	5892
2734.968	6048
2736.863	5997
2738.757	6056
2740.649	5911
2742.541	5960
2744.433	6116
2746.324	5891
2748.216	5968
2750.107	5965
2751.997	6022
2753.886	5796
2755.776	5953
2757.666	6032
2759.553	5943
2761.44	5968
2763.327	5924
2765.215	5936
2767.102	6000
2768.988	5918
2770.873	6025
2772.757	6003
2774.641	5892
2776.525	5952
2778.41	5832
2780.292	5849
2782.175	5936
2784.057	5841
2785.938	5949
2787.821	5816
2789.701	5813
2791.581	5797
2793.461	5904
2795.34	5832
2797.219	5912
2799.099	5844
2800.975	5782
2802.853	5965
2804.73	5757
2806.606	5881
2808.484	5941
2810.358	5911
2812.233	5881
2814.108	5845
2815.981	5814
2817.857	5843
2819.73	5908
2821.602	5966
2823.474	5883
2825.346	5819
2827.217	5697
2829.089	5866
2830.959	5841
2832.829	5896
2834.698	5796
2836.567	5947
2838.436	5837
2840.305	5791
2842.172	5836
2844.04	5873
2845.905	5848
2847.772	5926
2849.639	5826
2851.503	5906
2853.369	5912
2855.232	5862
2857.096	5930
2858.961	5858
2860.824	5935
2862.686	6088
2864.547	6034
2866.41	5956
2868.272	6062
2870.132	5961
2871.992	6006
2873.851	6082
2875.711	6085
2877.57	6098
2879.429	6132
2881.287	6113
2883.144	6190
2885.001	6173
2886.857	6206
2888.714	6270
2890.57	6302
2892.425	6221
2894.279	6311
2896.133	6233
2897.987	6301
2899.842	6206
2901.694	6157
2903.547	6147
2905.397	6219
2907.249	6144
2909.101	6257
2910.952	6232
2912.802	6276
2914.652	6255
2916.5	6244
2918.35	6244
2920.198	6442
2922.045	6349
2923.893	6455
2925.74	6513
2927.585	6399
2929.433	6587
2931.279	6452
2933.123	6610
2934.968	6516
2936.811	6585
2938.656	6607
2940.5	6730
2942.342	6691
2944.185	6728
2946.026	6935
2947.87	6825
2949.71	6855
2951.549	6685
2953.39	6655
2955.229	6714
2957.069	6594
2958.908	6623
2960.746	6451
2962.584	6393
2964.421	6502
2966.257	6459
2968.094	6455
2969.931	6381
2971.766	6414
2973.601	6363
2975.435	6310
2977.27	6250
2979.105	6149
2980.938	6218
2982.77	6166
2984.602	6045
2986.434	6026
2988.267	6085
2990.097	6069
2991.927	6176
2993.757	5944
2995.587	5976
2997.417	5923
2999.246	5971
3001.074	5799
3002.902	5839
3004.729	5779
3006.556	5823
3008.384	5826
3010.21	5800
3012.036	5722
3013.861	5584
3015.684	5734
3017.51	5710
3019.334	5536
3021.157	5564
3022.981	5567
3024.802	5515
3026.624	5556
3028.448	5563
3030.267	5420
3032.088	5562
3033.909	5518
3035.728	5516
3037.549	5494
3039.368	5451
3041.186	5411
3043.004	5515
3044.821	5516
3046.64	5429
3048.455	5551
3050.272	5440
3052.087	5487
3053.903	5504
3055.717	5330
3057.534	5424
3059.347	5396
3061.16	5417
3062.974	5448
3064.785	5388
3066.598	5447
3068.411	5450
3070.222	5491
3072.032	5499
3073.844	5444
3075.653	5381
3077.463	5440
3079.272	5385
3081.08	5335
3082.889	5542
3084.697	5309
3086.505	5334
3088.312	5319
3090.118	5304
3091.924	5370
3093.729	5316
3095.535	5312
3097.34	5339
3099.144	5268
3100.947	5262
3102.75	5311
3104.553	5239
3106.357	5289
3108.159	5262
3109.961	5203
3111.762	5247
3113.562	5336
3115.365	5215
3117.164	5105
3118.964	5199
3120.761	5235
3122.56	5253
3124.36	5131
3126.158	5293
3127.954	5272
3129.75	5200
3131.547	5267
3133.343	5203
3135.139	5228
3136.934	5150
3138.729	5156
3140.522	5143
3142.317	5186
3144.11	5242
3145.904	5177
3147.695	5218
3149.488	5184
3151.28	5266
3153.07	5178
3154.863	5125
3156.652	5288
3158.441	5133
3160.231	5169
3162.019	5153
3163.81	5085
3165.597	5146
3167.384	5035
3169.172	5039
3170.958	5140
3172.745	5077
3174.532	5102
3176.317	5020
3178.101	5141
3179.885	5032
3181.67	5101
3183.455	5143
3185.238	5194
3187.02	5092
3188.802	5100
3190.585	5128
3192.368	5066
3194.149	5066
3195.929	5115
3197.709	4976
3199.489	5061
3201.268	5035
3203.048	5056
3204.826	4991
3206.604	5089
3208.382	4984
3210.159	5018
3211.937	4978
3213.713	5104
3215.489	5083
3217.263	4997
3219.038	5059
3220.815	5119
3222.589	5017
3224.363	5075
3226.136	5089
3227.908	4955
3229.681	5104
3231.454	5019
3233.226	5071
3234.996	4983
3236.767	5105
3238.538	5078
3240.308	5033
3242.078	5080
3243.847	5021
3245.615	4981
3247.384	5043
3249.15	4989
3250.92	5056
3252.686	4934
3254.453	5073
3256.218	5026
3257.984	4951
3259.75	5001
3261.515	5020
3263.279	5041
3265.044	5094
3266.806	5033
3268.57	5040
3270.334	5138
3272.095	5050
3273.856	5075
3275.619	4982
3277.379	4986
3279.14	5036
3280.9	5033
3282.661	4986
3284.419	4959
3286.178	5076
3287.937	5028
3289.695	4959
3291.453	5040
3293.21	5047
3294.967	5080
3296.723	5013
3298.48	4921
3300.235	4950
3301.99	5026
3303.744	4943
3305.498	5106
3307.253	4961
3309.006	5065
3310.759	5072
3312.511	5031
3314.263	5010
3316.017	4931
3317.768	4941
3319.519	5016
3321.268	4996
3323.018	5038
3324.767	5094
3326.518	5012
3328.267	4951
3330.014	5078
3331.762	4903
3333.509	4946
3335.258	4980
3337.003	5062
3338.75	4956
3340.496	4932
3342.24	4949
3343.987	5024
3345.732	4973
3347.475	4946
3349.219	4928
3350.961	4959
3352.705	5029
3354.448	4941
3356.19	4933
3357.931	4950
3359.672	4920
3361.412	4891
3363.155	4962
3364.894	4910
3366.633	4895
3368.372	4885
3370.11	4949
3371.849	4826
3373.588	4879
3375.325	4882
3377.061	4906
3378.799	4857
3380.534	4906
3382.271	4842
3384.006	4891
3385.741	4847
3387.475	4839
3389.209	4898
3390.944	4892
3392.677	4814
3394.409	4853
3396.143	4861
3397.874	4859
3399.606	4895
3401.338	4778
3403.069	4801
3404.799	4884
3406.528	4920
3408.258	4710
3409.988	4817
3411.717	4829
3413.445	4858
3415.173	4767
3416.899	4823
3418.626	4799
3420.354	4848
3422.08	4820
3423.806	4802
3425.531	4791
3427.255	4797
3428.981	4769
3430.705	4793
3432.429	4731
3434.151	4787
3435.875	4686
3437.599	4710
3439.321	4790
3441.042	4738
3442.763	4826
3444.483	4750
3446.204	4728
3447.926	4718
3449.645	4643
3451.364	4732
3453.082	4675
3454.801	4705
3456.52	4696
3458.238	4595
3459.954	4620
3461.671	4667
3463.387	4693
3465.104	4657
3466.82	4766
3468.534	4598
3470.25	4586
3471.963	4648
3473.676	4646
3475.392	4665
3477.104	4538
3478.817	4612
3480.528	4640
3482.241	4591
3483.954	4588
3485.664	4639
3487.374	4616
3489.084	4614
3490.795	4575
3492.504	4577
3494.214	4518
3495.922	4547
3497.63	4559
3499.338	4581
3501.045	4477
3502.753	4570
3504.459	4469
3506.166	4549
3507.871	4630
3509.576	4484
3511.283	4511
3512.987	4471
3514.691	4509
3516.395	4515
3518.098	4571
3519.8	4500
3521.504	4528
3523.206	4436
3524.908	4423
3526.609	4522
3528.309	4402
3530.011	4497
3531.711	4427
3533.411	4447
3535.109	4474
3536.808	4450
3538.507	4354
3540.206	4382
3541.904	4439
3543.601	4404
3545.297	4464
3546.994	4373
3548.69	4406
3550.387	4353
3552.081	4386
3553.776	4407
3555.47	4519
3557.166	4396
3558.859	4439
3560.553	4354
3562.245	4410
3563.938	4331
3565.629	4424
3567.322	4285
3569.014	4417
3570.704	4352
3572.394	4325
3574.084	4290
3575.775	4300
3577.464	4328
3579.152	4327
3580.842	4387
3582.529	4342
3584.216	4279
3585.905	4423
3587.591	4351
3589.279	4171
3590.964	4274
3592.649	4295
3594.336	4248
3596.021	4278
3597.705	4251
3599.388	4320
3601.072	4279
3602.757	4271
3604.439	4282
3606.122	4280
3607.803	4223
3609.485	4203
3611.167	4229
3612.849	4148
3614.529	4241
3616.208	4177
3617.888	4159
3619.567	4257
3621.247	4188
3622.926	4275
3624.603	4122
3626.281	4114
3627.958	4103
3629.635	4121
3631.312	4269
3632.989	4167
3634.665	4146
3636.339	4059
3638.014	4107
3639.691	4085
3641.364	4192
3643.038	4122
3644.71	4164
3646.384	4061
3648.058	4047
3649.729	4046
3651.402	4044
3653.073	4076
3654.744	4067
3656.414	4059
3658.085	4039
3659.755	4143
3661.424	4083
3663.094	4098
3664.762	4067
3666.431	4036
3668.099	4046
3669.766	4110
3671.433	4074
3673.099	3978
3674.768	4078
3676.433	4096
3678.098	3998
3679.763	3960
3681.428	4064
3683.093	3971
3684.757	4033
3686.421	4028
3688.083	3997
3689.746	4029
3691.408	3978
3693.071	3935
3694.733	4014
3696.394	4012
3698.054	3970
3699.715	3991
3701.375	4024
3703.036	3941
3704.695	3979
3706.354	4001
3708.012	3977
3709.67	3943
3711.329	3908
3712.987	3982
3714.644	3985
3716.299	3969
3717.955	3947
3719.613	3983
3721.268	3913
3722.923	3890
3724.577	3980
3726.231	3976
3727.885	3963
3729.539	3892
3731.192	3904
3732.845	3840
3734.497	3872
3736.149	3760
3737.802	3860
3739.453	3849
3741.104	3974
3742.753	3898
3744.404	3871
3746.052	3935
3747.704	3945
3749.352	3886
3751	3866
3752.648	3829
3754.296	3827
3755.944	3891
3757.59	3857
3759.238	3897
3760.883	3871
3762.528	3835
3764.176	3778
3765.82	3876
3767.464	3869
3769.109	3854
3770.753	3867
3772.396	3833
3774.04	3879
3775.683	3708
3777.325	3755
3778.967	3782
3780.608	3795
3782.25	3817
3783.89	3780
3785.531	3703
3787.17	3746
3788.81	3821
3790.45	3797
3792.09	3754
3793.729	3782
3795.366	3721
3797.003	3833
3798.64	3719
3800.278	3754
3801.915	3826
3803.551	3791
3805.187	3716
3806.822	3771
3808.458	3673
3810.093	3794
3811.726	3729
3813.36	3718
3814.994	3717
3816.627	3737
3818.262	3767
3819.893	3686
3821.525	3724
3823.157	3704
3824.787	3740
3826.42	3673
3828.051	3709
3829.68	3739
3831.31	3584
3832.938	3708
3834.569	3695
3836.198	3595
3837.825	3711
3839.454	3626
3841.08	3717
3842.708	3580
3844.335	3616
3845.962	3681
3847.587	3705
3849.212	3766
3850.838	3656
3852.463	3689
3854.089	3648
3855.712	3549
3857.335	3557
3858.959	3627
3860.582	3588
3862.205	3594
3863.827	3576
3865.449	3620
3867.07	3604
3868.691	3685
3870.312	3577
3871.933	3583
3873.553	3557
3875.173	3608
3876.792	3585
3878.411	3544
3880.03	3575
3881.647	3679
3883.265	3575
3884.882	3597
3886.499	3587
3888.116	3518
3889.732	3580
3891.348	3479
3892.964	3583
3894.579	3556
3896.195	3494
3897.809	3565
3899.423	3475
3901.036	3543
3902.648	3547
3904.261	3517
3905.875	3596
3907.487	3463
3909.099	3539
3910.709	3434
3912.321	3586
3913.933	3536
3915.542	3531
3917.152	3484
3918.762	3565
3920.37	3586
3921.98	3529
3923.589	3487
3925.196	3437
3926.804	3512
3928.41	3537
3930.018	3460
3931.626	3495
3933.231	3493
3934.838	3430
3936.442	3452
3938.046	3458
3939.653	3461
3941.257	3396
3942.861	3513
3944.464	3469
3946.068	3481
3947.67	3421
3949.273	3429
3950.876	3418
3952.477	3404
3954.078	3438
3955.678	3438
3957.281	3486
3958.881	3352
3960.48	3396
3962.079	3502
3963.678	3324
3965.279	3354
3966.877	3446
3968.475	3511
3970.072	3355
3971.669	3426
3973.266	3404
3974.864	3427
3976.459	3445
3978.055	3355
3979.65	3385
3981.245	3367
3982.841	3387
3984.436	3437
3986.03	3423
3987.623	3425
3989.216	3458
3990.809	3402
3992.403	3272
3993.995	3331
3995.586	3319
3997.177	3235
3998.768	3251
4000.361	3366
4001.951	3294
4003.54	3288
4005.13	3252
4006.719	3254
4008.31	3281
4009.897	3352
4011.485	3282
4013.073	3325
4014.66	3328
4016.247	3298
4017.834	3220
4019.421	3273
4021.006	3276
4022.592	3226
4024.178	3345
4025.763	3321
4027.348	3271
4028.932	3263
4030.515	3304
4032.099	3234
4033.682	3184
4035.266	3200
4036.847	3261
4038.429	3220
4040.011	3239
4041.592	3171
4043.173	3104
4044.755	3204
4046.334	3163
4047.913	3229
4049.494	3214
4051.074	3207
4052.652	3132
4054.23	3213
4055.807	3174
4057.385	3166
4058.963	3192
4060.541	3142
4062.117	3241
4063.693	3117
4065.269	3209
4066.844	3197
4068.42	3167
4069.995	3157
4071.569	3122
4073.143	3119
4074.716	3179
4076.291	3220
4077.864	3165
4079.436	3177
4081.009	3119
4082.58	3095
4084.152	3133
4085.723	3142
4087.294	3085
4088.865	3133
4090.435	3056
4092.005	3111
4093.574	3118
4095.143	3112
4096.712	3093
4098.279	3142
4099.848	3101
4101.416	3132
4102.984	3044
4104.55	3124
4106.117	3024
4107.682	3150
4109.248	3034
4110.815	3099
4112.379	3030
4113.945	3090
4115.508	3058
4117.073	3042
4118.637	3076
4120.201	3060
4121.763	3007
4123.325	3061
4124.888	3029
4126.449	3012
4128.013	2999
4129.573	3014
4131.133	3010
4132.694	3105
4134.254	2996
4135.814	3043
4137.374	3127
4138.933	2998
4140.491	2962
4142.049	2954
4143.607	3045
4145.167	2922
4146.724	3025
4148.28	3022
4149.836	3007
4151.392	2972
4152.949	3039
4154.504	2979
4156.059	2960
4157.614	2955
4159.168	2960
4160.723	2958
4162.277	2891
4163.83	2981
4165.383	2911
4166.936	3066
4168.488	2931
4170.041	2899
4171.593	3007
4173.144	2910
4174.695	2904
4176.246	2925
4177.796	2942
4179.346	2916
4180.896	2954
4182.445	2890
4183.994	2841
4185.542	2907
4187.091	2896
4188.639	2904
4190.185	2882
4191.732	2897
4193.279	2910
4194.826	2864
4196.373	2857
4197.918	2883
4199.463	2901
4201.008	2942
4202.553	2881
4204.098	2840
4205.641	2901
4207.185	2878
4208.728	2878
4210.271	2893
4211.814	2816
4213.357	2843
4214.898	2807
4216.439	2827
4217.98	2833
4219.522	2826
4221.062	2870
4222.603	2841
4224.142	2903
4225.681	2809
4227.222	2852
4228.76	2807
4230.298	2847
4231.835	2819
4233.373	2852
4234.911	2848
4236.449	2786
4237.985	2832
4239.521	2802
4241.057	2824
4242.592	2802
4244.128	2755
4245.663	2849
4247.197	2768
4248.731	2774
4250.265	2733
4251.798	2829
4253.333	2790
4254.865	2806
4256.397	2738
4257.93	2814
4259.461	2822
4260.994	2847
4262.525	2707
4264.056	2742
4265.586	2812
4267.115	2730
4268.646	2765
4270.176	2748
4271.705	2807
4273.232	2702
4274.761	2719
4276.289	2762
4277.818	2733
4279.345	2793
4280.872	2773
4282.399	2770
4283.924	2671
4285.452	2766
4286.976	2742
4288.502	2751
4290.026	2740
4291.551	2675
4293.074	2780
4294.6	2770
4296.123	2743
4297.646	2724
4299.168	2727
4300.691	2706
4302.214	2652
4303.736	2668
4305.257	2732
4306.778	2681
4308.299	2754
4309.82	2659
4311.34	2724
4312.86	2698
4314.379	2695
