400.0745	4317
402.597	4286
405.1208	4343
407.6419	4353
410.1623	4377
412.6819	4317
415.201	4333
417.7172	4404
420.2369	4510
422.7538	4472
425.2701	4520
427.7856	4644
430.3005	4701
432.8147	4618
435.3282	4596
437.841	4597
440.3511	4495
442.8625	4731
445.3753	4639
447.8854	4668
450.3927	4540
452.9014	4608
455.4073	4573
457.9146	4612
460.4233	4638
462.9272	4562
465.4325	4566
467.935	4604
470.4389	4586
472.9421	4581
475.4446	4579
477.9444	4548
480.4456	4469
482.944	4618
485.4417	4603
487.9429	4531
490.4393	4653
492.935	4639
495.4321	4568
497.9264	4600
500.4221	4628
502.9171	4628
505.4094	4720
507.9011	4630
510.392	4626
512.8864	4664
515.3759	4661
517.8649	4692
520.3531	4709
522.8406	4714
525.3275	4709
527.8178	4672
530.3033	4715
532.7881	4745
535.2723	4828
537.7558	4811
540.2407	4731
542.7228	4727
545.2043	4671
547.6851	4754
550.1652	4773
552.6467	4694
555.1255	4745
557.6016	4860
560.079	4681
562.5557	4756
565.0318	4815
567.5092	4749
569.984	4838
572.456	4815
574.9294	4856
577.4022	5013
579.8762	4960
582.3456	5049
584.8163	5037
587.2863	5088
589.7557	4927
592.2224	4974
594.6924	4964
597.1578	5017
599.6245	4902
602.0905	4938
604.5538	4946
607.0206	4946
609.4825	4884
611.9459	4909
614.4066	4945
616.8686	4848
619.33	4880
621.7906	4943
624.2487	4892
626.708	4855
629.1647	4904
631.6207	4895
634.0801	4810
636.5348	4852
638.9888	4849
641.4442	4922
643.8969	4782
646.3509	4862
648.8022	4947
651.255	4850
653.705	4888
656.1544	4993
658.6031	4849
661.0532	5022
663.5026	4951
665.9493	4984
668.3954	4950
670.8409	4973
673.2877	4907
675.7318	4982
678.1752	4975
680.618	5010
683.0601	5031
685.5035	5099
687.9444	4902
690.3845	5022
692.824	5015
695.2628	4978
697.701	5034
700.1406	5096
702.5774	5031
705.0116	5068
707.4472	5040
709.8821	5106
712.3183	5164
714.7519	5142
717.1829	5029
719.6151	5121
722.0468	5206
724.4777	5192
726.908	5128
729.3377	5167
731.7667	5242
734.1931	5163
736.6208	5116
739.0498	5217
741.4742	5251
743.9	5239
746.3231	5218
748.7476	5360
751.1713	5365
753.5945	5358
756.015	5380
758.4368	5293
760.856	5248
763.2766	5416
765.6965	5390
768.1157	5336
770.5323	5375
772.9483	5438
775.3656	5406
777.7822	5481
780.1963	5488
782.6116	5446
785.0244	5376
787.4365	5505
789.8499	5309
792.2626	5403
794.6728	5468
797.0823	5334
799.4911	5322
801.8994	5420
804.3109	5409
806.7178	5453
809.124	5439
811.5297	5454
813.9347	5554
816.341	5569
818.7447	5522
821.1478	5470
823.5502	5445
825.952	5502
828.3531	5514
830.7556	5453
833.1554	5539
835.5546	5516
837.9532	5444
840.3511	5586
842.7504	5706
845.1451	5551
847.5411	5635
849.9365	5679
852.3312	5697
854.7272	5810
857.1187	5692
859.5115	5760
861.9037	5614
864.2952	5574
866.6842	5700
869.0764	5687
871.4661	5666
873.8531	5610
876.2415	5707
878.6272	5696
881.0162	5689
883.4026	5741
885.7866	5642
888.1717	5568
890.5543	5579
892.9382	5529
895.3215	5631
897.7041	5695
900.0842	5584
902.4655	5708
904.8443	5645
907.2244	5690
909.6039	5826
911.9808	5756
914.357	5743
916.7346	5912
919.1115	5917
921.4859	5896
923.8616	5927
926.2347	5902
928.6071	5863
930.979	6011
933.3541	5938
935.7247	6123
938.0946	6100
940.4639	6266
942.8326	6173
945.2026	6326
947.5701	6488
949.9369	6620
952.305	6834
954.6705	7298
957.0355	7542
959.4017	8000
961.7654	8219
964.1284	8123
966.4908	7833
968.8527	7432
971.2138	6992
973.5743	6656
975.9343	6313
978.2936	6130
980.6522	6071
983.0122	5947
985.3696	5817
987.7245	5711
990.0807	5868
992.4362	5879
994.7911	5820
997.1474	5819
999.4991	5839
1001.852	5827
1004.205	5952
1006.555	5954
1008.908	5848
1011.258	5967
1013.606	5923
1015.956	5917
1018.302	5942
1020.652	5894
1022.998	6065
1025.345	5869
1027.691	6113
1030.035	5892
1032.378	6000
1034.724	6044
1037.066	6032
1039.409	6004
1041.75	6011
1044.092	6041
1046.433	6046
1048.771	6056
1051.112	6070
1053.449	6029
1055.786	6009
1058.124	5981
1060.462	6041
1062.797	6082
1065.131	6025
1067.467	6129
1069.8	6147
1072.135	6165
1074.467	6143
1076.798	6253
1079.129	6104
1081.459	6105
1083.792	6027
1086.121	6041
1088.449	6054
1090.777	5903
1093.104	5941
1095.431	5954
1097.759	5971
1100.084	6007
1102.408	5982
1104.732	5885
1107.056	6004
1109.379	5939
1111.701	5983
1114.022	5948
1116.343	5944
1118.664	6039
1120.983	5926
1123.303	5830
1125.621	6063
1127.939	5967
1130.256	5968
1132.573	5977
1134.889	5896
1137.205	5929
1139.52	5927
1141.832	5925
1144.146	5849
1146.461	5929
1148.771	5894
1151.083	5794
1153.392	5912
1155.703	5926
1158.011	5869
1160.323	5933
1162.629	5903
1164.938	5900
1167.243	5851
1169.55	5946
1171.857	5978
1174.163	6022
1176.466	5836
1178.769	5918
1181.073	5958
1183.374	5981
1185.677	5889
1187.979	5926
1190.279	5990
1192.578	5844
1194.878	5984
1197.178	6019
1199.476	5978
1201.772	5964
1204.068	5971
1206.366	6002
1208.663	5945
1210.957	6025
1213.251	6109
1215.544	5876
1217.836	5904
1220.128	5955
1222.421	5886
1224.712	6094
1227.002	6126
1229.292	6107
1231.581	6199
1233.871	6108
1236.159	6234
1238.446	6221
1240.732	6312
1243.018	6241
1245.304	6236
1247.59	6348
1249.874	6298
1252.156	6263
1254.439	6211
1256.721	6250
1259.005	6234
1261.286	6248
1263.565	6208
1265.845	6253
1268.125	6310
1270.403	6254
1272.682	6194
1274.959	6275
1277.234	6361
1279.511	6236
1281.787	6281
1284.062	6213
1286.337	6128
1288.609	6173
1290.882	6115
1293.153	6114
1295.428	6210
1297.698	6200
1299.969	6110
1302.237	6151
1304.507	6137
1306.777	6009
1309.044	6049
1311.312	6075
1313.578	6141
1315.844	6046
1318.109	6130
1320.375	6129
1322.638	6166
1324.903	6028
1327.165	6079
1329.427	6099
1331.69	6022
1333.952	6075
1336.212	5988
1338.471	6240
1340.73	6070
1342.988	6111
1345.248	6032
1347.505	5999
1349.763	6048
1352.019	6031
1354.274	6009
1356.53	5988
1358.784	6057
1361.038	6077
1363.291	6013
1365.543	6042
1367.797	6101
1370.048	6018
1372.296	6088
1374.546	5981
1376.796	6073
1379.045	6100
1381.295	6244
1383.542	6139
1385.787	6145
1388.034	6036
1390.28	6057
1392.527	6257
1394.772	6206
1397.014	6137
1399.258	6154
1401.501	6245
1403.741	6252
1405.985	6287
1408.226	6160
1410.465	6322
1412.705	6166
1414.943	6280
1417.184	6230
1419.42	6224
1421.658	6371
1423.894	6390
1426.13	6336
1428.366	6205
1430.602	6279
1432.835	6373
1435.069	6295
1437.301	6322
1439.535	6358
1441.767	6452
1443.997	6406
1446.229	6433
1448.458	6496
1450.687	6469
1452.916	6566
1455.146	6621
1457.372	6469
1459.599	6524
1461.824	6542
1464.051	6529
1466.277	6460
1468.501	6326
1470.725	6393
1472.948	6296
1475.17	6178
1477.393	6252
1479.614	6075
1481.837	6079
1484.057	6246
1486.276	6093
1488.497	6177
1490.715	6082
1492.932	6048
1495.148	6004
1497.364	6037
1499.58	6056
1501.798	5946
1504.012	5928
1506.227	5968
1508.44	6044
1510.653	5889
1512.866	5959
1515.078	5994
1517.289	6010
1519.5	5986
1521.711	5950
1523.92	6073
1526.13	6014
1528.338	6031
1530.544	5937
1532.752	5902
1534.959	6096
1537.165	5887
1539.371	6020
1541.574	5925
1543.779	6138
1545.983	5980
1548.187	6172
1550.39	6000
1552.59	6088
1554.792	6173
1556.991	6001
1559.19	6161
1561.392	6093
1563.59	6092
1565.789	6134
1567.986	6044
1570.182	6199
1572.381	6136
1574.576	6076
1576.771	6058
1578.966	6197
1581.16	6101
1583.354	6194
1585.546	6096
1587.74	6208
1589.931	6170
1592.121	6208
1594.311	6118
1596.502	6186
1598.693	6319
1600.881	6215
1603.069	6233
1605.256	6118
1607.445	6208
1609.631	6322
1611.816	6246
1614.001	6320
1616.186	6288
1618.37	6320
1620.555	6298
1622.737	6453
1624.919	6358
1627.101	6274
1629.282	6360
1631.463	6388
1633.643	6202
1635.822	6394
1638.001	6491
1640.179	6392
1642.359	6446
1644.534	6425
1646.711	6399
1648.887	6401
1651.062	6406
1653.235	6511
1655.412	6460
1657.586	6436
1659.757	6543
1661.93	6481
1664.1	6461
1666.274	6472
1668.445	6535
1670.614	6543
1672.784	6505
1674.951	6599
1677.12	6599
1679.289	6425
1681.457	6409
1683.622	6522
1685.789	6517
1687.953	6437
1690.121	6500
1692.284	6318
1694.447	6343
1696.611	6358
1698.772	6392
1700.935	6186
1703.098	6252
1705.258	6253
1707.417	6104
1709.576	6224
1711.736	6139
1713.896	6192
1716.053	6143
1718.21	6138
1720.366	6051
1722.522	6199
1724.68	6174
1726.835	6180
1728.989	6176
1731.142	6175
1733.295	6213
1735.449	6054
1737.601	6116
1739.753	6163
1741.903	6156
1744.054	6192
1746.203	5922
1748.354	6173
1750.503	6228
1752.651	6111
1754.798	6135
1756.944	6138
1759.092	6192
1761.238	6226
1763.383	6156
1765.528	6168
1767.672	6165
1769.814	6163
1771.959	6085
1774.102	6140
1776.242	6133
1778.384	6204
1780.525	6211
1782.665	6186
1784.805	6230
1786.945	6227
1789.082	6113
1791.22	6201
1793.36	6175
1795.495	6191
1797.632	6226
1799.766	6129
1801.902	6173
1804.035	6252
1806.172	6032
1808.304	6144
1810.436	6155
1812.569	6140
1814.699	6154
1816.833	6059
1818.963	6092
1821.092	6267
1823.222	6161
1825.35	6272
1827.478	6122
1829.608	6169
1831.734	6157
1833.86	6238
1835.986	6208
1838.11	6078
1840.238	6158
1842.362	6103
1844.485	6216
1846.608	6199
1848.73	6165
1850.853	6043
1852.974	6225
1855.097	6011
1857.217	6142
1859.336	6060
1861.455	6110
1863.576	6119
1865.693	5998
1867.811	6258
1869.926	6125
1872.042	5991
1874.16	6130
1876.275	6116
1878.39	6132
1880.504	6179
1882.618	6248
1884.731	6145
1886.843	6131
1888.956	6067
1891.067	6101
1893.178	6125
1895.287	6241
1897.399	6230
1899.508	6137
1901.617	6159
1903.724	6136
1905.832	6170
1907.941	6103
1910.046	6260
1912.152	6225
1914.256	6207
1916.361	6149
1918.464	6023
1920.57	6101
1922.672	6177
1924.775	6168
1926.876	6225
1928.978	6243
1931.08	6205
1933.181	6256
1935.28	6115
1937.38	6198
1939.478	6197
1941.577	6211
1943.675	6211
1945.771	6180
1947.867	6245
1949.964	6198
1952.058	6163
1954.154	6238
1956.248	6094
1958.343	6169
1960.435	6213
1962.527	6223
1964.62	6215
1966.711	6243
1968.802	6127
1970.892	6145
1972.983	6196
1975.072	6116
1977.162	6138
1979.25	6228
1981.337	6121
1983.424	6138
1985.51	6206
1987.598	6137
1989.683	6195
1991.768	6130
1993.852	6151
1995.934	6210
1998.019	6116
2000.102	6170
2002.184	6149
2004.266	6122
2006.347	6167
2008.427	6216
2010.508	6132
2012.587	6212
2014.666	6236
2016.745	6140
2018.821	6101
2020.9	6089
2022.977	6165
2025.052	6175
2027.128	6176
2029.204	6186
2031.277	6077
2033.353	6055
2035.425	6109
2037.499	6119
2039.57	6130
2041.642	6170
2043.714	6061
2045.786	6103
2047.855	6125
2049.925	6173
2051.993	6118
2054.064	6128
2056.132	6132
2058.2	6082
2060.266	6120
2062.332	6149
2064.398	6164
2066.465	6061
2068.529	6172
2070.592	6192
2072.657	6108
2074.719	6120
2076.783	6110
2078.845	6151
2080.907	6122
2082.968	6104
2085.028	6224
2087.087	6186
2089.148	6137
2091.207	6181
2093.264	5986
2095.322	6183
2097.379	6178
2099.439	6165
2101.495	6086
2103.55	6196
2105.605	6224
2107.658	6165
2109.713	6215
2111.767	6100
2113.82	6185
2115.872	6107
2117.924	6093
2119.975	6092
2122.028	6076
2124.078	6126
2126.126	6094
2128.176	6116
2130.225	6168
2132.275	6160
2134.321	6160
2136.368	6004
2138.415	6253
2140.461	6172
2142.505	6165
2144.552	6086
2146.597	6025
2148.64	6095
2150.684	6017
2152.725	6152
2154.77	6139
2156.811	6091
2158.852	6083
2160.894	6074
2162.933	6124
2164.973	6073
2167.013	6109
2169.051	6054
2171.089	6060
2173.126	5997
2175.164	6036
2177.201	5973
2179.236	6000
2181.273	6030
2183.307	6065
2185.341	6135
2187.377	5971
2189.41	5953
2191.442	6084
2193.473	6000
2195.506	6009
2197.539	5873
2199.569	5944
2201.598	5967
2203.628	5969
2205.656	5985
2207.686	5986
2209.716	5937
2211.743	5882
2213.769	5899
2215.796	5993
2217.821	5910
2219.848	5886
2221.873	5942
2223.897	5897
2225.921	6003
2227.944	5869
2229.967	6011
2231.991	5904
2234.011	6029
2236.032	5898
2238.053	5946
2240.073	5956
2242.094	5871
2244.114	5936
2246.131	5985
2248.149	5947
2250.167	5916
2252.186	5933
2254.201	5973
2256.218	5918
2258.233	5906
2260.247	5954
2262.262	5911
2264.278	5869
2266.29	5923
2268.303	5950
2270.315	5882
2272.327	5979
2274.341	5961
2276.35	5955
2278.361	5929
2280.37	5909
2282.38	6025
2284.388	5858
2286.397	5983
2288.405	6140
2290.412	5889
2292.419	5968
2294.425	5986
2296.431	5996
2298.437	5966
2300.441	5881
2302.445	5925
2304.449	5926
2306.453	5973
2308.455	5892
2310.457	5840
2312.459	6055
2314.46	5972
2316.46	5867
2318.461	5828
2320.46	5866
2322.458	5862
2324.458	5932
2326.456	5799
2328.455	5913
2330.451	5706
2332.447	5780
2334.443	5838
2336.438	5722
2338.433	5815
2340.429	5791
2342.422	5812
2344.416	5856
2346.408	5859
2348.399	5770
2350.393	5853
2352.384	5821
2354.375	5790
2356.365	5688
2358.355	5673
2360.344	5745
2362.333	5858
2364.322	5851
2366.309	5670
2368.295	5806
2370.282	5732
2372.27	5720
2374.256	5739
2376.24	5828
2378.225	5738
2380.208	5752
2382.194	5764
2384.177	5760
2386.159	5817
2388.142	5776
2390.122	5750
2392.105	5654
2394.085	5712
2396.066	5820
2398.044	5679
2400.024	5772
2402.002	5639
2403.982	5681
2405.959	5744
2407.935	5688
2409.913	5709
2411.888	5768
2413.865	5722
2415.84	5641
2417.814	5772
2419.788	5805
2421.762	5669
2423.735	5649
2425.708	5745
2427.68	5657
2429.651	5706
2431.623	5697
2433.593	5606
2435.564	5684
2437.533	5686
2439.502	5685
2441.47	5685
2443.438	5790
2445.406	5686
2447.373	5702
2449.34	5706
2451.305	5736
2453.271	5622
2455.235	5610
2457.201	5643
2459.165	5580
2461.129	5692
2463.092	5606
2465.054	5633
2467.018	5711
2468.978	5773
2470.939	5580
2472.899	5640
2474.86	5678
2476.819	5566
2478.778	5588
2480.737	5724
2482.695	5542
2484.653	5632
2486.609	5634
2488.567	5606
2490.524	5657
2492.478	5606
2494.433	5605
2496.387	5599
2498.343	5592
2500.297	5702
2502.249	5517
2504.202	5585
2506.153	5563
2508.105	5599
2510.057	5515
2512.008	5594
2513.957	5680
2515.906	5578
2517.855	5538
2519.805	5506
2521.754	5671
2523.7	5652
2525.647	5518
2527.594	5607
2529.54	5562
2531.486	5522
2533.431	5649
2535.376	5549
2537.32	5564
2539.263	5614
2541.207	5600
2543.151	5647
2545.093	5517
2547.034	5464
2548.975	5597
2550.917	5585
2552.856	5592
2554.796	5575
2556.735	5604
2558.673	5517
2560.611	5597
2562.55	5660
2564.487	5577
2566.424	5484
2568.36	5592
2570.296	5542
2572.232	5384
2574.167	5692
2576.101	5539
2578.035	5627
2579.969	5529
2581.902	5499
2583.834	5448
2585.766	5548
2587.698	5457
2589.628	5489
2591.557	5576
2593.489	5492
2595.419	5496
2597.348	5507
2599.275	5609
2601.204	5530
2603.131	5565
2605.059	5507
2606.986	5639
2608.911	5453
2610.837	5582
2612.76	5409
2614.687	5628
2616.61	5543
2618.534	5529
2620.457	5564
2622.38	5539
2624.302	5550
2626.225	5538
2628.145	5559
2630.067	5611
2631.986	5502
2633.906	5505
2635.827	5536
2637.745	5561
2639.662	5576
2641.581	5566
2643.498	5614
2645.415	5533
2647.331	5580
2649.248	5559
2651.163	5613
2653.077	5550
2654.993	5573
2656.906	5654
2658.821	5521
2660.733	5529
2662.646	5564
2664.557	5553
2666.47	5571
2668.381	5609
2670.291	5457
2672.201	5411
2674.11	5523
2676.021	5540
2677.929	5493
2679.837	5447
2681.745	5461
2683.652	5552
2685.56	5541
2687.466	5537
2689.371	5571
2691.276	5567
2693.181	5514
2695.085	5420
2696.991	5488
2698.893	5474
2700.796	5501
2702.698	5467
2704.601	5470
2706.502	5391
2708.404	5450
2710.304	5488
2712.203	5423
2714.103	5429
2716.003	5408
2717.902	5499
2719.8	5446
2721.697	5375
2723.594	5510
2725.49	5519
2727.389	5421
2729.283	5486
2731.179	5361
2733.073	5429
2734.968	5546
2736.863	5458
2738.757	5555
2740.649	5472
2742.541	5392
2744.433	5397
2746.324	5490
2748.216	5526
2750.107	5500
2751.997	5412
2753.886	5400
2755.776	5492
2757.666	5494
2759.553	5409
2761.44	5428
2763.327	5354
2765.215	5391
2767.102	5397
2768.988	5452
2770.873	5417
2772.757	5409
2774.641	5360
2776.525	5459
2778.41	5440
2780.292	5412
2782.175	5441
2784.057	5401
2785.938	5409
2787.821	5444
2789.701	5379
2791.581	5399
2793.461	5430
2795.34	5426
2797.219	5337
2799.099	5376
2800.975	5253
2802.853	5377
2804.73	5325
2806.606	5304
2808.484	5357
2810.358	5294
2812.233	5379
2814.108	5347
2815.981	5242
2817.857	5308
2819.73	5399
2821.602	5383
2823.474	5306
2825.346	5338
2827.217	5362
2829.089	5340
2830.959	5325
2832.829	5406
2834.698	5333
2836.567	5377
2838.436	5463
2840.305	5452
2842.172	5410
2844.04	5447
2845.905	5451
2847.772	5407
2849.639	5526
2851.503	5536
2853.369	5510
2855.232	5504
2857.096	5451
2858.961	5516
2860.824	5663
2862.686	5568
2864.547	5631
2866.41	5737
2868.272	5823
2870.132	5730
2871.992	5891
2873.851	5950
2875.711	6009
2877.57	6082
2879.429	6083
2881.287	6189
2883.144	6224
2885.001	6270
2886.857	6292
2888.714	6321
2890.57	6241
2892.425	6326
2894.279	6208
2896.133	6221
2897.987	6145
2899.842	6203
2901.694	6169
2903.547	6187
2905.397	6204
2907.249	6204
2909.101	6133
2910.952	6288
2912.802	6346
2914.652	6397
2916.5	6297
2918.35	6550
2920.198	6700
2922.045	6545
2923.893	6765
2925.74	6909
2927.585	6989
2929.433	7032
2931.279	7017
2933.123	7241
2934.968	7308
2936.811	7376
2938.656	7446
2940.5	7399
2942.342	7670
2944.185	7508
2946.026	7561
2947.87	7586
2949.71	7477
2951.549	7490
2953.39	7411
2955.229	7361
2957.069	7253
2958.908	7200
2960.746	7009
2962.584	6922
2964.421	6951
2966.257	6866
2968.094	6791
2969.931	6793
2971.766	6693
2973.601	6623
2975.435	6569
2977.27	6552
2979.105	6551
2980.938	6514
2982.77	6453
2984.602	6431
2986.434	6276
2988.267	6377
2990.097	6421
2991.927	6187
2993.757	6203
2995.587	6115
2997.417	6100
2999.246	6029
3001.074	6001
3002.902	6035
3004.729	5883
3006.556	5761
3008.384	5674
3010.21	5634
3012.036	5564
3013.861	5527
3015.684	5354
3017.51	5396
3019.334	5428
3021.157	5308
3022.981	5332
3024.802	5257
3026.624	5314
3028.448	5218
3030.267	5142
3032.088	5272
3033.909	5157
3035.728	5121
3037.549	5141
3039.368	5121
3041.186	5132
3043.004	5077
3044.821	5128
3046.64	4990
3048.455	5085
3050.272	5124
3052.087	5141
3053.903	5105
3055.717	4984
3057.534	5135
3059.347	4960
3061.16	5127
3062.974	5020
3064.785	5021
3066.598	5057
3068.411	5157
3070.222	4992
3072.032	5088
3073.844	5046
3075.653	5012
3077.463	5082
3079.272	4988
3081.08	4978
3082.889	5039
3084.697	4978
3086.505	4979
3088.312	4946
3090.118	4970
3091.924	4929
3093.729	4980
3095.535	5006
3097.34	4896
3099.144	4956
3100.947	4897
3102.75	4799
3104.553	4866
3106.357	5026
3108.159	4926
3109.961	4816
3111.762	4853
3113.562	4842
3115.365	4783
3117.164	4868
3118.964	4810
3120.761	4851
3122.56	4866
3124.36	4852
3126.158	4794
3127.954	4788
3129.75	4751
3131.547	4815
3133.343	4793
3135.139	4916
3136.934	4736
3138.729	4770
3140.522	4831
3142.317	4842
3144.11	4710
3145.904	4791
3147.695	4777
3149.488	4786
3151.28	4811
3153.07	4773
3154.863	4740
3156.652	4740
3158.441	4777
3160.231	4727
3162.019	4730
3163.81	4763
3165.597	4802
3167.384	4764
3169.172	4772
3170.958	4755
3172.745	4706
3174.532	4787
3176.317	4782
3178.101	4768
3179.885	4766
3181.67	4720
3183.455	4659
3185.238	4772
3187.02	4752
3188.802	4784
3190.585	4720
3192.368	4733
3194.149	4726
3195.929	4719
3197.709	4791
3199.489	4712
3201.268	4660
3203.048	4712
3204.826	4695
3206.604	4685
3208.382	4792
3210.159	4756
3211.937	4770
3213.713	4724
3215.489	4770
3217.263	4736
3219.038	4795
3220.815	4724
3222.589	4653
3224.363	4757
3226.136	4693
3227.908	4779
3229.681	4754
3231.454	4754
3233.226	4824
3234.996	4795
3236.767	4799
3238.538	4795
3240.308	4712
3242.078	4698
3243.847	4744
3245.615	4699
3247.384	4773
3249.15	4849
3250.92	4705
3252.686	4681
3254.453	4721
3256.218	4749
3257.984	4708
3259.75	4723
3261.515	4716
3263.279	4902
3265.044	4717
3266.806	4727
3268.57	4675
3270.334	4723
3272.095	4814
3273.856	4738
3275.619	4682
3277.379	4810
3279.14	4695
3280.9	4833
3282.661	4720
3284.419	4870
3286.178	4851
3287.937	4740
3289.695	4793
3291.453	4811
3293.21	4828
3294.967	4778
3296.723	4722
3298.48	4710
3300.235	4821
3301.99	4850
3303.744	4850
3305.498	4712
3307.253	4739
3309.006	4790
3310.759	4767
3312.511	4827
3314.263	4788
3316.017	4727
3317.768	4867
3319.519	4868
3321.268	4812
3323.018	4840
3324.767	4835
3326.518	4815
3328.267	4757
3330.014	4867
3331.762	4785
3333.509	4753
3335.258	4789
3337.003	4849
3338.75	4711
3340.496	4758
3342.24	4737
3343.987	4841
3345.732	4764
3347.475	4747
3349.219	4758
3350.961	4733
3352.705	4737
3354.448	4632
3356.19	4666
3357.931	4726
3359.672	4736
3361.412	4707
3363.155	4689
3364.894	4702
3366.633	4694
3368.372	4565
3370.11	4684
3371.849	4692
3373.588	4656
3375.325	4594
3377.061	4702
3378.799	4548
3380.534	4649
3382.271	4704
3384.006	4599
3385.741	4565
3387.475	4588
3389.209	4632
3390.944	4615
3392.677	4598
3394.409	4568
3396.143	4598
3397.874	4598
3399.606	4576
3401.338	4570
3403.069	4580
3404.799	4551
3406.528	4557
3408.258	4467
3409.988	4591
3411.717	4592
3413.445	4606
3415.173	4587
3416.899	4532
3418.626	4600
3420.354	4497
3422.08	4527
3423.806	4514
3425.531	4433
3427.255	4419
3428.981	4510
3430.705	4494
3432.429	4533
3434.151	4531
3435.875	4460
3437.599	4461
3439.321	4508
3441.042	4467
3442.763	4584
3444.483	4423
3446.204	4454
3447.926	4433
3449.645	4299
3451.364	4493
3453.082	4415
3454.801	4441
3456.52	4413
3458.238	4429
3459.954	4382
3461.671	4398
3463.387	4377
3465.104	4375
3466.82	4368
3468.534	4234
3470.25	4377
3471.963	4363
3473.676	4305
3475.392	4279
3477.104	4282
3478.817	4343
3480.528	4283
3482.241	4359
3483.954	4276
3485.664	4329
3487.374	4204
3489.084	4303
3490.795	4224
3492.504	4334
3494.214	4262
3495.922	4351
3497.63	4199
3499.338	4238
3501.045	4196
3502.753	4234
3504.459	4249
3506.166	4157
3507.871	4203
3509.576	4172
3511.283	4218
3512.987	4127
3514.691	4199
3516.395	4125
3518.098	4181
3519.8	4191
3521.504	4128
3523.206	4124
3524.908	4121
3526.609	4157
3528.309	4135
3530.011	3984
3531.711	4079
3533.411	4114
3535.109	4091
3536.808	4096
3538.507	4100
3540.206	4017
3541.904	4026
3543.601	3979
3545.297	4026
3546.994	4092
3548.69	4035
3550.387	4001
3552.081	4023
3553.776	4054
3555.47	4099
3557.166	3955
3558.859	3981
3560.553	4053
3562.245	3982
3563.938	3963
3565.629	3994
3567.322	3912
3569.014	4010
3570.704	3990
3572.394	4014
3574.084	3927
3575.775	3910
3577.464	3987
3579.152	3928
3580.842	3932
3582.529	3947
3584.216	3910
3585.905	3913
3587.591	3893
3589.279	3945
3590.964	4052
3592.649	3914
3594.336	3889
3596.021	3893
3597.705	3866
3599.388	3852
3601.072	3772
3602.757	3819
3604.439	3822
3606.122	3802
3607.803	3915
3609.485	3778
3611.167	3856
3612.849	3818
3614.529	3844
3616.208	3732
3617.888	3850
3619.567	3857
3621.247	3715
3622.926	3765
3624.603	3814
3626.281	3746
3627.958	3750
3629.635	3743
3631.312	3761
3632.989	3684
3634.665	3723
3636.339	3723
3638.014	3691
3639.691	3672
3641.364	3686
3643.038	3677
3644.71	3716
3646.384	3716
3648.058	3669
3649.729	3767
3651.402	3660
3653.073	3633
3654.744	3613
3656.414	3659
3658.085	3669
3659.755	3633
3661.424	3679
3663.094	3637
3664.762	3682
3666.431	3627
3668.099	3594
3669.766	3574
3671.433	3623
3673.099	3632
3674.768	3628
3676.433	3686
3678.098	3612
3679.763	3569
3681.428	3600
3683.093	3611
3684.757	3565
3686.421	3545
3688.083	3574
3689.746	3557
3691.408	3613
3693.071	3520
3694.733	3618
3696.394	3482
3698.054	3478
3699.715	3542
3701.375	3625
3703.036	3477
3704.695	3637
3706.354	3564
3708.012	3579
3709.67	3542
3711.329	3525
3712.987	3404
3714.644	3503
3716.299	3524
3717.955	3584
3719.613	3421
3721.268	3561
3722.923	3417
3724.577	3505
3726.231	3525
3727.885	3435
3729.539	3528
3731.192	3472
3732.845	3479
3734.497	3434
3736.149	3516
3737.802	3515
3739.453	3441
3741.104	3443
3742.753	3455
3744.404	3466
3746.052	3444
3747.704	3467
3749.352	3501
3751	3487
3752.648	3487
3754.296	3429
3755.944	3483
3757.59	3494
3759.238	3399
3760.883	3486
3762.528	3422
3764.176	3356
3765.82	3348
3767.464	3410
3769.109	3441
3770.753	3458
3772.396	3390
3774.04	3429
3775.683	3340
3777.325	3402
3778.967	3405
3780.608	3446
3782.25	3362
3783.89	3358
3785.531	3341
3787.17	3382
3788.81	3376
3790.45	3300
3792.09	3409
3793.729	3387
3795.366	3363
3797.003	3412
3798.64	3359
3800.278	3316
3801.915	3252
3803.551	3331
3805.187	3335
3806.822	3362
3808.458	3351
3810.093	3320
3811.726	3284
3813.36	3360
3814.994	3320
3816.627	3359
3818.262	3267
3819.893	3297
3821.525	3278
3823.157	3306
3824.787	3230
3826.42	3369
3828.051	3240
3829.68	3236
3831.31	3214
3832.938	3276
3834.569	3294
3836.198	3284
3837.825	3276
3839.454	3259
3841.08	3195
3842.708	3220
3844.335	3318
3845.962	3301
3847.587	3250
3849.212	3281
3850.838	3213
3852.463	3247
3854.089	3203
3855.712	3311
3857.335	3297
3858.959	3187
3860.582	3176
3862.205	3302
3863.827	3166
3865.449	3256
3867.07	3219
3868.691	3170
3870.312	3230
3871.933	3242
3873.553	3287
3875.173	3172
3876.792	3226
3878.411	3149
3880.03	3174
3881.647	3132
3883.265	3189
3884.882	3228
3886.499	3150
3888.116	3180
3889.732	3161
3891.348	3213
3892.964	3147
3894.579	3196
3896.195	3177
3897.809	3201
3899.423	3123
3901.036	3224
3902.648	3225
3904.261	3174
3905.875	3140
3907.487	3194
3909.099	3154
3910.709	3107
3912.321	3233
3913.933	3145
3915.542	3158
3917.152	3139
3918.762	3131
3920.37	3091
3921.98	3214
3923.589	3205
3925.196	3102
3926.804	3080
3928.41	3089
3930.018	3091
3931.626	3120
3933.231	3182
3934.838	3136
3936.442	3101
3938.046	3119
3939.653	3219
3941.257	3135
3942.861	3132
3944.464	3127
3946.068	3141
3947.67	3068
3949.273	3037
3950.876	3130
3952.477	3140
3954.078	3046
3955.678	3140
3957.281	3074
3958.881	2995
3960.48	3129
3962.079	3058
3963.678	3082
3965.279	3048
3966.877	3052
3968.475	3033
3970.072	3018
3971.669	2998
3973.266	3003
3974.864	3056
3976.459	3075
3978.055	3029
3979.65	2991
3981.245	3025
3982.841	2954
3984.436	3045
3986.03	3065
3987.623	3033
3989.216	2995
3990.809	3020
3992.403	3019
3993.995	3017
3995.586	3020
3997.177	3033
3998.768	3071
4000.361	2931
4001.951	2902
4003.54	2929
4005.13	2966
4006.719	2973
4008.31	2939
4009.897	3005
4011.485	3041
4013.073	2924
4014.66	2912
4016.247	3014
4017.834	2991
4019.421	3008
4021.006	2901
4022.592	2947
4024.178	2960
4025.763	2884
4027.348	2942
4028.932	2927
4030.515	2876
4032.099	2925
4033.682	2893
4035.266	2939
4036.847	2909
4038.429	2861
4040.011	2918
4041.592	2880
4043.173	2922
4044.755	2857
4046.334	2948
4047.913	2862
4049.494	2845
4051.074	2882
4052.652	2878
4054.23	2832
4055.807	2895
4057.385	2880
4058.963	2842
4060.541	2810
4062.117	2842
4063.693	2847
4065.269	2892
4066.844	2843
4068.42	2903
4069.995	2782
4071.569	2896
4073.143	2760
4074.716	2851
4076.291	2808
4077.864	2873
4079.436	2878
4081.009	2839
4082.58	2785
4084.152	2896
4085.723	2789
4087.294	2757
4088.865	2771
4090.435	2855
4092.005	2851
4093.574	2909
4095.143	2754
4096.712	2751
4098.279	2821
4099.848	2842
4101.416	2802
4102.984	2793
4104.55	2783
4106.117	2732
4107.682	2818
4109.248	2787
4110.815	2810
4112.379	2820
4113.945	2795
4115.508	2748
4117.073	2657
4118.637	2743
4120.201	2828
4121.763	2789
4123.325	2791
4124.888	2719
4126.449	2778
4128.013	2680
4129.573	2762
4131.133	2736
4132.694	2749
4134.254	2724
4135.814	2822
4137.374	2759
4138.933	2734
4140.491	2675
4142.049	2645
4143.607	2762
4145.167	2697
4146.724	2766
4148.28	2643
4149.836	2692
4151.392	2736
4152.949	2727
4154.504	2681
4156.059	2681
4157.614	2640
4159.168	2659
4160.723	2642
4162.277	2708
4163.83	2687
4165.383	2674
4166.936	2696
4168.488	2660
4170.041	2621
4171.593	2727
4173.144	2672
4174.695	2617
4176.246	2692
4177.796	2646
4179.346	2600
4180.896	2570
4182.445	2658
4183.994	2531
4185.542	2643
4187.091	2586
4188.639	2616
4190.185	2621
4191.732	2616
4193.279	2610
4194.826	2634
4196.373	2605
4197.918	2640
4199.463	2610
4201.008	2534
4202.553	2589
4204.098	2598
4205.641	2593
4207.185	2560
4208.728	2600
4210.271	2608
4211.814	2624
4213.357	2600
4214.898	2605
4216.439	2539
4217.98	2577
4219.522	2583
4221.062	2531
4222.603	2534
4224.142	2571
4225.681	2612
4227.222	2580
4228.76	2543
4230.298	2578
4231.835	2508
4233.373	2621
4234.911	2500
4236.449	2560
4237.985	2469
4239.521	2534
4241.057	2543
4242.592	2615
4244.128	2517
4245.663	2568
4247.197	2523
4248.731	2573
4250.265	2541
4251.798	2530
4253.333	2575
4254.865	2476
4256.397	2525
4257.93	2483
4259.461	2561
4260.994	2479
4262.525	2481
4264.056	2507
4265.586	2492
4267.115	2526
4268.646	2513
4270.176	2460
4271.705	2499
4273.232	2468
4274.761	2457
4276.289	2466
4277.818	2449
4279.345	2527
4280.872	2491
4282.399	2435
4283.924	2470
4285.452	2506
4286.976	2558
4288.502	2467
4290.026	2477
4291.551	2471
4293.074	2470
4294.6	2469
4296.123	2497
4297.646	2467
4299.168	2401
4300.691	2479
4302.214	2452
4303.736	2420
4305.257	2398
4306.778	2443
4308.299	2445
4309.82	2427
4311.34	2430
4312.86	2411
4314.379	2343
