400.0745	4055
402.597	4116
405.1208	4143
407.6419	4096
410.1623	4225
412.6819	4164
415.201	4171
417.7172	4226
420.2369	4245
422.7538	4314
425.2701	4423
427.7856	4383
430.3005	4498
432.8147	4423
435.3282	4442
437.841	4473
440.3511	4364
442.8625	4482
445.3753	4398
447.8854	4420
450.3927	4485
452.9014	4393
455.4073	4424
457.9146	4440
460.4233	4379
462.9272	4446
465.4325	4366
467.935	4444
470.4389	4335
472.9421	4384
475.4446	4380
477.9444	4341
480.4456	4425
482.944	4328
485.4417	4433
487.9429	4379
490.4393	4390
492.935	4459
495.4321	4410
497.9264	4444
500.4221	4489
502.9171	4419
505.4094	4433
507.9011	4427
510.392	4446
512.8864	4468
515.3759	4399
517.8649	4432
520.3531	4486
522.8406	4579
525.3275	4528
527.8178	4412
530.3033	4427
532.7881	4527
535.2723	4493
537.7558	4511
540.2407	4601
542.7228	4576
545.2043	4509
547.6851	4556
550.1652	4639
552.6467	4598
555.1255	4633
557.6016	4599
560.079	4529
562.5557	4564
565.0318	4550
567.5092	4656
569.984	4667
572.456	4659
574.9294	4805
577.4022	4731
579.8762	4781
582.3456	4782
584.8163	4764
587.2863	4825
589.7557	4808
592.2224	4928
594.6924	4819
597.1578	4904
599.6245	4875
602.0905	4680
604.5538	4723
607.0206	4690
609.4825	4646
611.9459	4806
614.4066	4692
616.8686	4686
619.33	4716
621.7906	4689
624.2487	4705
626.708	4683
629.1647	4541
631.6207	4676
634.0801	4655
636.5348	4656
638.9888	4639
641.4442	4768
643.8969	4607
646.3509	4689
648.8022	4679
651.255	4753
653.705	4663
656.1544	4712
658.6031	4683
661.0532	4743
663.5026	4707
665.9493	4721
668.3954	4768
670.8409	4729
673.2877	4716
675.7318	4810
678.1752	4733
680.618	4811
683.0601	4769
685.5035	4805
687.9444	4784
690.3845	4790
692.824	4902
695.2628	4860
697.701	4830
700.1406	4792
702.5774	4762
705.0116	4786
707.4472	4886
709.8821	4902
712.3183	4961
714.7519	4859
717.1829	5066
719.6151	4953
722.0468	4848
724.4777	5016
726.908	4959
729.3377	4933
731.7667	4947
734.1931	4935
736.6208	4902
739.0498	5069
741.4742	4991
743.9	5041
746.3231	5025
748.7476	5147
751.1713	5115
753.5945	5113
756.015	5220
758.4368	5104
760.856	5089
763.2766	5124
765.6965	5246
768.1157	5076
770.5323	5137
772.9483	5205
775.3656	5212
777.7822	5249
780.1963	5212
782.6116	5197
785.0244	5167
787.4365	5179
789.8499	5254
792.2626	5198
794.6728	5155
797.0823	5183
799.4911	5103
801.8994	5144
804.3109	5212
806.7178	5155
809.124	5172
811.5297	5346
813.9347	5333
816.341	5264
818.7447	5228
821.1478	5250
823.5502	5341
825.952	5293
828.3531	5187
830.7556	5361
833.1554	5296
835.5546	5297
837.9532	5312
840.3511	5259
842.7504	5316
845.1451	5355
847.5411	5516
849.9365	5404
852.3312	5399
854.7272	5471
857.1187	5360
859.5115	5472
861.9037	5412
864.2952	5401
866.6842	5311
869.0764	5351
871.4661	5420
873.8531	5399
876.2415	5389
878.6272	5400
881.0162	5446
883.4026	5534
885.7866	5462
888.1717	5401
890.5543	5328
892.9382	5328
895.3215	5461
897.7041	5401
900.0842	5396
902.4655	5487
904.8443	5375
907.2244	5437
909.6039	5434
911.9808	5471
914.357	5558
916.7346	5510
919.1115	5605
921.4859	5612
923.8616	5587
926.2347	5682
928.6071	5515
930.979	5650
933.3541	5727
935.7247	5849
938.0946	5726
940.4639	5828
942.8326	5861
945.2026	6055
947.5701	6164
949.9369	6438
952.305	6688
954.6705	7065
957.0355	7406
959.4017	7875
961.7654	8009
964.1284	8037
966.4908	7590
968.8527	7281
971.2138	6673
973.5743	6395
975.9343	6065
978.2936	5884
980.6522	5840
983.0122	5695
985.3696	5652
987.7245	5652
990.0807	5642
992.4362	5564
994.7911	5638
997.1474	5591
999.4991	5570
1001.852	5632
1004.205	5639
1006.555	5724
1008.908	5671
1011.258	5693
1013.606	5665
1015.956	5550
1018.302	5572
1020.652	5751
1022.998	5652
1025.345	5752
1027.691	5610
1030.035	5758
1032.378	5738
1034.724	5712
1037.066	5730
1039.409	5881
1041.75	5707
1044.092	5688
1046.433	5680
1048.771	5655
1051.112	5729
1053.449	5692
1055.786	5804
1058.124	5779
1060.462	5830
1062.797	5862
1065.131	5870
1067.467	5907
1069.8	5880
1072.135	5926
1074.467	5955
1076.798	5949
1079.129	5980
1081.459	5841
1083.792	5790
1086.121	5888
1088.449	5833
1090.777	5664
1093.104	5763
1095.431	5761
1097.759	5744
1100.084	5751
1102.408	5796
1104.732	5684
1107.056	5786
1109.379	5748
1111.701	5642
1114.022	5740
1116.343	5619
1118.664	5663
1120.983	5744
1123.303	5645
1125.621	5641
1127.939	5706
1130.256	5603
1132.573	5682
1134.889	5738
1137.205	5659
1139.52	5668
1141.832	5739
1144.146	5650
1146.461	5674
1148.771	5549
1151.083	5608
1153.392	5679
1155.703	5623
1158.011	5686
1160.323	5754
1162.629	5745
1164.938	5715
1167.243	5702
1169.55	5678
1171.857	5606
1174.163	5690
1176.466	5629
1178.769	5672
1181.073	5663
1183.374	5748
1185.677	5733
1187.979	5636
1190.279	5716
1192.578	5669
1194.878	5662
1197.178	5593
1199.476	5714
1201.772	5728
1204.068	5731
1206.366	5666
1208.663	5703
1210.957	5735
1213.251	5737
1215.544	5728
1217.836	5618
1220.128	5739
1222.421	5677
1224.712	5746
1227.002	5815
1229.292	5845
1231.581	5764
1233.871	5856
1236.159	5866
1238.446	5841
1240.732	5842
1243.018	5884
1245.304	6061
1247.59	5951
1249.874	6015
1252.156	5969
1254.439	5873
1256.721	6014
1259.005	5844
1261.286	5966
1263.565	5930
1265.845	5902
1268.125	6035
1270.403	5995
1272.682	5967
1274.959	5962
1277.234	5943
1279.511	6003
1281.787	5851
1284.062	5920
1286.337	5951
1288.609	5882
1290.882	5848
1293.153	5925
1295.428	5827
1297.698	5732
1299.969	5785
1302.237	5839
1304.507	5793
1306.777	5918
1309.044	5783
1311.312	5793
1313.578	5825
1315.844	5868
1318.109	5859
1320.375	5821
1322.638	5773
1324.903	5784
1327.165	5807
1329.427	5799
1331.69	5920
1333.952	5754
1336.212	5747
1338.471	5881
1340.73	5897
1342.988	5856
1345.248	5863
1347.505	5936
1349.763	5773
1352.019	5780
1354.274	5779
1356.53	5757
1358.784	5855
1361.038	5790
1363.291	5672
1365.543	5802
1367.797	5789
1370.048	5864
1372.296	5736
1374.546	5849
1376.796	5835
1379.045	5891
1381.295	5810
1383.542	5907
1385.787	5861
1388.034	5909
1390.28	5819
1392.527	5876
1394.772	5817
1397.014	5919
1399.258	5871
1401.501	6018
1403.741	5839
1405.985	5908
1408.226	5986
1410.465	5963
1412.705	5869
1414.943	5906
1417.184	6021
1419.42	6025
1421.658	5994
1423.894	5983
1426.13	5923
1428.366	6058
1430.602	5946
1432.835	5994
1435.069	6042
1437.301	6139
1439.535	6106
1441.767	6124
1443.997	6014
1446.229	6140
1448.458	6164
1450.687	6181
1452.916	6278
1455.146	6199
1457.372	6130
1459.599	6204
1461.824	6096
1464.051	6215
1466.277	6131
1468.501	6042
1470.725	6042
1472.948	5971
1475.17	6003
1477.393	5981
1479.614	5899
1481.837	5988
1484.057	5809
1486.276	5822
1488.497	5818
1490.715	5892
1492.932	5846
1495.148	5809
1497.364	5792
1499.58	5866
1501.798	5677
1504.012	5815
1506.227	5708
1508.44	5722
1510.653	5746
1512.866	5717
1515.078	5698
1517.289	5889
1519.5	5715
1521.711	5723
1523.92	5753
1526.13	5759
1528.338	5787
1530.544	5749
1532.752	5654
1534.959	5716
1537.165	5743
1539.371	5660
1541.574	5812
1543.779	5864
1545.983	5802
1548.187	5802
1550.39	5825
1552.59	5857
1554.792	5875
1556.991	5829
1559.19	5743
1561.392	5798
1563.59	5788
1565.789	5855
1567.986	5880
1570.182	5849
1572.381	5926
1574.576	5852
1576.771	5919
1578.966	5829
1581.16	5832
1583.354	5908
1585.546	5889
1587.74	5938
1589.931	5968
1592.121	5897
1594.311	5942
1596.502	5969
1598.693	5945
1600.881	6008
1603.069	5926
1605.256	6021
1607.445	5961
1609.631	6011
1611.816	6025
1614.001	6068
1616.186	5961
1618.37	5955
1620.555	5923
1622.737	5998
1624.919	5972
1627.101	5988
1629.282	6099
1631.463	6018
1633.643	6137
1635.822	6123
1638.001	6166
1640.179	6150
1642.359	6052
1644.534	6118
1646.711	6028
1648.887	6072
1651.062	6052
1653.235	6132
1655.412	6115
1657.586	6114
1659.757	6249
1661.93	6144
1664.1	6220
1666.274	6213
1668.445	6213
1670.614	6235
1672.784	6272
1674.951	6122
1677.12	6269
1679.289	6251
1681.457	6210
1683.622	6102
1685.789	6207
1687.953	6179
1690.121	6125
1692.284	6031
1694.447	6161
1696.611	6063
1698.772	6145
1700.935	6035
1703.098	6063
1705.258	5893
1707.417	5999
1709.576	5884
1711.736	5993
1713.896	6058
1716.053	5990
1718.21	5916
1720.366	5880
1722.522	5873
1724.68	5901
1726.835	5929
1728.989	5894
1731.142	5970
1733.295	5926
1735.449	5922
1737.601	5853
1739.753	6038
1741.903	5901
1744.054	5984
1746.203	5870
1748.354	5885
1750.503	5940
1752.651	5892
1754.798	5988
1756.944	5861
1759.092	5914
1761.238	5910
1763.383	5869
1765.528	5901
1767.672	5978
1769.814	5877
1771.959	5837
1774.102	5848
1776.242	5943
1778.384	5927
1780.525	5978
1782.665	5959
1784.805	5980
1786.945	6006
1789.082	6021
1791.22	5909
1793.36	5932
1795.495	5972
1797.632	6038
1799.766	5982
1801.902	5968
1804.035	6065
1806.172	5915
1808.304	5987
1810.436	5919
1812.569	5994
1814.699	6011
1816.833	5887
1818.963	5886
1821.092	5891
1823.222	5919
1825.35	6014
1827.478	5848
1829.608	5909
1831.734	5800
1833.86	5915
1835.986	5860
1838.11	5987
1840.238	5946
1842.362	5899
1844.485	5952
1846.608	5868
1848.73	5890
1850.853	5940
1852.974	5898
1855.097	5808
1857.217	5892
1859.336	5989
1861.455	5810
1863.576	5833
1865.693	5946
1867.811	5922
1869.926	5967
1872.042	5903
1874.16	5816
1876.275	5883
1878.39	5818
1880.504	5916
1882.618	5858
1884.731	5892
1886.843	5997
1888.956	5830
1891.067	5847
1893.178	5826
1895.287	5805
1897.399	5967
1899.508	5897
1901.617	5894
1903.724	5807
1905.832	6013
1907.941	5877
1910.046	5931
1912.152	5957
1914.256	5850
1916.361	6007
1918.464	6011
1920.57	5985
1922.672	5921
1924.775	5916
1926.876	6005
1928.978	5973
1931.08	5996
1933.181	5884
1935.28	5928
1937.38	5950
1939.478	5994
1941.577	5968
1943.675	5967
1945.771	5874
1947.867	5893
1949.964	5972
1952.058	6095
1954.154	5868
1956.248	5929
1958.343	5895
1960.435	5952
1962.527	5917
1964.62	6010
1966.711	5973
1968.802	5965
1970.892	5931
1972.983	5932
1975.072	5943
1977.162	5963
1979.25	5997
1981.337	5823
1983.424	5856
1985.51	6030
1987.598	5925
1989.683	5795
1991.768	5960
1993.852	5901
1995.934	5880
1998.019	5984
2000.102	5915
2002.184	5794
2004.266	5888
2006.347	5836
2008.427	5922
2010.508	5839
2012.587	5931
2014.666	5875
2016.745	5848
2018.821	6050
2020.9	5911
2022.977	5777
2025.052	5812
2027.128	5969
2029.204	5868
2031.277	5844
2033.353	5745
2035.425	5922
2037.499	5850
2039.57	5892
2041.642	5888
2043.714	5892
2045.786	5815
2047.855	5885
2049.925	5978
2051.993	5843
2054.064	5889
2056.132	5848
2058.2	5902
2060.266	5898
2062.332	6045
2064.398	5902
2066.465	5968
2068.529	5894
2070.592	6031
2072.657	5855
2074.719	5852
2076.783	5890
2078.845	5925
2080.907	5929
2082.968	5857
2085.028	5855
2087.087	6040
2089.148	5859
2091.207	5946
2093.264	5906
2095.322	5896
2097.379	5850
2099.439	5957
2101.495	5883
2103.55	5942
2105.605	5889
2107.658	5879
2109.713	5928
2111.767	5905
2113.82	5876
2115.872	5825
2117.924	5824
2119.975	5914
2122.028	5820
2124.078	5793
2126.126	5957
2128.176	5841
2130.225	5924
2132.275	5966
2134.321	5916
2136.368	5831
2138.415	5846
2140.461	5931
2142.505	5875
2144.552	5836
2146.597	5843
2148.64	5897
2150.684	5824
2152.725	6024
2154.77	5758
2156.811	5840
2158.852	5758
2160.894	5817
2162.933	5832
2164.973	5774
2167.013	5842
2169.051	5810
2171.089	5778
2173.126	5748
2175.164	5815
2177.201	5833
2179.236	5748
2181.273	5809
2183.307	5719
2185.341	5739
2187.377	5741
2189.41	5772
2191.442	5742
2193.473	5842
2195.506	5752
2197.539	5823
2199.569	5751
2201.598	5701
2203.628	5791
2205.656	5696
2207.686	5745
2209.716	5694
2211.743	5633
2213.769	5735
2215.796	5738
2217.821	5591
2219.848	5686
2221.873	5702
2223.897	5683
2225.921	5737
2227.944	5684
2229.967	5768
2231.991	5707
2234.011	5720
2236.032	5779
2238.053	5752
2240.073	5707
2242.094	5726
2244.114	5712
2246.131	5676
2248.149	5690
2250.167	5681
2252.186	5646
2254.201	5624
2256.218	5821
2258.233	5712
2260.247	5648
2262.262	5657
2264.278	5698
2266.29	5681
2268.303	5633
2270.315	5789
2272.327	5686
2274.341	5743
2276.35	5713
2278.361	5721
2280.37	5762
2282.38	5658
2284.388	5677
2286.397	5598
2288.405	5676
2290.412	5702
2292.419	5652
2294.425	5695
2296.431	5659
2298.437	5688
2300.441	5774
2302.445	5681
2304.449	5669
2306.453	5599
2308.455	5679
2310.457	5602
2312.459	5749
2314.46	5684
2316.46	5668
2318.461	5653
2320.46	5564
2322.458	5578
2324.458	5650
2326.456	5681
2328.455	5673
2330.451	5617
2332.447	5644
2334.443	5558
2336.438	5631
2338.433	5466
2340.429	5532
2342.422	5515
2344.416	5590
2346.408	5630
2348.399	5518
2350.393	5642
2352.384	5461
2354.375	5582
2356.365	5545
2358.355	5439
2360.344	5578
2362.333	5629
2364.322	5599
2366.309	5538
2368.295	5524
2370.282	5537
2372.27	5532
2374.256	5592
2376.24	5556
2378.225	5496
2380.208	5536
2382.194	5611
2384.177	5515
2386.159	5524
2388.142	5410
2390.122	5456
2392.105	5503
2394.085	5487
2396.066	5491
2398.044	5546
2400.024	5472
2402.002	5514
2403.982	5532
2405.959	5415
2407.935	5491
2409.913	5552
2411.888	5430
2413.865	5455
2415.84	5541
2417.814	5459
2419.788	5510
2421.762	5510
2423.735	5514
2425.708	5420
2427.68	5484
2429.651	5340
2431.623	5479
2433.593	5541
2435.564	5436
2437.533	5580
2439.502	5476
2441.47	5398
2443.438	5442
2445.406	5470
2447.373	5401
2449.34	5434
2451.305	5499
2453.271	5509
2455.235	5421
2457.201	5546
2459.165	5442
2461.129	5456
2463.092	5519
2465.054	5410
2467.018	5389
2468.978	5485
2470.939	5470
2472.899	5494
2474.86	5531
2476.819	5392
2478.778	5393
2480.737	5432
2482.695	5341
2484.653	5387
2486.609	5495
2488.567	5430
2490.524	5354
2492.478	5363
2494.433	5463
2496.387	5317
2498.343	5466
2500.297	5442
2502.249	5465
2504.202	5442
2506.153	5377
2508.105	5492
2510.057	5414
2512.008	5412
2513.957	5427
2515.906	5351
2517.855	5303
2519.805	5223
2521.754	5370
2523.7	5350
2525.647	5364
2527.594	5358
2529.54	5471
2531.486	5391
2533.431	5324
2535.376	5418
2537.32	5236
2539.263	5290
2541.207	5382
2543.151	5356
2545.093	5204
2547.034	5344
2548.975	5448
2550.917	5405
2552.856	5318
2554.796	5295
2556.735	5409
2558.673	5386
2560.611	5436
2562.55	5320
2564.487	5432
2566.424	5269
2568.36	5407
2570.296	5342
2572.232	5405
2574.167	5354
2576.101	5346
2578.035	5284
2579.969	5308
2581.902	5345
2583.834	5334
2585.766	5297
2587.698	5410
2589.628	5372
2591.557	5225
2593.489	5300
2595.419	5365
2597.348	5299
2599.275	5322
2601.204	5324
2603.131	5384
2605.059	5316
2606.986	5360
2608.911	5281
2610.837	5279
2612.76	5305
2614.687	5290
2616.61	5284
2618.534	5368
2620.457	5338
2622.38	5382
2624.302	5384
2626.225	5454
2628.145	5295
2630.067	5269
2631.986	5290
2633.906	5270
2635.827	5327
2637.745	5373
2639.662	5365
2641.581	5326
2643.498	5439
2645.415	5334
2647.331	5338
2649.248	5225
2651.163	5399
2653.077	5366
2654.993	5372
2656.906	5398
2658.821	5372
2660.733	5379
2662.646	5360
2664.557	5425
2666.47	5382
2668.381	5277
2670.291	5273
2672.201	5413
2674.11	5257
2676.021	5321
2677.929	5304
2679.837	5313
2681.745	5414
2683.652	5234
2685.56	5298
2687.466	5247
2689.371	5219
2691.276	5214
2693.181	5359
2695.085	5259
2696.991	5269
2698.893	5401
2700.796	5237
2702.698	5280
2704.601	5263
2706.502	5225
2708.404	5261
2710.304	5286
2712.203	5204
2714.103	5190
2716.003	5222
2717.902	5164
2719.8	5263
2721.697	5180
2723.594	5242
2725.49	5247
2727.389	5225
2729.283	5292
2731.179	5205
2733.073	5219
2734.968	5270
2736.863	5182
2738.757	5303
2740.649	5155
2742.541	5231
2744.433	5232
2746.324	5224
2748.216	5280
2750.107	5330
2751.997	5195
2753.886	5097
2755.776	5289
2757.666	5152
2759.553	5136
2761.44	5188
2763.327	5299
2765.215	5233
2767.102	5276
2768.988	5121
2770.873	5150
2772.757	5114
2774.641	5272
2776.525	5217
2778.41	5103
2780.292	5235
2782.175	5197
2784.057	5182
2785.938	5201
2787.821	5148
2789.701	5260
2791.581	5102
2793.461	5265
2795.34	5311
2797.219	5082
2799.099	5144
2800.975	5152
2802.853	5169
2804.73	5200
2806.606	5155
2808.484	5094
2810.358	5125
2812.233	5151
2814.108	5191
2815.981	5105
2817.857	5149
2819.73	5123
2821.602	5092
2823.474	5107
2825.346	5161
2827.217	5059
2829.089	5192
2830.959	5173
2832.829	5094
2834.698	5150
2836.567	5081
2838.436	5170
2840.305	5098
2842.172	5174
2844.04	5266
2845.905	5106
2847.772	5200
2849.639	5161
2851.503	5175
2853.369	5243
2855.232	5290
2857.096	5273
2858.961	5279
2860.824	5243
2862.686	5295
2864.547	5373
2866.41	5338
2868.272	5432
2870.132	5451
2871.992	5510
2873.851	5546
2875.711	5649
2877.57	5674
2879.429	5732
2881.287	5677
2883.144	5697
2885.001	5752
2886.857	5865
2888.714	5744
2890.57	5860
2892.425	5812
2894.279	5674
2896.133	5772
2897.987	5639
2899.842	5762
2901.694	5690
2903.547	5821
2905.397	5730
2907.249	5802
2909.101	5767
2910.952	5871
2912.802	5860
2914.652	5970
2916.5	5894
2918.35	6058
2920.198	6076
2922.045	6086
2923.893	6223
2925.74	6202
2927.585	6283
2929.433	6370
2931.279	6422
2933.123	6531
2934.968	6653
2936.811	6676
2938.656	6776
2940.5	6784
2942.342	6894
2944.185	6951
2946.026	6798
2947.87	6831
2949.71	6873
2951.549	6733
2953.39	6689
2955.229	6480
2957.069	6361
2958.908	6589
2960.746	6330
2962.584	6409
2964.421	6459
2966.257	6239
2968.094	6170
2969.931	6064
2971.766	6100
2973.601	6019
2975.435	5990
2977.27	6071
2979.105	5977
2980.938	6017
2982.77	5976
2984.602	6004
2986.434	5937
2988.267	5909
2990.097	5837
2991.927	5704
2993.757	5819
2995.587	5794
2997.417	5559
2999.246	5655
3001.074	5469
3002.902	5512
3004.729	5439
3006.556	5408
3008.384	5355
3010.21	5189
3012.036	5188
3013.861	5273
3015.684	5147
3017.51	5216
3019.334	5088
3021.157	5135
3022.981	4930
3024.802	5013
3026.624	5050
3028.448	4943
3030.267	4951
3032.088	4968
3033.909	4969
3035.728	4906
3037.549	4863
3039.368	4888
3041.186	4938
3043.004	4933
3044.821	4925
3046.64	4839
3048.455	4888
3050.272	4812
3052.087	4906
3053.903	4867
3055.717	4953
3057.534	4816
3059.347	4915
3061.16	4973
3062.974	4880
3064.785	4904
3066.598	4948
3068.411	4847
3070.222	4919
3072.032	4777
3073.844	4834
3075.653	4872
3077.463	4823
3079.272	4795
3081.08	4880
3082.889	4843
3084.697	4813
3086.505	4851
3088.312	4881
3090.118	4663
3091.924	4745
3093.729	4761
3095.535	4810
3097.34	4711
3099.144	4719
3100.947	4781
3102.75	4799
3104.553	4683
3106.357	4770
3108.159	4685
3109.961	4732
3111.762	4692
3113.562	4683
3115.365	4841
3117.164	4675
3118.964	4698
3120.761	4671
3122.56	4676
3124.36	4656
3126.158	4653
3127.954	4627
3129.75	4655
3131.547	4642
3133.343	4651
3135.139	4600
3136.934	4693
3138.729	4726
3140.522	4645
3142.317	4630
3144.11	4666
3145.904	4601
3147.695	4666
3149.488	4643
3151.28	4680
3153.07	4651
3154.863	4645
3156.652	4553
3158.441	4570
3160.231	4543
3162.019	4622
3163.81	4579
3165.597	4540
3167.384	4644
3169.172	4589
3170.958	4645
3172.745	4542
3174.532	4584
3176.317	4718
3178.101	4542
3179.885	4520
3181.67	4522
3183.455	4568
3185.238	4537
3187.02	4630
3188.802	4511
3190.585	4575
3192.368	4547
3194.149	4607
3195.929	4560
3197.709	4627
3199.489	4660
3201.268	4565
3203.048	4548
3204.826	4607
3206.604	4582
3208.382	4512
3210.159	4486
3211.937	4568
3213.713	4559
3215.489	4503
3217.263	4602
3219.038	4644
3220.815	4623
3222.589	4635
3224.363	4566
3226.136	4631
3227.908	4544
3229.681	4541
3231.454	4569
3233.226	4556
3234.996	4499
3236.767	4561
3238.538	4602
3240.308	4584
3242.078	4682
3243.847	4517
3245.615	4621
3247.384	4562
3249.15	4530
3250.92	4604
3252.686	4597
3254.453	4572
3256.218	4609
3257.984	4617
3259.75	4569
3261.515	4569
3263.279	4641
3265.044	4586
3266.806	4620
3268.57	4441
3270.334	4645
3272.095	4536
3273.856	4551
3275.619	4643
3277.379	4645
3279.14	4601
3280.9	4650
3282.661	4533
3284.419	4604
3286.178	4578
3287.937	4750
3289.695	4637
3291.453	4638
3293.21	4553
3294.967	4595
3296.723	4564
3298.48	4653
3300.235	4651
3301.99	4643
3303.744	4549
3305.498	4681
3307.253	4729
3309.006	4510
3310.759	4547
3312.511	4669
3314.263	4555
3316.017	4604
3317.768	4519
3319.519	4652
3321.268	4564
3323.018	4637
3324.767	4716
3326.518	4626
3328.267	4619
3330.014	4673
3331.762	4568
3333.509	4494
3335.258	4558
3337.003	4510
3338.75	4548
3340.496	4539
3342.24	4604
3343.987	4641
3345.732	4618
3347.475	4530
3349.219	4612
3350.961	4536
3352.705	4592
3354.448	4528
3356.19	4501
3357.931	4496
3359.672	4497
3361.412	4507
3363.155	4540
3364.894	4518
3366.633	4443
3368.372	4469
3370.11	4490
3371.849	4430
3373.588	4538
3375.325	4422
3377.061	4472
3378.799	4473
3380.534	4458
3382.271	4482
3384.006	4412
3385.741	4491
3387.475	4410
3389.209	4535
3390.944	4466
3392.677	4417
3394.409	4413
3396.143	4399
3397.874	4516
3399.606	4452
3401.338	4505
3403.069	4442
3404.799	4409
3406.528	4437
3408.258	4337
3409.988	4383
3411.717	4302
3413.445	4318
3415.173	4337
3416.899	4369
3418.626	4399
3420.354	4411
3422.08	4452
3423.806	4365
3425.531	4254
3427.255	4388
3428.981	4413
3430.705	4246
3432.429	4358
3434.151	4344
3435.875	4257
3437.599	4403
3439.321	4297
3441.042	4291
3442.763	4259
3444.483	4256
3446.204	4292
3447.926	4285
3449.645	4308
3451.364	4184
3453.082	4254
3454.801	4265
3456.52	4311
3458.238	4299
3459.954	4174
3461.671	4233
3463.387	4322
3465.104	4240
3466.82	4211
3468.534	4223
3470.25	4187
3471.963	4196
3473.676	4104
3475.392	4228
3477.104	4194
3478.817	4158
3480.528	4246
3482.241	4109
3483.954	4153
3485.664	4204
3487.374	4127
3489.084	4240
3490.795	4162
3492.504	4109
3494.214	4202
3495.922	4029
3497.63	4133
3499.338	4096
3501.045	4040
3502.753	4039
3504.459	4063
3506.166	4119
3507.871	4060
3509.576	4064
3511.283	4138
3512.987	4068
3514.691	4061
3516.395	4083
3518.098	4019
3519.8	4043
3521.504	4062
3523.206	3939
3524.908	4046
3526.609	3995
3528.309	3968
3530.011	3968
3531.711	3953
3533.411	3993
3535.109	3882
3536.808	3988
3538.507	3976
3540.206	3947
3541.904	3900
3543.601	4001
3545.297	3957
3546.994	3972
3548.69	3910
3550.387	3956
3552.081	3876
3553.776	3916
3555.47	3930
3557.166	4058
3558.859	3887
3560.553	3866
3562.245	3955
3563.938	3932
3565.629	3876
3567.322	3948
3569.014	3859
3570.704	3962
3572.394	3893
3574.084	3831
3575.775	3895
3577.464	3897
3579.152	3872
3580.842	3873
3582.529	3925
3584.216	3865
3585.905	3874
3587.591	3909
3589.279	3837
3590.964	3827
3592.649	3741
3594.336	3891
3596.021	3852
3597.705	3836
3599.388	3804
3601.072	3783
3602.757	3830
3604.439	3755
3606.122	3761
3607.803	3780
3609.485	3798
3611.167	3716
3612.849	3794
3614.529	3660
3616.208	3727
3617.888	3744
3619.567	3718
3621.247	3732
3622.926	3663
3624.603	3742
3626.281	3692
3627.958	3665
3629.635	3703
3631.312	3676
3632.989	3706
3634.665	3642
3636.339	3677
3638.014	3605
3639.691	3573
3641.364	3701
3643.038	3723
3644.71	3567
3646.384	3651
3648.058	3583
3649.729	3578
3651.402	3518
3653.073	3555
3654.744	3585
3656.414	3655
3658.085	3653
3659.755	3620
3661.424	3581
3663.094	3614
3664.762	3652
3666.431	3578
3668.099	3618
3669.766	3689
3671.433	3569
3673.099	3520
3674.768	3530
3676.433	3571
3678.098	3546
3679.763	3538
3681.428	3577
3683.093	3572
3684.757	3504
3686.421	3583
3688.083	3440
3689.746	3530
3691.408	3562
3693.071	3511
3694.733	3579
3696.394	3480
3698.054	3519
3699.715	3533
3701.375	3399
3703.036	3463
3704.695	3457
3706.354	3599
3708.012	3538
3709.67	3456
3711.329	3462
3712.987	3561
3714.644	3505
3716.299	3509
3717.955	3481
3719.613	3367
3721.268	3498
3722.923	3510
3724.577	3321
3726.231	3575
3727.885	3543
3729.539	3476
3731.192	3507
3732.845	3391
3734.497	3498
3736.149	3463
3737.802	3510
3739.453	3489
3741.104	3399
3742.753	3469
3744.404	3508
3746.052	3414
3747.704	3437
3749.352	3423
3751	3352
3752.648	3476
3754.296	3414
3755.944	3402
3757.59	3390
3759.238	3347
3760.883	3414
3762.528	3401
3764.176	3299
3765.82	3311
3767.464	3441
3769.109	3428
3770.753	3456
3772.396	3278
3774.04	3458
3775.683	3331
3777.325	3382
3778.967	3338
3780.608	3375
3782.25	3369
3783.89	3386
3785.531	3250
3787.17	3335
3788.81	3345
3790.45	3330
3792.09	3362
3793.729	3239
3795.366	3417
3797.003	3264
3798.64	3401
3800.278	3347
3801.915	3354
3803.551	3365
3805.187	3327
3806.822	3271
3808.458	3354
3810.093	3339
3811.726	3218
3813.36	3319
3814.994	3240
3816.627	3355
3818.262	3302
3819.893	3298
3821.525	3259
3823.157	3244
3824.787	3387
3826.42	3306
3828.051	3287
3829.68	3307
3831.31	3274
3832.938	3245
3834.569	3235
3836.198	3253
3837.825	3299
3839.454	3281
3841.08	3198
3842.708	3284
3844.335	3184
3845.962	3346
3847.587	3252
3849.212	3250
3850.838	3244
3852.463	3280
3854.089	3202
3855.712	3252
3857.335	3283
3858.959	3242
3860.582	3260
3862.205	3194
3863.827	3149
3865.449	3237
3867.07	3196
3868.691	3251
3870.312	3275
3871.933	3221
3873.553	3169
3875.173	3203
3876.792	3176
3878.411	3215
3880.03	3229
3881.647	3217
3883.265	3254
3884.882	3142
3886.499	3221
3888.116	3250
3889.732	3146
3891.348	3155
3892.964	3116
3894.579	3138
3896.195	3192
3897.809	3232
3899.423	3176
3901.036	3083
3902.648	3130
3904.261	3182
3905.875	3217
3907.487	3172
3909.099	3103
3910.709	3211
3912.321	3216
3913.933	3147
3915.542	3162
3917.152	3202
3918.762	3124
3920.37	3100
3921.98	3185
3923.589	3096
3925.196	3119
3926.804	3175
3928.41	3177
3930.018	3159
3931.626	3159
3933.231	3136
3934.838	3198
3936.442	3060
3938.046	3190
3939.653	3170
3941.257	3143
3942.861	3160
3944.464	3126
3946.068	3098
3947.67	3085
3949.273	3118
3950.876	3112
3952.477	3120
3954.078	3155
3955.678	3137
3957.281	3083
3958.881	3134
3960.48	3103
3962.079	3076
3963.678	3095
3965.279	3112
3966.877	3024
3968.475	3113
3970.072	3058
3971.669	3047
3973.266	3072
3974.864	3134
3976.459	3103
3978.055	3091
3979.65	2994
3981.245	3062
3982.841	3013
3984.436	3041
3986.03	2965
3987.623	3008
3989.216	3114
3990.809	3074
3992.403	3057
3993.995	3021
3995.586	2995
3997.177	3022
3998.768	3019
4000.361	3004
4001.951	3063
4003.54	2947
4005.13	2981
4006.719	2955
4008.31	3045
4009.897	3060
4011.485	2993
4013.073	3016
4014.66	2969
4016.247	2954
4017.834	3004
4019.421	2941
4021.006	2998
4022.592	2990
4024.178	2983
4025.763	2975
4027.348	2946
4028.932	2964
4030.515	3009
4032.099	2928
4033.682	2878
4035.266	2972
4036.847	2930
4038.429	2988
4040.011	2955
4041.592	2910
4043.173	2920
4044.755	2860
4046.334	2954
4047.913	2894
4049.494	2916
4051.074	2930
4052.652	2895
4054.23	2849
4055.807	2976
4057.385	2901
4058.963	2882
4060.541	2931
4062.117	2838
4063.693	2925
4065.269	2852
4066.844	2908
4068.42	2816
4069.995	2921
4071.569	2944
4073.143	2949
4074.716	2889
4076.291	2846
4077.864	2840
4079.436	2883
4081.009	2886
4082.58	2892
4084.152	2871
4085.723	2915
4087.294	2836
4088.865	2842
4090.435	2897
4092.005	2888
4093.574	2775
4095.143	2850
4096.712	2843
4098.279	2800
4099.848	2803
4101.416	2856
4102.984	2772
4104.55	2783
4106.117	2908
4107.682	2805
4109.248	2806
4110.815	2807
4112.379	2865
4113.945	2882
4115.508	2862
4117.073	2843
4118.637	2778
4120.201	2778
4121.763	2839
4123.325	2751
4124.888	2847
4126.449	2825
4128.013	2718
4129.573	2765
4131.133	2797
4132.694	2759
4134.254	2771
4135.814	2807
4137.374	2724
4138.933	2742
4140.491	2787
4142.049	2794
4143.607	2743
4145.167	2690
4146.724	2715
4148.28	2705
4149.836	2724
4151.392	2678
4152.949	2775
4154.504	2744
4156.059	2684
4157.614	2781
4159.168	2719
4160.723	2810
4162.277	2695
4163.83	2726
4165.383	2727
4166.936	2835
4168.488	2655
4170.041	2732
4171.593	2709
4173.144	2721
4174.695	2746
4176.246	2671
4177.796	2727
4179.346	2736
4180.896	2679
4182.445	2673
4183.994	2710
4185.542	2665
4187.091	2704
4188.639	2639
4190.185	2751
4191.732	2634
4193.279	2675
4194.826	2620
4196.373	2689
4197.918	2674
4199.463	2647
4201.008	2629
4202.553	2558
4204.098	2662
4205.641	2618
4207.185	2681
4208.728	2637
4210.271	2664
4211.814	2672
4213.357	2641
4214.898	2648
4216.439	2653
4217.98	2625
4219.522	2669
4221.062	2676
4222.603	2617
4224.142	2624
4225.681	2559
4227.222	2666
4228.76	2599
4230.298	2635
4231.835	2647
4233.373	2531
4234.911	2666
4236.449	2540
4237.985	2600
4239.521	2654
4241.057	2638
4242.592	2651
4244.128	2561
4245.663	2649
4247.197	2604
4248.731	2631
4250.265	2685
4251.798	2616
4253.333	2621
4254.865	2588
4256.397	2582
4257.93	2614
4259.461	2524
4260.994	2644
4262.525	2589
4264.056	2534
4265.586	2578
4267.115	2602
4268.646	2544
4270.176	2593
4271.705	2579
4273.232	2561
4274.761	2524
4276.289	2605
4277.818	2599
4279.345	2542
4280.872	2629
4282.399	2532
4283.924	2551
4285.452	2559
4286.976	2558
4288.502	2532
4290.026	2568
4291.551	2593
4293.074	2568
4294.6	2583
4296.123	2549
4297.646	2530
4299.168	2549
4300.691	2549
4302.214	2498
4303.736	2539
4305.257	2508
4306.778	2566
4308.299	2517
4309.82	2532
4311.34	2551
4312.86	2503
4314.379	2499
