400.0745	4018
402.597	4020
405.1208	4105
407.6419	4078
410.1623	4146
412.6819	4105
415.201	4151
417.7172	4179
420.2369	4191
422.7538	4213
425.2701	4254
427.7856	4213
430.3005	4308
432.8147	4279
435.3282	4371
437.841	4337
440.3511	4285
442.8625	4241
445.3753	4372
447.8854	4263
450.3927	4344
452.9014	4311
455.4073	4272
457.9146	4357
460.4233	4404
462.9272	4369
465.4325	4313
467.935	4476
470.4389	4423
472.9421	4416
475.4446	4373
477.9444	4306
480.4456	4428
482.944	4474
485.4417	4424
487.9429	4387
490.4393	4538
492.935	4496
495.4321	4405
497.9264	4490
500.4221	4532
502.9171	4582
505.4094	4532
507.9011	4500
510.392	4423
512.8864	4552
515.3759	4462
517.8649	4507
520.3531	4559
522.8406	4540
525.3275	4716
527.8178	4545
530.3033	4536
532.7881	4589
535.2723	4630
537.7558	4564
540.2407	4517
542.7228	4577
545.2043	4507
547.6851	4594
550.1652	4574
552.6467	4609
555.1255	4631
557.6016	4498
560.079	4620
562.5557	4599
565.0318	4638
567.5092	4600
569.984	4598
572.456	4672
574.9294	4640
577.4022	4704
579.8762	4698
582.3456	4731
584.8163	4680
587.2863	4733
589.7557	4699
592.2224	4737
594.6924	4617
597.1578	4697
599.6245	4772
602.0905	4686
604.5538	4650
607.0206	4790
609.4825	4813
611.9459	4699
614.4066	4758
616.8686	4707
619.33	4740
621.7906	4665
624.2487	4633
626.708	4710
629.1647	4687
631.6207	4744
634.0801	4640
636.5348	4719
638.9888	4685
641.4442	4653
643.8969	4720
646.3509	4753
648.8022	4728
651.255	4778
653.705	4748
656.1544	4760
658.6031	4811
661.0532	4805
663.5026	4839
665.9493	4891
668.3954	4852
670.8409	4839
673.2877	4866
675.7318	4819
678.1752	4885
680.618	4945
683.0601	4925
685.5035	4894
687.9444	4828
690.3845	4870
692.824	4938
695.2628	4928
697.701	4848
700.1406	4947
702.5774	4999
705.0116	5009
707.4472	4896
709.8821	5042
712.3183	5102
714.7519	4940
717.1829	4967
719.6151	5033
722.0468	5015
724.4777	4985
726.908	4998
729.3377	5028
731.7667	5036
734.1931	5032
736.6208	5023
739.0498	5060
741.4742	5119
743.9	5081
746.3231	5239
748.7476	5119
751.1713	5199
753.5945	5152
756.015	5090
758.4368	5187
760.856	5237
763.2766	5171
765.6965	5231
768.1157	5294
770.5323	5194
772.9483	5259
775.3656	5251
777.7822	5236
780.1963	5236
782.6116	5195
785.0244	5341
787.4365	5213
789.8499	5260
792.2626	5314
794.6728	5291
797.0823	5326
799.4911	5211
801.8994	5252
804.3109	5295
806.7178	5360
809.124	5397
811.5297	5281
813.9347	5353
816.341	5366
818.7447	5407
821.1478	5300
823.5502	5385
825.952	5288
828.3531	5268
830.7556	5271
833.1554	5314
835.5546	5359
837.9532	5394
840.3511	5291
842.7504	5344
845.1451	5443
847.5411	5445
849.9365	5419
852.3312	5476
854.7272	5411
857.1187	5462
859.5115	5523
861.9037	5510
864.2952	5523
866.6842	5360
869.0764	5520
871.4661	5393
873.8531	5370
876.2415	5429
878.6272	5366
881.0162	5409
883.4026	5467
885.7866	5408
888.1717	5387
890.5543	5446
892.9382	5358
895.3215	5435
897.7041	5415
900.0842	5476
902.4655	5476
904.8443	5384
907.2244	5492
909.6039	5456
911.9808	5441
914.357	5474
916.7346	5416
919.1115	5479
921.4859	5609
923.8616	5656
926.2347	5594
928.6071	5608
930.979	5679
933.3541	5752
935.7247	5716
938.0946	5688
940.4639	5743
942.8326	5681
945.2026	5705
947.5701	5747
949.9369	5902
952.305	5971
954.6705	6093
957.0355	6235
959.4017	6401
961.7654	6515
964.1284	6567
966.4908	6468
968.8527	6224
971.2138	6173
973.5743	5922
975.9343	5803
978.2936	5651
980.6522	5706
983.0122	5657
985.3696	5634
987.7245	5705
990.0807	5548
992.4362	5622
994.7911	5526
997.1474	5543
999.4991	5660
1001.852	5739
1004.205	5709
1006.555	5662
1008.908	5729
1011.258	5647
1013.606	5595
1015.956	5650
1018.302	5697
1020.652	5695
1022.998	5599
1025.345	5570
1027.691	5722
1030.035	5662
1032.378	5805
1034.724	5725
1037.066	5768
1039.409	5785
1041.75	5673
1044.092	5757
1046.433	5686
1048.771	5869
1051.112	5749
1053.449	5576
1055.786	5681
1058.124	5787
1060.462	5707
1062.797	5736
1065.131	5894
1067.467	5857
1069.8	5808
1072.135	5730
1074.467	5846
1076.798	5855
1079.129	5749
1081.459	5707
1083.792	5829
1086.121	5759
1088.449	5730
1090.777	5682
1093.104	5705
1095.431	5813
1097.759	5659
1100.084	5714
1102.408	5771
1104.732	5802
1107.056	5860
1109.379	5774
1111.701	5734
1114.022	5756
1116.343	5899
1118.664	5775
1120.983	5843
1123.303	5773
1125.621	5821
1127.939	5811
1130.256	5726
1132.573	5699
1134.889	5858
1137.205	5785
1139.52	5749
1141.832	5822
1144.146	5750
1146.461	5823
1148.771	5804
1151.083	5832
1153.392	5793
1155.703	5790
1158.011	5867
1160.323	5830
1162.629	5823
1164.938	5804
1167.243	5886
1169.55	5796
1171.857	5886
1174.163	5765
1176.466	5767
1178.769	5821
1181.073	5962
1183.374	5856
1185.677	5904
1187.979	5825
1190.279	5787
1192.578	5982
1194.878	5798
1197.178	5876
1199.476	5835
1201.772	5885
1204.068	5807
1206.366	5823
1208.663	5856
1210.957	5802
1213.251	5875
1215.544	5816
1217.836	5767
1220.128	5877
1222.421	5789
1224.712	6017
1227.002	5914
1229.292	5868
1231.581	6038
1233.871	5914
1236.159	5940
1238.446	5960
1240.732	6076
1243.018	6010
1245.304	6048
1247.59	6092
1249.874	6119
1252.156	6131
1254.439	6094
1256.721	5958
1259.005	6054
1261.286	6053
1263.565	6088
1265.845	6027
1268.125	6034
1270.403	5983
1272.682	5890
1274.959	6053
1277.234	5972
1279.511	6075
1281.787	6028
1284.062	5975
1286.337	6036
1288.609	5961
1290.882	5891
1293.153	5923
1295.428	5948
1297.698	5990
1299.969	6003
1302.237	5977
1304.507	5894
1306.777	5920
1309.044	5881
1311.312	5960
1313.578	5995
1315.844	5948
1318.109	6067
1320.375	5901
1322.638	6004
1324.903	6007
1327.165	5881
1329.427	6067
1331.69	6055
1333.952	5960
1336.212	6069
1338.471	6005
1340.73	6018
1342.988	6124
1345.248	5933
1347.505	5972
1349.763	5945
1352.019	5989
1354.274	5883
1356.53	5968
1358.784	5857
1361.038	5918
1363.291	5884
1365.543	5901
1367.797	6129
1370.048	5840
1372.296	5984
1374.546	5968
1376.796	5880
1379.045	5987
1381.295	6127
1383.542	5939
1385.787	6041
1388.034	6089
1390.28	6116
1392.527	5939
1394.772	6079
1397.014	6113
1399.258	6128
1401.501	6083
1403.741	6022
1405.985	6008
1408.226	6034
1410.465	6012
1412.705	6209
1414.943	6160
1417.184	6021
1419.42	6148
1421.658	6047
1423.894	6153
1426.13	6225
1428.366	6075
1430.602	6016
1432.835	6166
1435.069	6075
1437.301	6260
1439.535	6113
1441.767	6178
1443.997	6187
1446.229	6285
1448.458	6260
1450.687	6244
1452.916	6254
1455.146	6154
1457.372	6098
1459.599	6183
1461.824	6194
1464.051	6263
1466.277	6242
1468.501	6203
1470.725	6216
1472.948	6126
1475.17	6270
1477.393	6097
1479.614	6020
1481.837	6062
1484.057	5941
1486.276	5990
1488.497	6065
1490.715	6027
1492.932	5974
1495.148	5972
1497.364	5975
1499.58	6038
1501.798	5965
1504.012	5989
1506.227	5968
1508.44	5956
1510.653	6055
1512.866	5998
1515.078	5916
1517.289	5905
1519.5	5962
1521.711	6026
1523.92	5981
1526.13	6052
1528.338	5972
1530.544	5860
1532.752	5967
1534.959	6008
1537.165	5927
1539.371	5986
1541.574	6059
1543.779	6053
1545.983	5915
1548.187	6030
1550.39	6099
1552.59	5961
1554.792	6069
1556.991	5997
1559.19	6128
1561.392	6047
1563.59	6057
1565.789	6064
1567.986	6084
1570.182	6122
1572.381	5899
1574.576	6027
1576.771	6090
1578.966	6169
1581.16	6180
1583.354	6241
1585.546	6088
1587.74	6119
1589.931	6059
1592.121	6168
1594.311	6165
1596.502	6208
1598.693	6173
1600.881	6238
1603.069	6114
1605.256	6127
1607.445	6154
1609.631	6258
1611.816	6187
1614.001	6156
1616.186	6191
1618.37	6153
1620.555	6152
1622.737	6140
1624.919	6170
1627.101	6226
1629.282	6239
1631.463	6252
1633.643	6250
1635.822	6243
1638.001	6213
1640.179	6253
1642.359	6206
1644.534	6394
1646.711	6264
1648.887	6208
1651.062	6189
1653.235	6170
1655.412	6342
1657.586	6243
1659.757	6420
1661.93	6179
1664.1	6373
1666.274	6364
1668.445	6419
1670.614	6310
1672.784	6247
1674.951	6323
1677.12	6277
1679.289	6274
1681.457	6318
1683.622	6223
1685.789	6278
1687.953	6208
1690.121	6408
1692.284	6119
1694.447	6231
1696.611	6212
1698.772	6372
1700.935	6204
1703.098	6254
1705.258	6188
1707.417	6150
1709.576	6127
1711.736	6065
1713.896	6270
1716.053	6211
1718.21	6168
1720.366	6036
1722.522	6226
1724.68	6182
1726.835	6251
1728.989	6053
1731.142	6209
1733.295	6139
1735.449	6177
1737.601	6192
1739.753	6204
1741.903	6100
1744.054	6103
1746.203	6142
1748.354	6123
1750.503	6085
1752.651	6165
1754.798	6158
1756.944	6192
1759.092	6211
1761.238	6245
1763.383	6122
1765.528	6319
1767.672	6194
1769.814	6131
1771.959	6208
1774.102	6179
1776.242	6279
1778.384	6191
1780.525	6175
1782.665	6183
1784.805	6217
1786.945	6218
1789.082	6283
1791.22	6219
1793.36	6265
1795.495	6218
1797.632	6199
1799.766	6227
1801.902	6273
1804.035	6303
1806.172	6270
1808.304	6249
1810.436	6253
1812.569	6127
1814.699	6256
1816.833	6207
1818.963	6228
1821.092	6205
1823.222	6276
1825.35	6280
1827.478	6275
1829.608	6179
1831.734	6210
1833.86	6229
1835.986	6226
1838.11	6145
1840.238	6165
1842.362	6227
1844.485	6226
1846.608	6291
1848.73	6120
1850.853	6144
1852.974	6115
1855.097	6229
1857.217	6147
1859.336	6120
1861.455	6081
1863.576	6201
1865.693	6084
1867.811	6159
1869.926	6158
1872.042	6165
1874.16	6119
1876.275	6197
1878.39	6092
1880.504	6180
1882.618	6202
1884.731	6138
1886.843	6214
1888.956	6181
1891.067	6118
1893.178	6145
1895.287	6173
1897.399	6153
1899.508	6227
1901.617	6258
1903.724	6095
1905.832	6255
1907.941	6182
1910.046	6095
1912.152	6133
1914.256	6208
1916.361	6187
1918.464	6279
1920.57	6239
1922.672	6309
1924.775	6304
1926.876	6304
1928.978	6291
1931.08	6213
1933.181	6370
1935.28	6246
1937.38	6244
1939.478	6367
1941.577	6233
1943.675	6316
1945.771	6280
1947.867	6208
1949.964	6198
1952.058	6324
1954.154	6207
1956.248	6223
1958.343	6277
1960.435	6258
1962.527	6290
1964.62	6365
1966.711	6294
1968.802	6203
1970.892	6244
1972.983	6292
1975.072	6298
1977.162	6195
1979.25	6278
1981.337	6234
1983.424	6146
1985.51	6279
1987.598	6208
1989.683	6212
1991.768	6298
1993.852	6294
1995.934	6093
1998.019	6208
2000.102	6295
2002.184	6248
2004.266	6253
2006.347	6186
2008.427	6242
2010.508	6223
2012.587	6192
2014.666	6115
2016.745	6045
2018.821	6297
2020.9	6156
2022.977	6244
2025.052	6214
2027.128	6257
2029.204	6046
2031.277	6193
2033.353	6109
2035.425	6194
2037.499	6119
2039.57	6171
2041.642	6191
2043.714	6221
2045.786	6129
2047.855	6135
2049.925	6146
2051.993	6294
2054.064	6227
2056.132	6225
2058.2	6142
2060.266	6208
2062.332	6227
2064.398	6217
2066.465	6190
2068.529	6168
2070.592	6216
2072.657	6246
2074.719	6134
2076.783	6221
2078.845	6311
2080.907	6246
2082.968	6228
2085.028	6277
2087.087	6149
2089.148	6267
2091.207	6234
2093.264	6199
2095.322	6251
2097.379	6173
2099.439	6270
2101.495	6255
2103.55	6220
2105.605	6311
2107.658	6210
2109.713	6255
2111.767	6268
2113.82	6229
2115.872	6210
2117.924	6253
2119.975	6252
2122.028	6194
2124.078	6201
2126.126	6147
2128.176	6200
2130.225	6133
2132.275	6156
2134.321	6219
2136.368	6190
2138.415	6235
2140.461	6129
2142.505	6157
2144.552	6188
2146.597	6223
2148.64	6052
2150.684	6120
2152.725	6214
2154.77	6109
2156.811	6182
2158.852	6214
2160.894	6105
2162.933	6165
2164.973	6185
2167.013	6221
2169.051	6162
2171.089	6166
2173.126	6100
2175.164	6168
2177.201	6110
2179.236	6058
2181.273	6133
2183.307	6287
2185.341	6160
2187.377	6087
2189.41	6014
2191.442	6011
2193.473	6069
2195.506	6054
2197.539	6143
2199.569	6010
2201.598	6117
2203.628	6048
2205.656	6041
2207.686	6064
2209.716	6001
2211.743	6041
2213.769	6069
2215.796	6008
2217.821	6054
2219.848	5908
2221.873	5942
2223.897	6007
2225.921	6019
2227.944	6007
2229.967	5990
2231.991	6013
2234.011	6029
2236.032	6057
2238.053	6011
2240.073	6132
2242.094	6009
2244.114	6021
2246.131	6011
2248.149	6064
2250.167	6092
2252.186	5995
2254.201	5955
2256.218	6051
2258.233	5970
2260.247	6147
2262.262	5960
2264.278	6068
2266.29	6006
2268.303	6023
2270.315	6053
2272.327	5915
2274.341	6031
2276.35	6051
2278.361	6054
2280.37	6013
2282.38	6019
2284.388	6062
2286.397	6046
2288.405	6059
2290.412	6012
2292.419	5971
2294.425	5867
2296.431	6127
2298.437	6060
2300.441	6042
2302.445	6078
2304.449	5995
2306.453	5980
2308.455	6032
2310.457	5943
2312.459	6023
2314.46	6127
2316.46	6029
2318.461	5873
2320.46	5966
2322.458	5988
2324.458	6067
2326.456	5915
2328.455	5973
2330.451	6026
2332.447	5931
2334.443	6006
2336.438	5947
2338.433	5901
2340.429	5955
2342.422	5980
2344.416	5864
2346.408	5963
2348.399	5875
2350.393	5876
2352.384	5873
2354.375	5916
2356.365	5914
2358.355	5797
2360.344	5877
2362.333	5868
2364.322	5822
2366.309	5966
2368.295	5758
2370.282	5878
2372.27	5880
2374.256	5915
2376.24	5904
2378.225	5807
2380.208	5781
2382.194	5835
2384.177	5821
2386.159	5788
2388.142	5938
2390.122	5695
2392.105	5935
2394.085	5830
2396.066	5873
2398.044	5777
2400.024	5841
2402.002	5779
2403.982	5757
2405.959	5735
2407.935	5795
2409.913	5730
2411.888	5823
2413.865	5801
2415.84	5840
2417.814	5769
2419.788	5809
2421.762	5828
2423.735	5855
2425.708	5859
2427.68	5794
2429.651	5905
2431.623	5673
2433.593	5854
2435.564	5875
2437.533	5871
2439.502	5732
2441.47	5858
2443.438	5808
2445.406	5883
2447.373	5786
2449.34	5783
2451.305	5831
2453.271	5765
2455.235	5741
2457.201	5787
2459.165	5707
2461.129	5757
2463.092	5739
2465.054	5742
2467.018	5831
2468.978	5718
2470.939	5738
2472.899	5784
2474.86	5681
2476.819	5690
2478.778	5684
2480.737	5820
2482.695	5763
2484.653	5673
2486.609	5719
2488.567	5744
2490.524	5709
2492.478	5669
2494.433	5671
2496.387	5685
2498.343	5658
2500.297	5686
2502.249	5661
2504.202	5698
2506.153	5688
2508.105	5788
2510.057	5681
2512.008	5663
2513.957	5748
2515.906	5661
2517.855	5723
2519.805	5645
2521.754	5591
2523.7	5709
2525.647	5695
2527.594	5724
2529.54	5777
2531.486	5667
2533.431	5602
2535.376	5590
2537.32	5633
2539.263	5609
2541.207	5574
2543.151	5539
2545.093	5554
2547.034	5594
2548.975	5631
2550.917	5680
2552.856	5578
2554.796	5605
2556.735	5699
2558.673	5700
2560.611	5663
2562.55	5551
2564.487	5580
2566.424	5662
2568.36	5583
2570.296	5614
2572.232	5575
2574.167	5600
2576.101	5661
2578.035	5677
2579.969	5629
2581.902	5605
2583.834	5661
2585.766	5703
2587.698	5593
2589.628	5749
2591.557	5555
2593.489	5652
2595.419	5754
2597.348	5522
2599.275	5704
2601.204	5706
2603.131	5647
2605.059	5644
2606.986	5658
2608.911	5652
2610.837	5655
2612.76	5628
2614.687	5744
2616.61	5501
2618.534	5756
2620.457	5802
2622.38	5684
2624.302	5597
2626.225	5687
2628.145	5631
2630.067	5743
2631.986	5660
2633.906	5558
2635.827	5573
2637.745	5661
2639.662	5593
2641.581	5660
2643.498	5661
2645.415	5615
2647.331	5790
2649.248	5678
2651.163	5668
2653.077	5572
2654.993	5623
2656.906	5610
2658.821	5762
2660.733	5663
2662.646	5771
2664.557	5591
2666.47	5578
2668.381	5562
2670.291	5577
2672.201	5562
2674.11	5607
2676.021	5522
2677.929	5640
2679.837	5514
2681.745	5564
2683.652	5651
2685.56	5544
2687.466	5564
2689.371	5657
2691.276	5569
2693.181	5593
2695.085	5619
2696.991	5595
2698.893	5664
2700.796	5538
2702.698	5604
2704.601	5572
2706.502	5641
2708.404	5457
2710.304	5536
2712.203	5425
2714.103	5564
2716.003	5478
2717.902	5456
2719.8	5504
2721.697	5571
2723.594	5406
2725.49	5432
2727.389	5445
2729.283	5517
2731.179	5582
2733.073	5491
2734.968	5386
2736.863	5503
2738.757	5514
2740.649	5449
2742.541	5544
2744.433	5449
2746.324	5481
2748.216	5504
2750.107	5460
2751.997	5516
2753.886	5398
2755.776	5520
2757.666	5536
2759.553	5350
2761.44	5445
2763.327	5386
2765.215	5436
2767.102	5498
2768.988	5351
2770.873	5335
2772.757	5449
2774.641	5428
2776.525	5453
2778.41	5448
2780.292	5305
2782.175	5469
2784.057	5385
2785.938	5377
2787.821	5372
2789.701	5500
2791.581	5445
2793.461	5437
2795.34	5433
2797.219	5427
2799.099	5273
2800.975	5409
2802.853	5332
2804.73	5397
2806.606	5410
2808.484	5363
2810.358	5340
2812.233	5444
2814.108	5315
2815.981	5497
2817.857	5348
2819.73	5337
2821.602	5484
2823.474	5326
2825.346	5402
2827.217	5347
2829.089	5347
2830.959	5303
2832.829	5311
2834.698	5345
2836.567	5404
2838.436	5368
2840.305	5354
2842.172	5375
2844.04	5441
2845.905	5311
2847.772	5452
2849.639	5393
2851.503	5442
2853.369	5516
2855.232	5484
2857.096	5416
2858.961	5425
2860.824	5475
2862.686	5469
2864.547	5515
2866.41	5525
2868.272	5462
2870.132	5496
2871.992	5672
2873.851	5647
2875.711	5547
2877.57	5654
2879.429	5660
2881.287	5724
2883.144	5689
2885.001	5694
2886.857	5727
2888.714	5725
2890.57	5668
2892.425	5720
2894.279	5617
2896.133	5829
2897.987	5699
2899.842	5699
2901.694	5688
2903.547	5783
2905.397	5750
2907.249	5780
2909.101	5723
2910.952	5675
2912.802	5835
2914.652	5792
2916.5	5810
2918.35	5918
2920.198	5924
2922.045	5964
2923.893	5877
2925.74	5999
2927.585	6004
2929.433	5994
2931.279	6048
2933.123	6137
2934.968	6115
2936.811	6249
2938.656	6244
2940.5	6154
2942.342	6292
2944.185	6291
2946.026	6400
2947.87	6378
2949.71	6228
2951.549	6246
2953.39	6193
2955.229	6230
2957.069	6069
2958.908	6164
2960.746	6123
2962.584	5975
2964.421	6047
2966.257	5984
2968.094	5931
2969.931	5866
2971.766	5859
2973.601	5793
2975.435	5805
2977.27	5792
2979.105	5747
2980.938	5736
2982.77	5812
2984.602	5533
2986.434	5711
2988.267	5677
2990.097	5584
2991.927	5613
2993.757	5549
2995.587	5518
2997.417	5528
2999.246	5521
3001.074	5430
3002.902	5476
3004.729	5310
3006.556	5342
3008.384	5282
3010.21	5211
3012.036	5195
3013.861	5210
3015.684	5196
3017.51	5214
3019.334	5145
3021.157	5141
3022.981	5173
3024.802	5103
3026.624	5156
3028.448	5033
3030.267	5050
3032.088	5094
3033.909	5089
3035.728	5042
3037.549	5042
3039.368	5122
3041.186	5060
3043.004	5068
3044.821	5092
3046.64	5077
3048.455	5101
3050.272	4976
3052.087	4929
3053.903	4987
3055.717	4921
3057.534	4996
3059.347	4995
3061.16	5071
3062.974	5025
3064.785	4990
3066.598	4969
3068.411	5015
3070.222	4941
3072.032	4970
3073.844	4959
3075.653	4991
3077.463	5043
3079.272	4904
3081.08	4901
3082.889	4966
3084.697	4827
3086.505	4979
3088.312	4889
3090.118	4965
3091.924	4892
3093.729	4909
3095.535	4929
3097.34	4918
3099.144	4811
3100.947	4889
3102.75	4817
3104.553	4788
3106.357	4788
3108.159	4759
3109.961	4774
3111.762	4863
3113.562	4730
3115.365	4833
3117.164	4895
3118.964	4781
3120.761	4743
3122.56	4860
3124.36	4757
3126.158	4643
3127.954	4747
3129.75	4752
3131.547	4804
3133.343	4827
3135.139	4707
3136.934	4905
3138.729	4761
3140.522	4709
3142.317	4773
3144.11	4658
3145.904	4804
3147.695	4732
3149.488	4701
3151.28	4703
3153.07	4766
3154.863	4693
3156.652	4715
3158.441	4749
3160.231	4682
3162.019	4750
3163.81	4718
3165.597	4629
3167.384	4664
3169.172	4709
3170.958	4716
3172.745	4712
3174.532	4737
3176.317	4667
3178.101	4711
3179.885	4564
3181.67	4647
3183.455	4649
3185.238	4602
3187.02	4601
3188.802	4651
3190.585	4656
3192.368	4685
3194.149	4621
3195.929	4623
3197.709	4708
3199.489	4636
3201.268	4624
3203.048	4599
3204.826	4711
3206.604	4633
3208.382	4597
3210.159	4661
3211.937	4647
3213.713	4629
3215.489	4594
3217.263	4597
3219.038	4648
3220.815	4627
3222.589	4647
3224.363	4608
3226.136	4578
3227.908	4584
3229.681	4629
3231.454	4569
3233.226	4619
3234.996	4571
3236.767	4572
3238.538	4481
3240.308	4548
3242.078	4582
3243.847	4598
3245.615	4679
3247.384	4605
3249.15	4655
3250.92	4591
3252.686	4637
3254.453	4568
3256.218	4654
3257.984	4576
3259.75	4617
3261.515	4567
3263.279	4574
3265.044	4582
3266.806	4482
3268.57	4547
3270.334	4646
3272.095	4548
3273.856	4566
3275.619	4606
3277.379	4560
3279.14	4610
3280.9	4649
3282.661	4656
3284.419	4597
3286.178	4575
3287.937	4555
3289.695	4596
3291.453	4665
3293.21	4615
3294.967	4569
3296.723	4498
3298.48	4610
3300.235	4604
3301.99	4583
3303.744	4579
3305.498	4617
3307.253	4595
3309.006	4546
3310.759	4566
3312.511	4558
3314.263	4630
3316.017	4682
3317.768	4519
3319.519	4527
3321.268	4559
3323.018	4570
3324.767	4588
3326.518	4560
3328.267	4493
3330.014	4627
3331.762	4486
3333.509	4499
3335.258	4516
3337.003	4548
3338.75	4497
3340.496	4432
3342.24	4556
3343.987	4581
3345.732	4498
3347.475	4503
3349.219	4537
3350.961	4522
3352.705	4541
3354.448	4553
3356.19	4506
3357.931	4483
3359.672	4576
3361.412	4438
3363.155	4448
3364.894	4403
3366.633	4540
3368.372	4423
3370.11	4534
3371.849	4431
3373.588	4459
3375.325	4398
3377.061	4397
3378.799	4483
3380.534	4425
3382.271	4493
3384.006	4369
3385.741	4433
3387.475	4454
3389.209	4275
3390.944	4355
3392.677	4538
3394.409	4354
3396.143	4524
3397.874	4388
3399.606	4328
3401.338	4331
3403.069	4384
3404.799	4289
3406.528	4403
3408.258	4338
3409.988	4424
3411.717	4375
3413.445	4358
3415.173	4367
3416.899	4383
3418.626	4404
3420.354	4288
3422.08	4351
3423.806	4290
3425.531	4267
3427.255	4302
3428.981	4374
3430.705	4273
3432.429	4343
3434.151	4313
3435.875	4304
3437.599	4364
3439.321	4262
3441.042	4255
3442.763	4293
3444.483	4271
3446.204	4356
3447.926	4245
3449.645	4288
3451.364	4293
3453.082	4251
3454.801	4292
3456.52	4235
3458.238	4228
3459.954	4314
3461.671	4252
3463.387	4276
3465.104	4230
3466.82	4208
3468.534	4192
3470.25	4253
3471.963	4137
3473.676	4185
3475.392	4209
3477.104	4204
3478.817	4180
3480.528	4194
3482.241	4190
3483.954	4168
3485.664	4176
3487.374	4123
3489.084	4140
3490.795	4075
3492.504	4253
3494.214	4187
3495.922	4100
3497.63	4133
3499.338	4130
3501.045	4148
3502.753	4176
3504.459	4107
3506.166	4137
3507.871	4208
3509.576	4092
3511.283	4063
3512.987	4060
3514.691	4219
3516.395	4142
3518.098	4104
3519.8	4062
3521.504	4070
3523.206	4092
3524.908	4101
3526.609	3976
3528.309	4140
3530.011	4044
3531.711	4016
3533.411	4077
3535.109	4073
3536.808	4028
3538.507	4050
3540.206	4106
3541.904	4039
3543.601	3962
3545.297	4024
3546.994	4057
3548.69	4020
3550.387	3992
3552.081	4076
3553.776	4071
3555.47	3975
3557.166	3955
3558.859	4016
3560.553	4033
3562.245	3907
3563.938	3996
3565.629	3909
3567.322	3986
3569.014	3930
3570.704	3963
3572.394	4067
3574.084	4020
3575.775	3949
3577.464	3982
3579.152	3915
3580.842	3976
3582.529	3941
3584.216	3910
3585.905	3875
3587.591	4006
3589.279	3833
3590.964	3918
3592.649	3866
3594.336	3905
3596.021	3870
3597.705	3900
3599.388	3867
3601.072	3865
3602.757	3910
3604.439	3891
3606.122	3821
3607.803	3793
3609.485	3898
3611.167	3846
3612.849	3918
3614.529	3857
3616.208	3853
3617.888	3777
3619.567	3826
3621.247	3715
3622.926	3843
3624.603	3763
3626.281	3824
3627.958	3813
3629.635	3790
3631.312	3794
3632.989	3767
3634.665	3704
3636.339	3749
3638.014	3793
3639.691	3779
3641.364	3785
3643.038	3732
3644.71	3725
3646.384	3776
3648.058	3789
3649.729	3776
3651.402	3792
3653.073	3723
3654.744	3738
3656.414	3713
3658.085	3715
3659.755	3723
3661.424	3737
3663.094	3722
3664.762	3665
3666.431	3664
3668.099	3663
3669.766	3644
3671.433	3788
3673.099	3635
3674.768	3697
3676.433	3627
3678.098	3773
3679.763	3679
3681.428	3680
3683.093	3653
3684.757	3661
3686.421	3608
3688.083	3587
3689.746	3671
3691.408	3704
3693.071	3688
3694.733	3646
3696.394	3642
3698.054	3632
3699.715	3646
3701.375	3683
3703.036	3704
3704.695	3594
3706.354	3619
3708.012	3584
3709.67	3599
3711.329	3648
3712.987	3596
3714.644	3574
3716.299	3577
3717.955	3576
3719.613	3646
3721.268	3668
3722.923	3581
3724.577	3616
3726.231	3604
3727.885	3592
3729.539	3635
3731.192	3522
3732.845	3596
3734.497	3549
3736.149	3639
3737.802	3596
3739.453	3571
3741.104	3594
3742.753	3599
3744.404	3563
3746.052	3603
3747.704	3584
3749.352	3598
3751	3596
3752.648	3547
3754.296	3541
3755.944	3489
3757.59	3569
3759.238	3474
3760.883	3506
3762.528	3476
3764.176	3531
3765.82	3509
3767.464	3557
3769.109	3506
3770.753	3480
3772.396	3470
3774.04	3562
3775.683	3490
3777.325	3465
3778.967	3520
3780.608	3489
3782.25	3411
3783.89	3392
3785.531	3518
3787.17	3463
3788.81	3393
3790.45	3462
3792.09	3499
3793.729	3503
3795.366	3487
3797.003	3383
3798.64	3514
3800.278	3406
3801.915	3451
3803.551	3388
3805.187	3494
3806.822	3455
3808.458	3447
3810.093	3430
3811.726	3381
3813.36	3392
3814.994	3369
3816.627	3438
3818.262	3427
3819.893	3385
3821.525	3417
3823.157	3456
3824.787	3387
3826.42	3365
3828.051	3409
3829.68	3383
3831.31	3343
3832.938	3466
3834.569	3325
3836.198	3340
3837.825	3382
3839.454	3376
3841.08	3413
3842.708	3380
3844.335	3440
3845.962	3333
3847.587	3291
3849.212	3329
3850.838	3340
3852.463	3338
3854.089	3279
3855.712	3411
3857.335	3326
3858.959	3316
3860.582	3309
3862.205	3344
3863.827	3358
3865.449	3241
3867.07	3286
3868.691	3288
3870.312	3266
3871.933	3330
3873.553	3326
3875.173	3269
3876.792	3295
3878.411	3227
3880.03	3195
3881.647	3389
3883.265	3294
3884.882	3305
3886.499	3279
3888.116	3280
3889.732	3302
3891.348	3328
3892.964	3247
3894.579	3236
3896.195	3241
3897.809	3239
3899.423	3274
3901.036	3223
3902.648	3298
3904.261	3175
3905.875	3234
3907.487	3254
3909.099	3180
3910.709	3294
3912.321	3237
3913.933	3187
3915.542	3255
3917.152	3191
3918.762	3222
3920.37	3183
3921.98	3240
3923.589	3224
3925.196	3222
3926.804	3297
3928.41	3231
3930.018	3252
3931.626	3219
3933.231	3212
3934.838	3203
3936.442	3192
3938.046	3224
3939.653	3307
3941.257	3134
3942.861	3213
3944.464	3167
3946.068	3287
3947.67	3200
3949.273	3151
3950.876	3203
3952.477	3147
3954.078	3127
3955.678	3134
3957.281	3229
3958.881	3148
3960.48	3106
3962.079	3139
3963.678	3127
3965.279	3171
3966.877	3204
3968.475	3133
3970.072	3150
3971.669	3072
3973.266	3115
3974.864	3182
3976.459	3099
3978.055	3104
3979.65	3101
3981.245	3188
3982.841	3102
3984.436	3131
3986.03	3151
3987.623	3085
3989.216	3154
3990.809	3107
3992.403	3093
3993.995	3114
3995.586	3099
3997.177	3068
3998.768	3074
4000.361	3097
4001.951	3026
4003.54	3104
4005.13	3061
4006.719	2960
4008.31	3085
4009.897	3031
4011.485	2991
4013.073	2998
4014.66	2980
4016.247	3016
4017.834	2960
4019.421	3049
4021.006	3075
4022.592	2962
4024.178	2980
4025.763	2959
4027.348	2996
4028.932	3050
4030.515	2913
4032.099	3037
4033.682	2932
4035.266	2950
4036.847	3055
4038.429	2998
4040.011	2975
4041.592	2923
4043.173	2937
4044.755	2837
4046.334	2880
4047.913	2932
4049.494	2990
4051.074	3001
4052.652	2847
4054.23	2977
4055.807	2915
4057.385	2972
4058.963	2975
4060.541	2947
4062.117	2851
4063.693	2977
4065.269	2984
4066.844	2939
4068.42	2920
4069.995	2963
4071.569	2944
4073.143	2946
4074.716	2929
4076.291	2892
4077.864	2953
4079.436	2870
4081.009	2914
4082.58	2876
4084.152	2889
4085.723	2912
4087.294	2895
4088.865	2888
4090.435	2900
4092.005	2954
4093.574	2862
4095.143	2836
4096.712	2836
4098.279	2872
4099.848	2893
4101.416	2860
4102.984	2797
4104.55	2885
4106.117	2877
4107.682	2863
4109.248	2856
4110.815	2854
4112.379	2880
4113.945	2811
4115.508	2817
4117.073	2769
4118.637	2790
4120.201	2833
4121.763	2839
4123.325	2771
4124.888	2840
4126.449	2810
4128.013	2790
4129.573	2837
4131.133	2834
4132.694	2811
4134.254	2792
4135.814	2781
4137.374	2791
4138.933	2814
4140.491	2786
4142.049	2840
4143.607	2759
4145.167	2779
4146.724	2823
4148.28	2822
4149.836	2734
4151.392	2790
4152.949	2741
4154.504	2716
4156.059	2803
4157.614	2788
4159.168	2664
4160.723	2713
4162.277	2781
4163.83	2704
4165.383	2733
4166.936	2723
4168.488	2721
4170.041	2773
4171.593	2772
4173.144	2651
4174.695	2763
4176.246	2632
4177.796	2672
4179.346	2746
4180.896	2662
4182.445	2658
4183.994	2696
4185.542	2648
4187.091	2708
4188.639	2719
4190.185	2705
4191.732	2700
4193.279	2709
4194.826	2707
4196.373	2668
4197.918	2655
4199.463	2676
4201.008	2631
4202.553	2647
4204.098	2634
4205.641	2662
4207.185	2646
4208.728	2614
4210.271	2595
4211.814	2618
4213.357	2629
4214.898	2664
4216.439	2623
4217.98	2581
4219.522	2669
4221.062	2568
4222.603	2670
4224.142	2624
4225.681	2639
4227.222	2628
4228.76	2564
4230.298	2628
4231.835	2663
4233.373	2631
4234.911	2608
4236.449	2596
4237.985	2602
4239.521	2541
4241.057	2553
4242.592	2620
4244.128	2626
4245.663	2553
4247.197	2551
4248.731	2579
4250.265	2572
4251.798	2666
4253.333	2584
4254.865	2535
4256.397	2532
4257.93	2561
4259.461	2565
4260.994	2640
4262.525	2638
4264.056	2562
4265.586	2564
4267.115	2558
4268.646	2579
4270.176	2596
4271.705	2534
4273.232	2637
4274.761	2533
4276.289	2470
4277.818	2540
4279.345	2530
4280.872	2531
4282.399	2464
4283.924	2581
4285.452	2489
4286.976	2546
4288.502	2505
4290.026	2566
4291.551	2486
4293.074	2559
4294.6	2550
4296.123	2546
4297.646	2543
4299.168	2536
4300.691	2578
4302.214	2498
4303.736	2521
4305.257	2490
4306.778	2484
4308.299	2553
4309.82	2464
4311.34	2464
4312.86	2497
4314.379	2455
