400.0745	4150
402.597	4133
405.1208	4164
407.6419	4170
410.1623	4183
412.6819	4191
415.201	4167
417.7172	4264
420.2369	4274
422.7538	4290
425.2701	4295
427.7856	4402
430.3005	4350
432.8147	4365
435.3282	4346
437.841	4472
440.3511	4376
442.8625	4362
445.3753	4464
447.8854	4428
450.3927	4394
452.9014	4490
455.4073	4372
457.9146	4413
460.4233	4329
462.9272	4441
465.4325	4477
467.935	4342
470.4389	4470
472.9421	4483
475.4446	4554
477.9444	4516
480.4456	4460
482.944	4537
485.4417	4583
487.9429	4539
490.4393	4524
492.935	4483
495.4321	4572
497.9264	4580
500.4221	4632
502.9171	4525
505.4094	4543
507.9011	4615
510.392	4557
512.8864	4630
515.3759	4675
517.8649	4695
520.3531	4580
522.8406	4686
525.3275	4616
527.8178	4657
530.3033	4689
532.7881	4737
535.2723	4562
537.7558	4694
540.2407	4564
542.7228	4619
545.2043	4619
547.6851	4778
550.1652	4645
552.6467	4648
555.1255	4657
557.6016	4670
560.079	4608
562.5557	4768
565.0318	4722
567.5092	4674
569.984	4671
572.456	4813
574.9294	4831
577.4022	4756
579.8762	4872
582.3456	4789
584.8163	4873
587.2863	4779
589.7557	4843
592.2224	4883
594.6924	4737
597.1578	4909
599.6245	4878
602.0905	4812
604.5538	4897
607.0206	4755
609.4825	4734
611.9459	4796
614.4066	4747
616.8686	4767
619.33	4845
621.7906	4851
624.2487	4856
626.708	4806
629.1647	4770
631.6207	4882
634.0801	4842
636.5348	4852
638.9888	4798
641.4442	4819
643.8969	4832
646.3509	4924
648.8022	4887
651.255	4784
653.705	4898
656.1544	5012
658.6031	4847
661.0532	4862
663.5026	4970
665.9493	4933
668.3954	4961
670.8409	4999
673.2877	4948
675.7318	4984
678.1752	4926
680.618	4968
683.0601	4958
685.5035	4944
687.9444	4934
690.3845	5013
692.824	4993
695.2628	4961
697.701	5081
700.1406	5013
702.5774	5075
705.0116	5065
707.4472	5027
709.8821	5149
712.3183	5061
714.7519	5047
717.1829	5110
719.6151	5170
722.0468	5051
724.4777	5156
726.908	5086
729.3377	5187
731.7667	5111
734.1931	5133
736.6208	5143
739.0498	5212
741.4742	5179
743.9	5150
746.3231	5277
748.7476	5291
751.1713	5293
753.5945	5288
756.015	5268
758.4368	5244
760.856	5339
763.2766	5231
765.6965	5323
768.1157	5369
770.5323	5353
772.9483	5262
775.3656	5271
777.7822	5368
780.1963	5433
782.6116	5342
785.0244	5390
787.4365	5426
789.8499	5351
792.2626	5385
794.6728	5349
797.0823	5423
799.4911	5389
801.8994	5418
804.3109	5392
806.7178	5408
809.124	5457
811.5297	5385
813.9347	5462
816.341	5492
818.7447	5484
821.1478	5585
823.5502	5532
825.952	5407
828.3531	5438
830.7556	5423
833.1554	5477
835.5546	5448
837.9532	5506
840.3511	5563
842.7504	5475
845.1451	5548
847.5411	5552
849.9365	5490
852.3312	5570
854.7272	5564
857.1187	5528
859.5115	5522
861.9037	5597
864.2952	5541
866.6842	5415
869.0764	5569
871.4661	5489
873.8531	5441
876.2415	5499
878.6272	5590
881.0162	5561
883.4026	5469
885.7866	5500
888.1717	5508
890.5543	5582
892.9382	5587
895.3215	5521
897.7041	5521
900.0842	5545
902.4655	5574
904.8443	5498
907.2244	5554
909.6039	5639
911.9808	5555
914.357	5673
916.7346	5671
919.1115	5616
921.4859	5718
923.8616	5770
926.2347	5786
928.6071	5787
930.979	5804
933.3541	5863
935.7247	5856
938.0946	5727
940.4639	5736
942.8326	5859
945.2026	5869
947.5701	5938
949.9369	5981
952.305	5977
954.6705	6122
957.0355	6086
959.4017	6390
961.7654	6363
964.1284	6331
966.4908	6326
968.8527	6194
971.2138	6095
973.5743	5993
975.9343	5940
978.2936	5838
980.6522	5787
983.0122	5792
985.3696	5627
987.7245	5645
990.0807	5742
992.4362	5748
994.7911	5737
997.1474	5667
999.4991	5684
1001.852	5733
1004.205	5754
1006.555	5749
1008.908	5693
1011.258	5820
1013.606	5664
1015.956	5666
1018.302	5734
1020.652	5727
1022.998	5727
1025.345	5762
1027.691	5878
1030.035	5739
1032.378	5792
1034.724	5708
1037.066	5726
1039.409	5829
1041.75	5767
1044.092	5691
1046.433	5850
1048.771	5823
1051.112	5766
1053.449	5675
1055.786	5807
1058.124	5930
1060.462	5799
1062.797	5875
1065.131	5862
1067.467	5897
1069.8	5819
1072.135	5880
1074.467	5962
1076.798	5894
1079.129	5820
1081.459	5868
1083.792	5872
1086.121	5912
1088.449	5813
1090.777	5872
1093.104	5869
1095.431	5804
1097.759	5828
1100.084	5868
1102.408	5748
1104.732	5751
1107.056	5894
1109.379	5904
1111.701	5894
1114.022	5818
1116.343	5901
1118.664	5862
1120.983	5830
1123.303	5929
1125.621	5905
1127.939	5988
1130.256	5877
1132.573	5908
1134.889	5995
1137.205	5946
1139.52	5880
1141.832	5827
1144.146	5875
1146.461	5784
1148.771	5928
1151.083	5913
1153.392	5957
1155.703	5957
1158.011	5805
1160.323	5893
1162.629	5942
1164.938	5873
1167.243	5968
1169.55	5852
1171.857	5919
1174.163	5854
1176.466	5852
1178.769	5855
1181.073	5847
1183.374	5877
1185.677	5909
1187.979	5880
1190.279	5819
1192.578	5925
1194.878	5830
1197.178	5804
1199.476	5791
1201.772	5838
1204.068	5860
1206.366	5868
1208.663	5930
1210.957	5916
1213.251	6016
1215.544	6025
1217.836	5940
1220.128	5938
1222.421	5932
1224.712	5861
1227.002	5889
1229.292	5935
1231.581	6050
1233.871	5952
1236.159	6063
1238.446	6106
1240.732	6043
1243.018	6057
1245.304	6126
1247.59	6070
1249.874	6203
1252.156	6139
1254.439	6191
1256.721	6064
1259.005	6081
1261.286	6025
1263.565	6093
1265.845	6093
1268.125	6124
1270.403	6123
1272.682	6089
1274.959	6158
1277.234	6077
1279.511	6019
1281.787	6122
1284.062	6027
1286.337	5976
1288.609	6089
1290.882	6020
1293.153	6151
1295.428	6140
1297.698	5981
1299.969	6101
1302.237	5884
1304.507	6035
1306.777	6067
1309.044	6051
1311.312	6025
1313.578	6092
1315.844	6066
1318.109	5973
1320.375	5971
1322.638	5891
1324.903	6056
1327.165	6093
1329.427	6006
1331.69	6114
1333.952	6009
1336.212	6018
1338.471	6075
1340.73	6030
1342.988	6032
1345.248	6002
1347.505	6014
1349.763	6012
1352.019	6000
1354.274	5985
1356.53	6081
1358.784	6101
1361.038	6116
1363.291	6137
1365.543	5909
1367.797	6085
1370.048	5906
1372.296	6070
1374.546	6004
1376.796	6067
1379.045	6058
1381.295	6158
1383.542	6166
1385.787	6101
1388.034	6080
1390.28	6171
1392.527	6173
1394.772	6146
1397.014	6193
1399.258	6180
1401.501	6225
1403.741	6239
1405.985	6226
1408.226	6195
1410.465	6182
1412.705	6107
1414.943	6136
1417.184	6315
1419.42	6278
1421.658	6269
1423.894	6141
1426.13	6173
1428.366	6323
1430.602	6166
1432.835	6336
1435.069	6130
1437.301	6251
1439.535	6325
1441.767	6327
1443.997	6342
1446.229	6360
1448.458	6291
1450.687	6336
1452.916	6286
1455.146	6347
1457.372	6400
1459.599	6313
1461.824	6368
1464.051	6202
1466.277	6416
1468.501	6261
1470.725	6323
1472.948	6160
1475.17	6200
1477.393	6164
1479.614	6151
1481.837	6187
1484.057	6223
1486.276	6057
1488.497	6065
1490.715	6063
1492.932	6053
1495.148	6149
1497.364	5993
1499.58	5975
1501.798	6103
1504.012	6017
1506.227	6020
1508.44	5982
1510.653	6081
1512.866	5980
1515.078	5952
1517.289	5961
1519.5	6005
1521.711	6005
1523.92	6023
1526.13	6026
1528.338	6032
1530.544	5954
1532.752	6053
1534.959	6086
1537.165	6091
1539.371	6051
1541.574	6041
1543.779	5941
1545.983	6172
1548.187	6092
1550.39	5986
1552.59	6109
1554.792	6153
1556.991	6016
1559.19	6098
1561.392	6057
1563.59	6053
1565.789	6030
1567.986	6163
1570.182	6179
1572.381	6061
1574.576	6161
1576.771	6152
1578.966	6142
1581.16	6129
1583.354	6216
1585.546	6173
1587.74	6293
1589.931	6190
1592.121	6188
1594.311	6224
1596.502	6163
1598.693	6183
1600.881	6232
1603.069	6207
1605.256	6337
1607.445	6260
1609.631	6129
1611.816	6239
1614.001	6283
1616.186	6211
1618.37	6124
1620.555	6279
1622.737	6284
1624.919	6246
1627.101	6116
1629.282	6174
1631.463	6184
1633.643	6348
1635.822	6200
1638.001	6286
1640.179	6263
1642.359	6278
1644.534	6249
1646.711	6180
1648.887	6381
1651.062	6292
1653.235	6268
1655.412	6247
1657.586	6294
1659.757	6343
1661.93	6345
1664.1	6300
1666.274	6478
1668.445	6315
1670.614	6344
1672.784	6316
1674.951	6344
1677.12	6314
1679.289	6261
1681.457	6405
1683.622	6236
1685.789	6334
1687.953	6188
1690.121	6201
1692.284	6293
1694.447	6215
1696.611	6251
1698.772	6318
1700.935	6217
1703.098	6374
1705.258	6167
1707.417	6071
1709.576	6223
1711.736	6213
1713.896	6253
1716.053	6127
1718.21	6206
1720.366	6168
1722.522	6134
1724.68	6055
1726.835	6103
1728.989	6111
1731.142	6078
1733.295	6177
1735.449	6209
1737.601	6127
1739.753	6201
1741.903	6247
1744.054	6154
1746.203	6170
1748.354	6281
1750.503	6201
1752.651	6278
1754.798	6223
1756.944	6212
1759.092	6184
1761.238	6109
1763.383	6242
1765.528	6284
1767.672	6191
1769.814	6188
1771.959	6150
1774.102	6258
1776.242	6212
1778.384	6119
1780.525	6218
1782.665	6232
1784.805	6129
1786.945	6231
1789.082	6097
1791.22	6265
1793.36	6141
1795.495	6251
1797.632	6297
1799.766	6295
1801.902	6072
1804.035	6209
1806.172	6163
1808.304	6278
1810.436	6216
1812.569	6232
1814.699	6243
1816.833	6182
1818.963	6268
1821.092	6144
1823.222	6278
1825.35	6241
1827.478	6276
1829.608	6161
1831.734	6072
1833.86	6129
1835.986	6125
1838.11	6252
1840.238	6197
1842.362	6297
1844.485	6242
1846.608	6228
1848.73	6267
1850.853	6159
1852.974	6173
1855.097	6055
1857.217	6163
1859.336	6116
1861.455	6117
1863.576	6140
1865.693	6124
1867.811	6154
1869.926	6208
1872.042	6132
1874.16	6219
1876.275	6113
1878.39	6146
1880.504	6143
1882.618	6176
1884.731	6132
1886.843	6243
1888.956	6074
1891.067	6221
1893.178	6154
1895.287	6216
1897.399	6101
1899.508	6175
1901.617	6206
1903.724	6042
1905.832	6160
1907.941	6080
1910.046	6151
1912.152	6234
1914.256	6208
1916.361	6185
1918.464	6173
1920.57	6223
1922.672	6310
1924.775	6278
1926.876	6192
1928.978	6277
1931.08	6319
1933.181	6301
1935.28	6237
1937.38	6260
1939.478	6352
1941.577	6231
1943.675	6160
1945.771	6299
1947.867	6282
1949.964	6209
1952.058	6190
1954.154	6291
1956.248	6182
1958.343	6389
1960.435	6195
1962.527	6272
1964.62	6107
1966.711	6158
1968.802	6247
1970.892	6271
1972.983	6279
1975.072	6287
1977.162	6205
1979.25	6155
1981.337	6191
1983.424	6203
1985.51	6188
1987.598	6071
1989.683	6169
1991.768	6236
1993.852	6256
1995.934	6264
1998.019	6090
2000.102	6110
2002.184	6222
2004.266	6271
2006.347	6226
2008.427	6119
2010.508	6137
2012.587	6220
2014.666	6158
2016.745	6236
2018.821	6163
2020.9	6098
2022.977	6212
2025.052	6136
2027.128	6204
2029.204	6137
2031.277	6167
2033.353	6183
2035.425	6190
2037.499	6133
2039.57	6098
2041.642	6144
2043.714	6162
2045.786	6222
2047.855	6132
2049.925	6185
2051.993	6062
2054.064	6141
2056.132	6177
2058.2	6205
2060.266	6244
2062.332	6177
2064.398	6089
2066.465	6096
2068.529	6118
2070.592	6118
2072.657	6171
2074.719	6188
2076.783	6171
2078.845	6137
2080.907	6159
2082.968	6143
2085.028	6055
2087.087	6127
2089.148	6080
2091.207	6116
2093.264	6227
2095.322	6217
2097.379	6081
2099.439	6145
2101.495	6173
2103.55	6095
2105.605	6202
2107.658	6130
2109.713	6168
2111.767	6224
2113.82	6060
2115.872	6169
2117.924	6263
2119.975	6156
2122.028	6071
2124.078	6228
2126.126	6185
2128.176	6074
2130.225	5990
2132.275	6099
2134.321	6076
2136.368	6072
2138.415	6148
2140.461	6091
2142.505	6179
2144.552	6129
2146.597	6216
2148.64	6088
2150.684	6097
2152.725	6169
2154.77	6043
2156.811	6122
2158.852	6078
2160.894	6084
2162.933	5937
2164.973	6097
2167.013	6076
2169.051	6026
2171.089	5950
2173.126	6074
2175.164	6094
2177.201	6094
2179.236	6027
2181.273	6002
2183.307	5990
2185.341	6071
2187.377	5917
2189.41	5998
2191.442	6161
2193.473	6041
2195.506	6042
2197.539	6005
2199.569	5936
2201.598	6023
2203.628	5994
2205.656	6034
2207.686	6090
2209.716	5932
2211.743	6015
2213.769	5879
2215.796	5919
2217.821	5985
2219.848	6074
2221.873	5892
2223.897	5983
2225.921	5829
2227.944	5949
2229.967	5807
2231.991	5938
2234.011	5983
2236.032	5899
2238.053	5891
2240.073	5911
2242.094	6072
2244.114	5990
2246.131	5863
2248.149	5956
2250.167	6005
2252.186	5879
2254.201	5842
2256.218	5939
2258.233	5984
2260.247	5953
2262.262	5863
2264.278	5989
2266.29	6005
2268.303	5883
2270.315	5930
2272.327	5871
2274.341	5946
2276.35	5976
2278.361	5904
2280.37	5897
2282.38	5819
2284.388	5982
2286.397	5814
2288.405	6049
2290.412	5929
2292.419	5934
2294.425	5931
2296.431	5909
2298.437	5987
2300.441	5911
2302.445	5919
2304.449	5974
2306.453	5842
2308.455	5817
2310.457	5772
2312.459	5984
2314.46	5988
2316.46	5689
2318.461	5843
2320.46	5932
2322.458	5854
2324.458	5931
2326.456	5808
2328.455	5813
2330.451	5812
2332.447	5806
2334.443	5794
2336.438	5883
2338.433	5838
2340.429	5793
2342.422	5829
2344.416	5956
2346.408	5890
2348.399	5813
2350.393	5772
2352.384	5796
2354.375	5738
2356.365	5739
2358.355	5793
2360.344	5758
2362.333	5720
2364.322	5798
2366.309	5840
2368.295	5791
2370.282	5696
2372.27	5825
2374.256	5695
2376.24	5751
2378.225	5702
2380.208	5724
2382.194	5815
2384.177	5869
2386.159	5628
2388.142	5731
2390.122	5833
2392.105	5737
2394.085	5606
2396.066	5713
2398.044	5805
2400.024	5742
2402.002	5683
2403.982	5711
2405.959	5823
2407.935	5663
2409.913	5714
2411.888	5571
2413.865	5701
2415.84	5767
2417.814	5682
2419.788	5664
2421.762	5685
2423.735	5737
2425.708	5603
2427.68	5653
2429.651	5674
2431.623	5568
2433.593	5641
2435.564	5778
2437.533	5763
2439.502	5767
2441.47	5709
2443.438	5746
2445.406	5641
2447.373	5601
2449.34	5719
2451.305	5630
2453.271	5693
2455.235	5628
2457.201	5746
2459.165	5661
2461.129	5630
2463.092	5627
2465.054	5573
2467.018	5560
2468.978	5643
2470.939	5536
2472.899	5591
2474.86	5497
2476.819	5484
2478.778	5622
2480.737	5593
2482.695	5619
2484.653	5645
2486.609	5604
2488.567	5609
2490.524	5593
2492.478	5663
2494.433	5534
2496.387	5598
2498.343	5596
2500.297	5524
2502.249	5433
2504.202	5516
2506.153	5584
2508.105	5594
2510.057	5544
2512.008	5670
2513.957	5475
2515.906	5495
2517.855	5603
2519.805	5643
2521.754	5651
2523.7	5511
2525.647	5478
2527.594	5558
2529.54	5565
2531.486	5426
2533.431	5549
2535.376	5476
2537.32	5463
2539.263	5497
2541.207	5557
2543.151	5578
2545.093	5516
2547.034	5600
2548.975	5481
2550.917	5575
2552.856	5471
2554.796	5527
2556.735	5578
2558.673	5480
2560.611	5537
2562.55	5457
2564.487	5626
2566.424	5495
2568.36	5553
2570.296	5550
2572.232	5534
2574.167	5656
2576.101	5495
2578.035	5402
2579.969	5452
2581.902	5562
2583.834	5486
2585.766	5601
2587.698	5460
2589.628	5623
2591.557	5467
2593.489	5557
2595.419	5476
2597.348	5586
2599.275	5540
2601.204	5454
2603.131	5462
2605.059	5417
2606.986	5560
2608.911	5545
2610.837	5589
2612.76	5583
2614.687	5605
2616.61	5605
2618.534	5491
2620.457	5553
2622.38	5529
2624.302	5584
2626.225	5543
2628.145	5510
2630.067	5623
2631.986	5587
2633.906	5551
2635.827	5516
2637.745	5490
2639.662	5506
2641.581	5461
2643.498	5487
2645.415	5550
2647.331	5479
2649.248	5569
2651.163	5502
2653.077	5498
2654.993	5462
2656.906	5432
2658.821	5370
2660.733	5387
2662.646	5388
2664.557	5351
2666.47	5536
2668.381	5489
2670.291	5468
2672.201	5398
2674.11	5448
2676.021	5505
2677.929	5449
2679.837	5469
2681.745	5368
2683.652	5461
2685.56	5533
2687.466	5378
2689.371	5446
2691.276	5410
2693.181	5475
2695.085	5423
2696.991	5408
2698.893	5426
2700.796	5402
2702.698	5434
2704.601	5504
2706.502	5441
2708.404	5389
2710.304	5457
2712.203	5382
2714.103	5512
2716.003	5357
2717.902	5380
2719.8	5457
2721.697	5417
2723.594	5350
2725.49	5422
2727.389	5413
2729.283	5366
2731.179	5327
2733.073	5378
2734.968	5468
2736.863	5365
2738.757	5419
2740.649	5404
2742.541	5408
2744.433	5383
2746.324	5369
2748.216	5339
2750.107	5347
2751.997	5431
2753.886	5315
2755.776	5349
2757.666	5398
2759.553	5367
2761.44	5384
2763.327	5260
2765.215	5324
2767.102	5269
2768.988	5292
2770.873	5339
2772.757	5309
2774.641	5326
2776.525	5283
2778.41	5377
2780.292	5285
2782.175	5376
2784.057	5326
2785.938	5271
2787.821	5311
2789.701	5392
2791.581	5302
2793.461	5315
2795.34	5264
2797.219	5276
2799.099	5297
2800.975	5160
2802.853	5298
2804.73	5262
2806.606	5395
2808.484	5259
2810.358	5326
2812.233	5370
2814.108	5312
2815.981	5360
2817.857	5341
2819.73	5381
2821.602	5281
2823.474	5269
2825.346	5371
2827.217	5312
2829.089	5250
2830.959	5311
2832.829	5278
2834.698	5391
2836.567	5296
2838.436	5313
2840.305	5202
2842.172	5285
2844.04	5340
2845.905	5319
2847.772	5340
2849.639	5234
2851.503	5395
2853.369	5330
2855.232	5393
2857.096	5271
2858.961	5317
2860.824	5458
2862.686	5434
2864.547	5402
2866.41	5444
2868.272	5438
2870.132	5506
2871.992	5536
2873.851	5471
2875.711	5553
2877.57	5555
2879.429	5603
2881.287	5656
2883.144	5605
2885.001	5699
2886.857	5614
2888.714	5644
2890.57	5781
2892.425	5709
2894.279	5761
2896.133	5675
2897.987	5754
2899.842	5698
2901.694	5650
2903.547	5670
2905.397	5717
2907.249	5782
2909.101	5639
2910.952	5676
2912.802	5742
2914.652	5727
2916.5	5743
2918.35	5799
2920.198	5882
2922.045	5936
2923.893	5883
2925.74	5947
2927.585	5838
2929.433	6012
2931.279	6011
2933.123	5899
2934.968	5983
2936.811	6129
2938.656	6144
2940.5	6202
2942.342	6188
2944.185	6161
2946.026	6231
2947.87	6258
2949.71	6181
2951.549	6370
2953.39	6342
2955.229	6121
2957.069	6220
2958.908	6185
2960.746	6138
2962.584	6115
2964.421	6084
2966.257	5909
2968.094	5985
2969.931	5927
2971.766	5821
2973.601	5828
2975.435	5747
2977.27	5777
2979.105	5730
2980.938	5590
2982.77	5651
2984.602	5690
2986.434	5700
2988.267	5493
2990.097	5471
2991.927	5482
2993.757	5503
2995.587	5497
2997.417	5450
2999.246	5343
3001.074	5337
3002.902	5430
3004.729	5351
3006.556	5268
3008.384	5222
3010.21	5200
3012.036	5072
3013.861	5053
3015.684	5152
3017.51	5109
3019.334	5075
3021.157	5087
3022.981	5080
3024.802	4866
3026.624	5045
3028.448	5036
3030.267	5034
3032.088	4940
3033.909	5021
3035.728	4959
3037.549	4943
3039.368	4915
3041.186	4885
3043.004	4906
3044.821	4878
3046.64	4971
3048.455	4954
3050.272	4962
3052.087	4899
3053.903	4907
3055.717	4884
3057.534	4942
3059.347	4953
3061.16	4948
3062.974	4833
3064.785	4841
3066.598	4935
3068.411	4899
3070.222	4759
3072.032	4937
3073.844	4923
3075.653	4751
3077.463	4940
3079.272	4923
3081.08	4780
3082.889	4791
3084.697	4801
3086.505	4800
3088.312	4763
3090.118	4868
3091.924	4762
3093.729	4871
3095.535	4839
3097.34	4731
3099.144	4783
3100.947	4766
3102.75	4788
3104.553	4723
3106.357	4758
3108.159	4720
3109.961	4736
3111.762	4679
3113.562	4768
3115.365	4689
3117.164	4732
3118.964	4778
3120.761	4690
3122.56	4695
3124.36	4805
3126.158	4714
3127.954	4806
3129.75	4710
3131.547	4664
3133.343	4654
3135.139	4648
3136.934	4710
3138.729	4712
3140.522	4560
3142.317	4681
3144.11	4718
3145.904	4655
3147.695	4658
3149.488	4618
3151.28	4617
3153.07	4689
3154.863	4670
3156.652	4654
3158.441	4602
3160.231	4601
3162.019	4645
3163.81	4657
3165.597	4582
3167.384	4524
3169.172	4593
3170.958	4639
3172.745	4640
3174.532	4591
3176.317	4570
3178.101	4591
3179.885	4508
3181.67	4607
3183.455	4580
3185.238	4543
3187.02	4668
3188.802	4598
3190.585	4595
3192.368	4661
3194.149	4525
3195.929	4596
3197.709	4377
3199.489	4527
3201.268	4433
3203.048	4501
3204.826	4563
3206.604	4550
3208.382	4510
3210.159	4540
3211.937	4519
3213.713	4548
3215.489	4495
3217.263	4496
3219.038	4540
3220.815	4526
3222.589	4464
3224.363	4545
3226.136	4443
3227.908	4441
3229.681	4463
3231.454	4452
3233.226	4430
3234.996	4582
3236.767	4435
3238.538	4460
3240.308	4521
3242.078	4493
3243.847	4480
3245.615	4509
3247.384	4471
3249.15	4497
3250.92	4490
3252.686	4491
3254.453	4412
3256.218	4486
3257.984	4426
3259.75	4463
3261.515	4514
3263.279	4557
3265.044	4458
3266.806	4441
3268.57	4518
3270.334	4470
3272.095	4497
3273.856	4458
3275.619	4471
3277.379	4563
3279.14	4489
3280.9	4479
3282.661	4419
3284.419	4409
3286.178	4471
3287.937	4412
3289.695	4474
3291.453	4472
3293.21	4548
3294.967	4415
3296.723	4440
3298.48	4452
3300.235	4444
3301.99	4434
3303.744	4441
3305.498	4465
3307.253	4464
3309.006	4356
3310.759	4434
3312.511	4484
3314.263	4505
3316.017	4454
3317.768	4482
3319.519	4447
3321.268	4468
3323.018	4446
3324.767	4465
3326.518	4454
3328.267	4367
3330.014	4443
3331.762	4434
3333.509	4358
3335.258	4336
3337.003	4432
3338.75	4418
3340.496	4446
3342.24	4462
3343.987	4457
3345.732	4379
3347.475	4394
3349.219	4373
3350.961	4373
3352.705	4353
3354.448	4323
3356.19	4428
3357.931	4350
3359.672	4306
3361.412	4373
3363.155	4333
3364.894	4308
3366.633	4367
3368.372	4330
3370.11	4431
3371.849	4326
3373.588	4270
3375.325	4365
3377.061	4287
3378.799	4354
3380.534	4387
3382.271	4285
3384.006	4448
3385.741	4347
3387.475	4365
3389.209	4277
3390.944	4318
3392.677	4331
3394.409	4236
3396.143	4274
3397.874	4358
3399.606	4370
3401.338	4242
3403.069	4260
3404.799	4265
3406.528	4233
3408.258	4236
3409.988	4298
3411.717	4260
3413.445	4182
3415.173	4213
3416.899	4250
3418.626	4330
3420.354	4226
3422.08	4272
3423.806	4205
3425.531	4225
3427.255	4171
3428.981	4238
3430.705	4151
3432.429	4202
3434.151	4186
3435.875	4224
3437.599	4109
3439.321	4192
3441.042	4168
3442.763	4197
3444.483	4117
3446.204	4121
3447.926	4038
3449.645	4049
3451.364	4174
3453.082	4170
3454.801	4056
3456.52	4144
3458.238	4128
3459.954	4164
3461.671	4079
3463.387	4146
3465.104	4141
3466.82	4135
3468.534	4042
3470.25	4070
3471.963	4104
3473.676	4125
3475.392	4101
3477.104	4008
3478.817	4020
3480.528	4062
3482.241	3985
3483.954	4062
3485.664	3999
3487.374	3984
3489.084	3971
3490.795	4018
3492.504	4001
3494.214	3956
3495.922	4028
3497.63	3999
3499.338	3967
3501.045	3958
3502.753	3966
3504.459	3967
3506.166	3976
3507.871	4019
3509.576	3976
3511.283	4044
3512.987	3984
3514.691	3992
3516.395	3913
3518.098	3931
3519.8	3844
3521.504	3856
3523.206	3939
3524.908	3981
3526.609	3989
3528.309	3895
3530.011	3936
3531.711	3856
3533.411	3875
3535.109	3910
3536.808	3898
3538.507	3869
3540.206	3895
3541.904	3856
3543.601	3823
3545.297	3801
3546.994	3870
3548.69	3910
3550.387	3764
3552.081	3919
3553.776	3807
3555.47	3866
3557.166	3729
3558.859	3816
3560.553	3772
3562.245	3869
3563.938	3832
3565.629	3837
3567.322	3853
3569.014	3811
3570.704	3855
3572.394	3841
3574.084	3790
3575.775	3832
3577.464	3789
3579.152	3725
3580.842	3772
3582.529	3790
3584.216	3807
3585.905	3804
3587.591	3697
3589.279	3698
3590.964	3741
3592.649	3764
3594.336	3833
3596.021	3826
3597.705	3718
3599.388	3800
3601.072	3747
3602.757	3642
3604.439	3692
3606.122	3713
3607.803	3711
3609.485	3661
3611.167	3678
3612.849	3638
3614.529	3675
3616.208	3732
3617.888	3711
3619.567	3713
3621.247	3678
3622.926	3643
3624.603	3648
3626.281	3583
3627.958	3719
3629.635	3661
3631.312	3628
3632.989	3636
3634.665	3653
3636.339	3696
3638.014	3540
3639.691	3560
3641.364	3591
3643.038	3602
3644.71	3611
3646.384	3587
3648.058	3555
3649.729	3601
3651.402	3562
3653.073	3595
3654.744	3602
3656.414	3587
3658.085	3538
3659.755	3504
3661.424	3544
3663.094	3550
3664.762	3496
3666.431	3563
3668.099	3478
3669.766	3593
3671.433	3521
3673.099	3536
3674.768	3546
3676.433	3493
3678.098	3587
3679.763	3505
3681.428	3459
3683.093	3505
3684.757	3499
3686.421	3562
3688.083	3558
3689.746	3509
3691.408	3505
3693.071	3501
3694.733	3618
3696.394	3489
3698.054	3529
3699.715	3503
3701.375	3509
3703.036	3485
3704.695	3405
3706.354	3517
3708.012	3513
3709.67	3415
3711.329	3431
3712.987	3515
3714.644	3509
3716.299	3488
3717.955	3531
3719.613	3482
3721.268	3488
3722.923	3524
3724.577	3419
3726.231	3479
3727.885	3448
3729.539	3470
3731.192	3483
3732.845	3432
3734.497	3396
3736.149	3456
3737.802	3365
3739.453	3406
3741.104	3413
3742.753	3433
3744.404	3446
3746.052	3457
3747.704	3362
3749.352	3447
3751	3367
3752.648	3369
3754.296	3443
3755.944	3432
3757.59	3415
3759.238	3417
3760.883	3447
3762.528	3355
3764.176	3332
3765.82	3415
3767.464	3406
3769.109	3312
3770.753	3288
3772.396	3400
3774.04	3287
3775.683	3311
3777.325	3387
3778.967	3357
3780.608	3442
3782.25	3321
3783.89	3339
3785.531	3314
3787.17	3285
3788.81	3340
3790.45	3387
3792.09	3375
3793.729	3245
3795.366	3322
3797.003	3263
3798.64	3338
3800.278	3252
3801.915	3299
3803.551	3257
3805.187	3277
3806.822	3287
3808.458	3336
3810.093	3351
3811.726	3325
3813.36	3349
3814.994	3360
3816.627	3290
3818.262	3331
3819.893	3198
3821.525	3240
3823.157	3348
3824.787	3305
3826.42	3287
3828.051	3261
3829.68	3222
3831.31	3292
3832.938	3271
3834.569	3229
3836.198	3276
3837.825	3218
3839.454	3234
3841.08	3229
3842.708	3201
3844.335	3269
3845.962	3245
3847.587	3216
3849.212	3195
3850.838	3233
3852.463	3182
3854.089	3137
3855.712	3169
3857.335	3141
3858.959	3228
3860.582	3191
3862.205	3251
3863.827	3298
3865.449	3146
3867.07	3185
3868.691	3078
3870.312	3204
3871.933	3175
3873.553	3152
3875.173	3163
3876.792	3077
3878.411	3164
3880.03	3180
3881.647	3176
3883.265	3183
3884.882	3060
3886.499	3142
3888.116	3134
3889.732	3152
3891.348	3106
3892.964	3100
3894.579	3125
3896.195	3156
3897.809	3100
3899.423	3181
3901.036	3102
3902.648	3135
3904.261	3138
3905.875	3084
3907.487	3091
3909.099	3134
3910.709	3168
3912.321	3073
3913.933	3083
3915.542	3072
3917.152	3079
3918.762	3142
3920.37	3133
3921.98	3088
3923.589	3186
3925.196	3135
3926.804	3182
3928.41	3076
3930.018	3044
3931.626	3129
3933.231	3008
3934.838	3067
3936.442	3162
3938.046	3074
3939.653	3017
3941.257	3032
3942.861	3103
3944.464	3137
3946.068	3071
3947.67	2968
3949.273	3035
3950.876	3057
3952.477	3135
3954.078	3127
3955.678	3024
3957.281	3022
3958.881	3043
3960.48	3094
3962.079	3045
3963.678	3037
3965.279	3060
3966.877	3035
3968.475	2983
3970.072	3006
3971.669	2999
3973.266	3005
3974.864	3014
3976.459	3001
3978.055	2998
3979.65	2994
3981.245	2972
3982.841	3039
3984.436	2971
3986.03	2969
3987.623	2968
3989.216	3020
3990.809	3013
3992.403	2934
3993.995	2951
3995.586	2943
3997.177	2955
3998.768	2939
4000.361	2994
4001.951	2946
4003.54	2946
4005.13	2878
4006.719	2882
4008.31	2928
4009.897	2922
4011.485	2978
4013.073	2935
4014.66	3016
4016.247	2949
4017.834	2944
4019.421	2902
4021.006	2943
4022.592	2848
4024.178	2873
4025.763	2883
4027.348	2871
4028.932	2871
4030.515	2907
4032.099	2885
4033.682	2865
4035.266	2871
4036.847	2857
4038.429	2920
4040.011	2819
4041.592	2801
4043.173	2894
4044.755	2844
4046.334	2923
4047.913	2852
4049.494	2760
4051.074	2804
4052.652	2846
4054.23	2863
4055.807	2812
4057.385	2812
4058.963	2764
4060.541	2783
4062.117	2774
4063.693	2795
4065.269	2837
4066.844	2801
4068.42	2754
4069.995	2877
4071.569	2817
4073.143	2793
4074.716	2833
4076.291	2788
4077.864	2818
4079.436	2787
4081.009	2817
4082.58	2732
4084.152	2798
4085.723	2740
4087.294	2765
4088.865	2815
4090.435	2802
4092.005	2801
4093.574	2755
4095.143	2749
4096.712	2730
4098.279	2701
4099.848	2700
4101.416	2712
4102.984	2708
4104.55	2767
4106.117	2718
4107.682	2753
4109.248	2739
4110.815	2719
4112.379	2756
4113.945	2808
4115.508	2766
4117.073	2691
4118.637	2759
4120.201	2664
4121.763	2686
4123.325	2777
4124.888	2736
4126.449	2699
4128.013	2632
4129.573	2780
4131.133	2672
4132.694	2659
4134.254	2703
4135.814	2682
4137.374	2681
4138.933	2645
4140.491	2690
4142.049	2662
4143.607	2644
4145.167	2670
4146.724	2653
4148.28	2671
4149.836	2617
4151.392	2709
4152.949	2675
4154.504	2664
4156.059	2655
4157.614	2707
4159.168	2653
4160.723	2674
4162.277	2700
4163.83	2674
4165.383	2575
4166.936	2661
4168.488	2603
4170.041	2594
4171.593	2590
4173.144	2648
4174.695	2530
4176.246	2679
4177.796	2626
4179.346	2599
4180.896	2607
4182.445	2501
4183.994	2573
4185.542	2624
4187.091	2579
4188.639	2598
4190.185	2614
4191.732	2598
4193.279	2500
4194.826	2606
4196.373	2593
4197.918	2514
4199.463	2592
4201.008	2538
4202.553	2564
4204.098	2549
4205.641	2502
4207.185	2534
4208.728	2560
4210.271	2561
4211.814	2500
4213.357	2533
4214.898	2578
4216.439	2549
4217.98	2554
4219.522	2544
4221.062	2525
4222.603	2521
4224.142	2537
4225.681	2550
4227.222	2457
4228.76	2544
4230.298	2533
4231.835	2514
4233.373	2507
4234.911	2512
4236.449	2415
4237.985	2553
4239.521	2499
4241.057	2491
4242.592	2489
4244.128	2517
4245.663	2538
4247.197	2457
4248.731	2482
4250.265	2535
4251.798	2476
4253.333	2486
4254.865	2458
4256.397	2507
4257.93	2522
4259.461	2477
4260.994	2425
4262.525	2486
4264.056	2486
4265.586	2510
4267.115	2462
4268.646	2430
4270.176	2444
4271.705	2441
4273.232	2413
4274.761	2467
4276.289	2468
4277.818	2420
4279.345	2420
4280.872	2484
4282.399	2472
4283.924	2415
4285.452	2427
4286.976	2407
4288.502	2540
4290.026	2486
4291.551	2471
4293.074	2455
4294.6	2441
4296.123	2395
4297.646	2465
4299.168	2396
4300.691	2496
4302.214	2417
4303.736	2387
4305.257	2419
4306.778	2425
4308.299	2433
4309.82	2435
4311.34	2404
4312.86	2432
4314.379	2391
