400.0745	3514
402.597	3580
405.1208	3490
407.6419	3500
410.1623	3629
412.6819	3642
415.201	3673
417.7172	3623
420.2369	3686
422.7538	3792
425.2701	3687
427.7856	3686
430.3005	3812
432.8147	3816
435.3282	3803
437.841	3758
440.3511	3777
442.8625	3890
445.3753	3816
447.8854	3814
450.3927	3794
452.9014	3885
455.4073	3844
457.9146	3752
460.4233	3885
462.9272	3794
465.4325	3762
467.935	3841
470.4389	3816
472.9421	3841
475.4446	3859
477.9444	3886
480.4456	3826
482.944	3783
485.4417	3917
487.9429	3889
490.4393	3893
492.935	3847
495.4321	3845
497.9264	3904
500.4221	3943
502.9171	3902
505.4094	3924
507.9011	3867
510.392	3959
512.8864	3994
515.3759	3935
517.8649	3997
520.3531	4006
522.8406	3901
525.3275	3929
527.8178	4008
530.3033	4004
532.7881	4018
535.2723	4079
537.7558	3968
540.2407	3882
542.7228	4019
545.2043	4058
547.6851	3951
550.1652	4005
552.6467	3964
555.1255	4045
557.6016	4001
560.079	4094
562.5557	4047
565.0318	4020
567.5092	4094
569.984	4054
572.456	4026
574.9294	4070
577.4022	4125
579.8762	4095
582.3456	4124
584.8163	4168
587.2863	4158
589.7557	4153
592.2224	4155
594.6924	4100
597.1578	4163
599.6245	4212
602.0905	4088
604.5538	4132
607.0206	4210
609.4825	4100
611.9459	4095
614.4066	4074
616.8686	4122
619.33	4145
621.7906	4142
624.2487	4098
626.708	4128
629.1647	4061
631.6207	4153
634.0801	4122
636.5348	4131
638.9888	4233
641.4442	4078
643.8969	4195
646.3509	4120
648.8022	4058
651.255	4155
653.705	4214
656.1544	4121
658.6031	4224
661.0532	4252
663.5026	4321
665.9493	4204
668.3954	4181
670.8409	4285
673.2877	4174
675.7318	4180
678.1752	4269
680.618	4264
683.0601	4167
685.5035	4218
687.9444	4174
690.3845	4273
692.824	4349
695.2628	4309
697.701	4273
700.1406	4324
702.5774	4232
705.0116	4262
707.4472	4324
709.8821	4242
712.3183	4426
714.7519	4343
717.1829	4342
719.6151	4408
722.0468	4373
724.4777	4413
726.908	4393
729.3377	4378
731.7667	4341
734.1931	4512
736.6208	4397
739.0498	4508
741.4742	4557
743.9	4580
746.3231	4399
748.7476	4485
751.1713	4439
753.5945	4411
756.015	4602
758.4368	4534
760.856	4505
763.2766	4573
765.6965	4450
768.1157	4525
770.5323	4598
772.9483	4588
775.3656	4607
777.7822	4593
780.1963	4661
782.6116	4603
785.0244	4591
787.4365	4501
789.8499	4510
792.2626	4543
794.6728	4642
797.0823	4556
799.4911	4626
801.8994	4559
804.3109	4564
806.7178	4693
809.124	4583
811.5297	4584
813.9347	4612
816.341	4682
818.7447	4620
821.1478	4691
823.5502	4641
825.952	4601
828.3531	4693
830.7556	4668
833.1554	4580
835.5546	4609
837.9532	4670
840.3511	4627
842.7504	4749
845.1451	4776
847.5411	4695
849.9365	4702
852.3312	4683
854.7272	4714
857.1187	4702
859.5115	4814
861.9037	4741
864.2952	4675
866.6842	4650
869.0764	4715
871.4661	4732
873.8531	4660
876.2415	4711
878.6272	4842
881.0162	4678
883.4026	4648
885.7866	4733
888.1717	4703
890.5543	4658
892.9382	4727
895.3215	4735
897.7041	4572
900.0842	4710
902.4655	4758
904.8443	4766
907.2244	4695
909.6039	4770
911.9808	4740
914.357	4690
916.7346	4870
919.1115	4820
921.4859	4885
923.8616	4886
926.2347	4908
928.6071	4958
930.979	4854
933.3541	4917
935.7247	4969
938.0946	4983
940.4639	4983
942.8326	5103
945.2026	5102
947.5701	5237
949.9369	5203
952.305	5317
954.6705	5579
957.0355	5503
959.4017	5728
961.7654	5830
964.1284	5750
966.4908	5758
968.8527	5565
971.2138	5333
973.5743	5184
975.9343	5119
978.2936	5023
980.6522	5019
983.0122	4927
985.3696	4853
987.7245	4914
990.0807	4929
992.4362	4869
994.7911	4890
997.1474	4838
999.4991	4903
1001.852	4915
1004.205	4802
1006.555	4948
1008.908	4940
1011.258	4850
1013.606	4973
1015.956	4871
1018.302	4893
1020.652	4929
1022.998	4871
1025.345	4914
1027.691	4956
1030.035	4941
1032.378	4992
1034.724	5003
1037.066	5027
1039.409	4978
1041.75	4925
1044.092	4968
1046.433	4976
1048.771	5057
1051.112	4913
1053.449	4986
1055.786	4934
1058.124	5061
1060.462	4978
1062.797	5010
1065.131	5101
1067.467	5026
1069.8	5048
1072.135	5116
1074.467	5162
1076.798	5039
1079.129	4889
1081.459	5030
1083.792	4976
1086.121	4995
1088.449	5075
1090.777	4983
1093.104	5027
1095.431	4962
1097.759	4931
1100.084	4987
1102.408	4998
1104.732	4939
1107.056	5015
1109.379	5023
1111.701	5019
1114.022	4952
1116.343	4942
1118.664	5007
1120.983	5062
1123.303	5079
1125.621	4995
1127.939	4962
1130.256	4986
1132.573	5124
1134.889	5114
1137.205	5057
1139.52	4877
1141.832	5095
1144.146	5033
1146.461	4990
1148.771	5044
1151.083	5020
1153.392	4997
1155.703	4997
1158.011	5060
1160.323	5065
1162.629	5080
1164.938	5054
1167.243	5053
1169.55	4954
1171.857	5034
1174.163	5047
1176.466	5010
1178.769	4964
1181.073	5011
1183.374	5007
1185.677	5072
1187.979	4972
1190.279	4960
1192.578	4963
1194.878	5026
1197.178	5020
1199.476	4942
1201.772	5007
1204.068	4866
1206.366	5030
1208.663	5033
1210.957	5002
1213.251	5060
1215.544	4996
1217.836	5125
1220.128	5022
1222.421	5025
1224.712	5096
1227.002	5092
1229.292	4978
1231.581	5194
1233.871	5073
1236.159	5156
1238.446	5130
1240.732	5278
1243.018	5223
1245.304	5193
1247.59	5213
1249.874	5174
1252.156	5221
1254.439	5187
1256.721	5143
1259.005	5185
1261.286	5241
1263.565	5202
1265.845	5244
1268.125	5098
1270.403	5171
1272.682	5154
1274.959	5244
1277.234	5213
1279.511	5250
1281.787	5135
1284.062	5182
1286.337	5169
1288.609	5187
1290.882	5098
1293.153	5176
1295.428	5085
1297.698	5012
1299.969	5004
1302.237	5233
1304.507	5129
1306.777	5130
1309.044	5095
1311.312	5070
1313.578	5103
1315.844	5172
1318.109	5076
1320.375	5091
1322.638	5054
1324.903	5120
1327.165	5030
1329.427	5131
1331.69	5126
1333.952	5054
1336.212	5125
1338.471	5144
1340.73	5155
1342.988	5131
1345.248	5239
1347.505	5118
1349.763	5106
1352.019	5233
1354.274	5110
1356.53	5144
1358.784	5172
1361.038	5084
1363.291	5160
1365.543	5154
1367.797	5067
1370.048	5114
1372.296	5211
1374.546	5128
1376.796	5159
1379.045	5141
1381.295	5083
1383.542	5162
1385.787	5169
1388.034	5111
1390.28	5223
1392.527	5154
1394.772	5198
1397.014	5216
1399.258	5233
1401.501	5210
1403.741	5349
1405.985	5251
1408.226	5149
1410.465	5281
1412.705	5236
1414.943	5308
1417.184	5197
1419.42	5168
1421.658	5264
1423.894	5248
1426.13	5296
1428.366	5209
1430.602	5385
1432.835	5316
1435.069	5261
1437.301	5169
1439.535	5367
1441.767	5283
1443.997	5255
1446.229	5229
1448.458	5305
1450.687	5387
1452.916	5396
1455.146	5313
1457.372	5327
1459.599	5288
1461.824	5405
1464.051	5327
1466.277	5350
1468.501	5384
1470.725	5293
1472.948	5284
1475.17	5234
1477.393	5204
1479.614	5278
1481.837	5199
1484.057	5226
1486.276	5152
1488.497	5198
1490.715	5169
1492.932	5111
1495.148	5134
1497.364	5191
1499.58	5223
1501.798	5047
1504.012	5119
1506.227	5099
1508.44	5047
1510.653	5137
1512.866	5144
1515.078	5127
1517.289	5088
1519.5	5128
1521.711	5141
1523.92	5102
1526.13	5167
1528.338	5177
1530.544	5090
1532.752	5089
1534.959	5190
1537.165	5127
1539.371	5117
1541.574	5089
1543.779	5107
1545.983	5100
1548.187	5154
1550.39	5126
1552.59	5242
1554.792	5066
1556.991	5144
1559.19	5209
1561.392	5252
1563.59	5280
1565.789	5158
1567.986	5069
1570.182	5185
1572.381	5222
1574.576	5165
1576.771	5237
1578.966	5243
1581.16	5187
1583.354	5306
1585.546	5209
1587.74	5191
1589.931	5285
1592.121	5217
1594.311	5263
1596.502	5240
1598.693	5167
1600.881	5284
1603.069	5296
1605.256	5255
1607.445	5219
1609.631	5357
1611.816	5397
1614.001	5348
1616.186	5274
1618.37	5302
1620.555	5245
1622.737	5262
1624.919	5269
1627.101	5335
1629.282	5288
1631.463	5267
1633.643	5321
1635.822	5288
1638.001	5379
1640.179	5327
1642.359	5351
1644.534	5419
1646.711	5346
1648.887	5254
1651.062	5331
1653.235	5321
1655.412	5416
1657.586	5376
1659.757	5317
1661.93	5295
1664.1	5429
1666.274	5369
1668.445	5229
1670.614	5375
1672.784	5317
1674.951	5279
1677.12	5344
1679.289	5419
1681.457	5239
1683.622	5304
1685.789	5306
1687.953	5327
1690.121	5302
1692.284	5362
1694.447	5262
1696.611	5355
1698.772	5280
1700.935	5213
1703.098	5288
1705.258	5407
1707.417	5270
1709.576	5247
1711.736	5380
1713.896	5233
1716.053	5262
1718.21	5214
1720.366	5217
1722.522	5239
1724.68	5222
1726.835	5176
1728.989	5224
1731.142	5293
1733.295	5232
1735.449	5300
1737.601	5118
1739.753	5192
1741.903	5187
1744.054	5280
1746.203	5299
1748.354	5208
1750.503	5270
1752.651	5237
1754.798	5218
1756.944	5278
1759.092	5309
1761.238	5374
1763.383	5287
1765.528	5253
1767.672	5267
1769.814	5358
1771.959	5268
1774.102	5279
1776.242	5238
1778.384	5274
1780.525	5391
1782.665	5174
1784.805	5368
1786.945	5284
1789.082	5297
1791.22	5320
1793.36	5390
1795.495	5467
1797.632	5324
1799.766	5227
1801.902	5302
1804.035	5291
1806.172	5282
1808.304	5326
1810.436	5278
1812.569	5354
1814.699	5363
1816.833	5333
1818.963	5302
1821.092	5296
1823.222	5251
1825.35	5319
1827.478	5203
1829.608	5311
1831.734	5309
1833.86	5376
1835.986	5163
1838.11	5240
1840.238	5247
1842.362	5246
1844.485	5260
1846.608	5292
1848.73	5196
1850.853	5161
1852.974	5302
1855.097	5149
1857.217	5301
1859.336	5160
1861.455	5254
1863.576	5276
1865.693	5167
1867.811	5243
1869.926	5324
1872.042	5165
1874.16	5146
1876.275	5274
1878.39	5230
1880.504	5219
1882.618	5242
1884.731	5291
1886.843	5258
1888.956	5275
1891.067	5278
1893.178	5263
1895.287	5225
1897.399	5335
1899.508	5244
1901.617	5239
1903.724	5303
1905.832	5303
1907.941	5232
1910.046	5311
1912.152	5338
1914.256	5311
1916.361	5249
1918.464	5280
1920.57	5302
1922.672	5283
1924.775	5307
1926.876	5294
1928.978	5402
1931.08	5325
1933.181	5285
1935.28	5419
1937.38	5301
1939.478	5366
1941.577	5279
1943.675	5294
1945.771	5297
1947.867	5298
1949.964	5332
1952.058	5357
1954.154	5350
1956.248	5301
1958.343	5311
1960.435	5303
1962.527	5285
1964.62	5216
1966.711	5285
1968.802	5234
1970.892	5335
1972.983	5318
1975.072	5254
1977.162	5291
1979.25	5345
1981.337	5242
1983.424	5287
1985.51	5273
1987.598	5285
1989.683	5352
1991.768	5222
1993.852	5240
1995.934	5296
1998.019	5213
2000.102	5183
2002.184	5325
2004.266	5288
2006.347	5227
2008.427	5292
2010.508	5214
2012.587	5304
2014.666	5194
2016.745	5304
2018.821	5259
2020.9	5253
2022.977	5225
2025.052	5219
2027.128	5307
2029.204	5220
2031.277	5206
2033.353	5291
2035.425	5147
2037.499	5263
2039.57	5252
2041.642	5360
2043.714	5115
2045.786	5174
2047.855	5377
2049.925	5244
2051.993	5333
2054.064	5203
2056.132	5168
2058.2	5254
2060.266	5248
2062.332	5204
2064.398	5274
2066.465	5245
2068.529	5267
2070.592	5187
2072.657	5234
2074.719	5237
2076.783	5249
2078.845	5267
2080.907	5233
2082.968	5252
2085.028	5271
2087.087	5263
2089.148	5292
2091.207	5228
2093.264	5099
2095.322	5309
2097.379	5311
2099.439	5177
2101.495	5291
2103.55	5278
2105.605	5319
2107.658	5235
2109.713	5254
2111.767	5252
2113.82	5220
2115.872	5286
2117.924	5269
2119.975	5261
2122.028	5240
2124.078	5267
2126.126	5331
2128.176	5232
2130.225	5163
2132.275	5229
2134.321	5200
2136.368	5146
2138.415	5220
2140.461	5215
2142.505	5276
2144.552	5205
2146.597	5163
2148.64	5273
2150.684	5190
2152.725	5173
2154.77	5189
2156.811	5168
2158.852	5193
2160.894	5151
2162.933	5299
2164.973	5116
2167.013	5179
2169.051	5095
2171.089	5164
2173.126	5167
2175.164	5203
2177.201	5176
2179.236	5201
2181.273	5163
2183.307	5035
2185.341	5066
2187.377	5104
2189.41	5081
2191.442	5162
2193.473	5092
2195.506	5116
2197.539	5152
2199.569	5148
2201.598	5059
2203.628	5106
2205.656	5044
2207.686	5214
2209.716	5148
2211.743	5178
2213.769	5120
2215.796	5000
2217.821	5111
2219.848	5055
2221.873	5082
2223.897	5107
2225.921	5065
2227.944	5076
2229.967	5143
2231.991	5082
2234.011	5067
2236.032	5039
2238.053	5016
2240.073	5141
2242.094	4994
2244.114	5080
2246.131	5076
2248.149	5099
2250.167	5055
2252.186	5060
2254.201	5022
2256.218	5009
2258.233	5062
2260.247	5023
2262.262	5033
2264.278	5025
2266.29	5083
2268.303	5041
2270.315	5096
2272.327	5047
2274.341	5090
2276.35	5047
2278.361	5041
2280.37	4916
2282.38	5014
2284.388	5023
2286.397	5001
2288.405	5076
2290.412	5071
2292.419	5003
2294.425	5149
2296.431	5069
2298.437	5045
2300.441	5106
2302.445	5069
2304.449	4979
2306.453	5080
2308.455	5034
2310.457	4914
2312.459	5108
2314.46	5058
2316.46	5031
2318.461	5072
2320.46	5000
2322.458	4971
2324.458	4983
2326.456	4992
2328.455	5034
2330.451	5053
2332.447	5031
2334.443	5000
2336.438	4968
2338.433	4845
2340.429	4971
2342.422	4868
2344.416	4930
2346.408	4944
2348.399	4978
2350.393	4992
2352.384	4939
2354.375	4926
2356.365	4844
2358.355	4892
2360.344	4966
2362.333	4891
2364.322	4932
2366.309	4933
2368.295	4873
2370.282	4904
2372.27	4838
2374.256	4920
2376.24	4996
2378.225	4816
2380.208	4945
2382.194	4936
2384.177	4900
2386.159	4932
2388.142	4918
2390.122	4962
2392.105	4864
2394.085	4873
2396.066	4919
2398.044	4864
2400.024	4920
2402.002	4801
2403.982	4915
2405.959	4919
2407.935	4870
2409.913	4929
2411.888	4887
2413.865	4834
2415.84	4887
2417.814	4743
2419.788	4832
2421.762	4849
2423.735	4833
2425.708	4893
2427.68	4930
2429.651	4840
2431.623	4847
2433.593	4819
2435.564	4813
2437.533	4973
2439.502	4928
2441.47	4844
2443.438	4904
2445.406	4828
2447.373	4873
2449.34	4812
2451.305	4758
2453.271	4921
2455.235	4868
2457.201	4784
2459.165	4804
2461.129	4771
2463.092	4811
2465.054	4742
2467.018	4826
2468.978	4823
2470.939	4913
2472.899	4857
2474.86	4836
2476.819	4751
2478.778	4820
2480.737	4773
2482.695	4831
2484.653	4841
2486.609	4827
2488.567	4862
2490.524	4822
2492.478	4752
2494.433	4812
2496.387	4784
2498.343	4853
2500.297	4777
2502.249	4736
2504.202	4875
2506.153	4846
2508.105	4796
2510.057	4824
2512.008	4751
2513.957	4746
2515.906	4808
2517.855	4782
2519.805	4788
2521.754	4789
2523.7	4685
2525.647	4816
2527.594	4709
2529.54	4807
2531.486	4732
2533.431	4768
2535.376	4729
2537.32	4656
2539.263	4731
2541.207	4733
2543.151	4697
2545.093	4777
2547.034	4746
2548.975	4720
2550.917	4719
2552.856	4635
2554.796	4750
2556.735	4720
2558.673	4732
2560.611	4716
2562.55	4696
2564.487	4807
2566.424	4647
2568.36	4772
2570.296	4701
2572.232	4717
2574.167	4794
2576.101	4773
2578.035	4726
2579.969	4660
2581.902	4683
2583.834	4787
2585.766	4651
2587.698	4663
2589.628	4796
2591.557	4660
2593.489	4813
2595.419	4840
2597.348	4706
2599.275	4708
2601.204	4764
2603.131	4793
2605.059	4740
2606.986	4746
2608.911	4721
2610.837	4660
2612.76	4793
2614.687	4729
2616.61	4730
2618.534	4753
2620.457	4762
2622.38	4726
2624.302	4816
2626.225	4770
2628.145	4730
2630.067	4828
2631.986	4706
2633.906	4718
2635.827	4740
2637.745	4690
2639.662	4830
2641.581	4769
2643.498	4752
2645.415	4713
2647.331	4729
2649.248	4636
2651.163	4750
2653.077	4697
2654.993	4749
2656.906	4685
2658.821	4767
2660.733	4710
2662.646	4679
2664.557	4703
2666.47	4730
2668.381	4711
2670.291	4708
2672.201	4703
2674.11	4659
2676.021	4702
2677.929	4723
2679.837	4643
2681.745	4686
2683.652	4726
2685.56	4690
2687.466	4720
2689.371	4690
2691.276	4685
2693.181	4612
2695.085	4641
2696.991	4779
2698.893	4573
2700.796	4647
2702.698	4618
2704.601	4626
2706.502	4683
2708.404	4666
2710.304	4678
2712.203	4686
2714.103	4615
2716.003	4515
2717.902	4750
2719.8	4713
2721.697	4576
2723.594	4675
2725.49	4695
2727.389	4670
2729.283	4659
2731.179	4635
2733.073	4656
2734.968	4601
2736.863	4617
2738.757	4534
2740.649	4571
2742.541	4541
2744.433	4701
2746.324	4620
2748.216	4563
2750.107	4586
2751.997	4506
2753.886	4600
2755.776	4540
2757.666	4676
2759.553	4559
2761.44	4539
2763.327	4565
2765.215	4547
2767.102	4624
2768.988	4553
2770.873	4589
2772.757	4609
2774.641	4612
2776.525	4528
2778.41	4569
2780.292	4556
2782.175	4569
2784.057	4601
2785.938	4558
2787.821	4584
2789.701	4575
2791.581	4485
2793.461	4555
2795.34	4529
2797.219	4564
2799.099	4581
2800.975	4486
2802.853	4557
2804.73	4535
2806.606	4603
2808.484	4639
2810.358	4472
2812.233	4598
2814.108	4526
2815.981	4519
2817.857	4487
2819.73	4446
2821.602	4495
2823.474	4534
2825.346	4434
2827.217	4527
2829.089	4602
2830.959	4596
2832.829	4525
2834.698	4461
2836.567	4575
2838.436	4511
2840.305	4415
2842.172	4480
2844.04	4548
2845.905	4603
2847.772	4466
2849.639	4553
2851.503	4492
2853.369	4557
2855.232	4606
2857.096	4523
2858.961	4500
2860.824	4582
2862.686	4603
2864.547	4589
2866.41	4559
2868.272	4626
2870.132	4667
2871.992	4557
2873.851	4648
2875.711	4715
2877.57	4806
2879.429	4736
2881.287	4884
2883.144	4761
2885.001	4890
2886.857	4793
2888.714	4821
2890.57	4980
2892.425	4811
2894.279	4855
2896.133	4795
2897.987	4788
2899.842	4846
2901.694	4780
2903.547	4748
2905.397	4794
2907.249	4822
2909.101	4831
2910.952	4771
2912.802	4762
2914.652	4847
2916.5	4885
2918.35	4941
2920.198	4928
2922.045	4949
2923.893	4907
2925.74	4992
2927.585	5166
2929.433	5155
2931.279	5129
2933.123	5060
2934.968	5229
2936.811	5279
2938.656	5185
2940.5	5152
2942.342	5364
2944.185	5433
2946.026	5388
2947.87	5254
2949.71	5325
2951.549	5217
2953.39	5201
2955.229	5048
2957.069	5126
2958.908	5132
2960.746	5107
2962.584	5012
2964.421	4969
2966.257	4982
2968.094	4984
2969.931	4835
2971.766	4867
2973.601	4821
2975.435	4781
2977.27	4850
2979.105	4799
2980.938	4819
2982.77	4765
2984.602	4803
2986.434	4839
2988.267	4895
2990.097	4793
2991.927	4760
2993.757	4747
2995.587	4761
2997.417	4653
2999.246	4637
3001.074	4686
3002.902	4665
3004.729	4491
3006.556	4595
3008.384	4483
3010.21	4412
3012.036	4468
3013.861	4388
3015.684	4363
3017.51	4399
3019.334	4284
3021.157	4329
3022.981	4277
3024.802	4215
3026.624	4292
3028.448	4319
3030.267	4263
3032.088	4229
3033.909	4323
3035.728	4348
3037.549	4224
3039.368	4175
3041.186	4187
3043.004	4221
3044.821	4236
3046.64	4256
3048.455	4185
3050.272	4130
3052.087	4269
3053.903	4202
3055.717	4209
3057.534	4211
3059.347	4253
3061.16	4237
3062.974	4291
3064.785	4144
3066.598	4216
3068.411	4196
3070.222	4146
3072.032	4210
3073.844	4202
3075.653	4259
3077.463	4251
3079.272	4172
3081.08	4153
3082.889	4202
3084.697	4172
3086.505	4130
3088.312	4166
3090.118	4118
3091.924	4134
3093.729	4108
3095.535	4148
3097.34	4098
3099.144	4179
3100.947	4126
3102.75	4130
3104.553	4053
3106.357	4075
3108.159	4114
3109.961	4015
3111.762	4096
3113.562	4096
3115.365	4070
3117.164	4107
3118.964	4039
3120.761	4025
3122.56	3994
3124.36	4014
3126.158	3949
3127.954	3985
3129.75	3994
3131.547	4051
3133.343	3977
3135.139	4008
3136.934	3945
3138.729	4057
3140.522	3937
3142.317	3968
3144.11	4008
3145.904	4071
3147.695	3945
3149.488	3883
3151.28	3989
3153.07	4018
3154.863	3913
3156.652	3926
3158.441	3903
3160.231	3942
3162.019	4000
3163.81	4007
3165.597	3967
3167.384	3939
3169.172	3945
3170.958	3954
3172.745	3961
3174.532	3977
3176.317	3899
3178.101	3877
3179.885	3934
3181.67	3898
3183.455	3946
3185.238	3906
3187.02	3991
3188.802	3896
3190.585	3893
3192.368	3935
3194.149	3970
3195.929	3957
3197.709	3883
3199.489	3935
3201.268	3925
3203.048	3927
3204.826	3895
3206.604	3905
3208.382	3894
3210.159	3933
3211.937	3975
3213.713	3850
3215.489	3848
3217.263	3837
3219.038	3904
3220.815	3950
3222.589	3881
3224.363	3855
3226.136	4027
3227.908	3970
3229.681	3977
3231.454	3834
3233.226	3917
3234.996	3891
3236.767	3838
3238.538	3932
3240.308	3848
3242.078	3861
3243.847	3846
3245.615	3897
3247.384	3842
3249.15	3838
3250.92	3837
3252.686	3895
3254.453	3862
3256.218	3828
3257.984	3940
3259.75	3932
3261.515	3776
3263.279	3896
3265.044	3834
3266.806	3973
3268.57	3926
3270.334	3866
3272.095	3797
3273.856	3866
3275.619	3961
3277.379	3896
3279.14	3915
3280.9	3916
3282.661	3920
3284.419	3777
3286.178	3842
3287.937	3926
3289.695	3834
3291.453	3835
3293.21	3906
3294.967	3956
3296.723	3837
3298.48	3767
3300.235	3924
3301.99	3814
3303.744	3824
3305.498	3841
3307.253	3859
3309.006	3904
3310.759	3892
3312.511	3931
3314.263	3854
3316.017	3819
3317.768	3789
3319.519	3820
3321.268	3885
3323.018	3813
3324.767	3839
3326.518	3774
3328.267	3858
3330.014	3805
3331.762	3878
3333.509	3883
3335.258	3780
3337.003	3917
3338.75	3734
3340.496	3825
3342.24	3796
3343.987	3820
3345.732	3837
3347.475	3794
3349.219	3819
3350.961	3838
3352.705	3770
3354.448	3830
3356.19	3873
3357.931	3767
3359.672	3770
3361.412	3821
3363.155	3693
3364.894	3791
3366.633	3708
3368.372	3670
3370.11	3745
3371.849	3768
3373.588	3739
3375.325	3816
3377.061	3796
3378.799	3791
3380.534	3803
3382.271	3739
3384.006	3736
3385.741	3729
3387.475	3766
3389.209	3705
3390.944	3782
3392.677	3651
3394.409	3733
3396.143	3720
3397.874	3749
3399.606	3645
3401.338	3674
3403.069	3603
3404.799	3712
3406.528	3740
3408.258	3650
3409.988	3682
3411.717	3666
3413.445	3699
3415.173	3653
3416.899	3680
3418.626	3644
3420.354	3692
3422.08	3701
3423.806	3712
3425.531	3684
3427.255	3658
3428.981	3648
3430.705	3639
3432.429	3650
3434.151	3663
3435.875	3610
3437.599	3651
3439.321	3594
3441.042	3621
3442.763	3683
3444.483	3576
3446.204	3669
3447.926	3628
3449.645	3617
3451.364	3610
3453.082	3545
3454.801	3549
3456.52	3600
3458.238	3575
3459.954	3520
3461.671	3579
3463.387	3579
3465.104	3706
3466.82	3451
3468.534	3515
3470.25	3543
3471.963	3581
3473.676	3451
3475.392	3533
3477.104	3512
3478.817	3502
3480.528	3479
3482.241	3539
3483.954	3502
3485.664	3477
3487.374	3516
3489.084	3404
3490.795	3601
3492.504	3529
3494.214	3412
3495.922	3484
3497.63	3481
3499.338	3539
3501.045	3364
3502.753	3429
3504.459	3426
3506.166	3444
3507.871	3480
3509.576	3402
3511.283	3497
3512.987	3415
3514.691	3409
3516.395	3403
3518.098	3476
3519.8	3409
3521.504	3377
3523.206	3477
3524.908	3363
3526.609	3401
3528.309	3413
3530.011	3370
3531.711	3375
3533.411	3330
3535.109	3327
3536.808	3405
3538.507	3324
3540.206	3409
3541.904	3369
3543.601	3360
3545.297	3440
3546.994	3372
3548.69	3353
3550.387	3370
3552.081	3380
3553.776	3417
3555.47	3322
3557.166	3297
3558.859	3400
3560.553	3303
3562.245	3347
3563.938	3397
3565.629	3315
3567.322	3309
3569.014	3258
3570.704	3224
3572.394	3293
3574.084	3325
3575.775	3320
3577.464	3324
3579.152	3317
3580.842	3176
3582.529	3258
3584.216	3273
3585.905	3287
3587.591	3323
3589.279	3250
3590.964	3293
3592.649	3248
3594.336	3266
3596.021	3201
3597.705	3314
3599.388	3172
3601.072	3230
3602.757	3151
3604.439	3288
3606.122	3193
3607.803	3185
3609.485	3197
3611.167	3226
3612.849	3204
3614.529	3215
3616.208	3224
3617.888	3140
3619.567	3163
3621.247	3189
3622.926	3137
3624.603	3162
3626.281	3223
3627.958	3129
3629.635	3124
3631.312	3193
3632.989	3193
3634.665	3118
3636.339	3086
3638.014	3156
3639.691	3178
3641.364	3124
3643.038	3144
3644.71	3107
3646.384	3122
3648.058	3118
3649.729	3025
3651.402	3073
3653.073	3091
3654.744	3058
3656.414	3142
3658.085	3195
3659.755	3104
3661.424	3091
3663.094	3080
3664.762	3056
3666.431	3113
3668.099	3145
3669.766	3083
3671.433	3053
3673.099	3061
3674.768	3084
3676.433	3028
3678.098	3073
3679.763	3089
3681.428	2995
3683.093	2991
3684.757	3106
3686.421	3057
3688.083	3045
3689.746	3051
3691.408	3011
3693.071	3025
3694.733	3016
3696.394	3097
3698.054	3072
3699.715	3054
3701.375	2990
3703.036	2986
3704.695	3043
3706.354	3029
3708.012	2976
3709.67	3002
3711.329	2968
3712.987	3066
3714.644	2992
3716.299	3105
3717.955	3027
3719.613	3077
3721.268	2957
3722.923	3014
3724.577	2999
3726.231	2926
3727.885	2988
3729.539	2982
3731.192	3011
3732.845	2985
3734.497	2964
3736.149	2992
3737.802	2958
3739.453	2974
3741.104	3023
3742.753	2993
3744.404	2967
3746.052	3031
3747.704	3025
3749.352	2935
3751	2915
3752.648	2985
3754.296	2940
3755.944	2934
3757.59	2953
3759.238	2947
3760.883	2902
3762.528	2931
3764.176	2975
3765.82	2962
3767.464	2896
3769.109	2971
3770.753	2932
3772.396	2893
3774.04	2959
3775.683	2960
3777.325	2853
3778.967	2936
3780.608	2959
3782.25	2893
3783.89	2882
3785.531	2833
3787.17	2935
3788.81	2975
3790.45	2874
3792.09	2945
3793.729	2880
3795.366	2899
3797.003	2883
3798.64	2901
3800.278	2914
3801.915	2846
3803.551	2924
3805.187	2875
3806.822	2837
3808.458	2909
3810.093	2865
3811.726	2865
3813.36	2845
3814.994	2928
3816.627	2851
3818.262	2844
3819.893	2759
3821.525	2817
3823.157	2856
3824.787	2843
3826.42	2821
3828.051	2867
3829.68	2840
3831.31	2871
3832.938	2907
3834.569	2770
3836.198	2795
3837.825	2783
3839.454	2808
3841.08	2818
3842.708	2817
3844.335	2759
3845.962	2804
3847.587	2787
3849.212	2813
3850.838	2748
3852.463	2789
3854.089	2784
3855.712	2768
3857.335	2736
3858.959	2731
3860.582	2862
3862.205	2747
3863.827	2782
3865.449	2768
3867.07	2658
3868.691	2761
3870.312	2806
3871.933	2772
3873.553	2826
3875.173	2708
3876.792	2747
3878.411	2786
3880.03	2775
3881.647	2769
3883.265	2734
3884.882	2675
3886.499	2722
3888.116	2796
3889.732	2767
3891.348	2754
3892.964	2720
3894.579	2734
3896.195	2775
3897.809	2654
3899.423	2758
3901.036	2795
3902.648	2805
3904.261	2745
3905.875	2669
3907.487	2745
3909.099	2715
3910.709	2745
3912.321	2689
3913.933	2758
3915.542	2678
3917.152	2724
3918.762	2701
3920.37	2722
3921.98	2727
3923.589	2693
3925.196	2692
3926.804	2710
3928.41	2659
3930.018	2663
3931.626	2715
3933.231	2712
3934.838	2698
3936.442	2692
3938.046	2674
3939.653	2787
3941.257	2708
3942.861	2742
3944.464	2698
3946.068	2640
3947.67	2625
3949.273	2699
3950.876	2661
3952.477	2637
3954.078	2635
3955.678	2700
3957.281	2609
3958.881	2628
3960.48	2647
3962.079	2639
3963.678	2573
3965.279	2714
3966.877	2588
3968.475	2610
3970.072	2615
3971.669	2591
3973.266	2692
3974.864	2599
3976.459	2639
3978.055	2618
3979.65	2655
3981.245	2577
3982.841	2585
3984.436	2635
3986.03	2570
3987.623	2626
3989.216	2577
3990.809	2674
3992.403	2553
3993.995	2615
3995.586	2599
3997.177	2585
3998.768	2594
4000.361	2586
4001.951	2606
4003.54	2594
4005.13	2547
4006.719	2524
4008.31	2586
4009.897	2555
4011.485	2426
4013.073	2488
4014.66	2565
4016.247	2554
4017.834	2512
4019.421	2527
4021.006	2496
4022.592	2535
4024.178	2542
4025.763	2517
4027.348	2522
4028.932	2501
4030.515	2468
4032.099	2451
4033.682	2467
4035.266	2510
4036.847	2496
4038.429	2470
4040.011	2518
4041.592	2500
4043.173	2506
4044.755	2481
4046.334	2446
4047.913	2518
4049.494	2531
4051.074	2485
4052.652	2454
4054.23	2442
4055.807	2491
4057.385	2481
4058.963	2405
4060.541	2500
4062.117	2444
4063.693	2492
4065.269	2495
4066.844	2441
4068.42	2453
4069.995	2429
4071.569	2474
4073.143	2428
4074.716	2443
4076.291	2410
4077.864	2384
4079.436	2474
4081.009	2455
4082.58	2409
4084.152	2466
4085.723	2463
4087.294	2369
4088.865	2402
4090.435	2444
4092.005	2440
4093.574	2371
4095.143	2428
4096.712	2399
4098.279	2367
4099.848	2373
4101.416	2398
4102.984	2402
4104.55	2403
4106.117	2373
4107.682	2388
4109.248	2424
4110.815	2423
4112.379	2389
4113.945	2470
4115.508	2430
4117.073	2459
4118.637	2401
4120.201	2390
4121.763	2374
4123.325	2318
4124.888	2343
4126.449	2360
4128.013	2310
4129.573	2358
4131.133	2366
4132.694	2294
4134.254	2324
4135.814	2443
4137.374	2302
4138.933	2338
4140.491	2316
4142.049	2328
4143.607	2330
4145.167	2356
4146.724	2323
4148.28	2392
4149.836	2359
4151.392	2229
4152.949	2299
4154.504	2340
4156.059	2356
4157.614	2370
4159.168	2351
4160.723	2294
4162.277	2314
4163.83	2288
4165.383	2306
4166.936	2304
4168.488	2342
4170.041	2283
4171.593	2339
4173.144	2337
4174.695	2330
4176.246	2276
4177.796	2322
4179.346	2270
4180.896	2257
4182.445	2259
4183.994	2311
4185.542	2261
4187.091	2257
4188.639	2303
4190.185	2287
4191.732	2239
4193.279	2203
4194.826	2278
4196.373	2237
4197.918	2227
4199.463	2278
4201.008	2243
4202.553	2228
4204.098	2156
4205.641	2290
4207.185	2221
4208.728	2283
4210.271	2270
4211.814	2209
4213.357	2252
4214.898	2208
4216.439	2170
4217.98	2263
4219.522	2164
4221.062	2230
4222.603	2208
4224.142	2239
4225.681	2177
4227.222	2188
4228.76	2237
4230.298	2224
4231.835	2184
4233.373	2200
4234.911	2206
4236.449	2185
4237.985	2209
4239.521	2219
4241.057	2164
4242.592	2194
4244.128	2135
4245.663	2217
4247.197	2164
4248.731	2142
4250.265	2180
4251.798	2183
4253.333	2158
4254.865	2191
4256.397	2143
4257.93	2184
4259.461	2183
4260.994	2105
4262.525	2193
4264.056	2146
4265.586	2150
4267.115	2188
4268.646	2166
4270.176	2153
4271.705	2192
4273.232	2128
4274.761	2204
4276.289	2147
4277.818	2152
4279.345	2145
4280.872	2119
4282.399	2130
4283.924	2132
4285.452	2162
4286.976	2121
4288.502	2151
4290.026	2145
4291.551	2087
4293.074	2154
4294.6	2140
4296.123	2130
4297.646	2132
4299.168	2067
4300.691	2107
4302.214	2154
4303.736	2099
4305.257	2114
4306.778	2101
4308.299	2105
4309.82	2120
4311.34	2148
4312.86	2091
4314.379	2142
