400.0745	4124
402.597	4238
405.1208	4181
407.6419	4233
410.1623	4353
412.6819	4279
415.201	4376
417.7172	4244
420.2369	4427
422.7538	4343
425.2701	4404
427.7856	4424
430.3005	4411
432.8147	4513
435.3282	4518
437.841	4532
440.3511	4427
442.8625	4511
445.3753	4470
447.8854	4452
450.3927	4532
452.9014	4511
455.4073	4490
457.9146	4484
460.4233	4535
462.9272	4459
465.4325	4507
467.935	4527
470.4389	4584
472.9421	4590
475.4446	4551
477.9444	4660
480.4456	4645
482.944	4586
485.4417	4630
487.9429	4674
490.4393	4551
492.935	4612
495.4321	4687
497.9264	4708
500.4221	4644
502.9171	4765
505.4094	4739
507.9011	4759
510.392	4695
512.8864	4694
515.3759	4744
517.8649	4683
520.3531	4813
522.8406	4776
525.3275	4689
527.8178	4806
530.3033	4710
532.7881	4821
535.2723	4774
537.7558	4759
540.2407	4764
542.7228	4783
545.2043	4691
547.6851	4746
550.1652	4634
552.6467	4780
555.1255	4802
557.6016	4778
560.079	4781
562.5557	4761
565.0318	4776
567.5092	4870
569.984	4899
572.456	4808
574.9294	4823
577.4022	4882
579.8762	4973
582.3456	4940
584.8163	4933
587.2863	4907
589.7557	4964
592.2224	5011
594.6924	4877
597.1578	4977
599.6245	4956
602.0905	4837
604.5538	4944
607.0206	4949
609.4825	4876
611.9459	5019
614.4066	4893
616.8686	4945
619.33	4844
621.7906	4888
624.2487	4844
626.708	4909
629.1647	4941
631.6207	4886
634.0801	4951
636.5348	4913
638.9888	4893
641.4442	4954
643.8969	4991
646.3509	4985
648.8022	5089
651.255	4959
653.705	5009
656.1544	5044
658.6031	5032
661.0532	5025
663.5026	5053
665.9493	5057
668.3954	5133
670.8409	4926
673.2877	5082
675.7318	5110
678.1752	5052
680.618	5099
683.0601	5064
685.5035	5204
687.9444	5240
690.3845	5126
692.824	5100
695.2628	5174
697.701	5107
700.1406	5196
702.5774	5151
705.0116	5164
707.4472	5195
709.8821	5099
712.3183	5225
714.7519	5142
717.1829	5169
719.6151	5240
722.0468	5307
724.4777	5130
726.908	5250
729.3377	5379
731.7667	5301
734.1931	5293
736.6208	5376
739.0498	5329
741.4742	5351
743.9	5364
746.3231	5370
748.7476	5455
751.1713	5389
753.5945	5422
756.015	5443
758.4368	5546
760.856	5546
763.2766	5476
765.6965	5465
768.1157	5418
770.5323	5424
772.9483	5497
775.3656	5491
777.7822	5462
780.1963	5542
782.6116	5465
785.0244	5505
787.4365	5446
789.8499	5618
792.2626	5588
794.6728	5585
797.0823	5597
799.4911	5494
801.8994	5494
804.3109	5524
806.7178	5567
809.124	5499
811.5297	5591
813.9347	5527
816.341	5502
818.7447	5590
821.1478	5531
823.5502	5623
825.952	5614
828.3531	5593
830.7556	5553
833.1554	5591
835.5546	5541
837.9532	5587
840.3511	5630
842.7504	5625
845.1451	5646
847.5411	5698
849.9365	5551
852.3312	5650
854.7272	5560
857.1187	5627
859.5115	5712
861.9037	5589
864.2952	5674
866.6842	5671
869.0764	5631
871.4661	5635
873.8531	5601
876.2415	5658
878.6272	5764
881.0162	5662
883.4026	5524
885.7866	5610
888.1717	5706
890.5543	5648
892.9382	5596
895.3215	5665
897.7041	5646
900.0842	5685
902.4655	5741
904.8443	5673
907.2244	5744
909.6039	5794
911.9808	5586
914.357	5737
916.7346	5778
919.1115	5771
921.4859	5823
923.8616	5699
926.2347	5838
928.6071	5880
930.979	5905
933.3541	5861
935.7247	5932
938.0946	5873
940.4639	6005
942.8326	5891
945.2026	5968
947.5701	5982
949.9369	6213
952.305	6197
954.6705	6336
957.0355	6451
959.4017	6459
961.7654	6484
964.1284	6529
966.4908	6444
968.8527	6386
971.2138	6139
973.5743	6169
975.9343	6058
978.2936	5945
980.6522	5966
983.0122	5930
985.3696	5823
987.7245	5870
990.0807	5782
992.4362	5819
994.7911	5819
997.1474	5978
999.4991	5884
1001.852	5885
1004.205	5906
1006.555	5891
1008.908	5922
1011.258	5943
1013.606	5770
1015.956	5820
1018.302	5935
1020.652	5802
1022.998	5972
1025.345	5940
1027.691	6015
1030.035	5934
1032.378	5829
1034.724	5863
1037.066	6049
1039.409	5903
1041.75	5947
1044.092	5928
1046.433	6067
1048.771	5967
1051.112	5961
1053.449	5915
1055.786	6010
1058.124	5991
1060.462	5986
1062.797	6027
1065.131	6046
1067.467	5986
1069.8	6109
1072.135	6145
1074.467	6038
1076.798	6069
1079.129	6021
1081.459	6101
1083.792	5943
1086.121	6058
1088.449	5915
1090.777	6032
1093.104	6046
1095.431	5925
1097.759	5956
1100.084	6045
1102.408	6104
1104.732	5882
1107.056	6168
1109.379	6067
1111.701	6016
1114.022	6152
1116.343	6056
1118.664	6092
1120.983	6136
1123.303	6085
1125.621	6080
1127.939	6060
1130.256	6118
1132.573	6147
1134.889	5960
1137.205	6077
1139.52	6065
1141.832	6012
1144.146	6041
1146.461	6108
1148.771	6086
1151.083	6084
1153.392	6148
1155.703	6131
1158.011	6212
1160.323	6176
1162.629	6105
1164.938	6017
1167.243	6134
1169.55	6122
1171.857	5996
1174.163	6011
1176.466	6050
1178.769	6054
1181.073	6149
1183.374	6164
1185.677	6037
1187.979	6082
1190.279	6028
1192.578	6075
1194.878	6180
1197.178	6051
1199.476	6123
1201.772	6159
1204.068	6039
1206.366	6084
1208.663	6040
1210.957	6141
1213.251	6205
1215.544	6187
1217.836	6034
1220.128	6143
1222.421	6163
1224.712	6125
1227.002	6214
1229.292	6195
1231.581	6161
1233.871	6192
1236.159	6348
1238.446	6255
1240.732	6262
1243.018	6286
1245.304	6299
1247.59	6335
1249.874	6287
1252.156	6201
1254.439	6229
1256.721	6222
1259.005	6320
1261.286	6378
1263.565	6318
1265.845	6309
1268.125	6278
1270.403	6215
1272.682	6223
1274.959	6341
1277.234	6309
1279.511	6302
1281.787	6291
1284.062	6299
1286.337	6338
1288.609	6343
1290.882	6173
1293.153	6224
1295.428	6180
1297.698	6262
1299.969	6159
1302.237	6264
1304.507	6173
1306.777	6258
1309.044	6260
1311.312	6242
1313.578	6181
1315.844	6192
1318.109	6321
1320.375	6215
1322.638	6155
1324.903	6158
1327.165	6253
1329.427	6168
1331.69	6348
1333.952	6268
1336.212	6179
1338.471	6195
1340.73	6316
1342.988	6335
1345.248	6355
1347.505	6235
1349.763	6223
1352.019	6198
1354.274	6230
1356.53	6221
1358.784	6332
1361.038	6261
1363.291	6200
1365.543	6136
1367.797	6299
1370.048	6248
1372.296	6293
1374.546	6203
1376.796	6312
1379.045	6242
1381.295	6253
1383.542	6227
1385.787	6359
1388.034	6316
1390.28	6290
1392.527	6408
1394.772	6306
1397.014	6368
1399.258	6369
1401.501	6293
1403.741	6313
1405.985	6363
1408.226	6344
1410.465	6377
1412.705	6387
1414.943	6444
1417.184	6422
1419.42	6482
1421.658	6487
1423.894	6377
1426.13	6381
1428.366	6373
1430.602	6271
1432.835	6293
1435.069	6402
1437.301	6460
1439.535	6547
1441.767	6550
1443.997	6577
1446.229	6502
1448.458	6595
1450.687	6419
1452.916	6537
1455.146	6451
1457.372	6602
1459.599	6572
1461.824	6543
1464.051	6619
1466.277	6473
1468.501	6377
1470.725	6344
1472.948	6341
1475.17	6424
1477.393	6516
1479.614	6308
1481.837	6292
1484.057	6436
1486.276	6315
1488.497	6387
1490.715	6359
1492.932	6232
1495.148	6317
1497.364	6349
1499.58	6265
1501.798	6365
1504.012	6235
1506.227	6285
1508.44	6247
1510.653	6187
1512.866	6302
1515.078	6277
1517.289	6224
1519.5	6396
1521.711	6368
1523.92	6292
1526.13	6248
1528.338	6262
1530.544	6297
1532.752	6318
1534.959	6232
1537.165	6358
1539.371	6271
1541.574	6360
1543.779	6201
1545.983	6347
1548.187	6327
1550.39	6399
1552.59	6381
1554.792	6365
1556.991	6414
1559.19	6418
1561.392	6349
1563.59	6367
1565.789	6497
1567.986	6376
1570.182	6330
1572.381	6395
1574.576	6465
1576.771	6511
1578.966	6436
1581.16	6378
1583.354	6429
1585.546	6455
1587.74	6449
1589.931	6421
1592.121	6474
1594.311	6560
1596.502	6470
1598.693	6476
1600.881	6454
1603.069	6392
1605.256	6620
1607.445	6500
1609.631	6481
1611.816	6453
1614.001	6480
1616.186	6465
1618.37	6535
1620.555	6503
1622.737	6496
1624.919	6605
1627.101	6408
1629.282	6532
1631.463	6516
1633.643	6600
1635.822	6615
1638.001	6520
1640.179	6412
1642.359	6429
1644.534	6704
1646.711	6554
1648.887	6536
1651.062	6614
1653.235	6549
1655.412	6681
1657.586	6592
1659.757	6549
1661.93	6696
1664.1	6581
1666.274	6516
1668.445	6587
1670.614	6540
1672.784	6621
1674.951	6685
1677.12	6549
1679.289	6589
1681.457	6575
1683.622	6494
1685.789	6533
1687.953	6551
1690.121	6491
1692.284	6542
1694.447	6656
1696.611	6532
1698.772	6523
1700.935	6492
1703.098	6505
1705.258	6480
1707.417	6540
1709.576	6441
1711.736	6423
1713.896	6490
1716.053	6526
1718.21	6566
1720.366	6445
1722.522	6467
1724.68	6438
1726.835	6334
1728.989	6560
1731.142	6405
1733.295	6535
1735.449	6490
1737.601	6591
1739.753	6464
1741.903	6525
1744.054	6556
1746.203	6559
1748.354	6492
1750.503	6463
1752.651	6456
1754.798	6570
1756.944	6552
1759.092	6601
1761.238	6474
1763.383	6585
1765.528	6579
1767.672	6446
1769.814	6553
1771.959	6500
1774.102	6539
1776.242	6421
1778.384	6643
1780.525	6726
1782.665	6434
1784.805	6643
1786.945	6712
1789.082	6519
1791.22	6720
1793.36	6539
1795.495	6450
1797.632	6487
1799.766	6539
1801.902	6543
1804.035	6605
1806.172	6596
1808.304	6663
1810.436	6601
1812.569	6544
1814.699	6618
1816.833	6576
1818.963	6427
1821.092	6544
1823.222	6430
1825.35	6534
1827.478	6501
1829.608	6550
1831.734	6589
1833.86	6469
1835.986	6513
1838.11	6510
1840.238	6441
1842.362	6654
1844.485	6486
1846.608	6473
1848.73	6622
1850.853	6590
1852.974	6483
1855.097	6464
1857.217	6489
1859.336	6559
1861.455	6472
1863.576	6497
1865.693	6516
1867.811	6481
1869.926	6561
1872.042	6530
1874.16	6497
1876.275	6349
1878.39	6509
1880.504	6570
1882.618	6509
1884.731	6504
1886.843	6603
1888.956	6588
1891.067	6558
1893.178	6610
1895.287	6478
1897.399	6620
1899.508	6441
1901.617	6605
1903.724	6542
1905.832	6540
1907.941	6630
1910.046	6559
1912.152	6566
1914.256	6482
1916.361	6652
1918.464	6541
1920.57	6656
1922.672	6598
1924.775	6836
1926.876	6611
1928.978	6611
1931.08	6640
1933.181	6667
1935.28	6639
1937.38	6627
1939.478	6639
1941.577	6685
1943.675	6625
1945.771	6609
1947.867	6571
1949.964	6671
1952.058	6609
1954.154	6593
1956.248	6789
1958.343	6600
1960.435	6637
1962.527	6679
1964.62	6676
1966.711	6670
1968.802	6592
1970.892	6605
1972.983	6648
1975.072	6589
1977.162	6598
1979.25	6696
1981.337	6569
1983.424	6534
1985.51	6583
1987.598	6500
1989.683	6557
1991.768	6475
1993.852	6593
1995.934	6619
1998.019	6492
2000.102	6539
2002.184	6573
2004.266	6479
2006.347	6640
2008.427	6590
2010.508	6595
2012.587	6656
2014.666	6543
2016.745	6550
2018.821	6502
2020.9	6599
2022.977	6443
2025.052	6520
2027.128	6592
2029.204	6558
2031.277	6482
2033.353	6579
2035.425	6588
2037.499	6479
2039.57	6600
2041.642	6546
2043.714	6529
2045.786	6527
2047.855	6484
2049.925	6535
2051.993	6581
2054.064	6547
2056.132	6601
2058.2	6558
2060.266	6587
2062.332	6552
2064.398	6520
2066.465	6492
2068.529	6580
2070.592	6493
2072.657	6599
2074.719	6559
2076.783	6614
2078.845	6617
2080.907	6500
2082.968	6589
2085.028	6479
2087.087	6571
2089.148	6519
2091.207	6488
2093.264	6476
2095.322	6694
2097.379	6560
2099.439	6607
2101.495	6582
2103.55	6630
2105.605	6589
2107.658	6534
2109.713	6540
2111.767	6553
2113.82	6529
2115.872	6492
2117.924	6588
2119.975	6375
2122.028	6620
2124.078	6486
2126.126	6511
2128.176	6607
2130.225	6534
2132.275	6485
2134.321	6529
2136.368	6611
2138.415	6614
2140.461	6480
2142.505	6531
2144.552	6526
2146.597	6339
2148.64	6481
2150.684	6488
2152.725	6449
2154.77	6578
2156.811	6460
2158.852	6436
2160.894	6571
2162.933	6476
2164.973	6464
2167.013	6482
2169.051	6345
2171.089	6471
2173.126	6614
2175.164	6467
2177.201	6475
2179.236	6394
2181.273	6416
2183.307	6550
2185.341	6424
2187.377	6357
2189.41	6443
2191.442	6504
2193.473	6468
2195.506	6406
2197.539	6435
2199.569	6473
2201.598	6283
2203.628	6423
2205.656	6443
2207.686	6412
2209.716	6439
2211.743	6488
2213.769	6368
2215.796	6385
2217.821	6326
2219.848	6376
2221.873	6359
2223.897	6266
2225.921	6341
2227.944	6442
2229.967	6397
2231.991	6442
2234.011	6392
2236.032	6262
2238.053	6194
2240.073	6298
2242.094	6262
2244.114	6385
2246.131	6356
2248.149	6505
2250.167	6406
2252.186	6294
2254.201	6365
2256.218	6352
2258.233	6263
2260.247	6323
2262.262	6393
2264.278	6358
2266.29	6349
2268.303	6408
2270.315	6337
2272.327	6336
2274.341	6399
2276.35	6388
2278.361	6307
2280.37	6288
2282.38	6311
2284.388	6336
2286.397	6411
2288.405	6557
2290.412	6259
2292.419	6353
2294.425	6377
2296.431	6342
2298.437	6504
2300.441	6308
2302.445	6434
2304.449	6291
2306.453	6454
2308.455	6301
2310.457	6372
2312.459	6283
2314.46	6319
2316.46	6288
2318.461	6344
2320.46	6222
2322.458	6280
2324.458	6286
2326.456	6337
2328.455	6252
2330.451	6318
2332.447	6191
2334.443	6415
2336.438	6251
2338.433	6228
2340.429	6277
2342.422	6233
2344.416	6255
2346.408	6300
2348.399	6139
2350.393	6316
2352.384	6211
2354.375	6364
2356.365	6349
2358.355	6268
2360.344	6172
2362.333	6283
2364.322	6187
2366.309	6178
2368.295	6195
2370.282	6225
2372.27	6263
2374.256	6257
2376.24	6254
2378.225	6208
2380.208	6187
2382.194	6227
2384.177	6172
2386.159	6139
2388.142	6086
2390.122	6103
2392.105	6168
2394.085	6142
2396.066	6176
2398.044	6100
2400.024	6074
2402.002	6143
2403.982	6211
2405.959	6109
2407.935	6124
2409.913	6171
2411.888	6056
2413.865	6056
2415.84	6080
2417.814	6141
2419.788	6183
2421.762	6061
2423.735	6046
2425.708	6120
2427.68	6158
2429.651	6123
2431.623	6120
2433.593	6157
2435.564	6158
2437.533	6113
2439.502	6079
2441.47	6277
2443.438	6253
2445.406	6162
2447.373	6166
2449.34	6138
2451.305	6024
2453.271	6069
2455.235	6096
2457.201	6222
2459.165	6121
2461.129	6045
2463.092	6125
2465.054	6091
2467.018	6072
2468.978	6158
2470.939	6011
2472.899	6121
2474.86	6079
2476.819	6091
2478.778	5975
2480.737	6061
2482.695	6043
2484.653	6058
2486.609	6072
2488.567	5993
2490.524	6035
2492.478	5948
2494.433	6077
2496.387	5996
2498.343	6039
2500.297	6036
2502.249	5949
2504.202	6024
2506.153	6113
2508.105	6069
2510.057	5996
2512.008	6020
2513.957	5974
2515.906	5902
2517.855	6015
2519.805	5907
2521.754	6000
2523.7	6073
2525.647	5983
2527.594	6070
2529.54	6020
2531.486	6012
2533.431	6056
2535.376	5912
2537.32	6069
2539.263	5929
2541.207	5942
2543.151	5955
2545.093	6118
2547.034	6011
2548.975	5904
2550.917	5954
2552.856	5905
2554.796	6045
2556.735	5937
2558.673	5862
2560.611	5943
2562.55	6022
2564.487	5999
2566.424	6055
2568.36	5930
2570.296	5960
2572.232	6005
2574.167	6039
2576.101	5931
2578.035	5939
2579.969	5962
2581.902	5897
2583.834	5888
2585.766	6027
2587.698	5936
2589.628	6001
2591.557	6068
2593.489	6003
2595.419	6130
2597.348	6098
2599.275	5971
2601.204	5983
2603.131	6045
2605.059	5998
2606.986	5987
2608.911	5803
2610.837	6034
2612.76	6049
2614.687	6045
2616.61	6005
2618.534	5998
2620.457	6061
2622.38	5999
2624.302	6025
2626.225	5974
2628.145	6000
2630.067	6066
2631.986	5981
2633.906	6148
2635.827	6053
2637.745	5980
2639.662	6071
2641.581	6042
2643.498	5948
2645.415	6006
2647.331	5974
2649.248	6021
2651.163	5962
2653.077	6049
2654.993	6021
2656.906	5941
2658.821	5943
2660.733	6014
2662.646	6060
2664.557	5964
2666.47	6188
2668.381	5938
2670.291	5755
2672.201	5832
2674.11	5989
2676.021	5911
2677.929	5934
2679.837	6013
2681.745	6049
2683.652	5983
2685.56	5892
2687.466	6031
2689.371	5891
2691.276	5957
2693.181	5978
2695.085	5812
2696.991	5896
2698.893	5961
2700.796	5864
2702.698	5949
2704.601	5863
2706.502	6003
2708.404	5850
2710.304	5973
2712.203	5879
2714.103	5915
2716.003	5965
2717.902	5763
2719.8	5882
2721.697	5843
2723.594	5855
2725.49	5933
2727.389	5944
2729.283	5848
2731.179	5814
2733.073	5803
2734.968	5918
2736.863	5807
2738.757	5745
2740.649	5824
2742.541	5838
2744.433	5944
2746.324	5861
2748.216	5789
2750.107	5853
2751.997	5865
2753.886	5738
2755.776	5741
2757.666	5785
2759.553	5724
2761.44	5940
2763.327	5736
2765.215	5828
2767.102	5949
2768.988	5803
2770.873	5784
2772.757	5822
2774.641	5840
2776.525	5857
2778.41	5754
2780.292	5816
2782.175	5804
2784.057	5789
2785.938	5787
2787.821	5865
2789.701	5756
2791.581	5724
2793.461	5726
2795.34	5795
2797.219	5930
2799.099	5821
2800.975	5859
2802.853	5769
2804.73	5765
2806.606	5864
2808.484	5806
2810.358	5732
2812.233	5756
2814.108	5754
2815.981	5742
2817.857	5648
2819.73	5812
2821.602	5860
2823.474	5774
2825.346	5646
2827.217	5641
2829.089	5727
2830.959	5808
2832.829	5777
2834.698	5742
2836.567	5814
2838.436	5656
2840.305	5772
2842.172	5744
2844.04	5778
2845.905	5871
2847.772	5821
2849.639	5752
2851.503	5850
2853.369	5778
2855.232	5821
2857.096	5785
2858.961	5801
2860.824	5812
2862.686	5849
2864.547	5811
2866.41	5853
2868.272	5727
2870.132	5892
2871.992	5925
2873.851	5973
2875.711	5925
2877.57	5928
2879.429	5948
2881.287	5975
2883.144	6031
2885.001	6064
2886.857	6007
2888.714	5858
2890.57	6054
2892.425	6000
2894.279	5937
2896.133	5936
2897.987	5978
2899.842	6028
2901.694	6041
2903.547	5973
2905.397	6041
2907.249	5947
2909.101	5963
2910.952	5990
2912.802	6034
2914.652	5869
2916.5	5995
2918.35	6189
2920.198	6152
2922.045	6179
2923.893	6214
2925.74	6183
2927.585	6231
2929.433	6069
2931.279	6370
2933.123	6244
2934.968	6286
2936.811	6393
2938.656	6312
2940.5	6373
2942.342	6198
2944.185	6386
2946.026	6418
2947.87	6411
2949.71	6230
2951.549	6344
2953.39	6231
2955.229	6289
2957.069	6234
2958.908	6264
2960.746	6202
2962.584	6212
2964.421	6193
2966.257	6120
2968.094	5995
2969.931	6131
2971.766	6015
2973.601	6006
2975.435	5901
2977.27	5981
2979.105	5994
2980.938	6007
2982.77	5859
2984.602	5922
2986.434	5960
2988.267	5884
2990.097	5748
2991.927	5807
2993.757	5888
2995.587	5782
2997.417	5776
2999.246	5835
3001.074	5741
3002.902	5708
3004.729	5555
3006.556	5711
3008.384	5628
3010.21	5697
3012.036	5618
3013.861	5701
3015.684	5514
3017.51	5549
3019.334	5491
3021.157	5517
3022.981	5483
3024.802	5506
3026.624	5594
3028.448	5438
3030.267	5474
3032.088	5536
3033.909	5427
3035.728	5404
3037.549	5393
3039.368	5413
3041.186	5403
3043.004	5396
3044.821	5412
3046.64	5411
3048.455	5473
3050.272	5376
3052.087	5405
3053.903	5245
3055.717	5359
3057.534	5374
3059.347	5344
3061.16	5376
3062.974	5330
3064.785	5380
3066.598	5309
3068.411	5348
3070.222	5387
3072.032	5348
3073.844	5263
3075.653	5369
3077.463	5310
3079.272	5297
3081.08	5327
3082.889	5266
3084.697	5292
3086.505	5257
3088.312	5308
3090.118	5292
3091.924	5192
3093.729	5287
3095.535	5241
3097.34	5225
3099.144	5230
3100.947	5260
3102.75	5134
3104.553	5212
3106.357	5183
3108.159	5197
3109.961	5228
3111.762	5087
3113.562	5238
3115.365	5120
3117.164	5193
3118.964	5155
3120.761	5160
3122.56	5125
3124.36	5195
3126.158	5070
3127.954	5140
3129.75	5162
3131.547	5158
3133.343	5171
3135.139	4994
3136.934	5060
3138.729	5166
3140.522	5089
3142.317	5057
3144.11	5119
3145.904	5066
3147.695	5101
3149.488	5042
3151.28	5140
3153.07	5059
3154.863	4984
3156.652	5049
3158.441	5214
3160.231	5184
3162.019	5103
3163.81	4989
3165.597	5068
3167.384	5008
3169.172	5039
3170.958	5034
3172.745	4994
3174.532	5094
3176.317	4993
3178.101	5084
3179.885	5104
3181.67	5013
3183.455	5016
3185.238	4993
3187.02	5031
3188.802	5014
3190.585	4993
3192.368	5022
3194.149	4952
3195.929	4996
3197.709	5006
3199.489	5055
3201.268	4964
3203.048	4995
3204.826	4944
3206.604	4941
3208.382	4996
3210.159	4950
3211.937	4978
3213.713	5050
3215.489	4930
3217.263	4944
3219.038	4960
3220.815	5000
3222.589	5025
3224.363	4888
3226.136	5001
3227.908	4834
3229.681	4844
3231.454	4940
3233.226	4973
3234.996	4930
3236.767	4924
3238.538	4918
3240.308	4932
3242.078	4946
3243.847	4942
3245.615	4949
3247.384	4962
3249.15	5002
3250.92	4935
3252.686	4943
3254.453	4921
3256.218	4988
3257.984	4911
3259.75	4935
3261.515	4826
3263.279	4947
3265.044	4943
3266.806	4948
3268.57	4907
3270.334	4926
3272.095	4835
3273.856	4906
3275.619	4853
3277.379	4850
3279.14	4846
3280.9	4914
3282.661	4888
3284.419	4955
3286.178	5016
3287.937	4974
3289.695	4819
3291.453	4920
3293.21	4877
3294.967	4881
3296.723	4969
3298.48	4898
3300.235	4925
3301.99	4874
3303.744	4920
3305.498	4911
3307.253	4911
3309.006	4777
3310.759	4846
3312.511	4850
3314.263	4920
3316.017	4863
3317.768	4806
3319.519	4878
3321.268	4826
3323.018	4876
3324.767	4807
3326.518	4833
3328.267	4830
3330.014	4865
3331.762	4785
3333.509	4865
3335.258	4726
3337.003	4855
3338.75	4824
3340.496	4812
3342.24	4936
3343.987	4874
3345.732	4827
3347.475	4916
3349.219	4809
3350.961	4863
3352.705	4802
3354.448	4856
3356.19	4802
3357.931	4733
3359.672	4794
3361.412	4854
3363.155	4791
3364.894	4838
3366.633	4683
3368.372	4864
3370.11	4848
3371.849	4700
3373.588	4835
3375.325	4767
3377.061	4700
3378.799	4807
3380.534	4817
3382.271	4700
3384.006	4806
3385.741	4774
3387.475	4721
3389.209	4702
3390.944	4753
3392.677	4725
3394.409	4688
3396.143	4763
3397.874	4705
3399.606	4668
3401.338	4627
3403.069	4707
3404.799	4752
3406.528	4750
3408.258	4726
3409.988	4713
3411.717	4657
3413.445	4693
3415.173	4697
3416.899	4668
3418.626	4609
3420.354	4717
3422.08	4656
3423.806	4680
3425.531	4621
3427.255	4679
3428.981	4735
3430.705	4616
3432.429	4635
3434.151	4649
3435.875	4688
3437.599	4615
3439.321	4660
3441.042	4642
3442.763	4625
3444.483	4524
3446.204	4608
3447.926	4611
3449.645	4600
3451.364	4594
3453.082	4601
3454.801	4605
3456.52	4501
3458.238	4639
3459.954	4611
3461.671	4568
3463.387	4514
3465.104	4577
3466.82	4445
3468.534	4546
3470.25	4520
3471.963	4486
3473.676	4512
3475.392	4533
3477.104	4508
3478.817	4436
3480.528	4565
3482.241	4485
3483.954	4487
3485.664	4505
3487.374	4478
3489.084	4485
3490.795	4401
3492.504	4399
3494.214	4460
3495.922	4541
3497.63	4474
3499.338	4463
3501.045	4426
3502.753	4441
3504.459	4319
3506.166	4431
3507.871	4398
3509.576	4349
3511.283	4399
3512.987	4462
3514.691	4390
3516.395	4435
3518.098	4506
3519.8	4479
3521.504	4384
3523.206	4474
3524.908	4373
3526.609	4441
3528.309	4419
3530.011	4373
3531.711	4462
3533.411	4433
3535.109	4311
3536.808	4400
3538.507	4367
3540.206	4342
3541.904	4379
3543.601	4358
3545.297	4388
3546.994	4339
3548.69	4292
3550.387	4318
3552.081	4363
3553.776	4368
3555.47	4332
3557.166	4329
3558.859	4374
3560.553	4329
3562.245	4254
3563.938	4420
3565.629	4278
3567.322	4439
3569.014	4211
3570.704	4253
3572.394	4296
3574.084	4371
3575.775	4340
3577.464	4329
3579.152	4236
3580.842	4228
3582.529	4379
3584.216	4294
3585.905	4316
3587.591	4303
3589.279	4200
3590.964	4280
3592.649	4232
3594.336	4237
3596.021	4197
3597.705	4220
3599.388	4256
3601.072	4199
3602.757	4260
3604.439	4250
3606.122	4293
3607.803	4252
3609.485	4278
3611.167	4186
3612.849	4155
3614.529	4249
3616.208	4261
3617.888	4259
3619.567	4251
3621.247	4087
3622.926	4203
3624.603	4289
3626.281	4134
3627.958	4091
3629.635	4197
3631.312	4123
3632.989	4135
3634.665	4180
3636.339	4175
3638.014	4133
3639.691	4074
3641.364	4147
3643.038	4088
3644.71	4149
3646.384	4117
3648.058	4084
3649.729	4124
3651.402	4054
3653.073	4109
3654.744	4069
3656.414	4010
3658.085	4140
3659.755	4066
3661.424	4041
3663.094	4089
3664.762	4048
3666.431	4041
3668.099	4119
3669.766	4003
3671.433	4042
3673.099	4024
3674.768	4085
3676.433	4052
3678.098	4083
3679.763	4051
3681.428	4041
3683.093	4048
3684.757	4032
3686.421	4102
3688.083	4115
3689.746	4063
3691.408	4093
3693.071	3891
3694.733	4082
3696.394	4042
3698.054	4011
3699.715	4006
3701.375	4040
3703.036	3991
3704.695	3938
3706.354	3946
3708.012	3927
3709.67	4048
3711.329	3922
3712.987	3937
3714.644	4040
3716.299	4065
3717.955	3999
3719.613	3981
3721.268	3865
3722.923	3937
3724.577	3983
3726.231	4011
3727.885	3949
3729.539	3923
3731.192	4004
3732.845	3931
3734.497	3950
3736.149	3961
3737.802	4028
3739.453	3939
3741.104	3853
3742.753	3895
3744.404	3946
3746.052	3899
3747.704	3843
3749.352	3943
3751	3906
3752.648	3910
3754.296	3917
3755.944	3954
3757.59	3893
3759.238	3846
3760.883	4027
3762.528	3812
3764.176	3858
3765.82	3877
3767.464	3899
3769.109	3806
3770.753	3915
3772.396	3857
3774.04	3917
3775.683	3791
3777.325	3764
3778.967	3825
3780.608	3842
3782.25	3889
3783.89	3801
3785.531	3862
3787.17	3917
3788.81	3778
3790.45	3853
3792.09	3832
3793.729	3754
3795.366	3796
3797.003	3720
3798.64	3805
3800.278	3744
3801.915	3797
3803.551	3766
3805.187	3797
3806.822	3757
3808.458	3927
3810.093	3788
3811.726	3773
3813.36	3832
3814.994	3691
3816.627	3746
3818.262	3775
3819.893	3709
3821.525	3796
3823.157	3692
3824.787	3868
3826.42	3758
3828.051	3763
3829.68	3794
3831.31	3755
3832.938	3734
3834.569	3781
3836.198	3760
3837.825	3695
3839.454	3673
3841.08	3773
3842.708	3739
3844.335	3773
3845.962	3756
3847.587	3634
3849.212	3697
3850.838	3632
3852.463	3752
3854.089	3717
3855.712	3713
3857.335	3643
3858.959	3819
3860.582	3699
3862.205	3737
3863.827	3692
3865.449	3644
3867.07	3691
3868.691	3724
3870.312	3651
3871.933	3684
3873.553	3680
3875.173	3694
3876.792	3714
3878.411	3548
3880.03	3645
3881.647	3616
3883.265	3609
3884.882	3703
3886.499	3672
3888.116	3587
3889.732	3660
3891.348	3667
3892.964	3583
3894.579	3607
3896.195	3708
3897.809	3607
3899.423	3683
3901.036	3697
3902.648	3631
3904.261	3623
3905.875	3646
3907.487	3650
3909.099	3607
3910.709	3601
3912.321	3616
3913.933	3629
3915.542	3619
3917.152	3637
3918.762	3649
3920.37	3652
3921.98	3597
3923.589	3575
3925.196	3624
3926.804	3651
3928.41	3600
3930.018	3525
3931.626	3568
3933.231	3589
3934.838	3513
3936.442	3606
3938.046	3610
3939.653	3618
3941.257	3682
3942.861	3560
3944.464	3633
3946.068	3568
3947.67	3515
3949.273	3609
3950.876	3589
3952.477	3585
3954.078	3468
3955.678	3572
3957.281	3605
3958.881	3539
3960.48	3595
3962.079	3538
3963.678	3515
3965.279	3532
3966.877	3482
3968.475	3536
3970.072	3505
3971.669	3473
3973.266	3498
3974.864	3509
3976.459	3485
3978.055	3406
3979.65	3552
3981.245	3454
3982.841	3546
3984.436	3451
3986.03	3495
3987.623	3398
3989.216	3515
3990.809	3430
3992.403	3401
3993.995	3401
3995.586	3442
3997.177	3387
3998.768	3443
4000.361	3493
4001.951	3418
4003.54	3409
4005.13	3429
4006.719	3495
4008.31	3376
4009.897	3380
4011.485	3405
4013.073	3434
4014.66	3364
4016.247	3362
4017.834	3454
4019.421	3406
4021.006	3346
4022.592	3375
4024.178	3401
4025.763	3402
4027.348	3322
4028.932	3458
4030.515	3365
4032.099	3288
4033.682	3357
4035.266	3299
4036.847	3398
4038.429	3268
4040.011	3357
4041.592	3334
4043.173	3368
4044.755	3320
4046.334	3376
4047.913	3258
4049.494	3325
4051.074	3308
4052.652	3348
4054.23	3283
4055.807	3332
4057.385	3275
4058.963	3323
4060.541	3317
4062.117	3315
4063.693	3308
4065.269	3338
4066.844	3332
4068.42	3249
4069.995	3191
4071.569	3313
4073.143	3223
4074.716	3257
4076.291	3271
4077.864	3343
4079.436	3260
4081.009	3230
4082.58	3177
4084.152	3283
4085.723	3270
4087.294	3259
4088.865	3259
4090.435	3289
4092.005	3255
4093.574	3144
4095.143	3210
4096.712	3264
4098.279	3229
4099.848	3268
4101.416	3218
4102.984	3337
4104.55	3178
4106.117	3182
4107.682	3240
4109.248	3217
4110.815	3211
4112.379	3218
4113.945	3229
4115.508	3199
4117.073	3153
4118.637	3146
4120.201	3206
4121.763	3236
4123.325	3192
4124.888	3140
4126.449	3165
4128.013	3138
4129.573	3190
4131.133	3138
4132.694	3122
4134.254	3142
4135.814	3134
4137.374	3132
4138.933	3156
4140.491	3179
4142.049	3143
4143.607	3143
4145.167	3119
4146.724	3189
4148.28	3152
4149.836	3077
4151.392	3112
4152.949	3130
4154.504	3081
4156.059	3083
4157.614	3161
4159.168	3106
4160.723	3092
4162.277	3118
4163.83	3160
4165.383	3116
4166.936	3070
4168.488	3110
4170.041	3095
4171.593	3036
4173.144	3100
4174.695	3022
4176.246	3077
4177.796	3023
4179.346	3091
4180.896	3058
4182.445	3050
4183.994	3056
4185.542	3026
4187.091	3107
4188.639	3055
4190.185	3043
4191.732	3048
4193.279	3007
4194.826	3006
4196.373	3044
4197.918	2966
4199.463	3083
4201.008	3036
4202.553	3054
4204.098	3020
4205.641	3026
4207.185	2903
4208.728	2986
4210.271	2998
4211.814	3048
4213.357	2890
4214.898	3043
4216.439	2995
4217.98	2946
4219.522	2988
4221.062	3000
4222.603	2989
4224.142	2990
4225.681	2964
4227.222	3008
4228.76	2961
4230.298	2962
4231.835	2923
4233.373	3001
4234.911	2943
4236.449	3042
4237.985	2940
4239.521	2958
4241.057	2972
4242.592	3007
4244.128	2994
4245.663	2962
4247.197	2977
4248.731	2973
4250.265	2939
4251.798	2924
4253.333	2952
4254.865	3019
4256.397	2919
4257.93	2931
4259.461	2897
4260.994	2915
4262.525	2909
4264.056	2944
4265.586	2904
4267.115	2959
4268.646	2959
4270.176	2878
4271.705	2929
4273.232	2939
4274.761	2907
4276.289	2888
4277.818	2898
4279.345	2890
4280.872	2863
4282.399	2932
4283.924	2935
4285.452	2859
4286.976	2905
4288.502	2952
4290.026	2916
4291.551	2798
4293.074	2813
4294.6	2882
4296.123	2840
4297.646	2852
4299.168	2903
4300.691	2918
4302.214	2811
4303.736	2883
4305.257	2847
4306.778	2820
4308.299	2881
4309.82	2843
4311.34	2825
4312.86	2798
4314.379	2774
