400.0745	3937
402.597	3934
405.1208	3909
407.6419	3907
410.1623	3969
412.6819	3989
415.201	4008
417.7172	4051
420.2369	4092
422.7538	4100
425.2701	4199
427.7856	4205
430.3005	4324
432.8147	4271
435.3282	4268
437.841	4206
440.3511	4294
442.8625	4336
445.3753	4328
447.8854	4312
450.3927	4244
452.9014	4186
455.4073	4270
457.9146	4233
460.4233	4161
462.9272	4151
465.4325	4260
467.935	4203
470.4389	4203
472.9421	4046
475.4446	4194
477.9444	4186
480.4456	4163
482.944	4215
485.4417	4211
487.9429	4200
490.4393	4190
492.935	4279
495.4321	4208
497.9264	4291
500.4221	4305
502.9171	4237
505.4094	4257
507.9011	4323
510.392	4334
512.8864	4303
515.3759	4393
517.8649	4297
520.3531	4418
522.8406	4362
525.3275	4330
527.8178	4291
530.3033	4350
532.7881	4330
535.2723	4346
537.7558	4364
540.2407	4407
542.7228	4321
545.2043	4325
547.6851	4351
550.1652	4415
552.6467	4359
555.1255	4409
557.6016	4412
560.079	4420
562.5557	4335
565.0318	4473
567.5092	4463
569.984	4462
572.456	4376
574.9294	4516
577.4022	4519
579.8762	4540
582.3456	4524
584.8163	4543
587.2863	4563
589.7557	4646
592.2224	4624
594.6924	4638
597.1578	4591
599.6245	4479
602.0905	4511
604.5538	4461
607.0206	4460
609.4825	4519
611.9459	4472
614.4066	4591
616.8686	4576
619.33	4536
621.7906	4570
624.2487	4507
626.708	4527
629.1647	4473
631.6207	4516
634.0801	4393
636.5348	4501
638.9888	4407
641.4442	4426
643.8969	4431
646.3509	4546
648.8022	4534
651.255	4557
653.705	4467
656.1544	4493
658.6031	4506
661.0532	4480
663.5026	4510
665.9493	4507
668.3954	4565
670.8409	4618
673.2877	4483
675.7318	4658
678.1752	4521
680.618	4560
683.0601	4601
685.5035	4520
687.9444	4695
690.3845	4651
692.824	4530
695.2628	4708
697.701	4620
700.1406	4623
702.5774	4535
705.0116	4700
707.4472	4682
709.8821	4617
712.3183	4658
714.7519	4729
717.1829	4658
719.6151	4720
722.0468	4650
724.4777	4664
726.908	4648
729.3377	4730
731.7667	4819
734.1931	4768
736.6208	4744
739.0498	4892
741.4742	4808
743.9	4820
746.3231	4733
748.7476	4898
751.1713	4806
753.5945	4885
756.015	4969
758.4368	4915
760.856	4948
763.2766	4926
765.6965	4987
768.1157	4947
770.5323	4995
772.9483	4924
775.3656	4956
777.7822	4999
780.1963	4895
782.6116	4969
785.0244	4957
787.4365	5055
789.8499	4918
792.2626	4996
794.6728	5053
797.0823	5059
799.4911	4925
801.8994	4993
804.3109	4967
806.7178	5047
809.124	4954
811.5297	5068
813.9347	5037
816.341	5052
818.7447	4984
821.1478	5045
823.5502	4994
825.952	5090
828.3531	5074
830.7556	5010
833.1554	5018
835.5546	5096
837.9532	5143
840.3511	5072
842.7504	5170
845.1451	5120
847.5411	5228
849.9365	5295
852.3312	5264
854.7272	5208
857.1187	5239
859.5115	5238
861.9037	5210
864.2952	5220
866.6842	5177
869.0764	5137
871.4661	5235
873.8531	5282
876.2415	5209
878.6272	5139
881.0162	5182
883.4026	5116
885.7866	5170
888.1717	5192
890.5543	5273
892.9382	5152
895.3215	5146
897.7041	5143
900.0842	5178
902.4655	5114
904.8443	5269
907.2244	5271
909.6039	5245
911.9808	5273
914.357	5331
916.7346	5446
919.1115	5389
921.4859	5465
923.8616	5502
926.2347	5439
928.6071	5439
930.979	5475
933.3541	5533
935.7247	5504
938.0946	5570
940.4639	5588
942.8326	5630
945.2026	5745
947.5701	5921
949.9369	6084
952.305	6309
954.6705	6548
957.0355	6813
959.4017	7208
961.7654	7438
964.1284	7390
966.4908	7083
968.8527	6733
971.2138	6442
973.5743	5978
975.9343	5906
978.2936	5606
980.6522	5515
983.0122	5481
985.3696	5406
987.7245	5317
990.0807	5358
992.4362	5423
994.7911	5358
997.1474	5290
999.4991	5410
1001.852	5459
1004.205	5449
1006.555	5461
1008.908	5562
1011.258	5318
1013.606	5363
1015.956	5425
1018.302	5457
1020.652	5396
1022.998	5523
1025.345	5435
1027.691	5436
1030.035	5503
1032.378	5462
1034.724	5503
1037.066	5572
1039.409	5429
1041.75	5486
1044.092	5524
1046.433	5470
1048.771	5503
1051.112	5513
1053.449	5571
1055.786	5475
1058.124	5524
1060.462	5402
1062.797	5487
1065.131	5623
1067.467	5583
1069.8	5618
1072.135	5655
1074.467	5612
1076.798	5623
1079.129	5604
1081.459	5643
1083.792	5525
1086.121	5445
1088.449	5552
1090.777	5520
1093.104	5536
1095.431	5441
1097.759	5423
1100.084	5507
1102.408	5436
1104.732	5518
1107.056	5477
1109.379	5475
1111.701	5471
1114.022	5496
1116.343	5592
1118.664	5408
1120.983	5417
1123.303	5531
1125.621	5402
1127.939	5553
1130.256	5415
1132.573	5569
1134.889	5435
1137.205	5330
1139.52	5332
1141.832	5393
1144.146	5481
1146.461	5375
1148.771	5388
1151.083	5457
1153.392	5327
1155.703	5337
1158.011	5522
1160.323	5372
1162.629	5528
1164.938	5415
1167.243	5391
1169.55	5413
1171.857	5430
1174.163	5464
1176.466	5374
1178.769	5454
1181.073	5423
1183.374	5406
1185.677	5553
1187.979	5361
1190.279	5407
1192.578	5394
1194.878	5458
1197.178	5372
1199.476	5426
1201.772	5463
1204.068	5410
1206.366	5391
1208.663	5488
1210.957	5523
1213.251	5545
1215.544	5424
1217.836	5453
1220.128	5466
1222.421	5515
1224.712	5535
1227.002	5579
1229.292	5498
1231.581	5589
1233.871	5531
1236.159	5606
1238.446	5751
1240.732	5689
1243.018	5753
1245.304	5697
1247.59	5807
1249.874	5780
1252.156	5712
1254.439	5773
1256.721	5734
1259.005	5751
1261.286	5789
1263.565	5710
1265.845	5727
1268.125	5782
1270.403	5831
1272.682	5719
1274.959	5750
1277.234	5718
1279.511	5663
1281.787	5669
1284.062	5654
1286.337	5630
1288.609	5715
1290.882	5585
1293.153	5546
1295.428	5561
1297.698	5580
1299.969	5533
1302.237	5571
1304.507	5426
1306.777	5550
1309.044	5440
1311.312	5532
1313.578	5633
1315.844	5584
1318.109	5562
1320.375	5616
1322.638	5612
1324.903	5653
1327.165	5449
1329.427	5675
1331.69	5617
1333.952	5642
1336.212	5603
1338.471	5719
1340.73	5586
1342.988	5556
1345.248	5601
1347.505	5620
1349.763	5589
1352.019	5534
1354.274	5446
1356.53	5441
1358.784	5553
1361.038	5553
1363.291	5510
1365.543	5441
1367.797	5609
1370.048	5555
1372.296	5594
1374.546	5610
1376.796	5606
1379.045	5563
1381.295	5614
1383.542	5644
1385.787	5605
1388.034	5750
1390.28	5701
1392.527	5651
1394.772	5691
1397.014	5740
1399.258	5690
1401.501	5805
1403.741	5692
1405.985	5663
1408.226	5626
1410.465	5703
1412.705	5682
1414.943	5616
1417.184	5771
1419.42	5803
1421.658	5801
1423.894	5696
1426.13	5885
1428.366	5798
1430.602	5796
1432.835	5866
1435.069	5918
1437.301	5845
1439.535	5904
1441.767	5959
1443.997	5879
1446.229	5954
1448.458	5937
1450.687	5917
1452.916	6017
1455.146	6031
1457.372	6057
1459.599	5916
1461.824	5909
1464.051	5896
1466.277	5935
1468.501	5831
1470.725	5931
1472.948	5765
1475.17	5808
1477.393	5793
1479.614	5669
1481.837	5617
1484.057	5614
1486.276	5597
1488.497	5600
1490.715	5548
1492.932	5556
1495.148	5528
1497.364	5516
1499.58	5500
1501.798	5531
1504.012	5513
1506.227	5510
1508.44	5505
1510.653	5483
1512.866	5501
1515.078	5442
1517.289	5463
1519.5	5499
1521.711	5567
1523.92	5508
1526.13	5482
1528.338	5573
1530.544	5460
1532.752	5506
1534.959	5569
1537.165	5505
1539.371	5443
1541.574	5488
1543.779	5555
1545.983	5548
1548.187	5557
1550.39	5588
1552.59	5607
1554.792	5612
1556.991	5513
1559.19	5501
1561.392	5600
1563.59	5561
1565.789	5548
1567.986	5599
1570.182	5599
1572.381	5611
1574.576	5559
1576.771	5648
1578.966	5699
1581.16	5644
1583.354	5739
1585.546	5688
1587.74	5626
1589.931	5598
1592.121	5651
1594.311	5662
1596.502	5665
1598.693	5752
1600.881	5678
1603.069	5720
1605.256	5723
1607.445	5664
1609.631	5732
1611.816	5716
1614.001	5754
1616.186	5713
1618.37	5768
1620.555	5792
1622.737	5673
1624.919	5781
1627.101	5703
1629.282	5775
1631.463	5745
1633.643	5786
1635.822	5644
1638.001	5850
1640.179	5750
1642.359	5852
1644.534	5842
1646.711	5915
1648.887	5900
1651.062	5888
1653.235	5851
1655.412	5853
1657.586	5857
1659.757	5841
1661.93	5912
1664.1	5867
1666.274	5900
1668.445	5904
1670.614	5861
1672.784	5991
1674.951	5948
1677.12	5991
1679.289	5930
1681.457	5776
1683.622	5937
1685.789	5729
1687.953	5893
1690.121	5975
1692.284	5782
1694.447	5923
1696.611	5811
1698.772	5689
1700.935	5678
1703.098	5703
1705.258	5701
1707.417	5660
1709.576	5740
1711.736	5667
1713.896	5607
1716.053	5661
1718.21	5675
1720.366	5643
1722.522	5659
1724.68	5744
1726.835	5656
1728.989	5689
1731.142	5609
1733.295	5613
1735.449	5527
1737.601	5592
1739.753	5724
1741.903	5632
1744.054	5551
1746.203	5619
1748.354	5659
1750.503	5673
1752.651	5641
1754.798	5598
1756.944	5638
1759.092	5609
1761.238	5623
1763.383	5627
1765.528	5763
1767.672	5691
1769.814	5737
1771.959	5678
1774.102	5603
1776.242	5631
1778.384	5673
1780.525	5630
1782.665	5746
1784.805	5633
1786.945	5625
1789.082	5588
1791.22	5652
1793.36	5738
1795.495	5571
1797.632	5762
1799.766	5593
1801.902	5677
1804.035	5693
1806.172	5647
1808.304	5637
1810.436	5730
1812.569	5656
1814.699	5742
1816.833	5636
1818.963	5693
1821.092	5740
1823.222	5674
1825.35	5695
1827.478	5667
1829.608	5661
1831.734	5701
1833.86	5691
1835.986	5641
1838.11	5660
1840.238	5607
1842.362	5680
1844.485	5532
1846.608	5679
1848.73	5790
1850.853	5507
1852.974	5649
1855.097	5614
1857.217	5553
1859.336	5604
1861.455	5647
1863.576	5641
1865.693	5584
1867.811	5567
1869.926	5620
1872.042	5685
1874.16	5582
1876.275	5631
1878.39	5524
1880.504	5578
1882.618	5648
1884.731	5681
1886.843	5597
1888.956	5620
1891.067	5696
1893.178	5727
1895.287	5602
1897.399	5648
1899.508	5641
1901.617	5627
1903.724	5664
1905.832	5733
1907.941	5575
1910.046	5736
1912.152	5713
1914.256	5706
1916.361	5783
1918.464	5702
1920.57	5632
1922.672	5571
1924.775	5755
1926.876	5609
1928.978	5717
1931.08	5614
1933.181	5765
1935.28	5826
1937.38	5758
1939.478	5644
1941.577	5667
1943.675	5677
1945.771	5712
1947.867	5762
1949.964	5740
1952.058	5688
1954.154	5681
1956.248	5732
1958.343	5638
1960.435	5605
1962.527	5668
1964.62	5650
1966.711	5677
1968.802	5628
1970.892	5616
1972.983	5673
1975.072	5685
1977.162	5653
1979.25	5734
1981.337	5580
1983.424	5595
1985.51	5662
1987.598	5696
1989.683	5661
1991.768	5719
1993.852	5597
1995.934	5744
1998.019	5591
2000.102	5551
2002.184	5570
2004.266	5681
2006.347	5667
2008.427	5555
2010.508	5606
2012.587	5648
2014.666	5561
2016.745	5585
2018.821	5622
2020.9	5641
2022.977	5673
2025.052	5648
2027.128	5595
2029.204	5617
2031.277	5681
2033.353	5625
2035.425	5609
2037.499	5550
2039.57	5600
2041.642	5526
2043.714	5686
2045.786	5599
2047.855	5715
2049.925	5616
2051.993	5571
2054.064	5682
2056.132	5719
2058.2	5623
2060.266	5510
2062.332	5702
2064.398	5612
2066.465	5600
2068.529	5645
2070.592	5577
2072.657	5624
2074.719	5635
2076.783	5606
2078.845	5677
2080.907	5660
2082.968	5663
2085.028	5537
2087.087	5617
2089.148	5609
2091.207	5620
2093.264	5656
2095.322	5650
2097.379	5640
2099.439	5616
2101.495	5578
2103.55	5606
2105.605	5519
2107.658	5717
2109.713	5584
2111.767	5646
2113.82	5643
2115.872	5628
2117.924	5667
2119.975	5625
2122.028	5585
2124.078	5564
2126.126	5676
2128.176	5570
2130.225	5513
2132.275	5583
2134.321	5526
2136.368	5583
2138.415	5617
2140.461	5499
2142.505	5618
2144.552	5581
2146.597	5574
2148.64	5557
2150.684	5586
2152.725	5639
2154.77	5493
2156.811	5518
2158.852	5663
2160.894	5547
2162.933	5582
2164.973	5478
2167.013	5607
2169.051	5555
2171.089	5530
2173.126	5585
2175.164	5516
2177.201	5518
2179.236	5537
2181.273	5576
2183.307	5365
2185.341	5631
2187.377	5411
2189.41	5516
2191.442	5492
2193.473	5577
2195.506	5422
2197.539	5487
2199.569	5538
2201.598	5457
2203.628	5441
2205.656	5487
2207.686	5509
2209.716	5379
2211.743	5498
2213.769	5530
2215.796	5482
2217.821	5416
2219.848	5439
2221.873	5368
2223.897	5388
2225.921	5450
2227.944	5388
2229.967	5381
2231.991	5375
2234.011	5425
2236.032	5451
2238.053	5404
2240.073	5477
2242.094	5482
2244.114	5478
2246.131	5368
2248.149	5461
2250.167	5397
2252.186	5473
2254.201	5465
2256.218	5388
2258.233	5384
2260.247	5474
2262.262	5430
2264.278	5401
2266.29	5402
2268.303	5438
2270.315	5421
2272.327	5407
2274.341	5473
2276.35	5535
2278.361	5444
2280.37	5450
2282.38	5360
2284.388	5297
2286.397	5454
2288.405	5396
2290.412	5388
2292.419	5445
2294.425	5407
2296.431	5519
2298.437	5368
2300.441	5375
2302.445	5525
2304.449	5417
2306.453	5427
2308.455	5388
2310.457	5473
2312.459	5433
2314.46	5383
2316.46	5403
2318.461	5385
2320.46	5399
2322.458	5354
2324.458	5418
2326.456	5242
2328.455	5406
2330.451	5359
2332.447	5335
2334.443	5398
2336.438	5369
2338.433	5306
2340.429	5403
2342.422	5227
2344.416	5352
2346.408	5277
2348.399	5241
2350.393	5351
2352.384	5356
2354.375	5231
2356.365	5358
2358.355	5232
2360.344	5322
2362.333	5366
2364.322	5379
2366.309	5172
2368.295	5311
2370.282	5344
2372.27	5193
2374.256	5178
2376.24	5346
2378.225	5233
2380.208	5255
2382.194	5404
2384.177	5223
2386.159	5269
2388.142	5250
2390.122	5232
2392.105	5228
2394.085	5223
2396.066	5184
2398.044	5310
2400.024	5219
2402.002	5178
2403.982	5292
2405.959	5232
2407.935	5283
2409.913	5160
2411.888	5225
2413.865	5287
2415.84	5188
2417.814	5155
2419.788	5312
2421.762	5234
2423.735	5217
2425.708	5178
2427.68	5224
2429.651	5331
2431.623	5276
2433.593	5276
2435.564	5269
2437.533	5180
2439.502	5233
2441.47	5135
2443.438	5306
2445.406	5185
2447.373	5285
2449.34	5215
2451.305	5173
2453.271	5108
2455.235	5150
2457.201	5160
2459.165	5095
2461.129	5102
2463.092	5202
2465.054	5121
2467.018	5167
2468.978	5254
2470.939	5101
2472.899	5263
2474.86	5249
2476.819	5106
2478.778	5136
2480.737	5271
2482.695	5136
2484.653	5241
2486.609	5177
2488.567	5203
2490.524	5141
2492.478	5223
2494.433	5159
2496.387	5181
2498.343	5168
2500.297	5191
2502.249	5120
2504.202	5082
2506.153	5086
2508.105	5102
2510.057	5173
2512.008	5181
2513.957	5121
2515.906	5008
2517.855	5125
2519.805	5098
2521.754	5157
2523.7	5174
2525.647	5080
2527.594	5117
2529.54	5082
2531.486	5016
2533.431	5137
2535.376	5218
2537.32	5144
2539.263	5085
2541.207	5127
2543.151	5051
2545.093	5089
2547.034	5048
2548.975	5067
2550.917	5056
2552.856	5123
2554.796	5036
2556.735	5052
2558.673	5060
2560.611	5096
2562.55	5196
2564.487	5168
2566.424	4967
2568.36	5065
2570.296	5075
2572.232	5078
2574.167	5114
2576.101	5139
2578.035	5132
2579.969	5098
2581.902	5038
2583.834	5169
2585.766	5091
2587.698	5061
2589.628	5157
2591.557	5073
2593.489	5182
2595.419	5068
2597.348	5061
2599.275	5077
2601.204	5118
2603.131	5035
2605.059	5116
2606.986	5159
2608.911	5154
2610.837	5125
2612.76	5148
2614.687	5097
2616.61	5143
2618.534	5081
2620.457	5150
2622.38	5170
2624.302	5158
2626.225	5134
2628.145	5178
2630.067	5235
2631.986	5022
2633.906	5192
2635.827	5120
2637.745	5136
2639.662	5120
2641.581	5042
2643.498	5096
2645.415	5060
2647.331	5159
2649.248	5102
2651.163	5024
2653.077	5179
2654.993	5130
2656.906	5197
2658.821	5103
2660.733	5010
2662.646	5037
2664.557	5094
2666.47	5027
2668.381	5058
2670.291	5157
2672.201	5054
2674.11	5047
2676.021	4994
2677.929	5140
2679.837	5073
2681.745	4997
2683.652	5091
2685.56	4991
2687.466	5054
2689.371	5083
2691.276	5046
2693.181	5056
2695.085	5023
2696.991	5008
2698.893	5005
2700.796	5012
2702.698	5079
2704.601	5022
2706.502	5086
2708.404	4989
2710.304	4956
2712.203	5055
2714.103	5022
2716.003	5088
2717.902	4992
2719.8	4994
2721.697	5002
2723.594	4957
2725.49	5083
2727.389	4970
2729.283	4932
2731.179	4982
2733.073	5015
2734.968	5040
2736.863	4959
2738.757	4892
2740.649	5075
2742.541	4983
2744.433	5046
2746.324	4928
2748.216	5040
2750.107	4959
2751.997	4909
2753.886	4912
2755.776	4944
2757.666	4991
2759.553	4984
2761.44	5004
2763.327	4911
2765.215	5015
2767.102	4966
2768.988	4992
2770.873	4969
2772.757	4955
2774.641	4888
2776.525	5003
2778.41	5009
2780.292	5066
2782.175	4965
2784.057	4908
2785.938	4988
2787.821	4868
2789.701	4978
2791.581	4924
2793.461	4931
2795.34	4824
2797.219	4891
2799.099	4898
2800.975	4968
2802.853	4972
2804.73	4824
2806.606	4778
2808.484	4916
2810.358	4902
2812.233	4866
2814.108	4903
2815.981	4902
2817.857	4965
2819.73	4917
2821.602	4948
2823.474	4875
2825.346	4946
2827.217	4827
2829.089	4884
2830.959	4979
2832.829	4984
2834.698	5036
2836.567	5004
2838.436	4966
2840.305	4869
2842.172	5022
2844.04	5038
2845.905	4911
2847.772	4989
2849.639	4915
2851.503	4986
2853.369	4974
2855.232	5027
2857.096	5085
2858.961	5061
2860.824	5147
2862.686	5193
2864.547	5182
2866.41	5176
2868.272	5319
2870.132	5372
2871.992	5355
2873.851	5464
2875.711	5554
2877.57	5474
2879.429	5460
2881.287	5693
2883.144	5679
2885.001	5672
2886.857	5796
2888.714	5766
2890.57	5704
2892.425	5778
2894.279	5660
2896.133	5654
2897.987	5760
2899.842	5681
2901.694	5659
2903.547	5672
2905.397	5619
2907.249	5624
2909.101	5679
2910.952	5772
2912.802	5781
2914.652	5735
2916.5	5825
2918.35	5964
2920.198	5943
2922.045	6044
2923.893	6077
2925.74	6091
2927.585	6278
2929.433	6283
2931.279	6414
2933.123	6442
2934.968	6497
2936.811	6623
2938.656	6745
2940.5	6653
2942.342	6922
2944.185	6850
2946.026	6846
2947.87	6929
2949.71	6780
2951.549	6761
2953.39	6781
2955.229	6607
2957.069	6498
2958.908	6617
2960.746	6385
2962.584	6330
2964.421	6300
2966.257	6382
2968.094	6207
2969.931	6161
2971.766	5919
2973.601	5970
2975.435	6068
2977.27	6015
2979.105	5912
2980.938	5892
2982.77	5853
2984.602	5742
2986.434	5732
2988.267	5723
2990.097	5728
2991.927	5666
2993.757	5626
2995.587	5460
2997.417	5344
2999.246	5455
3001.074	5420
3002.902	5354
3004.729	5297
3006.556	5163
3008.384	5136
3010.21	5001
3012.036	5087
3013.861	5000
3015.684	4983
3017.51	4963
3019.334	4950
3021.157	4894
3022.981	4914
3024.802	4802
3026.624	4804
3028.448	4774
3030.267	4790
3032.088	4712
3033.909	4768
3035.728	4805
3037.549	4825
3039.368	4655
3041.186	4597
3043.004	4601
3044.821	4642
3046.64	4601
3048.455	4685
3050.272	4672
3052.087	4652
3053.903	4690
3055.717	4581
3057.534	4700
3059.347	4598
3061.16	4609
3062.974	4617
3064.785	4734
3066.598	4746
3068.411	4706
3070.222	4628
3072.032	4549
3073.844	4618
3075.653	4536
3077.463	4668
3079.272	4608
3081.08	4584
3082.889	4580
3084.697	4468
3086.505	4499
3088.312	4508
3090.118	4509
3091.924	4528
3093.729	4493
3095.535	4493
3097.34	4455
3099.144	4458
3100.947	4485
3102.75	4437
3104.553	4468
3106.357	4529
3108.159	4577
3109.961	4480
3111.762	4437
3113.562	4463
3115.365	4495
3117.164	4540
3118.964	4510
3120.761	4428
3122.56	4429
3124.36	4441
3126.158	4312
3127.954	4395
3129.75	4412
3131.547	4451
3133.343	4414
3135.139	4451
3136.934	4322
3138.729	4388
3140.522	4431
3142.317	4361
3144.11	4431
3145.904	4393
3147.695	4409
3149.488	4466
3151.28	4413
3153.07	4433
3154.863	4400
3156.652	4394
3158.441	4340
3160.231	4350
3162.019	4304
3163.81	4255
3165.597	4380
3167.384	4430
3169.172	4266
3170.958	4373
3172.745	4382
3174.532	4408
3176.317	4334
3178.101	4407
3179.885	4294
3181.67	4342
3183.455	4404
3185.238	4383
3187.02	4286
3188.802	4299
3190.585	4353
3192.368	4361
3194.149	4378
3195.929	4408
3197.709	4299
3199.489	4379
3201.268	4272
3203.048	4382
3204.826	4318
3206.604	4258
3208.382	4339
3210.159	4315
3211.937	4312
3213.713	4400
3215.489	4354
3217.263	4253
3219.038	4315
3220.815	4307
3222.589	4303
3224.363	4373
3226.136	4422
3227.908	4338
3229.681	4327
3231.454	4374
3233.226	4345
3234.996	4294
3236.767	4268
3238.538	4336
3240.308	4392
3242.078	4276
3243.847	4332
3245.615	4270
3247.384	4345
3249.15	4402
3250.92	4297
3252.686	4413
3254.453	4275
3256.218	4319
3257.984	4329
3259.75	4401
3261.515	4344
3263.279	4378
3265.044	4307
3266.806	4466
3268.57	4406
3270.334	4341
3272.095	4311
3273.856	4372
3275.619	4356
3277.379	4372
3279.14	4385
3280.9	4326
3282.661	4332
3284.419	4382
3286.178	4351
3287.937	4352
3289.695	4273
3291.453	4315
3293.21	4337
3294.967	4389
3296.723	4338
3298.48	4347
3300.235	4394
3301.99	4350
3303.744	4334
3305.498	4393
3307.253	4309
3309.006	4282
3310.759	4332
3312.511	4325
3314.263	4345
3316.017	4371
3317.768	4302
3319.519	4399
3321.268	4323
3323.018	4360
3324.767	4433
3326.518	4384
3328.267	4396
3330.014	4301
3331.762	4336
3333.509	4392
3335.258	4298
3337.003	4232
3338.75	4336
3340.496	4375
3342.24	4307
3343.987	4302
3345.732	4295
3347.475	4307
3349.219	4251
3350.961	4301
3352.705	4262
3354.448	4331
3356.19	4260
3357.931	4315
3359.672	4278
3361.412	4309
3363.155	4244
3364.894	4350
3366.633	4275
3368.372	4214
3370.11	4251
3371.849	4179
3373.588	4326
3375.325	4175
3377.061	4226
3378.799	4228
3380.534	4302
3382.271	4170
3384.006	4241
3385.741	4275
3387.475	4185
3389.209	4220
3390.944	4247
3392.677	4104
3394.409	4209
3396.143	4175
3397.874	4131
3399.606	4102
3401.338	4158
3403.069	4212
3404.799	4181
3406.528	4208
3408.258	4124
3409.988	4221
3411.717	4099
3413.445	4189
3415.173	4138
3416.899	4131
3418.626	4159
3420.354	4163
3422.08	4156
3423.806	4221
3425.531	4043
3427.255	4080
3428.981	4051
3430.705	4074
3432.429	4164
3434.151	4159
3435.875	4213
3437.599	4120
3439.321	4081
3441.042	4028
3442.763	4098
3444.483	4037
3446.204	4069
3447.926	4076
3449.645	3951
3451.364	4004
3453.082	4047
3454.801	4060
3456.52	4096
3458.238	4020
3459.954	3919
3461.671	4051
3463.387	3973
3465.104	3932
3466.82	3944
3468.534	3982
3470.25	4013
3471.963	3939
3473.676	3965
3475.392	3969
3477.104	3955
3478.817	3905
3480.528	3873
3482.241	3881
3483.954	3843
3485.664	3868
3487.374	3878
3489.084	3934
3490.795	3846
3492.504	3996
3494.214	3846
3495.922	3868
3497.63	3821
3499.338	3829
3501.045	3811
3502.753	3860
3504.459	3870
3506.166	3909
3507.871	3812
3509.576	3772
3511.283	3763
3512.987	3709
3514.691	3786
3516.395	3785
3518.098	3868
3519.8	3753
3521.504	3735
3523.206	3810
3524.908	3826
3526.609	3773
3528.309	3789
3530.011	3778
3531.711	3772
3533.411	3727
3535.109	3752
3536.808	3777
3538.507	3725
3540.206	3669
3541.904	3715
3543.601	3702
3545.297	3746
3546.994	3722
3548.69	3712
3550.387	3671
3552.081	3750
3553.776	3766
3555.47	3757
3557.166	3679
3558.859	3639
3560.553	3665
3562.245	3685
3563.938	3623
3565.629	3641
3567.322	3640
3569.014	3587
3570.704	3628
3572.394	3629
3574.084	3670
3575.775	3517
3577.464	3763
3579.152	3651
3580.842	3626
3582.529	3656
3584.216	3571
3585.905	3650
3587.591	3534
3589.279	3560
3590.964	3594
3592.649	3531
3594.336	3597
3596.021	3478
3597.705	3569
3599.388	3547
3601.072	3524
3602.757	3525
3604.439	3537
3606.122	3460
3607.803	3461
3609.485	3526
3611.167	3553
3612.849	3404
3614.529	3473
3616.208	3529
3617.888	3397
3619.567	3454
3621.247	3547
3622.926	3433
3624.603	3441
3626.281	3396
3627.958	3457
3629.635	3394
3631.312	3418
3632.989	3467
3634.665	3374
3636.339	3379
3638.014	3367
3639.691	3442
3641.364	3410
3643.038	3371
3644.71	3381
3646.384	3317
3648.058	3346
3649.729	3314
3651.402	3376
3653.073	3357
3654.744	3385
3656.414	3326
3658.085	3440
3659.755	3242
3661.424	3314
3663.094	3292
3664.762	3291
3666.431	3294
3668.099	3318
3669.766	3255
3671.433	3243
3673.099	3377
3674.768	3240
3676.433	3308
3678.098	3327
3679.763	3271
3681.428	3348
3683.093	3260
3684.757	3292
3686.421	3256
3688.083	3270
3689.746	3224
3691.408	3381
3693.071	3215
3694.733	3278
3696.394	3240
3698.054	3295
3699.715	3273
3701.375	3189
3703.036	3236
3704.695	3294
3706.354	3310
3708.012	3197
3709.67	3276
3711.329	3183
3712.987	3205
3714.644	3269
3716.299	3204
3717.955	3179
3719.613	3172
3721.268	3251
3722.923	3222
3724.577	3174
3726.231	3179
3727.885	3135
3729.539	3170
3731.192	3197
3732.845	3075
3734.497	3215
3736.149	3132
3737.802	3153
3739.453	3147
3741.104	3153
3742.753	3133
3744.404	3130
3746.052	3105
3747.704	3099
3749.352	3158
3751	3213
3752.648	3065
3754.296	3179
3755.944	3168
3757.59	3079
3759.238	3198
3760.883	3050
3762.528	3126
3764.176	3152
3765.82	3157
3767.464	3081
3769.109	3110
3770.753	3121
3772.396	3097
3774.04	3101
3775.683	3177
3777.325	3116
3778.967	3122
3780.608	3052
3782.25	3034
3783.89	3077
3785.531	3107
3787.17	3075
3788.81	3100
3790.45	3107
3792.09	3120
3793.729	3051
3795.366	3114
3797.003	3056
3798.64	2976
3800.278	2984
3801.915	3079
3803.551	3074
3805.187	3038
3806.822	3002
3808.458	3038
3810.093	3046
3811.726	3030
3813.36	2987
3814.994	3066
3816.627	3000
3818.262	3040
3819.893	2975
3821.525	2988
3823.157	2981
3824.787	2982
3826.42	2952
3828.051	3116
3829.68	2922
3831.31	3014
3832.938	3003
3834.569	3003
3836.198	2937
3837.825	2949
3839.454	3018
3841.08	2999
3842.708	2951
3844.335	3015
3845.962	2975
3847.587	2971
3849.212	2980
3850.838	2947
3852.463	3044
3854.089	2938
3855.712	2963
3857.335	2969
3858.959	2952
3860.582	2926
3862.205	2925
3863.827	2913
3865.449	2930
3867.07	2971
3868.691	2969
3870.312	2923
3871.933	2933
3873.553	2929
3875.173	2915
3876.792	2984
3878.411	2885
3880.03	2981
3881.647	2918
3883.265	2921
3884.882	2885
3886.499	2945
3888.116	2893
3889.732	2885
3891.348	2938
3892.964	2909
3894.579	2891
3896.195	2911
3897.809	2909
3899.423	2963
3901.036	2917
3902.648	2876
3904.261	2964
3905.875	2890
3907.487	2833
3909.099	2873
3910.709	2878
3912.321	2857
3913.933	2890
3915.542	2914
3917.152	2902
3918.762	2939
3920.37	2891
3921.98	2825
3923.589	2851
3925.196	2873
3926.804	2945
3928.41	2901
3930.018	2852
3931.626	2965
3933.231	2897
3934.838	2827
3936.442	2790
3938.046	2851
3939.653	2914
3941.257	2866
3942.861	2854
3944.464	2827
3946.068	2928
3947.67	2793
3949.273	2785
3950.876	2859
3952.477	2843
3954.078	2815
3955.678	2819
3957.281	2856
3958.881	2791
3960.48	2918
3962.079	2797
3963.678	2869
3965.279	2812
3966.877	2775
3968.475	2833
3970.072	2803
3971.669	2783
3973.266	2845
3974.864	2802
3976.459	2715
3978.055	2814
3979.65	2822
3981.245	2776
3982.841	2765
3984.436	2794
3986.03	2767
3987.623	2736
3989.216	2790
3990.809	2767
3992.403	2711
3993.995	2715
3995.586	2806
3997.177	2738
3998.768	2733
4000.361	2711
4001.951	2724
4003.54	2713
4005.13	2749
4006.719	2695
4008.31	2740
4009.897	2759
4011.485	2687
4013.073	2704
4014.66	2663
4016.247	2671
4017.834	2636
4019.421	2744
4021.006	2721
4022.592	2700
4024.178	2654
4025.763	2647
4027.348	2658
4028.932	2649
4030.515	2676
4032.099	2659
4033.682	2634
4035.266	2637
4036.847	2684
4038.429	2659
4040.011	2694
4041.592	2605
4043.173	2604
4044.755	2669
4046.334	2665
4047.913	2623
4049.494	2648
4051.074	2606
4052.652	2654
4054.23	2616
4055.807	2618
4057.385	2633
4058.963	2629
4060.541	2587
4062.117	2617
4063.693	2620
4065.269	2635
4066.844	2610
4068.42	2627
4069.995	2556
4071.569	2589
4073.143	2602
4074.716	2632
4076.291	2603
4077.864	2595
4079.436	2604
4081.009	2664
4082.58	2606
4084.152	2540
4085.723	2635
4087.294	2640
4088.865	2583
4090.435	2508
4092.005	2610
4093.574	2545
4095.143	2541
4096.712	2605
4098.279	2517
4099.848	2469
4101.416	2566
4102.984	2566
4104.55	2566
4106.117	2511
4107.682	2546
4109.248	2505
4110.815	2534
4112.379	2536
4113.945	2503
4115.508	2583
4117.073	2530
4118.637	2565
4120.201	2487
4121.763	2513
4123.325	2598
4124.888	2494
4126.449	2480
4128.013	2499
4129.573	2592
4131.133	2495
4132.694	2479
4134.254	2486
4135.814	2468
4137.374	2451
4138.933	2509
4140.491	2538
4142.049	2501
4143.607	2474
4145.167	2472
4146.724	2458
4148.28	2560
4149.836	2465
4151.392	2486
4152.949	2409
4154.504	2393
4156.059	2434
4157.614	2456
4159.168	2477
4160.723	2447
4162.277	2374
4163.83	2454
4165.383	2478
4166.936	2428
4168.488	2511
4170.041	2436
4171.593	2407
4173.144	2403
4174.695	2403
4176.246	2416
4177.796	2420
4179.346	2421
4180.896	2418
4182.445	2376
4183.994	2460
4185.542	2393
4187.091	2469
4188.639	2396
4190.185	2384
4191.732	2414
4193.279	2399
4194.826	2379
4196.373	2420
4197.918	2338
4199.463	2377
4201.008	2329
4202.553	2411
4204.098	2313
4205.641	2397
4207.185	2398
4208.728	2311
4210.271	2354
4211.814	2343
4213.357	2446
4214.898	2396
4216.439	2277
4217.98	2364
4219.522	2387
4221.062	2327
4222.603	2354
4224.142	2396
4225.681	2305
4227.222	2388
4228.76	2350
4230.298	2380
4231.835	2293
4233.373	2263
4234.911	2337
4236.449	2350
4237.985	2356
4239.521	2308
4241.057	2278
4242.592	2321
4244.128	2305
4245.663	2315
4247.197	2306
4248.731	2342
4250.265	2349
4251.798	2283
4253.333	2355
4254.865	2273
4256.397	2313
4257.93	2274
4259.461	2299
4260.994	2262
4262.525	2322
4264.056	2319
4265.586	2274
4267.115	2314
4268.646	2285
4270.176	2298
4271.705	2322
4273.232	2294
4274.761	2218
4276.289	2294
4277.818	2272
4279.345	2233
4280.872	2309
4282.399	2288
4283.924	2265
4285.452	2241
4286.976	2245
4288.502	2294
4290.026	2218
4291.551	2240
4293.074	2257
4294.6	2254
4296.123	2182
4297.646	2266
4299.168	2264
4300.691	2249
4302.214	2273
4303.736	2211
4305.257	2225
4306.778	2288
4308.299	2263
4309.82	2215
4311.34	2196
4312.86	2221
4314.379	2198
