400.0745	4392
402.597	4479
405.1208	4481
407.6419	4490
410.1623	4553
412.6819	4634
415.201	4553
417.7172	4561
420.2369	4668
422.7538	4697
425.2701	4725
427.7856	4758
430.3005	4819
432.8147	4805
435.3282	4815
437.841	4821
440.3511	4833
442.8625	4820
445.3753	4924
447.8854	4886
450.3927	4764
452.9014	4911
455.4073	4839
457.9146	4849
460.4233	4800
462.9272	4814
465.4325	4850
467.935	4846
470.4389	4793
472.9421	4763
475.4446	4834
477.9444	4895
480.4456	4804
482.944	4811
485.4417	4855
487.9429	4934
490.4393	4861
492.935	4851
495.4321	4899
497.9264	4902
500.4221	4879
502.9171	4967
505.4094	4930
507.9011	4885
510.392	5039
512.8864	4960
515.3759	5000
517.8649	4968
520.3531	4932
522.8406	5014
525.3275	4995
527.8178	5008
530.3033	5018
532.7881	4899
535.2723	5026
537.7558	5028
540.2407	5024
542.7228	4973
545.2043	5016
547.6851	4977
550.1652	5088
552.6467	5022
555.1255	5108
557.6016	4978
560.079	5004
562.5557	5190
565.0318	5060
567.5092	5024
569.984	5028
572.456	5059
574.9294	5214
577.4022	5176
579.8762	5353
582.3456	5234
584.8163	5199
587.2863	5142
589.7557	5231
592.2224	5370
594.6924	5194
597.1578	5298
599.6245	5175
602.0905	5245
604.5538	5263
607.0206	5163
609.4825	5196
611.9459	5099
614.4066	5129
616.8686	5208
619.33	5201
621.7906	5188
624.2487	5093
626.708	5196
629.1647	5240
631.6207	5135
634.0801	5088
636.5348	5181
638.9888	5142
641.4442	5156
643.8969	5208
646.3509	5150
648.8022	5172
651.255	5240
653.705	5199
656.1544	5280
658.6031	5282
661.0532	5144
663.5026	5305
665.9493	5201
668.3954	5347
670.8409	5328
673.2877	5260
675.7318	5210
678.1752	5314
680.618	5326
683.0601	5347
685.5035	5401
687.9444	5368
690.3845	5422
692.824	5396
695.2628	5405
697.701	5393
700.1406	5348
702.5774	5371
705.0116	5448
707.4472	5353
709.8821	5369
712.3183	5461
714.7519	5377
717.1829	5396
719.6151	5385
722.0468	5429
724.4777	5469
726.908	5543
729.3377	5512
731.7667	5495
734.1931	5531
736.6208	5491
739.0498	5600
741.4742	5604
743.9	5611
746.3231	5511
748.7476	5693
751.1713	5705
753.5945	5777
756.015	5808
758.4368	5615
760.856	5742
763.2766	5734
765.6965	5830
768.1157	5666
770.5323	5751
772.9483	5772
775.3656	5693
777.7822	5736
780.1963	5607
782.6116	5746
785.0244	5744
787.4365	5755
789.8499	5697
792.2626	5806
794.6728	5860
797.0823	5744
799.4911	5698
801.8994	5787
804.3109	5688
806.7178	5792
809.124	5761
811.5297	5775
813.9347	5847
816.341	5821
818.7447	5816
821.1478	5764
823.5502	5796
825.952	5922
828.3531	5777
830.7556	5770
833.1554	5866
835.5546	5803
837.9532	5791
840.3511	5872
842.7504	5894
845.1451	5957
847.5411	5893
849.9365	5955
852.3312	5996
854.7272	5913
857.1187	5961
859.5115	5893
861.9037	6010
864.2952	5961
866.6842	5864
869.0764	5898
871.4661	5989
873.8531	6010
876.2415	6044
878.6272	5995
881.0162	5835
883.4026	5964
885.7866	5856
888.1717	5978
890.5543	5947
892.9382	5879
895.3215	6011
897.7041	5923
900.0842	5962
902.4655	6005
904.8443	5953
907.2244	5931
909.6039	6052
911.9808	5917
914.357	6063
916.7346	6036
919.1115	6003
921.4859	6203
923.8616	6116
926.2347	6270
928.6071	6127
930.979	6112
933.3541	6267
935.7247	6374
938.0946	6396
940.4639	6408
942.8326	6468
945.2026	6621
947.5701	6625
949.9369	6867
952.305	7011
954.6705	7275
957.0355	7629
959.4017	7918
961.7654	8019
964.1284	8104
966.4908	7637
968.8527	7445
971.2138	6964
973.5743	6767
975.9343	6568
978.2936	6479
980.6522	6306
983.0122	6204
985.3696	6226
987.7245	6077
990.0807	6196
992.4362	6170
994.7911	6234
997.1474	6164
999.4991	6232
1001.852	6187
1004.205	6263
1006.555	6155
1008.908	6238
1011.258	6140
1013.606	6202
1015.956	6132
1018.302	6212
1020.652	6225
1022.998	6202
1025.345	6148
1027.691	6186
1030.035	6246
1032.378	6356
1034.724	6227
1037.066	6242
1039.409	6289
1041.75	6264
1044.092	6421
1046.433	6250
1048.771	6314
1051.112	6328
1053.449	6337
1055.786	6276
1058.124	6196
1060.462	6400
1062.797	6377
1065.131	6325
1067.467	6396
1069.8	6461
1072.135	6358
1074.467	6532
1076.798	6352
1079.129	6387
1081.459	6311
1083.792	6450
1086.121	6336
1088.449	6361
1090.777	6308
1093.104	6409
1095.431	6409
1097.759	6266
1100.084	6364
1102.408	6372
1104.732	6331
1107.056	6329
1109.379	6195
1111.701	6264
1114.022	6253
1116.343	6329
1118.664	6312
1120.983	6374
1123.303	6300
1125.621	6231
1127.939	6253
1130.256	6280
1132.573	6248
1134.889	6278
1137.205	6373
1139.52	6114
1141.832	6302
1144.146	6281
1146.461	6213
1148.771	6213
1151.083	6370
1153.392	6299
1155.703	6285
1158.011	6365
1160.323	6329
1162.629	6236
1164.938	6288
1167.243	6256
1169.55	6381
1171.857	6271
1174.163	6343
1176.466	6261
1178.769	6364
1181.073	6297
1183.374	6268
1185.677	6370
1187.979	6283
1190.279	6305
1192.578	6321
1194.878	6321
1197.178	6357
1199.476	6293
1201.772	6391
1204.068	6233
1206.366	6276
1208.663	6344
1210.957	6352
1213.251	6186
1215.544	6294
1217.836	6355
1220.128	6423
1222.421	6330
1224.712	6343
1227.002	6450
1229.292	6416
1231.581	6509
1233.871	6314
1236.159	6437
1238.446	6411
1240.732	6623
1243.018	6552
1245.304	6564
1247.59	6514
1249.874	6522
1252.156	6488
1254.439	6549
1256.721	6570
1259.005	6596
1261.286	6512
1263.565	6630
1265.845	6486
1268.125	6459
1270.403	6554
1272.682	6527
1274.959	6603
1277.234	6575
1279.511	6620
1281.787	6577
1284.062	6425
1286.337	6603
1288.609	6552
1290.882	6577
1293.153	6555
1295.428	6485
1297.698	6450
1299.969	6405
1302.237	6452
1304.507	6448
1306.777	6441
1309.044	6497
1311.312	6520
1313.578	6432
1315.844	6460
1318.109	6411
1320.375	6461
1322.638	6419
1324.903	6505
1327.165	6423
1329.427	6383
1331.69	6461
1333.952	6453
1336.212	6308
1338.471	6435
1340.73	6508
1342.988	6472
1345.248	6419
1347.505	6573
1349.763	6397
1352.019	6497
1354.274	6536
1356.53	6396
1358.784	6436
1361.038	6464
1363.291	6410
1365.543	6480
1367.797	6505
1370.048	6512
1372.296	6408
1374.546	6369
1376.796	6448
1379.045	6414
1381.295	6405
1383.542	6480
1385.787	6478
1388.034	6452
1390.28	6476
1392.527	6496
1394.772	6438
1397.014	6585
1399.258	6555
1401.501	6517
1403.741	6542
1405.985	6469
1408.226	6472
1410.465	6457
1412.705	6604
1414.943	6546
1417.184	6654
1419.42	6621
1421.658	6599
1423.894	6532
1426.13	6686
1428.366	6538
1430.602	6581
1432.835	6648
1435.069	6789
1437.301	6531
1439.535	6601
1441.767	6770
1443.997	6731
1446.229	6798
1448.458	6742
1450.687	6812
1452.916	6656
1455.146	6800
1457.372	6748
1459.599	6786
1461.824	6729
1464.051	6618
1466.277	6758
1468.501	6633
1470.725	6601
1472.948	6597
1475.17	6605
1477.393	6574
1479.614	6461
1481.837	6511
1484.057	6559
1486.276	6455
1488.497	6446
1490.715	6467
1492.932	6372
1495.148	6494
1497.364	6445
1499.58	6510
1501.798	6448
1504.012	6375
1506.227	6470
1508.44	6381
1510.653	6441
1512.866	6394
1515.078	6442
1517.289	6532
1519.5	6316
1521.711	6410
1523.92	6410
1526.13	6332
1528.338	6358
1530.544	6309
1532.752	6423
1534.959	6430
1537.165	6400
1539.371	6515
1541.574	6387
1543.779	6494
1545.983	6468
1548.187	6488
1550.39	6531
1552.59	6520
1554.792	6627
1556.991	6590
1559.19	6642
1561.392	6499
1563.59	6634
1565.789	6518
1567.986	6527
1570.182	6526
1572.381	6418
1574.576	6616
1576.771	6608
1578.966	6582
1581.16	6655
1583.354	6581
1585.546	6650
1587.74	6658
1589.931	6498
1592.121	6671
1594.311	6586
1596.502	6569
1598.693	6479
1600.881	6687
1603.069	6634
1605.256	6669
1607.445	6589
1609.631	6599
1611.816	6525
1614.001	6680
1616.186	6636
1618.37	6700
1620.555	6695
1622.737	6579
1624.919	6759
1627.101	6683
1629.282	6782
1631.463	6735
1633.643	6697
1635.822	6757
1638.001	6756
1640.179	6769
1642.359	6792
1644.534	6690
1646.711	6731
1648.887	6790
1651.062	6658
1653.235	6811
1655.412	6652
1657.586	6791
1659.757	6920
1661.93	6880
1664.1	6836
1666.274	6774
1668.445	6829
1670.614	6746
1672.784	6801
1674.951	6899
1677.12	6911
1679.289	6880
1681.457	6816
1683.622	6874
1685.789	6770
1687.953	6664
1690.121	6832
1692.284	6745
1694.447	6647
1696.611	6824
1698.772	6736
1700.935	6723
1703.098	6664
1705.258	6601
1707.417	6560
1709.576	6597
1711.736	6561
1713.896	6688
1716.053	6562
1718.21	6539
1720.366	6568
1722.522	6590
1724.68	6653
1726.835	6594
1728.989	6529
1731.142	6516
1733.295	6565
1735.449	6702
1737.601	6514
1739.753	6609
1741.903	6647
1744.054	6736
1746.203	6693
1748.354	6580
1750.503	6578
1752.651	6649
1754.798	6572
1756.944	6595
1759.092	6602
1761.238	6646
1763.383	6665
1765.528	6717
1767.672	6725
1769.814	6641
1771.959	6690
1774.102	6629
1776.242	6712
1778.384	6619
1780.525	6620
1782.665	6644
1784.805	6731
1786.945	6706
1789.082	6624
1791.22	6682
1793.36	6663
1795.495	6752
1797.632	6726
1799.766	6592
1801.902	6652
1804.035	6702
1806.172	6643
1808.304	6611
1810.436	6692
1812.569	6662
1814.699	6660
1816.833	6702
1818.963	6607
1821.092	6521
1823.222	6606
1825.35	6633
1827.478	6712
1829.608	6591
1831.734	6598
1833.86	6620
1835.986	6581
1838.11	6557
1840.238	6593
1842.362	6616
1844.485	6586
1846.608	6621
1848.73	6537
1850.853	6599
1852.974	6628
1855.097	6607
1857.217	6511
1859.336	6603
1861.455	6750
1863.576	6507
1865.693	6717
1867.811	6602
1869.926	6645
1872.042	6601
1874.16	6512
1876.275	6522
1878.39	6530
1880.504	6606
1882.618	6669
1884.731	6554
1886.843	6564
1888.956	6688
1891.067	6605
1893.178	6553
1895.287	6601
1897.399	6689
1899.508	6729
1901.617	6587
1903.724	6636
1905.832	6559
1907.941	6696
1910.046	6522
1912.152	6563
1914.256	6719
1916.361	6663
1918.464	6653
1920.57	6506
1922.672	6586
1924.775	6583
1926.876	6665
1928.978	6732
1931.08	6586
1933.181	6671
1935.28	6708
1937.38	6635
1939.478	6721
1941.577	6751
1943.675	6655
1945.771	6663
1947.867	6701
1949.964	6675
1952.058	6668
1954.154	6744
1956.248	6652
1958.343	6612
1960.435	6632
1962.527	6692
1964.62	6603
1966.711	6697
1968.802	6478
1970.892	6568
1972.983	6603
1975.072	6642
1977.162	6607
1979.25	6655
1981.337	6622
1983.424	6691
1985.51	6642
1987.598	6517
1989.683	6586
1991.768	6564
1993.852	6746
1995.934	6563
1998.019	6603
2000.102	6478
2002.184	6603
2004.266	6720
2006.347	6556
2008.427	6494
2010.508	6600
2012.587	6593
2014.666	6705
2016.745	6638
2018.821	6602
2020.9	6682
2022.977	6732
2025.052	6570
2027.128	6566
2029.204	6662
2031.277	6589
2033.353	6571
2035.425	6614
2037.499	6507
2039.57	6511
2041.642	6619
2043.714	6603
2045.786	6649
2047.855	6552
2049.925	6625
2051.993	6445
2054.064	6588
2056.132	6551
2058.2	6644
2060.266	6629
2062.332	6614
2064.398	6602
2066.465	6578
2068.529	6603
2070.592	6610
2072.657	6583
2074.719	6594
2076.783	6670
2078.845	6597
2080.907	6562
2082.968	6623
2085.028	6635
2087.087	6671
2089.148	6543
2091.207	6635
2093.264	6536
2095.322	6557
2097.379	6497
2099.439	6605
2101.495	6676
2103.55	6662
2105.605	6479
2107.658	6590
2109.713	6553
2111.767	6546
2113.82	6645
2115.872	6760
2117.924	6559
2119.975	6546
2122.028	6547
2124.078	6582
2126.126	6602
2128.176	6555
2130.225	6604
2132.275	6521
2134.321	6442
2136.368	6519
2138.415	6517
2140.461	6469
2142.505	6517
2144.552	6544
2146.597	6623
2148.64	6515
2150.684	6569
2152.725	6569
2154.77	6662
2156.811	6499
2158.852	6498
2160.894	6495
2162.933	6516
2164.973	6448
2167.013	6537
2169.051	6423
2171.089	6544
2173.126	6507
2175.164	6504
2177.201	6435
2179.236	6416
2181.273	6478
2183.307	6401
2185.341	6415
2187.377	6345
2189.41	6525
2191.442	6434
2193.473	6525
2195.506	6402
2197.539	6442
2199.569	6485
2201.598	6429
2203.628	6489
2205.656	6362
2207.686	6417
2209.716	6326
2211.743	6502
2213.769	6411
2215.796	6441
2217.821	6465
2219.848	6323
2221.873	6365
2223.897	6360
2225.921	6400
2227.944	6299
2229.967	6365
2231.991	6287
2234.011	6300
2236.032	6331
2238.053	6354
2240.073	6426
2242.094	6340
2244.114	6321
2246.131	6404
2248.149	6373
2250.167	6356
2252.186	6308
2254.201	6455
2256.218	6302
2258.233	6323
2260.247	6368
2262.262	6362
2264.278	6384
2266.29	6382
2268.303	6295
2270.315	6307
2272.327	6362
2274.341	6325
2276.35	6287
2278.361	6432
2280.37	6350
2282.38	6280
2284.388	6369
2286.397	6382
2288.405	6409
2290.412	6422
2292.419	6430
2294.425	6356
2296.431	6364
2298.437	6320
2300.441	6296
2302.445	6270
2304.449	6417
2306.453	6397
2308.455	6274
2310.457	6340
2312.459	6340
2314.46	6311
2316.46	6241
2318.461	6365
2320.46	6333
2322.458	6406
2324.458	6344
2326.456	6306
2328.455	6294
2330.451	6289
2332.447	6179
2334.443	6262
2336.438	6256
2338.433	6299
2340.429	6340
2342.422	6253
2344.416	6196
2346.408	6244
2348.399	6129
2350.393	6262
2352.384	6191
2354.375	6170
2356.365	6200
2358.355	6223
2360.344	6223
2362.333	6213
2364.322	6172
2366.309	6131
2368.295	6250
2370.282	6183
2372.27	6236
2374.256	6125
2376.24	6243
2378.225	6184
2380.208	6199
2382.194	6228
2384.177	6243
2386.159	6156
2388.142	6156
2390.122	6074
2392.105	6076
2394.085	6202
2396.066	6089
2398.044	6091
2400.024	6115
2402.002	5989
2403.982	6023
2405.959	6138
2407.935	6178
2409.913	6051
2411.888	6091
2413.865	6082
2415.84	6108
2417.814	6080
2419.788	6290
2421.762	6185
2423.735	6130
2425.708	6039
2427.68	6144
2429.651	6055
2431.623	6087
2433.593	6142
2435.564	6167
2437.533	5957
2439.502	6047
2441.47	6116
2443.438	6175
2445.406	6067
2447.373	6065
2449.34	6063
2451.305	6010
2453.271	6041
2455.235	6106
2457.201	6034
2459.165	6005
2461.129	6027
2463.092	6085
2465.054	6204
2467.018	5963
2468.978	6020
2470.939	5972
2472.899	6040
2474.86	6002
2476.819	6002
2478.778	6108
2480.737	6020
2482.695	6005
2484.653	5974
2486.609	6022
2488.567	5958
2490.524	5984
2492.478	5987
2494.433	5992
2496.387	5937
2498.343	6006
2500.297	5875
2502.249	5961
2504.202	6045
2506.153	6070
2508.105	5957
2510.057	6011
2512.008	5975
2513.957	5958
2515.906	6013
2517.855	6038
2519.805	5859
2521.754	6101
2523.7	5892
2525.647	5977
2527.594	5880
2529.54	6025
2531.486	6035
2533.431	5997
2535.376	5932
2537.32	5973
2539.263	6086
2541.207	5923
2543.151	5917
2545.093	5914
2547.034	5998
2548.975	5886
2550.917	5926
2552.856	5943
2554.796	5935
2556.735	5944
2558.673	6030
2560.611	5917
2562.55	5956
2564.487	6006
2566.424	5908
2568.36	5908
2570.296	5973
2572.232	5990
2574.167	5985
2576.101	5897
2578.035	5947
2579.969	5922
2581.902	6001
2583.834	5927
2585.766	5905
2587.698	5878
2589.628	5939
2591.557	5932
2593.489	5927
2595.419	5956
2597.348	5961
2599.275	5985
2601.204	5855
2603.131	5940
2605.059	5996
2606.986	5942
2608.911	5925
2610.837	5890
2612.76	5852
2614.687	5929
2616.61	5960
2618.534	5984
2620.457	6016
2622.38	5958
2624.302	6095
2626.225	5940
2628.145	5852
2630.067	5935
2631.986	5870
2633.906	5959
2635.827	5927
2637.745	5936
2639.662	5913
2641.581	5988
2643.498	5917
2645.415	6030
2647.331	5940
2649.248	5834
2651.163	5966
2653.077	5929
2654.993	5951
2656.906	5986
2658.821	5944
2660.733	5910
2662.646	6005
2664.557	5875
2666.47	5935
2668.381	5930
2670.291	5867
2672.201	5997
2674.11	5840
2676.021	5853
2677.929	5865
2679.837	5904
2681.745	5907
2683.652	5826
2685.56	5735
2687.466	5778
2689.371	5819
2691.276	5826
2693.181	5888
2695.085	5813
2696.991	5953
2698.893	5748
2700.796	5822
2702.698	5724
2704.601	5812
2706.502	5888
2708.404	5764
2710.304	5757
2712.203	5797
2714.103	5850
2716.003	5829
2717.902	5868
2719.8	5759
2721.697	5785
2723.594	5706
2725.49	5840
2727.389	5887
2729.283	5770
2731.179	5805
2733.073	5769
2734.968	5874
2736.863	5893
2738.757	5819
2740.649	5793
2742.541	5825
2744.433	5843
2746.324	5748
2748.216	5729
2750.107	5755
2751.997	5875
2753.886	5870
2755.776	5727
2757.666	5737
2759.553	5723
2761.44	5736
2763.327	5760
2765.215	5672
2767.102	5807
2768.988	5769
2770.873	5682
2772.757	5719
2774.641	5735
2776.525	5785
2778.41	5705
2780.292	5655
2782.175	5664
2784.057	5724
2785.938	5706
2787.821	5758
2789.701	5733
2791.581	5789
2793.461	5733
2795.34	5689
2797.219	5728
2799.099	5589
2800.975	5743
2802.853	5677
2804.73	5676
2806.606	5745
2808.484	5643
2810.358	5638
2812.233	5662
2814.108	5751
2815.981	5644
2817.857	5674
2819.73	5616
2821.602	5735
2823.474	5600
2825.346	5555
2827.217	5700
2829.089	5734
2830.959	5675
2832.829	5709
2834.698	5691
2836.567	5717
2838.436	5602
2840.305	5698
2842.172	5573
2844.04	5674
2845.905	5676
2847.772	5523
2849.639	5727
2851.503	5722
2853.369	5627
2855.232	5760
2857.096	5739
2858.961	5760
2860.824	5693
2862.686	5762
2864.547	5868
2866.41	5756
2868.272	5736
2870.132	5893
2871.992	6008
2873.851	5912
2875.711	5973
2877.57	6051
2879.429	6160
2881.287	6066
2883.144	6108
2885.001	6266
2886.857	6104
2888.714	6223
2890.57	6222
2892.425	6032
2894.279	6155
2896.133	6138
2897.987	6087
2899.842	6062
2901.694	6004
2903.547	6148
2905.397	5997
2907.249	6040
2909.101	6161
2910.952	6170
2912.802	6265
2914.652	6252
2916.5	6182
2918.35	6346
2920.198	6308
2922.045	6364
2923.893	6491
2925.74	6535
2927.585	6599
2929.433	6658
2931.279	6707
2933.123	6743
2934.968	6829
2936.811	6804
2938.656	6864
2940.5	6931
2942.342	7000
2944.185	7017
2946.026	6999
2947.87	6931
2949.71	6863
2951.549	6786
2953.39	6862
2955.229	6758
2957.069	6781
2958.908	6737
2960.746	6623
2962.584	6582
2964.421	6410
2966.257	6501
2968.094	6379
2969.931	6325
2971.766	6450
2973.601	6368
2975.435	6226
2977.27	6222
2979.105	6395
2980.938	6327
2982.77	6248
2984.602	6279
2986.434	6132
2988.267	6142
2990.097	6172
2991.927	6039
2993.757	6071
2995.587	6069
2997.417	6072
2999.246	5950
3001.074	6038
3002.902	5828
3004.729	5746
3006.556	5789
3008.384	5720
3010.21	5766
3012.036	5659
3013.861	5584
3015.684	5540
3017.51	5578
3019.334	5522
3021.157	5600
3022.981	5573
3024.802	5557
3026.624	5423
3028.448	5368
3030.267	5404
3032.088	5396
3033.909	5449
3035.728	5407
3037.549	5334
3039.368	5369
3041.186	5356
3043.004	5328
3044.821	5394
3046.64	5354
3048.455	5321
3050.272	5257
3052.087	5294
3053.903	5344
3055.717	5321
3057.534	5421
3059.347	5416
3061.16	5300
3062.974	5319
3064.785	5431
3066.598	5319
3068.411	5344
3070.222	5444
3072.032	5247
3073.844	5233
3075.653	5329
3077.463	5339
3079.272	5319
3081.08	5252
3082.889	5321
3084.697	5183
3086.505	5212
3088.312	5128
3090.118	5259
3091.924	5283
3093.729	5118
3095.535	5168
3097.34	5148
3099.144	5226
3100.947	5206
3102.75	5138
3104.553	5189
3106.357	5020
3108.159	5216
3109.961	5112
3111.762	5092
3113.562	5067
3115.365	5064
3117.164	5093
3118.964	5151
3120.761	5110
3122.56	5209
3124.36	5069
3126.158	5137
3127.954	5110
3129.75	5037
3131.547	5196
3133.343	4923
3135.139	5054
3136.934	5005
3138.729	5057
3140.522	4988
3142.317	5055
3144.11	5111
3145.904	5019
3147.695	5084
3149.488	4979
3151.28	5042
3153.07	5088
3154.863	5009
3156.652	5088
3158.441	4974
3160.231	5091
3162.019	5047
3163.81	5146
3165.597	4944
3167.384	4994
3169.172	5127
3170.958	4938
3172.745	4905
3174.532	4958
3176.317	5048
3178.101	5066
3179.885	4947
3181.67	4896
3183.455	5016
3185.238	4961
3187.02	5085
3188.802	4990
3190.585	5041
3192.368	5022
3194.149	5090
3195.929	5009
3197.709	4925
3199.489	4967
3201.268	4885
3203.048	4999
3204.826	4900
3206.604	4911
3208.382	4958
3210.159	4880
3211.937	4945
3213.713	4997
3215.489	4943
3217.263	4947
3219.038	4971
3220.815	4958
3222.589	5005
3224.363	4937
3226.136	4973
3227.908	4946
3229.681	5003
3231.454	4845
3233.226	4905
3234.996	4912
3236.767	4898
3238.538	4963
3240.308	4942
3242.078	4942
3243.847	4882
3245.615	4933
3247.384	4873
3249.15	4918
3250.92	4848
3252.686	4956
3254.453	4964
3256.218	4928
3257.984	4888
3259.75	4877
3261.515	4866
3263.279	4870
3265.044	4954
3266.806	4984
3268.57	4864
3270.334	5010
3272.095	4965
3273.856	4941
3275.619	4930
3277.379	4926
3279.14	4987
3280.9	4877
3282.661	4977
3284.419	4925
3286.178	5032
3287.937	4895
3289.695	5023
3291.453	4992
3293.21	5030
3294.967	4963
3296.723	4967
3298.48	4969
3300.235	4945
3301.99	4913
3303.744	4879
3305.498	4941
3307.253	4904
3309.006	4817
3310.759	4953
3312.511	4947
3314.263	4983
3316.017	4977
3317.768	4918
3319.519	4853
3321.268	4984
3323.018	4883
3324.767	4937
3326.518	4811
3328.267	4939
3330.014	4895
3331.762	4830
3333.509	4915
3335.258	4928
3337.003	4822
3338.75	4919
3340.496	4777
3342.24	4905
3343.987	4829
3345.732	4797
3347.475	4892
3349.219	4801
3350.961	4934
3352.705	4835
3354.448	4867
3356.19	4836
3357.931	4831
3359.672	4867
3361.412	4788
3363.155	4764
3364.894	4899
3366.633	4743
3368.372	4806
3370.11	4893
3371.849	4846
3373.588	4829
3375.325	4884
3377.061	4886
3378.799	4714
3380.534	4835
3382.271	4754
3384.006	4717
3385.741	4721
3387.475	4803
3389.209	4744
3390.944	4723
3392.677	4766
3394.409	4773
3396.143	4655
3397.874	4771
3399.606	4762
3401.338	4682
3403.069	4726
3404.799	4717
3406.528	4699
3408.258	4673
3409.988	4697
3411.717	4672
3413.445	4638
3415.173	4642
3416.899	4628
3418.626	4637
3420.354	4631
3422.08	4739
3423.806	4708
3425.531	4644
3427.255	4618
3428.981	4714
3430.705	4572
3432.429	4719
3434.151	4581
3435.875	4655
3437.599	4566
3439.321	4614
3441.042	4690
3442.763	4585
3444.483	4586
3446.204	4598
3447.926	4516
3449.645	4532
3451.364	4665
3453.082	4583
3454.801	4581
3456.52	4509
3458.238	4597
3459.954	4573
3461.671	4505
3463.387	4531
3465.104	4549
3466.82	4450
3468.534	4501
3470.25	4609
3471.963	4488
3473.676	4548
3475.392	4554
3477.104	4464
3478.817	4499
3480.528	4465
3482.241	4422
3483.954	4456
3485.664	4475
3487.374	4370
3489.084	4398
3490.795	4438
3492.504	4482
3494.214	4440
3495.922	4338
3497.63	4463
3499.338	4412
3501.045	4459
3502.753	4397
3504.459	4351
3506.166	4432
3507.871	4425
3509.576	4417
3511.283	4440
3512.987	4340
3514.691	4356
3516.395	4355
3518.098	4313
3519.8	4346
3521.504	4334
3523.206	4447
3524.908	4264
3526.609	4331
3528.309	4216
3530.011	4349
3531.711	4274
3533.411	4168
3535.109	4245
3536.808	4362
3538.507	4318
3540.206	4254
3541.904	4328
3543.601	4262
3545.297	4237
3546.994	4337
3548.69	4234
3550.387	4289
3552.081	4240
3553.776	4312
3555.47	4226
3557.166	4151
3558.859	4325
3560.553	4307
3562.245	4244
3563.938	4299
3565.629	4263
3567.322	4260
3569.014	4098
3570.704	4227
3572.394	4293
3574.084	4209
3575.775	4251
3577.464	4170
3579.152	4269
3580.842	4106
3582.529	4215
3584.216	4095
3585.905	4177
3587.591	4096
3589.279	4176
3590.964	4147
3592.649	4222
3594.336	4146
3596.021	4092
3597.705	4061
3599.388	4114
3601.072	4003
3602.757	4058
3604.439	4053
3606.122	4073
3607.803	4144
3609.485	4016
3611.167	4050
3612.849	4047
3614.529	4059
3616.208	4066
3617.888	3969
3619.567	4081
3621.247	4039
3622.926	4025
3624.603	3965
3626.281	3978
3627.958	3919
3629.635	3839
3631.312	3988
3632.989	3860
3634.665	3976
3636.339	3963
3638.014	3921
3639.691	3963
3641.364	3957
3643.038	3912
3644.71	3957
3646.384	3921
3648.058	3895
3649.729	3891
3651.402	3921
3653.073	3872
3654.744	3981
3656.414	3900
3658.085	3860
3659.755	3982
3661.424	3914
3663.094	3875
3664.762	3883
3666.431	3845
3668.099	3817
3669.766	3846
3671.433	3880
3673.099	3819
3674.768	3840
3676.433	3782
3678.098	3768
3679.763	3848
3681.428	3834
3683.093	3814
3684.757	3880
3686.421	3848
3688.083	3858
3689.746	3846
3691.408	3925
3693.071	3853
3694.733	3792
3696.394	3796
3698.054	3800
3699.715	3787
3701.375	3770
3703.036	3796
3704.695	3815
3706.354	3745
3708.012	3730
3709.67	3744
3711.329	3723
3712.987	3743
3714.644	3780
3716.299	3669
3717.955	3792
3719.613	3708
3721.268	3700
3722.923	3773
3724.577	3778
3726.231	3739
3727.885	3708
3729.539	3756
3731.192	3732
3732.845	3784
3734.497	3657
3736.149	3767
3737.802	3699
3739.453	3644
3741.104	3710
3742.753	3751
3744.404	3757
3746.052	3663
3747.704	3710
3749.352	3649
3751	3718
3752.648	3700
3754.296	3678
3755.944	3635
3757.59	3605
3759.238	3624
3760.883	3663
3762.528	3693
3764.176	3700
3765.82	3691
3767.464	3687
3769.109	3676
3770.753	3599
3772.396	3641
3774.04	3678
3775.683	3688
3777.325	3678
3778.967	3593
3780.608	3678
3782.25	3685
3783.89	3632
3785.531	3555
3787.17	3588
3788.81	3613
3790.45	3600
3792.09	3626
3793.729	3603
3795.366	3597
3797.003	3567
3798.64	3650
3800.278	3690
3801.915	3574
3803.551	3671
3805.187	3513
3806.822	3615
3808.458	3598
3810.093	3606
3811.726	3581
3813.36	3588
3814.994	3501
3816.627	3563
3818.262	3512
3819.893	3469
3821.525	3517
3823.157	3564
3824.787	3557
3826.42	3526
3828.051	3502
3829.68	3585
3831.31	3537
3832.938	3584
3834.569	3504
3836.198	3562
3837.825	3488
3839.454	3521
3841.08	3536
3842.708	3530
3844.335	3467
3845.962	3472
3847.587	3413
3849.212	3548
3850.838	3498
3852.463	3385
3854.089	3442
3855.712	3436
3857.335	3454
3858.959	3443
3860.582	3443
3862.205	3410
3863.827	3541
3865.449	3396
3867.07	3422
3868.691	3458
3870.312	3435
3871.933	3550
3873.553	3456
3875.173	3466
3876.792	3437
3878.411	3484
3880.03	3393
3881.647	3444
3883.265	3465
3884.882	3365
3886.499	3318
3888.116	3431
3889.732	3412
3891.348	3440
3892.964	3326
3894.579	3403
3896.195	3454
3897.809	3357
3899.423	3342
3901.036	3387
3902.648	3376
3904.261	3389
3905.875	3331
3907.487	3480
3909.099	3390
3910.709	3379
3912.321	3397
3913.933	3417
3915.542	3393
3917.152	3343
3918.762	3352
3920.37	3404
3921.98	3375
3923.589	3342
3925.196	3344
3926.804	3331
3928.41	3377
3930.018	3367
3931.626	3396
3933.231	3382
3934.838	3357
3936.442	3331
3938.046	3306
3939.653	3360
3941.257	3404
3942.861	3285
3944.464	3258
3946.068	3358
3947.67	3310
3949.273	3409
3950.876	3331
3952.477	3395
3954.078	3241
3955.678	3306
3957.281	3342
3958.881	3254
3960.48	3327
3962.079	3320
3963.678	3308
3965.279	3340
3966.877	3237
3968.475	3221
3970.072	3301
3971.669	3358
3973.266	3269
3974.864	3244
3976.459	3246
3978.055	3261
3979.65	3311
3981.245	3273
3982.841	3196
3984.436	3178
3986.03	3244
3987.623	3220
3989.216	3229
3990.809	3172
3992.403	3213
3993.995	3242
3995.586	3159
3997.177	3266
3998.768	3173
4000.361	3227
4001.951	3177
4003.54	3176
4005.13	3241
4006.719	3186
4008.31	3094
4009.897	3181
4011.485	3120
4013.073	3130
4014.66	3186
4016.247	3132
4017.834	3136
4019.421	3169
4021.006	3166
4022.592	3110
4024.178	3095
4025.763	3219
4027.348	3112
4028.932	3125
4030.515	3087
4032.099	3106
4033.682	3111
4035.266	3165
4036.847	3237
4038.429	3143
4040.011	3144
4041.592	3072
4043.173	3033
4044.755	3029
4046.334	3113
4047.913	3087
4049.494	3034
4051.074	3060
4052.652	3041
4054.23	3119
4055.807	3041
4057.385	3060
4058.963	3004
4060.541	3065
4062.117	3089
4063.693	3021
4065.269	3012
4066.844	3036
4068.42	3071
4069.995	3013
4071.569	3076
4073.143	3005
4074.716	3031
4076.291	2955
4077.864	3067
4079.436	2977
4081.009	3063
4082.58	3047
4084.152	2990
4085.723	2995
4087.294	2998
4088.865	3052
4090.435	3084
4092.005	2982
4093.574	2995
4095.143	2966
4096.712	3073
4098.279	2965
4099.848	3015
4101.416	3020
4102.984	2950
4104.55	2935
4106.117	2995
4107.682	2937
4109.248	2985
4110.815	2980
4112.379	3076
4113.945	2933
4115.508	3018
4117.073	2937
4118.637	2954
4120.201	2919
4121.763	2952
4123.325	2971
4124.888	3016
4126.449	2930
4128.013	2932
4129.573	2941
4131.133	2923
4132.694	2966
4134.254	2926
4135.814	2905
4137.374	2856
4138.933	2836
4140.491	2837
4142.049	2785
4143.607	2901
4145.167	2836
4146.724	2903
4148.28	2897
4149.836	2900
4151.392	2890
4152.949	2949
4154.504	2901
4156.059	2909
4157.614	2862
4159.168	2833
4160.723	2803
4162.277	2826
4163.83	2850
4165.383	2876
4166.936	2790
4168.488	2819
4170.041	2838
4171.593	2894
4173.144	2815
4174.695	2865
4176.246	2810
4177.796	2812
4179.346	2804
4180.896	2784
4182.445	2876
4183.994	2896
4185.542	2769
4187.091	2766
4188.639	2803
4190.185	2829
4191.732	2732
4193.279	2811
4194.826	2745
4196.373	2801
4197.918	2799
4199.463	2789
4201.008	2798
4202.553	2791
4204.098	2782
4205.641	2804
4207.185	2700
4208.728	2780
4210.271	2643
4211.814	2738
4213.357	2755
4214.898	2766
4216.439	2751
4217.98	2720
4219.522	2760
4221.062	2767
4222.603	2758
4224.142	2656
4225.681	2773
4227.222	2751
4228.76	2788
4230.298	2699
4231.835	2689
4233.373	2758
4234.911	2761
4236.449	2721
4237.985	2733
4239.521	2652
4241.057	2728
4242.592	2762
4244.128	2656
4245.663	2722
4247.197	2710
4248.731	2670
4250.265	2724
4251.798	2675
4253.333	2691
4254.865	2698
4256.397	2676
4257.93	2623
4259.461	2639
4260.994	2707
4262.525	2822
4264.056	2685
4265.586	2655
4267.115	2669
4268.646	2686
4270.176	2703
4271.705	2624
4273.232	2637
4274.761	2636
4276.289	2692
4277.818	2627
4279.345	2645
4280.872	2685
4282.399	2621
4283.924	2606
4285.452	2639
4286.976	2585
4288.502	2622
4290.026	2656
4291.551	2614
4293.074	2607
4294.6	2648
4296.123	2647
4297.646	2598
4299.168	2582
4300.691	2625
4302.214	2626
4303.736	2641
4305.257	2593
4306.778	2582
4308.299	2632
4309.82	2667
4311.34	2645
4312.86	2525
4314.379	2541
