400.0745	4056
402.597	3954
405.1208	4066
407.6419	4024
410.1623	4145
412.6819	4072
415.201	4151
417.7172	4114
420.2369	4116
422.7538	4133
425.2701	4221
427.7856	4241
430.3005	4323
432.8147	4369
435.3282	4357
437.841	4289
440.3511	4346
442.8625	4365
445.3753	4311
447.8854	4298
450.3927	4358
452.9014	4263
455.4073	4321
457.9146	4252
460.4233	4277
462.9272	4322
465.4325	4359
467.935	4350
470.4389	4304
472.9421	4290
475.4446	4399
477.9444	4329
480.4456	4378
482.944	4383
485.4417	4426
487.9429	4380
490.4393	4483
492.935	4425
495.4321	4427
497.9264	4417
500.4221	4469
502.9171	4448
505.4094	4408
507.9011	4449
510.392	4396
512.8864	4506
515.3759	4403
517.8649	4510
520.3531	4343
522.8406	4548
525.3275	4463
527.8178	4536
530.3033	4493
532.7881	4531
535.2723	4446
537.7558	4485
540.2407	4533
542.7228	4527
545.2043	4453
547.6851	4505
550.1652	4537
552.6467	4434
555.1255	4441
557.6016	4631
560.079	4563
562.5557	4575
565.0318	4546
567.5092	4634
569.984	4658
572.456	4482
574.9294	4600
577.4022	4687
579.8762	4710
582.3456	4662
584.8163	4608
587.2863	4740
589.7557	4725
592.2224	4723
594.6924	4665
597.1578	4699
599.6245	4641
602.0905	4676
604.5538	4706
607.0206	4772
609.4825	4607
611.9459	4695
614.4066	4689
616.8686	4721
619.33	4701
621.7906	4663
624.2487	4637
626.708	4779
629.1647	4607
631.6207	4594
634.0801	4644
636.5348	4575
638.9888	4659
641.4442	4625
643.8969	4711
646.3509	4749
648.8022	4711
651.255	4714
653.705	4705
656.1544	4708
658.6031	4809
661.0532	4742
663.5026	4813
665.9493	4688
668.3954	4744
670.8409	4741
673.2877	4691
675.7318	4760
678.1752	4756
680.618	4822
683.0601	4776
685.5035	4767
687.9444	4752
690.3845	4816
692.824	4856
695.2628	4830
697.701	4882
700.1406	4807
702.5774	4822
705.0116	4857
707.4472	4725
709.8821	4823
712.3183	4882
714.7519	4893
717.1829	4902
719.6151	4913
722.0468	4851
724.4777	4851
726.908	5038
729.3377	4888
731.7667	4896
734.1931	5037
736.6208	4968
739.0498	4908
741.4742	5096
743.9	4995
746.3231	5167
748.7476	5023
751.1713	5098
753.5945	5161
756.015	5265
758.4368	5151
760.856	5130
763.2766	5121
765.6965	5113
768.1157	5212
770.5323	5131
772.9483	5096
775.3656	5263
777.7822	5107
780.1963	5224
782.6116	5235
785.0244	5206
787.4365	5161
789.8499	5143
792.2626	5057
794.6728	5116
797.0823	5201
799.4911	5220
801.8994	5181
804.3109	5236
806.7178	5155
809.124	5072
811.5297	5221
813.9347	5262
816.341	5252
818.7447	5220
821.1478	5354
823.5502	5319
825.952	5192
828.3531	5218
830.7556	5240
833.1554	5252
835.5546	5235
837.9532	5165
840.3511	5273
842.7504	5356
845.1451	5365
847.5411	5282
849.9365	5337
852.3312	5303
854.7272	5342
857.1187	5345
859.5115	5364
861.9037	5402
864.2952	5374
866.6842	5287
869.0764	5364
871.4661	5343
873.8531	5320
876.2415	5358
878.6272	5342
881.0162	5398
883.4026	5327
885.7866	5378
888.1717	5279
890.5543	5347
892.9382	5342
895.3215	5285
897.7041	5389
900.0842	5357
902.4655	5362
904.8443	5361
907.2244	5318
909.6039	5333
911.9808	5436
914.357	5384
916.7346	5460
919.1115	5470
921.4859	5444
923.8616	5583
926.2347	5582
928.6071	5606
930.979	5534
933.3541	5511
935.7247	5548
938.0946	5549
940.4639	5595
942.8326	5775
945.2026	5840
947.5701	5856
949.9369	6005
952.305	6118
954.6705	6367
957.0355	6442
959.4017	6735
961.7654	6833
964.1284	6761
966.4908	6642
968.8527	6407
971.2138	6229
973.5743	6042
975.9343	5802
978.2936	5660
980.6522	5635
983.0122	5489
985.3696	5578
987.7245	5486
990.0807	5533
992.4362	5586
994.7911	5531
997.1474	5539
999.4991	5452
1001.852	5514
1004.205	5662
1006.555	5554
1008.908	5564
1011.258	5495
1013.606	5581
1015.956	5462
1018.302	5484
1020.652	5524
1022.998	5597
1025.345	5593
1027.691	5616
1030.035	5694
1032.378	5674
1034.724	5717
1037.066	5635
1039.409	5488
1041.75	5540
1044.092	5626
1046.433	5703
1048.771	5668
1051.112	5681
1053.449	5654
1055.786	5747
1058.124	5627
1060.462	5640
1062.797	5659
1065.131	5693
1067.467	5684
1069.8	5781
1072.135	5803
1074.467	5773
1076.798	5825
1079.129	5748
1081.459	5683
1083.792	5691
1086.121	5706
1088.449	5752
1090.777	5571
1093.104	5578
1095.431	5760
1097.759	5690
1100.084	5546
1102.408	5605
1104.732	5636
1107.056	5599
1109.379	5734
1111.701	5669
1114.022	5666
1116.343	5652
1118.664	5688
1120.983	5707
1123.303	5611
1125.621	5712
1127.939	5640
1130.256	5641
1132.573	5627
1134.889	5665
1137.205	5707
1139.52	5556
1141.832	5613
1144.146	5704
1146.461	5682
1148.771	5685
1151.083	5532
1153.392	5613
1155.703	5807
1158.011	5675
1160.323	5690
1162.629	5729
1164.938	5634
1167.243	5658
1169.55	5708
1171.857	5619
1174.163	5674
1176.466	5718
1178.769	5759
1181.073	5733
1183.374	5628
1185.677	5661
1187.979	5716
1190.279	5638
1192.578	5695
1194.878	5622
1197.178	5669
1199.476	5627
1201.772	5716
1204.068	5693
1206.366	5709
1208.663	5659
1210.957	5685
1213.251	5654
1215.544	5720
1217.836	5717
1220.128	5736
1222.421	5669
1224.712	5770
1227.002	5769
1229.292	5776
1231.581	5786
1233.871	5909
1236.159	5799
1238.446	5905
1240.732	5850
1243.018	5938
1245.304	5916
1247.59	5912
1249.874	5922
1252.156	5957
1254.439	5858
1256.721	5888
1259.005	5931
1261.286	5893
1263.565	5859
1265.845	5935
1268.125	5944
1270.403	5885
1272.682	5908
1274.959	5865
1277.234	5865
1279.511	5929
1281.787	5835
1284.062	5958
1286.337	5935
1288.609	5818
1290.882	5806
1293.153	5819
1295.428	5866
1297.698	5673
1299.969	5704
1302.237	5868
1304.507	5783
1306.777	5985
1309.044	5808
1311.312	5915
1313.578	5898
1315.844	5846
1318.109	5817
1320.375	5891
1322.638	5783
1324.903	5857
1327.165	5855
1329.427	5813
1331.69	5831
1333.952	5675
1336.212	5836
1338.471	5790
1340.73	5857
1342.988	5871
1345.248	5792
1347.505	5876
1349.763	5812
1352.019	5817
1354.274	5846
1356.53	5780
1358.784	5831
1361.038	5848
1363.291	5925
1365.543	5810
1367.797	5909
1370.048	5959
1372.296	5789
1374.546	5793
1376.796	5852
1379.045	5866
1381.295	5916
1383.542	5775
1385.787	5806
1388.034	5872
1390.28	5866
1392.527	5901
1394.772	5971
1397.014	5904
1399.258	5972
1401.501	5940
1403.741	6079
1405.985	5956
1408.226	5921
1410.465	6009
1412.705	5908
1414.943	5886
1417.184	6066
1419.42	6017
1421.658	5879
1423.894	5968
1426.13	6009
1428.366	5974
1430.602	5987
1432.835	5954
1435.069	6107
1437.301	6038
1439.535	6090
1441.767	6170
1443.997	6033
1446.229	6191
1448.458	6142
1450.687	6126
1452.916	6120
1455.146	6103
1457.372	6169
1459.599	6152
1461.824	6136
1464.051	6063
1466.277	6063
1468.501	5923
1470.725	6020
1472.948	6061
1475.17	5941
1477.393	6046
1479.614	5991
1481.837	5954
1484.057	5909
1486.276	5876
1488.497	5890
1490.715	5888
1492.932	5736
1495.148	5900
1497.364	5863
1499.58	5843
1501.798	5857
1504.012	5856
1506.227	5760
1508.44	5821
1510.653	5740
1512.866	5806
1515.078	5708
1517.289	5753
1519.5	5723
1521.711	5780
1523.92	5769
1526.13	5854
1528.338	5786
1530.544	5820
1532.752	5731
1534.959	5918
1537.165	5844
1539.371	5890
1541.574	5755
1543.779	5823
1545.983	5825
1548.187	5907
1550.39	5743
1552.59	5761
1554.792	5925
1556.991	5773
1559.19	5963
1561.392	5866
1563.59	5925
1565.789	5950
1567.986	6001
1570.182	5868
1572.381	5982
1574.576	6039
1576.771	5910
1578.966	5977
1581.16	6014
1583.354	5837
1585.546	5878
1587.74	6062
1589.931	6042
1592.121	5997
1594.311	6081
1596.502	5852
1598.693	6036
1600.881	5963
1603.069	5946
1605.256	6096
1607.445	6030
1609.631	6039
1611.816	6051
1614.001	5998
1616.186	5989
1618.37	6026
1620.555	6092
1622.737	6070
1624.919	6103
1627.101	5994
1629.282	6072
1631.463	6116
1633.643	6093
1635.822	6050
1638.001	6079
1640.179	6079
1642.359	6073
1644.534	6077
1646.711	6127
1648.887	6128
1651.062	6065
1653.235	6130
1655.412	6164
1657.586	6096
1659.757	6088
1661.93	6099
1664.1	6078
1666.274	6130
1668.445	6053
1670.614	6189
1672.784	6209
1674.951	6205
1677.12	6113
1679.289	6138
1681.457	6102
1683.622	6153
1685.789	6163
1687.953	6146
1690.121	6057
1692.284	6121
1694.447	6133
1696.611	6114
1698.772	6033
1700.935	5995
1703.098	5988
1705.258	5975
1707.417	6040
1709.576	6005
1711.736	6054
1713.896	6075
1716.053	5926
1718.21	5999
1720.366	5943
1722.522	6016
1724.68	5975
1726.835	5980
1728.989	6048
1731.142	5980
1733.295	6010
1735.449	5998
1737.601	5876
1739.753	5925
1741.903	5878
1744.054	5953
1746.203	5930
1748.354	5916
1750.503	6055
1752.651	6015
1754.798	5998
1756.944	5968
1759.092	5954
1761.238	6018
1763.383	6048
1765.528	6074
1767.672	5960
1769.814	6078
1771.959	5949
1774.102	5970
1776.242	6044
1778.384	5998
1780.525	6033
1782.665	5932
1784.805	6110
1786.945	6037
1789.082	6039
1791.22	6062
1793.36	5948
1795.495	6018
1797.632	5982
1799.766	6031
1801.902	6031
1804.035	6091
1806.172	6055
1808.304	6074
1810.436	5996
1812.569	6098
1814.699	6094
1816.833	5923
1818.963	6065
1821.092	6014
1823.222	6033
1825.35	6061
1827.478	6092
1829.608	6048
1831.734	5911
1833.86	5999
1835.986	5868
1838.11	6073
1840.238	5989
1842.362	5883
1844.485	5915
1846.608	6035
1848.73	6069
1850.853	5844
1852.974	5922
1855.097	6038
1857.217	5923
1859.336	5933
1861.455	5915
1863.576	6022
1865.693	5895
1867.811	5948
1869.926	5970
1872.042	5938
1874.16	5868
1876.275	5975
1878.39	5894
1880.504	5952
1882.618	6006
1884.731	5924
1886.843	5801
1888.956	5921
1891.067	6021
1893.178	5942
1895.287	6031
1897.399	6009
1899.508	5940
1901.617	5904
1903.724	5908
1905.832	6080
1907.941	5989
1910.046	6100
1912.152	6021
1914.256	6033
1916.361	5933
1918.464	5971
1920.57	5974
1922.672	5977
1924.775	6070
1926.876	6042
1928.978	5905
1931.08	6039
1933.181	6083
1935.28	6061
1937.38	6055
1939.478	6048
1941.577	6003
1943.675	6066
1945.771	5996
1947.867	6033
1949.964	6005
1952.058	6057
1954.154	5906
1956.248	6060
1958.343	5998
1960.435	6045
1962.527	6078
1964.62	6094
1966.711	6052
1968.802	6007
1970.892	6015
1972.983	6009
1975.072	6000
1977.162	6031
1979.25	6160
1981.337	5942
1983.424	6035
1985.51	6028
1987.598	6014
1989.683	5942
1991.768	5921
1993.852	5976
1995.934	5918
1998.019	5873
2000.102	5981
2002.184	5986
2004.266	5904
2006.347	5965
2008.427	6051
2010.508	6001
2012.587	6028
2014.666	5933
2016.745	5999
2018.821	5868
2020.9	6003
2022.977	5937
2025.052	5839
2027.128	6026
2029.204	5935
2031.277	5933
2033.353	5936
2035.425	5949
2037.499	5995
2039.57	5987
2041.642	5922
2043.714	5955
2045.786	5969
2047.855	6062
2049.925	5923
2051.993	5956
2054.064	5965
2056.132	5997
2058.2	5962
2060.266	5876
2062.332	6028
2064.398	5968
2066.465	6080
2068.529	5942
2070.592	6044
2072.657	5849
2074.719	5969
2076.783	5969
2078.845	5919
2080.907	5913
2082.968	5950
2085.028	5900
2087.087	6013
2089.148	5946
2091.207	5968
2093.264	6032
2095.322	5993
2097.379	6024
2099.439	5929
2101.495	5999
2103.55	5839
2105.605	5996
2107.658	5934
2109.713	5982
2111.767	5916
2113.82	6044
2115.872	5952
2117.924	5977
2119.975	5871
2122.028	5959
2124.078	5909
2126.126	5981
2128.176	6015
2130.225	5851
2132.275	5902
2134.321	5792
2136.368	5915
2138.415	5868
2140.461	5929
2142.505	5952
2144.552	5852
2146.597	5846
2148.64	6020
2150.684	5951
2152.725	5969
2154.77	5909
2156.811	5858
2158.852	5882
2160.894	5784
2162.933	5891
2164.973	5959
2167.013	5844
2169.051	5854
2171.089	5936
2173.126	5955
2175.164	5871
2177.201	5874
2179.236	5833
2181.273	6033
2183.307	5873
2185.341	5902
2187.377	5855
2189.41	5798
2191.442	5753
2193.473	5838
2195.506	5873
2197.539	5841
2199.569	5850
2201.598	5767
2203.628	5786
2205.656	5779
2207.686	5758
2209.716	5893
2211.743	5835
2213.769	5720
2215.796	5769
2217.821	5786
2219.848	5788
2221.873	5799
2223.897	6017
2225.921	5817
2227.944	5727
2229.967	5674
2231.991	5726
2234.011	5906
2236.032	5719
2238.053	5794
2240.073	5724
2242.094	5755
2244.114	5716
2246.131	5823
2248.149	5789
2250.167	5812
2252.186	5660
2254.201	5776
2256.218	5791
2258.233	5738
2260.247	5730
2262.262	5758
2264.278	5855
2266.29	5690
2268.303	5768
2270.315	5686
2272.327	5799
2274.341	5705
2276.35	5731
2278.361	5876
2280.37	5688
2282.38	5751
2284.388	5753
2286.397	5778
2288.405	5822
2290.412	5736
2292.419	5753
2294.425	5863
2296.431	5804
2298.437	5802
2300.441	5796
2302.445	5743
2304.449	5745
2306.453	5790
2308.455	5777
2310.457	5744
2312.459	5720
2314.46	5635
2316.46	5722
2318.461	5609
2320.46	5779
2322.458	5740
2324.458	5752
2326.456	5719
2328.455	5650
2330.451	5648
2332.447	5595
2334.443	5664
2336.438	5705
2338.433	5708
2340.429	5639
2342.422	5707
2344.416	5619
2346.408	5678
2348.399	5556
2350.393	5719
2352.384	5629
2354.375	5675
2356.365	5619
2358.355	5661
2360.344	5630
2362.333	5632
2364.322	5523
2366.309	5540
2368.295	5637
2370.282	5601
2372.27	5691
2374.256	5502
2376.24	5636
2378.225	5545
2380.208	5590
2382.194	5589
2384.177	5584
2386.159	5621
2388.142	5500
2390.122	5651
2392.105	5625
2394.085	5533
2396.066	5471
2398.044	5518
2400.024	5623
2402.002	5551
2403.982	5537
2405.959	5565
2407.935	5680
2409.913	5616
2411.888	5437
2413.865	5507
2415.84	5610
2417.814	5546
2419.788	5507
2421.762	5523
2423.735	5587
2425.708	5554
2427.68	5445
2429.651	5572
2431.623	5447
2433.593	5500
2435.564	5561
2437.533	5558
2439.502	5538
2441.47	5483
2443.438	5585
2445.406	5503
2447.373	5513
2449.34	5531
2451.305	5480
2453.271	5563
2455.235	5498
2457.201	5453
2459.165	5503
2461.129	5535
2463.092	5548
2465.054	5589
2467.018	5402
2468.978	5628
2470.939	5488
2472.899	5505
2474.86	5517
2476.819	5434
2478.778	5450
2480.737	5413
2482.695	5336
2484.653	5568
2486.609	5518
2488.567	5534
2490.524	5431
2492.478	5415
2494.433	5350
2496.387	5444
2498.343	5450
2500.297	5396
2502.249	5304
2504.202	5487
2506.153	5460
2508.105	5392
2510.057	5347
2512.008	5425
2513.957	5399
2515.906	5393
2517.855	5446
2519.805	5481
2521.754	5453
2523.7	5398
2525.647	5431
2527.594	5435
2529.54	5414
2531.486	5401
2533.431	5399
2535.376	5445
2537.32	5475
2539.263	5450
2541.207	5425
2543.151	5463
2545.093	5479
2547.034	5426
2548.975	5415
2550.917	5377
2552.856	5416
2554.796	5444
2556.735	5413
2558.673	5393
2560.611	5470
2562.55	5350
2564.487	5415
2566.424	5361
2568.36	5361
2570.296	5387
2572.232	5353
2574.167	5485
2576.101	5385
2578.035	5419
2579.969	5404
2581.902	5373
2583.834	5333
2585.766	5397
2587.698	5300
2589.628	5430
2591.557	5339
2593.489	5502
2595.419	5342
2597.348	5502
2599.275	5418
2601.204	5285
2603.131	5364
2605.059	5356
2606.986	5374
2608.911	5339
2610.837	5337
2612.76	5448
2614.687	5470
2616.61	5431
2618.534	5418
2620.457	5445
2622.38	5422
2624.302	5481
2626.225	5474
2628.145	5395
2630.067	5438
2631.986	5406
2633.906	5341
2635.827	5417
2637.745	5311
2639.662	5465
2641.581	5320
2643.498	5435
2645.415	5447
2647.331	5380
2649.248	5383
2651.163	5313
2653.077	5297
2654.993	5349
2656.906	5353
2658.821	5365
2660.733	5329
2662.646	5431
2664.557	5354
2666.47	5347
2668.381	5335
2670.291	5436
2672.201	5327
2674.11	5383
2676.021	5323
2677.929	5352
2679.837	5324
2681.745	5332
2683.652	5334
2685.56	5290
2687.466	5350
2689.371	5313
2691.276	5468
2693.181	5341
2695.085	5250
2696.991	5304
2698.893	5328
2700.796	5307
2702.698	5256
2704.601	5295
2706.502	5309
2708.404	5265
2710.304	5300
2712.203	5291
2714.103	5335
2716.003	5266
2717.902	5272
2719.8	5346
2721.697	5228
2723.594	5232
2725.49	5313
2727.389	5350
2729.283	5277
2731.179	5261
2733.073	5310
2734.968	5357
2736.863	5278
2738.757	5291
2740.649	5236
2742.541	5179
2744.433	5273
2746.324	5239
2748.216	5285
2750.107	5251
2751.997	5393
2753.886	5292
2755.776	5232
2757.666	5242
2759.553	5283
2761.44	5212
2763.327	5298
2765.215	5229
2767.102	5188
2768.988	5198
2770.873	5129
2772.757	5251
2774.641	5246
2776.525	5230
2778.41	5155
2780.292	5319
2782.175	5177
2784.057	5209
2785.938	5179
2787.821	5192
2789.701	5239
2791.581	5183
2793.461	5232
2795.34	5239
2797.219	5129
2799.099	5214
2800.975	5140
2802.853	5193
2804.73	5137
2806.606	5140
2808.484	5131
2810.358	5076
2812.233	5207
2814.108	5202
2815.981	5174
2817.857	5146
2819.73	5157
2821.602	5141
2823.474	5086
2825.346	5207
2827.217	5175
2829.089	5144
2830.959	5155
2832.829	5140
2834.698	5226
2836.567	5244
2838.436	5228
2840.305	5165
2842.172	5178
2844.04	5187
2845.905	5150
2847.772	5173
2849.639	5246
2851.503	5184
2853.369	5220
2855.232	5211
2857.096	5197
2858.961	5208
2860.824	5248
2862.686	5269
2864.547	5290
2866.41	5293
2868.272	5273
2870.132	5424
2871.992	5321
2873.851	5419
2875.711	5376
2877.57	5507
2879.429	5594
2881.287	5555
2883.144	5539
2885.001	5621
2886.857	5439
2888.714	5547
2890.57	5562
2892.425	5630
2894.279	5614
2896.133	5560
2897.987	5568
2899.842	5539
2901.694	5517
2903.547	5591
2905.397	5579
2907.249	5643
2909.101	5531
2910.952	5503
2912.802	5517
2914.652	5651
2916.5	5664
2918.35	5727
2920.198	5627
2922.045	5681
2923.893	5853
2925.74	5884
2927.585	5954
2929.433	5907
2931.279	5919
2933.123	6000
2934.968	5968
2936.811	6116
2938.656	6109
2940.5	6053
2942.342	6152
2944.185	6175
2946.026	6135
2947.87	6148
2949.71	6107
2951.549	6138
2953.39	6045
2955.229	6087
2957.069	6009
2958.908	5986
2960.746	5843
2962.584	5852
2964.421	5802
2966.257	5781
2968.094	5741
2969.931	5769
2971.766	5669
2973.601	5699
2975.435	5800
2977.27	5563
2979.105	5654
2980.938	5637
2982.77	5486
2984.602	5601
2986.434	5557
2988.267	5530
2990.097	5561
2991.927	5399
2993.757	5479
2995.587	5375
2997.417	5346
2999.246	5449
3001.074	5228
3002.902	5153
3004.729	5136
3006.556	5123
3008.384	5195
3010.21	5095
3012.036	5050
3013.861	5044
3015.684	5079
3017.51	4933
3019.334	5034
3021.157	4894
3022.981	4992
3024.802	4926
3026.624	5017
3028.448	4816
3030.267	5039
3032.088	4876
3033.909	5011
3035.728	4829
3037.549	4811
3039.368	4805
3041.186	4753
3043.004	4885
3044.821	4927
3046.64	4833
3048.455	4879
3050.272	4842
3052.087	4927
3053.903	4770
3055.717	4755
3057.534	4852
3059.347	4877
3061.16	4836
3062.974	4879
3064.785	4829
3066.598	4732
3068.411	4885
3070.222	4827
3072.032	4671
3073.844	4673
3075.653	4773
3077.463	4872
3079.272	4785
3081.08	4747
3082.889	4801
3084.697	4660
3086.505	4698
3088.312	4750
3090.118	4702
3091.924	4639
3093.729	4793
3095.535	4581
3097.34	4670
3099.144	4730
3100.947	4642
3102.75	4621
3104.553	4598
3106.357	4750
3108.159	4643
3109.961	4746
3111.762	4632
3113.562	4591
3115.365	4718
3117.164	4644
3118.964	4696
3120.761	4660
3122.56	4595
3124.36	4671
3126.158	4583
3127.954	4655
3129.75	4569
3131.547	4666
3133.343	4615
3135.139	4759
3136.934	4551
3138.729	4416
3140.522	4535
3142.317	4529
3144.11	4580
3145.904	4526
3147.695	4581
3149.488	4488
3151.28	4622
3153.07	4584
3154.863	4488
3156.652	4671
3158.441	4524
3160.231	4519
3162.019	4534
3163.81	4404
3165.597	4499
3167.384	4538
3169.172	4570
3170.958	4541
3172.745	4526
3174.532	4512
3176.317	4573
3178.101	4471
3179.885	4471
3181.67	4466
3183.455	4550
3185.238	4473
3187.02	4425
3188.802	4391
3190.585	4414
3192.368	4537
3194.149	4536
3195.929	4520
3197.709	4383
3199.489	4458
3201.268	4470
3203.048	4491
3204.826	4436
3206.604	4454
3208.382	4436
3210.159	4373
3211.937	4458
3213.713	4463
3215.489	4421
3217.263	4456
3219.038	4519
3220.815	4471
3222.589	4517
3224.363	4470
3226.136	4463
3227.908	4420
3229.681	4559
3231.454	4418
3233.226	4361
3234.996	4356
3236.767	4494
3238.538	4420
3240.308	4459
3242.078	4469
3243.847	4428
3245.615	4450
3247.384	4388
3249.15	4398
3250.92	4510
3252.686	4417
3254.453	4512
3256.218	4401
3257.984	4404
3259.75	4346
3261.515	4438
3263.279	4465
3265.044	4413
3266.806	4391
3268.57	4370
3270.334	4441
3272.095	4404
3273.856	4392
3275.619	4457
3277.379	4453
3279.14	4405
3280.9	4396
3282.661	4346
3284.419	4489
3286.178	4360
3287.937	4417
3289.695	4424
3291.453	4420
3293.21	4462
3294.967	4435
3296.723	4404
3298.48	4437
3300.235	4419
3301.99	4415
3303.744	4422
3305.498	4419
3307.253	4309
3309.006	4402
3310.759	4395
3312.511	4482
3314.263	4337
3316.017	4399
3317.768	4434
3319.519	4376
3321.268	4364
3323.018	4290
3324.767	4394
3326.518	4346
3328.267	4402
3330.014	4517
3331.762	4407
3333.509	4402
3335.258	4335
3337.003	4370
3338.75	4303
3340.496	4380
3342.24	4246
3343.987	4440
3345.732	4436
3347.475	4305
3349.219	4429
3350.961	4389
3352.705	4432
3354.448	4238
3356.19	4347
3357.931	4298
3359.672	4347
3361.412	4338
3363.155	4269
3364.894	4367
3366.633	4290
3368.372	4282
3370.11	4404
3371.849	4308
3373.588	4264
3375.325	4343
3377.061	4329
3378.799	4226
3380.534	4241
3382.271	4255
3384.006	4290
3385.741	4257
3387.475	4269
3389.209	4289
3390.944	4323
3392.677	4320
3394.409	4180
3396.143	4185
3397.874	4248
3399.606	4286
3401.338	4299
3403.069	4231
3404.799	4236
3406.528	4180
3408.258	4275
3409.988	4218
3411.717	4276
3413.445	4192
3415.173	4216
3416.899	4231
3418.626	4256
3420.354	4173
3422.08	4200
3423.806	4128
3425.531	4165
3427.255	4216
3428.981	4191
3430.705	4238
3432.429	4194
3434.151	4173
3435.875	4270
3437.599	4188
3439.321	4138
3441.042	4139
3442.763	4145
3444.483	4092
3446.204	4042
3447.926	4205
3449.645	4077
3451.364	4149
3453.082	4123
3454.801	4173
3456.52	4032
3458.238	4138
3459.954	4055
3461.671	4127
3463.387	4135
3465.104	4078
3466.82	4126
3468.534	4050
3470.25	4127
3471.963	4108
3473.676	4058
3475.392	4083
3477.104	3956
3478.817	4069
3480.528	4013
3482.241	4045
3483.954	4045
3485.664	4000
3487.374	4040
3489.084	4046
3490.795	3912
3492.504	4025
3494.214	3983
3495.922	4008
3497.63	3906
3499.338	3935
3501.045	3901
3502.753	3879
3504.459	3947
3506.166	3946
3507.871	4012
3509.576	3930
3511.283	3949
3512.987	3900
3514.691	3945
3516.395	3851
3518.098	3895
3519.8	3982
3521.504	3901
3523.206	3897
3524.908	3939
3526.609	3856
3528.309	3829
3530.011	3821
3531.711	3906
3533.411	3890
3535.109	3835
3536.808	3921
3538.507	3888
3540.206	3824
3541.904	3813
3543.601	3901
3545.297	3906
3546.994	3800
3548.69	3823
3550.387	3825
3552.081	3800
3553.776	3859
3555.47	3884
3557.166	3818
3558.859	3824
3560.553	3869
3562.245	3819
3563.938	3816
3565.629	3711
3567.322	3791
3569.014	3799
3570.704	3771
3572.394	3708
3574.084	3764
3575.775	3812
3577.464	3756
3579.152	3721
3580.842	3770
3582.529	3762
3584.216	3776
3585.905	3708
3587.591	3803
3589.279	3729
3590.964	3820
3592.649	3711
3594.336	3661
3596.021	3738
3597.705	3674
3599.388	3770
3601.072	3720
3602.757	3708
3604.439	3677
3606.122	3725
3607.803	3704
3609.485	3631
3611.167	3653
3612.849	3653
3614.529	3641
3616.208	3591
3617.888	3622
3619.567	3658
3621.247	3633
3622.926	3711
3624.603	3586
3626.281	3594
3627.958	3607
3629.635	3652
3631.312	3645
3632.989	3582
3634.665	3595
3636.339	3586
3638.014	3545
3639.691	3506
3641.364	3504
3643.038	3661
3644.71	3568
3646.384	3511
3648.058	3516
3649.729	3607
3651.402	3545
3653.073	3507
3654.744	3558
3656.414	3546
3658.085	3597
3659.755	3488
3661.424	3585
3663.094	3466
3664.762	3568
3666.431	3526
3668.099	3430
3669.766	3475
3671.433	3558
3673.099	3623
3674.768	3400
3676.433	3473
3678.098	3527
3679.763	3487
3681.428	3525
3683.093	3498
3684.757	3481
3686.421	3489
3688.083	3494
3689.746	3512
3691.408	3504
3693.071	3414
3694.733	3437
3696.394	3519
3698.054	3407
3699.715	3482
3701.375	3426
3703.036	3464
3704.695	3462
3706.354	3456
3708.012	3477
3709.67	3431
3711.329	3472
3712.987	3434
3714.644	3446
3716.299	3447
3717.955	3452
3719.613	3353
3721.268	3466
3722.923	3502
3724.577	3400
3726.231	3420
3727.885	3425
3729.539	3381
3731.192	3432
3732.845	3424
3734.497	3440
3736.149	3445
3737.802	3423
3739.453	3362
3741.104	3420
3742.753	3371
3744.404	3377
3746.052	3425
3747.704	3327
3749.352	3353
3751	3398
3752.648	3286
3754.296	3418
3755.944	3344
3757.59	3341
3759.238	3371
3760.883	3321
3762.528	3401
3764.176	3403
3765.82	3263
3767.464	3267
3769.109	3306
3770.753	3340
3772.396	3303
3774.04	3293
3775.683	3318
3777.325	3325
3778.967	3329
3780.608	3269
3782.25	3298
3783.89	3320
3785.531	3298
3787.17	3334
3788.81	3332
3790.45	3313
3792.09	3322
3793.729	3290
3795.366	3199
3797.003	3302
3798.64	3237
3800.278	3287
3801.915	3242
3803.551	3313
3805.187	3230
3806.822	3345
3808.458	3316
3810.093	3263
3811.726	3294
3813.36	3250
3814.994	3290
3816.627	3182
3818.262	3200
3819.893	3235
3821.525	3187
3823.157	3234
3824.787	3207
3826.42	3197
3828.051	3259
3829.68	3169
3831.31	3306
3832.938	3192
3834.569	3138
3836.198	3213
3837.825	3181
3839.454	3177
3841.08	3192
3842.708	3222
3844.335	3162
3845.962	3158
3847.587	3272
3849.212	3225
3850.838	3136
3852.463	3167
3854.089	3175
3855.712	3181
3857.335	3235
3858.959	3142
3860.582	3177
3862.205	3131
3863.827	3170
3865.449	3142
3867.07	3206
3868.691	3138
3870.312	3116
3871.933	3075
3873.553	3101
3875.173	3195
3876.792	3146
3878.411	3206
3880.03	3135
3881.647	3120
3883.265	3116
3884.882	3102
3886.499	3126
3888.116	3040
3889.732	3100
3891.348	3098
3892.964	3076
3894.579	3122
3896.195	3028
3897.809	3149
3899.423	3131
3901.036	3116
3902.648	3131
3904.261	3097
3905.875	3061
3907.487	3047
3909.099	3108
3910.709	3058
3912.321	3080
3913.933	3020
3915.542	3044
3917.152	3060
3918.762	3086
3920.37	3103
3921.98	3063
3923.589	3095
3925.196	3063
3926.804	3080
3928.41	3109
3930.018	3168
3931.626	3139
3933.231	3079
3934.838	3004
3936.442	3025
3938.046	3039
3939.653	3040
3941.257	2997
3942.861	3044
3944.464	3051
3946.068	3134
3947.67	3010
3949.273	3046
3950.876	3048
3952.477	3032
3954.078	3011
3955.678	2991
3957.281	3019
3958.881	2971
3960.48	3003
3962.079	2992
3963.678	3003
3965.279	3032
3966.877	2937
3968.475	2989
3970.072	2950
3971.669	2986
3973.266	2970
3974.864	2990
3976.459	2969
3978.055	2911
3979.65	2937
3981.245	2907
3982.841	2978
3984.436	2984
3986.03	2904
3987.623	2990
3989.216	3023
3990.809	2923
3992.403	2917
3993.995	2901
3995.586	2938
3997.177	2919
3998.768	2964
4000.361	2923
4001.951	3009
4003.54	2872
4005.13	2935
4006.719	2828
4008.31	2888
4009.897	2934
4011.485	2873
4013.073	2887
4014.66	2849
4016.247	2850
4017.834	2871
4019.421	2827
4021.006	2873
4022.592	2833
4024.178	2809
4025.763	2795
4027.348	2813
4028.932	2938
4030.515	2845
4032.099	2874
4033.682	2949
4035.266	2803
4036.847	2822
4038.429	2862
4040.011	2879
4041.592	2826
4043.173	2870
4044.755	2824
4046.334	2878
4047.913	2853
4049.494	2819
4051.074	2841
4052.652	2825
4054.23	2750
4055.807	2891
4057.385	2795
4058.963	2826
4060.541	2795
4062.117	2753
4063.693	2730
4065.269	2732
4066.844	2826
4068.42	2800
4069.995	2849
4071.569	2768
4073.143	2728
4074.716	2809
4076.291	2816
4077.864	2730
4079.436	2836
4081.009	2763
4082.58	2781
4084.152	2789
4085.723	2818
4087.294	2745
4088.865	2786
4090.435	2769
4092.005	2760
4093.574	2757
4095.143	2755
4096.712	2749
4098.279	2765
4099.848	2782
4101.416	2762
4102.984	2826
4104.55	2721
4106.117	2771
4107.682	2758
4109.248	2750
4110.815	2807
4112.379	2696
4113.945	2691
4115.508	2785
4117.073	2677
4118.637	2714
4120.201	2645
4121.763	2673
4123.325	2712
4124.888	2697
4126.449	2679
4128.013	2679
4129.573	2640
4131.133	2701
4132.694	2673
4134.254	2756
4135.814	2692
4137.374	2672
4138.933	2659
4140.491	2703
4142.049	2614
4143.607	2668
4145.167	2643
4146.724	2651
4148.28	2674
4149.836	2649
4151.392	2636
4152.949	2642
4154.504	2595
4156.059	2643
4157.614	2596
4159.168	2584
4160.723	2612
4162.277	2571
4163.83	2576
4165.383	2559
4166.936	2614
4168.488	2660
4170.041	2598
4171.593	2617
4173.144	2560
4174.695	2586
4176.246	2602
4177.796	2664
4179.346	2631
4180.896	2552
4182.445	2560
4183.994	2586
4185.542	2533
4187.091	2563
4188.639	2553
4190.185	2607
4191.732	2604
4193.279	2568
4194.826	2558
4196.373	2577
4197.918	2547
4199.463	2527
4201.008	2524
4202.553	2555
4204.098	2511
4205.641	2560
4207.185	2512
4208.728	2527
4210.271	2533
4211.814	2523
4213.357	2542
4214.898	2530
4216.439	2518
4217.98	2575
4219.522	2512
4221.062	2490
4222.603	2476
4224.142	2565
4225.681	2523
4227.222	2501
4228.76	2573
4230.298	2515
4231.835	2539
4233.373	2454
4234.911	2492
4236.449	2512
4237.985	2523
4239.521	2534
4241.057	2520
4242.592	2506
4244.128	2464
4245.663	2451
4247.197	2455
4248.731	2454
4250.265	2460
4251.798	2509
4253.333	2530
4254.865	2465
4256.397	2464
4257.93	2463
4259.461	2500
4260.994	2500
4262.525	2518
4264.056	2412
4265.586	2452
4267.115	2458
4268.646	2412
4270.176	2470
4271.705	2400
4273.232	2455
4274.761	2425
4276.289	2441
4277.818	2407
4279.345	2445
4280.872	2401
4282.399	2417
4283.924	2393
4285.452	2460
4286.976	2407
4288.502	2409
4290.026	2426
4291.551	2470
4293.074	2385
4294.6	2444
4296.123	2435
4297.646	2336
4299.168	2387
4300.691	2386
4302.214	2385
4303.736	2416
4305.257	2523
4306.778	2349
4308.299	2374
4309.82	2345
4311.34	2384
4312.86	2434
4314.379	2421
