400.0745	3994
402.597	4035
405.1208	4023
407.6419	4003
410.1623	4043
412.6819	4034
415.201	4080
417.7172	4155
420.2369	4166
422.7538	4251
425.2701	4234
427.7856	4251
430.3005	4269
432.8147	4332
435.3282	4169
437.841	4289
440.3511	4210
442.8625	4270
445.3753	4314
447.8854	4245
450.3927	4285
452.9014	4303
455.4073	4318
457.9146	4193
460.4233	4211
462.9272	4291
465.4325	4202
467.935	4227
470.4389	4295
472.9421	4237
475.4446	4229
477.9444	4279
480.4456	4263
482.944	4205
485.4417	4267
487.9429	4247
490.4393	4265
492.935	4297
495.4321	4355
497.9264	4270
500.4221	4261
502.9171	4293
505.4094	4323
507.9011	4384
510.392	4384
512.8864	4454
515.3759	4372
517.8649	4376
520.3531	4500
522.8406	4346
525.3275	4382
527.8178	4378
530.3033	4476
532.7881	4528
535.2723	4513
537.7558	4396
540.2407	4465
542.7228	4386
545.2043	4436
547.6851	4561
550.1652	4494
552.6467	4483
555.1255	4436
557.6016	4494
560.079	4449
562.5557	4544
565.0318	4428
567.5092	4560
569.984	4505
572.456	4475
574.9294	4590
577.4022	4616
579.8762	4636
582.3456	4672
584.8163	4642
587.2863	4729
589.7557	4676
592.2224	4762
594.6924	4568
597.1578	4674
599.6245	4606
602.0905	4565
604.5538	4585
607.0206	4623
609.4825	4571
611.9459	4602
614.4066	4579
616.8686	4565
619.33	4653
621.7906	4641
624.2487	4646
626.708	4624
629.1647	4511
631.6207	4550
634.0801	4454
636.5348	4519
638.9888	4511
641.4442	4612
643.8969	4574
646.3509	4655
648.8022	4536
651.255	4680
653.705	4580
656.1544	4573
658.6031	4589
661.0532	4592
663.5026	4723
665.9493	4650
668.3954	4577
670.8409	4686
673.2877	4684
675.7318	4691
678.1752	4561
680.618	4658
683.0601	4735
685.5035	4748
687.9444	4776
690.3845	4801
692.824	4786
695.2628	4791
697.701	4790
700.1406	4736
702.5774	4682
705.0116	4700
707.4472	4749
709.8821	4767
712.3183	4846
714.7519	4807
717.1829	4826
719.6151	4806
722.0468	4783
724.4777	4851
726.908	4811
729.3377	4834
731.7667	4889
734.1931	4907
736.6208	4796
739.0498	4957
741.4742	4933
743.9	4979
746.3231	4923
748.7476	5014
751.1713	5014
753.5945	4996
756.015	4938
758.4368	5038
760.856	5190
763.2766	5061
765.6965	5089
768.1157	5057
770.5323	5039
772.9483	5075
775.3656	5063
777.7822	5001
780.1963	5073
782.6116	5126
785.0244	5056
787.4365	5035
789.8499	5076
792.2626	5081
794.6728	5099
797.0823	4993
799.4911	5028
801.8994	5031
804.3109	5088
806.7178	4989
809.124	5046
811.5297	5141
813.9347	5200
816.341	5195
818.7447	5063
821.1478	5114
823.5502	5137
825.952	5235
828.3531	5146
830.7556	5066
833.1554	5075
835.5546	5189
837.9532	5191
840.3511	5103
842.7504	5331
845.1451	5335
847.5411	5333
849.9365	5267
852.3312	5395
854.7272	5225
857.1187	5263
859.5115	5232
861.9037	5257
864.2952	5212
866.6842	5215
869.0764	5156
871.4661	5152
873.8531	5277
876.2415	5218
878.6272	5313
881.0162	5221
883.4026	5187
885.7866	5236
888.1717	5291
890.5543	5216
892.9382	5243
895.3215	5226
897.7041	5262
900.0842	5156
902.4655	5224
904.8443	5266
907.2244	5366
909.6039	5338
911.9808	5296
914.357	5442
916.7346	5411
919.1115	5416
921.4859	5480
923.8616	5432
926.2347	5570
928.6071	5461
930.979	5537
933.3541	5465
935.7247	5572
938.0946	5538
940.4639	5606
942.8326	5690
945.2026	5866
947.5701	5849
949.9369	5977
952.305	6213
954.6705	6548
957.0355	6758
959.4017	7031
961.7654	7119
964.1284	7048
966.4908	6792
968.8527	6646
971.2138	6266
973.5743	6090
975.9343	5857
978.2936	5717
980.6522	5507
983.0122	5441
985.3696	5523
987.7245	5390
990.0807	5311
992.4362	5448
994.7911	5486
997.1474	5386
999.4991	5416
1001.852	5505
1004.205	5419
1006.555	5341
1008.908	5380
1011.258	5396
1013.606	5391
1015.956	5570
1018.302	5476
1020.652	5482
1022.998	5488
1025.345	5501
1027.691	5539
1030.035	5501
1032.378	5555
1034.724	5585
1037.066	5577
1039.409	5543
1041.75	5653
1044.092	5525
1046.433	5590
1048.771	5652
1051.112	5545
1053.449	5601
1055.786	5634
1058.124	5639
1060.462	5563
1062.797	5648
1065.131	5649
1067.467	5688
1069.8	5721
1072.135	5774
1074.467	5736
1076.798	5781
1079.129	5671
1081.459	5591
1083.792	5585
1086.121	5644
1088.449	5659
1090.777	5660
1093.104	5531
1095.431	5636
1097.759	5595
1100.084	5492
1102.408	5650
1104.732	5543
1107.056	5546
1109.379	5566
1111.701	5539
1114.022	5568
1116.343	5547
1118.664	5551
1120.983	5640
1123.303	5553
1125.621	5667
1127.939	5612
1130.256	5467
1132.573	5648
1134.889	5409
1137.205	5565
1139.52	5555
1141.832	5505
1144.146	5599
1146.461	5444
1148.771	5636
1151.083	5537
1153.392	5556
1155.703	5502
1158.011	5511
1160.323	5587
1162.629	5509
1164.938	5495
1167.243	5545
1169.55	5575
1171.857	5521
1174.163	5650
1176.466	5656
1178.769	5511
1181.073	5541
1183.374	5610
1185.677	5617
1187.979	5643
1190.279	5494
1192.578	5602
1194.878	5526
1197.178	5666
1199.476	5610
1201.772	5522
1204.068	5697
1206.366	5650
1208.663	5506
1210.957	5555
1213.251	5558
1215.544	5655
1217.836	5639
1220.128	5659
1222.421	5640
1224.712	5731
1227.002	5630
1229.292	5728
1231.581	5706
1233.871	5782
1236.159	5801
1238.446	5718
1240.732	5830
1243.018	5838
1245.304	5733
1247.59	5754
1249.874	5829
1252.156	5843
1254.439	5862
1256.721	5808
1259.005	5867
1261.286	5896
1263.565	5785
1265.845	5760
1268.125	5814
1270.403	5772
1272.682	5846
1274.959	5910
1277.234	5780
1279.511	5858
1281.787	5768
1284.062	5759
1286.337	5827
1288.609	5759
1290.882	5669
1293.153	5760
1295.428	5674
1297.698	5697
1299.969	5657
1302.237	5685
1304.507	5771
1306.777	5734
1309.044	5696
1311.312	5665
1313.578	5704
1315.844	5758
1318.109	5602
1320.375	5788
1322.638	5663
1324.903	5666
1327.165	5702
1329.427	5672
1331.69	5716
1333.952	5758
1336.212	5718
1338.471	5651
1340.73	5773
1342.988	5700
1345.248	5713
1347.505	5689
1349.763	5722
1352.019	5750
1354.274	5639
1356.53	5617
1358.784	5650
1361.038	5652
1363.291	5728
1365.543	5610
1367.797	5727
1370.048	5702
1372.296	5674
1374.546	5640
1376.796	5749
1379.045	5765
1381.295	5686
1383.542	5777
1385.787	5781
1388.034	5697
1390.28	5809
1392.527	5794
1394.772	5885
1397.014	5742
1399.258	5892
1401.501	5802
1403.741	5759
1405.985	5697
1408.226	5821
1410.465	5848
1412.705	5740
1414.943	5776
1417.184	5910
1419.42	5886
1421.658	5906
1423.894	5984
1426.13	5790
1428.366	5900
1430.602	5841
1432.835	5947
1435.069	5973
1437.301	5866
1439.535	5876
1441.767	5994
1443.997	5830
1446.229	6076
1448.458	6062
1450.687	6042
1452.916	6081
1455.146	6002
1457.372	6062
1459.599	5957
1461.824	5840
1464.051	6002
1466.277	5987
1468.501	5889
1470.725	5882
1472.948	5958
1475.17	5725
1477.393	5900
1479.614	5748
1481.837	5717
1484.057	5637
1486.276	5766
1488.497	5691
1490.715	5677
1492.932	5597
1495.148	5688
1497.364	5678
1499.58	5673
1501.798	5675
1504.012	5651
1506.227	5584
1508.44	5735
1510.653	5590
1512.866	5713
1515.078	5647
1517.289	5615
1519.5	5634
1521.711	5586
1523.92	5716
1526.13	5686
1528.338	5693
1530.544	5627
1532.752	5649
1534.959	5741
1537.165	5617
1539.371	5704
1541.574	5697
1543.779	5687
1545.983	5667
1548.187	5629
1550.39	5715
1552.59	5674
1554.792	5833
1556.991	5703
1559.19	5752
1561.392	5700
1563.59	5814
1565.789	5773
1567.986	5764
1570.182	5770
1572.381	5794
1574.576	5841
1576.771	5760
1578.966	5688
1581.16	5769
1583.354	5834
1585.546	5837
1587.74	5759
1589.931	5856
1592.121	5860
1594.311	5878
1596.502	5825
1598.693	5868
1600.881	5868
1603.069	5790
1605.256	5795
1607.445	5850
1609.631	5882
1611.816	5923
1614.001	6031
1616.186	5901
1618.37	5825
1620.555	5862
1622.737	5920
1624.919	5730
1627.101	5894
1629.282	5959
1631.463	5901
1633.643	5989
1635.822	6044
1638.001	6019
1640.179	5916
1642.359	5943
1644.534	6038
1646.711	6005
1648.887	5918
1651.062	5901
1653.235	6016
1655.412	6010
1657.586	5979
1659.757	6032
1661.93	6012
1664.1	6058
1666.274	6146
1668.445	5983
1670.614	6117
1672.784	6177
1674.951	5949
1677.12	6085
1679.289	6030
1681.457	5954
1683.622	5977
1685.789	5944
1687.953	5917
1690.121	5848
1692.284	5834
1694.447	5914
1696.611	5828
1698.772	5873
1700.935	5732
1703.098	5890
1705.258	5897
1707.417	5809
1709.576	5843
1711.736	5791
1713.896	5850
1716.053	5779
1718.21	5804
1720.366	5828
1722.522	5727
1724.68	5772
1726.835	5849
1728.989	5882
1731.142	5781
1733.295	5797
1735.449	5847
1737.601	5889
1739.753	5752
1741.903	5869
1744.054	5804
1746.203	5763
1748.354	5761
1750.503	5757
1752.651	5824
1754.798	5823
1756.944	5768
1759.092	5808
1761.238	5865
1763.383	5748
1765.528	5876
1767.672	5763
1769.814	5906
1771.959	5845
1774.102	5865
1776.242	5857
1778.384	5810
1780.525	5948
1782.665	5828
1784.805	5860
1786.945	5966
1789.082	5836
1791.22	5871
1793.36	5833
1795.495	5940
1797.632	5834
1799.766	5756
1801.902	5850
1804.035	5805
1806.172	5846
1808.304	5799
1810.436	5918
1812.569	5769
1814.699	5932
1816.833	5757
1818.963	5781
1821.092	5826
1823.222	5850
1825.35	5761
1827.478	5864
1829.608	5747
1831.734	5968
1833.86	5745
1835.986	5768
1838.11	5909
1840.238	5885
1842.362	5939
1844.485	5906
1846.608	5894
1848.73	5841
1850.853	5737
1852.974	5779
1855.097	5685
1857.217	5825
1859.336	5796
1861.455	5759
1863.576	5742
1865.693	5703
1867.811	5802
1869.926	5737
1872.042	5711
1874.16	5867
1876.275	5783
1878.39	5717
1880.504	5850
1882.618	5787
1884.731	5803
1886.843	5769
1888.956	5848
1891.067	5812
1893.178	5839
1895.287	5849
1897.399	5796
1899.508	5818
1901.617	5909
1903.724	5843
1905.832	5890
1907.941	5889
1910.046	5804
1912.152	5814
1914.256	5884
1916.361	5810
1918.464	5748
1920.57	5764
1922.672	5937
1924.775	5779
1926.876	5926
1928.978	5818
1931.08	5902
1933.181	6038
1935.28	5888
1937.38	5828
1939.478	5824
1941.577	5827
1943.675	5928
1945.771	5925
1947.867	5912
1949.964	5871
1952.058	5835
1954.154	5833
1956.248	5924
1958.343	5927
1960.435	5847
1962.527	5964
1964.62	5850
1966.711	5919
1968.802	5865
1970.892	5896
1972.983	5915
1975.072	5833
1977.162	5758
1979.25	5832
1981.337	5764
1983.424	5799
1985.51	5816
1987.598	5799
1989.683	5853
1991.768	5769
1993.852	5838
1995.934	5754
1998.019	5773
2000.102	5863
2002.184	5869
2004.266	5758
2006.347	5831
2008.427	5807
2010.508	5819
2012.587	5760
2014.666	5807
2016.745	5745
2018.821	5766
2020.9	5773
2022.977	5730
2025.052	5760
2027.128	5774
2029.204	5825
2031.277	5764
2033.353	5789
2035.425	5892
2037.499	5774
2039.57	5745
2041.642	5750
2043.714	5708
2045.786	5814
2047.855	5824
2049.925	5765
2051.993	5890
2054.064	5789
2056.132	5761
2058.2	5834
2060.266	5856
2062.332	5813
2064.398	5879
2066.465	5826
2068.529	5839
2070.592	5772
2072.657	5833
2074.719	5839
2076.783	5837
2078.845	5792
2080.907	5762
2082.968	5759
2085.028	5734
2087.087	5840
2089.148	5729
2091.207	5752
2093.264	5737
2095.322	5853
2097.379	5808
2099.439	5812
2101.495	5782
2103.55	5869
2105.605	5882
2107.658	5709
2109.713	5898
2111.767	5776
2113.82	5777
2115.872	5792
2117.924	5778
2119.975	5757
2122.028	5842
2124.078	5871
2126.126	5722
2128.176	5809
2130.225	5866
2132.275	5791
2134.321	5806
2136.368	5904
2138.415	5802
2140.461	5817
2142.505	5795
2144.552	5772
2146.597	5776
2148.64	5731
2150.684	5707
2152.725	5801
2154.77	5810
2156.811	5761
2158.852	5741
2160.894	5743
2162.933	5739
2164.973	5778
2167.013	5649
2169.051	5735
2171.089	5672
2173.126	5793
2175.164	5781
2177.201	5718
2179.236	5716
2181.273	5697
2183.307	5767
2185.341	5757
2187.377	5691
2189.41	5752
2191.442	5810
2193.473	5664
2195.506	5718
2197.539	5716
2199.569	5684
2201.598	5699
2203.628	5683
2205.656	5729
2207.686	5673
2209.716	5766
2211.743	5640
2213.769	5582
2215.796	5713
2217.821	5607
2219.848	5589
2221.873	5583
2223.897	5624
2225.921	5666
2227.944	5537
2229.967	5573
2231.991	5662
2234.011	5631
2236.032	5637
2238.053	5630
2240.073	5611
2242.094	5617
2244.114	5741
2246.131	5666
2248.149	5689
2250.167	5710
2252.186	5590
2254.201	5620
2256.218	5637
2258.233	5588
2260.247	5547
2262.262	5584
2264.278	5707
2266.29	5668
2268.303	5657
2270.315	5644
2272.327	5617
2274.341	5625
2276.35	5603
2278.361	5626
2280.37	5589
2282.38	5649
2284.388	5665
2286.397	5724
2288.405	5562
2290.412	5609
2292.419	5624
2294.425	5632
2296.431	5607
2298.437	5650
2300.441	5674
2302.445	5632
2304.449	5597
2306.453	5606
2308.455	5582
2310.457	5537
2312.459	5603
2314.46	5636
2316.46	5622
2318.461	5670
2320.46	5494
2322.458	5496
2324.458	5605
2326.456	5502
2328.455	5570
2330.451	5677
2332.447	5516
2334.443	5561
2336.438	5496
2338.433	5554
2340.429	5578
2342.422	5497
2344.416	5579
2346.408	5551
2348.399	5552
2350.393	5496
2352.384	5578
2354.375	5460
2356.365	5481
2358.355	5492
2360.344	5525
2362.333	5439
2364.322	5495
2366.309	5469
2368.295	5473
2370.282	5517
2372.27	5570
2374.256	5396
2376.24	5376
2378.225	5552
2380.208	5519
2382.194	5606
2384.177	5421
2386.159	5419
2388.142	5453
2390.122	5551
2392.105	5505
2394.085	5496
2396.066	5463
2398.044	5407
2400.024	5381
2402.002	5389
2403.982	5357
2405.959	5444
2407.935	5414
2409.913	5395
2411.888	5432
2413.865	5315
2415.84	5502
2417.814	5414
2419.788	5385
2421.762	5470
2423.735	5416
2425.708	5447
2427.68	5407
2429.651	5499
2431.623	5410
2433.593	5418
2435.564	5365
2437.533	5462
2439.502	5420
2441.47	5411
2443.438	5450
2445.406	5406
2447.373	5376
2449.34	5381
2451.305	5368
2453.271	5357
2455.235	5367
2457.201	5349
2459.165	5341
2461.129	5295
2463.092	5340
2465.054	5362
2467.018	5376
2468.978	5304
2470.939	5391
2472.899	5374
2474.86	5411
2476.819	5377
2478.778	5354
2480.737	5444
2482.695	5315
2484.653	5193
2486.609	5314
2488.567	5453
2490.524	5331
2492.478	5282
2494.433	5286
2496.387	5291
2498.343	5228
2500.297	5240
2502.249	5339
2504.202	5247
2506.153	5283
2508.105	5428
2510.057	5414
2512.008	5266
2513.957	5339
2515.906	5214
2517.855	5328
2519.805	5292
2521.754	5271
2523.7	5377
2525.647	5276
2527.594	5368
2529.54	5355
2531.486	5182
2533.431	5407
2535.376	5356
2537.32	5236
2539.263	5196
2541.207	5212
2543.151	5387
2545.093	5279
2547.034	5295
2548.975	5244
2550.917	5241
2552.856	5231
2554.796	5309
2556.735	5310
2558.673	5303
2560.611	5291
2562.55	5317
2564.487	5317
2566.424	5282
2568.36	5283
2570.296	5297
2572.232	5281
2574.167	5295
2576.101	5304
2578.035	5314
2579.969	5271
2581.902	5316
2583.834	5193
2585.766	5212
2587.698	5324
2589.628	5209
2591.557	5324
2593.489	5267
2595.419	5340
2597.348	5270
2599.275	5343
2601.204	5369
2603.131	5217
2605.059	5345
2606.986	5288
2608.911	5278
2610.837	5320
2612.76	5324
2614.687	5215
2616.61	5278
2618.534	5311
2620.457	5359
2622.38	5376
2624.302	5328
2626.225	5284
2628.145	5346
2630.067	5299
2631.986	5244
2633.906	5378
2635.827	5289
2637.745	5250
2639.662	5322
2641.581	5231
2643.498	5216
2645.415	5349
2647.331	5262
2649.248	5200
2651.163	5240
2653.077	5313
2654.993	5416
2656.906	5322
2658.821	5257
2660.733	5254
2662.646	5337
2664.557	5232
2666.47	5312
2668.381	5241
2670.291	5231
2672.201	5216
2674.11	5270
2676.021	5301
2677.929	5234
2679.837	5283
2681.745	5148
2683.652	5392
2685.56	5198
2687.466	5227
2689.371	5154
2691.276	5217
2693.181	5217
2695.085	5170
2696.991	5359
2698.893	5210
2700.796	5129
2702.698	5221
2704.601	5298
2706.502	5283
2708.404	5264
2710.304	5290
2712.203	5273
2714.103	5194
2716.003	5143
2717.902	5233
2719.8	5217
2721.697	5132
2723.594	5204
2725.49	5189
2727.389	5298
2729.283	5339
2731.179	5238
2733.073	5137
2734.968	5259
2736.863	5087
2738.757	5146
2740.649	5240
2742.541	5125
2744.433	5142
2746.324	5238
2748.216	5092
2750.107	5179
2751.997	5120
2753.886	5171
2755.776	5088
2757.666	5166
2759.553	5245
2761.44	5120
2763.327	5121
2765.215	5047
2767.102	5278
2768.988	5184
2770.873	5085
2772.757	5050
2774.641	5036
2776.525	5180
2778.41	5208
2780.292	5186
2782.175	5138
2784.057	5085
2785.938	5174
2787.821	5106
2789.701	5182
2791.581	4992
2793.461	5096
2795.34	5031
2797.219	5178
2799.099	5093
2800.975	5078
2802.853	5140
2804.73	5058
2806.606	5086
2808.484	5067
2810.358	5004
2812.233	5210
2814.108	5062
2815.981	5064
2817.857	5082
2819.73	5111
2821.602	5054
2823.474	5057
2825.346	5089
2827.217	5159
2829.089	5040
2830.959	5085
2832.829	5009
2834.698	5034
2836.567	5195
2838.436	5132
2840.305	5092
2842.172	5132
2844.04	5120
2845.905	5185
2847.772	5120
2849.639	5097
2851.503	5138
2853.369	5224
2855.232	5207
2857.096	5112
2858.961	5202
2860.824	5366
2862.686	5239
2864.547	5368
2866.41	5207
2868.272	5212
2870.132	5444
2871.992	5408
2873.851	5470
2875.711	5453
2877.57	5525
2879.429	5573
2881.287	5558
2883.144	5659
2885.001	5708
2886.857	5627
2888.714	5599
2890.57	5643
2892.425	5656
2894.279	5541
2896.133	5511
2897.987	5705
2899.842	5626
2901.694	5558
2903.547	5597
2905.397	5504
2907.249	5533
2909.101	5580
2910.952	5634
2912.802	5591
2914.652	5558
2916.5	5793
2918.35	5806
2920.198	5907
2922.045	5831
2923.893	5903
2925.74	5979
2927.585	6124
2929.433	6138
2931.279	6167
2933.123	6291
2934.968	6233
2936.811	6329
2938.656	6433
2940.5	6494
2942.342	6481
2944.185	6543
2946.026	6474
2947.87	6331
2949.71	6378
2951.549	6371
2953.39	6303
2955.229	6198
2957.069	6154
2958.908	6063
2960.746	6012
2962.584	6005
2964.421	5978
2966.257	5928
2968.094	5856
2969.931	5812
2971.766	5849
2973.601	5808
2975.435	5769
2977.27	5748
2979.105	5773
2980.938	5770
2982.77	5622
2984.602	5726
2986.434	5660
2988.267	5667
2990.097	5594
2991.927	5523
2993.757	5596
2995.587	5478
2997.417	5539
2999.246	5480
3001.074	5307
3002.902	5399
3004.729	5180
3006.556	5244
3008.384	5164
3010.21	5107
3012.036	5133
3013.861	5049
3015.684	5008
3017.51	4984
3019.334	4918
3021.157	4986
3022.981	4961
3024.802	4886
3026.624	4893
3028.448	4883
3030.267	4789
3032.088	4785
3033.909	4805
3035.728	4798
3037.549	4772
3039.368	4788
3041.186	4732
3043.004	4767
3044.821	4870
3046.64	4883
3048.455	4762
3050.272	4747
3052.087	4853
3053.903	4783
3055.717	4782
3057.534	4885
3059.347	4794
3061.16	4796
3062.974	4731
3064.785	4679
3066.598	4755
3068.411	4754
3070.222	4772
3072.032	4826
3073.844	4778
3075.653	4757
3077.463	4732
3079.272	4702
3081.08	4718
3082.889	4676
3084.697	4604
3086.505	4708
3088.312	4635
3090.118	4716
3091.924	4624
3093.729	4689
3095.535	4595
3097.34	4630
3099.144	4642
3100.947	4580
3102.75	4607
3104.553	4658
3106.357	4517
3108.159	4516
3109.961	4612
3111.762	4545
3113.562	4659
3115.365	4609
3117.164	4560
3118.964	4537
3120.761	4578
3122.56	4600
3124.36	4535
3126.158	4577
3127.954	4580
3129.75	4447
3131.547	4591
3133.343	4463
3135.139	4534
3136.934	4520
3138.729	4535
3140.522	4538
3142.317	4571
3144.11	4484
3145.904	4480
3147.695	4525
3149.488	4489
3151.28	4487
3153.07	4463
3154.863	4517
3156.652	4435
3158.441	4571
3160.231	4503
3162.019	4484
3163.81	4551
3165.597	4388
3167.384	4478
3169.172	4481
3170.958	4510
3172.745	4521
3174.532	4517
3176.317	4464
3178.101	4485
3179.885	4511
3181.67	4552
3183.455	4466
3185.238	4439
3187.02	4343
3188.802	4550
3190.585	4503
3192.368	4407
3194.149	4423
3195.929	4380
3197.709	4434
3199.489	4401
3201.268	4454
3203.048	4472
3204.826	4359
3206.604	4441
3208.382	4530
3210.159	4482
3211.937	4468
3213.713	4396
3215.489	4464
3217.263	4379
3219.038	4451
3220.815	4506
3222.589	4401
3224.363	4388
3226.136	4408
3227.908	4352
3229.681	4417
3231.454	4461
3233.226	4452
3234.996	4386
3236.767	4522
3238.538	4452
3240.308	4519
3242.078	4452
3243.847	4453
3245.615	4507
3247.384	4437
3249.15	4518
3250.92	4353
3252.686	4387
3254.453	4373
3256.218	4477
3257.984	4466
3259.75	4491
3261.515	4452
3263.279	4423
3265.044	4382
3266.806	4503
3268.57	4343
3270.334	4459
3272.095	4438
3273.856	4291
3275.619	4512
3277.379	4435
3279.14	4356
3280.9	4411
3282.661	4422
3284.419	4463
3286.178	4487
3287.937	4394
3289.695	4405
3291.453	4365
3293.21	4465
3294.967	4478
3296.723	4455
3298.48	4446
3300.235	4446
3301.99	4400
3303.744	4360
3305.498	4409
3307.253	4414
3309.006	4331
3310.759	4473
3312.511	4436
3314.263	4399
3316.017	4452
3317.768	4387
3319.519	4431
3321.268	4409
3323.018	4467
3324.767	4378
3326.518	4318
3328.267	4399
3330.014	4426
3331.762	4438
3333.509	4440
3335.258	4388
3337.003	4407
3338.75	4406
3340.496	4323
3342.24	4340
3343.987	4370
3345.732	4345
3347.475	4395
3349.219	4391
3350.961	4440
3352.705	4328
3354.448	4411
3356.19	4385
3357.931	4442
3359.672	4376
3361.412	4357
3363.155	4437
3364.894	4320
3366.633	4316
3368.372	4379
3370.11	4457
3371.849	4277
3373.588	4312
3375.325	4234
3377.061	4307
3378.799	4308
3380.534	4287
3382.271	4249
3384.006	4331
3385.741	4247
3387.475	4247
3389.209	4199
3390.944	4290
3392.677	4256
3394.409	4279
3396.143	4258
3397.874	4263
3399.606	4287
3401.338	4228
3403.069	4249
3404.799	4242
3406.528	4195
3408.258	4216
3409.988	4270
3411.717	4204
3413.445	4213
3415.173	4230
3416.899	4189
3418.626	4228
3420.354	4177
3422.08	4225
3423.806	4193
3425.531	4316
3427.255	4222
3428.981	4192
3430.705	4226
3432.429	4097
3434.151	4184
3435.875	4178
3437.599	4159
3439.321	4161
3441.042	4183
3442.763	4112
3444.483	4182
3446.204	4155
3447.926	4155
3449.645	4102
3451.364	4022
3453.082	4087
3454.801	4080
3456.52	4036
3458.238	4097
3459.954	4061
3461.671	4137
3463.387	4039
3465.104	4113
3466.82	4105
3468.534	4050
3470.25	4038
3471.963	4050
3473.676	4137
3475.392	4085
3477.104	4116
3478.817	4002
3480.528	3982
3482.241	4049
3483.954	4004
3485.664	4009
3487.374	3990
3489.084	3859
3490.795	3941
3492.504	3923
3494.214	3916
3495.922	3948
3497.63	3893
3499.338	3959
3501.045	4004
3502.753	3907
3504.459	3930
3506.166	3887
3507.871	3892
3509.576	3921
3511.283	4009
3512.987	3860
3514.691	3949
3516.395	3918
3518.098	3925
3519.8	3936
3521.504	3867
3523.206	3951
3524.908	3927
3526.609	3870
3528.309	3907
3530.011	3888
3531.711	3972
3533.411	3869
3535.109	3893
3536.808	3871
3538.507	3903
3540.206	3785
3541.904	3880
3543.601	3779
3545.297	3882
3546.994	3785
3548.69	3796
3550.387	3831
3552.081	3886
3553.776	3890
3555.47	3823
3557.166	3766
3558.859	3844
3560.553	3775
3562.245	3778
3563.938	3844
3565.629	3807
3567.322	3776
3569.014	3760
3570.704	3777
3572.394	3826
3574.084	3745
3575.775	3773
3577.464	3723
3579.152	3730
3580.842	3746
3582.529	3714
3584.216	3672
3585.905	3739
3587.591	3713
3589.279	3698
3590.964	3706
3592.649	3695
3594.336	3725
3596.021	3766
3597.705	3658
3599.388	3684
3601.072	3699
3602.757	3622
3604.439	3725
3606.122	3614
3607.803	3666
3609.485	3727
3611.167	3577
3612.849	3640
3614.529	3632
3616.208	3605
3617.888	3667
3619.567	3592
3621.247	3610
3622.926	3662
3624.603	3532
3626.281	3627
3627.958	3586
3629.635	3544
3631.312	3564
3632.989	3575
3634.665	3577
3636.339	3514
3638.014	3643
3639.691	3478
3641.364	3600
3643.038	3596
3644.71	3503
3646.384	3556
3648.058	3480
3649.729	3568
3651.402	3485
3653.073	3546
3654.744	3538
3656.414	3519
3658.085	3528
3659.755	3538
3661.424	3515
3663.094	3553
3664.762	3481
3666.431	3534
3668.099	3473
3669.766	3465
3671.433	3526
3673.099	3432
3674.768	3453
3676.433	3447
3678.098	3437
3679.763	3496
3681.428	3485
3683.093	3449
3684.757	3443
3686.421	3365
3688.083	3405
3689.746	3391
3691.408	3504
3693.071	3522
3694.733	3417
3696.394	3430
3698.054	3393
3699.715	3388
3701.375	3458
3703.036	3412
3704.695	3404
3706.354	3438
3708.012	3435
3709.67	3417
3711.329	3357
3712.987	3395
3714.644	3439
3716.299	3383
3717.955	3367
3719.613	3363
3721.268	3382
3722.923	3349
3724.577	3424
3726.231	3349
3727.885	3270
3729.539	3422
3731.192	3299
3732.845	3334
3734.497	3319
3736.149	3325
3737.802	3379
3739.453	3411
3741.104	3376
3742.753	3329
3744.404	3315
3746.052	3327
3747.704	3315
3749.352	3282
3751	3348
3752.648	3259
3754.296	3400
3755.944	3414
3757.59	3319
3759.238	3312
3760.883	3268
3762.528	3332
3764.176	3254
3765.82	3310
3767.464	3250
3769.109	3282
3770.753	3308
3772.396	3198
3774.04	3307
3775.683	3349
3777.325	3301
3778.967	3267
3780.608	3292
3782.25	3298
3783.89	3252
3785.531	3288
3787.17	3226
3788.81	3294
3790.45	3236
3792.09	3284
3793.729	3290
3795.366	3260
3797.003	3253
3798.64	3207
3800.278	3186
3801.915	3224
3803.551	3156
3805.187	3206
3806.822	3272
3808.458	3229
3810.093	3183
3811.726	3261
3813.36	3203
3814.994	3171
3816.627	3231
3818.262	3236
3819.893	3104
3821.525	3160
3823.157	3147
3824.787	3169
3826.42	3154
3828.051	3243
3829.68	3204
3831.31	3199
3832.938	3174
3834.569	3213
3836.198	3141
3837.825	3191
3839.454	3133
3841.08	3196
3842.708	3155
3844.335	3189
3845.962	3106
3847.587	3169
3849.212	3169
3850.838	3163
3852.463	3232
3854.089	3109
3855.712	3104
3857.335	3086
3858.959	3158
3860.582	3115
3862.205	3134
3863.827	3115
3865.449	3171
3867.07	3241
3868.691	3119
3870.312	3117
3871.933	3080
3873.553	3106
3875.173	3105
3876.792	3135
3878.411	3165
3880.03	3048
3881.647	3120
3883.265	3140
3884.882	3060
3886.499	3085
3888.116	3099
3889.732	3079
3891.348	3066
3892.964	3049
3894.579	3143
3896.195	3077
3897.809	3036
3899.423	3084
3901.036	3105
3902.648	3074
3904.261	3101
3905.875	3102
3907.487	3078
3909.099	3079
3910.709	3038
3912.321	3016
3913.933	3005
3915.542	3055
3917.152	3091
3918.762	3170
3920.37	3052
3921.98	3130
3923.589	3001
3925.196	2989
3926.804	3104
3928.41	2988
3930.018	3000
3931.626	3007
3933.231	3022
3934.838	3027
3936.442	3051
3938.046	3027
3939.653	3022
3941.257	2986
3942.861	2970
3944.464	2999
3946.068	3029
3947.67	3019
3949.273	3046
3950.876	2964
3952.477	3005
3954.078	3028
3955.678	2991
3957.281	2971
3958.881	3023
3960.48	3024
3962.079	2961
3963.678	2967
3965.279	2950
3966.877	2977
3968.475	2952
3970.072	3021
3971.669	2859
3973.266	2913
3974.864	2979
3976.459	3005
3978.055	2974
3979.65	2922
3981.245	2914
3982.841	2864
3984.436	2982
3986.03	2929
3987.623	2922
3989.216	2921
3990.809	2965
3992.403	3030
3993.995	2962
3995.586	2872
3997.177	2874
3998.768	2915
4000.361	2923
4001.951	2902
4003.54	2898
4005.13	2864
4006.719	2897
4008.31	2853
4009.897	2864
4011.485	2908
4013.073	2880
4014.66	2784
4016.247	2817
4017.834	2848
4019.421	2850
4021.006	2801
4022.592	2912
4024.178	2850
4025.763	2860
4027.348	2845
4028.932	2827
4030.515	2873
4032.099	2767
4033.682	2810
4035.266	2842
4036.847	2871
4038.429	2791
4040.011	2833
4041.592	2811
4043.173	2866
4044.755	2806
4046.334	2780
4047.913	2837
4049.494	2873
4051.074	2780
4052.652	2737
4054.23	2750
4055.807	2810
4057.385	2804
4058.963	2745
4060.541	2791
4062.117	2711
4063.693	2782
4065.269	2805
4066.844	2761
4068.42	2775
4069.995	2743
4071.569	2716
4073.143	2808
4074.716	2751
4076.291	2790
4077.864	2752
4079.436	2764
4081.009	2739
4082.58	2742
4084.152	2728
4085.723	2778
4087.294	2772
4088.865	2696
4090.435	2731
4092.005	2680
4093.574	2714
4095.143	2710
4096.712	2724
4098.279	2724
4099.848	2694
4101.416	2752
4102.984	2708
4104.55	2709
4106.117	2748
4107.682	2688
4109.248	2708
4110.815	2700
4112.379	2692
4113.945	2615
4115.508	2732
4117.073	2638
4118.637	2696
4120.201	2659
4121.763	2759
4123.325	2639
4124.888	2706
4126.449	2684
4128.013	2650
4129.573	2652
4131.133	2648
4132.694	2619
4134.254	2645
4135.814	2682
4137.374	2652
4138.933	2675
4140.491	2599
4142.049	2565
4143.607	2716
4145.167	2648
4146.724	2646
4148.28	2633
4149.836	2557
4151.392	2695
4152.949	2588
4154.504	2563
4156.059	2626
4157.614	2655
4159.168	2596
4160.723	2648
4162.277	2564
4163.83	2606
4165.383	2566
4166.936	2575
4168.488	2593
4170.041	2595
4171.593	2551
4173.144	2556
4174.695	2575
4176.246	2591
4177.796	2596
4179.346	2636
4180.896	2515
4182.445	2532
4183.994	2595
4185.542	2566
4187.091	2531
4188.639	2566
4190.185	2539
4191.732	2575
4193.279	2590
4194.826	2565
4196.373	2489
4197.918	2551
4199.463	2607
4201.008	2533
4202.553	2515
4204.098	2515
4205.641	2519
4207.185	2548
4208.728	2505
4210.271	2540
4211.814	2495
4213.357	2530
4214.898	2482
4216.439	2488
4217.98	2540
4219.522	2490
4221.062	2490
4222.603	2512
4224.142	2546
4225.681	2545
4227.222	2434
4228.76	2508
4230.298	2561
4231.835	2448
4233.373	2452
4234.911	2432
4236.449	2531
4237.985	2433
4239.521	2489
4241.057	2493
4242.592	2453
4244.128	2455
4245.663	2525
4247.197	2483
4248.731	2481
4250.265	2474
4251.798	2444
4253.333	2427
4254.865	2406
4256.397	2432
4257.93	2376
4259.461	2440
4260.994	2463
4262.525	2421
4264.056	2529
4265.586	2482
4267.115	2425
4268.646	2444
4270.176	2447
4271.705	2417
4273.232	2458
4274.761	2441
4276.289	2348
4277.818	2418
4279.345	2416
4280.872	2416
4282.399	2425
4283.924	2357
4285.452	2400
4286.976	2407
4288.502	2385
4290.026	2445
4291.551	2435
4293.074	2416
4294.6	2389
4296.123	2338
4297.646	2356
4299.168	2473
4300.691	2380
4302.214	2383
4303.736	2408
4305.257	2376
4306.778	2366
4308.299	2377
4309.82	2392
4311.34	2338
4312.86	2323
4314.379	2329
