400.0745	5927
402.597	5971
405.1208	5952
407.6419	6044
410.1623	6049
412.6819	6038
415.201	6118
417.7172	6114
420.2369	6097
422.7538	6208
425.2701	6255
427.7856	6240
430.3005	6346
432.8147	6278
435.3282	6224
437.841	6527
440.3511	6339
442.8625	6339
445.3753	6362
447.8854	6359
450.3927	6353
452.9014	6471
455.4073	6392
457.9146	6444
460.4233	6516
462.9272	6346
465.4325	6459
467.935	6544
470.4389	6479
472.9421	6594
475.4446	6598
477.9444	6486
480.4456	6493
482.944	6573
485.4417	6694
487.9429	6660
490.4393	6727
492.935	6666
495.4321	6610
497.9264	6753
500.4221	6787
502.9171	6744
505.4094	6713
507.9011	6737
510.392	6760
512.8864	6741
515.3759	6798
517.8649	6847
520.3531	6779
522.8406	6807
525.3275	6822
527.8178	6789
530.3033	6720
532.7881	6832
535.2723	6759
537.7558	6860
540.2407	6787
542.7228	6858
545.2043	6820
547.6851	6808
550.1652	6800
552.6467	6883
555.1255	6772
557.6016	6844
560.079	6860
562.5557	6798
565.0318	6905
567.5092	6908
569.984	6947
572.456	6910
574.9294	6886
577.4022	7043
579.8762	7055
582.3456	6987
584.8163	6953
587.2863	7014
589.7557	6945
592.2224	6945
594.6924	7053
597.1578	7121
599.6245	7051
602.0905	7108
604.5538	7010
607.0206	6998
609.4825	6980
611.9459	7037
614.4066	7087
616.8686	6980
619.33	7069
621.7906	7007
624.2487	7018
626.708	6984
629.1647	6988
631.6207	7169
634.0801	7067
636.5348	7158
638.9888	7039
641.4442	7237
643.8969	7209
646.3509	7187
648.8022	7238
651.255	7060
653.705	7282
656.1544	7189
658.6031	7212
661.0532	7282
663.5026	7267
665.9493	7338
668.3954	7314
670.8409	7262
673.2877	7324
675.7318	7340
678.1752	7402
680.618	7188
683.0601	7475
685.5035	7358
687.9444	7358
690.3845	7326
692.824	7350
695.2628	7383
697.701	7309
700.1406	7425
702.5774	7347
705.0116	7380
707.4472	7465
709.8821	7358
712.3183	7606
714.7519	7383
717.1829	7432
719.6151	7501
722.0468	7594
724.4777	7461
726.908	7531
729.3377	7585
731.7667	7586
734.1931	7681
736.6208	7554
739.0498	7573
741.4742	7721
743.9	7739
746.3231	7600
748.7476	7633
751.1713	7833
753.5945	7798
756.015	7785
758.4368	7818
760.856	7745
763.2766	7951
765.6965	7861
768.1157	7945
770.5323	7896
772.9483	8077
775.3656	7884
777.7822	8029
780.1963	7949
782.6116	7944
785.0244	7820
787.4365	7811
789.8499	7900
792.2626	7873
794.6728	7872
797.0823	7949
799.4911	8014
801.8994	7853
804.3109	7924
806.7178	8027
809.124	7935
811.5297	7874
813.9347	7931
816.341	7943
818.7447	8109
821.1478	8016
823.5502	8059
825.952	7930
828.3531	8004
830.7556	7985
833.1554	8195
835.5546	7870
837.9532	8093
840.3511	8135
842.7504	8059
845.1451	8104
847.5411	8073
849.9365	8123
852.3312	8174
854.7272	8138
857.1187	8106
859.5115	8049
861.9037	8048
864.2952	8081
866.6842	8117
869.0764	8035
871.4661	8098
873.8531	8123
876.2415	8060
878.6272	8001
881.0162	8154
883.4026	8167
885.7866	8041
888.1717	8211
890.5543	8072
892.9382	8067
895.3215	8046
897.7041	8144
900.0842	8090
902.4655	8154
904.8443	8133
907.2244	8092
909.6039	8142
911.9808	8128
914.357	8336
916.7346	8280
919.1115	8183
921.4859	8268
923.8616	8231
926.2347	8347
928.6071	8517
930.979	8417
933.3541	8268
935.7247	8363
938.0946	8357
940.4639	8453
942.8326	8374
945.2026	8539
947.5701	8551
949.9369	8435
952.305	8632
954.6705	8745
957.0355	8862
959.4017	8895
961.7654	8992
964.1284	8954
966.4908	8886
968.8527	8706
971.2138	8558
973.5743	8604
975.9343	8465
978.2936	8467
980.6522	8551
983.0122	8277
985.3696	8555
987.7245	8428
990.0807	8383
992.4362	8284
994.7911	8333
997.1474	8537
999.4991	8446
1001.852	8463
1004.205	8333
1006.555	8422
1008.908	8412
1011.258	8539
1013.606	8285
1015.956	8503
1018.302	8590
1020.652	8507
1022.998	8427
1025.345	8474
1027.691	8541
1030.035	8541
1032.378	8457
1034.724	8498
1037.066	8435
1039.409	8426
1041.75	8505
1044.092	8544
1046.433	8528
1048.771	8510
1051.112	8550
1053.449	8511
1055.786	8543
1058.124	8523
1060.462	8468
1062.797	8654
1065.131	8559
1067.467	8666
1069.8	8713
1072.135	8540
1074.467	8830
1076.798	8617
1079.129	8663
1081.459	8470
1083.792	8565
1086.121	8524
1088.449	8719
1090.777	8527
1093.104	8604
1095.431	8592
1097.759	8518
1100.084	8671
1102.408	8626
1104.732	8648
1107.056	8578
1109.379	8512
1111.701	8703
1114.022	8675
1116.343	8654
1118.664	8585
1120.983	8769
1123.303	8777
1125.621	8710
1127.939	8822
1130.256	8673
1132.573	8732
1134.889	8814
1137.205	8775
1139.52	8847
1141.832	8858
1144.146	8868
1146.461	8686
1148.771	8785
1151.083	8740
1153.392	8733
1155.703	8625
1158.011	8769
1160.323	8769
1162.629	8820
1164.938	8795
1167.243	8778
1169.55	8776
1171.857	8774
1174.163	8791
1176.466	8728
1178.769	8653
1181.073	8909
1183.374	8688
1185.677	8674
1187.979	8757
1190.279	8844
1192.578	8803
1194.878	8613
1197.178	8777
1199.476	8685
1201.772	8805
1204.068	8719
1206.366	8660
1208.663	8839
1210.957	8764
1213.251	8748
1215.544	8807
1217.836	8799
1220.128	8796
1222.421	8791
1224.712	8811
1227.002	8863
1229.292	8866
1231.581	8798
1233.871	8844
1236.159	8931
1238.446	8859
1240.732	8834
1243.018	8980
1245.304	9003
1247.59	8952
1249.874	8861
1252.156	8937
1254.439	8992
1256.721	8973
1259.005	8944
1261.286	8958
1263.565	9006
1265.845	8999
1268.125	9068
1270.403	9047
1272.682	8935
1274.959	8956
1277.234	8986
1279.511	8938
1281.787	8812
1284.062	8984
1286.337	8938
1288.609	8972
1290.882	8867
1293.153	8941
1295.428	8813
1297.698	8890
1299.969	8813
1302.237	8853
1304.507	8792
1306.777	9062
1309.044	8960
1311.312	8854
1313.578	8858
1315.844	8921
1318.109	8880
1320.375	8949
1322.638	9097
1324.903	8847
1327.165	8916
1329.427	8926
1331.69	8925
1333.952	8949
1336.212	8786
1338.471	9032
1340.73	8933
1342.988	9002
1345.248	9042
1347.505	8802
1349.763	8828
1352.019	8898
1354.274	8969
1356.53	8894
1358.784	8993
1361.038	8944
1363.291	8977
1365.543	8866
1367.797	8754
1370.048	9013
1372.296	8923
1374.546	8907
1376.796	8980
1379.045	8836
1381.295	8909
1383.542	9055
1385.787	8827
1388.034	8899
1390.28	9031
1392.527	8973
1394.772	8974
1397.014	9050
1399.258	8864
1401.501	9098
1403.741	9184
1405.985	9110
1408.226	8997
1410.465	9110
1412.705	8987
1414.943	9101
1417.184	9118
1419.42	9046
1421.658	8981
1423.894	9215
1426.13	9017
1428.366	9172
1430.602	9002
1432.835	8989
1435.069	9166
1437.301	9002
1439.535	9073
1441.767	9241
1443.997	9080
1446.229	9212
1448.458	9168
1450.687	9095
1452.916	9169
1455.146	9101
1457.372	9242
1459.599	9033
1461.824	9104
1464.051	9229
1466.277	9224
1468.501	9310
1470.725	9317
1472.948	8897
1475.17	9098
1477.393	9072
1479.614	9023
1481.837	9162
1484.057	9023
1486.276	8914
1488.497	8995
1490.715	8932
1492.932	8858
1495.148	8874
1497.364	8827
1499.58	9079
1501.798	8893
1504.012	8935
1506.227	8866
1508.44	8924
1510.653	8806
1512.866	8945
1515.078	8884
1517.289	8838
1519.5	8923
1521.711	8806
1523.92	8945
1526.13	8748
1528.338	8909
1530.544	9061
1532.752	9044
1534.959	9073
1537.165	8919
1539.371	9033
1541.574	8924
1543.779	8926
1545.983	8828
1548.187	8964
1550.39	9062
1552.59	9165
1554.792	9121
1556.991	9033
1559.19	8931
1561.392	8961
1563.59	9039
1565.789	9025
1567.986	9021
1570.182	8998
1572.381	9043
1574.576	9028
1576.771	9121
1578.966	8955
1581.16	9252
1583.354	9036
1585.546	9123
1587.74	9069
1589.931	9256
1592.121	9023
1594.311	9133
1596.502	9284
1598.693	9210
1600.881	9051
1603.069	9194
1605.256	9205
1607.445	9115
1609.631	9174
1611.816	9077
1614.001	9185
1616.186	9178
1618.37	9242
1620.555	9069
1622.737	9237
1624.919	9296
1627.101	9184
1629.282	9144
1631.463	9126
1633.643	9186
1635.822	9182
1638.001	9182
1640.179	9145
1642.359	9219
1644.534	9240
1646.711	9233
1648.887	9173
1651.062	9134
1653.235	9200
1655.412	9128
1657.586	9149
1659.757	9294
1661.93	9213
1664.1	9280
1666.274	9202
1668.445	9273
1670.614	9166
1672.784	9233
1674.951	9255
1677.12	9250
1679.289	9097
1681.457	9154
1683.622	9151
1685.789	9102
1687.953	9126
1690.121	9167
1692.284	9103
1694.447	9148
1696.611	9165
1698.772	9226
1700.935	9156
1703.098	9191
1705.258	9362
1707.417	9239
1709.576	9271
1711.736	9082
1713.896	9346
1716.053	9190
1718.21	9086
1720.366	9148
1722.522	9095
1724.68	9042
1726.835	9092
1728.989	9150
1731.142	9115
1733.295	9017
1735.449	9160
1737.601	9058
1739.753	9266
1741.903	9032
1744.054	9138
1746.203	9084
1748.354	9115
1750.503	9231
1752.651	9150
1754.798	9029
1756.944	9214
1759.092	9162
1761.238	9108
1763.383	9177
1765.528	9297
1767.672	9103
1769.814	9201
1771.959	9109
1774.102	9191
1776.242	9241
1778.384	9281
1780.525	9313
1782.665	9179
1784.805	9236
1786.945	9290
1789.082	9184
1791.22	9111
1793.36	9270
1795.495	9341
1797.632	9231
1799.766	9245
1801.902	9311
1804.035	9311
1806.172	9286
1808.304	9136
1810.436	9182
1812.569	9142
1814.699	9188
1816.833	9147
1818.963	9135
1821.092	9213
1823.222	9291
1825.35	9237
1827.478	9071
1829.608	9119
1831.734	9166
1833.86	9346
1835.986	9104
1838.11	9066
1840.238	9070
1842.362	9132
1844.485	9123
1846.608	9165
1848.73	9048
1850.853	9037
1852.974	9144
1855.097	9052
1857.217	9066
1859.336	9126
1861.455	9104
1863.576	9120
1865.693	9216
1867.811	9136
1869.926	9165
1872.042	9032
1874.16	8978
1876.275	8992
1878.39	8982
1880.504	9125
1882.618	9143
1884.731	8922
1886.843	9203
1888.956	9051
1891.067	9027
1893.178	9181
1895.287	9012
1897.399	9054
1899.508	9238
1901.617	9089
1903.724	9146
1905.832	9147
1907.941	9130
1910.046	9207
1912.152	9065
1914.256	9064
1916.361	9225
1918.464	9109
1920.57	9308
1922.672	9194
1924.775	9289
1926.876	9124
1928.978	9140
1931.08	9188
1933.181	9150
1935.28	9299
1937.38	9156
1939.478	9152
1941.577	9228
1943.675	9179
1945.771	9266
1947.867	9038
1949.964	9239
1952.058	9225
1954.154	9185
1956.248	9159
1958.343	9123
1960.435	9372
1962.527	9195
1964.62	9227
1966.711	9085
1968.802	9123
1970.892	9168
1972.983	9209
1975.072	9211
1977.162	9027
1979.25	9147
1981.337	9129
1983.424	9148
1985.51	9080
1987.598	9005
1989.683	9085
1991.768	9139
1993.852	9102
1995.934	9078
1998.019	9132
2000.102	8972
2002.184	9102
2004.266	9133
2006.347	9017
2008.427	9038
2010.508	9085
2012.587	9006
2014.666	9175
2016.745	8975
2018.821	9161
2020.9	8984
2022.977	9116
2025.052	9039
2027.128	9059
2029.204	8987
2031.277	8968
2033.353	9165
2035.425	8922
2037.499	9109
2039.57	8956
2041.642	9000
2043.714	9092
2045.786	8957
2047.855	8942
2049.925	9089
2051.993	9179
2054.064	9089
2056.132	9142
2058.2	9102
2060.266	9018
2062.332	9083
2064.398	9022
2066.465	9011
2068.529	9080
2070.592	8933
2072.657	9105
2074.719	9102
2076.783	9038
2078.845	9302
2080.907	9103
2082.968	9097
2085.028	9079
2087.087	9015
2089.148	9041
2091.207	8941
2093.264	9135
2095.322	9024
2097.379	8922
2099.439	9006
2101.495	9030
2103.55	9003
2105.605	9085
2107.658	9025
2109.713	8953
2111.767	8897
2113.82	9109
2115.872	9023
2117.924	9080
2119.975	8780
2122.028	9000
2124.078	9039
2126.126	9192
2128.176	9071
2130.225	9070
2132.275	8961
2134.321	9109
2136.368	8963
2138.415	8911
2140.461	8961
2142.505	8899
2144.552	8888
2146.597	8894
2148.64	9082
2150.684	8961
2152.725	9098
2154.77	8987
2156.811	8940
2158.852	8909
2160.894	8869
2162.933	8896
2164.973	8899
2167.013	8851
2169.051	8773
2171.089	8807
2173.126	8849
2175.164	8948
2177.201	8893
2179.236	8881
2181.273	8817
2183.307	8871
2185.341	8813
2187.377	8891
2189.41	8816
2191.442	8898
2193.473	8862
2195.506	8782
2197.539	8883
2199.569	8693
2201.598	8794
2203.628	8790
2205.656	8775
2207.686	8717
2209.716	8723
2211.743	8824
2213.769	8761
2215.796	8807
2217.821	8608
2219.848	8740
2221.873	8716
2223.897	8696
2225.921	8714
2227.944	8726
2229.967	8785
2231.991	8662
2234.011	8793
2236.032	8816
2238.053	8642
2240.073	8817
2242.094	8753
2244.114	8786
2246.131	8573
2248.149	8741
2250.167	8643
2252.186	8730
2254.201	8751
2256.218	8652
2258.233	8797
2260.247	8801
2262.262	8667
2264.278	8698
2266.29	8686
2268.303	8868
2270.315	8612
2272.327	8771
2274.341	8708
2276.35	8828
2278.361	8767
2280.37	8727
2282.38	8725
2284.388	8666
2286.397	8650
2288.405	8759
2290.412	8657
2292.419	8812
2294.425	8685
2296.431	8660
2298.437	8808
2300.441	8582
2302.445	8632
2304.449	8740
2306.453	8649
2308.455	8820
2310.457	8580
2312.459	8699
2314.46	8738
2316.46	8651
2318.461	8689
2320.46	8770
2322.458	8711
2324.458	8662
2326.456	8598
2328.455	8553
2330.451	8647
2332.447	8525
2334.443	8627
2336.438	8622
2338.433	8570
2340.429	8706
2342.422	8483
2344.416	8522
2346.408	8559
2348.399	8517
2350.393	8631
2352.384	8406
2354.375	8605
2356.365	8537
2358.355	8472
2360.344	8668
2362.333	8341
2364.322	8442
2366.309	8492
2368.295	8635
2370.282	8534
2372.27	8504
2374.256	8446
2376.24	8459
2378.225	8436
2380.208	8489
2382.194	8402
2384.177	8357
2386.159	8420
2388.142	8384
2390.122	8272
2392.105	8386
2394.085	8280
2396.066	8251
2398.044	8373
2400.024	8365
2402.002	8304
2403.982	8370
2405.959	8403
2407.935	8401
2409.913	8223
2411.888	8196
2413.865	8328
2415.84	8392
2417.814	8321
2419.788	8368
2421.762	8455
2423.735	8343
2425.708	8333
2427.68	8274
2429.651	8436
2431.623	8249
2433.593	8309
2435.564	8420
2437.533	8378
2439.502	8309
2441.47	8344
2443.438	8276
2445.406	8391
2447.373	8318
2449.34	8521
2451.305	8165
2453.271	8287
2455.235	8243
2457.201	8237
2459.165	8325
2461.129	8416
2463.092	8257
2465.054	8294
2467.018	8219
2468.978	8432
2470.939	8154
2472.899	8261
2474.86	8342
2476.819	8184
2478.778	8205
2480.737	8228
2482.695	8214
2484.653	8152
2486.609	8178
2488.567	8139
2490.524	8262
2492.478	8148
2494.433	8263
2496.387	8045
2498.343	8241
2500.297	8095
2502.249	8147
2504.202	8163
2506.153	8181
2508.105	8185
2510.057	8134
2512.008	8165
2513.957	8140
2515.906	8151
2517.855	8305
2519.805	8134
2521.754	8226
2523.7	8233
2525.647	8096
2527.594	8108
2529.54	8169
2531.486	8181
2533.431	7984
2535.376	8069
2537.32	8258
2539.263	8048
2541.207	8179
2543.151	8111
2545.093	7970
2547.034	8062
2548.975	8071
2550.917	8151
2552.856	8175
2554.796	8033
2556.735	8158
2558.673	8087
2560.611	7921
2562.55	8060
2564.487	8069
2566.424	8061
2568.36	8144
2570.296	7986
2572.232	8018
2574.167	8070
2576.101	8009
2578.035	8129
2579.969	7958
2581.902	8154
2583.834	7971
2585.766	8138
2587.698	8058
2589.628	8124
2591.557	8016
2593.489	8145
2595.419	8044
2597.348	8106
2599.275	8019
2601.204	8153
2603.131	8168
2605.059	7998
2606.986	8076
2608.911	8111
2610.837	8188
2612.76	7968
2614.687	8014
2616.61	8030
2618.534	8072
2620.457	8047
2622.38	8035
2624.302	8062
2626.225	7994
2628.145	8134
2630.067	8090
2631.986	8107
2633.906	8013
2635.827	8026
2637.745	8192
2639.662	8061
2641.581	8193
2643.498	8038
2645.415	8004
2647.331	8019
2649.248	8086
2651.163	8012
2653.077	7975
2654.993	7988
2656.906	7905
2658.821	8076
2660.733	8042
2662.646	7940
2664.557	8059
2666.47	7855
2668.381	7978
2670.291	7941
2672.201	7941
2674.11	7911
2676.021	7969
2677.929	8053
2679.837	8016
2681.745	7990
2683.652	7948
2685.56	7924
2687.466	8045
2689.371	7911
2691.276	7935
2693.181	7942
2695.085	7936
2696.991	7913
2698.893	7933
2700.796	7770
2702.698	7785
2704.601	7911
2706.502	7858
2708.404	7893
2710.304	7828
2712.203	7892
2714.103	7842
2716.003	7855
2717.902	7743
2719.8	7789
2721.697	7846
2723.594	7858
2725.49	7775
2727.389	7847
2729.283	7818
2731.179	7656
2733.073	7835
2734.968	7798
2736.863	7781
2738.757	7817
2740.649	7683
2742.541	7784
2744.433	7805
2746.324	7724
2748.216	7766
2750.107	7773
2751.997	7698
2753.886	7812
2755.776	7771
2757.666	7759
2759.553	7774
2761.44	7808
2763.327	7644
2765.215	7684
2767.102	7710
2768.988	7734
2770.873	7742
2772.757	7725
2774.641	7807
2776.525	7710
2778.41	7742
2780.292	7716
2782.175	7743
2784.057	7651
2785.938	7517
2787.821	7643
2789.701	7748
2791.581	7719
2793.461	7645
2795.34	7645
2797.219	7695
2799.099	7591
2800.975	7660
2802.853	7660
2804.73	7525
2806.606	7586
2808.484	7570
2810.358	7497
2812.233	7703
2814.108	7539
2815.981	7601
2817.857	7580
2819.73	7557
2821.602	7508
2823.474	7591
2825.346	7602
2827.217	7589
2829.089	7490
2830.959	7552
2832.829	7539
2834.698	7449
2836.567	7473
2838.436	7665
2840.305	7521
2842.172	7484
2844.04	7487
2845.905	7551
2847.772	7630
2849.639	7448
2851.503	7542
2853.369	7546
2855.232	7526
2857.096	7429
2858.961	7548
2860.824	7508
2862.686	7671
2864.547	7567
2866.41	7445
2868.272	7550
2870.132	7549
2871.992	7589
2873.851	7508
2875.711	7582
2877.57	7653
2879.429	7599
2881.287	7583
2883.144	7665
2885.001	7646
2886.857	7653
2888.714	7611
2890.57	7734
2892.425	7540
2894.279	7581
2896.133	7713
2897.987	7552
2899.842	7586
2901.694	7579
2903.547	7577
2905.397	7651
2907.249	7562
2909.101	7707
2910.952	7690
2912.802	7760
2914.652	7524
2916.5	7510
2918.35	7615
2920.198	7592
2922.045	7622
2923.893	7597
2925.74	7705
2927.585	7686
2929.433	7679
2931.279	7703
2933.123	7745
2934.968	7704
2936.811	7803
2938.656	7810
2940.5	7717
2942.342	7858
2944.185	7861
2946.026	7711
2947.87	7799
2949.71	7768
2951.549	7797
2953.39	7886
2955.229	7782
2957.069	7760
2958.908	7703
2960.746	7652
2962.584	7694
2964.421	7548
2966.257	7551
2968.094	7526
2969.931	7617
2971.766	7547
2973.601	7513
2975.435	7600
2977.27	7564
2979.105	7505
2980.938	7549
2982.77	7446
2984.602	7477
2986.434	7497
2988.267	7363
2990.097	7359
2991.927	7298
2993.757	7253
2995.587	7376
2997.417	7410
2999.246	7394
3001.074	7310
3002.902	7287
3004.729	7203
3006.556	7256
3008.384	7198
3010.21	7145
3012.036	7194
3013.861	7127
3015.684	7082
3017.51	7096
3019.334	7108
3021.157	7115
3022.981	7081
3024.802	6923
3026.624	7123
3028.448	6929
3030.267	7059
3032.088	7007
3033.909	7058
3035.728	7027
3037.549	6947
3039.368	6953
3041.186	6963
3043.004	6927
3044.821	6984
3046.64	7009
3048.455	6944
3050.272	6964
3052.087	6984
3053.903	7033
3055.717	6896
3057.534	6910
3059.347	6945
3061.16	6899
3062.974	6840
3064.785	6880
3066.598	6990
3068.411	7026
3070.222	6831
3072.032	6883
3073.844	6841
3075.653	6882
3077.463	6881
3079.272	6816
3081.08	6814
3082.889	6859
3084.697	6719
3086.505	6739
3088.312	6721
3090.118	6930
3091.924	6746
3093.729	6742
3095.535	6656
3097.34	6655
3099.144	6763
3100.947	6686
3102.75	6695
3104.553	6693
3106.357	6745
3108.159	6633
3109.961	6704
3111.762	6593
3113.562	6593
3115.365	6640
3117.164	6560
3118.964	6630
3120.761	6639
3122.56	6656
3124.36	6517
3126.158	6572
3127.954	6602
3129.75	6535
3131.547	6528
3133.343	6532
3135.139	6608
3136.934	6515
3138.729	6583
3140.522	6507
3142.317	6656
3144.11	6524
3145.904	6542
3147.695	6567
3149.488	6510
3151.28	6481
3153.07	6493
3154.863	6507
3156.652	6454
3158.441	6511
3160.231	6491
3162.019	6416
3163.81	6479
3165.597	6442
3167.384	6464
3169.172	6286
3170.958	6439
3172.745	6456
3174.532	6427
3176.317	6389
3178.101	6458
3179.885	6382
3181.67	6398
3183.455	6371
3185.238	6377
3187.02	6343
3188.802	6425
3190.585	6421
3192.368	6325
3194.149	6310
3195.929	6275
3197.709	6260
3199.489	6208
3201.268	6297
3203.048	6240
3204.826	6383
3206.604	6278
3208.382	6334
3210.159	6319
3211.937	6306
3213.713	6278
3215.489	6309
3217.263	6296
3219.038	6310
3220.815	6291
3222.589	6233
3224.363	6339
3226.136	6305
3227.908	6180
3229.681	6253
3231.454	6260
3233.226	6200
3234.996	6233
3236.767	6175
3238.538	6262
3240.308	6109
3242.078	6219
3243.847	6263
3245.615	6126
3247.384	6248
3249.15	6262
3250.92	6353
3252.686	6054
3254.453	6204
3256.218	6329
3257.984	6208
3259.75	6108
3261.515	6229
3263.279	6205
3265.044	6204
3266.806	6115
3268.57	6137
3270.334	6212
3272.095	6128
3273.856	6080
3275.619	6192
3277.379	6222
3279.14	6234
3280.9	6122
3282.661	6175
3284.419	6093
3286.178	6142
3287.937	6168
3289.695	6127
3291.453	6146
3293.21	6209
3294.967	6104
3296.723	6178
3298.48	6185
3300.235	6075
3301.99	6043
3303.744	6066
3305.498	6154
3307.253	6255
3309.006	6104
3310.759	6064
3312.511	6144
3314.263	6040
3316.017	6055
3317.768	6079
3319.519	6130
3321.268	6034
3323.018	6044
3324.767	6094
3326.518	6088
3328.267	6110
3330.014	6013
3331.762	5955
3333.509	6154
3335.258	6132
3337.003	5939
3338.75	5982
3340.496	6065
3342.24	5859
3343.987	6061
3345.732	6022
3347.475	5966
3349.219	6045
3350.961	6030
3352.705	5969
3354.448	6103
3356.19	6014
3357.931	6079
3359.672	6025
3361.412	6078
3363.155	5987
3364.894	6024
3366.633	5998
3368.372	5976
3370.11	6065
3371.849	5868
3373.588	5917
3375.325	5964
3377.061	6033
3378.799	5941
3380.534	5883
3382.271	5861
3384.006	5913
3385.741	5876
3387.475	5842
3389.209	5972
3390.944	5954
3392.677	5803
3394.409	5865
3396.143	5863
3397.874	5872
3399.606	5835
3401.338	5912
3403.069	5841
3404.799	5786
3406.528	5921
3408.258	5745
3409.988	5737
3411.717	5799
3413.445	5678
3415.173	5839
3416.899	5833
3418.626	5855
3420.354	5900
3422.08	5856
3423.806	5852
3425.531	5875
3427.255	5760
3428.981	5765
3430.705	5720
3432.429	5779
3434.151	5823
3435.875	5836
3437.599	5780
3439.321	5690
3441.042	5831
3442.763	5653
3444.483	5655
3446.204	5676
3447.926	5735
3449.645	5657
3451.364	5717
3453.082	5766
3454.801	5802
3456.52	5663
3458.238	5635
3459.954	5675
3461.671	5594
3463.387	5676
3465.104	5581
3466.82	5704
3468.534	5640
3470.25	5614
3471.963	5571
3473.676	5687
3475.392	5635
3477.104	5683
3478.817	5543
3480.528	5592
3482.241	5485
3483.954	5440
3485.664	5538
3487.374	5481
3489.084	5520
3490.795	5489
3492.504	5515
3494.214	5461
3495.922	5488
3497.63	5495
3499.338	5518
3501.045	5385
3502.753	5439
3504.459	5470
3506.166	5539
3507.871	5552
3509.576	5354
3511.283	5510
3512.987	5367
3514.691	5527
3516.395	5386
3518.098	5550
3519.8	5490
3521.504	5409
3523.206	5359
3524.908	5341
3526.609	5324
3528.309	5384
3530.011	5400
3531.711	5356
3533.411	5402
3535.109	5431
3536.808	5384
3538.507	5477
3540.206	5401
3541.904	5414
3543.601	5336
3545.297	5366
3546.994	5292
3548.69	5430
3550.387	5299
3552.081	5375
3553.776	5374
3555.47	5342
3557.166	5241
3558.859	5381
3560.553	5347
3562.245	5391
3563.938	5473
3565.629	5363
3567.322	5377
3569.014	5312
3570.704	5279
3572.394	5174
3574.084	5310
3575.775	5379
3577.464	5275
3579.152	5251
3580.842	5293
3582.529	5358
3584.216	5354
3585.905	5258
3587.591	5276
3589.279	5220
3590.964	5155
3592.649	5241
3594.336	5251
3596.021	5228
3597.705	5228
3599.388	5175
3601.072	5158
3602.757	5228
3604.439	5190
3606.122	5177
3607.803	5246
3609.485	5135
3611.167	5146
3612.849	5127
3614.529	5098
3616.208	5189
3617.888	5128
3619.567	5168
3621.247	5079
3622.926	5042
3624.603	5134
3626.281	5066
3627.958	5113
3629.635	5043
3631.312	5094
3632.989	5043
3634.665	5098
3636.339	5045
3638.014	5089
3639.691	5122
3641.364	5079
3643.038	4930
3644.71	4916
3646.384	5033
3648.058	5066
3649.729	5012
3651.402	5053
3653.073	4961
3654.744	4918
3656.414	4986
3658.085	5031
3659.755	5060
3661.424	4937
3663.094	4982
3664.762	4972
3666.431	4968
3668.099	4905
3669.766	5017
3671.433	4984
3673.099	4881
3674.768	4994
3676.433	4996
3678.098	4854
3679.763	4918
3681.428	4840
3683.093	4862
3684.757	5061
3686.421	5004
3688.083	4874
3689.746	4921
3691.408	4965
3693.071	4894
3694.733	4905
3696.394	4849
3698.054	4987
3699.715	4982
3701.375	4955
3703.036	4889
3704.695	4886
3706.354	4851
3708.012	4791
3709.67	4969
3711.329	4825
3712.987	4791
3714.644	4857
3716.299	4867
3717.955	4741
3719.613	4877
3721.268	4801
3722.923	4852
3724.577	4850
3726.231	4791
3727.885	4835
3729.539	4772
3731.192	4854
3732.845	4736
3734.497	4714
3736.149	4804
3737.802	4844
3739.453	4769
3741.104	4698
3742.753	4747
3744.404	4849
3746.052	4911
3747.704	4789
3749.352	4796
3751	4765
3752.648	4759
3754.296	4804
3755.944	4774
3757.59	4706
3759.238	4735
3760.883	4841
3762.528	4776
3764.176	4785
3765.82	4682
3767.464	4761
3769.109	4636
3770.753	4592
3772.396	4711
3774.04	4692
3775.683	4643
3777.325	4591
3778.967	4652
3780.608	4765
3782.25	4625
3783.89	4739
3785.531	4652
3787.17	4665
3788.81	4686
3790.45	4647
3792.09	4610
3793.729	4642
3795.366	4594
3797.003	4600
3798.64	4670
3800.278	4614
3801.915	4583
3803.551	4589
3805.187	4542
3806.822	4596
3808.458	4582
3810.093	4570
3811.726	4585
3813.36	4621
3814.994	4433
3816.627	4597
3818.262	4607
3819.893	4599
3821.525	4493
3823.157	4543
3824.787	4523
3826.42	4583
3828.051	4459
3829.68	4501
3831.31	4506
3832.938	4497
3834.569	4491
3836.198	4531
3837.825	4496
3839.454	4503
3841.08	4514
3842.708	4479
3844.335	4449
3845.962	4378
3847.587	4444
3849.212	4369
3850.838	4527
3852.463	4489
3854.089	4509
3855.712	4507
3857.335	4431
3858.959	4386
3860.582	4460
3862.205	4419
3863.827	4376
3865.449	4338
3867.07	4450
3868.691	4438
3870.312	4368
3871.933	4408
3873.553	4406
3875.173	4444
3876.792	4434
3878.411	4389
3880.03	4351
3881.647	4416
3883.265	4379
3884.882	4394
3886.499	4322
3888.116	4418
3889.732	4436
3891.348	4255
3892.964	4245
3894.579	4407
3896.195	4319
3897.809	4439
3899.423	4350
3901.036	4340
3902.648	4292
3904.261	4314
3905.875	4280
3907.487	4340
3909.099	4462
3910.709	4329
3912.321	4216
3913.933	4329
3915.542	4280
3917.152	4349
3918.762	4355
3920.37	4317
3921.98	4274
3923.589	4315
3925.196	4213
3926.804	4309
3928.41	4178
3930.018	4272
3931.626	4373
3933.231	4274
3934.838	4286
3936.442	4228
3938.046	4223
3939.653	4213
3941.257	4294
3942.861	4257
3944.464	4193
3946.068	4171
3947.67	4224
3949.273	4175
3950.876	4283
3952.477	4248
3954.078	4268
3955.678	4291
3957.281	4234
3958.881	4212
3960.48	4177
3962.079	4143
3963.678	4139
3965.279	4193
3966.877	4194
3968.475	4186
3970.072	4154
3971.669	4166
3973.266	4201
3974.864	4157
3976.459	4166
3978.055	4142
3979.65	4210
3981.245	4140
3982.841	4119
3984.436	4212
3986.03	4076
3987.623	4141
3989.216	4098
3990.809	4151
3992.403	4006
3993.995	4140
3995.586	4067
3997.177	4170
3998.768	4149
4000.361	3968
4001.951	4108
4003.54	4007
4005.13	4177
4006.719	4029
4008.31	4004
4009.897	3929
4011.485	4015
4013.073	4065
4014.66	4055
4016.247	4109
4017.834	3953
4019.421	3963
4021.006	3958
4022.592	3862
4024.178	3918
4025.763	4081
4027.348	4030
4028.932	3880
4030.515	3943
4032.099	3983
4033.682	3962
4035.266	3900
4036.847	3947
4038.429	3915
4040.011	4000
4041.592	3968
4043.173	3932
4044.755	3899
4046.334	3798
4047.913	3996
4049.494	3972
4051.074	3917
4052.652	3886
4054.23	3909
4055.807	3888
4057.385	3894
4058.963	3794
4060.541	3988
4062.117	3833
4063.693	3844
4065.269	3823
4066.844	3822
4068.42	3841
4069.995	3908
4071.569	3900
4073.143	3850
4074.716	3871
4076.291	3815
4077.864	3929
4079.436	3867
4081.009	3838
4082.58	3861
4084.152	3818
4085.723	3825
4087.294	3802
4088.865	3757
4090.435	3816
4092.005	3789
4093.574	3769
4095.143	3842
4096.712	3762
4098.279	3819
4099.848	3739
4101.416	3755
4102.984	3830
4104.55	3778
4106.117	3781
4107.682	3800
4109.248	3910
4110.815	3701
4112.379	3764
4113.945	3700
4115.508	3728
4117.073	3782
4118.637	3776
4120.201	3695
4121.763	3796
4123.325	3716
4124.888	3765
4126.449	3726
4128.013	3681
4129.573	3643
4131.133	3672
4132.694	3714
4134.254	3565
4135.814	3654
4137.374	3729
4138.933	3652
4140.491	3686
4142.049	3753
4143.607	3664
4145.167	3670
4146.724	3658
4148.28	3594
4149.836	3618
4151.392	3617
4152.949	3690
4154.504	3591
4156.059	3610
4157.614	3610
4159.168	3642
4160.723	3646
4162.277	3694
4163.83	3587
4165.383	3589
4166.936	3563
4168.488	3554
4170.041	3596
4171.593	3595
4173.144	3528
4174.695	3488
4176.246	3523
4177.796	3553
4179.346	3567
4180.896	3571
4182.445	3485
4183.994	3517
4185.542	3559
4187.091	3537
4188.639	3535
4190.185	3478
4191.732	3513
4193.279	3547
4194.826	3515
4196.373	3452
4197.918	3462
4199.463	3476
4201.008	3504
4202.553	3541
4204.098	3415
4205.641	3554
4207.185	3476
4208.728	3511
4210.271	3404
4211.814	3454
4213.357	3454
4214.898	3483
4216.439	3484
4217.98	3437
4219.522	3452
4221.062	3395
4222.603	3392
4224.142	3451
4225.681	3510
4227.222	3426
4228.76	3478
4230.298	3489
4231.835	3379
4233.373	3351
4234.911	3473
4236.449	3367
4237.985	3383
4239.521	3421
4241.057	3388
4242.592	3441
4244.128	3291
4245.663	3354
4247.197	3397
4248.731	3415
4250.265	3359
4251.798	3362
4253.333	3315
4254.865	3327
4256.397	3275
4257.93	3439
4259.461	3374
4260.994	3371
4262.525	3246
4264.056	3325
4265.586	3379
4267.115	3369
4268.646	3361
4270.176	3357
4271.705	3332
4273.232	3301
4274.761	3351
4276.289	3400
4277.818	3248
4279.345	3349
4280.872	3309
4282.399	3345
4283.924	3262
4285.452	3340
4286.976	3304
4288.502	3244
4290.026	3298
4291.551	3349
4293.074	3279
4294.6	3277
4296.123	3243
4297.646	3266
4299.168	3251
4300.691	3268
4302.214	3227
4303.736	3255
4305.257	3237
4306.778	3255
4308.299	3248
4309.82	3266
4311.34	3341
4312.86	3263
4314.379	3234
