400.0745	4136
402.597	4084
405.1208	4212
407.6419	4100
410.1623	4197
412.6819	4233
415.201	4322
417.7172	4317
420.2369	4272
422.7538	4342
425.2701	4360
427.7856	4436
430.3005	4408
432.8147	4442
435.3282	4513
437.841	4362
440.3511	4484
442.8625	4448
445.3753	4451
447.8854	4491
450.3927	4451
452.9014	4375
455.4073	4399
457.9146	4458
460.4233	4446
462.9272	4457
465.4325	4398
467.935	4366
470.4389	4441
472.9421	4354
475.4446	4417
477.9444	4517
480.4456	4439
482.944	4476
485.4417	4500
487.9429	4540
490.4393	4549
492.935	4505
495.4321	4507
497.9264	4598
500.4221	4498
502.9171	4553
505.4094	4521
507.9011	4517
510.392	4585
512.8864	4577
515.3759	4563
517.8649	4613
520.3531	4489
522.8406	4558
525.3275	4737
527.8178	4560
530.3033	4642
532.7881	4555
535.2723	4722
537.7558	4616
540.2407	4628
542.7228	4648
545.2043	4676
547.6851	4621
550.1652	4576
552.6467	4645
555.1255	4713
557.6016	4730
560.079	4656
562.5557	4691
565.0318	4764
567.5092	4708
569.984	4764
572.456	4794
574.9294	4699
577.4022	4894
579.8762	4939
582.3456	4800
584.8163	4956
587.2863	4858
589.7557	4853
592.2224	4867
594.6924	4914
597.1578	4849
599.6245	4773
602.0905	4808
604.5538	4800
607.0206	4871
609.4825	4862
611.9459	4850
614.4066	4795
616.8686	4762
619.33	4821
621.7906	4764
624.2487	4691
626.708	4758
629.1647	4693
631.6207	4702
634.0801	4773
636.5348	4804
638.9888	4791
641.4442	4706
643.8969	4829
646.3509	4812
648.8022	4790
651.255	4793
653.705	4735
656.1544	4884
658.6031	4816
661.0532	4902
663.5026	4940
665.9493	4930
668.3954	4895
670.8409	4808
673.2877	5005
675.7318	4852
678.1752	4847
680.618	4883
683.0601	4870
685.5035	4884
687.9444	4970
690.3845	4999
692.824	4923
695.2628	5033
697.701	4979
700.1406	5030
702.5774	4997
705.0116	4986
707.4472	5090
709.8821	5005
712.3183	5053
714.7519	5095
717.1829	5028
719.6151	5118
722.0468	5122
724.4777	5158
726.908	5102
729.3377	5219
731.7667	5083
734.1931	5125
736.6208	5187
739.0498	5169
741.4742	5215
743.9	5178
746.3231	5202
748.7476	5182
751.1713	5268
753.5945	5284
756.015	5272
758.4368	5309
760.856	5289
763.2766	5295
765.6965	5413
768.1157	5299
770.5323	5370
772.9483	5301
775.3656	5307
777.7822	5292
780.1963	5355
782.6116	5394
785.0244	5240
787.4365	5377
789.8499	5405
792.2626	5274
794.6728	5387
797.0823	5284
799.4911	5328
801.8994	5273
804.3109	5382
806.7178	5297
809.124	5295
811.5297	5452
813.9347	5476
816.341	5359
818.7447	5455
821.1478	5322
823.5502	5393
825.952	5364
828.3531	5387
830.7556	5386
833.1554	5376
835.5546	5411
837.9532	5442
840.3511	5526
842.7504	5539
845.1451	5506
847.5411	5547
849.9365	5521
852.3312	5477
854.7272	5623
857.1187	5404
859.5115	5502
861.9037	5527
864.2952	5518
866.6842	5518
869.0764	5567
871.4661	5564
873.8531	5460
876.2415	5624
878.6272	5499
881.0162	5474
883.4026	5476
885.7866	5503
888.1717	5467
890.5543	5582
892.9382	5601
895.3215	5508
897.7041	5404
900.0842	5465
902.4655	5415
904.8443	5483
907.2244	5580
909.6039	5472
911.9808	5543
914.357	5757
916.7346	5583
919.1115	5721
921.4859	5750
923.8616	5745
926.2347	5736
928.6071	5768
930.979	5706
933.3541	5842
935.7247	5740
938.0946	5850
940.4639	5862
942.8326	5971
945.2026	5961
947.5701	6046
949.9369	6267
952.305	6303
954.6705	6525
957.0355	6824
959.4017	6988
961.7654	7063
964.1284	7093
966.4908	6828
968.8527	6593
971.2138	6368
973.5743	6038
975.9343	6037
978.2936	5817
980.6522	5831
983.0122	5783
985.3696	5683
987.7245	5686
990.0807	5655
992.4362	5683
994.7911	5698
997.1474	5643
999.4991	5781
1001.852	5702
1004.205	5715
1006.555	5691
1008.908	5781
1011.258	5789
1013.606	5698
1015.956	5739
1018.302	5789
1020.652	5601
1022.998	5709
1025.345	5803
1027.691	5793
1030.035	5918
1032.378	5776
1034.724	5803
1037.066	5736
1039.409	5875
1041.75	5733
1044.092	5837
1046.433	5771
1048.771	5785
1051.112	5864
1053.449	5785
1055.786	5881
1058.124	5921
1060.462	5826
1062.797	5824
1065.131	5900
1067.467	5860
1069.8	5921
1072.135	5921
1074.467	5918
1076.798	5990
1079.129	5878
1081.459	5877
1083.792	5945
1086.121	5945
1088.449	5761
1090.777	5919
1093.104	5751
1095.431	5866
1097.759	5816
1100.084	5978
1102.408	5814
1104.732	5925
1107.056	5779
1109.379	5921
1111.701	5749
1114.022	5792
1116.343	5855
1118.664	5781
1120.983	5935
1123.303	5753
1125.621	5834
1127.939	5888
1130.256	5845
1132.573	5775
1134.889	5882
1137.205	5812
1139.52	5850
1141.832	5889
1144.146	5835
1146.461	5743
1148.771	5947
1151.083	5825
1153.392	5871
1155.703	5818
1158.011	5767
1160.323	5784
1162.629	5872
1164.938	5845
1167.243	5828
1169.55	5843
1171.857	5911
1174.163	5836
1176.466	5912
1178.769	5837
1181.073	5893
1183.374	5822
1185.677	5821
1187.979	5887
1190.279	5868
1192.578	5864
1194.878	5795
1197.178	5793
1199.476	5900
1201.772	5908
1204.068	5970
1206.366	5886
1208.663	5843
1210.957	5870
1213.251	5859
1215.544	5914
1217.836	5784
1220.128	5797
1222.421	6029
1224.712	5924
1227.002	6059
1229.292	5916
1231.581	6039
1233.871	5989
1236.159	5974
1238.446	5954
1240.732	5982
1243.018	6134
1245.304	6180
1247.59	6188
1249.874	6175
1252.156	6054
1254.439	6130
1256.721	6066
1259.005	6114
1261.286	6063
1263.565	6070
1265.845	6095
1268.125	6134
1270.403	6076
1272.682	6023
1274.959	6035
1277.234	6034
1279.511	6084
1281.787	6205
1284.062	6096
1286.337	6095
1288.609	6045
1290.882	6047
1293.153	6018
1295.428	5986
1297.698	5997
1299.969	5949
1302.237	6041
1304.507	5992
1306.777	6007
1309.044	5940
1311.312	5909
1313.578	5987
1315.844	6041
1318.109	5899
1320.375	5876
1322.638	5945
1324.903	6023
1327.165	5833
1329.427	5995
1331.69	6055
1333.952	6008
1336.212	5958
1338.471	6007
1340.73	6035
1342.988	6049
1345.248	6026
1347.505	6106
1349.763	5931
1352.019	5981
1354.274	6004
1356.53	6000
1358.784	5976
1361.038	6040
1363.291	5974
1365.543	6015
1367.797	5988
1370.048	6002
1372.296	5960
1374.546	5942
1376.796	6105
1379.045	5958
1381.295	5962
1383.542	6004
1385.787	6068
1388.034	6063
1390.28	6000
1392.527	6004
1394.772	6032
1397.014	6047
1399.258	5998
1401.501	6020
1403.741	6120
1405.985	6078
1408.226	6157
1410.465	6082
1412.705	6191
1414.943	6081
1417.184	6095
1419.42	6169
1421.658	5976
1423.894	6198
1426.13	6149
1428.366	6175
1430.602	6175
1432.835	6147
1435.069	6153
1437.301	6159
1439.535	6249
1441.767	6257
1443.997	6181
1446.229	6301
1448.458	6324
1450.687	6248
1452.916	6365
1455.146	6286
1457.372	6377
1459.599	6193
1461.824	6293
1464.051	6388
1466.277	6294
1468.501	6215
1470.725	6200
1472.948	6220
1475.17	6265
1477.393	6199
1479.614	6150
1481.837	6080
1484.057	6099
1486.276	6019
1488.497	5917
1490.715	6092
1492.932	5889
1495.148	5993
1497.364	5907
1499.58	6004
1501.798	6116
1504.012	5914
1506.227	5922
1508.44	6035
1510.653	5900
1512.866	5958
1515.078	5939
1517.289	5913
1519.5	5900
1521.711	5967
1523.92	6021
1526.13	5930
1528.338	5995
1530.544	5955
1532.752	5889
1534.959	5920
1537.165	5908
1539.371	6021
1541.574	5964
1543.779	6017
1545.983	5896
1548.187	6052
1550.39	5999
1552.59	5935
1554.792	6036
1556.991	6073
1559.19	6056
1561.392	6176
1563.59	5980
1565.789	5992
1567.986	6150
1570.182	5984
1572.381	6130
1574.576	6130
1576.771	6128
1578.966	6264
1581.16	6156
1583.354	6195
1585.546	6155
1587.74	6117
1589.931	6149
1592.121	6201
1594.311	6093
1596.502	6152
1598.693	6122
1600.881	6076
1603.069	6206
1605.256	6154
1607.445	6138
1609.631	6118
1611.816	6229
1614.001	6181
1616.186	6077
1618.37	6238
1620.555	6175
1622.737	6151
1624.919	6241
1627.101	6156
1629.282	6200
1631.463	6217
1633.643	6185
1635.822	6164
1638.001	6183
1640.179	6186
1642.359	6304
1644.534	6249
1646.711	6365
1648.887	6267
1651.062	6216
1653.235	6213
1655.412	6328
1657.586	6158
1659.757	6397
1661.93	6215
1664.1	6257
1666.274	6293
1668.445	6239
1670.614	6331
1672.784	6307
1674.951	6305
1677.12	6324
1679.289	6232
1681.457	6275
1683.622	6256
1685.789	6360
1687.953	6256
1690.121	6329
1692.284	6139
1694.447	6133
1696.611	6199
1698.772	6299
1700.935	6148
1703.098	6265
1705.258	6229
1707.417	6142
1709.576	6228
1711.736	6120
1713.896	6041
1716.053	6123
1718.21	6084
1720.366	6062
1722.522	6072
1724.68	6175
1726.835	6072
1728.989	6192
1731.142	6081
1733.295	6131
1735.449	5966
1737.601	6110
1739.753	6041
1741.903	6010
1744.054	6023
1746.203	6102
1748.354	6173
1750.503	6072
1752.651	6163
1754.798	6018
1756.944	6186
1759.092	6102
1761.238	6222
1763.383	6109
1765.528	6086
1767.672	6146
1769.814	6192
1771.959	6148
1774.102	6076
1776.242	6033
1778.384	6258
1780.525	6199
1782.665	6141
1784.805	6196
1786.945	6152
1789.082	6218
1791.22	6200
1793.36	6230
1795.495	6156
1797.632	6067
1799.766	6188
1801.902	6155
1804.035	6167
1806.172	6090
1808.304	6189
1810.436	6157
1812.569	6106
1814.699	6236
1816.833	6241
1818.963	6234
1821.092	6149
1823.222	6195
1825.35	6103
1827.478	6111
1829.608	6133
1831.734	6221
1833.86	6232
1835.986	6046
1838.11	6180
1840.238	6189
1842.362	6018
1844.485	6060
1846.608	6067
1848.73	6028
1850.853	5915
1852.974	6049
1855.097	6072
1857.217	6125
1859.336	6086
1861.455	6063
1863.576	6083
1865.693	6041
1867.811	6080
1869.926	6028
1872.042	6058
1874.16	6034
1876.275	5957
1878.39	6080
1880.504	6020
1882.618	6086
1884.731	6013
1886.843	6102
1888.956	6049
1891.067	6080
1893.178	6033
1895.287	6139
1897.399	6152
1899.508	6083
1901.617	6143
1903.724	6035
1905.832	6150
1907.941	6148
1910.046	6149
1912.152	6155
1914.256	6204
1916.361	6142
1918.464	6143
1920.57	6092
1922.672	6154
1924.775	6176
1926.876	6162
1928.978	6139
1931.08	6185
1933.181	6145
1935.28	6119
1937.38	6161
1939.478	6212
1941.577	6098
1943.675	6099
1945.771	6182
1947.867	6192
1949.964	6353
1952.058	6230
1954.154	6153
1956.248	6211
1958.343	5998
1960.435	6196
1962.527	6177
1964.62	6238
1966.711	6242
1968.802	6143
1970.892	6193
1972.983	6060
1975.072	6152
1977.162	6083
1979.25	6114
1981.337	6169
1983.424	6137
1985.51	6151
1987.598	6091
1989.683	6111
1991.768	6016
1993.852	6157
1995.934	6129
1998.019	6198
2000.102	6122
2002.184	6022
2004.266	6041
2006.347	6127
2008.427	6037
2010.508	5981
2012.587	6176
2014.666	6108
2016.745	6033
2018.821	6194
2020.9	6119
2022.977	6073
2025.052	6063
2027.128	6153
2029.204	6127
2031.277	6087
2033.353	6147
2035.425	6072
2037.499	6001
2039.57	6247
2041.642	6037
2043.714	6052
2045.786	6135
2047.855	6111
2049.925	6151
2051.993	6121
2054.064	6088
2056.132	6035
2058.2	6120
2060.266	6008
2062.332	6055
2064.398	6025
2066.465	6003
2068.529	6140
2070.592	6158
2072.657	6064
2074.719	6114
2076.783	6060
2078.845	6270
2080.907	6107
2082.968	6116
2085.028	6077
2087.087	6099
2089.148	6125
2091.207	6087
2093.264	6064
2095.322	6154
2097.379	6084
2099.439	6048
2101.495	6166
2103.55	6116
2105.605	6150
2107.658	6194
2109.713	6146
2111.767	6247
2113.82	6125
2115.872	6122
2117.924	6070
2119.975	6109
2122.028	6118
2124.078	6160
2126.126	6165
2128.176	6040
2130.225	5972
2132.275	6048
2134.321	6100
2136.368	6171
2138.415	6151
2140.461	6097
2142.505	6059
2144.552	6090
2146.597	6115
2148.64	6012
2150.684	6117
2152.725	6036
2154.77	6016
2156.811	5970
2158.852	6028
2160.894	5973
2162.933	6039
2164.973	6065
2167.013	6043
2169.051	6075
2171.089	5970
2173.126	6023
2175.164	6025
2177.201	5907
2179.236	6070
2181.273	6052
2183.307	5996
2185.341	5991
2187.377	5923
2189.41	6049
2191.442	5984
2193.473	5901
2195.506	5898
2197.539	5957
2199.569	6002
2201.598	5947
2203.628	5974
2205.656	5912
2207.686	5955
2209.716	6012
2211.743	5863
2213.769	5866
2215.796	5942
2217.821	5934
2219.848	5967
2221.873	5811
2223.897	5892
2225.921	5881
2227.944	5867
2229.967	5987
2231.991	5937
2234.011	5989
2236.032	5939
2238.053	5845
2240.073	5954
2242.094	5873
2244.114	6075
2246.131	5833
2248.149	6011
2250.167	5962
2252.186	5910
2254.201	5955
2256.218	5934
2258.233	5837
2260.247	5955
2262.262	5910
2264.278	5883
2266.29	5933
2268.303	5817
2270.315	5812
2272.327	5957
2274.341	5945
2276.35	6068
2278.361	5979
2280.37	5886
2282.38	5886
2284.388	5924
2286.397	5864
2288.405	5998
2290.412	5887
2292.419	6014
2294.425	5989
2296.431	5826
2298.437	5917
2300.441	5948
2302.445	5981
2304.449	5845
2306.453	5928
2308.455	5898
2310.457	5908
2312.459	5938
2314.46	5870
2316.46	5878
2318.461	5862
2320.46	5931
2322.458	5828
2324.458	5886
2326.456	5833
2328.455	5898
2330.451	5977
2332.447	5890
2334.443	5762
2336.438	5817
2338.433	5866
2340.429	5769
2342.422	5830
2344.416	5834
2346.408	5858
2348.399	5771
2350.393	5747
2352.384	5897
2354.375	5923
2356.365	5798
2358.355	5816
2360.344	5891
2362.333	5784
2364.322	5819
2366.309	5851
2368.295	5875
2370.282	5769
2372.27	5861
2374.256	5804
2376.24	5818
2378.225	5785
2380.208	5799
2382.194	5812
2384.177	5742
2386.159	5840
2388.142	5751
2390.122	5815
2392.105	5876
2394.085	5826
2396.066	5890
2398.044	5777
2400.024	5815
2402.002	5829
2403.982	5718
2405.959	5762
2407.935	5764
2409.913	5761
2411.888	5780
2413.865	5768
2415.84	5745
2417.814	5544
2419.788	5833
2421.762	5618
2423.735	5769
2425.708	5645
2427.68	5785
2429.651	5708
2431.623	5721
2433.593	5734
2435.564	5695
2437.533	5696
2439.502	5635
2441.47	5786
2443.438	5763
2445.406	5707
2447.373	5695
2449.34	5689
2451.305	5771
2453.271	5670
2455.235	5823
2457.201	5684
2459.165	5688
2461.129	5753
2463.092	5684
2465.054	5656
2467.018	5700
2468.978	5739
2470.939	5503
2472.899	5693
2474.86	5729
2476.819	5715
2478.778	5582
2480.737	5605
2482.695	5645
2484.653	5696
2486.609	5597
2488.567	5665
2490.524	5671
2492.478	5593
2494.433	5652
2496.387	5662
2498.343	5649
2500.297	5582
2502.249	5600
2504.202	5615
2506.153	5674
2508.105	5598
2510.057	5518
2512.008	5643
2513.957	5637
2515.906	5576
2517.855	5619
2519.805	5605
2521.754	5641
2523.7	5652
2525.647	5639
2527.594	5533
2529.54	5598
2531.486	5688
2533.431	5625
2535.376	5589
2537.32	5663
2539.263	5554
2541.207	5563
2543.151	5594
2545.093	5504
2547.034	5672
2548.975	5575
2550.917	5661
2552.856	5608
2554.796	5613
2556.735	5637
2558.673	5564
2560.611	5663
2562.55	5659
2564.487	5639
2566.424	5606
2568.36	5547
2570.296	5642
2572.232	5606
2574.167	5658
2576.101	5598
2578.035	5598
2579.969	5689
2581.902	5624
2583.834	5560
2585.766	5574
2587.698	5540
2589.628	5655
2591.557	5560
2593.489	5512
2595.419	5500
2597.348	5493
2599.275	5601
2601.204	5604
2603.131	5464
2605.059	5551
2606.986	5447
2608.911	5523
2610.837	5535
2612.76	5591
2614.687	5613
2616.61	5490
2618.534	5593
2620.457	5614
2622.38	5597
2624.302	5543
2626.225	5567
2628.145	5627
2630.067	5654
2631.986	5545
2633.906	5543
2635.827	5690
2637.745	5549
2639.662	5602
2641.581	5518
2643.498	5634
2645.415	5608
2647.331	5538
2649.248	5597
2651.163	5579
2653.077	5571
2654.993	5464
2656.906	5575
2658.821	5502
2660.733	5614
2662.646	5572
2664.557	5507
2666.47	5574
2668.381	5588
2670.291	5570
2672.201	5440
2674.11	5534
2676.021	5556
2677.929	5447
2679.837	5649
2681.745	5501
2683.652	5635
2685.56	5530
2687.466	5593
2689.371	5512
2691.276	5494
2693.181	5469
2695.085	5379
2696.991	5495
2698.893	5577
2700.796	5440
2702.698	5442
2704.601	5451
2706.502	5522
2708.404	5352
2710.304	5473
2712.203	5422
2714.103	5484
2716.003	5484
2717.902	5416
2719.8	5442
2721.697	5462
2723.594	5420
2725.49	5459
2727.389	5461
2729.283	5439
2731.179	5452
2733.073	5482
2734.968	5517
2736.863	5407
2738.757	5496
2740.649	5406
2742.541	5458
2744.433	5326
2746.324	5496
2748.216	5365
2750.107	5486
2751.997	5438
2753.886	5386
2755.776	5461
2757.666	5326
2759.553	5348
2761.44	5335
2763.327	5334
2765.215	5409
2767.102	5487
2768.988	5368
2770.873	5320
2772.757	5384
2774.641	5319
2776.525	5453
2778.41	5358
2780.292	5274
2782.175	5394
2784.057	5418
2785.938	5409
2787.821	5335
2789.701	5440
2791.581	5314
2793.461	5351
2795.34	5395
2797.219	5342
2799.099	5312
2800.975	5397
2802.853	5343
2804.73	5286
2806.606	5228
2808.484	5303
2810.358	5316
2812.233	5335
2814.108	5247
2815.981	5251
2817.857	5316
2819.73	5293
2821.602	5345
2823.474	5234
2825.346	5329
2827.217	5307
2829.089	5324
2830.959	5224
2832.829	5344
2834.698	5326
2836.567	5289
2838.436	5316
2840.305	5326
2842.172	5389
2844.04	5335
2845.905	5302
2847.772	5321
2849.639	5428
2851.503	5333
2853.369	5365
2855.232	5429
2857.096	5391
2858.961	5350
2860.824	5457
2862.686	5493
2864.547	5393
2866.41	5506
2868.272	5375
2870.132	5473
2871.992	5567
2873.851	5619
2875.711	5666
2877.57	5614
2879.429	5726
2881.287	5752
2883.144	5804
2885.001	5793
2886.857	5788
2888.714	5735
2890.57	5800
2892.425	5809
2894.279	5831
2896.133	5743
2897.987	5711
2899.842	5679
2901.694	5798
2903.547	5790
2905.397	5846
2907.249	5858
2909.101	5840
2910.952	5816
2912.802	5834
2914.652	5801
2916.5	5865
2918.35	5861
2920.198	5959
2922.045	5945
2923.893	6254
2925.74	6143
2927.585	6189
2929.433	6242
2931.279	6296
2933.123	6321
2934.968	6312
2936.811	6332
2938.656	6402
2940.5	6430
2942.342	6556
2944.185	6535
2946.026	6565
2947.87	6629
2949.71	6442
2951.549	6422
2953.39	6471
2955.229	6332
2957.069	6396
2958.908	6218
2960.746	6386
2962.584	6204
2964.421	6060
2966.257	6135
2968.094	6079
2969.931	5981
2971.766	5909
2973.601	5919
2975.435	5942
2977.27	5938
2979.105	5945
2980.938	5917
2982.77	5777
2984.602	5889
2986.434	5852
2988.267	5775
2990.097	5609
2991.927	5562
2993.757	5674
2995.587	5633
2997.417	5583
2999.246	5468
3001.074	5466
3002.902	5508
3004.729	5524
3006.556	5433
3008.384	5250
3010.21	5300
3012.036	5262
3013.861	5221
3015.684	5167
3017.51	5179
3019.334	5161
3021.157	5126
3022.981	5005
3024.802	5169
3026.624	5013
3028.448	5051
3030.267	5057
3032.088	4961
3033.909	4950
3035.728	4914
3037.549	5010
3039.368	5030
3041.186	5077
3043.004	4909
3044.821	5000
3046.64	5001
3048.455	4939
3050.272	4878
3052.087	4933
3053.903	4943
3055.717	4885
3057.534	5105
3059.347	4965
3061.16	5102
3062.974	4988
3064.785	4847
3066.598	4907
3068.411	5021
3070.222	4963
3072.032	4889
3073.844	4922
3075.653	4838
3077.463	4899
3079.272	4907
3081.08	4809
3082.889	4834
3084.697	4774
3086.505	4891
3088.312	4809
3090.118	4779
3091.924	4846
3093.729	4895
3095.535	4791
3097.34	4850
3099.144	4818
3100.947	4718
3102.75	4757
3104.553	4860
3106.357	4720
3108.159	4711
3109.961	4820
3111.762	4696
3113.562	4707
3115.365	4671
3117.164	4793
3118.964	4765
3120.761	4722
3122.56	4796
3124.36	4675
3126.158	4684
3127.954	4714
3129.75	4683
3131.547	4656
3133.343	4636
3135.139	4689
3136.934	4715
3138.729	4654
3140.522	4638
3142.317	4638
3144.11	4651
3145.904	4718
3147.695	4583
3149.488	4660
3151.28	4673
3153.07	4625
3154.863	4655
3156.652	4586
3158.441	4695
3160.231	4718
3162.019	4690
3163.81	4639
3165.597	4667
3167.384	4700
3169.172	4530
3170.958	4645
3172.745	4659
3174.532	4608
3176.317	4579
3178.101	4637
3179.885	4571
3181.67	4643
3183.455	4567
3185.238	4571
3187.02	4642
3188.802	4596
3190.585	4578
3192.368	4539
3194.149	4606
3195.929	4604
3197.709	4607
3199.489	4656
3201.268	4620
3203.048	4617
3204.826	4554
3206.604	4531
3208.382	4631
3210.159	4497
3211.937	4627
3213.713	4533
3215.489	4543
3217.263	4631
3219.038	4571
3220.815	4563
3222.589	4590
3224.363	4555
3226.136	4596
3227.908	4529
3229.681	4525
3231.454	4655
3233.226	4608
3234.996	4488
3236.767	4477
3238.538	4543
3240.308	4638
3242.078	4633
3243.847	4557
3245.615	4535
3247.384	4494
3249.15	4603
3250.92	4576
3252.686	4586
3254.453	4541
3256.218	4617
3257.984	4598
3259.75	4535
3261.515	4528
3263.279	4534
3265.044	4671
3266.806	4498
3268.57	4529
3270.334	4590
3272.095	4480
3273.856	4614
3275.619	4579
3277.379	4535
3279.14	4555
3280.9	4514
3282.661	4500
3284.419	4597
3286.178	4617
3287.937	4469
3289.695	4547
3291.453	4571
3293.21	4598
3294.967	4519
3296.723	4527
3298.48	4600
3300.235	4500
3301.99	4614
3303.744	4586
3305.498	4590
3307.253	4503
3309.006	4547
3310.759	4576
3312.511	4578
3314.263	4511
3316.017	4522
3317.768	4569
3319.519	4547
3321.268	4459
3323.018	4612
3324.767	4561
3326.518	4563
3328.267	4543
3330.014	4616
3331.762	4476
3333.509	4533
3335.258	4451
3337.003	4499
3338.75	4595
3340.496	4585
3342.24	4460
3343.987	4584
3345.732	4485
3347.475	4447
3349.219	4472
3350.961	4464
3352.705	4440
3354.448	4511
3356.19	4410
3357.931	4404
3359.672	4503
3361.412	4451
3363.155	4475
3364.894	4395
3366.633	4424
3368.372	4403
3370.11	4427
3371.849	4462
3373.588	4439
3375.325	4425
3377.061	4395
3378.799	4374
3380.534	4416
3382.271	4389
3384.006	4397
3385.741	4405
3387.475	4485
3389.209	4359
3390.944	4456
3392.677	4385
3394.409	4375
3396.143	4374
3397.874	4363
3399.606	4344
3401.338	4385
3403.069	4413
3404.799	4297
3406.528	4342
3408.258	4288
3409.988	4293
3411.717	4351
3413.445	4281
3415.173	4343
3416.899	4349
3418.626	4309
3420.354	4308
3422.08	4297
3423.806	4380
3425.531	4338
3427.255	4290
3428.981	4387
3430.705	4294
3432.429	4243
3434.151	4308
3435.875	4176
3437.599	4316
3439.321	4302
3441.042	4287
3442.763	4202
3444.483	4265
3446.204	4232
3447.926	4302
3449.645	4180
3451.364	4288
3453.082	4188
3454.801	4298
3456.52	4299
3458.238	4220
3459.954	4166
3461.671	4200
3463.387	4227
3465.104	4168
3466.82	4173
3468.534	4231
3470.25	4174
3471.963	4123
3473.676	4137
3475.392	4122
3477.104	4143
3478.817	4176
3480.528	4180
3482.241	4091
3483.954	4112
3485.664	4113
3487.374	4123
3489.084	4037
3490.795	4094
3492.504	4111
3494.214	4060
3495.922	4039
3497.63	4029
3499.338	4087
3501.045	4026
3502.753	4030
3504.459	4023
3506.166	4094
3507.871	4060
3509.576	4033
3511.283	4069
3512.987	3999
3514.691	4072
3516.395	4091
3518.098	4063
3519.8	4021
3521.504	4002
3523.206	3989
3524.908	4036
3526.609	4011
3528.309	3978
3530.011	3999
3531.711	3984
3533.411	3997
3535.109	4058
3536.808	3927
3538.507	3956
3540.206	3992
3541.904	3908
3543.601	3959
3545.297	3973
3546.994	3949
3548.69	3955
3550.387	3823
3552.081	3958
3553.776	3914
3555.47	3974
3557.166	3859
3558.859	3911
3560.553	3878
3562.245	3900
3563.938	3928
3565.629	3856
3567.322	3837
3569.014	3856
3570.704	3878
3572.394	3934
3574.084	3886
3575.775	3879
3577.464	3843
3579.152	3790
3580.842	3796
3582.529	3924
3584.216	3835
3585.905	3868
3587.591	3851
3589.279	3888
3590.964	3789
3592.649	3707
3594.336	3798
3596.021	3808
3597.705	3902
3599.388	3733
3601.072	3769
3602.757	3852
3604.439	3803
3606.122	3828
3607.803	3785
3609.485	3821
3611.167	3746
3612.849	3754
3614.529	3730
3616.208	3782
3617.888	3721
3619.567	3760
3621.247	3717
3622.926	3694
3624.603	3665
3626.281	3707
3627.958	3729
3629.635	3708
3631.312	3673
3632.989	3751
3634.665	3687
3636.339	3684
3638.014	3658
3639.691	3684
3641.364	3703
3643.038	3694
3644.71	3581
3646.384	3579
3648.058	3711
3649.729	3662
3651.402	3624
3653.073	3597
3654.744	3630
3656.414	3610
3658.085	3620
3659.755	3601
3661.424	3638
3663.094	3636
3664.762	3615
3666.431	3571
3668.099	3557
3669.766	3616
3671.433	3548
3673.099	3649
3674.768	3574
3676.433	3596
3678.098	3602
3679.763	3634
3681.428	3491
3683.093	3585
3684.757	3563
3686.421	3546
3688.083	3481
3689.746	3500
3691.408	3574
3693.071	3540
3694.733	3527
3696.394	3474
3698.054	3573
3699.715	3508
3701.375	3605
3703.036	3571
3704.695	3581
3706.354	3514
3708.012	3493
3709.67	3483
3711.329	3435
3712.987	3485
3714.644	3518
3716.299	3548
3717.955	3461
3719.613	3520
3721.268	3556
3722.923	3570
3724.577	3431
3726.231	3436
3727.885	3509
3729.539	3547
3731.192	3455
3732.845	3445
3734.497	3512
3736.149	3457
3737.802	3594
3739.453	3424
3741.104	3461
3742.753	3407
3744.404	3557
3746.052	3468
3747.704	3432
3749.352	3489
3751	3441
3752.648	3408
3754.296	3517
3755.944	3401
3757.59	3346
3759.238	3505
3760.883	3483
3762.528	3435
3764.176	3501
3765.82	3421
3767.464	3342
3769.109	3406
3770.753	3358
3772.396	3322
3774.04	3442
3775.683	3326
3777.325	3486
3778.967	3358
3780.608	3385
3782.25	3400
3783.89	3410
3785.531	3322
3787.17	3481
3788.81	3381
3790.45	3394
3792.09	3323
3793.729	3359
3795.366	3352
3797.003	3321
3798.64	3384
3800.278	3332
3801.915	3344
3803.551	3340
3805.187	3325
3806.822	3354
3808.458	3319
3810.093	3282
3811.726	3345
3813.36	3323
3814.994	3349
3816.627	3287
3818.262	3302
3819.893	3293
3821.525	3250
3823.157	3309
3824.787	3272
3826.42	3301
3828.051	3284
3829.68	3290
3831.31	3341
3832.938	3279
3834.569	3256
3836.198	3266
3837.825	3314
3839.454	3279
3841.08	3284
3842.708	3168
3844.335	3243
3845.962	3262
3847.587	3208
3849.212	3239
3850.838	3244
3852.463	3264
3854.089	3184
3855.712	3267
3857.335	3222
3858.959	3249
3860.582	3230
3862.205	3281
3863.827	3218
3865.449	3173
3867.07	3205
3868.691	3183
3870.312	3229
3871.933	3196
3873.553	3207
3875.173	3211
3876.792	3112
3878.411	3210
3880.03	3248
3881.647	3163
3883.265	3212
3884.882	3152
3886.499	3181
3888.116	3107
3889.732	3134
3891.348	3201
3892.964	3160
3894.579	3147
3896.195	3209
3897.809	3196
3899.423	3186
3901.036	3172
3902.648	3137
3904.261	3129
3905.875	3168
3907.487	3134
3909.099	3127
3910.709	3144
3912.321	3167
3913.933	3221
3915.542	3234
3917.152	3158
3918.762	3225
3920.37	3156
3921.98	3121
3923.589	3143
3925.196	3085
3926.804	3067
3928.41	3122
3930.018	3129
3931.626	3165
3933.231	3087
3934.838	3040
3936.442	3070
3938.046	3032
3939.653	3054
3941.257	3056
3942.861	3143
3944.464	3061
3946.068	3115
3947.67	3038
3949.273	3129
3950.876	3125
3952.477	3124
3954.078	3113
3955.678	3033
3957.281	3054
3958.881	3091
3960.48	3116
3962.079	3051
3963.678	3013
3965.279	3043
3966.877	3079
3968.475	3047
3970.072	3058
3971.669	2941
3973.266	3044
3974.864	2995
3976.459	2941
3978.055	3084
3979.65	2944
3981.245	2941
3982.841	3010
3984.436	3027
3986.03	2963
3987.623	3049
3989.216	3015
3990.809	3031
3992.403	2974
3993.995	3013
3995.586	3014
3997.177	2994
3998.768	2997
4000.361	2999
4001.951	2993
4003.54	2982
4005.13	3012
4006.719	2975
4008.31	2995
4009.897	2939
4011.485	2925
4013.073	2933
4014.66	2947
4016.247	2952
4017.834	2882
4019.421	2898
4021.006	2868
4022.592	2908
4024.178	2882
4025.763	2981
4027.348	2840
4028.932	2924
4030.515	2883
4032.099	2874
4033.682	2842
4035.266	2870
4036.847	2903
4038.429	2827
4040.011	2886
4041.592	2861
4043.173	2868
4044.755	2819
4046.334	2895
4047.913	2830
4049.494	2853
4051.074	2932
4052.652	2821
4054.23	2873
4055.807	2855
4057.385	2830
4058.963	2841
4060.541	2920
4062.117	2865
4063.693	2918
4065.269	2756
4066.844	2794
4068.42	2769
4069.995	2789
4071.569	2827
4073.143	2842
4074.716	2725
4076.291	2853
4077.864	2827
4079.436	2760
4081.009	2779
4082.58	2811
4084.152	2739
4085.723	2849
4087.294	2758
4088.865	2774
4090.435	2822
4092.005	2811
4093.574	2820
4095.143	2854
4096.712	2762
4098.279	2777
4099.848	2785
4101.416	2798
4102.984	2793
4104.55	2743
4106.117	2712
4107.682	2770
4109.248	2804
4110.815	2771
4112.379	2768
4113.945	2782
4115.508	2686
4117.073	2836
4118.637	2758
4120.201	2773
4121.763	2727
4123.325	2763
4124.888	2775
4126.449	2703
4128.013	2614
4129.573	2726
4131.133	2686
4132.694	2725
4134.254	2745
4135.814	2744
4137.374	2668
4138.933	2697
4140.491	2705
4142.049	2664
4143.607	2669
4145.167	2680
4146.724	2722
4148.28	2695
4149.836	2637
4151.392	2664
4152.949	2672
4154.504	2666
4156.059	2637
4157.614	2622
4159.168	2625
4160.723	2642
4162.277	2642
4163.83	2627
4165.383	2609
4166.936	2612
4168.488	2632
4170.041	2614
4171.593	2600
4173.144	2675
4174.695	2615
4176.246	2626
4177.796	2618
4179.346	2591
4180.896	2634
4182.445	2592
4183.994	2606
4185.542	2612
4187.091	2595
4188.639	2568
4190.185	2514
4191.732	2597
4193.279	2565
4194.826	2631
4196.373	2513
4197.918	2648
4199.463	2597
4201.008	2576
4202.553	2493
4204.098	2558
4205.641	2611
4207.185	2634
4208.728	2541
4210.271	2496
4211.814	2507
4213.357	2641
4214.898	2512
4216.439	2557
4217.98	2610
4219.522	2573
4221.062	2530
4222.603	2587
4224.142	2465
4225.681	2541
4227.222	2536
4228.76	2582
4230.298	2541
4231.835	2494
4233.373	2538
4234.911	2501
4236.449	2519
4237.985	2537
4239.521	2538
4241.057	2541
4242.592	2530
4244.128	2553
4245.663	2553
4247.197	2516
4248.731	2549
4250.265	2478
4251.798	2509
4253.333	2523
4254.865	2504
4256.397	2485
4257.93	2532
4259.461	2558
4260.994	2585
4262.525	2485
4264.056	2536
4265.586	2513
4267.115	2468
4268.646	2483
4270.176	2499
4271.705	2502
4273.232	2487
4274.761	2435
4276.289	2514
4277.818	2466
4279.345	2482
4280.872	2421
4282.399	2485
4283.924	2472
4285.452	2487
4286.976	2427
4288.502	2449
4290.026	2454
4291.551	2473
4293.074	2471
4294.6	2470
4296.123	2422
4297.646	2401
4299.168	2394
4300.691	2452
4302.214	2394
4303.736	2315
4305.257	2484
4306.778	2425
4308.299	2427
4309.82	2392
4311.34	2495
4312.86	2405
4314.379	2372
