400.0745	6289
402.597	6255
405.1208	6292
407.6419	6304
410.1623	6240
412.6819	6237
415.201	6393
417.7172	6411
420.2369	6520
422.7538	6416
425.2701	6501
427.7856	6543
430.3005	6644
432.8147	6774
435.3282	6830
437.841	6632
440.3511	6693
442.8625	6713
445.3753	6755
447.8854	6763
450.3927	6731
452.9014	6678
455.4073	6793
457.9146	6808
460.4233	6716
462.9272	6786
465.4325	6902
467.935	6703
470.4389	6787
472.9421	6837
475.4446	6866
477.9444	6831
480.4456	6887
482.944	6827
485.4417	6867
487.9429	6898
490.4393	6875
492.935	6917
495.4321	6936
497.9264	7007
500.4221	7079
502.9171	7075
505.4094	6970
507.9011	6913
510.392	7054
512.8864	7021
515.3759	7071
517.8649	7077
520.3531	7107
522.8406	7070
525.3275	7035
527.8178	7040
530.3033	7048
532.7881	7044
535.2723	7062
537.7558	7172
540.2407	6968
542.7228	7167
545.2043	7087
547.6851	7061
550.1652	7044
552.6467	7179
555.1255	7075
557.6016	7091
560.079	7293
562.5557	7077
565.0318	7153
567.5092	7258
569.984	7339
572.456	7343
574.9294	7290
577.4022	7303
579.8762	7307
582.3456	7319
584.8163	7305
587.2863	7433
589.7557	7272
592.2224	7487
594.6924	7447
597.1578	7317
599.6245	7350
602.0905	7335
604.5538	7304
607.0206	7238
609.4825	7428
611.9459	7450
614.4066	7357
616.8686	7372
619.33	7384
621.7906	7330
624.2487	7443
626.708	7407
629.1647	7228
631.6207	7268
634.0801	7402
636.5348	7373
638.9888	7391
641.4442	7366
643.8969	7419
646.3509	7413
648.8022	7506
651.255	7374
653.705	7548
656.1544	7558
658.6031	7540
661.0532	7511
663.5026	7532
665.9493	7612
668.3954	7606
670.8409	7567
673.2877	7433
675.7318	7565
678.1752	7512
680.618	7617
683.0601	7486
685.5035	7665
687.9444	7506
690.3845	7644
692.824	7594
695.2628	7535
697.701	7773
700.1406	7628
702.5774	7684
705.0116	7748
707.4472	7702
709.8821	7743
712.3183	7733
714.7519	7708
717.1829	7792
719.6151	7815
722.0468	7784
724.4777	7925
726.908	7920
729.3377	7845
731.7667	7821
734.1931	7896
736.6208	7902
739.0498	8066
741.4742	8092
743.9	7972
746.3231	7987
748.7476	8034
751.1713	8060
753.5945	8102
756.015	8060
758.4368	8137
760.856	8178
763.2766	8114
765.6965	8249
768.1157	8161
770.5323	8165
772.9483	8295
775.3656	8210
777.7822	8251
780.1963	8136
782.6116	8292
785.0244	8254
787.4365	8369
789.8499	8121
792.2626	8281
794.6728	8141
797.0823	8084
799.4911	8195
801.8994	8151
804.3109	8314
806.7178	8349
809.124	8191
811.5297	8368
813.9347	8362
816.341	8226
818.7447	8267
821.1478	8280
823.5502	8185
825.952	8439
828.3531	8430
830.7556	8195
833.1554	8219
835.5546	8408
837.9532	8428
840.3511	8258
842.7504	8350
845.1451	8448
847.5411	8337
849.9365	8451
852.3312	8349
854.7272	8429
857.1187	8411
859.5115	8487
861.9037	8409
864.2952	8504
866.6842	8421
869.0764	8473
871.4661	8408
873.8531	8392
876.2415	8564
878.6272	8397
881.0162	8466
883.4026	8479
885.7866	8382
888.1717	8388
890.5543	8344
892.9382	8487
895.3215	8505
897.7041	8351
900.0842	8318
902.4655	8444
904.8443	8430
907.2244	8522
909.6039	8565
911.9808	8514
914.357	8573
916.7346	8639
919.1115	8670
921.4859	8672
923.8616	8805
926.2347	8753
928.6071	8730
930.979	8754
933.3541	8750
935.7247	8841
938.0946	8920
940.4639	8946
942.8326	8894
945.2026	8982
947.5701	9213
949.9369	9324
952.305	9541
954.6705	9623
957.0355	9941
959.4017	10193
961.7654	10339
964.1284	10280
966.4908	10020
968.8527	9898
971.2138	9619
973.5743	9461
975.9343	9183
978.2936	9044
980.6522	8866
983.0122	8820
985.3696	8726
987.7245	8810
990.0807	8916
992.4362	8681
994.7911	8571
997.1474	8694
999.4991	8733
1001.852	8860
1004.205	8754
1006.555	8804
1008.908	8800
1011.258	8684
1013.606	8721
1015.956	8748
1018.302	8760
1020.652	8713
1022.998	8810
1025.345	8775
1027.691	8893
1030.035	8809
1032.378	8853
1034.724	8962
1037.066	8844
1039.409	8919
1041.75	8952
1044.092	8895
1046.433	8863
1048.771	8920
1051.112	8977
1053.449	8908
1055.786	8901
1058.124	9020
1060.462	8890
1062.797	8977
1065.131	9054
1067.467	8974
1069.8	8994
1072.135	8895
1074.467	9089
1076.798	9103
1079.129	9013
1081.459	9027
1083.792	9027
1086.121	8891
1088.449	8870
1090.777	8901
1093.104	8953
1095.431	8955
1097.759	8863
1100.084	8934
1102.408	9014
1104.732	8866
1107.056	9047
1109.379	8874
1111.701	8972
1114.022	9094
1116.343	8911
1118.664	8971
1120.983	8948
1123.303	8909
1125.621	8998
1127.939	9085
1130.256	8951
1132.573	8876
1134.889	8901
1137.205	8922
1139.52	9045
1141.832	8871
1144.146	8898
1146.461	8977
1148.771	8863
1151.083	9037
1153.392	8983
1155.703	8993
1158.011	8985
1160.323	9016
1162.629	9077
1164.938	9027
1167.243	9067
1169.55	9061
1171.857	9019
1174.163	9042
1176.466	8930
1178.769	8906
1181.073	8961
1183.374	8967
1185.677	8993
1187.979	9034
1190.279	8880
1192.578	8975
1194.878	8933
1197.178	9077
1199.476	9025
1201.772	8830
1204.068	9070
1206.366	8905
1208.663	9020
1210.957	8922
1213.251	9021
1215.544	8884
1217.836	9147
1220.128	9047
1222.421	9043
1224.712	9145
1227.002	9137
1229.292	9124
1231.581	9161
1233.871	9238
1236.159	9104
1238.446	9300
1240.732	9245
1243.018	9126
1245.304	9322
1247.59	9177
1249.874	9258
1252.156	9256
1254.439	9304
1256.721	9129
1259.005	9210
1261.286	9309
1263.565	9114
1265.845	9209
1268.125	9224
1270.403	9333
1272.682	9276
1274.959	9320
1277.234	9182
1279.511	9235
1281.787	9276
1284.062	9107
1286.337	9199
1288.609	9143
1290.882	9202
1293.153	9183
1295.428	9214
1297.698	9208
1299.969	9205
1302.237	9214
1304.507	9231
1306.777	9028
1309.044	9125
1311.312	9040
1313.578	9213
1315.844	9217
1318.109	9143
1320.375	9332
1322.638	9139
1324.903	9170
1327.165	9063
1329.427	9101
1331.69	9196
1333.952	9250
1336.212	9252
1338.471	9264
1340.73	9155
1342.988	9141
1345.248	9255
1347.505	9133
1349.763	9018
1352.019	9150
1354.274	9197
1356.53	9229
1358.784	9066
1361.038	9287
1363.291	9166
1365.543	9114
1367.797	9218
1370.048	9320
1372.296	9227
1374.546	9096
1376.796	9211
1379.045	9132
1381.295	9249
1383.542	9342
1385.787	9163
1388.034	9173
1390.28	9208
1392.527	9187
1394.772	9258
1397.014	9310
1399.258	9309
1401.501	9329
1403.741	9333
1405.985	9250
1408.226	9336
1410.465	9403
1412.705	9305
1414.943	9269
1417.184	9358
1419.42	9357
1421.658	9397
1423.894	9358
1426.13	9376
1428.366	9386
1430.602	9202
1432.835	9471
1435.069	9471
1437.301	9424
1439.535	9447
1441.767	9398
1443.997	9512
1446.229	9440
1448.458	9500
1450.687	9610
1452.916	9472
1455.146	9598
1457.372	9492
1459.599	9533
1461.824	9686
1464.051	9470
1466.277	9469
1468.501	9409
1470.725	9354
1472.948	9428
1475.17	9438
1477.393	9385
1479.614	9381
1481.837	9241
1484.057	9273
1486.276	9313
1488.497	9308
1490.715	9282
1492.932	9142
1495.148	9266
1497.364	9126
1499.58	9174
1501.798	9142
1504.012	9334
1506.227	9165
1508.44	9210
1510.653	9183
1512.866	9175
1515.078	9186
1517.289	9248
1519.5	9133
1521.711	9181
1523.92	9185
1526.13	9210
1528.338	9226
1530.544	9032
1532.752	9217
1534.959	9179
1537.165	9171
1539.371	9252
1541.574	9192
1543.779	9111
1545.983	9315
1548.187	9062
1550.39	9260
1552.59	9172
1554.792	9218
1556.991	9187
1559.19	9249
1561.392	9304
1563.59	9425
1565.789	9187
1567.986	9329
1570.182	9319
1572.381	9258
1574.576	9227
1576.771	9333
1578.966	9446
1581.16	9275
1583.354	9438
1585.546	9340
1587.74	9489
1589.931	9353
1592.121	9362
1594.311	9321
1596.502	9311
1598.693	9468
1600.881	9422
1603.069	9411
1605.256	9529
1607.445	9484
1609.631	9441
1611.816	9480
1614.001	9420
1616.186	9463
1618.37	9464
1620.555	9338
1622.737	9427
1624.919	9404
1627.101	9527
1629.282	9665
1631.463	9567
1633.643	9494
1635.822	9461
1638.001	9430
1640.179	9474
1642.359	9416
1644.534	9532
1646.711	9601
1648.887	9461
1651.062	9498
1653.235	9593
1655.412	9518
1657.586	9610
1659.757	9506
1661.93	9504
1664.1	9511
1666.274	9552
1668.445	9675
1670.614	9549
1672.784	9558
1674.951	9596
1677.12	9581
1679.289	9610
1681.457	9500
1683.622	9530
1685.789	9556
1687.953	9631
1690.121	9709
1692.284	9409
1694.447	9359
1696.611	9347
1698.772	9499
1700.935	9393
1703.098	9361
1705.258	9375
1707.417	9495
1709.576	9420
1711.736	9371
1713.896	9342
1716.053	9465
1718.21	9349
1720.366	9231
1722.522	9295
1724.68	9442
1726.835	9401
1728.989	9535
1731.142	9253
1733.295	9334
1735.449	9237
1737.601	9352
1739.753	9377
1741.903	9422
1744.054	9350
1746.203	9468
1748.354	9359
1750.503	9355
1752.651	9319
1754.798	9396
1756.944	9407
1759.092	9443
1761.238	9288
1763.383	9429
1765.528	9316
1767.672	9421
1769.814	9299
1771.959	9533
1774.102	9349
1776.242	9391
1778.384	9539
1780.525	9359
1782.665	9406
1784.805	9532
1786.945	9358
1789.082	9518
1791.22	9526
1793.36	9502
1795.495	9545
1797.632	9467
1799.766	9471
1801.902	9527
1804.035	9572
1806.172	9472
1808.304	9247
1810.436	9409
1812.569	9522
1814.699	9632
1816.833	9495
1818.963	9573
1821.092	9458
1823.222	9284
1825.35	9449
1827.478	9313
1829.608	9403
1831.734	9524
1833.86	9332
1835.986	9504
1838.11	9372
1840.238	9232
1842.362	9382
1844.485	9409
1846.608	9472
1848.73	9386
1850.853	9305
1852.974	9324
1855.097	9347
1857.217	9322
1859.336	9279
1861.455	9281
1863.576	9435
1865.693	9287
1867.811	9289
1869.926	9468
1872.042	9366
1874.16	9321
1876.275	9251
1878.39	9338
1880.504	9416
1882.618	9333
1884.731	9259
1886.843	9329
1888.956	9389
1891.067	9353
1893.178	9388
1895.287	9262
1897.399	9392
1899.508	9377
1901.617	9509
1903.724	9293
1905.832	9464
1907.941	9414
1910.046	9287
1912.152	9435
1914.256	9582
1916.361	9466
1918.464	9522
1920.57	9527
1922.672	9508
1924.775	9581
1926.876	9471
1928.978	9532
1931.08	9528
1933.181	9447
1935.28	9463
1937.38	9532
1939.478	9529
1941.577	9491
1943.675	9519
1945.771	9332
1947.867	9346
1949.964	9353
1952.058	9568
1954.154	9492
1956.248	9399
1958.343	9427
1960.435	9372
1962.527	9439
1964.62	9463
1966.711	9384
1968.802	9480
1970.892	9380
1972.983	9489
1975.072	9452
1977.162	9363
1979.25	9445
1981.337	9405
1983.424	9343
1985.51	9349
1987.598	9429
1989.683	9382
1991.768	9322
1993.852	9546
1995.934	9319
1998.019	9393
2000.102	9396
2002.184	9583
2004.266	9436
2006.347	9334
2008.427	9334
2010.508	9276
2012.587	9255
2014.666	9285
2016.745	9415
2018.821	9359
2020.9	9287
2022.977	9438
2025.052	9319
2027.128	9318
2029.204	9338
2031.277	9319
2033.353	9360
2035.425	9281
2037.499	9313
2039.57	9361
2041.642	9320
2043.714	9364
2045.786	9327
2047.855	9382
2049.925	9268
2051.993	9319
2054.064	9265
2056.132	9345
2058.2	9381
2060.266	9311
2062.332	9406
2064.398	9252
2066.465	9357
2068.529	9408
2070.592	9225
2072.657	9254
2074.719	9464
2076.783	9354
2078.845	9476
2080.907	9182
2082.968	9271
2085.028	9384
2087.087	9470
2089.148	9256
2091.207	9333
2093.264	9396
2095.322	9330
2097.379	9305
2099.439	9243
2101.495	9351
2103.55	9305
2105.605	9300
2107.658	9380
2109.713	9223
2111.767	9326
2113.82	9263
2115.872	9293
2117.924	9300
2119.975	9176
2122.028	9268
2124.078	9341
2126.126	9335
2128.176	9190
2130.225	9442
2132.275	9333
2134.321	9279
2136.368	9294
2138.415	9263
2140.461	9272
2142.505	9333
2144.552	9334
2146.597	9092
2148.64	9269
2150.684	9122
2152.725	9189
2154.77	9186
2156.811	9278
2158.852	9216
2160.894	9135
2162.933	9158
2164.973	9169
2167.013	9165
2169.051	9185
2171.089	9211
2173.126	9055
2175.164	9237
2177.201	9091
2179.236	9129
2181.273	9247
2183.307	9128
2185.341	9183
2187.377	9076
2189.41	9122
2191.442	9074
2193.473	9043
2195.506	9147
2197.539	9053
2199.569	9041
2201.598	8997
2203.628	9043
2205.656	9049
2207.686	8901
2209.716	9048
2211.743	8975
2213.769	9011
2215.796	9025
2217.821	8944
2219.848	8922
2221.873	8955
2223.897	9019
2225.921	9042
2227.944	8929
2229.967	8972
2231.991	8986
2234.011	8997
2236.032	9031
2238.053	9014
2240.073	9016
2242.094	8930
2244.114	9210
2246.131	8903
2248.149	8940
2250.167	8904
2252.186	8845
2254.201	9049
2256.218	8904
2258.233	8930
2260.247	8919
2262.262	9044
2264.278	9035
2266.29	8896
2268.303	9042
2270.315	8965
2272.327	8981
2274.341	8982
2276.35	8943
2278.361	8835
2280.37	9016
2282.38	9027
2284.388	9020
2286.397	8963
2288.405	9111
2290.412	9007
2292.419	8986
2294.425	9075
2296.431	8854
2298.437	8972
2300.441	8987
2302.445	8909
2304.449	8925
2306.453	8952
2308.455	9007
2310.457	8767
2312.459	9035
2314.46	8926
2316.46	8992
2318.461	8822
2320.46	8879
2322.458	8987
2324.458	8834
2326.456	8879
2328.455	8788
2330.451	8825
2332.447	8829
2334.443	8722
2336.438	8726
2338.433	8872
2340.429	8755
2342.422	8786
2344.416	8774
2346.408	8843
2348.399	8840
2350.393	8656
2352.384	8836
2354.375	8753
2356.365	8784
2358.355	8735
2360.344	8712
2362.333	8705
2364.322	8729
2366.309	8774
2368.295	8638
2370.282	8706
2372.27	8766
2374.256	8660
2376.24	8755
2378.225	8727
2380.208	8615
2382.194	8720
2384.177	8693
2386.159	8656
2388.142	8613
2390.122	8599
2392.105	8616
2394.085	8636
2396.066	8688
2398.044	8555
2400.024	8584
2402.002	8648
2403.982	8617
2405.959	8526
2407.935	8649
2409.913	8650
2411.888	8615
2413.865	8551
2415.84	8495
2417.814	8579
2419.788	8594
2421.762	8612
2423.735	8606
2425.708	8656
2427.68	8623
2429.651	8598
2431.623	8497
2433.593	8578
2435.564	8573
2437.533	8569
2439.502	8599
2441.47	8430
2443.438	8657
2445.406	8580
2447.373	8706
2449.34	8560
2451.305	8528
2453.271	8524
2455.235	8668
2457.201	8468
2459.165	8511
2461.129	8493
2463.092	8445
2465.054	8434
2467.018	8397
2468.978	8408
2470.939	8354
2472.899	8364
2474.86	8568
2476.819	8506
2478.778	8445
2480.737	8497
2482.695	8473
2484.653	8541
2486.609	8426
2488.567	8452
2490.524	8499
2492.478	8484
2494.433	8461
2496.387	8341
2498.343	8458
2500.297	8352
2502.249	8437
2504.202	8430
2506.153	8334
2508.105	8443
2510.057	8325
2512.008	8307
2513.957	8465
2515.906	8397
2517.855	8282
2519.805	8379
2521.754	8346
2523.7	8462
2525.647	8259
2527.594	8374
2529.54	8402
2531.486	8283
2533.431	8396
2535.376	8395
2537.32	8472
2539.263	8329
2541.207	8338
2543.151	8406
2545.093	8230
2547.034	8302
2548.975	8318
2550.917	8312
2552.856	8387
2554.796	8298
2556.735	8237
2558.673	8355
2560.611	8337
2562.55	8177
2564.487	8312
2566.424	8411
2568.36	8253
2570.296	8272
2572.232	8265
2574.167	8281
2576.101	8282
2578.035	8330
2579.969	8301
2581.902	8278
2583.834	8258
2585.766	8288
2587.698	8295
2589.628	8274
2591.557	8405
2593.489	8296
2595.419	8399
2597.348	8406
2599.275	8329
2601.204	8310
2603.131	8263
2605.059	8393
2606.986	8380
2608.911	8297
2610.837	8290
2612.76	8366
2614.687	8301
2616.61	8132
2618.534	8406
2620.457	8379
2622.38	8314
2624.302	8323
2626.225	8346
2628.145	8333
2630.067	8255
2631.986	8462
2633.906	8365
2635.827	8401
2637.745	8385
2639.662	8320
2641.581	8229
2643.498	8315
2645.415	8314
2647.331	8356
2649.248	8247
2651.163	8218
2653.077	8240
2654.993	8306
2656.906	8194
2658.821	8247
2660.733	8272
2662.646	8238
2664.557	8299
2666.47	8389
2668.381	8314
2670.291	8243
2672.201	8175
2674.11	8199
2676.021	8272
2677.929	8355
2679.837	8250
2681.745	8252
2683.652	8194
2685.56	8192
2687.466	8140
2689.371	8159
2691.276	8124
2693.181	8265
2695.085	8204
2696.991	8249
2698.893	8179
2700.796	8114
2702.698	8242
2704.601	8004
2706.502	8077
2708.404	7984
2710.304	8188
2712.203	8072
2714.103	8137
2716.003	8146
2717.902	8050
2719.8	8148
2721.697	8061
2723.594	8052
2725.49	8141
2727.389	8269
2729.283	8074
2731.179	8064
2733.073	8062
2734.968	8010
2736.863	8064
2738.757	8085
2740.649	8028
2742.541	7975
2744.433	8016
2746.324	8015
2748.216	7963
2750.107	7931
2751.997	7983
2753.886	8134
2755.776	8037
2757.666	7907
2759.553	8049
2761.44	7948
2763.327	7902
2765.215	8090
2767.102	7958
2768.988	7982
2770.873	7924
2772.757	7957
2774.641	8004
2776.525	7950
2778.41	7980
2780.292	7878
2782.175	7987
2784.057	7962
2785.938	7835
2787.821	7966
2789.701	7707
2791.581	8039
2793.461	7808
2795.34	7934
2797.219	7866
2799.099	7849
2800.975	7993
2802.853	7977
2804.73	7886
2806.606	7858
2808.484	7903
2810.358	7822
2812.233	7804
2814.108	7954
2815.981	8056
2817.857	7793
2819.73	7826
2821.602	7838
2823.474	7884
2825.346	7796
2827.217	7833
2829.089	7880
2830.959	7808
2832.829	7887
2834.698	7699
2836.567	7805
2838.436	7857
2840.305	7816
2842.172	7871
2844.04	7961
2845.905	7850
2847.772	7702
2849.639	7919
2851.503	7796
2853.369	7896
2855.232	7930
2857.096	7828
2858.961	7893
2860.824	7948
2862.686	7872
2864.547	7891
2866.41	8051
2868.272	8004
2870.132	7975
2871.992	8055
2873.851	7918
2875.711	8182
2877.57	8045
2879.429	8083
2881.287	8213
2883.144	8147
2885.001	8180
2886.857	8104
2888.714	8266
2890.57	8177
2892.425	8258
2894.279	8128
2896.133	8193
2897.987	8168
2899.842	8259
2901.694	8170
2903.547	8241
2905.397	8139
2907.249	8098
2909.101	8237
2910.952	8118
2912.802	8059
2914.652	8299
2916.5	8254
2918.35	8312
2920.198	8311
2922.045	8391
2923.893	8473
2925.74	8486
2927.585	8592
2929.433	8516
2931.279	8643
2933.123	8666
2934.968	8689
2936.811	8625
2938.656	8775
2940.5	8560
2942.342	8944
2944.185	8750
2946.026	8704
2947.87	8890
2949.71	8772
2951.549	8762
2953.39	8691
2955.229	8689
2957.069	8662
2958.908	8474
2960.746	8533
2962.584	8529
2964.421	8342
2966.257	8465
2968.094	8237
2969.931	8154
2971.766	8294
2973.601	8199
2975.435	8190
2977.27	8174
2979.105	8209
2980.938	8346
2982.77	8200
2984.602	8045
2986.434	8034
2988.267	8122
2990.097	8063
2991.927	8152
2993.757	7932
2995.587	7893
2997.417	7912
2999.246	7813
3001.074	7881
3002.902	7897
3004.729	7802
3006.556	7673
3008.384	7660
3010.21	7615
3012.036	7526
3013.861	7570
3015.684	7624
3017.51	7551
3019.334	7486
3021.157	7503
3022.981	7415
3024.802	7425
3026.624	7428
3028.448	7436
3030.267	7413
3032.088	7301
3033.909	7466
3035.728	7403
3037.549	7191
3039.368	7528
3041.186	7282
3043.004	7310
3044.821	7338
3046.64	7237
3048.455	7409
3050.272	7250
3052.087	7281
3053.903	7341
3055.717	7308
3057.534	7236
3059.347	7389
3061.16	7318
3062.974	7218
3064.785	7126
3066.598	7182
3068.411	7291
3070.222	7202
3072.032	7156
3073.844	7288
3075.653	7195
3077.463	7193
3079.272	7351
3081.08	7152
3082.889	7119
3084.697	7032
3086.505	7156
3088.312	7212
3090.118	7137
3091.924	7160
3093.729	7084
3095.535	6994
3097.34	7135
3099.144	7064
3100.947	7159
3102.75	7056
3104.553	7172
3106.357	6989
3108.159	6984
3109.961	7050
3111.762	6972
3113.562	7039
3115.365	6986
3117.164	7031
3118.964	6889
3120.761	6975
3122.56	6883
3124.36	7056
3126.158	6931
3127.954	7032
3129.75	6832
3131.547	6952
3133.343	6846
3135.139	6894
3136.934	6915
3138.729	6882
3140.522	6878
3142.317	6950
3144.11	6922
3145.904	6900
3147.695	6805
3149.488	6932
3151.28	6862
3153.07	6802
3154.863	6877
3156.652	6748
3158.441	6719
3160.231	6867
3162.019	6860
3163.81	6729
3165.597	6936
3167.384	6744
3169.172	6859
3170.958	6671
3172.745	6696
3174.532	6823
3176.317	6797
3178.101	6825
3179.885	6752
3181.67	6799
3183.455	6833
3185.238	6650
3187.02	6772
3188.802	6669
3190.585	6813
3192.368	6725
3194.149	6777
3195.929	6630
3197.709	6670
3199.489	6642
3201.268	6671
3203.048	6700
3204.826	6667
3206.604	6593
3208.382	6712
3210.159	6714
3211.937	6605
3213.713	6686
3215.489	6656
3217.263	6666
3219.038	6698
3220.815	6657
3222.589	6673
3224.363	6641
3226.136	6683
3227.908	6601
3229.681	6595
3231.454	6739
3233.226	6599
3234.996	6687
3236.767	6618
3238.538	6656
3240.308	6595
3242.078	6616
3243.847	6548
3245.615	6614
3247.384	6511
3249.15	6570
3250.92	6624
3252.686	6571
3254.453	6741
3256.218	6696
3257.984	6625
3259.75	6627
3261.515	6656
3263.279	6589
3265.044	6608
3266.806	6628
3268.57	6552
3270.334	6738
3272.095	6638
3273.856	6511
3275.619	6686
3277.379	6651
3279.14	6609
3280.9	6650
3282.661	6650
3284.419	6624
3286.178	6615
3287.937	6562
3289.695	6492
3291.453	6609
3293.21	6580
3294.967	6612
3296.723	6538
3298.48	6605
3300.235	6453
3301.99	6449
3303.744	6369
3305.498	6553
3307.253	6526
3309.006	6543
3310.759	6517
3312.511	6523
3314.263	6564
3316.017	6548
3317.768	6424
3319.519	6558
3321.268	6543
3323.018	6674
3324.767	6567
3326.518	6490
3328.267	6532
3330.014	6400
3331.762	6581
3333.509	6496
3335.258	6596
3337.003	6502
3338.75	6417
3340.496	6589
3342.24	6520
3343.987	6518
3345.732	6511
3347.475	6399
3349.219	6546
3350.961	6518
3352.705	6483
3354.448	6511
3356.19	6585
3357.931	6466
3359.672	6372
3361.412	6442
3363.155	6343
3364.894	6434
3366.633	6452
3368.372	6417
3370.11	6311
3371.849	6402
3373.588	6424
3375.325	6316
3377.061	6442
3378.799	6448
3380.534	6353
3382.271	6369
3384.006	6234
3385.741	6322
3387.475	6317
3389.209	6292
3390.944	6277
3392.677	6358
3394.409	6279
3396.143	6216
3397.874	6310
3399.606	6414
3401.338	6215
3403.069	6371
3404.799	6304
3406.528	6399
3408.258	6176
3409.988	6245
3411.717	6349
3413.445	6157
3415.173	6166
3416.899	6287
3418.626	6284
3420.354	6228
3422.08	6165
3423.806	6157
3425.531	6238
3427.255	6194
3428.981	6221
3430.705	6003
3432.429	6185
3434.151	6189
3435.875	6194
3437.599	6230
3439.321	6217
3441.042	6160
3442.763	6136
3444.483	6109
3446.204	6099
3447.926	6094
3449.645	6089
3451.364	6095
3453.082	6070
3454.801	6063
3456.52	6114
3458.238	6011
3459.954	6046
3461.671	6040
3463.387	5972
3465.104	6037
3466.82	5966
3468.534	6070
3470.25	5972
3471.963	6025
3473.676	5939
3475.392	5940
3477.104	6031
3478.817	6022
3480.528	5900
3482.241	5863
3483.954	6002
3485.664	5898
3487.374	5941
3489.084	5886
3490.795	5930
3492.504	5886
3494.214	5899
3495.922	5949
3497.63	5854
3499.338	5806
3501.045	5995
3502.753	5827
3504.459	5822
3506.166	5788
3507.871	5905
3509.576	5783
3511.283	5787
3512.987	5877
3514.691	5930
3516.395	5763
3518.098	5812
3519.8	5771
3521.504	5720
3523.206	5763
3524.908	5864
3526.609	5764
3528.309	5791
3530.011	5704
3531.711	5786
3533.411	5814
3535.109	5764
3536.808	5688
3538.507	5736
3540.206	5603
3541.904	5748
3543.601	5692
3545.297	5685
3546.994	5774
3548.69	5764
3550.387	5669
3552.081	5638
3553.776	5701
3555.47	5784
3557.166	5556
3558.859	5578
3560.553	5766
3562.245	5719
3563.938	5673
3565.629	5585
3567.322	5657
3569.014	5620
3570.704	5491
3572.394	5604
3574.084	5630
3575.775	5641
3577.464	5551
3579.152	5533
3580.842	5485
3582.529	5593
3584.216	5721
3585.905	5603
3587.591	5591
3589.279	5573
3590.964	5517
3592.649	5517
3594.336	5475
3596.021	5543
3597.705	5367
3599.388	5459
3601.072	5502
3602.757	5508
3604.439	5446
3606.122	5572
3607.803	5439
3609.485	5416
3611.167	5487
3612.849	5479
3614.529	5517
3616.208	5382
3617.888	5470
3619.567	5422
3621.247	5329
3622.926	5382
3624.603	5461
3626.281	5440
3627.958	5343
3629.635	5348
3631.312	5349
3632.989	5356
3634.665	5406
3636.339	5247
3638.014	5251
3639.691	5322
3641.364	5279
3643.038	5367
3644.71	5320
3646.384	5312
3648.058	5226
3649.729	5336
3651.402	5174
3653.073	5244
3654.744	5259
3656.414	5371
3658.085	5229
3659.755	5241
3661.424	5335
3663.094	5223
3664.762	5315
3666.431	5215
3668.099	5256
3669.766	5214
3671.433	5154
3673.099	5185
3674.768	5267
3676.433	5203
3678.098	5272
3679.763	5196
3681.428	5129
3683.093	5197
3684.757	5158
3686.421	5123
3688.083	5158
3689.746	5132
3691.408	5236
3693.071	5110
3694.733	5101
3696.394	5145
3698.054	5195
3699.715	5154
3701.375	5016
3703.036	5185
3704.695	5187
3706.354	5153
3708.012	5153
3709.67	5021
3711.329	5035
3712.987	5040
3714.644	5155
3716.299	5113
3717.955	5092
3719.613	5139
3721.268	5068
3722.923	5049
3724.577	5052
3726.231	5081
3727.885	5029
3729.539	5173
3731.192	5041
3732.845	5036
3734.497	5037
3736.149	5119
3737.802	5009
3739.453	5066
3741.104	5090
3742.753	4948
3744.404	5080
3746.052	5030
3747.704	4909
3749.352	4968
3751	5014
3752.648	4959
3754.296	5017
3755.944	4840
3757.59	4922
3759.238	4992
3760.883	4968
3762.528	4899
3764.176	4894
3765.82	4966
3767.464	4957
3769.109	4941
3770.753	5035
3772.396	4885
3774.04	4954
3775.683	4953
3777.325	4970
3778.967	4963
3780.608	5054
3782.25	4817
3783.89	4881
3785.531	4792
3787.17	4944
3788.81	4811
3790.45	4846
3792.09	4887
3793.729	4844
3795.366	4845
3797.003	4809
3798.64	4871
3800.278	4794
3801.915	4828
3803.551	4911
3805.187	4841
3806.822	4774
3808.458	4825
3810.093	4771
3811.726	4790
3813.36	4803
3814.994	4787
3816.627	4796
3818.262	4751
3819.893	4811
3821.525	4774
3823.157	4691
3824.787	4756
3826.42	4755
3828.051	4668
3829.68	4771
3831.31	4771
3832.938	4838
3834.569	4759
3836.198	4615
3837.825	4676
3839.454	4633
3841.08	4663
3842.708	4672
3844.335	4630
3845.962	4629
3847.587	4706
3849.212	4595
3850.838	4716
3852.463	4699
3854.089	4648
3855.712	4707
3857.335	4597
3858.959	4646
3860.582	4621
3862.205	4649
3863.827	4658
3865.449	4615
3867.07	4601
3868.691	4592
3870.312	4656
3871.933	4601
3873.553	4651
3875.173	4661
3876.792	4613
3878.411	4649
3880.03	4584
3881.647	4565
3883.265	4655
3884.882	4678
3886.499	4618
3888.116	4500
3889.732	4584
3891.348	4708
3892.964	4554
3894.579	4462
3896.195	4523
3897.809	4490
3899.423	4513
3901.036	4597
3902.648	4579
3904.261	4559
3905.875	4505
3907.487	4477
3909.099	4526
3910.709	4568
3912.321	4568
3913.933	4503
3915.542	4594
3917.152	4537
3918.762	4522
3920.37	4502
3921.98	4510
3923.589	4500
3925.196	4474
3926.804	4557
3928.41	4445
3930.018	4480
3931.626	4408
3933.231	4511
3934.838	4445
3936.442	4448
3938.046	4468
3939.653	4481
3941.257	4492
3942.861	4536
3944.464	4585
3946.068	4502
3947.67	4412
3949.273	4375
3950.876	4451
3952.477	4446
3954.078	4456
3955.678	4416
3957.281	4358
3958.881	4427
3960.48	4404
3962.079	4260
3963.678	4466
3965.279	4429
3966.877	4411
3968.475	4477
3970.072	4319
3971.669	4365
3973.266	4340
3974.864	4386
3976.459	4413
3978.055	4356
3979.65	4387
3981.245	4364
3982.841	4365
3984.436	4313
3986.03	4188
3987.623	4354
3989.216	4343
3990.809	4303
3992.403	4307
3993.995	4280
3995.586	4278
3997.177	4225
3998.768	4307
4000.361	4189
4001.951	4398
4003.54	4300
4005.13	4200
4006.719	4250
4008.31	4260
4009.897	4208
4011.485	4308
4013.073	4218
4014.66	4247
4016.247	4168
4017.834	4178
4019.421	4203
4021.006	4242
4022.592	4219
4024.178	4216
4025.763	4166
4027.348	4135
4028.932	4137
4030.515	4177
4032.099	4138
4033.682	4203
4035.266	4142
4036.847	4190
4038.429	4147
4040.011	4038
4041.592	4151
4043.173	4092
4044.755	4153
4046.334	4001
4047.913	4121
4049.494	4222
4051.074	4072
4052.652	4099
4054.23	4055
4055.807	4111
4057.385	4072
4058.963	4084
4060.541	4102
4062.117	4128
4063.693	3964
4065.269	4066
4066.844	4129
4068.42	4077
4069.995	4029
4071.569	4085
4073.143	3948
4074.716	4075
4076.291	3986
4077.864	3978
4079.436	3942
4081.009	4089
4082.58	4065
4084.152	3921
4085.723	3976
4087.294	3940
4088.865	4028
4090.435	4039
4092.005	3971
4093.574	3934
4095.143	4017
4096.712	4024
4098.279	4008
4099.848	3936
4101.416	3924
4102.984	4008
4104.55	4030
4106.117	3928
4107.682	3946
4109.248	3910
4110.815	3932
4112.379	4001
4113.945	3970
4115.508	3942
4117.073	3914
4118.637	3946
4120.201	3928
4121.763	3963
4123.325	3936
4124.888	3863
4126.449	3910
4128.013	3837
4129.573	3927
4131.133	3864
4132.694	3787
4134.254	3869
4135.814	3889
4137.374	3872
4138.933	3862
4140.491	3842
4142.049	3839
4143.607	3886
4145.167	3888
4146.724	3772
4148.28	3788
4149.836	3800
4151.392	3808
4152.949	3839
4154.504	3804
4156.059	3756
4157.614	3782
4159.168	3804
4160.723	3760
4162.277	3808
4163.83	3753
4165.383	3745
4166.936	3748
4168.488	3800
4170.041	3775
4171.593	3722
4173.144	3773
4174.695	3796
4176.246	3786
4177.796	3768
4179.346	3729
4180.896	3752
4182.445	3761
4183.994	3807
4185.542	3728
4187.091	3701
4188.639	3740
4190.185	3762
4191.732	3618
4193.279	3686
4194.826	3681
4196.373	3761
4197.918	3618
4199.463	3663
4201.008	3621
4202.553	3772
4204.098	3634
4205.641	3639
4207.185	3644
4208.728	3611
4210.271	3655
4211.814	3637
4213.357	3576
4214.898	3559
4216.439	3686
4217.98	3739
4219.522	3651
4221.062	3678
4222.603	3632
4224.142	3533
4225.681	3616
4227.222	3615
4228.76	3639
4230.298	3680
4231.835	3582
4233.373	3592
4234.911	3623
4236.449	3574
4237.985	3627
4239.521	3525
4241.057	3612
4242.592	3549
4244.128	3582
4245.663	3552
4247.197	3614
4248.731	3535
4250.265	3501
4251.798	3594
4253.333	3609
4254.865	3572
4256.397	3608
4257.93	3570
4259.461	3534
4260.994	3556
4262.525	3612
4264.056	3495
4265.586	3615
4267.115	3497
4268.646	3484
4270.176	3491
4271.705	3492
4273.232	3520
4274.761	3518
4276.289	3606
4277.818	3564
4279.345	3568
4280.872	3493
4282.399	3501
4283.924	3416
4285.452	3472
4286.976	3499
4288.502	3446
4290.026	3519
4291.551	3510
4293.074	3506
4294.6	3482
4296.123	3442
4297.646	3428
4299.168	3430
4300.691	3409
4302.214	3459
4303.736	3425
4305.257	3379
4306.778	3465
4308.299	3383
4309.82	3378
4311.34	3398
4312.86	3436
4314.379	3455
