400.0745	4256
402.597	4219
405.1208	4257
407.6419	4255
410.1623	4203
412.6819	4239
415.201	4288
417.7172	4370
420.2369	4346
422.7538	4413
425.2701	4429
427.7856	4479
430.3005	4400
432.8147	4447
435.3282	4489
437.841	4540
440.3511	4493
442.8625	4572
445.3753	4443
447.8854	4531
450.3927	4524
452.9014	4604
455.4073	4468
457.9146	4600
460.4233	4496
462.9272	4499
465.4325	4581
467.935	4584
470.4389	4570
472.9421	4557
475.4446	4594
477.9444	4637
480.4456	4626
482.944	4656
485.4417	4624
487.9429	4558
490.4393	4612
492.935	4710
495.4321	4678
497.9264	4674
500.4221	4633
502.9171	4683
505.4094	4733
507.9011	4662
510.392	4771
512.8864	4714
515.3759	4660
517.8649	4760
520.3531	4743
522.8406	4720
525.3275	4649
527.8178	4752
530.3033	4795
532.7881	4793
535.2723	4739
537.7558	4743
540.2407	4769
542.7228	4723
545.2043	4796
547.6851	4730
550.1652	4801
552.6467	4779
555.1255	4858
557.6016	4799
560.079	4833
562.5557	4793
565.0318	4785
567.5092	4845
569.984	4895
572.456	4913
574.9294	4900
577.4022	4986
579.8762	4894
582.3456	5017
584.8163	4900
587.2863	5073
589.7557	5008
592.2224	4938
594.6924	4947
597.1578	4935
599.6245	4980
602.0905	4983
604.5538	4952
607.0206	4986
609.4825	4890
611.9459	5026
614.4066	4935
616.8686	5017
619.33	4934
621.7906	4916
624.2487	5004
626.708	4907
629.1647	4852
631.6207	4976
634.0801	4856
636.5348	4957
638.9888	4899
641.4442	5010
643.8969	4912
646.3509	4960
648.8022	4957
651.255	4976
653.705	5011
656.1544	5039
658.6031	4999
661.0532	5079
663.5026	5045
665.9493	4963
668.3954	4993
670.8409	5059
673.2877	5199
675.7318	5148
678.1752	5165
680.618	5078
683.0601	5107
685.5035	5151
687.9444	5137
690.3845	5154
692.824	5272
695.2628	5114
697.701	5105
700.1406	5160
702.5774	5100
705.0116	5201
707.4472	5251
709.8821	5307
712.3183	5264
714.7519	5142
717.1829	5264
719.6151	5291
722.0468	5217
724.4777	5250
726.908	5336
729.3377	5316
731.7667	5303
734.1931	5272
736.6208	5361
739.0498	5354
741.4742	5319
743.9	5402
746.3231	5368
748.7476	5382
751.1713	5533
753.5945	5459
756.015	5396
758.4368	5491
760.856	5348
763.2766	5433
765.6965	5429
768.1157	5443
770.5323	5471
772.9483	5545
775.3656	5441
777.7822	5483
780.1963	5476
782.6116	5448
785.0244	5431
787.4365	5479
789.8499	5520
792.2626	5427
794.6728	5496
797.0823	5492
799.4911	5499
801.8994	5433
804.3109	5541
806.7178	5448
809.124	5507
811.5297	5516
813.9347	5645
816.341	5612
818.7447	5519
821.1478	5568
823.5502	5590
825.952	5562
828.3531	5617
830.7556	5614
833.1554	5575
835.5546	5578
837.9532	5690
840.3511	5588
842.7504	5612
845.1451	5638
847.5411	5598
849.9365	5681
852.3312	5677
854.7272	5651
857.1187	5682
859.5115	5814
861.9037	5729
864.2952	5680
866.6842	5680
869.0764	5696
871.4661	5610
873.8531	5550
876.2415	5714
878.6272	5625
881.0162	5612
883.4026	5648
885.7866	5663
888.1717	5631
890.5543	5643
892.9382	5720
895.3215	5699
897.7041	5610
900.0842	5597
902.4655	5615
904.8443	5610
907.2244	5668
909.6039	5627
911.9808	5802
914.357	5787
916.7346	5765
919.1115	5815
921.4859	5923
923.8616	5901
926.2347	5869
928.6071	5905
930.979	5904
933.3541	5918
935.7247	5915
938.0946	5928
940.4639	5935
942.8326	5946
945.2026	6057
947.5701	6010
949.9369	6161
952.305	6148
954.6705	6388
957.0355	6567
959.4017	6715
961.7654	6708
964.1284	6628
966.4908	6630
968.8527	6425
971.2138	6341
973.5743	6244
975.9343	6040
978.2936	5940
980.6522	5842
983.0122	5968
985.3696	5774
987.7245	5838
990.0807	5848
992.4362	5861
994.7911	5783
997.1474	5829
999.4991	5779
1001.852	5866
1004.205	5971
1006.555	5776
1008.908	5878
1011.258	5924
1013.606	5812
1015.956	5845
1018.302	5870
1020.652	5813
1022.998	5741
1025.345	5960
1027.691	5881
1030.035	5915
1032.378	5909
1034.724	5925
1037.066	5758
1039.409	5846
1041.75	6029
1044.092	5892
1046.433	5991
1048.771	5972
1051.112	5926
1053.449	5967
1055.786	5971
1058.124	6017
1060.462	5979
1062.797	5935
1065.131	6001
1067.467	6039
1069.8	6072
1072.135	5979
1074.467	6086
1076.798	6175
1079.129	6011
1081.459	6053
1083.792	5981
1086.121	5998
1088.449	5918
1090.777	5983
1093.104	5983
1095.431	5943
1097.759	6024
1100.084	6050
1102.408	5940
1104.732	5990
1107.056	5881
1109.379	6083
1111.701	5997
1114.022	6055
1116.343	6066
1118.664	5931
1120.983	5978
1123.303	6044
1125.621	5949
1127.939	5962
1130.256	6054
1132.573	6060
1134.889	5961
1137.205	6061
1139.52	6011
1141.832	6054
1144.146	5995
1146.461	6054
1148.771	6025
1151.083	5953
1153.392	6085
1155.703	5955
1158.011	5958
1160.323	5980
1162.629	6105
1164.938	6011
1167.243	6082
1169.55	6074
1171.857	6075
1174.163	6023
1176.466	5979
1178.769	5953
1181.073	6049
1183.374	5984
1185.677	5997
1187.979	6107
1190.279	5963
1192.578	5979
1194.878	5888
1197.178	5978
1199.476	6046
1201.772	6131
1204.068	5989
1206.366	6094
1208.663	6044
1210.957	5971
1213.251	6119
1215.544	6049
1217.836	6100
1220.128	6075
1222.421	6013
1224.712	6095
1227.002	6224
1229.292	6018
1231.581	6099
1233.871	6133
1236.159	6163
1238.446	6234
1240.732	6170
1243.018	6256
1245.304	6249
1247.59	6294
1249.874	6217
1252.156	6252
1254.439	6122
1256.721	6210
1259.005	6267
1261.286	6246
1263.565	6258
1265.845	6218
1268.125	6250
1270.403	6221
1272.682	6248
1274.959	6221
1277.234	6308
1279.511	6259
1281.787	6230
1284.062	6210
1286.337	6226
1288.609	6141
1290.882	6233
1293.153	6205
1295.428	6145
1297.698	6222
1299.969	6218
1302.237	6232
1304.507	6088
1306.777	6152
1309.044	6133
1311.312	6079
1313.578	6273
1315.844	6118
1318.109	6253
1320.375	6203
1322.638	6097
1324.903	6198
1327.165	6136
1329.427	6206
1331.69	6214
1333.952	6226
1336.212	6137
1338.471	6134
1340.73	6256
1342.988	6163
1345.248	6165
1347.505	6129
1349.763	6151
1352.019	6199
1354.274	6108
1356.53	6150
1358.784	6059
1361.038	6199
1363.291	6291
1365.543	6070
1367.797	6227
1370.048	6128
1372.296	6205
1374.546	6197
1376.796	6229
1379.045	6229
1381.295	6279
1383.542	6203
1385.787	6060
1388.034	6189
1390.28	6244
1392.527	6179
1394.772	6196
1397.014	6312
1399.258	6298
1401.501	6281
1403.741	6258
1405.985	6402
1408.226	6269
1410.465	6266
1412.705	6196
1414.943	6273
1417.184	6323
1419.42	6305
1421.658	6303
1423.894	6306
1426.13	6310
1428.366	6424
1430.602	6235
1432.835	6341
1435.069	6401
1437.301	6419
1439.535	6391
1441.767	6412
1443.997	6309
1446.229	6582
1448.458	6434
1450.687	6503
1452.916	6465
1455.146	6464
1457.372	6410
1459.599	6443
1461.824	6361
1464.051	6417
1466.277	6352
1468.501	6293
1470.725	6364
1472.948	6252
1475.17	6427
1477.393	6271
1479.614	6291
1481.837	6358
1484.057	6366
1486.276	6225
1488.497	6120
1490.715	6209
1492.932	6193
1495.148	6173
1497.364	6186
1499.58	6166
1501.798	6225
1504.012	6121
1506.227	6122
1508.44	6047
1510.653	6105
1512.866	6129
1515.078	6218
1517.289	6156
1519.5	6015
1521.711	6211
1523.92	6173
1526.13	6253
1528.338	6085
1530.544	6208
1532.752	6186
1534.959	6154
1537.165	6071
1539.371	6215
1541.574	6280
1543.779	6133
1545.983	6087
1548.187	6145
1550.39	6210
1552.59	6284
1554.792	6195
1556.991	6249
1559.19	6257
1561.392	6309
1563.59	6090
1565.789	6256
1567.986	6205
1570.182	6230
1572.381	6287
1574.576	6360
1576.771	6262
1578.966	6306
1581.16	6322
1583.354	6334
1585.546	6340
1587.74	6350
1589.931	6413
1592.121	6359
1594.311	6346
1596.502	6380
1598.693	6311
1600.881	6321
1603.069	6319
1605.256	6413
1607.445	6344
1609.631	6457
1611.816	6436
1614.001	6328
1616.186	6282
1618.37	6363
1620.555	6360
1622.737	6324
1624.919	6351
1627.101	6290
1629.282	6408
1631.463	6302
1633.643	6497
1635.822	6305
1638.001	6372
1640.179	6434
1642.359	6352
1644.534	6442
1646.711	6437
1648.887	6322
1651.062	6372
1653.235	6336
1655.412	6459
1657.586	6400
1659.757	6463
1661.93	6407
1664.1	6446
1666.274	6592
1668.445	6390
1670.614	6452
1672.784	6452
1674.951	6479
1677.12	6528
1679.289	6469
1681.457	6382
1683.622	6559
1685.789	6469
1687.953	6497
1690.121	6497
1692.284	6389
1694.447	6334
1696.611	6404
1698.772	6362
1700.935	6286
1703.098	6389
1705.258	6278
1707.417	6468
1709.576	6287
1711.736	6314
1713.896	6511
1716.053	6267
1718.21	6389
1720.366	6283
1722.522	6344
1724.68	6287
1726.835	6320
1728.989	6341
1731.142	6314
1733.295	6399
1735.449	6352
1737.601	6269
1739.753	6294
1741.903	6417
1744.054	6355
1746.203	6435
1748.354	6335
1750.503	6387
1752.651	6455
1754.798	6437
1756.944	6280
1759.092	6358
1761.238	6352
1763.383	6409
1765.528	6279
1767.672	6397
1769.814	6389
1771.959	6325
1774.102	6317
1776.242	6340
1778.384	6385
1780.525	6331
1782.665	6332
1784.805	6555
1786.945	6310
1789.082	6414
1791.22	6367
1793.36	6503
1795.495	6386
1797.632	6267
1799.766	6431
1801.902	6411
1804.035	6408
1806.172	6310
1808.304	6386
1810.436	6495
1812.569	6409
1814.699	6461
1816.833	6472
1818.963	6391
1821.092	6391
1823.222	6415
1825.35	6471
1827.478	6263
1829.608	6325
1831.734	6419
1833.86	6359
1835.986	6400
1838.11	6370
1840.238	6277
1842.362	6459
1844.485	6427
1846.608	6371
1848.73	6331
1850.853	6236
1852.974	6199
1855.097	6301
1857.217	6316
1859.336	6297
1861.455	6317
1863.576	6247
1865.693	6227
1867.811	6306
1869.926	6180
1872.042	6355
1874.16	6357
1876.275	6256
1878.39	6397
1880.504	6209
1882.618	6218
1884.731	6382
1886.843	6295
1888.956	6226
1891.067	6324
1893.178	6367
1895.287	6425
1897.399	6435
1899.508	6388
1901.617	6356
1903.724	6324
1905.832	6373
1907.941	6325
1910.046	6369
1912.152	6398
1914.256	6460
1916.361	6395
1918.464	6345
1920.57	6409
1922.672	6333
1924.775	6460
1926.876	6300
1928.978	6409
1931.08	6315
1933.181	6348
1935.28	6483
1937.38	6369
1939.478	6373
1941.577	6360
1943.675	6382
1945.771	6412
1947.867	6358
1949.964	6283
1952.058	6480
1954.154	6287
1956.248	6426
1958.343	6395
1960.435	6402
1962.527	6413
1964.62	6375
1966.711	6331
1968.802	6403
1970.892	6349
1972.983	6296
1975.072	6418
1977.162	6357
1979.25	6372
1981.337	6383
1983.424	6307
1985.51	6433
1987.598	6313
1989.683	6301
1991.768	6342
1993.852	6441
1995.934	6216
1998.019	6391
2000.102	6238
2002.184	6254
2004.266	6300
2006.347	6346
2008.427	6215
2010.508	6505
2012.587	6429
2014.666	6240
2016.745	6281
2018.821	6276
2020.9	6333
2022.977	6364
2025.052	6323
2027.128	6362
2029.204	6246
2031.277	6285
2033.353	6303
2035.425	6349
2037.499	6368
2039.57	6335
2041.642	6324
2043.714	6320
2045.786	6274
2047.855	6419
2049.925	6369
2051.993	6319
2054.064	6217
2056.132	6367
2058.2	6417
2060.266	6268
2062.332	6355
2064.398	6304
2066.465	6286
2068.529	6386
2070.592	6228
2072.657	6311
2074.719	6179
2076.783	6332
2078.845	6308
2080.907	6367
2082.968	6278
2085.028	6309
2087.087	6399
2089.148	6327
2091.207	6321
2093.264	6260
2095.322	6308
2097.379	6320
2099.439	6282
2101.495	6361
2103.55	6236
2105.605	6357
2107.658	6383
2109.713	6267
2111.767	6275
2113.82	6226
2115.872	6299
2117.924	6308
2119.975	6333
2122.028	6261
2124.078	6286
2126.126	6175
2128.176	6298
2130.225	6202
2132.275	6314
2134.321	6400
2136.368	6298
2138.415	6178
2140.461	6254
2142.505	6267
2144.552	6232
2146.597	6239
2148.64	6206
2150.684	6104
2152.725	6333
2154.77	6258
2156.811	6267
2158.852	6163
2160.894	6252
2162.933	6298
2164.973	6265
2167.013	6312
2169.051	6353
2171.089	6165
2173.126	6351
2175.164	6321
2177.201	6149
2179.236	6202
2181.273	6189
2183.307	6188
2185.341	6159
2187.377	6186
2189.41	6220
2191.442	6195
2193.473	6039
2195.506	6200
2197.539	6213
2199.569	6236
2201.598	6250
2203.628	6114
2205.656	6104
2207.686	6118
2209.716	6173
2211.743	6135
2213.769	6204
2215.796	6135
2217.821	6143
2219.848	6050
2221.873	5994
2223.897	6100
2225.921	6129
2227.944	6096
2229.967	6133
2231.991	6103
2234.011	6030
2236.032	6044
2238.053	6012
2240.073	6131
2242.094	6022
2244.114	6078
2246.131	6106
2248.149	6217
2250.167	6013
2252.186	6070
2254.201	6047
2256.218	6005
2258.233	6132
2260.247	6126
2262.262	6139
2264.278	6073
2266.29	6167
2268.303	6201
2270.315	6064
2272.327	6068
2274.341	6137
2276.35	6138
2278.361	6021
2280.37	6177
2282.38	6083
2284.388	6134
2286.397	6036
2288.405	6106
2290.412	5995
2292.419	6130
2294.425	6083
2296.431	6092
2298.437	6023
2300.441	6084
2302.445	6044
2304.449	6154
2306.453	6046
2308.455	6144
2310.457	6062
2312.459	6072
2314.46	6062
2316.46	6039
2318.461	5974
2320.46	6037
2322.458	6025
2324.458	6107
2326.456	5970
2328.455	6105
2330.451	6016
2332.447	6027
2334.443	5926
2336.438	6036
2338.433	5892
2340.429	5980
2342.422	5987
2344.416	6028
2346.408	5964
2348.399	5983
2350.393	5939
2352.384	5999
2354.375	6014
2356.365	5943
2358.355	5928
2360.344	6040
2362.333	5911
2364.322	5939
2366.309	5925
2368.295	5930
2370.282	5834
2372.27	5982
2374.256	5989
2376.24	5911
2378.225	5943
2380.208	5821
2382.194	5963
2384.177	5882
2386.159	5910
2388.142	5925
2390.122	5869
2392.105	5865
2394.085	5853
2396.066	5877
2398.044	5848
2400.024	5913
2402.002	5821
2403.982	5882
2405.959	5754
2407.935	5875
2409.913	5821
2411.888	5775
2413.865	5860
2415.84	5863
2417.814	5894
2419.788	5832
2421.762	5812
2423.735	5913
2425.708	5791
2427.68	5712
2429.651	5852
2431.623	5877
2433.593	5757
2435.564	5824
2437.533	5897
2439.502	5948
2441.47	5800
2443.438	5860
2445.406	5872
2447.373	5727
2449.34	5911
2451.305	5914
2453.271	5799
2455.235	5797
2457.201	5843
2459.165	5715
2461.129	5862
2463.092	5824
2465.054	5750
2467.018	5755
2468.978	5755
2470.939	5780
2472.899	5821
2474.86	5732
2476.819	5757
2478.778	5816
2480.737	5825
2482.695	5669
2484.653	5723
2486.609	5791
2488.567	5758
2490.524	5840
2492.478	5719
2494.433	5834
2496.387	5787
2498.343	5719
2500.297	5804
2502.249	5758
2504.202	5692
2506.153	5766
2508.105	5726
2510.057	5682
2512.008	5732
2513.957	5680
2515.906	5718
2517.855	5716
2519.805	5724
2521.754	5690
2523.7	5728
2525.647	5685
2527.594	5789
2529.54	5579
2531.486	5697
2533.431	5876
2535.376	5685
2537.32	5678
2539.263	5642
2541.207	5721
2543.151	5670
2545.093	5696
2547.034	5603
2548.975	5604
2550.917	5625
2552.856	5652
2554.796	5585
2556.735	5731
2558.673	5703
2560.611	5737
2562.55	5685
2564.487	5782
2566.424	5698
2568.36	5604
2570.296	5675
2572.232	5672
2574.167	5751
2576.101	5674
2578.035	5592
2579.969	5638
2581.902	5613
2583.834	5702
2585.766	5645
2587.698	5642
2589.628	5723
2591.557	5739
2593.489	5651
2595.419	5581
2597.348	5667
2599.275	5652
2601.204	5700
2603.131	5646
2605.059	5613
2606.986	5704
2608.911	5809
2610.837	5634
2612.76	5603
2614.687	5679
2616.61	5676
2618.534	5697
2620.457	5685
2622.38	5695
2624.302	5697
2626.225	5698
2628.145	5708
2630.067	5693
2631.986	5704
2633.906	5796
2635.827	5682
2637.745	5744
2639.662	5692
2641.581	5655
2643.498	5671
2645.415	5694
2647.331	5749
2649.248	5724
2651.163	5785
2653.077	5619
2654.993	5724
2656.906	5606
2658.821	5775
2660.733	5739
2662.646	5780
2664.557	5663
2666.47	5618
2668.381	5652
2670.291	5769
2672.201	5728
2674.11	5669
2676.021	5591
2677.929	5614
2679.837	5582
2681.745	5511
2683.652	5550
2685.56	5560
2687.466	5587
2689.371	5617
2691.276	5526
2693.181	5565
2695.085	5629
2696.991	5673
2698.893	5584
2700.796	5703
2702.698	5587
2704.601	5526
2706.502	5588
2708.404	5598
2710.304	5507
2712.203	5596
2714.103	5503
2716.003	5583
2717.902	5543
2719.8	5475
2721.697	5545
2723.594	5472
2725.49	5610
2727.389	5516
2729.283	5499
2731.179	5496
2733.073	5512
2734.968	5541
2736.863	5446
2738.757	5452
2740.649	5567
2742.541	5495
2744.433	5523
2746.324	5524
2748.216	5501
2750.107	5463
2751.997	5377
2753.886	5535
2755.776	5526
2757.666	5514
2759.553	5490
2761.44	5502
2763.327	5500
2765.215	5494
2767.102	5442
2768.988	5452
2770.873	5494
2772.757	5448
2774.641	5522
2776.525	5586
2778.41	5485
2780.292	5517
2782.175	5406
2784.057	5521
2785.938	5302
2787.821	5449
2789.701	5530
2791.581	5369
2793.461	5398
2795.34	5460
2797.219	5382
2799.099	5453
2800.975	5421
2802.853	5492
2804.73	5367
2806.606	5428
2808.484	5485
2810.358	5409
2812.233	5405
2814.108	5384
2815.981	5401
2817.857	5370
2819.73	5351
2821.602	5390
2823.474	5355
2825.346	5310
2827.217	5420
2829.089	5397
2830.959	5305
2832.829	5420
2834.698	5478
2836.567	5442
2838.436	5472
2840.305	5280
2842.172	5432
2844.04	5412
2845.905	5475
2847.772	5372
2849.639	5403
2851.503	5585
2853.369	5341
2855.232	5393
2857.096	5447
2858.961	5451
2860.824	5487
2862.686	5529
2864.547	5560
2866.41	5569
2868.272	5491
2870.132	5625
2871.992	5647
2873.851	5557
2875.711	5662
2877.57	5657
2879.429	5613
2881.287	5684
2883.144	5746
2885.001	5724
2886.857	5774
2888.714	5774
2890.57	5683
2892.425	5825
2894.279	5684
2896.133	5791
2897.987	5674
2899.842	5839
2901.694	5825
2903.547	5656
2905.397	5778
2907.249	5636
2909.101	5763
2910.952	5734
2912.802	5756
2914.652	5733
2916.5	5718
2918.35	5998
2920.198	5930
2922.045	5839
2923.893	5917
2925.74	5911
2927.585	5925
2929.433	5978
2931.279	6097
2933.123	6031
2934.968	6180
2936.811	6157
2938.656	6144
2940.5	6263
2942.342	6315
2944.185	6325
2946.026	6351
2947.87	6243
2949.71	6248
2951.549	6208
2953.39	6218
2955.229	6088
2957.069	6004
2958.908	6089
2960.746	6047
2962.584	6080
2964.421	6039
2966.257	5985
2968.094	5859
2969.931	5849
2971.766	5875
2973.601	5788
2975.435	5817
2977.27	5801
2979.105	5747
2980.938	5812
2982.77	5703
2984.602	5628
2986.434	5730
2988.267	5665
2990.097	5654
2991.927	5566
2993.757	5488
2995.587	5573
2997.417	5602
2999.246	5538
3001.074	5431
3002.902	5496
3004.729	5338
3006.556	5348
3008.384	5339
3010.21	5300
3012.036	5265
3013.861	5191
3015.684	5242
3017.51	5221
3019.334	5098
3021.157	5303
3022.981	5232
3024.802	5189
3026.624	5163
3028.448	5096
3030.267	5169
3032.088	5107
3033.909	5179
3035.728	5105
3037.549	5086
3039.368	5077
3041.186	5135
3043.004	5129
3044.821	5066
3046.64	4987
3048.455	5085
3050.272	5078
3052.087	5016
3053.903	5026
3055.717	4948
3057.534	5033
3059.347	4999
3061.16	5038
3062.974	5044
3064.785	4982
3066.598	4937
3068.411	4954
3070.222	4965
3072.032	5029
3073.844	5016
3075.653	4967
3077.463	4959
3079.272	4841
3081.08	4922
3082.889	4946
3084.697	4975
3086.505	4979
3088.312	4931
3090.118	4946
3091.924	4901
3093.729	4842
3095.535	4988
3097.34	4858
3099.144	4886
3100.947	4863
3102.75	4878
3104.553	4872
3106.357	4865
3108.159	4869
3109.961	4878
3111.762	4820
3113.562	4794
3115.365	4847
3117.164	4864
3118.964	4823
3120.761	4779
3122.56	4743
3124.36	4802
3126.158	4716
3127.954	4750
3129.75	4807
3131.547	4858
3133.343	4785
3135.139	4805
3136.934	4766
3138.729	4742
3140.522	4844
3142.317	4784
3144.11	4742
3145.904	4753
3147.695	4855
3149.488	4764
3151.28	4812
3153.07	4817
3154.863	4753
3156.652	4735
3158.441	4763
3160.231	4813
3162.019	4826
3163.81	4771
3165.597	4687
3167.384	4738
3169.172	4644
3170.958	4650
3172.745	4719
3174.532	4698
3176.317	4716
3178.101	4591
3179.885	4683
3181.67	4721
3183.455	4676
3185.238	4654
3187.02	4690
3188.802	4677
3190.585	4706
3192.368	4657
3194.149	4638
3195.929	4725
3197.709	4699
3199.489	4663
3201.268	4655
3203.048	4664
3204.826	4664
3206.604	4614
3208.382	4603
3210.159	4670
3211.937	4572
3213.713	4624
3215.489	4669
3217.263	4621
3219.038	4717
3220.815	4733
3222.589	4610
3224.363	4610
3226.136	4662
3227.908	4583
3229.681	4525
3231.454	4638
3233.226	4697
3234.996	4608
3236.767	4640
3238.538	4596
3240.308	4580
3242.078	4632
3243.847	4662
3245.615	4650
3247.384	4656
3249.15	4596
3250.92	4621
3252.686	4555
3254.453	4557
3256.218	4558
3257.984	4608
3259.75	4554
3261.515	4591
3263.279	4640
3265.044	4529
3266.806	4579
3268.57	4599
3270.334	4648
3272.095	4563
3273.856	4621
3275.619	4599
3277.379	4677
3279.14	4512
3280.9	4614
3282.661	4531
3284.419	4592
3286.178	4505
3287.937	4570
3289.695	4595
3291.453	4499
3293.21	4581
3294.967	4627
3296.723	4510
3298.48	4582
3300.235	4624
3301.99	4599
3303.744	4577
3305.498	4572
3307.253	4475
3309.006	4623
3310.759	4631
3312.511	4622
3314.263	4640
3316.017	4617
3317.768	4509
3319.519	4517
3321.268	4497
3323.018	4625
3324.767	4575
3326.518	4547
3328.267	4548
3330.014	4559
3331.762	4524
3333.509	4508
3335.258	4519
3337.003	4482
3338.75	4530
3340.496	4565
3342.24	4527
3343.987	4523
3345.732	4536
3347.475	4492
3349.219	4490
3350.961	4579
3352.705	4529
3354.448	4619
3356.19	4444
3357.931	4490
3359.672	4508
3361.412	4541
3363.155	4478
3364.894	4497
3366.633	4518
3368.372	4583
3370.11	4484
3371.849	4340
3373.588	4418
3375.325	4387
3377.061	4427
3378.799	4398
3380.534	4456
3382.271	4476
3384.006	4423
3385.741	4410
3387.475	4414
3389.209	4354
3390.944	4439
3392.677	4402
3394.409	4404
3396.143	4437
3397.874	4459
3399.606	4374
3401.338	4372
3403.069	4338
3404.799	4370
3406.528	4466
3408.258	4379
3409.988	4377
3411.717	4408
3413.445	4410
3415.173	4288
3416.899	4380
3418.626	4385
3420.354	4323
3422.08	4362
3423.806	4222
3425.531	4329
3427.255	4252
3428.981	4363
3430.705	4349
3432.429	4433
3434.151	4266
3435.875	4301
3437.599	4277
3439.321	4330
3441.042	4243
3442.763	4228
3444.483	4303
3446.204	4291
3447.926	4291
3449.645	4274
3451.364	4350
3453.082	4178
3454.801	4206
3456.52	4251
3458.238	4204
3459.954	4256
3461.671	4199
3463.387	4186
3465.104	4179
3466.82	4210
3468.534	4243
3470.25	4117
3471.963	4143
3473.676	4219
3475.392	4227
3477.104	4239
3478.817	4120
3480.528	4177
3482.241	4259
3483.954	4180
3485.664	4166
3487.374	4073
3489.084	4127
3490.795	4091
3492.504	4172
3494.214	4076
3495.922	4115
3497.63	4030
3499.338	4165
3501.045	4122
3502.753	4048
3504.459	4095
3506.166	4028
3507.871	4157
3509.576	4016
3511.283	4057
3512.987	4003
3514.691	4026
3516.395	4076
3518.098	4135
3519.8	3978
3521.504	4023
3523.206	4070
3524.908	4110
3526.609	4027
3528.309	4000
3530.011	4008
3531.711	3988
3533.411	3951
3535.109	4035
3536.808	4041
3538.507	3991
3540.206	4005
3541.904	3998
3543.601	3997
3545.297	3894
3546.994	3968
3548.69	3997
3550.387	4027
3552.081	3987
3553.776	3989
3555.47	3935
3557.166	3929
3558.859	3977
3560.553	3990
3562.245	3988
3563.938	4045
3565.629	3896
3567.322	3934
3569.014	3963
3570.704	3837
3572.394	3929
3574.084	3969
3575.775	3903
3577.464	3910
3579.152	3994
3580.842	3998
3582.529	3938
3584.216	3930
3585.905	3844
3587.591	3898
3589.279	3822
3590.964	3815
3592.649	3844
3594.336	3779
3596.021	3861
3597.705	3799
3599.388	3784
3601.072	3834
3602.757	3783
3604.439	3873
3606.122	3824
3607.803	3915
3609.485	3759
3611.167	3844
3612.849	3743
3614.529	3840
3616.208	3765
3617.888	3813
3619.567	3733
3621.247	3753
3622.926	3703
3624.603	3873
3626.281	3742
3627.958	3740
3629.635	3759
3631.312	3730
3632.989	3687
3634.665	3660
3636.339	3696
3638.014	3782
3639.691	3772
3641.364	3774
3643.038	3682
3644.71	3768
3646.384	3724
3648.058	3699
3649.729	3653
3651.402	3739
3653.073	3602
3654.744	3695
3656.414	3677
3658.085	3714
3659.755	3658
3661.424	3632
3663.094	3683
3664.762	3572
3666.431	3720
3668.099	3562
3669.766	3653
3671.433	3641
3673.099	3665
3674.768	3705
3676.433	3644
3678.098	3697
3679.763	3661
3681.428	3546
3683.093	3577
3684.757	3595
3686.421	3683
3688.083	3617
3689.746	3529
3691.408	3637
3693.071	3547
3694.733	3632
3696.394	3624
3698.054	3575
3699.715	3542
3701.375	3589
3703.036	3560
3704.695	3649
3706.354	3564
3708.012	3579
3709.67	3563
3711.329	3572
3712.987	3556
3714.644	3545
3716.299	3526
3717.955	3524
3719.613	3496
3721.268	3575
3722.923	3522
3724.577	3490
3726.231	3539
3727.885	3478
3729.539	3471
3731.192	3527
3732.845	3451
3734.497	3490
3736.149	3472
3737.802	3509
3739.453	3510
3741.104	3505
3742.753	3562
3744.404	3428
3746.052	3477
3747.704	3422
3749.352	3510
3751	3549
3752.648	3502
3754.296	3449
3755.944	3475
3757.59	3467
3759.238	3460
3760.883	3512
3762.528	3479
3764.176	3465
3765.82	3507
3767.464	3476
3769.109	3426
3770.753	3459
3772.396	3502
3774.04	3419
3775.683	3398
3777.325	3465
3778.967	3422
3780.608	3425
3782.25	3397
3783.89	3379
3785.531	3447
3787.17	3391
3788.81	3354
3790.45	3418
3792.09	3405
3793.729	3389
3795.366	3435
3797.003	3446
3798.64	3389
3800.278	3404
3801.915	3422
3803.551	3443
3805.187	3342
3806.822	3420
3808.458	3398
3810.093	3324
3811.726	3414
3813.36	3385
3814.994	3411
3816.627	3429
3818.262	3322
3819.893	3331
3821.525	3282
3823.157	3325
3824.787	3293
3826.42	3253
3828.051	3331
3829.68	3332
3831.31	3378
3832.938	3334
3834.569	3348
3836.198	3302
3837.825	3340
3839.454	3274
3841.08	3319
3842.708	3297
3844.335	3259
3845.962	3269
3847.587	3276
3849.212	3293
3850.838	3315
3852.463	3286
3854.089	3219
3855.712	3339
3857.335	3225
3858.959	3313
3860.582	3218
3862.205	3273
3863.827	3227
3865.449	3251
3867.07	3293
3868.691	3266
3870.312	3222
3871.933	3261
3873.553	3279
3875.173	3148
3876.792	3218
3878.411	3214
3880.03	3299
3881.647	3234
3883.265	3236
3884.882	3189
3886.499	3262
3888.116	3243
3889.732	3162
3891.348	3290
3892.964	3178
3894.579	3192
3896.195	3256
3897.809	3139
3899.423	3183
3901.036	3192
3902.648	3221
3904.261	3257
3905.875	3202
3907.487	3142
3909.099	3185
3910.709	3168
3912.321	3139
3913.933	3195
3915.542	3239
3917.152	3207
3918.762	3219
3920.37	3289
3921.98	3142
3923.589	3201
3925.196	3157
3926.804	3248
3928.41	3212
3930.018	3152
3931.626	3117
3933.231	3168
3934.838	3171
3936.442	3186
3938.046	3096
3939.653	3124
3941.257	3091
3942.861	3198
3944.464	3111
3946.068	3129
3947.67	3126
3949.273	3153
3950.876	3160
3952.477	3115
3954.078	3160
3955.678	3111
3957.281	3147
3958.881	3066
3960.48	3145
3962.079	3052
3963.678	3126
3965.279	3123
3966.877	3106
3968.475	3155
3970.072	3072
3971.669	3106
3973.266	3027
3974.864	3091
3976.459	3088
3978.055	3070
3979.65	3032
3981.245	3024
3982.841	3028
3984.436	3054
3986.03	3050
3987.623	3035
3989.216	2988
3990.809	3025
3992.403	3024
3993.995	2955
3995.586	3026
3997.177	3090
3998.768	2986
4000.361	3058
4001.951	2989
4003.54	3020
4005.13	3041
4006.719	2921
4008.31	3013
4009.897	2984
4011.485	3037
4013.073	3074
4014.66	2958
4016.247	2910
4017.834	2993
4019.421	2971
4021.006	2966
4022.592	2945
4024.178	2964
4025.763	2925
4027.348	2914
4028.932	2946
4030.515	2934
4032.099	2912
4033.682	2921
4035.266	2908
4036.847	2914
4038.429	2915
4040.011	2938
4041.592	2962
4043.173	2915
4044.755	2912
4046.334	2903
4047.913	2907
4049.494	2958
4051.074	2836
4052.652	2958
4054.23	2833
4055.807	2868
4057.385	2891
4058.963	2907
4060.541	2890
4062.117	2902
4063.693	2782
4065.269	2848
4066.844	2893
4068.42	2824
4069.995	2835
4071.569	2910
4073.143	2886
4074.716	2861
4076.291	2905
4077.864	2826
4079.436	2930
4081.009	2898
4082.58	2859
4084.152	2784
4085.723	2848
4087.294	2888
4088.865	2807
4090.435	2890
4092.005	2868
4093.574	2808
4095.143	2824
4096.712	2831
4098.279	2797
4099.848	2842
4101.416	2818
4102.984	2814
4104.55	2813
4106.117	2818
4107.682	2775
4109.248	2869
4110.815	2775
4112.379	2764
4113.945	2775
4115.508	2739
4117.073	2751
4118.637	2791
4120.201	2793
4121.763	2738
4123.325	2730
4124.888	2752
4126.449	2760
4128.013	2794
4129.573	2729
4131.133	2779
4132.694	2813
4134.254	2736
4135.814	2692
4137.374	2742
4138.933	2765
4140.491	2758
4142.049	2789
4143.607	2741
4145.167	2710
4146.724	2715
4148.28	2724
4149.836	2684
4151.392	2709
4152.949	2650
4154.504	2657
4156.059	2666
4157.614	2750
4159.168	2764
4160.723	2683
4162.277	2688
4163.83	2632
4165.383	2656
4166.936	2692
4168.488	2714
4170.041	2610
4171.593	2723
4173.144	2663
4174.695	2608
4176.246	2559
4177.796	2696
4179.346	2636
4180.896	2686
4182.445	2740
4183.994	2600
4185.542	2595
4187.091	2655
4188.639	2569
4190.185	2632
4191.732	2710
4193.279	2622
4194.826	2646
4196.373	2608
4197.918	2598
4199.463	2624
4201.008	2590
4202.553	2642
4204.098	2582
4205.641	2596
4207.185	2641
4208.728	2597
4210.271	2557
4211.814	2612
4213.357	2590
4214.898	2562
4216.439	2624
4217.98	2603
4219.522	2505
4221.062	2657
4222.603	2606
4224.142	2616
4225.681	2603
4227.222	2592
4228.76	2497
4230.298	2604
4231.835	2605
4233.373	2602
4234.911	2545
4236.449	2540
4237.985	2564
4239.521	2561
4241.057	2510
4242.592	2565
4244.128	2552
4245.663	2533
4247.197	2605
4248.731	2523
4250.265	2546
4251.798	2503
4253.333	2527
4254.865	2483
4256.397	2549
4257.93	2501
4259.461	2489
4260.994	2530
4262.525	2503
4264.056	2561
4265.586	2501
4267.115	2517
4268.646	2511
4270.176	2514
4271.705	2512
4273.232	2495
4274.761	2452
4276.289	2533
4277.818	2474
4279.345	2494
4280.872	2423
4282.399	2445
4283.924	2492
4285.452	2529
4286.976	2468
4288.502	2460
4290.026	2456
4291.551	2421
4293.074	2522
4294.6	2449
4296.123	2455
4297.646	2418
4299.168	2447
4300.691	2465
4302.214	2450
4303.736	2472
4305.257	2519
4306.778	2445
4308.299	2433
4309.82	2434
4311.34	2504
4312.86	2438
4314.379	2460
