400.0745	6717
402.597	6715
405.1208	6967
407.6419	6902
410.1623	6737
412.6819	6873
415.201	6897
417.7172	7143
420.2369	7016
422.7538	7106
425.2701	7097
427.7856	7297
430.3005	7276
432.8147	7240
435.3282	7439
437.841	7307
440.3511	7314
442.8625	7414
445.3753	7241
447.8854	7325
450.3927	7362
452.9014	7308
455.4073	7320
457.9146	7323
460.4233	7323
462.9272	7429
465.4325	7365
467.935	7393
470.4389	7309
472.9421	7262
475.4446	7394
477.9444	7354
480.4456	7296
482.944	7441
485.4417	7429
487.9429	7556
490.4393	7347
492.935	7497
495.4321	7396
497.9264	7619
500.4221	7495
502.9171	7411
505.4094	7551
507.9011	7595
510.392	7617
512.8864	7657
515.3759	7532
517.8649	7605
520.3531	7568
522.8406	7688
525.3275	7710
527.8178	7620
530.3033	7633
532.7881	7697
535.2723	7583
537.7558	7737
540.2407	7596
542.7228	7654
545.2043	7615
547.6851	7651
550.1652	7753
552.6467	7650
555.1255	7624
557.6016	7685
560.079	7727
562.5557	7694
565.0318	7744
567.5092	7817
569.984	7935
572.456	7918
574.9294	7875
577.4022	7940
579.8762	8056
582.3456	8141
584.8163	8102
587.2863	8054
589.7557	8116
592.2224	8055
594.6924	7935
597.1578	8077
599.6245	7963
602.0905	8041
604.5538	8028
607.0206	7990
609.4825	7997
611.9459	7912
614.4066	7957
616.8686	7973
619.33	7944
621.7906	7911
624.2487	7777
626.708	7842
629.1647	7853
631.6207	7971
634.0801	7905
636.5348	7862
638.9888	7752
641.4442	7888
643.8969	7924
646.3509	7934
648.8022	8025
651.255	8076
653.705	8028
656.1544	8010
658.6031	8076
661.0532	7929
663.5026	8153
665.9493	8133
668.3954	7957
670.8409	8053
673.2877	8182
675.7318	8083
678.1752	8105
680.618	8112
683.0601	8120
685.5035	8135
687.9444	8386
690.3845	8157
692.824	8210
695.2628	8121
697.701	8254
700.1406	8204
702.5774	8181
705.0116	8261
707.4472	8256
709.8821	8267
712.3183	8256
714.7519	8279
717.1829	8254
719.6151	8340
722.0468	8370
724.4777	8381
726.908	8267
729.3377	8447
731.7667	8520
734.1931	8596
736.6208	8461
739.0498	8506
741.4742	8530
743.9	8698
746.3231	8767
748.7476	8644
751.1713	8814
753.5945	8768
756.015	8811
758.4368	8692
760.856	8765
763.2766	8686
765.6965	8678
768.1157	8738
770.5323	8829
772.9483	8879
775.3656	8910
777.7822	8950
780.1963	8891
782.6116	8811
785.0244	8913
787.4365	8896
789.8499	8755
792.2626	8852
794.6728	8781
797.0823	8836
799.4911	9002
801.8994	8886
804.3109	8919
806.7178	8810
809.124	8878
811.5297	8966
813.9347	8886
816.341	8987
818.7447	8997
821.1478	8953
823.5502	8960
825.952	8861
828.3531	8976
830.7556	8940
833.1554	9072
835.5546	9004
837.9532	8888
840.3511	9064
842.7504	8970
845.1451	8947
847.5411	9061
849.9365	9122
852.3312	9148
854.7272	9339
857.1187	9120
859.5115	9264
861.9037	9189
864.2952	9163
866.6842	9169
869.0764	9132
871.4661	9082
873.8531	9074
876.2415	9280
878.6272	9088
881.0162	9086
883.4026	9030
885.7866	9219
888.1717	9059
890.5543	9110
892.9382	8979
895.3215	9121
897.7041	9068
900.0842	9173
902.4655	9030
904.8443	9077
907.2244	9027
909.6039	9109
911.9808	9254
914.357	9234
916.7346	9208
919.1115	9540
921.4859	9221
923.8616	9326
926.2347	9552
928.6071	9560
930.979	9480
933.3541	9516
935.7247	9663
938.0946	9454
940.4639	9773
942.8326	9874
945.2026	9999
947.5701	10055
949.9369	10315
952.305	10699
954.6705	11119
957.0355	11723
959.4017	12044
961.7654	12265
964.1284	11998
966.4908	11615
968.8527	11185
971.2138	10747
973.5743	10209
975.9343	10057
978.2936	9831
980.6522	9624
983.0122	9555
985.3696	9309
987.7245	9365
990.0807	9394
992.4362	9406
994.7911	9412
997.1474	9376
999.4991	9304
1001.852	9397
1004.205	9465
1006.555	9564
1008.908	9523
1011.258	9524
1013.606	9523
1015.956	9308
1018.302	9506
1020.652	9469
1022.998	9529
1025.345	9586
1027.691	9564
1030.035	9693
1032.378	9500
1034.724	9616
1037.066	9573
1039.409	9375
1041.75	9645
1044.092	9634
1046.433	9832
1048.771	9704
1051.112	9634
1053.449	9616
1055.786	9699
1058.124	9583
1060.462	9588
1062.797	9851
1065.131	9726
1067.467	9981
1069.8	9850
1072.135	9849
1074.467	9802
1076.798	9912
1079.129	9698
1081.459	9705
1083.792	9712
1086.121	9739
1088.449	9679
1090.777	9629
1093.104	9636
1095.431	9763
1097.759	9542
1100.084	9519
1102.408	9814
1104.732	9604
1107.056	9637
1109.379	9596
1111.701	9634
1114.022	9548
1116.343	9482
1118.664	9583
1120.983	9578
1123.303	9596
1125.621	9623
1127.939	9696
1130.256	9523
1132.573	9527
1134.889	9615
1137.205	9639
1139.52	9627
1141.832	9644
1144.146	9606
1146.461	9643
1148.771	9551
1151.083	9723
1153.392	9566
1155.703	9526
1158.011	9612
1160.323	9610
1162.629	9688
1164.938	9622
1167.243	9575
1169.55	9595
1171.857	9525
1174.163	9707
1176.466	9582
1178.769	9585
1181.073	9720
1183.374	9556
1185.677	9562
1187.979	9705
1190.279	9556
1192.578	9556
1194.878	9632
1197.178	9469
1199.476	9736
1201.772	9551
1204.068	9531
1206.366	9642
1208.663	9546
1210.957	9609
1213.251	9690
1215.544	9599
1217.836	9519
1220.128	9674
1222.421	9780
1224.712	9714
1227.002	9778
1229.292	9721
1231.581	9834
1233.871	9898
1236.159	9866
1238.446	9975
1240.732	9893
1243.018	10024
1245.304	9969
1247.59	9926
1249.874	10053
1252.156	10186
1254.439	9812
1256.721	10026
1259.005	9850
1261.286	9852
1263.565	10025
1265.845	9996
1268.125	9858
1270.403	9919
1272.682	9919
1274.959	10057
1277.234	9809
1279.511	9950
1281.787	10002
1284.062	10094
1286.337	9949
1288.609	9961
1290.882	10083
1293.153	9820
1295.428	9879
1297.698	9765
1299.969	9852
1302.237	9750
1304.507	9814
1306.777	9637
1309.044	9816
1311.312	9897
1313.578	9833
1315.844	9727
1318.109	9827
1320.375	9719
1322.638	9730
1324.903	9757
1327.165	9805
1329.427	9724
1331.69	9722
1333.952	9799
1336.212	9730
1338.471	9865
1340.73	9883
1342.988	9722
1345.248	9870
1347.505	9907
1349.763	9856
1352.019	9841
1354.274	9698
1356.53	9849
1358.784	9753
1361.038	9832
1363.291	9843
1365.543	9638
1367.797	9739
1370.048	9882
1372.296	9842
1374.546	9757
1376.796	9972
1379.045	9864
1381.295	9794
1383.542	9823
1385.787	9991
1388.034	9915
1390.28	9834
1392.527	9755
1394.772	9949
1397.014	9846
1399.258	9958
1401.501	9993
1403.741	9826
1405.985	10086
1408.226	10057
1410.465	9920
1412.705	9851
1414.943	9941
1417.184	9993
1419.42	9999
1421.658	10079
1423.894	10013
1426.13	10107
1428.366	10055
1430.602	10101
1432.835	10103
1435.069	10109
1437.301	10021
1439.535	10119
1441.767	10060
1443.997	10182
1446.229	10112
1448.458	10136
1450.687	10185
1452.916	10154
1455.146	10220
1457.372	10335
1459.599	10162
1461.824	10149
1464.051	10276
1466.277	10304
1468.501	10130
1470.725	10121
1472.948	10204
1475.17	9958
1477.393	9969
1479.614	9907
1481.837	10097
1484.057	9831
1486.276	9892
1488.497	9880
1490.715	9786
1492.932	9850
1495.148	9741
1497.364	9688
1499.58	9787
1501.798	9824
1504.012	9685
1506.227	9729
1508.44	9681
1510.653	9722
1512.866	9555
1515.078	9724
1517.289	9793
1519.5	9787
1521.711	9754
1523.92	9877
1526.13	9566
1528.338	9740
1530.544	9709
1532.752	9594
1534.959	9740
1537.165	9669
1539.371	9672
1541.574	9666
1543.779	9746
1545.983	9594
1548.187	9820
1550.39	9828
1552.59	9756
1554.792	9926
1556.991	9713
1559.19	9895
1561.392	9900
1563.59	9852
1565.789	9805
1567.986	9740
1570.182	10016
1572.381	9990
1574.576	10052
1576.771	9999
1578.966	9980
1581.16	9947
1583.354	10054
1585.546	10001
1587.74	9921
1589.931	10032
1592.121	10086
1594.311	10010
1596.502	9972
1598.693	10078
1600.881	10030
1603.069	10049
1605.256	9988
1607.445	10075
1609.631	9999
1611.816	10022
1614.001	10133
1616.186	9979
1618.37	10116
1620.555	10154
1622.737	10028
1624.919	10162
1627.101	9879
1629.282	10132
1631.463	10006
1633.643	10224
1635.822	10133
1638.001	10248
1640.179	10236
1642.359	10102
1644.534	10159
1646.711	10203
1648.887	10019
1651.062	10110
1653.235	10050
1655.412	10129
1657.586	10110
1659.757	10449
1661.93	10155
1664.1	10182
1666.274	10323
1668.445	10353
1670.614	10191
1672.784	10323
1674.951	10283
1677.12	10442
1679.289	10307
1681.457	10111
1683.622	10160
1685.789	10155
1687.953	10115
1690.121	10259
1692.284	10147
1694.447	10021
1696.611	10088
1698.772	10045
1700.935	10036
1703.098	10000
1705.258	10001
1707.417	9986
1709.576	9973
1711.736	9928
1713.896	10033
1716.053	9948
1718.21	10005
1720.366	9959
1722.522	9869
1724.68	9997
1726.835	9880
1728.989	9903
1731.142	9859
1733.295	9903
1735.449	9997
1737.601	9992
1739.753	9938
1741.903	9945
1744.054	10015
1746.203	9927
1748.354	9878
1750.503	10056
1752.651	9925
1754.798	9951
1756.944	9995
1759.092	9812
1761.238	9946
1763.383	10030
1765.528	10153
1767.672	9791
1769.814	10081
1771.959	9981
1774.102	9974
1776.242	9928
1778.384	10011
1780.525	9955
1782.665	9978
1784.805	10015
1786.945	10056
1789.082	10024
1791.22	9945
1793.36	10013
1795.495	10124
1797.632	9879
1799.766	9970
1801.902	9972
1804.035	9932
1806.172	9906
1808.304	10060
1810.436	10023
1812.569	10024
1814.699	9969
1816.833	10113
1818.963	9904
1821.092	9921
1823.222	9883
1825.35	9988
1827.478	9923
1829.608	9986
1831.734	9954
1833.86	9920
1835.986	9987
1838.11	9904
1840.238	9993
1842.362	9791
1844.485	9846
1846.608	9832
1848.73	9862
1850.853	9911
1852.974	9739
1855.097	9853
1857.217	9793
1859.336	9884
1861.455	9887
1863.576	9774
1865.693	9879
1867.811	10028
1869.926	9981
1872.042	9856
1874.16	9810
1876.275	9803
1878.39	9689
1880.504	9842
1882.618	9855
1884.731	9801
1886.843	9922
1888.956	9979
1891.067	9880
1893.178	9808
1895.287	9888
1897.399	9814
1899.508	10006
1901.617	9906
1903.724	9957
1905.832	9986
1907.941	9875
1910.046	9949
1912.152	10006
1914.256	10036
1916.361	9981
1918.464	10085
1920.57	9843
1922.672	9948
1924.775	10003
1926.876	9880
1928.978	10016
1931.08	10215
1933.181	9980
1935.28	10051
1937.38	9942
1939.478	10054
1941.577	10072
1943.675	10015
1945.771	9984
1947.867	10011
1949.964	9932
1952.058	10016
1954.154	9927
1956.248	9910
1958.343	10053
1960.435	9982
1962.527	9987
1964.62	9978
1966.711	9974
1968.802	10008
1970.892	9941
1972.983	10097
1975.072	10107
1977.162	10042
1979.25	9963
1981.337	9983
1983.424	9815
1985.51	9943
1987.598	9983
1989.683	9845
1991.768	9775
1993.852	9847
1995.934	9855
1998.019	9825
2000.102	9728
2002.184	9954
2004.266	9894
2006.347	9839
2008.427	9847
2010.508	9838
2012.587	9949
2014.666	9871
2016.745	9861
2018.821	9775
2020.9	9732
2022.977	9923
2025.052	9755
2027.128	9821
2029.204	9781
2031.277	9828
2033.353	9839
2035.425	9743
2037.499	9824
2039.57	9676
2041.642	9797
2043.714	9647
2045.786	9833
2047.855	9777
2049.925	9829
2051.993	9808
2054.064	9866
2056.132	9764
2058.2	9787
2060.266	9784
2062.332	9880
2064.398	9781
2066.465	9817
2068.529	9848
2070.592	9779
2072.657	9776
2074.719	9685
2076.783	9834
2078.845	9737
2080.907	9894
2082.968	9752
2085.028	9562
2087.087	9901
2089.148	9884
2091.207	9841
2093.264	9872
2095.322	9950
2097.379	9880
2099.439	9750
2101.495	9753
2103.55	9715
2105.605	9827
2107.658	9824
2109.713	9775
2111.767	9777
2113.82	9815
2115.872	9862
2117.924	9900
2119.975	9923
2122.028	9833
2124.078	9879
2126.126	9749
2128.176	9717
2130.225	9760
2132.275	9738
2134.321	9818
2136.368	9649
2138.415	9758
2140.461	9761
2142.505	9781
2144.552	9718
2146.597	9838
2148.64	9850
2150.684	9635
2152.725	9837
2154.77	9630
2156.811	9785
2158.852	9578
2160.894	9742
2162.933	9668
2164.973	9748
2167.013	9538
2169.051	9652
2171.089	9664
2173.126	9606
2175.164	9767
2177.201	9668
2179.236	9648
2181.273	9725
2183.307	9545
2185.341	9666
2187.377	9535
2189.41	9568
2191.442	9509
2193.473	9569
2195.506	9524
2197.539	9501
2199.569	9499
2201.598	9523
2203.628	9645
2205.656	9609
2207.686	9452
2209.716	9544
2211.743	9506
2213.769	9492
2215.796	9619
2217.821	9530
2219.848	9593
2221.873	9408
2223.897	9488
2225.921	9327
2227.944	9483
2229.967	9363
2231.991	9434
2234.011	9456
2236.032	9455
2238.053	9461
2240.073	9428
2242.094	9349
2244.114	9545
2246.131	9353
2248.149	9438
2250.167	9527
2252.186	9387
2254.201	9381
2256.218	9347
2258.233	9388
2260.247	9418
2262.262	9450
2264.278	9420
2266.29	9389
2268.303	9474
2270.315	9423
2272.327	9453
2274.341	9375
2276.35	9273
2278.361	9434
2280.37	9493
2282.38	9446
2284.388	9335
2286.397	9413
2288.405	9514
2290.412	9496
2292.419	9471
2294.425	9404
2296.431	9404
2298.437	9355
2300.441	9341
2302.445	9463
2304.449	9250
2306.453	9479
2308.455	9428
2310.457	9308
2312.459	9418
2314.46	9354
2316.46	9276
2318.461	9448
2320.46	9375
2322.458	9207
2324.458	9321
2326.456	9393
2328.455	9333
2330.451	9266
2332.447	9208
2334.443	9370
2336.438	9264
2338.433	9301
2340.429	9072
2342.422	9360
2344.416	9127
2346.408	9153
2348.399	9351
2350.393	9101
2352.384	9253
2354.375	9141
2356.365	9211
2358.355	9085
2360.344	9199
2362.333	9213
2364.322	9220
2366.309	9112
2368.295	9223
2370.282	9071
2372.27	9038
2374.256	9104
2376.24	9113
2378.225	9123
2380.208	9111
2382.194	9062
2384.177	9032
2386.159	8989
2388.142	9008
2390.122	9136
2392.105	9111
2394.085	9110
2396.066	9027
2398.044	9064
2400.024	9073
2402.002	9012
2403.982	8977
2405.959	8881
2407.935	9079
2409.913	9024
2411.888	8950
2413.865	9121
2415.84	8898
2417.814	8861
2419.788	9026
2421.762	9027
2423.735	9066
2425.708	8926
2427.68	8992
2429.651	9039
2431.623	8972
2433.593	8953
2435.564	8877
2437.533	9005
2439.502	9037
2441.47	9004
2443.438	9038
2445.406	9039
2447.373	8915
2449.34	8943
2451.305	8850
2453.271	8883
2455.235	8839
2457.201	8915
2459.165	8917
2461.129	8896
2463.092	8865
2465.054	8862
2467.018	8984
2468.978	8959
2470.939	8927
2472.899	8979
2474.86	8997
2476.819	8774
2478.778	8800
2480.737	8895
2482.695	8918
2484.653	8944
2486.609	8887
2488.567	8785
2490.524	8879
2492.478	8890
2494.433	8725
2496.387	8882
2498.343	8586
2500.297	8747
2502.249	8832
2504.202	8748
2506.153	8868
2508.105	8761
2510.057	8675
2512.008	8806
2513.957	8757
2515.906	8662
2517.855	8793
2519.805	8878
2521.754	8705
2523.7	8651
2525.647	8696
2527.594	8783
2529.54	8768
2531.486	8784
2533.431	8809
2535.376	8660
2537.32	8696
2539.263	8733
2541.207	8785
2543.151	8782
2545.093	8785
2547.034	8597
2548.975	8676
2550.917	8750
2552.856	8864
2554.796	8797
2556.735	8636
2558.673	8723
2560.611	8638
2562.55	8717
2564.487	8665
2566.424	8769
2568.36	8684
2570.296	8730
2572.232	8702
2574.167	8838
2576.101	8583
2578.035	8677
2579.969	8726
2581.902	8682
2583.834	8693
2585.766	8562
2587.698	8643
2589.628	8743
2591.557	8686
2593.489	8718
2595.419	8635
2597.348	8753
2599.275	8677
2601.204	8666
2603.131	8690
2605.059	8844
2606.986	8664
2608.911	8730
2610.837	8628
2612.76	8826
2614.687	8726
2616.61	8591
2618.534	8721
2620.457	8766
2622.38	8676
2624.302	8820
2626.225	8638
2628.145	8776
2630.067	8755
2631.986	8723
2633.906	8769
2635.827	8644
2637.745	8700
2639.662	8749
2641.581	8686
2643.498	8736
2645.415	8628
2647.331	8853
2649.248	8591
2651.163	8675
2653.077	8681
2654.993	8706
2656.906	8556
2658.821	8750
2660.733	8545
2662.646	8721
2664.557	8763
2666.47	8666
2668.381	8665
2670.291	8608
2672.201	8618
2674.11	8639
2676.021	8628
2677.929	8633
2679.837	8586
2681.745	8522
2683.652	8585
2685.56	8516
2687.466	8564
2689.371	8670
2691.276	8565
2693.181	8621
2695.085	8573
2696.991	8597
2698.893	8571
2700.796	8477
2702.698	8503
2704.601	8412
2706.502	8478
2708.404	8503
2710.304	8573
2712.203	8573
2714.103	8462
2716.003	8605
2717.902	8447
2719.8	8540
2721.697	8479
2723.594	8487
2725.49	8604
2727.389	8419
2729.283	8461
2731.179	8472
2733.073	8408
2734.968	8557
2736.863	8424
2738.757	8529
2740.649	8330
2742.541	8463
2744.433	8313
2746.324	8418
2748.216	8278
2750.107	8475
2751.997	8313
2753.886	8352
2755.776	8447
2757.666	8451
2759.553	8295
2761.44	8370
2763.327	8306
2765.215	8412
2767.102	8417
2768.988	8274
2770.873	8275
2772.757	8415
2774.641	8422
2776.525	8367
2778.41	8300
2780.292	8300
2782.175	8320
2784.057	8439
2785.938	8247
2787.821	8345
2789.701	8263
2791.581	8257
2793.461	8242
2795.34	8291
2797.219	8351
2799.099	8339
2800.975	8211
2802.853	8237
2804.73	8218
2806.606	8400
2808.484	8322
2810.358	8176
2812.233	8334
2814.108	8151
2815.981	8325
2817.857	8230
2819.73	8269
2821.602	8313
2823.474	8058
2825.346	8179
2827.217	8161
2829.089	8351
2830.959	8228
2832.829	8287
2834.698	8298
2836.567	8181
2838.436	8400
2840.305	8076
2842.172	8281
2844.04	8267
2845.905	8161
2847.772	8099
2849.639	8273
2851.503	8249
2853.369	8323
2855.232	8244
2857.096	8475
2858.961	8340
2860.824	8374
2862.686	8272
2864.547	8572
2866.41	8404
2868.272	8380
2870.132	8567
2871.992	8568
2873.851	8581
2875.711	8425
2877.57	8649
2879.429	8844
2881.287	8779
2883.144	8893
2885.001	8781
2886.857	8883
2888.714	8818
2890.57	8881
2892.425	8850
2894.279	8807
2896.133	8890
2897.987	8717
2899.842	8822
2901.694	8665
2903.547	8851
2905.397	8676
2907.249	8856
2909.101	8821
2910.952	8767
2912.802	8872
2914.652	8855
2916.5	8974
2918.35	9079
2920.198	9058
2922.045	9047
2923.893	9126
2925.74	9370
2927.585	9529
2929.433	9514
2931.279	9700
2933.123	9849
2934.968	9701
2936.811	9700
2938.656	9982
2940.5	9709
2942.342	9983
2944.185	9915
2946.026	9877
2947.87	9981
2949.71	9850
2951.549	9933
2953.39	9732
2955.229	9702
2957.069	9632
2958.908	9584
2960.746	9547
2962.584	9329
2964.421	9364
2966.257	9272
2968.094	9258
2969.931	9142
2971.766	9243
2973.601	9028
2975.435	8873
2977.27	8932
2979.105	8923
2980.938	8968
2982.77	8887
2984.602	8963
2986.434	8853
2988.267	8860
2990.097	8763
2991.927	8856
2993.757	8661
2995.587	8689
2997.417	8553
2999.246	8544
3001.074	8439
3002.902	8379
3004.729	8300
3006.556	8220
3008.384	8233
3010.21	8292
3012.036	8101
3013.861	8158
3015.684	8022
3017.51	7979
3019.334	7909
3021.157	7981
3022.981	8002
3024.802	7708
3026.624	7839
3028.448	7855
3030.267	7948
3032.088	7738
3033.909	7864
3035.728	7737
3037.549	7646
3039.368	7754
3041.186	7669
3043.004	7643
3044.821	7720
3046.64	7568
3048.455	7648
3050.272	7628
3052.087	7663
3053.903	7706
3055.717	7723
3057.534	7603
3059.347	7559
3061.16	7709
3062.974	7682
3064.785	7610
3066.598	7563
3068.411	7817
3070.222	7701
3072.032	7655
3073.844	7584
3075.653	7597
3077.463	7644
3079.272	7604
3081.08	7671
3082.889	7515
3084.697	7426
3086.505	7532
3088.312	7508
3090.118	7529
3091.924	7426
3093.729	7464
3095.535	7516
3097.34	7444
3099.144	7526
3100.947	7479
3102.75	7495
3104.553	7376
3106.357	7395
3108.159	7323
3109.961	7330
3111.762	7367
3113.562	7468
3115.365	7422
3117.164	7293
3118.964	7268
3120.761	7235
3122.56	7448
3124.36	7236
3126.158	7251
3127.954	7414
3129.75	7362
3131.547	7294
3133.343	7277
3135.139	7281
3136.934	7247
3138.729	7222
3140.522	7130
3142.317	7252
3144.11	7270
3145.904	7146
3147.695	7258
3149.488	7085
3151.28	7214
3153.07	7220
3154.863	7234
3156.652	7110
3158.441	7254
3160.231	7240
3162.019	7182
3163.81	7059
3165.597	7276
3167.384	7103
3169.172	7210
3170.958	7177
3172.745	7119
3174.532	7122
3176.317	7019
3178.101	7213
3179.885	7198
3181.67	7135
3183.455	7073
3185.238	7049
3187.02	7078
3188.802	7003
3190.585	7135
3192.368	7125
3194.149	6983
3195.929	7152
3197.709	7126
3199.489	7003
3201.268	7193
3203.048	7184
3204.826	7063
3206.604	7152
3208.382	7040
3210.159	6986
3211.937	7184
3213.713	7065
3215.489	7130
3217.263	6876
3219.038	7090
3220.815	7006
3222.589	7018
3224.363	7157
3226.136	7020
3227.908	7072
3229.681	6963
3231.454	7011
3233.226	7160
3234.996	7031
3236.767	7096
3238.538	7055
3240.308	7021
3242.078	7037
3243.847	6826
3245.615	7061
3247.384	7020
3249.15	7097
3250.92	7059
3252.686	7057
3254.453	7186
3256.218	6952
3257.984	6904
3259.75	6943
3261.515	6962
3263.279	7026
3265.044	7043
3266.806	7116
3268.57	7130
3270.334	6996
3272.095	6983
3273.856	7133
3275.619	6965
3277.379	7093
3279.14	7015
3280.9	7046
3282.661	6973
3284.419	7007
3286.178	6981
3287.937	6941
3289.695	7063
3291.453	6973
3293.21	6990
3294.967	7007
3296.723	7062
3298.48	6940
3300.235	7012
3301.99	6915
3303.744	6939
3305.498	6962
3307.253	6948
3309.006	6998
3310.759	6996
3312.511	7027
3314.263	6953
3316.017	6988
3317.768	6873
3319.519	6935
3321.268	7004
3323.018	6944
3324.767	6945
3326.518	6946
3328.267	6914
3330.014	6951
3331.762	6895
3333.509	7004
3335.258	7008
3337.003	6899
3338.75	6986
3340.496	6961
3342.24	6802
3343.987	6986
3345.732	6857
3347.475	6993
3349.219	6915
3350.961	6860
3352.705	6901
3354.448	6852
3356.19	6895
3357.931	6921
3359.672	6899
3361.412	6950
3363.155	6824
3364.894	6842
3366.633	6770
3368.372	6885
3370.11	6893
3371.849	6763
3373.588	6855
3375.325	6761
3377.061	6703
3378.799	6641
3380.534	6807
3382.271	6686
3384.006	6804
3385.741	6772
3387.475	6878
3389.209	6824
3390.944	6670
3392.677	6694
3394.409	6645
3396.143	6647
3397.874	6684
3399.606	6676
3401.338	6576
3403.069	6662
3404.799	6648
3406.528	6689
3408.258	6582
3409.988	6669
3411.717	6510
3413.445	6598
3415.173	6622
3416.899	6640
3418.626	6629
3420.354	6593
3422.08	6634
3423.806	6672
3425.531	6540
3427.255	6601
3428.981	6525
3430.705	6606
3432.429	6610
3434.151	6597
3435.875	6519
3437.599	6448
3439.321	6472
3441.042	6565
3442.763	6492
3444.483	6465
3446.204	6521
3447.926	6390
3449.645	6431
3451.364	6448
3453.082	6424
3454.801	6429
3456.52	6357
3458.238	6514
3459.954	6453
3461.671	6441
3463.387	6290
3465.104	6420
3466.82	6313
3468.534	6355
3470.25	6450
3471.963	6325
3473.676	6317
3475.392	6215
3477.104	6374
3478.817	6278
3480.528	6337
3482.241	6277
3483.954	6303
3485.664	6304
3487.374	6388
3489.084	6302
3490.795	6212
3492.504	6311
3494.214	6278
3495.922	6278
3497.63	6302
3499.338	6197
3501.045	6252
3502.753	6232
3504.459	6120
3506.166	6125
3507.871	6135
3509.576	6085
3511.283	6104
3512.987	6132
3514.691	6118
3516.395	6072
3518.098	6092
3519.8	6085
3521.504	6032
3523.206	6087
3524.908	6063
3526.609	6109
3528.309	6070
3530.011	6053
3531.711	5982
3533.411	6163
3535.109	5900
3536.808	6027
3538.507	6079
3540.206	6032
3541.904	5953
3543.601	6044
3545.297	5963
3546.994	6043
3548.69	5915
3550.387	5943
3552.081	5972
3553.776	5916
3555.47	5953
3557.166	5897
3558.859	6005
3560.553	5936
3562.245	5955
3563.938	5952
3565.629	5884
3567.322	5955
3569.014	5809
3570.704	5972
3572.394	5863
3574.084	5937
3575.775	5889
3577.464	5921
3579.152	5842
3580.842	5868
3582.529	5738
3584.216	5728
3585.905	5879
3587.591	5824
3589.279	5716
3590.964	5781
3592.649	5799
3594.336	5780
3596.021	5733
3597.705	5705
3599.388	5810
3601.072	5668
3602.757	5669
3604.439	5645
3606.122	5649
3607.803	5707
3609.485	5721
3611.167	5604
3612.849	5674
3614.529	5670
3616.208	5625
3617.888	5641
3619.567	5604
3621.247	5664
3622.926	5537
3624.603	5632
3626.281	5586
3627.958	5664
3629.635	5447
3631.312	5788
3632.989	5575
3634.665	5607
3636.339	5506
3638.014	5436
3639.691	5504
3641.364	5569
3643.038	5524
3644.71	5560
3646.384	5447
3648.058	5479
3649.729	5413
3651.402	5523
3653.073	5479
3654.744	5501
3656.414	5512
3658.085	5423
3659.755	5463
3661.424	5478
3663.094	5433
3664.762	5335
3666.431	5400
3668.099	5376
3669.766	5306
3671.433	5429
3673.099	5403
3674.768	5339
3676.433	5340
3678.098	5308
3679.763	5453
3681.428	5332
3683.093	5447
3684.757	5343
3686.421	5281
3688.083	5294
3689.746	5348
3691.408	5429
3693.071	5346
3694.733	5329
3696.394	5279
3698.054	5317
3699.715	5287
3701.375	5293
3703.036	5254
3704.695	5333
3706.354	5277
3708.012	5250
3709.67	5313
3711.329	5226
3712.987	5200
3714.644	5302
3716.299	5264
3717.955	5236
3719.613	5225
3721.268	5230
3722.923	5229
3724.577	5248
3726.231	5133
3727.885	5308
3729.539	5234
3731.192	5185
3732.845	5155
3734.497	5209
3736.149	5161
3737.802	5138
3739.453	5179
3741.104	5196
3742.753	5172
3744.404	5126
3746.052	5130
3747.704	5158
3749.352	5130
3751	5145
3752.648	5184
3754.296	5154
3755.944	5133
3757.59	5146
3759.238	5107
3760.883	5052
3762.528	5075
3764.176	5108
3765.82	5037
3767.464	5000
3769.109	5090
3770.753	5071
3772.396	5050
3774.04	5114
3775.683	5098
3777.325	5085
3778.967	5152
3780.608	5061
3782.25	5072
3783.89	4980
3785.531	5042
3787.17	5013
3788.81	4986
3790.45	5099
3792.09	5031
3793.729	4987
3795.366	5052
3797.003	5053
3798.64	4944
3800.278	4943
3801.915	5084
3803.551	5021
3805.187	4976
3806.822	5002
3808.458	4940
3810.093	4907
3811.726	4995
3813.36	4916
3814.994	4923
3816.627	4953
3818.262	4912
3819.893	4883
3821.525	4953
3823.157	4849
3824.787	4972
3826.42	4887
3828.051	4874
3829.68	4923
3831.31	4837
3832.938	4876
3834.569	4852
3836.198	4837
3837.825	4790
3839.454	4846
3841.08	4888
3842.708	4882
3844.335	4859
3845.962	4874
3847.587	4831
3849.212	4722
3850.838	4867
3852.463	4719
3854.089	4765
3855.712	4784
3857.335	4724
3858.959	4794
3860.582	4884
3862.205	4719
3863.827	4761
3865.449	4747
3867.07	4753
3868.691	4736
3870.312	4753
3871.933	4705
3873.553	4744
3875.173	4664
3876.792	4727
3878.411	4703
3880.03	4788
3881.647	4661
3883.265	4780
3884.882	4821
3886.499	4637
3888.116	4767
3889.732	4709
3891.348	4824
3892.964	4711
3894.579	4752
3896.195	4705
3897.809	4645
3899.423	4680
3901.036	4652
3902.648	4762
3904.261	4687
3905.875	4729
3907.487	4709
3909.099	4649
3910.709	4659
3912.321	4689
3913.933	4729
3915.542	4607
3917.152	4648
3918.762	4659
3920.37	4641
3921.98	4644
3923.589	4648
3925.196	4604
3926.804	4747
3928.41	4507
3930.018	4582
3931.626	4572
3933.231	4584
3934.838	4632
3936.442	4569
3938.046	4565
3939.653	4588
3941.257	4623
3942.861	4663
3944.464	4577
3946.068	4557
3947.67	4509
3949.273	4537
3950.876	4593
3952.477	4610
3954.078	4517
3955.678	4624
3957.281	4516
3958.881	4566
3960.48	4519
3962.079	4552
3963.678	4507
3965.279	4514
3966.877	4499
3968.475	4423
3970.072	4465
3971.669	4467
3973.266	4460
3974.864	4470
3976.459	4455
3978.055	4546
3979.65	4450
3981.245	4462
3982.841	4465
3984.436	4430
3986.03	4444
3987.623	4512
3989.216	4395
3990.809	4385
3992.403	4367
3993.995	4447
3995.586	4463
3997.177	4351
3998.768	4385
4000.361	4461
4001.951	4387
4003.54	4383
4005.13	4409
4006.719	4334
4008.31	4403
4009.897	4441
4011.485	4345
4013.073	4269
4014.66	4359
4016.247	4266
4017.834	4323
4019.421	4352
4021.006	4313
4022.592	4289
4024.178	4329
4025.763	4303
4027.348	4190
4028.932	4331
4030.515	4305
4032.099	4215
4033.682	4267
4035.266	4325
4036.847	4253
4038.429	4330
4040.011	4312
4041.592	4248
4043.173	4254
4044.755	4188
4046.334	4314
4047.913	4233
4049.494	4202
4051.074	4173
4052.652	4148
4054.23	4189
4055.807	4171
4057.385	4222
4058.963	4077
4060.541	4201
4062.117	4154
4063.693	4098
4065.269	4175
4066.844	4219
4068.42	4168
4069.995	4196
4071.569	4108
4073.143	4140
4074.716	4108
4076.291	4167
4077.864	4137
4079.436	4101
4081.009	4132
4082.58	4138
4084.152	4111
4085.723	4139
4087.294	4137
4088.865	4070
4090.435	4123
4092.005	4102
4093.574	4077
4095.143	4081
4096.712	4084
4098.279	4155
4099.848	3982
4101.416	4101
4102.984	4090
4104.55	4069
4106.117	4134
4107.682	4015
4109.248	4109
4110.815	4127
4112.379	4086
4113.945	4048
4115.508	4092
4117.073	4079
4118.637	4012
4120.201	4009
4121.763	4062
4123.325	4024
4124.888	3999
4126.449	4050
4128.013	3951
4129.573	3971
4131.133	4034
4132.694	4011
4134.254	4058
4135.814	4059
4137.374	3884
4138.933	3971
4140.491	4056
4142.049	3960
4143.607	3903
4145.167	3932
4146.724	3963
4148.28	3990
4149.836	3890
4151.392	3808
4152.949	3849
4154.504	3870
4156.059	3881
4157.614	3886
4159.168	3883
4160.723	3870
4162.277	3901
4163.83	3848
4165.383	3885
4166.936	3874
4168.488	3855
4170.041	3895
4171.593	3839
4173.144	3854
4174.695	3916
4176.246	3792
4177.796	3844
4179.346	3804
4180.896	3779
4182.445	3787
4183.994	3792
4185.542	3817
4187.091	3761
4188.639	3772
4190.185	3863
4191.732	3827
4193.279	3704
4194.826	3783
4196.373	3788
4197.918	3803
4199.463	3738
4201.008	3747
4202.553	3779
4204.098	3802
4205.641	3746
4207.185	3730
4208.728	3744
4210.271	3791
4211.814	3703
4213.357	3837
4214.898	3758
4216.439	3779
4217.98	3701
4219.522	3721
4221.062	3720
4222.603	3708
4224.142	3627
4225.681	3709
4227.222	3600
4228.76	3707
4230.298	3784
4231.835	3694
4233.373	3721
4234.911	3728
4236.449	3614
4237.985	3652
4239.521	3645
4241.057	3660
4242.592	3670
4244.128	3683
4245.663	3645
4247.197	3734
4248.731	3687
4250.265	3696
4251.798	3615
4253.333	3597
4254.865	3687
4256.397	3673
4257.93	3639
4259.461	3684
4260.994	3658
4262.525	3576
4264.056	3622
4265.586	3707
4267.115	3610
4268.646	3600
4270.176	3623
4271.705	3622
4273.232	3650
4274.761	3621
4276.289	3562
4277.818	3604
4279.345	3652
4280.872	3510
4282.399	3655
4283.924	3652
4285.452	3537
4286.976	3584
4288.502	3537
4290.026	3596
4291.551	3534
4293.074	3572
4294.6	3596
4296.123	3593
4297.646	3598
4299.168	3644
4300.691	3484
4302.214	3625
4303.736	3587
4305.257	3496
4306.778	3470
4308.299	3522
4309.82	3515
4311.34	3451
4312.86	3455
4314.379	3511
