400.0745	3851
402.597	3855
405.1208	3886
407.6419	3861
410.1623	3885
412.6819	3915
415.201	4006
417.7172	4027
420.2369	4076
422.7538	4058
425.2701	4117
427.7856	4112
430.3005	4125
432.8147	4147
435.3282	4174
437.841	4226
440.3511	4135
442.8625	4180
445.3753	4209
447.8854	4193
450.3927	4134
452.9014	4123
455.4073	4075
457.9146	4040
460.4233	4126
462.9272	4101
465.4325	4035
467.935	4172
470.4389	4051
472.9421	4062
475.4446	3998
477.9444	4104
480.4456	4186
482.944	4165
485.4417	4171
487.9429	4061
490.4393	4128
492.935	4158
495.4321	4134
497.9264	4172
500.4221	4134
502.9171	4093
505.4094	4137
507.9011	4109
510.392	4165
512.8864	4200
515.3759	4151
517.8649	4230
520.3531	4132
522.8406	4084
525.3275	4224
527.8178	4303
530.3033	4212
532.7881	4195
535.2723	4191
537.7558	4217
540.2407	4322
542.7228	4206
545.2043	4257
547.6851	4194
550.1652	4276
552.6467	4207
555.1255	4290
557.6016	4263
560.079	4322
562.5557	4248
565.0318	4338
567.5092	4348
569.984	4296
572.456	4389
574.9294	4365
577.4022	4435
579.8762	4469
582.3456	4524
584.8163	4428
587.2863	4474
589.7557	4450
592.2224	4544
594.6924	4474
597.1578	4435
599.6245	4380
602.0905	4475
604.5538	4396
607.0206	4422
609.4825	4443
611.9459	4512
614.4066	4420
616.8686	4385
619.33	4419
621.7906	4349
624.2487	4345
626.708	4308
629.1647	4342
631.6207	4308
634.0801	4404
636.5348	4307
638.9888	4366
641.4442	4321
643.8969	4322
646.3509	4348
648.8022	4323
651.255	4427
653.705	4321
656.1544	4382
658.6031	4436
661.0532	4397
663.5026	4442
665.9493	4350
668.3954	4425
670.8409	4475
673.2877	4351
675.7318	4466
678.1752	4520
680.618	4526
683.0601	4514
685.5035	4518
687.9444	4585
690.3845	4498
692.824	4480
695.2628	4535
697.701	4505
700.1406	4494
702.5774	4479
705.0116	4498
707.4472	4522
709.8821	4581
712.3183	4621
714.7519	4472
717.1829	4514
719.6151	4547
722.0468	4453
724.4777	4566
726.908	4560
729.3377	4542
731.7667	4654
734.1931	4562
736.6208	4651
739.0498	4741
741.4742	4632
743.9	4655
746.3231	4659
748.7476	4694
751.1713	4779
753.5945	4742
756.015	4756
758.4368	4806
760.856	4771
763.2766	4728
765.6965	4713
768.1157	4764
770.5323	4780
772.9483	4717
775.3656	4822
777.7822	4790
780.1963	4800
782.6116	4881
785.0244	4872
787.4365	4799
789.8499	4761
792.2626	4750
794.6728	4780
797.0823	4838
799.4911	4742
801.8994	4756
804.3109	4861
806.7178	4738
809.124	4836
811.5297	4750
813.9347	4960
816.341	4909
818.7447	4908
821.1478	4909
823.5502	4773
825.952	4823
828.3531	4857
830.7556	4833
833.1554	4946
835.5546	4830
837.9532	4948
840.3511	4932
842.7504	4917
845.1451	4904
847.5411	5012
849.9365	4991
852.3312	5122
854.7272	5130
857.1187	5020
859.5115	5137
861.9037	5062
864.2952	5096
866.6842	4979
869.0764	5051
871.4661	5002
873.8531	5022
876.2415	4925
878.6272	5078
881.0162	5068
883.4026	4948
885.7866	4879
888.1717	4986
890.5543	5028
892.9382	5045
895.3215	5104
897.7041	4839
900.0842	5007
902.4655	5047
904.8443	5003
907.2244	5116
909.6039	5170
911.9808	5042
914.357	5073
916.7346	5160
919.1115	5313
921.4859	5374
923.8616	5352
926.2347	5428
928.6071	5397
930.979	5345
933.3541	5521
935.7247	5437
938.0946	5422
940.4639	5576
942.8326	5456
945.2026	5690
947.5701	5739
949.9369	5962
952.305	6150
954.6705	6432
957.0355	6802
959.4017	7237
961.7654	7302
964.1284	7269
966.4908	7128
968.8527	6760
971.2138	6327
973.5743	6017
975.9343	5720
978.2936	5523
980.6522	5347
983.0122	5395
985.3696	5268
987.7245	5283
990.0807	5248
992.4362	5208
994.7911	5177
997.1474	5247
999.4991	5241
1001.852	5283
1004.205	5241
1006.555	5258
1008.908	5253
1011.258	5260
1013.606	5237
1015.956	5352
1018.302	5273
1020.652	5233
1022.998	5263
1025.345	5287
1027.691	5342
1030.035	5238
1032.378	5405
1034.724	5340
1037.066	5296
1039.409	5370
1041.75	5353
1044.092	5397
1046.433	5356
1048.771	5363
1051.112	5247
1053.449	5358
1055.786	5315
1058.124	5313
1060.462	5472
1062.797	5338
1065.131	5411
1067.467	5418
1069.8	5503
1072.135	5511
1074.467	5468
1076.798	5449
1079.129	5527
1081.459	5356
1083.792	5427
1086.121	5310
1088.449	5361
1090.777	5340
1093.104	5329
1095.431	5310
1097.759	5368
1100.084	5355
1102.408	5271
1104.732	5305
1107.056	5223
1109.379	5268
1111.701	5175
1114.022	5288
1116.343	5304
1118.664	5283
1120.983	5275
1123.303	5296
1125.621	5313
1127.939	5322
1130.256	5253
1132.573	5344
1134.889	5198
1137.205	5244
1139.52	5322
1141.832	5288
1144.146	5234
1146.461	5221
1148.771	5243
1151.083	5266
1153.392	5276
1155.703	5194
1158.011	5225
1160.323	5185
1162.629	5173
1164.938	5198
1167.243	5358
1169.55	5239
1171.857	5205
1174.163	5357
1176.466	5274
1178.769	5328
1181.073	5300
1183.374	5325
1185.677	5293
1187.979	5263
1190.279	5305
1192.578	5300
1194.878	5207
1197.178	5278
1199.476	5302
1201.772	5278
1204.068	5350
1206.366	5218
1208.663	5191
1210.957	5318
1213.251	5422
1215.544	5163
1217.836	5273
1220.128	5310
1222.421	5280
1224.712	5303
1227.002	5366
1229.292	5293
1231.581	5439
1233.871	5430
1236.159	5610
1238.446	5410
1240.732	5556
1243.018	5435
1245.304	5583
1247.59	5601
1249.874	5590
1252.156	5554
1254.439	5545
1256.721	5548
1259.005	5564
1261.286	5612
1263.565	5486
1265.845	5541
1268.125	5572
1270.403	5615
1272.682	5570
1274.959	5618
1277.234	5525
1279.511	5500
1281.787	5548
1284.062	5515
1286.337	5446
1288.609	5472
1290.882	5524
1293.153	5386
1295.428	5414
1297.698	5411
1299.969	5429
1302.237	5376
1304.507	5392
1306.777	5482
1309.044	5504
1311.312	5215
1313.578	5290
1315.844	5472
1318.109	5377
1320.375	5381
1322.638	5415
1324.903	5522
1327.165	5398
1329.427	5484
1331.69	5422
1333.952	5313
1336.212	5545
1338.471	5359
1340.73	5508
1342.988	5412
1345.248	5405
1347.505	5476
1349.763	5448
1352.019	5361
1354.274	5386
1356.53	5329
1358.784	5302
1361.038	5407
1363.291	5367
1365.543	5381
1367.797	5434
1370.048	5485
1372.296	5340
1374.546	5450
1376.796	5361
1379.045	5513
1381.295	5476
1383.542	5420
1385.787	5459
1388.034	5559
1390.28	5489
1392.527	5587
1394.772	5613
1397.014	5572
1399.258	5491
1401.501	5597
1403.741	5534
1405.985	5708
1408.226	5638
1410.465	5638
1412.705	5727
1414.943	5639
1417.184	5581
1419.42	5599
1421.658	5640
1423.894	5658
1426.13	5670
1428.366	5666
1430.602	5574
1432.835	5747
1435.069	5537
1437.301	5715
1439.535	5727
1441.767	5685
1443.997	5815
1446.229	5763
1448.458	5793
1450.687	5811
1452.916	5886
1455.146	5881
1457.372	5774
1459.599	5747
1461.824	5721
1464.051	5775
1466.277	5731
1468.501	5719
1470.725	5739
1472.948	5562
1475.17	5581
1477.393	5473
1479.614	5407
1481.837	5503
1484.057	5440
1486.276	5360
1488.497	5393
1490.715	5414
1492.932	5407
1495.148	5286
1497.364	5371
1499.58	5340
1501.798	5287
1504.012	5466
1506.227	5230
1508.44	5389
1510.653	5372
1512.866	5339
1515.078	5314
1517.289	5305
1519.5	5262
1521.711	5441
1523.92	5300
1526.13	5349
1528.338	5297
1530.544	5218
1532.752	5246
1534.959	5376
1537.165	5324
1539.371	5409
1541.574	5343
1543.779	5374
1545.983	5390
1548.187	5295
1550.39	5321
1552.59	5410
1554.792	5425
1556.991	5453
1559.19	5362
1561.392	5421
1563.59	5380
1565.789	5336
1567.986	5389
1570.182	5474
1572.381	5420
1574.576	5524
1576.771	5484
1578.966	5529
1581.16	5458
1583.354	5462
1585.546	5442
1587.74	5465
1589.931	5449
1592.121	5598
1594.311	5492
1596.502	5499
1598.693	5498
1600.881	5574
1603.069	5506
1605.256	5546
1607.445	5535
1609.631	5543
1611.816	5473
1614.001	5522
1616.186	5527
1618.37	5569
1620.555	5641
1622.737	5569
1624.919	5593
1627.101	5587
1629.282	5599
1631.463	5571
1633.643	5552
1635.822	5650
1638.001	5648
1640.179	5638
1642.359	5699
1644.534	5643
1646.711	5691
1648.887	5669
1651.062	5658
1653.235	5594
1655.412	5664
1657.586	5739
1659.757	5611
1661.93	5628
1664.1	5712
1666.274	5836
1668.445	5700
1670.614	5661
1672.784	5794
1674.951	5797
1677.12	5775
1679.289	5686
1681.457	5798
1683.622	5713
1685.789	5726
1687.953	5721
1690.121	5612
1692.284	5645
1694.447	5639
1696.611	5595
1698.772	5612
1700.935	5439
1703.098	5540
1705.258	5482
1707.417	5546
1709.576	5469
1711.736	5476
1713.896	5521
1716.053	5477
1718.21	5450
1720.366	5391
1722.522	5499
1724.68	5478
1726.835	5375
1728.989	5472
1731.142	5444
1733.295	5397
1735.449	5477
1737.601	5423
1739.753	5396
1741.903	5502
1744.054	5453
1746.203	5431
1748.354	5530
1750.503	5413
1752.651	5400
1754.798	5467
1756.944	5551
1759.092	5397
1761.238	5461
1763.383	5382
1765.528	5533
1767.672	5575
1769.814	5526
1771.959	5458
1774.102	5434
1776.242	5571
1778.384	5443
1780.525	5520
1782.665	5418
1784.805	5564
1786.945	5607
1789.082	5583
1791.22	5615
1793.36	5483
1795.495	5478
1797.632	5415
1799.766	5599
1801.902	5441
1804.035	5474
1806.172	5462
1808.304	5514
1810.436	5580
1812.569	5453
1814.699	5513
1816.833	5543
1818.963	5645
1821.092	5463
1823.222	5538
1825.35	5448
1827.478	5358
1829.608	5536
1831.734	5459
1833.86	5450
1835.986	5482
1838.11	5522
1840.238	5436
1842.362	5442
1844.485	5385
1846.608	5506
1848.73	5381
1850.853	5463
1852.974	5436
1855.097	5430
1857.217	5384
1859.336	5476
1861.455	5400
1863.576	5456
1865.693	5415
1867.811	5491
1869.926	5389
1872.042	5487
1874.16	5410
1876.275	5448
1878.39	5411
1880.504	5449
1882.618	5467
1884.731	5452
1886.843	5341
1888.956	5474
1891.067	5422
1893.178	5435
1895.287	5362
1897.399	5390
1899.508	5445
1901.617	5426
1903.724	5416
1905.832	5484
1907.941	5420
1910.046	5539
1912.152	5528
1914.256	5490
1916.361	5405
1918.464	5436
1920.57	5444
1922.672	5392
1924.775	5439
1926.876	5477
1928.978	5520
1931.08	5557
1933.181	5485
1935.28	5511
1937.38	5493
1939.478	5501
1941.577	5461
1943.675	5441
1945.771	5438
1947.867	5547
1949.964	5539
1952.058	5525
1954.154	5494
1956.248	5400
1958.343	5345
1960.435	5481
1962.527	5521
1964.62	5470
1966.711	5517
1968.802	5407
1970.892	5454
1972.983	5499
1975.072	5478
1977.162	5535
1979.25	5531
1981.337	5442
1983.424	5470
1985.51	5446
1987.598	5531
1989.683	5500
1991.768	5425
1993.852	5493
1995.934	5458
1998.019	5424
2000.102	5443
2002.184	5571
2004.266	5491
2006.347	5379
2008.427	5469
2010.508	5427
2012.587	5432
2014.666	5375
2016.745	5393
2018.821	5315
2020.9	5371
2022.977	5512
2025.052	5424
2027.128	5441
2029.204	5375
2031.277	5483
2033.353	5369
2035.425	5370
2037.499	5417
2039.57	5404
2041.642	5356
2043.714	5447
2045.786	5411
2047.855	5443
2049.925	5360
2051.993	5524
2054.064	5383
2056.132	5487
2058.2	5455
2060.266	5447
2062.332	5350
2064.398	5459
2066.465	5460
2068.529	5457
2070.592	5418
2072.657	5417
2074.719	5395
2076.783	5427
2078.845	5455
2080.907	5478
2082.968	5514
2085.028	5496
2087.087	5459
2089.148	5442
2091.207	5432
2093.264	5529
2095.322	5462
2097.379	5471
2099.439	5486
2101.495	5459
2103.55	5293
2105.605	5473
2107.658	5542
2109.713	5374
2111.767	5519
2113.82	5426
2115.872	5470
2117.924	5372
2119.975	5421
2122.028	5446
2124.078	5348
2126.126	5350
2128.176	5426
2130.225	5403
2132.275	5479
2134.321	5438
2136.368	5483
2138.415	5438
2140.461	5357
2142.505	5474
2144.552	5382
2146.597	5390
2148.64	5506
2150.684	5358
2152.725	5464
2154.77	5397
2156.811	5471
2158.852	5460
2160.894	5286
2162.933	5374
2164.973	5342
2167.013	5352
2169.051	5355
2171.089	5316
2173.126	5343
2175.164	5412
2177.201	5261
2179.236	5326
2181.273	5272
2183.307	5352
2185.341	5334
2187.377	5418
2189.41	5277
2191.442	5306
2193.473	5378
2195.506	5272
2197.539	5281
2199.569	5407
2201.598	5209
2203.628	5407
2205.656	5252
2207.686	5227
2209.716	5285
2211.743	5350
2213.769	5256
2215.796	5293
2217.821	5307
2219.848	5368
2221.873	5256
2223.897	5268
2225.921	5225
2227.944	5291
2229.967	5359
2231.991	5202
2234.011	5289
2236.032	5247
2238.053	5233
2240.073	5297
2242.094	5264
2244.114	5395
2246.131	5322
2248.149	5234
2250.167	5244
2252.186	5212
2254.201	5267
2256.218	5245
2258.233	5231
2260.247	5267
2262.262	5255
2264.278	5207
2266.29	5235
2268.303	5319
2270.315	5265
2272.327	5168
2274.341	5182
2276.35	5374
2278.361	5260
2280.37	5385
2282.38	5288
2284.388	5277
2286.397	5149
2288.405	5231
2290.412	5229
2292.419	5387
2294.425	5225
2296.431	5338
2298.437	5255
2300.441	5276
2302.445	5319
2304.449	5340
2306.453	5255
2308.455	5175
2310.457	5211
2312.459	5336
2314.46	5257
2316.46	5362
2318.461	5174
2320.46	5216
2322.458	5256
2324.458	5212
2326.456	5138
2328.455	5230
2330.451	5291
2332.447	5215
2334.443	5179
2336.438	5138
2338.433	5235
2340.429	5161
2342.422	5178
2344.416	5114
2346.408	5223
2348.399	5184
2350.393	5210
2352.384	5059
2354.375	5189
2356.365	5196
2358.355	5080
2360.344	5118
2362.333	5190
2364.322	5094
2366.309	5154
2368.295	5152
2370.282	5052
2372.27	5118
2374.256	5096
2376.24	5223
2378.225	5079
2380.208	5159
2382.194	5231
2384.177	5073
2386.159	5198
2388.142	5112
2390.122	5106
2392.105	5103
2394.085	5084
2396.066	5171
2398.044	5154
2400.024	5084
2402.002	5064
2403.982	5089
2405.959	5072
2407.935	5116
2409.913	5145
2411.888	5055
2413.865	4993
2415.84	5183
2417.814	5081
2419.788	5039
2421.762	5168
2423.735	4976
2425.708	5015
2427.68	5091
2429.651	5150
2431.623	5064
2433.593	5062
2435.564	4934
2437.533	5168
2439.502	5087
2441.47	5089
2443.438	5029
2445.406	5102
2447.373	5024
2449.34	5018
2451.305	5080
2453.271	5095
2455.235	5035
2457.201	5007
2459.165	5080
2461.129	5052
2463.092	5073
2465.054	4962
2467.018	5026
2468.978	5005
2470.939	4929
2472.899	5053
2474.86	5034
2476.819	5017
2478.778	5057
2480.737	4989
2482.695	4988
2484.653	5001
2486.609	4965
2488.567	4936
2490.524	5014
2492.478	5039
2494.433	5054
2496.387	4984
2498.343	4967
2500.297	4898
2502.249	4884
2504.202	4907
2506.153	5020
2508.105	4930
2510.057	5032
2512.008	5014
2513.957	4958
2515.906	4995
2517.855	4965
2519.805	4908
2521.754	4964
2523.7	4985
2525.647	4976
2527.594	4857
2529.54	4984
2531.486	4965
2533.431	4966
2535.376	5036
2537.32	5028
2539.263	5021
2541.207	4930
2543.151	5088
2545.093	4863
2547.034	5006
2548.975	4910
2550.917	4959
2552.856	4971
2554.796	4977
2556.735	4926
2558.673	4974
2560.611	4950
2562.55	4919
2564.487	4993
2566.424	4960
2568.36	4873
2570.296	4932
2572.232	4980
2574.167	4943
2576.101	4971
2578.035	4958
2579.969	4873
2581.902	5015
2583.834	4982
2585.766	4940
2587.698	4964
2589.628	4943
2591.557	4947
2593.489	4977
2595.419	4970
2597.348	4937
2599.275	5018
2601.204	4900
2603.131	4905
2605.059	4973
2606.986	4984
2608.911	4912
2610.837	5030
2612.76	4969
2614.687	4949
2616.61	4911
2618.534	4916
2620.457	4946
2622.38	4946
2624.302	5083
2626.225	4975
2628.145	4912
2630.067	4970
2631.986	4998
2633.906	4962
2635.827	4929
2637.745	4944
2639.662	4938
2641.581	4872
2643.498	4887
2645.415	5011
2647.331	4988
2649.248	4911
2651.163	4919
2653.077	4955
2654.993	4923
2656.906	4937
2658.821	4929
2660.733	4860
2662.646	4997
2664.557	4949
2666.47	4953
2668.381	4888
2670.291	4944
2672.201	4947
2674.11	4957
2676.021	4918
2677.929	4998
2679.837	4971
2681.745	4944
2683.652	4936
2685.56	4911
2687.466	4964
2689.371	4922
2691.276	4925
2693.181	4937
2695.085	4885
2696.991	4880
2698.893	4967
2700.796	4869
2702.698	4968
2704.601	4861
2706.502	4901
2708.404	4841
2710.304	4825
2712.203	4806
2714.103	4735
2716.003	4843
2717.902	4853
2719.8	4920
2721.697	4855
2723.594	4814
2725.49	4844
2727.389	4905
2729.283	4893
2731.179	4873
2733.073	4862
2734.968	4856
2736.863	4851
2738.757	4826
2740.649	4859
2742.541	4874
2744.433	4888
2746.324	4909
2748.216	4822
2750.107	4932
2751.997	4928
2753.886	4899
2755.776	4827
2757.666	4865
2759.553	4860
2761.44	4785
2763.327	4805
2765.215	4815
2767.102	4889
2768.988	4751
2770.873	4862
2772.757	4841
2774.641	4850
2776.525	4811
2778.41	4904
2780.292	4950
2782.175	4791
2784.057	4835
2785.938	4690
2787.821	4797
2789.701	4836
2791.581	4801
2793.461	4797
2795.34	4739
2797.219	4897
2799.099	4941
2800.975	4841
2802.853	4813
2804.73	4833
2806.606	4804
2808.484	4771
2810.358	4748
2812.233	4755
2814.108	4830
2815.981	4864
2817.857	4800
2819.73	4766
2821.602	4858
2823.474	4806
2825.346	4907
2827.217	4777
2829.089	4852
2830.959	4765
2832.829	4884
2834.698	4824
2836.567	4885
2838.436	4833
2840.305	4954
2842.172	4930
2844.04	4817
2845.905	4935
2847.772	4855
2849.639	4952
2851.503	4889
2853.369	4980
2855.232	4993
2857.096	4980
2858.961	5022
2860.824	5038
2862.686	5109
2864.547	5076
2866.41	5042
2868.272	5116
2870.132	5295
2871.992	5238
2873.851	5330
2875.711	5392
2877.57	5405
2879.429	5414
2881.287	5452
2883.144	5509
2885.001	5492
2886.857	5588
2888.714	5520
2890.57	5567
2892.425	5563
2894.279	5585
2896.133	5635
2897.987	5607
2899.842	5613
2901.694	5515
2903.547	5651
2905.397	5529
2907.249	5568
2909.101	5542
2910.952	5622
2912.802	5686
2914.652	5658
2916.5	5673
2918.35	5698
2920.198	5844
2922.045	5857
2923.893	6020
2925.74	6106
2927.585	6167
2929.433	6044
2931.279	6180
2933.123	6270
2934.968	6441
2936.811	6439
2938.656	6328
2940.5	6486
2942.342	6639
2944.185	6707
2946.026	6588
2947.87	6791
2949.71	6768
2951.549	6575
2953.39	6448
2955.229	6347
2957.069	6344
2958.908	6277
2960.746	6287
2962.584	6272
2964.421	6110
2966.257	6018
2968.094	6061
2969.931	5913
2971.766	5927
2973.601	5693
2975.435	5808
2977.27	5728
2979.105	5781
2980.938	5783
2982.77	5672
2984.602	5706
2986.434	5660
2988.267	5579
2990.097	5468
2991.927	5394
2993.757	5511
2995.587	5332
2997.417	5316
2999.246	5225
3001.074	5162
3002.902	5132
3004.729	5208
3006.556	5140
3008.384	5030
3010.21	4974
3012.036	5000
3013.861	4909
3015.684	4875
3017.51	4754
3019.334	4728
3021.157	4786
3022.981	4712
3024.802	4710
3026.624	4574
3028.448	4708
3030.267	4654
3032.088	4643
3033.909	4652
3035.728	4561
3037.549	4591
3039.368	4501
3041.186	4604
3043.004	4562
3044.821	4632
3046.64	4494
3048.455	4609
3050.272	4556
3052.087	4537
3053.903	4491
3055.717	4513
3057.534	4584
3059.347	4558
3061.16	4573
3062.974	4560
3064.785	4547
3066.598	4538
3068.411	4593
3070.222	4611
3072.032	4444
3073.844	4487
3075.653	4552
3077.463	4491
3079.272	4461
3081.08	4457
3082.889	4531
3084.697	4460
3086.505	4494
3088.312	4475
3090.118	4428
3091.924	4374
3093.729	4503
3095.535	4420
3097.34	4442
3099.144	4410
3100.947	4493
3102.75	4404
3104.553	4375
3106.357	4415
3108.159	4495
3109.961	4399
3111.762	4380
3113.562	4482
3115.365	4225
3117.164	4403
3118.964	4319
3120.761	4313
3122.56	4380
3124.36	4343
3126.158	4276
3127.954	4280
3129.75	4330
3131.547	4371
3133.343	4392
3135.139	4408
3136.934	4346
3138.729	4328
3140.522	4245
3142.317	4276
3144.11	4359
3145.904	4360
3147.695	4334
3149.488	4252
3151.28	4394
3153.07	4297
3154.863	4333
3156.652	4313
3158.441	4332
3160.231	4389
3162.019	4315
3163.81	4252
3165.597	4256
3167.384	4247
3169.172	4243
3170.958	4303
3172.745	4265
3174.532	4352
3176.317	4199
3178.101	4282
3179.885	4287
3181.67	4217
3183.455	4270
3185.238	4299
3187.02	4288
3188.802	4363
3190.585	4306
3192.368	4221
3194.149	4279
3195.929	4306
3197.709	4196
3199.489	4237
3201.268	4255
3203.048	4292
3204.826	4267
3206.604	4326
3208.382	4266
3210.159	4339
3211.937	4283
3213.713	4280
3215.489	4296
3217.263	4186
3219.038	4236
3220.815	4208
3222.589	4332
3224.363	4222
3226.136	4317
3227.908	4306
3229.681	4266
3231.454	4193
3233.226	4284
3234.996	4265
3236.767	4195
3238.538	4285
3240.308	4304
3242.078	4188
3243.847	4370
3245.615	4228
3247.384	4189
3249.15	4320
3250.92	4244
3252.686	4181
3254.453	4217
3256.218	4195
3257.984	4178
3259.75	4291
3261.515	4227
3263.279	4362
3265.044	4281
3266.806	4235
3268.57	4212
3270.334	4275
3272.095	4286
3273.856	4271
3275.619	4335
3277.379	4178
3279.14	4303
3280.9	4352
3282.661	4202
3284.419	4410
3286.178	4242
3287.937	4324
3289.695	4231
3291.453	4242
3293.21	4328
3294.967	4214
3296.723	4357
3298.48	4301
3300.235	4281
3301.99	4347
3303.744	4288
3305.498	4389
3307.253	4243
3309.006	4350
3310.759	4257
3312.511	4269
3314.263	4350
3316.017	4215
3317.768	4278
3319.519	4265
3321.268	4285
3323.018	4321
3324.767	4248
3326.518	4243
3328.267	4282
3330.014	4362
3331.762	4279
3333.509	4250
3335.258	4265
3337.003	4156
3338.75	4216
3340.496	4337
3342.24	4263
3343.987	4296
3345.732	4350
3347.475	4262
3349.219	4279
3350.961	4257
3352.705	4232
3354.448	4196
3356.19	4218
3357.931	4108
3359.672	4231
3361.412	4230
3363.155	4245
3364.894	4258
3366.633	4184
3368.372	4151
3370.11	4225
3371.849	4157
3373.588	4144
3375.325	4233
3377.061	4131
3378.799	4112
3380.534	4174
3382.271	4100
3384.006	4072
3385.741	4168
3387.475	4126
3389.209	4121
3390.944	4093
3392.677	4134
3394.409	4122
3396.143	4117
3397.874	4066
3399.606	4074
3401.338	4176
3403.069	4120
3404.799	4114
3406.528	4104
3408.258	3922
3409.988	4202
3411.717	4151
3413.445	4025
3415.173	4028
3416.899	4112
3418.626	4077
3420.354	4101
3422.08	3979
3423.806	3979
3425.531	4115
3427.255	4031
3428.981	4018
3430.705	4044
3432.429	4020
3434.151	4076
3435.875	4025
3437.599	4045
3439.321	3984
3441.042	3994
3442.763	3956
3444.483	3943
3446.204	3986
3447.926	4003
3449.645	3939
3451.364	3906
3453.082	4016
3454.801	3987
3456.52	3976
3458.238	3979
3459.954	3988
3461.671	3919
3463.387	3933
3465.104	3957
3466.82	3892
3468.534	3893
3470.25	3896
3471.963	3908
3473.676	3818
3475.392	3916
3477.104	3879
3478.817	3858
3480.528	3821
3482.241	3854
3483.954	3843
3485.664	3906
3487.374	3840
3489.084	3869
3490.795	3793
3492.504	3811
3494.214	3802
3495.922	3802
3497.63	3863
3499.338	3723
3501.045	3818
3502.753	3789
3504.459	3735
3506.166	3761
3507.871	3756
3509.576	3712
3511.283	3724
3512.987	3782
3514.691	3738
3516.395	3733
3518.098	3677
3519.8	3730
3521.504	3703
3523.206	3687
3524.908	3720
3526.609	3698
3528.309	3698
3530.011	3782
3531.711	3787
3533.411	3713
3535.109	3608
3536.808	3659
3538.507	3725
3540.206	3714
3541.904	3671
3543.601	3699
3545.297	3639
3546.994	3633
3548.69	3694
3550.387	3545
3552.081	3638
3553.776	3645
3555.47	3628
3557.166	3564
3558.859	3666
3560.553	3526
3562.245	3628
3563.938	3589
3565.629	3559
3567.322	3554
3569.014	3607
3570.704	3564
3572.394	3518
3574.084	3634
3575.775	3573
3577.464	3615
3579.152	3555
3580.842	3539
3582.529	3615
3584.216	3475
3585.905	3582
3587.591	3548
3589.279	3562
3590.964	3484
3592.649	3553
3594.336	3585
3596.021	3488
3597.705	3472
3599.388	3464
3601.072	3470
3602.757	3421
3604.439	3480
3606.122	3425
3607.803	3407
3609.485	3446
3611.167	3398
3612.849	3378
3614.529	3489
3616.208	3395
3617.888	3338
3619.567	3366
3621.247	3497
3622.926	3385
3624.603	3343
3626.281	3389
3627.958	3391
3629.635	3343
3631.312	3305
3632.989	3358
3634.665	3367
3636.339	3324
3638.014	3338
3639.691	3304
3641.364	3387
3643.038	3331
3644.71	3301
3646.384	3289
3648.058	3280
3649.729	3300
3651.402	3275
3653.073	3276
3654.744	3353
3656.414	3204
3658.085	3421
3659.755	3329
3661.424	3304
3663.094	3254
3664.762	3207
3666.431	3350
3668.099	3298
3669.766	3279
3671.433	3317
3673.099	3268
3674.768	3252
3676.433	3249
3678.098	3237
3679.763	3244
3681.428	3173
3683.093	3223
3684.757	3235
3686.421	3219
3688.083	3257
3689.746	3150
3691.408	3163
3693.071	3232
3694.733	3261
3696.394	3228
3698.054	3147
3699.715	3259
3701.375	3152
3703.036	3200
3704.695	3165
3706.354	3266
3708.012	3240
3709.67	3204
3711.329	3169
3712.987	3131
3714.644	3234
3716.299	3209
3717.955	3159
3719.613	3237
3721.268	3159
3722.923	3199
3724.577	3139
3726.231	3166
3727.885	3147
3729.539	3179
3731.192	3171
3732.845	3192
3734.497	3181
3736.149	3125
3737.802	3163
3739.453	3186
3741.104	3111
3742.753	3150
3744.404	3155
3746.052	3226
3747.704	3177
3749.352	3154
3751	3080
3752.648	3044
3754.296	3076
3755.944	3115
3757.59	3054
3759.238	3125
3760.883	3069
3762.528	3147
3764.176	3111
3765.82	3073
3767.464	3050
3769.109	3052
3770.753	3160
3772.396	3041
3774.04	3057
3775.683	3058
3777.325	3083
3778.967	3036
3780.608	3065
3782.25	3098
3783.89	3054
3785.531	2989
3787.17	3013
3788.81	3075
3790.45	3059
3792.09	3059
3793.729	3042
3795.366	2988
3797.003	3072
3798.64	3040
3800.278	2977
3801.915	3049
3803.551	3044
3805.187	2949
3806.822	2950
3808.458	3050
3810.093	2961
3811.726	3005
3813.36	3007
3814.994	2954
3816.627	3038
3818.262	2999
3819.893	2928
3821.525	2986
3823.157	2989
3824.787	3013
3826.42	2993
3828.051	3056
3829.68	2993
3831.31	2925
3832.938	2973
3834.569	2939
3836.198	2955
3837.825	2910
3839.454	2863
3841.08	2952
3842.708	3013
3844.335	2945
3845.962	2864
3847.587	2964
3849.212	2952
3850.838	2935
3852.463	2920
3854.089	2905
3855.712	2956
3857.335	2947
3858.959	2960
3860.582	2940
3862.205	2997
3863.827	3002
3865.449	2919
3867.07	2880
3868.691	2962
3870.312	2833
3871.933	2903
3873.553	2901
3875.173	2936
3876.792	2837
3878.411	2867
3880.03	2817
3881.647	2891
3883.265	2898
3884.882	2951
3886.499	2920
3888.116	2842
3889.732	2894
3891.348	2901
3892.964	2893
3894.579	2923
3896.195	2824
3897.809	2868
3899.423	2839
3901.036	2850
3902.648	2924
3904.261	2877
3905.875	2918
3907.487	2905
3909.099	2835
3910.709	2885
3912.321	2839
3913.933	2919
3915.542	2856
3917.152	2865
3918.762	2863
3920.37	2816
3921.98	2825
3923.589	2861
3925.196	2842
3926.804	2888
3928.41	2841
3930.018	2813
3931.626	2890
3933.231	2885
3934.838	2756
3936.442	2791
3938.046	2884
3939.653	2800
3941.257	2816
3942.861	2910
3944.464	2839
3946.068	2800
3947.67	2851
3949.273	2787
3950.876	2782
3952.477	2764
3954.078	2815
3955.678	2798
3957.281	2811
3958.881	2793
3960.48	2787
3962.079	2726
3963.678	2685
3965.279	2779
3966.877	2755
3968.475	2760
3970.072	2722
3971.669	2727
3973.266	2808
3974.864	2729
3976.459	2733
3978.055	2760
3979.65	2788
3981.245	2740
3982.841	2774
3984.436	2729
3986.03	2724
3987.623	2816
3989.216	2793
3990.809	2747
3992.403	2771
3993.995	2740
3995.586	2650
3997.177	2720
3998.768	2776
4000.361	2697
4001.951	2763
4003.54	2764
4005.13	2668
4006.719	2694
4008.31	2778
4009.897	2689
4011.485	2687
4013.073	2713
4014.66	2695
4016.247	2676
4017.834	2672
4019.421	2680
4021.006	2629
4022.592	2702
4024.178	2665
4025.763	2614
4027.348	2603
4028.932	2678
4030.515	2652
4032.099	2626
4033.682	2618
4035.266	2648
4036.847	2619
4038.429	2653
4040.011	2651
4041.592	2674
4043.173	2662
4044.755	2602
4046.334	2669
4047.913	2598
4049.494	2577
4051.074	2624
4052.652	2642
4054.23	2656
4055.807	2636
4057.385	2676
4058.963	2542
4060.541	2656
4062.117	2621
4063.693	2623
4065.269	2595
4066.844	2626
4068.42	2668
4069.995	2580
4071.569	2545
4073.143	2592
4074.716	2544
4076.291	2631
4077.864	2568
4079.436	2502
4081.009	2538
4082.58	2560
4084.152	2519
4085.723	2561
4087.294	2467
4088.865	2538
4090.435	2542
4092.005	2515
4093.574	2562
4095.143	2557
4096.712	2585
4098.279	2550
4099.848	2532
4101.416	2562
4102.984	2527
4104.55	2541
4106.117	2462
4107.682	2528
4109.248	2483
4110.815	2521
4112.379	2523
4113.945	2493
4115.508	2532
4117.073	2583
4118.637	2504
4120.201	2539
4121.763	2499
4123.325	2495
4124.888	2477
4126.449	2428
4128.013	2489
4129.573	2469
4131.133	2562
4132.694	2474
4134.254	2416
4135.814	2452
4137.374	2510
4138.933	2468
4140.491	2492
4142.049	2487
4143.607	2475
4145.167	2420
4146.724	2503
4148.28	2543
4149.836	2383
4151.392	2444
4152.949	2499
4154.504	2475
4156.059	2463
4157.614	2485
4159.168	2445
4160.723	2426
4162.277	2459
4163.83	2426
4165.383	2424
4166.936	2450
4168.488	2424
4170.041	2427
4171.593	2409
4173.144	2477
4174.695	2470
4176.246	2379
4177.796	2413
4179.346	2409
4180.896	2407
4182.445	2437
4183.994	2438
4185.542	2380
4187.091	2398
4188.639	2385
4190.185	2398
4191.732	2442
4193.279	2383
4194.826	2325
4196.373	2416
4197.918	2293
4199.463	2336
4201.008	2337
4202.553	2348
4204.098	2336
4205.641	2356
4207.185	2330
4208.728	2360
4210.271	2342
4211.814	2367
4213.357	2345
4214.898	2325
4216.439	2319
4217.98	2359
4219.522	2350
4221.062	2302
4222.603	2405
4224.142	2338
4225.681	2357
4227.222	2348
4228.76	2390
4230.298	2311
4231.835	2282
4233.373	2296
4234.911	2350
4236.449	2304
4237.985	2359
4239.521	2288
4241.057	2366
4242.592	2296
4244.128	2252
4245.663	2288
4247.197	2302
4248.731	2296
4250.265	2319
4251.798	2382
4253.333	2331
4254.865	2313
4256.397	2272
4257.93	2337
4259.461	2334
4260.994	2316
4262.525	2324
4264.056	2268
4265.586	2376
4267.115	2273
4268.646	2263
4270.176	2303
4271.705	2250
4273.232	2290
4274.761	2233
4276.289	2328
4277.818	2273
4279.345	2269
4280.872	2231
4282.399	2189
4283.924	2321
4285.452	2279
4286.976	2266
4288.502	2232
4290.026	2312
4291.551	2242
4293.074	2182
4294.6	2240
4296.123	2241
4297.646	2245
4299.168	2315
4300.691	2308
4302.214	2220
4303.736	2187
4305.257	2252
4306.778	2256
4308.299	2158
4309.82	2242
4311.34	2234
4312.86	2253
4314.379	2237
