400.0745	4671
402.597	4826
405.1208	4852
407.6419	4853
410.1623	4891
412.6819	4919
415.201	4907
417.7172	4991
420.2369	4983
422.7538	5104
425.2701	4984
427.7856	5110
430.3005	5138
432.8147	5204
435.3282	5038
437.841	5129
440.3511	5186
442.8625	5081
445.3753	5208
447.8854	5102
450.3927	5129
452.9014	5214
455.4073	5262
457.9146	5142
460.4233	5214
462.9272	5233
465.4325	5158
467.935	5170
470.4389	5333
472.9421	5155
475.4446	5179
477.9444	5254
480.4456	5246
482.944	5302
485.4417	5299
487.9429	5272
490.4393	5337
492.935	5408
495.4321	5353
497.9264	5411
500.4221	5352
502.9171	5355
505.4094	5361
507.9011	5369
510.392	5439
512.8864	5400
515.3759	5397
517.8649	5425
520.3531	5499
522.8406	5462
525.3275	5484
527.8178	5466
530.3033	5430
532.7881	5527
535.2723	5428
537.7558	5431
540.2407	5540
542.7228	5386
545.2043	5443
547.6851	5505
550.1652	5461
552.6467	5498
555.1255	5410
557.6016	5407
560.079	5473
562.5557	5511
565.0318	5526
567.5092	5479
569.984	5483
572.456	5637
574.9294	5646
577.4022	5606
579.8762	5631
582.3456	5632
584.8163	5664
587.2863	5757
589.7557	5727
592.2224	5606
594.6924	5795
597.1578	5677
599.6245	5605
602.0905	5749
604.5538	5684
607.0206	5713
609.4825	5721
611.9459	5575
614.4066	5568
616.8686	5665
619.33	5614
621.7906	5750
624.2487	5678
626.708	5720
629.1647	5642
631.6207	5709
634.0801	5673
636.5348	5664
638.9888	5641
641.4442	5770
643.8969	5776
646.3509	5807
648.8022	5772
651.255	5662
653.705	5709
656.1544	5763
658.6031	5861
661.0532	5777
663.5026	5856
665.9493	5694
668.3954	5814
670.8409	5865
673.2877	5668
675.7318	5754
678.1752	5767
680.618	5803
683.0601	5824
685.5035	5840
687.9444	5869
690.3845	5966
692.824	5777
695.2628	5917
697.701	5860
700.1406	5958
702.5774	5850
705.0116	5967
707.4472	5926
709.8821	5855
712.3183	5984
714.7519	5849
717.1829	5859
719.6151	6033
722.0468	6004
724.4777	6059
726.908	6044
729.3377	6077
731.7667	6116
734.1931	6156
736.6208	6205
739.0498	6168
741.4742	6144
743.9	6233
746.3231	6149
748.7476	6226
751.1713	6251
753.5945	6341
756.015	6214
758.4368	6277
760.856	6303
763.2766	6328
765.6965	6247
768.1157	6327
770.5323	6279
772.9483	6299
775.3656	6249
777.7822	6211
780.1963	6333
782.6116	6311
785.0244	6327
787.4365	6283
789.8499	6330
792.2626	6256
794.6728	6341
797.0823	6268
799.4911	6383
801.8994	6248
804.3109	6417
806.7178	6338
809.124	6341
811.5297	6381
813.9347	6363
816.341	6384
818.7447	6343
821.1478	6365
823.5502	6435
825.952	6371
828.3531	6329
830.7556	6268
833.1554	6423
835.5546	6399
837.9532	6365
840.3511	6378
842.7504	6378
845.1451	6533
847.5411	6377
849.9365	6398
852.3312	6548
854.7272	6417
857.1187	6486
859.5115	6548
861.9037	6540
864.2952	6491
866.6842	6471
869.0764	6412
871.4661	6315
873.8531	6409
876.2415	6488
878.6272	6419
881.0162	6448
883.4026	6509
885.7866	6554
888.1717	6428
890.5543	6462
892.9382	6344
895.3215	6671
897.7041	6545
900.0842	6474
902.4655	6572
904.8443	6467
907.2244	6613
909.6039	6535
911.9808	6537
914.357	6690
916.7346	6536
919.1115	6635
921.4859	6502
923.8616	6664
926.2347	6611
928.6071	6803
930.979	6742
933.3541	6768
935.7247	6743
938.0946	6724
940.4639	6848
942.8326	6811
945.2026	6848
947.5701	6993
949.9369	7076
952.305	7069
954.6705	7290
957.0355	7422
959.4017	7686
961.7654	7680
964.1284	7706
966.4908	7494
968.8527	7356
971.2138	7112
973.5743	7031
975.9343	6768
978.2936	6735
980.6522	6731
983.0122	6787
985.3696	6778
987.7245	6759
990.0807	6724
992.4362	6716
994.7911	6707
997.1474	6761
999.4991	6790
1001.852	6700
1004.205	6719
1006.555	6752
1008.908	6854
1011.258	6726
1013.606	6637
1015.956	6819
1018.302	6780
1020.652	6814
1022.998	6670
1025.345	6758
1027.691	6737
1030.035	6715
1032.378	6767
1034.724	6780
1037.066	6749
1039.409	6834
1041.75	6829
1044.092	6781
1046.433	6828
1048.771	6902
1051.112	6927
1053.449	6831
1055.786	6858
1058.124	6930
1060.462	6768
1062.797	6847
1065.131	7003
1067.467	6982
1069.8	6760
1072.135	6837
1074.467	6923
1076.798	6852
1079.129	6950
1081.459	6949
1083.792	6833
1086.121	6797
1088.449	6878
1090.777	6914
1093.104	6778
1095.431	6981
1097.759	6882
1100.084	6810
1102.408	6831
1104.732	6940
1107.056	6902
1109.379	6882
1111.701	6891
1114.022	7008
1116.343	6912
1118.664	6811
1120.983	6925
1123.303	6958
1125.621	6973
1127.939	7123
1130.256	6988
1132.573	6892
1134.889	6868
1137.205	6955
1139.52	6979
1141.832	6905
1144.146	6900
1146.461	6957
1148.771	6854
1151.083	6944
1153.392	6961
1155.703	6993
1158.011	6989
1160.323	6919
1162.629	6993
1164.938	6935
1167.243	6975
1169.55	6836
1171.857	6972
1174.163	6926
1176.466	6877
1178.769	6778
1181.073	6903
1183.374	6928
1185.677	7017
1187.979	7017
1190.279	6869
1192.578	7029
1194.878	6880
1197.178	6889
1199.476	6938
1201.772	6976
1204.068	6935
1206.366	6935
1208.663	6938
1210.957	6830
1213.251	6881
1215.544	6975
1217.836	6889
1220.128	7010
1222.421	6986
1224.712	7068
1227.002	7095
1229.292	7081
1231.581	7055
1233.871	7005
1236.159	7031
1238.446	7088
1240.732	7041
1243.018	7039
1245.304	7096
1247.59	7148
1249.874	7103
1252.156	7028
1254.439	7074
1256.721	7143
1259.005	7091
1261.286	7178
1263.565	7136
1265.845	7123
1268.125	7078
1270.403	7159
1272.682	7002
1274.959	7091
1277.234	7096
1279.511	7060
1281.787	7081
1284.062	7162
1286.337	7033
1288.609	7127
1290.882	7151
1293.153	7110
1295.428	7086
1297.698	7141
1299.969	6986
1302.237	7003
1304.507	6977
1306.777	7010
1309.044	6992
1311.312	6997
1313.578	7088
1315.844	7014
1318.109	6812
1320.375	7097
1322.638	7089
1324.903	7097
1327.165	6967
1329.427	7059
1331.69	7105
1333.952	7131
1336.212	7039
1338.471	7062
1340.73	7049
1342.988	6980
1345.248	7049
1347.505	7074
1349.763	6944
1352.019	7186
1354.274	7121
1356.53	7098
1358.784	6949
1361.038	7119
1363.291	6969
1365.543	7014
1367.797	7164
1370.048	6982
1372.296	7040
1374.546	7160
1376.796	7108
1379.045	7174
1381.295	7003
1383.542	7038
1385.787	7040
1388.034	7069
1390.28	7124
1392.527	7153
1394.772	7161
1397.014	7187
1399.258	7096
1401.501	7063
1403.741	7208
1405.985	7018
1408.226	7229
1410.465	7196
1412.705	7087
1414.943	7139
1417.184	7101
1419.42	7252
1421.658	7058
1423.894	7342
1426.13	7284
1428.366	7280
1430.602	7226
1432.835	7198
1435.069	7316
1437.301	7254
1439.535	7161
1441.767	7297
1443.997	7282
1446.229	7297
1448.458	7251
1450.687	7232
1452.916	7286
1455.146	7377
1457.372	7371
1459.599	7425
1461.824	7192
1464.051	7414
1466.277	7182
1468.501	7245
1470.725	7407
1472.948	7301
1475.17	7252
1477.393	7184
1479.614	7193
1481.837	7213
1484.057	7281
1486.276	7074
1488.497	7030
1490.715	7160
1492.932	7143
1495.148	7238
1497.364	7157
1499.58	7056
1501.798	7132
1504.012	7133
1506.227	6990
1508.44	7143
1510.653	7191
1512.866	7101
1515.078	7023
1517.289	7170
1519.5	7018
1521.711	6990
1523.92	7070
1526.13	7149
1528.338	6942
1530.544	7090
1532.752	7126
1534.959	7084
1537.165	7064
1539.371	7206
1541.574	7116
1543.779	7086
1545.983	7254
1548.187	7158
1550.39	7082
1552.59	7131
1554.792	7206
1556.991	7208
1559.19	7153
1561.392	7234
1563.59	7329
1565.789	7304
1567.986	7221
1570.182	7189
1572.381	7255
1574.576	7325
1576.771	7280
1578.966	7330
1581.16	7225
1583.354	7233
1585.546	7307
1587.74	7232
1589.931	7271
1592.121	7195
1594.311	7307
1596.502	7283
1598.693	7417
1600.881	7265
1603.069	7320
1605.256	7170
1607.445	7317
1609.631	7307
1611.816	7378
1614.001	7239
1616.186	7144
1618.37	7491
1620.555	7338
1622.737	7490
1624.919	7287
1627.101	7358
1629.282	7386
1631.463	7342
1633.643	7286
1635.822	7363
1638.001	7361
1640.179	7212
1642.359	7369
1644.534	7301
1646.711	7374
1648.887	7359
1651.062	7452
1653.235	7446
1655.412	7410
1657.586	7294
1659.757	7361
1661.93	7322
1664.1	7407
1666.274	7404
1668.445	7310
1670.614	7387
1672.784	7342
1674.951	7456
1677.12	7323
1679.289	7530
1681.457	7325
1683.622	7440
1685.789	7449
1687.953	7404
1690.121	7449
1692.284	7418
1694.447	7424
1696.611	7295
1698.772	7278
1700.935	7199
1703.098	7247
1705.258	7363
1707.417	7293
1709.576	7359
1711.736	7217
1713.896	7299
1716.053	7288
1718.21	7241
1720.366	7263
1722.522	7345
1724.68	7251
1726.835	7418
1728.989	7270
1731.142	7350
1733.295	7191
1735.449	7264
1737.601	7347
1739.753	7295
1741.903	7177
1744.054	7337
1746.203	7376
1748.354	7213
1750.503	7293
1752.651	7389
1754.798	7203
1756.944	7351
1759.092	7309
1761.238	7376
1763.383	7323
1765.528	7185
1767.672	7311
1769.814	7434
1771.959	7407
1774.102	7365
1776.242	7304
1778.384	7303
1780.525	7409
1782.665	7403
1784.805	7302
1786.945	7442
1789.082	7330
1791.22	7401
1793.36	7397
1795.495	7390
1797.632	7319
1799.766	7392
1801.902	7470
1804.035	7280
1806.172	7268
1808.304	7421
1810.436	7423
1812.569	7240
1814.699	7402
1816.833	7275
1818.963	7373
1821.092	7365
1823.222	7285
1825.35	7293
1827.478	7331
1829.608	7328
1831.734	7412
1833.86	7334
1835.986	7387
1838.11	7339
1840.238	7303
1842.362	7274
1844.485	7300
1846.608	7148
1848.73	7329
1850.853	7272
1852.974	7279
1855.097	7286
1857.217	7316
1859.336	7351
1861.455	7389
1863.576	7251
1865.693	7342
1867.811	7292
1869.926	7272
1872.042	7290
1874.16	7259
1876.275	7266
1878.39	7219
1880.504	7282
1882.618	7275
1884.731	7292
1886.843	7261
1888.956	7330
1891.067	7267
1893.178	7322
1895.287	7182
1897.399	7425
1899.508	7243
1901.617	7389
1903.724	7377
1905.832	7375
1907.941	7446
1910.046	7350
1912.152	7427
1914.256	7267
1916.361	7432
1918.464	7338
1920.57	7390
1922.672	7345
1924.775	7384
1926.876	7352
1928.978	7298
1931.08	7352
1933.181	7369
1935.28	7416
1937.38	7319
1939.478	7534
1941.577	7496
1943.675	7434
1945.771	7336
1947.867	7275
1949.964	7362
1952.058	7523
1954.154	7250
1956.248	7392
1958.343	7364
1960.435	7456
1962.527	7436
1964.62	7464
1966.711	7415
1968.802	7340
1970.892	7336
1972.983	7398
1975.072	7554
1977.162	7251
1979.25	7351
1981.337	7295
1983.424	7339
1985.51	7253
1987.598	7347
1989.683	7363
1991.768	7284
1993.852	7268
1995.934	7348
1998.019	7189
2000.102	7308
2002.184	7394
2004.266	7434
2006.347	7215
2008.427	7260
2010.508	7367
2012.587	7256
2014.666	7284
2016.745	7366
2018.821	7191
2020.9	7346
2022.977	7253
2025.052	7323
2027.128	7213
2029.204	7348
2031.277	7238
2033.353	7431
2035.425	7439
2037.499	7298
2039.57	7296
2041.642	7332
2043.714	7379
2045.786	7296
2047.855	7299
2049.925	7337
2051.993	7192
2054.064	7421
2056.132	7370
2058.2	7407
2060.266	7384
2062.332	7261
2064.398	7366
2066.465	7202
2068.529	7281
2070.592	7313
2072.657	7354
2074.719	7440
2076.783	7306
2078.845	7265
2080.907	7365
2082.968	7182
2085.028	7283
2087.087	7268
2089.148	7283
2091.207	7357
2093.264	7291
2095.322	7386
2097.379	7321
2099.439	7408
2101.495	7436
2103.55	7279
2105.605	7301
2107.658	7244
2109.713	7316
2111.767	7290
2113.82	7221
2115.872	7278
2117.924	7326
2119.975	7368
2122.028	7432
2124.078	7349
2126.126	7271
2128.176	7140
2130.225	7333
2132.275	7254
2134.321	7393
2136.368	7299
2138.415	7301
2140.461	7232
2142.505	7158
2144.552	7303
2146.597	7227
2148.64	7228
2150.684	7309
2152.725	7282
2154.77	7266
2156.811	7348
2158.852	7340
2160.894	7240
2162.933	7146
2164.973	7306
2167.013	7425
2169.051	7219
2171.089	7226
2173.126	7155
2175.164	7265
2177.201	7124
2179.236	7168
2181.273	7312
2183.307	7216
2185.341	7148
2187.377	7157
2189.41	7252
2191.442	7112
2193.473	7241
2195.506	7102
2197.539	7143
2199.569	7168
2201.598	7154
2203.628	7198
2205.656	7088
2207.686	7101
2209.716	7157
2211.743	7037
2213.769	7089
2215.796	7051
2217.821	7033
2219.848	7092
2221.873	7159
2223.897	7195
2225.921	7034
2227.944	7065
2229.967	7077
2231.991	7147
2234.011	7189
2236.032	7193
2238.053	7091
2240.073	7162
2242.094	7114
2244.114	7162
2246.131	7136
2248.149	7005
2250.167	7197
2252.186	7022
2254.201	7099
2256.218	7085
2258.233	7073
2260.247	6916
2262.262	7182
2264.278	7106
2266.29	7058
2268.303	6996
2270.315	7087
2272.327	7130
2274.341	7141
2276.35	7173
2278.361	7054
2280.37	7054
2282.38	7179
2284.388	7067
2286.397	7055
2288.405	7235
2290.412	7010
2292.419	7201
2294.425	7060
2296.431	7130
2298.437	6981
2300.441	7147
2302.445	7226
2304.449	6996
2306.453	7095
2308.455	7043
2310.457	7021
2312.459	7072
2314.46	7051
2316.46	7027
2318.461	7093
2320.46	7003
2322.458	7037
2324.458	7069
2326.456	7042
2328.455	6859
2330.451	7065
2332.447	6993
2334.443	7101
2336.438	7002
2338.433	7117
2340.429	6933
2342.422	6927
2344.416	7034
2346.408	6949
2348.399	6851
2350.393	6809
2352.384	7030
2354.375	7078
2356.365	6933
2358.355	6976
2360.344	6951
2362.333	6942
2364.322	6907
2366.309	6900
2368.295	7063
2370.282	6971
2372.27	6799
2374.256	6931
2376.24	7019
2378.225	6894
2380.208	6857
2382.194	6967
2384.177	6994
2386.159	6900
2388.142	6880
2390.122	6885
2392.105	6867
2394.085	6815
2396.066	6813
2398.044	6918
2400.024	6951
2402.002	6903
2403.982	6875
2405.959	6923
2407.935	6819
2409.913	7001
2411.888	6758
2413.865	6932
2415.84	6829
2417.814	6880
2419.788	6885
2421.762	6865
2423.735	6866
2425.708	6947
2427.68	6836
2429.651	6975
2431.623	6887
2433.593	6903
2435.564	6969
2437.533	7014
2439.502	6866
2441.47	6906
2443.438	6961
2445.406	6879
2447.373	6799
2449.34	6852
2451.305	7065
2453.271	6838
2455.235	6723
2457.201	6760
2459.165	6726
2461.129	6916
2463.092	6841
2465.054	6860
2467.018	6889
2468.978	6826
2470.939	6718
2472.899	6753
2474.86	6825
2476.819	6892
2478.778	6840
2480.737	6747
2482.695	6771
2484.653	6732
2486.609	6824
2488.567	6735
2490.524	6783
2492.478	6734
2494.433	6676
2496.387	6807
2498.343	6774
2500.297	6690
2502.249	6773
2504.202	6724
2506.153	6788
2508.105	6659
2510.057	6627
2512.008	6707
2513.957	6699
2515.906	6601
2517.855	6752
2519.805	6747
2521.754	6725
2523.7	6687
2525.647	6710
2527.594	6629
2529.54	6687
2531.486	6756
2533.431	6678
2535.376	6705
2537.32	6731
2539.263	6685
2541.207	6806
2543.151	6631
2545.093	6701
2547.034	6764
2548.975	6670
2550.917	6643
2552.856	6817
2554.796	6797
2556.735	6699
2558.673	6767
2560.611	6620
2562.55	6775
2564.487	6688
2566.424	6632
2568.36	6662
2570.296	6711
2572.232	6509
2574.167	6680
2576.101	6680
2578.035	6638
2579.969	6658
2581.902	6609
2583.834	6787
2585.766	6671
2587.698	6661
2589.628	6718
2591.557	6717
2593.489	6772
2595.419	6637
2597.348	6564
2599.275	6596
2601.204	6641
2603.131	6638
2605.059	6689
2606.986	6711
2608.911	6691
2610.837	6552
2612.76	6701
2614.687	6631
2616.61	6611
2618.534	6723
2620.457	6720
2622.38	6596
2624.302	6737
2626.225	6685
2628.145	6630
2630.067	6733
2631.986	6659
2633.906	6597
2635.827	6585
2637.745	6517
2639.662	6690
2641.581	6749
2643.498	6644
2645.415	6685
2647.331	6729
2649.248	6636
2651.163	6726
2653.077	6598
2654.993	6582
2656.906	6722
2658.821	6682
2660.733	6690
2662.646	6734
2664.557	6643
2666.47	6650
2668.381	6620
2670.291	6530
2672.201	6641
2674.11	6598
2676.021	6679
2677.929	6717
2679.837	6569
2681.745	6663
2683.652	6643
2685.56	6531
2687.466	6464
2689.371	6575
2691.276	6788
2693.181	6513
2695.085	6605
2696.991	6588
2698.893	6695
2700.796	6526
2702.698	6507
2704.601	6529
2706.502	6626
2708.404	6480
2710.304	6568
2712.203	6515
2714.103	6623
2716.003	6411
2717.902	6466
2719.8	6513
2721.697	6525
2723.594	6419
2725.49	6467
2727.389	6528
2729.283	6511
2731.179	6474
2733.073	6422
2734.968	6461
2736.863	6429
2738.757	6435
2740.649	6561
2742.541	6418
2744.433	6458
2746.324	6405
2748.216	6479
2750.107	6408
2751.997	6493
2753.886	6369
2755.776	6418
2757.666	6438
2759.553	6400
2761.44	6557
2763.327	6407
2765.215	6332
2767.102	6462
2768.988	6488
2770.873	6421
2772.757	6393
2774.641	6332
2776.525	6384
2778.41	6391
2780.292	6460
2782.175	6420
2784.057	6532
2785.938	6352
2787.821	6339
2789.701	6451
2791.581	6257
2793.461	6372
2795.34	6352
2797.219	6346
2799.099	6351
2800.975	6377
2802.853	6392
2804.73	6355
2806.606	6343
2808.484	6396
2810.358	6395
2812.233	6461
2814.108	6450
2815.981	6316
2817.857	6267
2819.73	6358
2821.602	6308
2823.474	6349
2825.346	6314
2827.217	6379
2829.089	6309
2830.959	6243
2832.829	6130
2834.698	6371
2836.567	6322
2838.436	6266
2840.305	6381
2842.172	6364
2844.04	6299
2845.905	6399
2847.772	6381
2849.639	6404
2851.503	6359
2853.369	6340
2855.232	6339
2857.096	6314
2858.961	6251
2860.824	6214
2862.686	6218
2864.547	6404
2866.41	6324
2868.272	6331
2870.132	6289
2871.992	6411
2873.851	6396
2875.711	6330
2877.57	6490
2879.429	6417
2881.287	6490
2883.144	6420
2885.001	6491
2886.857	6562
2888.714	6498
2890.57	6633
2892.425	6515
2894.279	6474
2896.133	6627
2897.987	6441
2899.842	6482
2901.694	6463
2903.547	6538
2905.397	6418
2907.249	6441
2909.101	6463
2910.952	6515
2912.802	6588
2914.652	6489
2916.5	6512
2918.35	6622
2920.198	6511
2922.045	6481
2923.893	6515
2925.74	6760
2927.585	6583
2929.433	6709
2931.279	6629
2933.123	6634
2934.968	6723
2936.811	6722
2938.656	6721
2940.5	6687
2942.342	6844
2944.185	6766
2946.026	6772
2947.87	6851
2949.71	6831
2951.549	6809
2953.39	6745
2955.229	6788
2957.069	6738
2958.908	6608
2960.746	6663
2962.584	6540
2964.421	6539
2966.257	6633
2968.094	6486
2969.931	6547
2971.766	6361
2973.601	6401
2975.435	6438
2977.27	6463
2979.105	6382
2980.938	6466
2982.77	6343
2984.602	6419
2986.434	6390
2988.267	6371
2990.097	6364
2991.927	6269
2993.757	6278
2995.587	6204
2997.417	6274
2999.246	6269
3001.074	6147
3002.902	6280
3004.729	6144
3006.556	6027
3008.384	6105
3010.21	6158
3012.036	6036
3013.861	5958
3015.684	6037
3017.51	6074
3019.334	5898
3021.157	5957
3022.981	5949
3024.802	5917
3026.624	6007
3028.448	5975
3030.267	5777
3032.088	5898
3033.909	5916
3035.728	5954
3037.549	5700
3039.368	5989
3041.186	5942
3043.004	5736
3044.821	5942
3046.64	5981
3048.455	5797
3050.272	5866
3052.087	5809
3053.903	5811
3055.717	5854
3057.534	5771
3059.347	5762
3061.16	5956
3062.974	5888
3064.785	5776
3066.598	5769
3068.411	5797
3070.222	5834
3072.032	5788
3073.844	5815
3075.653	5817
3077.463	5701
3079.272	5786
3081.08	5819
3082.889	5756
3084.697	5633
3086.505	5722
3088.312	5763
3090.118	5775
3091.924	5667
3093.729	5742
3095.535	5685
3097.34	5705
3099.144	5731
3100.947	5653
3102.75	5551
3104.553	5598
3106.357	5615
3108.159	5667
3109.961	5702
3111.762	5627
3113.562	5661
3115.365	5646
3117.164	5612
3118.964	5607
3120.761	5654
3122.56	5725
3124.36	5624
3126.158	5580
3127.954	5519
3129.75	5558
3131.547	5570
3133.343	5582
3135.139	5565
3136.934	5545
3138.729	5505
3140.522	5589
3142.317	5620
3144.11	5609
3145.904	5507
3147.695	5490
3149.488	5556
3151.28	5511
3153.07	5562
3154.863	5487
3156.652	5564
3158.441	5359
3160.231	5513
3162.019	5324
3163.81	5530
3165.597	5353
3167.384	5474
3169.172	5498
3170.958	5487
3172.745	5411
3174.532	5390
3176.317	5454
3178.101	5419
3179.885	5441
3181.67	5382
3183.455	5480
3185.238	5494
3187.02	5382
3188.802	5334
3190.585	5459
3192.368	5475
3194.149	5367
3195.929	5494
3197.709	5327
3199.489	5432
3201.268	5508
3203.048	5419
3204.826	5366
3206.604	5361
3208.382	5457
3210.159	5417
3211.937	5345
3213.713	5387
3215.489	5483
3217.263	5335
3219.038	5338
3220.815	5331
3222.589	5317
3224.363	5393
3226.136	5294
3227.908	5385
3229.681	5391
3231.454	5415
3233.226	5324
3234.996	5256
3236.767	5297
3238.538	5380
3240.308	5320
3242.078	5405
3243.847	5376
3245.615	5444
3247.384	5291
3249.15	5350
3250.92	5348
3252.686	5250
3254.453	5325
3256.218	5370
3257.984	5295
3259.75	5350
3261.515	5261
3263.279	5327
3265.044	5345
3266.806	5323
3268.57	5245
3270.334	5386
3272.095	5366
3273.856	5314
3275.619	5319
3277.379	5296
3279.14	5347
3280.9	5242
3282.661	5209
3284.419	5271
3286.178	5285
3287.937	5280
3289.695	5218
3291.453	5413
3293.21	5189
3294.967	5347
3296.723	5256
3298.48	5345
3300.235	5290
3301.99	5190
3303.744	5314
3305.498	5270
3307.253	5253
3309.006	5286
3310.759	5335
3312.511	5285
3314.263	5240
3316.017	5247
3317.768	5196
3319.519	5262
3321.268	5275
3323.018	5268
3324.767	5320
3326.518	5145
3328.267	5164
3330.014	5251
3331.762	5206
3333.509	5225
3335.258	5125
3337.003	5172
3338.75	5190
3340.496	5208
3342.24	5226
3343.987	5193
3345.732	5211
3347.475	5148
3349.219	5229
3350.961	5229
3352.705	5127
3354.448	5242
3356.19	5113
3357.931	5165
3359.672	5027
3361.412	5193
3363.155	5095
3364.894	5058
3366.633	5177
3368.372	5136
3370.11	5185
3371.849	5117
3373.588	5227
3375.325	4952
3377.061	5104
3378.799	5122
3380.534	5061
3382.271	5184
3384.006	5162
3385.741	5059
3387.475	5094
3389.209	5017
3390.944	5174
3392.677	5019
3394.409	5031
3396.143	5121
3397.874	5114
3399.606	5006
3401.338	5034
3403.069	5119
3404.799	5040
3406.528	5061
3408.258	4973
3409.988	5064
3411.717	5049
3413.445	5076
3415.173	5122
3416.899	5098
3418.626	5008
3420.354	5018
3422.08	5085
3423.806	5112
3425.531	4975
3427.255	4973
3428.981	4928
3430.705	4923
3432.429	5024
3434.151	4972
3435.875	5038
3437.599	4957
3439.321	4918
3441.042	5044
3442.763	4939
3444.483	4978
3446.204	4902
3447.926	4984
3449.645	4901
3451.364	4907
3453.082	4894
3454.801	4962
3456.52	4841
3458.238	4870
3459.954	4873
3461.671	4826
3463.387	4876
3465.104	4881
3466.82	4745
3468.534	4796
3470.25	4875
3471.963	4809
3473.676	4893
3475.392	4901
3477.104	4817
3478.817	4774
3480.528	4709
3482.241	4874
3483.954	4840
3485.664	4872
3487.374	4957
3489.084	4768
3490.795	4797
3492.504	4844
3494.214	4704
3495.922	4865
3497.63	4758
3499.338	4758
3501.045	4784
3502.753	4817
3504.459	4809
3506.166	4734
3507.871	4867
3509.576	4666
3511.283	4771
3512.987	4699
3514.691	4814
3516.395	4678
3518.098	4790
3519.8	4763
3521.504	4756
3523.206	4698
3524.908	4702
3526.609	4679
3528.309	4707
3530.011	4740
3531.711	4720
3533.411	4600
3535.109	4648
3536.808	4664
3538.507	4645
3540.206	4682
3541.904	4714
3543.601	4730
3545.297	4747
3546.994	4646
3548.69	4684
3550.387	4626
3552.081	4578
3553.776	4580
3555.47	4659
3557.166	4543
3558.859	4593
3560.553	4640
3562.245	4684
3563.938	4592
3565.629	4592
3567.322	4495
3569.014	4559
3570.704	4593
3572.394	4588
3574.084	4612
3575.775	4578
3577.464	4546
3579.152	4543
3580.842	4566
3582.529	4553
3584.216	4533
3585.905	4474
3587.591	4526
3589.279	4556
3590.964	4556
3592.649	4530
3594.336	4471
3596.021	4532
3597.705	4426
3599.388	4508
3601.072	4551
3602.757	4465
3604.439	4493
3606.122	4589
3607.803	4435
3609.485	4423
3611.167	4426
3612.849	4512
3614.529	4561
3616.208	4471
3617.888	4399
3619.567	4399
3621.247	4438
3622.926	4384
3624.603	4382
3626.281	4364
3627.958	4441
3629.635	4373
3631.312	4365
3632.989	4410
3634.665	4460
3636.339	4327
3638.014	4390
3639.691	4412
3641.364	4376
3643.038	4313
3644.71	4383
3646.384	4371
3648.058	4368
3649.729	4333
3651.402	4400
3653.073	4397
3654.744	4331
3656.414	4373
3658.085	4297
3659.755	4377
3661.424	4331
3663.094	4327
3664.762	4237
3666.431	4292
3668.099	4310
3669.766	4322
3671.433	4249
3673.099	4300
3674.768	4248
3676.433	4285
3678.098	4199
3679.763	4291
3681.428	4214
3683.093	4267
3684.757	4237
3686.421	4204
3688.083	4252
3689.746	4292
3691.408	4201
3693.071	4242
3694.733	4302
3696.394	4276
3698.054	4257
3699.715	4141
3701.375	4371
3703.036	4232
3704.695	4276
3706.354	4180
3708.012	4169
3709.67	4233
3711.329	4144
3712.987	4198
3714.644	4180
3716.299	4169
3717.955	4170
3719.613	4218
3721.268	4217
3722.923	4260
3724.577	4183
3726.231	4188
3727.885	4182
3729.539	4103
3731.192	4099
3732.845	4207
3734.497	4044
3736.149	4175
3737.802	4085
3739.453	4047
3741.104	4179
3742.753	4156
3744.404	4087
3746.052	4079
3747.704	4137
3749.352	4093
3751	4187
3752.648	4155
3754.296	4148
3755.944	4131
3757.59	4101
3759.238	4127
3760.883	4107
3762.528	4101
3764.176	4079
3765.82	4063
3767.464	4069
3769.109	4047
3770.753	4057
3772.396	4029
3774.04	4110
3775.683	4090
3777.325	3995
3778.967	4067
3780.608	4089
3782.25	4065
3783.89	4002
3785.531	4016
3787.17	4010
3788.81	4025
3790.45	4073
3792.09	3933
3793.729	4016
3795.366	4052
3797.003	4077
3798.64	3930
3800.278	3996
3801.915	3980
3803.551	4094
3805.187	3967
3806.822	3986
3808.458	3975
3810.093	3982
3811.726	3953
3813.36	3939
3814.994	3959
3816.627	3961
3818.262	4022
3819.893	3940
3821.525	3873
3823.157	3969
3824.787	3960
3826.42	3999
3828.051	3899
3829.68	3967
3831.31	3923
3832.938	3958
3834.569	3876
3836.198	3843
3837.825	3894
3839.454	3918
3841.08	3840
3842.708	3890
3844.335	3946
3845.962	3739
3847.587	3926
3849.212	3923
3850.838	3914
3852.463	3796
3854.089	3882
3855.712	3913
3857.335	3760
3858.959	3842
3860.582	3898
3862.205	3858
3863.827	3818
3865.449	3899
3867.07	3882
3868.691	3824
3870.312	3822
3871.933	3871
3873.553	3890
3875.173	3786
3876.792	3885
3878.411	3824
3880.03	3816
3881.647	3835
3883.265	3797
3884.882	3793
3886.499	3891
3888.116	3742
3889.732	3816
3891.348	3820
3892.964	3684
3894.579	3816
3896.195	3728
3897.809	3809
3899.423	3839
3901.036	3709
3902.648	3734
3904.261	3785
3905.875	3780
3907.487	3742
3909.099	3690
3910.709	3817
3912.321	3724
3913.933	3747
3915.542	3742
3917.152	3747
3918.762	3791
3920.37	3752
3921.98	3771
3923.589	3667
3925.196	3701
3926.804	3737
3928.41	3762
3930.018	3700
3931.626	3706
3933.231	3746
3934.838	3674
3936.442	3751
3938.046	3718
3939.653	3772
3941.257	3731
3942.861	3707
3944.464	3669
3946.068	3787
3947.67	3702
3949.273	3601
3950.876	3641
3952.477	3701
3954.078	3774
3955.678	3708
3957.281	3718
3958.881	3648
3960.48	3637
3962.079	3743
3963.678	3596
3965.279	3718
3966.877	3714
3968.475	3561
3970.072	3671
3971.669	3653
3973.266	3599
3974.864	3631
3976.459	3612
3978.055	3632
3979.65	3659
3981.245	3563
3982.841	3600
3984.436	3680
3986.03	3609
3987.623	3628
3989.216	3597
3990.809	3602
3992.403	3556
3993.995	3572
3995.586	3587
3997.177	3523
3998.768	3530
4000.361	3548
4001.951	3588
4003.54	3528
4005.13	3551
4006.719	3591
4008.31	3508
4009.897	3602
4011.485	3508
4013.073	3558
4014.66	3550
4016.247	3456
4017.834	3516
4019.421	3528
4021.006	3576
4022.592	3429
4024.178	3473
4025.763	3488
4027.348	3445
4028.932	3487
4030.515	3422
4032.099	3466
4033.682	3464
4035.266	3427
4036.847	3494
4038.429	3524
4040.011	3438
4041.592	3466
4043.173	3380
4044.755	3417
4046.334	3494
4047.913	3427
4049.494	3431
4051.074	3428
4052.652	3362
4054.23	3427
4055.807	3448
4057.385	3399
4058.963	3369
4060.541	3454
4062.117	3380
4063.693	3424
4065.269	3330
4066.844	3413
4068.42	3398
4069.995	3441
4071.569	3352
4073.143	3398
4074.716	3356
4076.291	3324
4077.864	3329
4079.436	3392
4081.009	3418
4082.58	3324
4084.152	3357
4085.723	3326
4087.294	3352
4088.865	3394
4090.435	3276
4092.005	3376
4093.574	3358
4095.143	3367
4096.712	3288
4098.279	3303
4099.848	3314
4101.416	3402
4102.984	3316
4104.55	3338
4106.117	3357
4107.682	3320
4109.248	3350
4110.815	3380
4112.379	3274
4113.945	3307
4115.508	3345
4117.073	3357
4118.637	3248
4120.201	3302
4121.763	3293
4123.325	3217
4124.888	3208
4126.449	3296
4128.013	3159
4129.573	3323
4131.133	3166
4132.694	3231
4134.254	3280
4135.814	3280
4137.374	3182
4138.933	3337
4140.491	3155
4142.049	3242
4143.607	3215
4145.167	3243
4146.724	3188
4148.28	3233
4149.836	3152
4151.392	3149
4152.949	3240
4154.504	3352
4156.059	3191
4157.614	3127
4159.168	3159
4160.723	3217
4162.277	3191
4163.83	3179
4165.383	3071
4166.936	3160
4168.488	3163
4170.041	3169
4171.593	3110
4173.144	3155
4174.695	3170
4176.246	3144
4177.796	3098
4179.346	3093
4180.896	3096
4182.445	3092
4183.994	3107
4185.542	3144
4187.091	3115
4188.639	3124
4190.185	3077
4191.732	3005
4193.279	3050
4194.826	3134
4196.373	3119
4197.918	3209
4199.463	3084
4201.008	3087
4202.553	3065
4204.098	3096
4205.641	3066
4207.185	3033
4208.728	3078
4210.271	3009
4211.814	3092
4213.357	3097
4214.898	2990
4216.439	3017
4217.98	3070
4219.522	3033
4221.062	3050
4222.603	3095
4224.142	3055
4225.681	2983
4227.222	3009
4228.76	3007
4230.298	3042
4231.835	2924
4233.373	3030
4234.911	2984
4236.449	3031
4237.985	3002
4239.521	3002
4241.057	3065
4242.592	3052
4244.128	2973
4245.663	3031
4247.197	2998
4248.731	3046
4250.265	3012
4251.798	2982
4253.333	3022
4254.865	2993
4256.397	2983
4257.93	2938
4259.461	3011
4260.994	2990
4262.525	2998
4264.056	2975
4265.586	2928
4267.115	2960
4268.646	2960
4270.176	2912
4271.705	2956
4273.232	2996
4274.761	2976
4276.289	3003
4277.818	2913
4279.345	2966
4280.872	2938
4282.399	2965
4283.924	2947
4285.452	3013
4286.976	2900
4288.502	2943
4290.026	2883
4291.551	2914
4293.074	2929
4294.6	2960
4296.123	2921
4297.646	2889
4299.168	2859
4300.691	2916
4302.214	2879
4303.736	2849
4305.257	2951
4306.778	2860
4308.299	2887
4309.82	2859
4311.34	2875
4312.86	2895
4314.379	2890
