400.0745	3688
402.597	3687
405.1208	3635
407.6419	3605
410.1623	3668
412.6819	3746
415.201	3768
417.7172	3700
420.2369	3824
422.7538	3817
425.2701	3845
427.7856	3819
430.3005	3863
432.8147	4042
435.3282	3876
437.841	3840
440.3511	3840
442.8625	3836
445.3753	3937
447.8854	3895
450.3927	3960
452.9014	3916
455.4073	3963
457.9146	3838
460.4233	3961
462.9272	3941
465.4325	4053
467.935	3952
470.4389	3897
472.9421	3884
475.4446	3848
477.9444	4013
480.4456	4067
482.944	3906
485.4417	4017
487.9429	4026
490.4393	4010
492.935	3985
495.4321	4076
497.9264	4039
500.4221	4073
502.9171	4037
505.4094	4107
507.9011	4147
510.392	4063
512.8864	4087
515.3759	4023
517.8649	4035
520.3531	4049
522.8406	4135
525.3275	4046
527.8178	4090
530.3033	4185
532.7881	4080
535.2723	4213
537.7558	4150
540.2407	4238
542.7228	4116
545.2043	4138
547.6851	4114
550.1652	4104
552.6467	4115
555.1255	4117
557.6016	4066
560.079	4241
562.5557	4143
565.0318	4164
567.5092	4199
569.984	4233
572.456	4155
574.9294	4272
577.4022	4255
579.8762	4221
582.3456	4321
584.8163	4304
587.2863	4274
589.7557	4245
592.2224	4236
594.6924	4318
597.1578	4320
599.6245	4253
602.0905	4207
604.5538	4201
607.0206	4272
609.4825	4306
611.9459	4232
614.4066	4290
616.8686	4392
619.33	4228
621.7906	4257
624.2487	4348
626.708	4346
629.1647	4306
631.6207	4302
634.0801	4167
636.5348	4247
638.9888	4244
641.4442	4269
643.8969	4349
646.3509	4244
648.8022	4230
651.255	4253
653.705	4323
656.1544	4342
658.6031	4319
661.0532	4323
663.5026	4275
665.9493	4378
668.3954	4309
670.8409	4404
673.2877	4325
675.7318	4384
678.1752	4385
680.618	4357
683.0601	4394
685.5035	4431
687.9444	4327
690.3845	4468
692.824	4375
695.2628	4489
697.701	4413
700.1406	4469
702.5774	4422
705.0116	4483
707.4472	4486
709.8821	4391
712.3183	4619
714.7519	4573
717.1829	4471
719.6151	4521
722.0468	4527
724.4777	4544
726.908	4532
729.3377	4503
731.7667	4548
734.1931	4603
736.6208	4569
739.0498	4681
741.4742	4642
743.9	4625
746.3231	4624
748.7476	4767
751.1713	4827
753.5945	4603
756.015	4761
758.4368	4696
760.856	4697
763.2766	4783
765.6965	4779
768.1157	4661
770.5323	4635
772.9483	4647
775.3656	4773
777.7822	4668
780.1963	4789
782.6116	4803
785.0244	4799
787.4365	4719
789.8499	4731
792.2626	4692
794.6728	4799
797.0823	4789
799.4911	4757
801.8994	4701
804.3109	4824
806.7178	4777
809.124	4873
811.5297	4742
813.9347	4704
816.341	4844
818.7447	4794
821.1478	4892
823.5502	4838
825.952	4850
828.3531	4857
830.7556	4750
833.1554	4843
835.5546	4817
837.9532	4795
840.3511	4867
842.7504	4906
845.1451	4866
847.5411	4848
849.9365	4936
852.3312	4899
854.7272	4945
857.1187	4784
859.5115	4860
861.9037	4879
864.2952	4942
866.6842	4925
869.0764	4932
871.4661	4904
873.8531	4900
876.2415	5015
878.6272	4893
881.0162	4856
883.4026	4827
885.7866	5024
888.1717	4950
890.5543	4794
892.9382	4892
895.3215	4831
897.7041	4833
900.0842	4843
902.4655	4915
904.8443	4935
907.2244	4984
909.6039	4912
911.9808	4992
914.357	4973
916.7346	5096
919.1115	5103
921.4859	5070
923.8616	5129
926.2347	5120
928.6071	5237
930.979	5083
933.3541	5174
935.7247	5271
938.0946	5078
940.4639	5139
942.8326	5212
945.2026	5299
947.5701	5253
949.9369	5344
952.305	5314
954.6705	5485
957.0355	5589
959.4017	5709
961.7654	5739
964.1284	5668
966.4908	5630
968.8527	5513
971.2138	5396
973.5743	5287
975.9343	5264
978.2936	5110
980.6522	5080
983.0122	5125
985.3696	5148
987.7245	5021
990.0807	5009
992.4362	5012
994.7911	5003
997.1474	5070
999.4991	4900
1001.852	5073
1004.205	5062
1006.555	5048
1008.908	5145
1011.258	5029
1013.606	5095
1015.956	4990
1018.302	5104
1020.652	5104
1022.998	5153
1025.345	5134
1027.691	5109
1030.035	5074
1032.378	5164
1034.724	5173
1037.066	5152
1039.409	5181
1041.75	5073
1044.092	5073
1046.433	5097
1048.771	5223
1051.112	5125
1053.449	5092
1055.786	5213
1058.124	5183
1060.462	5100
1062.797	5150
1065.131	5152
1067.467	5153
1069.8	5227
1072.135	5120
1074.467	5260
1076.798	5290
1079.129	5196
1081.459	5159
1083.792	5165
1086.121	5244
1088.449	5119
1090.777	5148
1093.104	5094
1095.431	5168
1097.759	5081
1100.084	5158
1102.408	5167
1104.732	5162
1107.056	5252
1109.379	5131
1111.701	5145
1114.022	5242
1116.343	5259
1118.664	5148
1120.983	5218
1123.303	5281
1125.621	5202
1127.939	5302
1130.256	5156
1132.573	5275
1134.889	5214
1137.205	5227
1139.52	5269
1141.832	5186
1144.146	5196
1146.461	5227
1148.771	5231
1151.083	5214
1153.392	5217
1155.703	5159
1158.011	5239
1160.323	5149
1162.629	5258
1164.938	5231
1167.243	5189
1169.55	5274
1171.857	5174
1174.163	5181
1176.466	5216
1178.769	5186
1181.073	5217
1183.374	5166
1185.677	5138
1187.979	5211
1190.279	5246
1192.578	5192
1194.878	5213
1197.178	5210
1199.476	5195
1201.772	5220
1204.068	5285
1206.366	5218
1208.663	5288
1210.957	5313
1213.251	5286
1215.544	5222
1217.836	5254
1220.128	5234
1222.421	5206
1224.712	5307
1227.002	5340
1229.292	5275
1231.581	5373
1233.871	5390
1236.159	5363
1238.446	5266
1240.732	5339
1243.018	5371
1245.304	5347
1247.59	5431
1249.874	5497
1252.156	5546
1254.439	5476
1256.721	5452
1259.005	5413
1261.286	5376
1263.565	5493
1265.845	5475
1268.125	5485
1270.403	5478
1272.682	5431
1274.959	5514
1277.234	5397
1279.511	5309
1281.787	5373
1284.062	5476
1286.337	5339
1288.609	5434
1290.882	5366
1293.153	5347
1295.428	5379
1297.698	5314
1299.969	5263
1302.237	5357
1304.507	5338
1306.777	5318
1309.044	5326
1311.312	5413
1313.578	5383
1315.844	5246
1318.109	5405
1320.375	5333
1322.638	5324
1324.903	5414
1327.165	5389
1329.427	5377
1331.69	5422
1333.952	5456
1336.212	5377
1338.471	5387
1340.73	5410
1342.988	5322
1345.248	5355
1347.505	5313
1349.763	5284
1352.019	5384
1354.274	5386
1356.53	5220
1358.784	5269
1361.038	5325
1363.291	5328
1365.543	5367
1367.797	5407
1370.048	5397
1372.296	5281
1374.546	5279
1376.796	5350
1379.045	5273
1381.295	5359
1383.542	5316
1385.787	5391
1388.034	5407
1390.28	5450
1392.527	5381
1394.772	5544
1397.014	5489
1399.258	5535
1401.501	5509
1403.741	5642
1405.985	5514
1408.226	5526
1410.465	5483
1412.705	5540
1414.943	5547
1417.184	5499
1419.42	5494
1421.658	5435
1423.894	5598
1426.13	5606
1428.366	5501
1430.602	5565
1432.835	5498
1435.069	5529
1437.301	5606
1439.535	5632
1441.767	5557
1443.997	5549
1446.229	5597
1448.458	5586
1450.687	5634
1452.916	5635
1455.146	5635
1457.372	5731
1459.599	5672
1461.824	5648
1464.051	5615
1466.277	5601
1468.501	5554
1470.725	5528
1472.948	5432
1475.17	5513
1477.393	5545
1479.614	5425
1481.837	5410
1484.057	5488
1486.276	5329
1488.497	5297
1490.715	5438
1492.932	5405
1495.148	5381
1497.364	5325
1499.58	5329
1501.798	5311
1504.012	5358
1506.227	5382
1508.44	5230
1510.653	5302
1512.866	5376
1515.078	5263
1517.289	5310
1519.5	5173
1521.711	5317
1523.92	5253
1526.13	5310
1528.338	5284
1530.544	5339
1532.752	5299
1534.959	5220
1537.165	5326
1539.371	5291
1541.574	5321
1543.779	5273
1545.983	5367
1548.187	5355
1550.39	5334
1552.59	5318
1554.792	5331
1556.991	5393
1559.19	5404
1561.392	5330
1563.59	5336
1565.789	5314
1567.986	5322
1570.182	5473
1572.381	5335
1574.576	5496
1576.771	5464
1578.966	5448
1581.16	5442
1583.354	5483
1585.546	5484
1587.74	5501
1589.931	5472
1592.121	5370
1594.311	5457
1596.502	5536
1598.693	5562
1600.881	5501
1603.069	5596
1605.256	5462
1607.445	5512
1609.631	5486
1611.816	5547
1614.001	5537
1616.186	5423
1618.37	5510
1620.555	5525
1622.737	5562
1624.919	5567
1627.101	5504
1629.282	5519
1631.463	5532
1633.643	5592
1635.822	5497
1638.001	5551
1640.179	5602
1642.359	5557
1644.534	5592
1646.711	5587
1648.887	5679
1651.062	5547
1653.235	5645
1655.412	5677
1657.586	5583
1659.757	5584
1661.93	5525
1664.1	5656
1666.274	5614
1668.445	5569
1670.614	5634
1672.784	5670
1674.951	5673
1677.12	5569
1679.289	5705
1681.457	5662
1683.622	5648
1685.789	5574
1687.953	5573
1690.121	5600
1692.284	5538
1694.447	5583
1696.611	5529
1698.772	5569
1700.935	5533
1703.098	5438
1705.258	5419
1707.417	5510
1709.576	5509
1711.736	5330
1713.896	5415
1716.053	5437
1718.21	5544
1720.366	5373
1722.522	5483
1724.68	5416
1726.835	5429
1728.989	5522
1731.142	5447
1733.295	5415
1735.449	5464
1737.601	5495
1739.753	5457
1741.903	5434
1744.054	5428
1746.203	5452
1748.354	5507
1750.503	5415
1752.651	5514
1754.798	5483
1756.944	5529
1759.092	5430
1761.238	5481
1763.383	5605
1765.528	5460
1767.672	5441
1769.814	5556
1771.959	5454
1774.102	5553
1776.242	5471
1778.384	5500
1780.525	5536
1782.665	5482
1784.805	5571
1786.945	5465
1789.082	5434
1791.22	5547
1793.36	5519
1795.495	5524
1797.632	5533
1799.766	5569
1801.902	5548
1804.035	5481
1806.172	5421
1808.304	5549
1810.436	5616
1812.569	5532
1814.699	5482
1816.833	5508
1818.963	5464
1821.092	5520
1823.222	5507
1825.35	5496
1827.478	5423
1829.608	5463
1831.734	5451
1833.86	5484
1835.986	5557
1838.11	5512
1840.238	5467
1842.362	5391
1844.485	5406
1846.608	5460
1848.73	5463
1850.853	5313
1852.974	5522
1855.097	5383
1857.217	5390
1859.336	5494
1861.455	5479
1863.576	5387
1865.693	5483
1867.811	5502
1869.926	5450
1872.042	5392
1874.16	5427
1876.275	5404
1878.39	5462
1880.504	5456
1882.618	5522
1884.731	5420
1886.843	5484
1888.956	5402
1891.067	5415
1893.178	5458
1895.287	5491
1897.399	5552
1899.508	5485
1901.617	5507
1903.724	5406
1905.832	5509
1907.941	5460
1910.046	5494
1912.152	5520
1914.256	5505
1916.361	5566
1918.464	5400
1920.57	5525
1922.672	5586
1924.775	5555
1926.876	5484
1928.978	5565
1931.08	5593
1933.181	5507
1935.28	5496
1937.38	5568
1939.478	5567
1941.577	5526
1943.675	5676
1945.771	5531
1947.867	5488
1949.964	5545
1952.058	5487
1954.154	5576
1956.248	5558
1958.343	5548
1960.435	5502
1962.527	5545
1964.62	5495
1966.711	5594
1968.802	5499
1970.892	5384
1972.983	5399
1975.072	5504
1977.162	5527
1979.25	5460
1981.337	5456
1983.424	5478
1985.51	5443
1987.598	5546
1989.683	5509
1991.768	5510
1993.852	5540
1995.934	5481
1998.019	5453
2000.102	5519
2002.184	5532
2004.266	5403
2006.347	5472
2008.427	5359
2010.508	5446
2012.587	5549
2014.666	5425
2016.745	5467
2018.821	5512
2020.9	5484
2022.977	5412
2025.052	5530
2027.128	5467
2029.204	5515
2031.277	5379
2033.353	5464
2035.425	5392
2037.499	5442
2039.57	5443
2041.642	5414
2043.714	5527
2045.786	5384
2047.855	5480
2049.925	5405
2051.993	5455
2054.064	5453
2056.132	5421
2058.2	5496
2060.266	5382
2062.332	5497
2064.398	5405
2066.465	5378
2068.529	5527
2070.592	5484
2072.657	5400
2074.719	5508
2076.783	5491
2078.845	5475
2080.907	5439
2082.968	5480
2085.028	5518
2087.087	5453
2089.148	5464
2091.207	5420
2093.264	5485
2095.322	5512
2097.379	5431
2099.439	5441
2101.495	5390
2103.55	5394
2105.605	5450
2107.658	5407
2109.713	5454
2111.767	5463
2113.82	5521
2115.872	5493
2117.924	5461
2119.975	5510
2122.028	5436
2124.078	5416
2126.126	5491
2128.176	5306
2130.225	5463
2132.275	5492
2134.321	5423
2136.368	5392
2138.415	5487
2140.461	5490
2142.505	5435
2144.552	5380
2146.597	5408
2148.64	5461
2150.684	5495
2152.725	5351
2154.77	5474
2156.811	5440
2158.852	5360
2160.894	5481
2162.933	5436
2164.973	5346
2167.013	5370
2169.051	5433
2171.089	5428
2173.126	5423
2175.164	5404
2177.201	5336
2179.236	5453
2181.273	5474
2183.307	5373
2185.341	5371
2187.377	5260
2189.41	5243
2191.442	5361
2193.473	5383
2195.506	5235
2197.539	5330
2199.569	5333
2201.598	5352
2203.628	5340
2205.656	5390
2207.686	5357
2209.716	5275
2211.743	5314
2213.769	5281
2215.796	5264
2217.821	5387
2219.848	5426
2221.873	5314
2223.897	5357
2225.921	5314
2227.944	5295
2229.967	5381
2231.991	5278
2234.011	5424
2236.032	5198
2238.053	5261
2240.073	5378
2242.094	5243
2244.114	5254
2246.131	5304
2248.149	5319
2250.167	5297
2252.186	5301
2254.201	5397
2256.218	5254
2258.233	5270
2260.247	5272
2262.262	5245
2264.278	5328
2266.29	5312
2268.303	5394
2270.315	5172
2272.327	5269
2274.341	5314
2276.35	5298
2278.361	5321
2280.37	5331
2282.38	5288
2284.388	5242
2286.397	5312
2288.405	5287
2290.412	5277
2292.419	5329
2294.425	5283
2296.431	5207
2298.437	5262
2300.441	5269
2302.445	5202
2304.449	5281
2306.453	5347
2308.455	5309
2310.457	5304
2312.459	5289
2314.46	5272
2316.46	5229
2318.461	5289
2320.46	5202
2322.458	5210
2324.458	5319
2326.456	5256
2328.455	5137
2330.451	5266
2332.447	5286
2334.443	5242
2336.438	5269
2338.433	5167
2340.429	5171
2342.422	5256
2344.416	5131
2346.408	5230
2348.399	5182
2350.393	5150
2352.384	5240
2354.375	5291
2356.365	5138
2358.355	5070
2360.344	5123
2362.333	5134
2364.322	5187
2366.309	5212
2368.295	5168
2370.282	5183
2372.27	5138
2374.256	5151
2376.24	5227
2378.225	5189
2380.208	5069
2382.194	5174
2384.177	5129
2386.159	5111
2388.142	5058
2390.122	5080
2392.105	5120
2394.085	5103
2396.066	5099
2398.044	5145
2400.024	5111
2402.002	5125
2403.982	5013
2405.959	5060
2407.935	5085
2409.913	5129
2411.888	5064
2413.865	5109
2415.84	5113
2417.814	4986
2419.788	5093
2421.762	5109
2423.735	5053
2425.708	5053
2427.68	5035
2429.651	5215
2431.623	5102
2433.593	5097
2435.564	5085
2437.533	5011
2439.502	4983
2441.47	5101
2443.438	5148
2445.406	5141
2447.373	5124
2449.34	5027
2451.305	5089
2453.271	5055
2455.235	5094
2457.201	5063
2459.165	5097
2461.129	5158
2463.092	5128
2465.054	5044
2467.018	5083
2468.978	4986
2470.939	5082
2472.899	5066
2474.86	5063
2476.819	5035
2478.778	5064
2480.737	5084
2482.695	4979
2484.653	5056
2486.609	5023
2488.567	5081
2490.524	5018
2492.478	5049
2494.433	5001
2496.387	5080
2498.343	5024
2500.297	5049
2502.249	5012
2504.202	4998
2506.153	5049
2508.105	5123
2510.057	4936
2512.008	4922
2513.957	5016
2515.906	4951
2517.855	4988
2519.805	5007
2521.754	5073
2523.7	4966
2525.647	4956
2527.594	5095
2529.54	5125
2531.486	4958
2533.431	5049
2535.376	4987
2537.32	5076
2539.263	4924
2541.207	4958
2543.151	5000
2545.093	4996
2547.034	4908
2548.975	4962
2550.917	4963
2552.856	5039
2554.796	4961
2556.735	4998
2558.673	5022
2560.611	4994
2562.55	4999
2564.487	5026
2566.424	4885
2568.36	4993
2570.296	4895
2572.232	4941
2574.167	4957
2576.101	4969
2578.035	5013
2579.969	5047
2581.902	4898
2583.834	4892
2585.766	4889
2587.698	4997
2589.628	4950
2591.557	4968
2593.489	4962
2595.419	4940
2597.348	4929
2599.275	4934
2601.204	5077
2603.131	5030
2605.059	5009
2606.986	4998
2608.911	4991
2610.837	4938
2612.76	4962
2614.687	5061
2616.61	5110
2618.534	5010
2620.457	5011
2622.38	4973
2624.302	4996
2626.225	4967
2628.145	5031
2630.067	4994
2631.986	4977
2633.906	4938
2635.827	5096
2637.745	4997
2639.662	5085
2641.581	5051
2643.498	4970
2645.415	5082
2647.331	4941
2649.248	5160
2651.163	4944
2653.077	5016
2654.993	4906
2656.906	5072
2658.821	5036
2660.733	4974
2662.646	4993
2664.557	4991
2666.47	4970
2668.381	4983
2670.291	5066
2672.201	5096
2674.11	4962
2676.021	5044
2677.929	5025
2679.837	4920
2681.745	4918
2683.652	5047
2685.56	4908
2687.466	5009
2689.371	4968
2691.276	4881
2693.181	4903
2695.085	4932
2696.991	5024
2698.893	4898
2700.796	4898
2702.698	4898
2704.601	4925
2706.502	4886
2708.404	4793
2710.304	4880
2712.203	4902
2714.103	4882
2716.003	4965
2717.902	4919
2719.8	4823
2721.697	5024
2723.594	4914
2725.49	4953
2727.389	4882
2729.283	4943
2731.179	4874
2733.073	4901
2734.968	4936
2736.863	4814
2738.757	4819
2740.649	4890
2742.541	4882
2744.433	4859
2746.324	4958
2748.216	4971
2750.107	4886
2751.997	4889
2753.886	4782
2755.776	4761
2757.666	4930
2759.553	4828
2761.44	4901
2763.327	4769
2765.215	4854
2767.102	4933
2768.988	4903
2770.873	4842
2772.757	4909
2774.641	4841
2776.525	4905
2778.41	4778
2780.292	4882
2782.175	4899
2784.057	4828
2785.938	4769
2787.821	4897
2789.701	4890
2791.581	4886
2793.461	4807
2795.34	4832
2797.219	4790
2799.099	4915
2800.975	4911
2802.853	4877
2804.73	4747
2806.606	4757
2808.484	4855
2810.358	4812
2812.233	4814
2814.108	4845
2815.981	4875
2817.857	4784
2819.73	4824
2821.602	4816
2823.474	4939
2825.346	4913
2827.217	4839
2829.089	4891
2830.959	4871
2832.829	4832
2834.698	4890
2836.567	4876
2838.436	4893
2840.305	4866
2842.172	4838
2844.04	4877
2845.905	4821
2847.772	4886
2849.639	4858
2851.503	4944
2853.369	4965
2855.232	4975
2857.096	5026
2858.961	4945
2860.824	4926
2862.686	4964
2864.547	5181
2866.41	4921
2868.272	5030
2870.132	5161
2871.992	5157
2873.851	5222
2875.711	5289
2877.57	5255
2879.429	5232
2881.287	5264
2883.144	5291
2885.001	5349
2886.857	5303
2888.714	5328
2890.57	5405
2892.425	5371
2894.279	5415
2896.133	5361
2897.987	5400
2899.842	5395
2901.694	5342
2903.547	5421
2905.397	5356
2907.249	5357
2909.101	5385
2910.952	5331
2912.802	5395
2914.652	5437
2916.5	5382
2918.35	5376
2920.198	5499
2922.045	5595
2923.893	5557
2925.74	5677
2927.585	5624
2929.433	5694
2931.279	5728
2933.123	5782
2934.968	5818
2936.811	5847
2938.656	5920
2940.5	5845
2942.342	5800
2944.185	6007
2946.026	5859
2947.87	6039
2949.71	6008
2951.549	5989
2953.39	6005
2955.229	5967
2957.069	5989
2958.908	5861
2960.746	5770
2962.584	5811
2964.421	5765
2966.257	5751
2968.094	5685
2969.931	5663
2971.766	5564
2973.601	5504
2975.435	5510
2977.27	5550
2979.105	5402
2980.938	5427
2982.77	5413
2984.602	5292
2986.434	5319
2988.267	5293
2990.097	5373
2991.927	5311
2993.757	5191
2995.587	5271
2997.417	5093
2999.246	5044
3001.074	5041
3002.902	5055
3004.729	5008
3006.556	4947
3008.384	5006
3010.21	4847
3012.036	4913
3013.861	4789
3015.684	4792
3017.51	4720
3019.334	4815
3021.157	4886
3022.981	4736
3024.802	4683
3026.624	4777
3028.448	4699
3030.267	4636
3032.088	4545
3033.909	4656
3035.728	4637
3037.549	4607
3039.368	4602
3041.186	4703
3043.004	4497
3044.821	4645
3046.64	4537
3048.455	4665
3050.272	4583
3052.087	4642
3053.903	4602
3055.717	4644
3057.534	4627
3059.347	4642
3061.16	4530
3062.974	4649
3064.785	4538
3066.598	4580
3068.411	4603
3070.222	4589
3072.032	4608
3073.844	4598
3075.653	4646
3077.463	4544
3079.272	4547
3081.08	4581
3082.889	4472
3084.697	4417
3086.505	4528
3088.312	4507
3090.118	4578
3091.924	4493
3093.729	4434
3095.535	4465
3097.34	4465
3099.144	4484
3100.947	4430
3102.75	4336
3104.553	4461
3106.357	4477
3108.159	4438
3109.961	4508
3111.762	4405
3113.562	4460
3115.365	4463
3117.164	4437
3118.964	4364
3120.761	4425
3122.56	4395
3124.36	4490
3126.158	4385
3127.954	4430
3129.75	4407
3131.547	4492
3133.343	4403
3135.139	4414
3136.934	4411
3138.729	4356
3140.522	4294
3142.317	4428
3144.11	4421
3145.904	4399
3147.695	4359
3149.488	4442
3151.28	4325
3153.07	4371
3154.863	4412
3156.652	4370
3158.441	4379
3160.231	4257
3162.019	4272
3163.81	4395
3165.597	4371
3167.384	4337
3169.172	4211
3170.958	4455
3172.745	4376
3174.532	4360
3176.317	4313
3178.101	4346
3179.885	4367
3181.67	4348
3183.455	4314
3185.238	4330
3187.02	4244
3188.802	4320
3190.585	4343
3192.368	4347
3194.149	4300
3195.929	4336
3197.709	4321
3199.489	4304
3201.268	4294
3203.048	4359
3204.826	4178
3206.604	4272
3208.382	4255
3210.159	4282
3211.937	4347
3213.713	4354
3215.489	4392
3217.263	4288
3219.038	4241
3220.815	4286
3222.589	4284
3224.363	4368
3226.136	4201
3227.908	4345
3229.681	4312
3231.454	4357
3233.226	4251
3234.996	4281
3236.767	4294
3238.538	4268
3240.308	4323
3242.078	4349
3243.847	4261
3245.615	4275
3247.384	4221
3249.15	4277
3250.92	4229
3252.686	4214
3254.453	4271
3256.218	4245
3257.984	4343
3259.75	4346
3261.515	4290
3263.279	4352
3265.044	4311
3266.806	4379
3268.57	4325
3270.334	4275
3272.095	4247
3273.856	4348
3275.619	4315
3277.379	4341
3279.14	4270
3280.9	4364
3282.661	4319
3284.419	4298
3286.178	4326
3287.937	4297
3289.695	4285
3291.453	4310
3293.21	4286
3294.967	4321
3296.723	4330
3298.48	4270
3300.235	4209
3301.99	4255
3303.744	4286
3305.498	4382
3307.253	4288
3309.006	4345
3310.759	4338
3312.511	4377
3314.263	4315
3316.017	4300
3317.768	4264
3319.519	4276
3321.268	4289
3323.018	4323
3324.767	4338
3326.518	4385
3328.267	4277
3330.014	4339
3331.762	4343
3333.509	4319
3335.258	4306
3337.003	4405
3338.75	4304
3340.496	4322
3342.24	4275
3343.987	4318
3345.732	4346
3347.475	4289
3349.219	4340
3350.961	4300
3352.705	4302
3354.448	4232
3356.19	4191
3357.931	4279
3359.672	4217
3361.412	4250
3363.155	4280
3364.894	4265
3366.633	4165
3368.372	4279
3370.11	4279
3371.849	4183
3373.588	4151
3375.325	4266
3377.061	4277
3378.799	4186
3380.534	4196
3382.271	4306
3384.006	4267
3385.741	4168
3387.475	4227
3389.209	4235
3390.944	4193
3392.677	4279
3394.409	4169
3396.143	4182
3397.874	4208
3399.606	4227
3401.338	4177
3403.069	4225
3404.799	4213
3406.528	4071
3408.258	4158
3409.988	4233
3411.717	4171
3413.445	4171
3415.173	4157
3416.899	4123
3418.626	4131
3420.354	4113
3422.08	4163
3423.806	4167
3425.531	4196
3427.255	4167
3428.981	4144
3430.705	4129
3432.429	4162
3434.151	4076
3435.875	4173
3437.599	4088
3439.321	4082
3441.042	4112
3442.763	4091
3444.483	4079
3446.204	4167
3447.926	4057
3449.645	4102
3451.364	4061
3453.082	4057
3454.801	4115
3456.52	4077
3458.238	4181
3459.954	4074
3461.671	4146
3463.387	4097
3465.104	4052
3466.82	4031
3468.534	4074
3470.25	4020
3471.963	4012
3473.676	3963
3475.392	3988
3477.104	4019
3478.817	4015
3480.528	4067
3482.241	4007
3483.954	3952
3485.664	4020
3487.374	4026
3489.084	3998
3490.795	3996
3492.504	3942
3494.214	3945
3495.922	3968
3497.63	3949
3499.338	3998
3501.045	3948
3502.753	3952
3504.459	3964
3506.166	4017
3507.871	3985
3509.576	4031
3511.283	3956
3512.987	4004
3514.691	3971
3516.395	3970
3518.098	3918
3519.8	3986
3521.504	3943
3523.206	3860
3524.908	3906
3526.609	3923
3528.309	3958
3530.011	3924
3531.711	3889
3533.411	4094
3535.109	3931
3536.808	3890
3538.507	3936
3540.206	3900
3541.904	3894
3543.601	4016
3545.297	3893
3546.994	3967
3548.69	3856
3550.387	3871
3552.081	3871
3553.776	3837
3555.47	3919
3557.166	3887
3558.859	3876
3560.553	3871
3562.245	3910
3563.938	3827
3565.629	3903
3567.322	3866
3569.014	3855
3570.704	3955
3572.394	3890
3574.084	3870
3575.775	3788
3577.464	3792
3579.152	3896
3580.842	3856
3582.529	3840
3584.216	3844
3585.905	3830
3587.591	3851
3589.279	3905
3590.964	3829
3592.649	3793
3594.336	3803
3596.021	3722
3597.705	3792
3599.388	3822
3601.072	3817
3602.757	3768
3604.439	3728
3606.122	3799
3607.803	3825
3609.485	3742
3611.167	3789
3612.849	3844
3614.529	3808
3616.208	3705
3617.888	3775
3619.567	3783
3621.247	3782
3622.926	3593
3624.603	3684
3626.281	3795
3627.958	3749
3629.635	3797
3631.312	3736
3632.989	3683
3634.665	3772
3636.339	3741
3638.014	3662
3639.691	3785
3641.364	3771
3643.038	3701
3644.71	3644
3646.384	3634
3648.058	3716
3649.729	3750
3651.402	3665
3653.073	3759
3654.744	3679
3656.414	3687
3658.085	3655
3659.755	3608
3661.424	3624
3663.094	3738
3664.762	3746
3666.431	3749
3668.099	3676
3669.766	3642
3671.433	3649
3673.099	3747
3674.768	3691
3676.433	3695
3678.098	3644
3679.763	3715
3681.428	3672
3683.093	3654
3684.757	3626
3686.421	3688
3688.083	3672
3689.746	3621
3691.408	3690
3693.071	3686
3694.733	3663
3696.394	3650
3698.054	3686
3699.715	3625
3701.375	3615
3703.036	3682
3704.695	3705
3706.354	3654
3708.012	3585
3709.67	3601
3711.329	3594
3712.987	3573
3714.644	3640
3716.299	3600
3717.955	3633
3719.613	3665
3721.268	3617
3722.923	3610
3724.577	3630
3726.231	3610
3727.885	3647
3729.539	3642
3731.192	3597
3732.845	3580
3734.497	3631
3736.149	3610
3737.802	3688
3739.453	3578
3741.104	3571
3742.753	3617
3744.404	3585
3746.052	3640
3747.704	3599
3749.352	3617
3751	3640
3752.648	3617
3754.296	3548
3755.944	3650
3757.59	3694
3759.238	3674
3760.883	3699
3762.528	3629
3764.176	3567
3765.82	3611
3767.464	3592
3769.109	3587
3770.753	3625
3772.396	3607
3774.04	3577
3775.683	3605
3777.325	3600
3778.967	3565
3780.608	3632
3782.25	3584
3783.89	3595
3785.531	3565
3787.17	3520
3788.81	3542
3790.45	3630
3792.09	3497
3793.729	3562
3795.366	3527
3797.003	3517
3798.64	3560
3800.278	3477
3801.915	3535
3803.551	3564
3805.187	3554
3806.822	3534
3808.458	3537
3810.093	3538
3811.726	3563
3813.36	3500
3814.994	3500
3816.627	3535
3818.262	3523
3819.893	3528
3821.525	3537
3823.157	3588
3824.787	3504
3826.42	3567
3828.051	3544
3829.68	3508
3831.31	3466
3832.938	3464
3834.569	3499
3836.198	3503
3837.825	3496
3839.454	3497
3841.08	3557
3842.708	3516
3844.335	3586
3845.962	3486
3847.587	3462
3849.212	3526
3850.838	3521
3852.463	3464
3854.089	3515
3855.712	3508
3857.335	3535
3858.959	3463
3860.582	3524
3862.205	3551
3863.827	3564
3865.449	3402
3867.07	3428
3868.691	3499
3870.312	3488
3871.933	3485
3873.553	3435
3875.173	3495
3876.792	3570
3878.411	3427
3880.03	3436
3881.647	3493
3883.265	3493
3884.882	3424
3886.499	3477
3888.116	3477
3889.732	3497
3891.348	3482
3892.964	3436
3894.579	3436
3896.195	3466
3897.809	3512
3899.423	3534
3901.036	3414
3902.648	3420
3904.261	3448
3905.875	3494
3907.487	3486
3909.099	3444
3910.709	3436
3912.321	3521
3913.933	3401
3915.542	3464
3917.152	3459
3918.762	3407
3920.37	3434
3921.98	3484
3923.589	3453
3925.196	3438
3926.804	3475
3928.41	3467
3930.018	3435
3931.626	3423
3933.231	3403
3934.838	3432
3936.442	3445
3938.046	3450
3939.653	3545
3941.257	3412
3942.861	3402
3944.464	3427
3946.068	3438
3947.67	3476
3949.273	3475
3950.876	3336
3952.477	3480
3954.078	3427
3955.678	3455
3957.281	3397
3958.881	3393
3960.48	3406
3962.079	3423
3963.678	3442
3965.279	3402
3966.877	3405
3968.475	3381
3970.072	3400
3971.669	3414
3973.266	3418
3974.864	3497
3976.459	3423
3978.055	3461
3979.65	3486
3981.245	3335
3982.841	3422
3984.436	3415
3986.03	3413
3987.623	3387
3989.216	3400
3990.809	3441
3992.403	3403
3993.995	3413
3995.586	3378
3997.177	3331
3998.768	3369
4000.361	3347
4001.951	3382
4003.54	3324
4005.13	3336
4006.719	3366
4008.31	3403
4009.897	3349
4011.485	3310
4013.073	3367
4014.66	3312
4016.247	3408
4017.834	3323
4019.421	3432
4021.006	3420
4022.592	3278
4024.178	3318
4025.763	3277
4027.348	3349
4028.932	3321
4030.515	3346
4032.099	3352
4033.682	3304
4035.266	3340
4036.847	3259
4038.429	3316
4040.011	3323
4041.592	3374
4043.173	3296
4044.755	3350
4046.334	3354
4047.913	3292
4049.494	3387
4051.074	3303
4052.652	3269
4054.23	3243
4055.807	3381
4057.385	3311
4058.963	3386
4060.541	3352
4062.117	3363
4063.693	3316
4065.269	3402
4066.844	3335
4068.42	3326
4069.995	3304
4071.569	3273
4073.143	3326
4074.716	3310
4076.291	3403
4077.864	3300
4079.436	3329
4081.009	3374
4082.58	3212
4084.152	3260
4085.723	3321
4087.294	3233
4088.865	3298
4090.435	3303
4092.005	3288
4093.574	3305
4095.143	3339
4096.712	3290
4098.279	3307
4099.848	3202
4101.416	3270
4102.984	3289
4104.55	3297
4106.117	3282
4107.682	3217
4109.248	3304
4110.815	3251
4112.379	3235
4113.945	3277
4115.508	3272
4117.073	3336
4118.637	3264
4120.201	3246
4121.763	3263
4123.325	3198
4124.888	3283
4126.449	3287
4128.013	3188
4129.573	3161
4131.133	3177
4132.694	3267
4134.254	3218
4135.814	3221
4137.374	3221
4138.933	3264
4140.491	3118
4142.049	3220
4143.607	3250
4145.167	3170
4146.724	3294
4148.28	3189
4149.836	3197
4151.392	3249
4152.949	3192
4154.504	3289
4156.059	3267
4157.614	3237
4159.168	3187
4160.723	3191
4162.277	3135
4163.83	3152
4165.383	3183
4166.936	3180
4168.488	3165
4170.041	3136
4171.593	3233
4173.144	3120
4174.695	3220
4176.246	3158
4177.796	3200
4179.346	3236
4180.896	3274
4182.445	3171
4183.994	3180
4185.542	3255
4187.091	3170
4188.639	3160
4190.185	3224
4191.732	3195
4193.279	3184
4194.826	3167
4196.373	3119
4197.918	3123
4199.463	3179
4201.008	3271
4202.553	3120
4204.098	3203
4205.641	3107
4207.185	3123
4208.728	3182
4210.271	3138
4211.814	3135
4213.357	3162
4214.898	3232
4216.439	3162
4217.98	3099
4219.522	3060
4221.062	3147
4222.603	3199
4224.142	3185
4225.681	3192
4227.222	3157
4228.76	3212
4230.298	3136
4231.835	3148
4233.373	3183
4234.911	3181
4236.449	3180
4237.985	3175
4239.521	3098
4241.057	3173
4242.592	3149
4244.128	3095
4245.663	3145
4247.197	3241
4248.731	3034
4250.265	3181
4251.798	3184
4253.333	3168
4254.865	3136
4256.397	3173
4257.93	3101
4259.461	3156
4260.994	3226
4262.525	3185
4264.056	3165
4265.586	3105
4267.115	3176
4268.646	3073
4270.176	3120
4271.705	3131
4273.232	3130
4274.761	3092
4276.289	3120
4277.818	3220
4279.345	3137
4280.872	3127
4282.399	3092
4283.924	3161
4285.452	3154
4286.976	3159
4288.502	3154
4290.026	3109
4291.551	3083
4293.074	3088
4294.6	3117
4296.123	3077
4297.646	3098
4299.168	3146
4300.691	3138
4302.214	3092
4303.736	3093
4305.257	3167
4306.778	3145
4308.299	3127
4309.82	3107
4311.34	3149
4312.86	3115
4314.379	3081
