400.0745	4072
402.597	4117
405.1208	4018
407.6419	4093
410.1623	4084
412.6819	4130
415.201	4170
417.7172	4119
420.2369	4131
422.7538	4231
425.2701	4226
427.7856	4234
430.3005	4314
432.8147	4225
435.3282	4277
437.841	4369
440.3511	4220
442.8625	4334
445.3753	4343
447.8854	4281
450.3927	4326
452.9014	4452
455.4073	4312
457.9146	4288
460.4233	4344
462.9272	4388
465.4325	4294
467.935	4311
470.4389	4426
472.9421	4417
475.4446	4344
477.9444	4446
480.4456	4487
482.944	4388
485.4417	4427
487.9429	4422
490.4393	4504
492.935	4491
495.4321	4493
497.9264	4521
500.4221	4517
502.9171	4607
505.4094	4521
507.9011	4522
510.392	4541
512.8864	4592
515.3759	4539
517.8649	4551
520.3531	4463
522.8406	4640
525.3275	4545
527.8178	4613
530.3033	4493
532.7881	4572
535.2723	4534
537.7558	4559
540.2407	4590
542.7228	4591
545.2043	4658
547.6851	4521
550.1652	4663
552.6467	4621
555.1255	4543
557.6016	4584
560.079	4579
562.5557	4621
565.0318	4710
567.5092	4617
569.984	4632
572.456	4664
574.9294	4656
577.4022	4707
579.8762	4685
582.3456	4732
584.8163	4657
587.2863	4714
589.7557	4676
592.2224	4731
594.6924	4773
597.1578	4675
599.6245	4714
602.0905	4678
604.5538	4685
607.0206	4706
609.4825	4742
611.9459	4761
614.4066	4804
616.8686	4812
619.33	4798
621.7906	4747
624.2487	4676
626.708	4786
629.1647	4697
631.6207	4730
634.0801	4821
636.5348	4698
638.9888	4856
641.4442	4803
643.8969	4796
646.3509	4660
648.8022	4810
651.255	4825
653.705	4738
656.1544	4808
658.6031	4842
661.0532	4833
663.5026	4799
665.9493	4702
668.3954	4819
670.8409	4853
673.2877	4971
675.7318	4955
678.1752	4799
680.618	4899
683.0601	4875
685.5035	4962
687.9444	4991
690.3845	4883
692.824	4943
695.2628	4864
697.701	4993
700.1406	4991
702.5774	4981
705.0116	4986
707.4472	4947
709.8821	4958
712.3183	4870
714.7519	4977
717.1829	4972
719.6151	4963
722.0468	5130
724.4777	5069
726.908	5094
729.3377	5040
731.7667	5132
734.1931	5145
736.6208	5088
739.0498	5183
741.4742	5150
743.9	5086
746.3231	5158
748.7476	5157
751.1713	5211
753.5945	5287
756.015	5233
758.4368	5275
760.856	5258
763.2766	5368
765.6965	5244
768.1157	5260
770.5323	5267
772.9483	5373
775.3656	5376
777.7822	5252
780.1963	5306
782.6116	5319
785.0244	5241
787.4365	5242
789.8499	5330
792.2626	5291
794.6728	5340
797.0823	5370
799.4911	5218
801.8994	5261
804.3109	5288
806.7178	5331
809.124	5358
811.5297	5336
813.9347	5291
816.341	5334
818.7447	5372
821.1478	5330
823.5502	5402
825.952	5311
828.3531	5282
830.7556	5343
833.1554	5380
835.5546	5394
837.9532	5421
840.3511	5433
842.7504	5444
845.1451	5419
847.5411	5419
849.9365	5446
852.3312	5444
854.7272	5424
857.1187	5388
859.5115	5409
861.9037	5496
864.2952	5407
866.6842	5444
869.0764	5343
871.4661	5455
873.8531	5357
876.2415	5527
878.6272	5423
881.0162	5453
883.4026	5503
885.7866	5436
888.1717	5413
890.5543	5354
892.9382	5356
895.3215	5422
897.7041	5482
900.0842	5486
902.4655	5397
904.8443	5471
907.2244	5404
909.6039	5519
911.9808	5487
914.357	5459
916.7346	5512
919.1115	5569
921.4859	5535
923.8616	5486
926.2347	5546
928.6071	5654
930.979	5626
933.3541	5620
935.7247	5586
938.0946	5705
940.4639	5653
942.8326	5691
945.2026	5710
947.5701	5767
949.9369	5769
952.305	5865
954.6705	5946
957.0355	6135
959.4017	6173
961.7654	6260
964.1284	6185
966.4908	6260
968.8527	6071
971.2138	5811
973.5743	5841
975.9343	5757
978.2936	5627
980.6522	5654
983.0122	5716
985.3696	5631
987.7245	5714
990.0807	5594
992.4362	5551
994.7911	5614
997.1474	5529
999.4991	5660
1001.852	5695
1004.205	5545
1006.555	5699
1008.908	5559
1011.258	5665
1013.606	5591
1015.956	5634
1018.302	5588
1020.652	5668
1022.998	5616
1025.345	5619
1027.691	5731
1030.035	5685
1032.378	5601
1034.724	5677
1037.066	5608
1039.409	5701
1041.75	5724
1044.092	5882
1046.433	5744
1048.771	5636
1051.112	5732
1053.449	5766
1055.786	5710
1058.124	5776
1060.462	5694
1062.797	5754
1065.131	5772
1067.467	5727
1069.8	5818
1072.135	5749
1074.467	5737
1076.798	5697
1079.129	5809
1081.459	5691
1083.792	5675
1086.121	5804
1088.449	5701
1090.777	5691
1093.104	5769
1095.431	5888
1097.759	5812
1100.084	5765
1102.408	5784
1104.732	5796
1107.056	5823
1109.379	5707
1111.701	5753
1114.022	5795
1116.343	5721
1118.664	5813
1120.983	5880
1123.303	5708
1125.621	5756
1127.939	5816
1130.256	5882
1132.573	5801
1134.889	5859
1137.205	5816
1139.52	5844
1141.832	5861
1144.146	5812
1146.461	5784
1148.771	5811
1151.083	5841
1153.392	5815
1155.703	5941
1158.011	5760
1160.323	5789
1162.629	5845
1164.938	5805
1167.243	5737
1169.55	5890
1171.857	5947
1174.163	5686
1176.466	5949
1178.769	5817
1181.073	5826
1183.374	5903
1185.677	5756
1187.979	5840
1190.279	5826
1192.578	5932
1194.878	5771
1197.178	5816
1199.476	5758
1201.772	5916
1204.068	5831
1206.366	5756
1208.663	5873
1210.957	5937
1213.251	5905
1215.544	5760
1217.836	5765
1220.128	5868
1222.421	5901
1224.712	5832
1227.002	5898
1229.292	6009
1231.581	5932
1233.871	6004
1236.159	5859
1238.446	5884
1240.732	5933
1243.018	5913
1245.304	5929
1247.59	5940
1249.874	5932
1252.156	5995
1254.439	6045
1256.721	6019
1259.005	6050
1261.286	5957
1263.565	5927
1265.845	6043
1268.125	5920
1270.403	5997
1272.682	5973
1274.959	5979
1277.234	5998
1279.511	5958
1281.787	5882
1284.062	5991
1286.337	5944
1288.609	6039
1290.882	5826
1293.153	5950
1295.428	5871
1297.698	5966
1299.969	5807
1302.237	5868
1304.507	5931
1306.777	5929
1309.044	5897
1311.312	5941
1313.578	5879
1315.844	6089
1318.109	5982
1320.375	5978
1322.638	5877
1324.903	5898
1327.165	5990
1329.427	5937
1331.69	5929
1333.952	5943
1336.212	5764
1338.471	6011
1340.73	5928
1342.988	6019
1345.248	5930
1347.505	5927
1349.763	6028
1352.019	5918
1354.274	5948
1356.53	5941
1358.784	5848
1361.038	5825
1363.291	6079
1365.543	5875
1367.797	5885
1370.048	6002
1372.296	5970
1374.546	5952
1376.796	5963
1379.045	6023
1381.295	6098
1383.542	6043
1385.787	6096
1388.034	5996
1390.28	5972
1392.527	6056
1394.772	6041
1397.014	6026
1399.258	6006
1401.501	5914
1403.741	5991
1405.985	6144
1408.226	5942
1410.465	6036
1412.705	6051
1414.943	6107
1417.184	6041
1419.42	6052
1421.658	6072
1423.894	6002
1426.13	6021
1428.366	6077
1430.602	5969
1432.835	6061
1435.069	6043
1437.301	6086
1439.535	6175
1441.767	6160
1443.997	6116
1446.229	6035
1448.458	6100
1450.687	6134
1452.916	6229
1455.146	6159
1457.372	6221
1459.599	6151
1461.824	6190
1464.051	6147
1466.277	6216
1468.501	6078
1470.725	6119
1472.948	6182
1475.17	6085
1477.393	6017
1479.614	6112
1481.837	5999
1484.057	5985
1486.276	5963
1488.497	5988
1490.715	5939
1492.932	5953
1495.148	6072
1497.364	5986
1499.58	5982
1501.798	5889
1504.012	5962
1506.227	5977
1508.44	5928
1510.653	5954
1512.866	5924
1515.078	5955
1517.289	5975
1519.5	5908
1521.711	5959
1523.92	5995
1526.13	5919
1528.338	5930
1530.544	5921
1532.752	5924
1534.959	5848
1537.165	6025
1539.371	5988
1541.574	6024
1543.779	5947
1545.983	5998
1548.187	5887
1550.39	5985
1552.59	6080
1554.792	5965
1556.991	6121
1559.19	5951
1561.392	6116
1563.59	6099
1565.789	5984
1567.986	6048
1570.182	6106
1572.381	6028
1574.576	6131
1576.771	6092
1578.966	6168
1581.16	6110
1583.354	6052
1585.546	6102
1587.74	6183
1589.931	6222
1592.121	6120
1594.311	6229
1596.502	6143
1598.693	6051
1600.881	6154
1603.069	6208
1605.256	6264
1607.445	6129
1609.631	6280
1611.816	6226
1614.001	6153
1616.186	6075
1618.37	6267
1620.555	6142
1622.737	6184
1624.919	6159
1627.101	6112
1629.282	6197
1631.463	6141
1633.643	6120
1635.822	6216
1638.001	6175
1640.179	6169
1642.359	6197
1644.534	6190
1646.711	6106
1648.887	6177
1651.062	6099
1653.235	6218
1655.412	6149
1657.586	6241
1659.757	6159
1661.93	6195
1664.1	6201
1666.274	6209
1668.445	6278
1670.614	6202
1672.784	6271
1674.951	6284
1677.12	6227
1679.289	6176
1681.457	6263
1683.622	6246
1685.789	6075
1687.953	6240
1690.121	6240
1692.284	6226
1694.447	6251
1696.611	6070
1698.772	6147
1700.935	6106
1703.098	6152
1705.258	6118
1707.417	6264
1709.576	6094
1711.736	6065
1713.896	6158
1716.053	6172
1718.21	5974
1720.366	6137
1722.522	6244
1724.68	6129
1726.835	6102
1728.989	6144
1731.142	6042
1733.295	6140
1735.449	6163
1737.601	6189
1739.753	6092
1741.903	6162
1744.054	6117
1746.203	6188
1748.354	6149
1750.503	6123
1752.651	6233
1754.798	6146
1756.944	6197
1759.092	6036
1761.238	6156
1763.383	6200
1765.528	6256
1767.672	6044
1769.814	6132
1771.959	6203
1774.102	6153
1776.242	6165
1778.384	6249
1780.525	6141
1782.665	6095
1784.805	6251
1786.945	6216
1789.082	6155
1791.22	6206
1793.36	6265
1795.495	6284
1797.632	6231
1799.766	6141
1801.902	6183
1804.035	6211
1806.172	6090
1808.304	6228
1810.436	6096
1812.569	6177
1814.699	6223
1816.833	6132
1818.963	6144
1821.092	6118
1823.222	6202
1825.35	6156
1827.478	6213
1829.608	6145
1831.734	6201
1833.86	6119
1835.986	6190
1838.11	6072
1840.238	6269
1842.362	6148
1844.485	6083
1846.608	6122
1848.73	6090
1850.853	6143
1852.974	6107
1855.097	6151
1857.217	6056
1859.336	6162
1861.455	6096
1863.576	6126
1865.693	6043
1867.811	5975
1869.926	6146
1872.042	6141
1874.16	6126
1876.275	6200
1878.39	6130
1880.504	6309
1882.618	6134
1884.731	6026
1886.843	6131
1888.956	6036
1891.067	6133
1893.178	6208
1895.287	6066
1897.399	6216
1899.508	6153
1901.617	6099
1903.724	6184
1905.832	6169
1907.941	6128
1910.046	6204
1912.152	6183
1914.256	6190
1916.361	6116
1918.464	6139
1920.57	6252
1922.672	6204
1924.775	6226
1926.876	6163
1928.978	6242
1931.08	6121
1933.181	6210
1935.28	6240
1937.38	6156
1939.478	6229
1941.577	6168
1943.675	6211
1945.771	6156
1947.867	6261
1949.964	6299
1952.058	6123
1954.154	6201
1956.248	6170
1958.343	6187
1960.435	6242
1962.527	6234
1964.62	6111
1966.711	6216
1968.802	6216
1970.892	6251
1972.983	6201
1975.072	6296
1977.162	6126
1979.25	6274
1981.337	6223
1983.424	6240
1985.51	6135
1987.598	6139
1989.683	6181
1991.768	6118
1993.852	6108
1995.934	6193
1998.019	6142
2000.102	6086
2002.184	6190
2004.266	6117
2006.347	6044
2008.427	6153
2010.508	6109
2012.587	6256
2014.666	6156
2016.745	6145
2018.821	6162
2020.9	6062
2022.977	6095
2025.052	6121
2027.128	6128
2029.204	6170
2031.277	6181
2033.353	6014
2035.425	6129
2037.499	6094
2039.57	6314
2041.642	6102
2043.714	6061
2045.786	6117
2047.855	6209
2049.925	6048
2051.993	6122
2054.064	6174
2056.132	6157
2058.2	6159
2060.266	6109
2062.332	6016
2064.398	6203
2066.465	6192
2068.529	6106
2070.592	6241
2072.657	6077
2074.719	6145
2076.783	6127
2078.845	6136
2080.907	6160
2082.968	6209
2085.028	6287
2087.087	6202
2089.148	6245
2091.207	6238
2093.264	6150
2095.322	6136
2097.379	6084
2099.439	6120
2101.495	6182
2103.55	6133
2105.605	6196
2107.658	6210
2109.713	6149
2111.767	6054
2113.82	6217
2115.872	6073
2117.924	6205
2119.975	6195
2122.028	6018
2124.078	6092
2126.126	5976
2128.176	6100
2130.225	6218
2132.275	6141
2134.321	6164
2136.368	6010
2138.415	6103
2140.461	6239
2142.505	6057
2144.552	6162
2146.597	6092
2148.64	6123
2150.684	6114
2152.725	6147
2154.77	6178
2156.811	6040
2158.852	6165
2160.894	6068
2162.933	6111
2164.973	5978
2167.013	6128
2169.051	6058
2171.089	5992
2173.126	5926
2175.164	5988
2177.201	6049
2179.236	5996
2181.273	6099
2183.307	5987
2185.341	6005
2187.377	5993
2189.41	5972
2191.442	5926
2193.473	6043
2195.506	5991
2197.539	6015
2199.569	5971
2201.598	6060
2203.628	6027
2205.656	5909
2207.686	5951
2209.716	5945
2211.743	5993
2213.769	5867
2215.796	5954
2217.821	6037
2219.848	5905
2221.873	5957
2223.897	5966
2225.921	5921
2227.944	6010
2229.967	5851
2231.991	5846
2234.011	6022
2236.032	5917
2238.053	5991
2240.073	5891
2242.094	5860
2244.114	6013
2246.131	5878
2248.149	5912
2250.167	5968
2252.186	5977
2254.201	5904
2256.218	5966
2258.233	5932
2260.247	5890
2262.262	5871
2264.278	5940
2266.29	5986
2268.303	5886
2270.315	5913
2272.327	5924
2274.341	5899
2276.35	6030
2278.361	6025
2280.37	5907
2282.38	5951
2284.388	5863
2286.397	5957
2288.405	5973
2290.412	5966
2292.419	5898
2294.425	5929
2296.431	5941
2298.437	5856
2300.441	5923
2302.445	6005
2304.449	5846
2306.453	5913
2308.455	6030
2310.457	5840
2312.459	5855
2314.46	5798
2316.46	5847
2318.461	5951
2320.46	5893
2322.458	5911
2324.458	5824
2326.456	5807
2328.455	5943
2330.451	5897
2332.447	5881
2334.443	5913
2336.438	5877
2338.433	5839
2340.429	5803
2342.422	5734
2344.416	5821
2346.408	5856
2348.399	5867
2350.393	5767
2352.384	5772
2354.375	5812
2356.365	5638
2358.355	5744
2360.344	5748
2362.333	5710
2364.322	5733
2366.309	5775
2368.295	5864
2370.282	5739
2372.27	5807
2374.256	5789
2376.24	5795
2378.225	5629
2380.208	5800
2382.194	5761
2384.177	5839
2386.159	5857
2388.142	5766
2390.122	5770
2392.105	5752
2394.085	5688
2396.066	5654
2398.044	5665
2400.024	5730
2402.002	5724
2403.982	5718
2405.959	5726
2407.935	5644
2409.913	5689
2411.888	5701
2413.865	5702
2415.84	5633
2417.814	5631
2419.788	5699
2421.762	5670
2423.735	5752
2425.708	5672
2427.68	5628
2429.651	5670
2431.623	5671
2433.593	5716
2435.564	5649
2437.533	5682
2439.502	5762
2441.47	5688
2443.438	5764
2445.406	5748
2447.373	5684
2449.34	5734
2451.305	5679
2453.271	5708
2455.235	5688
2457.201	5634
2459.165	5655
2461.129	5686
2463.092	5603
2465.054	5650
2467.018	5629
2468.978	5681
2470.939	5517
2472.899	5607
2474.86	5648
2476.819	5571
2478.778	5517
2480.737	5689
2482.695	5538
2484.653	5687
2486.609	5501
2488.567	5698
2490.524	5682
2492.478	5639
2494.433	5574
2496.387	5494
2498.343	5570
2500.297	5572
2502.249	5616
2504.202	5531
2506.153	5516
2508.105	5603
2510.057	5602
2512.008	5574
2513.957	5470
2515.906	5708
2517.855	5559
2519.805	5589
2521.754	5629
2523.7	5480
2525.647	5564
2527.594	5497
2529.54	5552
2531.486	5521
2533.431	5580
2535.376	5519
2537.32	5550
2539.263	5645
2541.207	5539
2543.151	5624
2545.093	5653
2547.034	5539
2548.975	5497
2550.917	5516
2552.856	5482
2554.796	5580
2556.735	5523
2558.673	5580
2560.611	5528
2562.55	5492
2564.487	5522
2566.424	5665
2568.36	5599
2570.296	5536
2572.232	5539
2574.167	5617
2576.101	5508
2578.035	5379
2579.969	5490
2581.902	5502
2583.834	5573
2585.766	5593
2587.698	5534
2589.628	5556
2591.557	5479
2593.489	5564
2595.419	5506
2597.348	5532
2599.275	5636
2601.204	5591
2603.131	5465
2605.059	5571
2606.986	5481
2608.911	5527
2610.837	5552
2612.76	5419
2614.687	5465
2616.61	5599
2618.534	5504
2620.457	5459
2622.38	5521
2624.302	5613
2626.225	5534
2628.145	5436
2630.067	5552
2631.986	5552
2633.906	5497
2635.827	5528
2637.745	5566
2639.662	5466
2641.581	5478
2643.498	5440
2645.415	5601
2647.331	5559
2649.248	5583
2651.163	5500
2653.077	5583
2654.993	5499
2656.906	5517
2658.821	5523
2660.733	5392
2662.646	5478
2664.557	5451
2666.47	5566
2668.381	5445
2670.291	5625
2672.201	5494
2674.11	5515
2676.021	5448
2677.929	5492
2679.837	5620
2681.745	5467
2683.652	5530
2685.56	5448
2687.466	5448
2689.371	5419
2691.276	5542
2693.181	5491
2695.085	5550
2696.991	5434
2698.893	5495
2700.796	5485
2702.698	5413
2704.601	5477
2706.502	5482
2708.404	5387
2710.304	5411
2712.203	5448
2714.103	5389
2716.003	5480
2717.902	5375
2719.8	5401
2721.697	5367
2723.594	5367
2725.49	5410
2727.389	5396
2729.283	5388
2731.179	5394
2733.073	5432
2734.968	5389
2736.863	5381
2738.757	5350
2740.649	5500
2742.541	5435
2744.433	5341
2746.324	5456
2748.216	5340
2750.107	5417
2751.997	5430
2753.886	5295
2755.776	5392
2757.666	5410
2759.553	5345
2761.44	5290
2763.327	5263
2765.215	5368
2767.102	5395
2768.988	5349
2770.873	5272
2772.757	5296
2774.641	5240
2776.525	5367
2778.41	5261
2780.292	5262
2782.175	5293
2784.057	5313
2785.938	5272
2787.821	5300
2789.701	5235
2791.581	5317
2793.461	5394
2795.34	5279
2797.219	5318
2799.099	5300
2800.975	5204
2802.853	5342
2804.73	5232
2806.606	5219
2808.484	5350
2810.358	5310
2812.233	5345
2814.108	5145
2815.981	5320
2817.857	5267
2819.73	5216
2821.602	5319
2823.474	5302
2825.346	5217
2827.217	5242
2829.089	5229
2830.959	5241
2832.829	5223
2834.698	5259
2836.567	5193
2838.436	5296
2840.305	5212
2842.172	5245
2844.04	5219
2845.905	5271
2847.772	5281
2849.639	5273
2851.503	5234
2853.369	5282
2855.232	5229
2857.096	5382
2858.961	5257
2860.824	5314
2862.686	5283
2864.547	5365
2866.41	5245
2868.272	5213
2870.132	5391
2871.992	5444
2873.851	5350
2875.711	5435
2877.57	5350
2879.429	5343
2881.287	5422
2883.144	5458
2885.001	5449
2886.857	5471
2888.714	5428
2890.57	5428
2892.425	5418
2894.279	5430
2896.133	5457
2897.987	5319
2899.842	5332
2901.694	5370
2903.547	5491
2905.397	5477
2907.249	5396
2909.101	5499
2910.952	5466
2912.802	5458
2914.652	5498
2916.5	5423
2918.35	5574
2920.198	5424
2922.045	5505
2923.893	5494
2925.74	5635
2927.585	5602
2929.433	5421
2931.279	5681
2933.123	5560
2934.968	5636
2936.811	5661
2938.656	5687
2940.5	5614
2942.342	5687
2944.185	5766
2946.026	5721
2947.87	5762
2949.71	5761
2951.549	5709
2953.39	5659
2955.229	5574
2957.069	5613
2958.908	5651
2960.746	5615
2962.584	5689
2964.421	5499
2966.257	5529
2968.094	5501
2969.931	5483
2971.766	5423
2973.601	5437
2975.435	5410
2977.27	5445
2979.105	5558
2980.938	5381
2982.77	5419
2984.602	5336
2986.434	5405
2988.267	5387
2990.097	5264
2991.927	5340
2993.757	5276
2995.587	5181
2997.417	5144
2999.246	5184
3001.074	5218
3002.902	5199
3004.729	5181
3006.556	5205
3008.384	5082
3010.21	5143
3012.036	5021
3013.861	5094
3015.684	5020
3017.51	4895
3019.334	4980
3021.157	5068
3022.981	4965
3024.802	4928
3026.624	5053
3028.448	4938
3030.267	5020
3032.088	5004
3033.909	4998
3035.728	4837
3037.549	4924
3039.368	4859
3041.186	4892
3043.004	4951
3044.821	4882
3046.64	4922
3048.455	4866
3050.272	4836
3052.087	4749
3053.903	4990
3055.717	4868
3057.534	4900
3059.347	4871
3061.16	4913
3062.974	4780
3064.785	4859
3066.598	4806
3068.411	4946
3070.222	4809
3072.032	4798
3073.844	4773
3075.653	4807
3077.463	4837
3079.272	4889
3081.08	4759
3082.889	4802
3084.697	4833
3086.505	4705
3088.312	4769
3090.118	4815
3091.924	4692
3093.729	4713
3095.535	4771
3097.34	4754
3099.144	4770
3100.947	4716
3102.75	4685
3104.553	4693
3106.357	4742
3108.159	4704
3109.961	4732
3111.762	4656
3113.562	4679
3115.365	4654
3117.164	4689
3118.964	4583
3120.761	4682
3122.56	4690
3124.36	4658
3126.158	4660
3127.954	4623
3129.75	4692
3131.547	4641
3133.343	4530
3135.139	4631
3136.934	4664
3138.729	4639
3140.522	4683
3142.317	4628
3144.11	4612
3145.904	4614
3147.695	4619
3149.488	4637
3151.28	4555
3153.07	4599
3154.863	4606
3156.652	4620
3158.441	4587
3160.231	4620
3162.019	4583
3163.81	4480
3165.597	4628
3167.384	4562
3169.172	4541
3170.958	4520
3172.745	4493
3174.532	4587
3176.317	4579
3178.101	4535
3179.885	4484
3181.67	4506
3183.455	4585
3185.238	4582
3187.02	4513
3188.802	4584
3190.585	4485
3192.368	4530
3194.149	4522
3195.929	4480
3197.709	4446
3199.489	4473
3201.268	4475
3203.048	4500
3204.826	4507
3206.604	4483
3208.382	4509
3210.159	4436
3211.937	4442
3213.713	4537
3215.489	4478
3217.263	4478
3219.038	4509
3220.815	4493
3222.589	4448
3224.363	4530
3226.136	4445
3227.908	4530
3229.681	4450
3231.454	4495
3233.226	4535
3234.996	4466
3236.767	4444
3238.538	4531
3240.308	4366
3242.078	4391
3243.847	4469
3245.615	4490
3247.384	4442
3249.15	4425
3250.92	4412
3252.686	4474
3254.453	4431
3256.218	4424
3257.984	4439
3259.75	4481
3261.515	4471
3263.279	4412
3265.044	4374
3266.806	4399
3268.57	4450
3270.334	4363
3272.095	4310
3273.856	4362
3275.619	4414
3277.379	4411
3279.14	4334
3280.9	4347
3282.661	4361
3284.419	4484
3286.178	4365
3287.937	4385
3289.695	4403
3291.453	4459
3293.21	4316
3294.967	4358
3296.723	4403
3298.48	4537
3300.235	4300
3301.99	4428
3303.744	4340
3305.498	4442
3307.253	4367
3309.006	4399
3310.759	4427
3312.511	4389
3314.263	4345
3316.017	4360
3317.768	4408
3319.519	4399
3321.268	4371
3323.018	4307
3324.767	4338
3326.518	4370
3328.267	4363
3330.014	4369
3331.762	4366
3333.509	4317
3335.258	4292
3337.003	4315
3338.75	4336
3340.496	4260
3342.24	4231
3343.987	4397
3345.732	4433
3347.475	4329
3349.219	4370
3350.961	4293
3352.705	4288
3354.448	4388
3356.19	4303
3357.931	4284
3359.672	4260
3361.412	4322
3363.155	4305
3364.894	4217
3366.633	4316
3368.372	4334
3370.11	4281
3371.849	4194
3373.588	4201
3375.325	4237
3377.061	4282
3378.799	4196
3380.534	4258
3382.271	4243
3384.006	4261
3385.741	4270
3387.475	4265
3389.209	4329
3390.944	4269
3392.677	4172
3394.409	4236
3396.143	4204
3397.874	4116
3399.606	4155
3401.338	4171
3403.069	4245
3404.799	4254
3406.528	4180
3408.258	4123
3409.988	4238
3411.717	4210
3413.445	4117
3415.173	4177
3416.899	4211
3418.626	4136
3420.354	4099
3422.08	4166
3423.806	4208
3425.531	4148
3427.255	4140
3428.981	4210
3430.705	4151
3432.429	4144
3434.151	4194
3435.875	4113
3437.599	4192
3439.321	4112
3441.042	4160
3442.763	4175
3444.483	4185
3446.204	4155
3447.926	4096
3449.645	4079
3451.364	4091
3453.082	4002
3454.801	4073
3456.52	4050
3458.238	4138
3459.954	4101
3461.671	4097
3463.387	4054
3465.104	3952
3466.82	3989
3468.534	4010
3470.25	4155
3471.963	3998
3473.676	3964
3475.392	4057
3477.104	4015
3478.817	3987
3480.528	3942
3482.241	4011
3483.954	4052
3485.664	4021
3487.374	4042
3489.084	3985
3490.795	3965
3492.504	3986
3494.214	4043
3495.922	3994
3497.63	3949
3499.338	3958
3501.045	4012
3502.753	4007
3504.459	3911
3506.166	3979
3507.871	4037
3509.576	3952
3511.283	3957
3512.987	3957
3514.691	4002
3516.395	3828
3518.098	3885
3519.8	3945
3521.504	3928
3523.206	3865
3524.908	3889
3526.609	3845
3528.309	3901
3530.011	3921
3531.711	3935
3533.411	3915
3535.109	3890
3536.808	3888
3538.507	3843
3540.206	3859
3541.904	3869
3543.601	3839
3545.297	3825
3546.994	3826
3548.69	3897
3550.387	3776
3552.081	3894
3553.776	3845
3555.47	3820
3557.166	3857
3558.859	3891
3560.553	3867
3562.245	3844
3563.938	3773
3565.629	3888
3567.322	3869
3569.014	3834
3570.704	3843
3572.394	3738
3574.084	3829
3575.775	3882
3577.464	3789
3579.152	3836
3580.842	3785
3582.529	3770
3584.216	3795
3585.905	3784
3587.591	3732
3589.279	3858
3590.964	3785
3592.649	3774
3594.336	3753
3596.021	3720
3597.705	3756
3599.388	3827
3601.072	3736
3602.757	3765
3604.439	3678
3606.122	3751
3607.803	3720
3609.485	3813
3611.167	3677
3612.849	3594
3614.529	3709
3616.208	3712
3617.888	3609
3619.567	3652
3621.247	3663
3622.926	3659
3624.603	3624
3626.281	3644
3627.958	3687
3629.635	3697
3631.312	3720
3632.989	3595
3634.665	3642
3636.339	3648
3638.014	3658
3639.691	3633
3641.364	3670
3643.038	3624
3644.71	3562
3646.384	3653
3648.058	3600
3649.729	3596
3651.402	3568
3653.073	3634
3654.744	3568
3656.414	3630
3658.085	3566
3659.755	3578
3661.424	3590
3663.094	3636
3664.762	3526
3666.431	3533
3668.099	3497
3669.766	3522
3671.433	3612
3673.099	3580
3674.768	3562
3676.433	3592
3678.098	3597
3679.763	3563
3681.428	3523
3683.093	3582
3684.757	3577
3686.421	3580
3688.083	3575
3689.746	3467
3691.408	3555
3693.071	3609
3694.733	3528
3696.394	3502
3698.054	3572
3699.715	3494
3701.375	3529
3703.036	3542
3704.695	3453
3706.354	3496
3708.012	3532
3709.67	3527
3711.329	3466
3712.987	3457
3714.644	3493
3716.299	3493
3717.955	3491
3719.613	3461
3721.268	3499
3722.923	3463
3724.577	3532
3726.231	3441
3727.885	3465
3729.539	3483
3731.192	3484
3732.845	3492
3734.497	3512
3736.149	3439
3737.802	3477
3739.453	3444
3741.104	3427
3742.753	3374
3744.404	3466
3746.052	3425
3747.704	3474
3749.352	3388
3751	3504
3752.648	3418
3754.296	3360
3755.944	3451
3757.59	3478
3759.238	3482
3760.883	3410
3762.528	3487
3764.176	3388
3765.82	3372
3767.464	3454
3769.109	3320
3770.753	3428
3772.396	3378
3774.04	3391
3775.683	3381
3777.325	3414
3778.967	3335
3780.608	3397
3782.25	3405
3783.89	3335
3785.531	3238
3787.17	3359
3788.81	3342
3790.45	3291
3792.09	3369
3793.729	3358
3795.366	3286
3797.003	3372
3798.64	3304
3800.278	3298
3801.915	3284
3803.551	3318
3805.187	3354
3806.822	3251
3808.458	3343
3810.093	3274
3811.726	3224
3813.36	3315
3814.994	3267
3816.627	3320
3818.262	3226
3819.893	3366
3821.525	3237
3823.157	3182
3824.787	3255
3826.42	3207
3828.051	3320
3829.68	3293
3831.31	3195
3832.938	3256
3834.569	3258
3836.198	3174
3837.825	3235
3839.454	3317
3841.08	3310
3842.708	3217
3844.335	3310
3845.962	3279
3847.587	3198
3849.212	3261
3850.838	3192
3852.463	3208
3854.089	3258
3855.712	3185
3857.335	3251
3858.959	3258
3860.582	3230
3862.205	3233
3863.827	3242
3865.449	3163
3867.07	3248
3868.691	3149
3870.312	3176
3871.933	3255
3873.553	3153
3875.173	3205
3876.792	3258
3878.411	3201
3880.03	3203
3881.647	3184
3883.265	3179
3884.882	3199
3886.499	3169
3888.116	3121
3889.732	3123
3891.348	3244
3892.964	3166
3894.579	3113
3896.195	3124
3897.809	3159
3899.423	3160
3901.036	3162
3902.648	3121
3904.261	3107
3905.875	3150
3907.487	3128
3909.099	3189
3910.709	3084
3912.321	3171
3913.933	3082
3915.542	3095
3917.152	3152
3918.762	3125
3920.37	3099
3921.98	3121
3923.589	3130
3925.196	3087
3926.804	3089
3928.41	3136
3930.018	3111
3931.626	3133
3933.231	3050
3934.838	3129
3936.442	3106
3938.046	3066
3939.653	3076
3941.257	3053
3942.861	3100
3944.464	3068
3946.068	3167
3947.67	3068
3949.273	3108
3950.876	3075
3952.477	3035
3954.078	3098
3955.678	3061
3957.281	3029
3958.881	3064
3960.48	3069
3962.079	3082
3963.678	3071
3965.279	2973
3966.877	3031
3968.475	3105
3970.072	3011
3971.669	3013
3973.266	3070
3974.864	3070
3976.459	3044
3978.055	2984
3979.65	3076
3981.245	2932
3982.841	3027
3984.436	3024
3986.03	2940
3987.623	3030
3989.216	2979
3990.809	2941
3992.403	2946
3993.995	2987
3995.586	2897
3997.177	2959
3998.768	2899
4000.361	2932
4001.951	2916
4003.54	3009
4005.13	2979
4006.719	2891
4008.31	2970
4009.897	2804
4011.485	2942
4013.073	2888
4014.66	2936
4016.247	2893
4017.834	2899
4019.421	2961
4021.006	2929
4022.592	2864
4024.178	3009
4025.763	2886
4027.348	2856
4028.932	2951
4030.515	2895
4032.099	2772
4033.682	3000
4035.266	2904
4036.847	2826
4038.429	2854
4040.011	2939
4041.592	2897
4043.173	2835
4044.755	2878
4046.334	2872
4047.913	2857
4049.494	2891
4051.074	2908
4052.652	2832
4054.23	2843
4055.807	2856
4057.385	2876
4058.963	2858
4060.541	2833
4062.117	2697
4063.693	2816
4065.269	2816
4066.844	2759
4068.42	2827
4069.995	2830
4071.569	2770
4073.143	2774
4074.716	2845
4076.291	2840
4077.864	2790
4079.436	2804
4081.009	2756
4082.58	2834
4084.152	2771
4085.723	2851
4087.294	2847
4088.865	2760
4090.435	2801
4092.005	2821
4093.574	2807
4095.143	2795
4096.712	2773
4098.279	2816
4099.848	2805
4101.416	2743
4102.984	2756
4104.55	2737
4106.117	2729
4107.682	2753
4109.248	2808
4110.815	2761
4112.379	2777
4113.945	2768
4115.508	2760
4117.073	2692
4118.637	2751
4120.201	2733
4121.763	2714
4123.325	2744
4124.888	2720
4126.449	2692
4128.013	2779
4129.573	2737
4131.133	2744
4132.694	2599
4134.254	2711
4135.814	2701
4137.374	2659
4138.933	2720
4140.491	2729
4142.049	2726
4143.607	2774
4145.167	2618
4146.724	2670
4148.28	2687
4149.836	2606
4151.392	2647
4152.949	2714
4154.504	2657
4156.059	2632
4157.614	2639
4159.168	2613
4160.723	2676
4162.277	2625
4163.83	2607
4165.383	2649
4166.936	2601
4168.488	2646
4170.041	2715
4171.593	2681
4173.144	2604
4174.695	2655
4176.246	2647
4177.796	2580
4179.346	2589
4180.896	2641
4182.445	2603
4183.994	2671
4185.542	2562
4187.091	2559
4188.639	2555
4190.185	2562
4191.732	2603
4193.279	2619
4194.826	2542
4196.373	2593
4197.918	2645
4199.463	2646
4201.008	2613
4202.553	2550
4204.098	2502
4205.641	2569
4207.185	2573
4208.728	2540
4210.271	2489
4211.814	2597
4213.357	2573
4214.898	2569
4216.439	2495
4217.98	2485
4219.522	2511
4221.062	2540
4222.603	2522
4224.142	2501
4225.681	2572
4227.222	2500
4228.76	2488
4230.298	2498
4231.835	2594
4233.373	2496
4234.911	2542
4236.449	2567
4237.985	2511
4239.521	2508
4241.057	2524
4242.592	2499
4244.128	2458
4245.663	2545
4247.197	2546
4248.731	2531
4250.265	2437
4251.798	2510
4253.333	2497
4254.865	2449
4256.397	2473
4257.93	2477
4259.461	2436
4260.994	2488
4262.525	2468
4264.056	2467
4265.586	2452
4267.115	2463
4268.646	2500
4270.176	2487
4271.705	2447
4273.232	2438
4274.761	2471
4276.289	2463
4277.818	2434
4279.345	2431
4280.872	2421
4282.399	2434
4283.924	2404
4285.452	2504
4286.976	2410
4288.502	2475
4290.026	2422
4291.551	2419
4293.074	2496
4294.6	2422
4296.123	2457
4297.646	2455
4299.168	2379
4300.691	2429
4302.214	2427
4303.736	2425
4305.257	2415
4306.778	2363
4308.299	2374
4309.82	2418
4311.34	2389
4312.86	2423
4314.379	2379
