400.0745	5429
402.597	5290
405.1208	5430
407.6419	5468
410.1623	5554
412.6819	5442
415.201	5464
417.7172	5457
420.2369	5591
422.7538	5593
425.2701	5654
427.7856	5619
430.3005	5733
432.8147	5731
435.3282	5792
437.841	5703
440.3511	5686
442.8625	5690
445.3753	5819
447.8854	5689
450.3927	5839
452.9014	5728
455.4073	5813
457.9146	5794
460.4233	5758
462.9272	5839
465.4325	5764
467.935	5661
470.4389	5756
472.9421	5913
475.4446	5944
477.9444	5793
480.4456	5829
482.944	5941
485.4417	5825
487.9429	5834
490.4393	5826
492.935	5872
495.4321	6045
497.9264	5964
500.4221	5956
502.9171	5884
505.4094	6190
507.9011	5911
510.392	5974
512.8864	5989
515.3759	6055
517.8649	6038
520.3531	5871
522.8406	6036
525.3275	6042
527.8178	6063
530.3033	6020
532.7881	6060
535.2723	6043
537.7558	6029
540.2407	6118
542.7228	6049
545.2043	5991
547.6851	6072
550.1652	6067
552.6467	6004
555.1255	6068
557.6016	5960
560.079	6101
562.5557	6181
565.0318	6191
567.5092	6210
569.984	6052
572.456	6086
574.9294	6273
577.4022	6203
579.8762	6178
582.3456	6329
584.8163	6444
587.2863	6294
589.7557	6247
592.2224	6227
594.6924	6329
597.1578	6392
599.6245	6291
602.0905	6240
604.5538	6242
607.0206	6275
609.4825	6310
611.9459	6301
614.4066	6294
616.8686	6285
619.33	6151
621.7906	6314
624.2487	6227
626.708	6255
629.1647	6278
631.6207	6263
634.0801	6120
636.5348	6312
638.9888	6285
641.4442	6273
643.8969	6202
646.3509	6320
648.8022	6354
651.255	6399
653.705	6293
656.1544	6366
658.6031	6407
661.0532	6424
663.5026	6437
665.9493	6311
668.3954	6490
670.8409	6559
673.2877	6490
675.7318	6457
678.1752	6433
680.618	6528
683.0601	6428
685.5035	6492
687.9444	6521
690.3845	6498
692.824	6524
695.2628	6497
697.701	6643
700.1406	6488
702.5774	6609
705.0116	6527
707.4472	6562
709.8821	6526
712.3183	6597
714.7519	6676
717.1829	6589
719.6151	6734
722.0468	6667
724.4777	6606
726.908	6716
729.3377	6715
731.7667	6646
734.1931	6729
736.6208	6781
739.0498	6855
741.4742	6804
743.9	6921
746.3231	6753
748.7476	6793
751.1713	6882
753.5945	6868
756.015	6905
758.4368	6911
760.856	6944
763.2766	7002
765.6965	6923
768.1157	6919
770.5323	6983
772.9483	7015
775.3656	7036
777.7822	6971
780.1963	6930
782.6116	7029
785.0244	6879
787.4365	7092
789.8499	7054
792.2626	7067
794.6728	7144
797.0823	7103
799.4911	7142
801.8994	7005
804.3109	7094
806.7178	7164
809.124	6970
811.5297	7065
813.9347	7047
816.341	7060
818.7447	7094
821.1478	7013
823.5502	7099
825.952	7095
828.3531	7059
830.7556	7173
833.1554	7105
835.5546	7233
837.9532	7237
840.3511	7058
842.7504	7078
845.1451	7193
847.5411	7264
849.9365	7093
852.3312	7222
854.7272	7238
857.1187	7411
859.5115	7193
861.9037	7240
864.2952	7252
866.6842	7092
869.0764	7156
871.4661	7247
873.8531	7193
876.2415	7121
878.6272	7238
881.0162	7261
883.4026	7232
885.7866	7214
888.1717	7059
890.5543	7104
892.9382	7101
895.3215	7168
897.7041	7175
900.0842	7159
902.4655	7142
904.8443	7251
907.2244	7290
909.6039	7271
911.9808	7125
914.357	7271
916.7346	7418
919.1115	7321
921.4859	7381
923.8616	7486
926.2347	7581
928.6071	7395
930.979	7554
933.3541	7467
935.7247	7618
938.0946	7489
940.4639	7603
942.8326	7625
945.2026	7702
947.5701	7670
949.9369	7887
952.305	8092
954.6705	8172
957.0355	8283
959.4017	8614
961.7654	8613
964.1284	8749
966.4908	8630
968.8527	8222
971.2138	7975
973.5743	7912
975.9343	7735
978.2936	7533
980.6522	7550
983.0122	7448
985.3696	7356
987.7245	7427
990.0807	7429
992.4362	7428
994.7911	7384
997.1474	7402
999.4991	7307
1001.852	7374
1004.205	7537
1006.555	7493
1008.908	7314
1011.258	7422
1013.606	7469
1015.956	7486
1018.302	7589
1020.652	7389
1022.998	7480
1025.345	7510
1027.691	7411
1030.035	7450
1032.378	7546
1034.724	7553
1037.066	7531
1039.409	7590
1041.75	7721
1044.092	7634
1046.433	7622
1048.771	7634
1051.112	7567
1053.449	7362
1055.786	7730
1058.124	7719
1060.462	7609
1062.797	7528
1065.131	7765
1067.467	7605
1069.8	7658
1072.135	7674
1074.467	7724
1076.798	7657
1079.129	7553
1081.459	7599
1083.792	7693
1086.121	7683
1088.449	7648
1090.777	7631
1093.104	7729
1095.431	7624
1097.759	7570
1100.084	7586
1102.408	7621
1104.732	7586
1107.056	7713
1109.379	7723
1111.701	7570
1114.022	7700
1116.343	7617
1118.664	7603
1120.983	7710
1123.303	7620
1125.621	7711
1127.939	7645
1130.256	7582
1132.573	7652
1134.889	7835
1137.205	7780
1139.52	7659
1141.832	7698
1144.146	7678
1146.461	7654
1148.771	7643
1151.083	7670
1153.392	7704
1155.703	7644
1158.011	7666
1160.323	7595
1162.629	7691
1164.938	7648
1167.243	7625
1169.55	7662
1171.857	7644
1174.163	7709
1176.466	7707
1178.769	7690
1181.073	7840
1183.374	7804
1185.677	7526
1187.979	7689
1190.279	7619
1192.578	7642
1194.878	7651
1197.178	7686
1199.476	7660
1201.772	7632
1204.068	7645
1206.366	7711
1208.663	7614
1210.957	7647
1213.251	7657
1215.544	7690
1217.836	7724
1220.128	7720
1222.421	7759
1224.712	7741
1227.002	7800
1229.292	7654
1231.581	7734
1233.871	7811
1236.159	7849
1238.446	7821
1240.732	7860
1243.018	7870
1245.304	7862
1247.59	7874
1249.874	7832
1252.156	8012
1254.439	7943
1256.721	7842
1259.005	7962
1261.286	7871
1263.565	7875
1265.845	7906
1268.125	7950
1270.403	8095
1272.682	7833
1274.959	8007
1277.234	7912
1279.511	7873
1281.787	7949
1284.062	7875
1286.337	7856
1288.609	7812
1290.882	7706
1293.153	7723
1295.428	7777
1297.698	7769
1299.969	7871
1302.237	7791
1304.507	7691
1306.777	7969
1309.044	7806
1311.312	7869
1313.578	7838
1315.844	7891
1318.109	7836
1320.375	7830
1322.638	7818
1324.903	7769
1327.165	7782
1329.427	7795
1331.69	7963
1333.952	7969
1336.212	7758
1338.471	7840
1340.73	7879
1342.988	7822
1345.248	7913
1347.505	7884
1349.763	7767
1352.019	7680
1354.274	7840
1356.53	7881
1358.784	7878
1361.038	7848
1363.291	7835
1365.543	7866
1367.797	7861
1370.048	7766
1372.296	7766
1374.546	7985
1376.796	7882
1379.045	7871
1381.295	7868
1383.542	7814
1385.787	7876
1388.034	7966
1390.28	7937
1392.527	7908
1394.772	8030
1397.014	8018
1399.258	7874
1401.501	7888
1403.741	8032
1405.985	7932
1408.226	7989
1410.465	8010
1412.705	8019
1414.943	8175
1417.184	7961
1419.42	8062
1421.658	8161
1423.894	8079
1426.13	7984
1428.366	8102
1430.602	8070
1432.835	8153
1435.069	8121
1437.301	8116
1439.535	8274
1441.767	8137
1443.997	8098
1446.229	8106
1448.458	8143
1450.687	8191
1452.916	8292
1455.146	8197
1457.372	8261
1459.599	8112
1461.824	8173
1464.051	8268
1466.277	8191
1468.501	8098
1470.725	8077
1472.948	7993
1475.17	8005
1477.393	8122
1479.614	8044
1481.837	7892
1484.057	7926
1486.276	7915
1488.497	7962
1490.715	7873
1492.932	7880
1495.148	7840
1497.364	7936
1499.58	7834
1501.798	7744
1504.012	7764
1506.227	7712
1508.44	7801
1510.653	7883
1512.866	7816
1515.078	7778
1517.289	7829
1519.5	7823
1521.711	7741
1523.92	7770
1526.13	7841
1528.338	7833
1530.544	7830
1532.752	7816
1534.959	7874
1537.165	7887
1539.371	7741
1541.574	7840
1543.779	7764
1545.983	7900
1548.187	7755
1550.39	8002
1552.59	7973
1554.792	7857
1556.991	7828
1559.19	8085
1561.392	7866
1563.59	8028
1565.789	7826
1567.986	8035
1570.182	7996
1572.381	8008
1574.576	7962
1576.771	8021
1578.966	8045
1581.16	8046
1583.354	7986
1585.546	7993
1587.74	8082
1589.931	8028
1592.121	8095
1594.311	8059
1596.502	8139
1598.693	8004
1600.881	8052
1603.069	8213
1605.256	8132
1607.445	8078
1609.631	8152
1611.816	8023
1614.001	8191
1616.186	8078
1618.37	8137
1620.555	8163
1622.737	8110
1624.919	8119
1627.101	8176
1629.282	8085
1631.463	8235
1633.643	8246
1635.822	8202
1638.001	8085
1640.179	8071
1642.359	8206
1644.534	8284
1646.711	8233
1648.887	8080
1651.062	8250
1653.235	8257
1655.412	8200
1657.586	8084
1659.757	8201
1661.93	8046
1664.1	8352
1666.274	8296
1668.445	8366
1670.614	8211
1672.784	8222
1674.951	8164
1677.12	8210
1679.289	8187
1681.457	8139
1683.622	8327
1685.789	8106
1687.953	8180
1690.121	8164
1692.284	8197
1694.447	8186
1696.611	8124
1698.772	8244
1700.935	8102
1703.098	8109
1705.258	8197
1707.417	8017
1709.576	8030
1711.736	7893
1713.896	8193
1716.053	8114
1718.21	7994
1720.366	7987
1722.522	7977
1724.68	7936
1726.835	8004
1728.989	7968
1731.142	8026
1733.295	7941
1735.449	8148
1737.601	7924
1739.753	8062
1741.903	8041
1744.054	8181
1746.203	8008
1748.354	8096
1750.503	8190
1752.651	7961
1754.798	8045
1756.944	7961
1759.092	7977
1761.238	8048
1763.383	8048
1765.528	8069
1767.672	8067
1769.814	8261
1771.959	8121
1774.102	8101
1776.242	8006
1778.384	8196
1780.525	8121
1782.665	8124
1784.805	8195
1786.945	8070
1789.082	8121
1791.22	8125
1793.36	8272
1795.495	8257
1797.632	8079
1799.766	8118
1801.902	8138
1804.035	8101
1806.172	8089
1808.304	8126
1810.436	8134
1812.569	8073
1814.699	8171
1816.833	8122
1818.963	8049
1821.092	8160
1823.222	7965
1825.35	8198
1827.478	7927
1829.608	7973
1831.734	8096
1833.86	8123
1835.986	7979
1838.11	8071
1840.238	8135
1842.362	8122
1844.485	8147
1846.608	8059
1848.73	7949
1850.853	8041
1852.974	8026
1855.097	7950
1857.217	8040
1859.336	8123
1861.455	7840
1863.576	8036
1865.693	7973
1867.811	8147
1869.926	8083
1872.042	8051
1874.16	8010
1876.275	8109
1878.39	8076
1880.504	8106
1882.618	8048
1884.731	8011
1886.843	8127
1888.956	8132
1891.067	7951
1893.178	8085
1895.287	8098
1897.399	8100
1899.508	7972
1901.617	8108
1903.724	8066
1905.832	8062
1907.941	8021
1910.046	8130
1912.152	8174
1914.256	8111
1916.361	8123
1918.464	8080
1920.57	8098
1922.672	8143
1924.775	8063
1926.876	8131
1928.978	8213
1931.08	8255
1933.181	8267
1935.28	8211
1937.38	8054
1939.478	8191
1941.577	8214
1943.675	8278
1945.771	8070
1947.867	8086
1949.964	8188
1952.058	8211
1954.154	8121
1956.248	8136
1958.343	8158
1960.435	8160
1962.527	8044
1964.62	8199
1966.711	8081
1968.802	8157
1970.892	8051
1972.983	8122
1975.072	8182
1977.162	8031
1979.25	8028
1981.337	8065
1983.424	7961
1985.51	8152
1987.598	8064
1989.683	8039
1991.768	8119
1993.852	8101
1995.934	8143
1998.019	7982
2000.102	7979
2002.184	8108
2004.266	8100
2006.347	7910
2008.427	8167
2010.508	8001
2012.587	7998
2014.666	8121
2016.745	8009
2018.821	7998
2020.9	7903
2022.977	8017
2025.052	8064
2027.128	8120
2029.204	7982
2031.277	7991
2033.353	8024
2035.425	8022
2037.499	7986
2039.57	8104
2041.642	8165
2043.714	8084
2045.786	8117
2047.855	8038
2049.925	8121
2051.993	8055
2054.064	7986
2056.132	7963
2058.2	8126
2060.266	8035
2062.332	7991
2064.398	8086
2066.465	7902
2068.529	8003
2070.592	7936
2072.657	8176
2074.719	7992
2076.783	8143
2078.845	7879
2080.907	7901
2082.968	7999
2085.028	7957
2087.087	8051
2089.148	8073
2091.207	8205
2093.264	8140
2095.322	7957
2097.379	8076
2099.439	7947
2101.495	7986
2103.55	7956
2105.605	8087
2107.658	8027
2109.713	8079
2111.767	7904
2113.82	8026
2115.872	7987
2117.924	8018
2119.975	7970
2122.028	7915
2124.078	7948
2126.126	8124
2128.176	7904
2130.225	8101
2132.275	7938
2134.321	8067
2136.368	7916
2138.415	7958
2140.461	7974
2142.505	7897
2144.552	8002
2146.597	7929
2148.64	8027
2150.684	7990
2152.725	8041
2154.77	7971
2156.811	7968
2158.852	7931
2160.894	7899
2162.933	8029
2164.973	7955
2167.013	7957
2169.051	7934
2171.089	7898
2173.126	7924
2175.164	7991
2177.201	7927
2179.236	7923
2181.273	7936
2183.307	7813
2185.341	7851
2187.377	7866
2189.41	7799
2191.442	7819
2193.473	7752
2195.506	7849
2197.539	7824
2199.569	7803
2201.598	7814
2203.628	7879
2205.656	7867
2207.686	7827
2209.716	7836
2211.743	7790
2213.769	7863
2215.796	7806
2217.821	7884
2219.848	7821
2221.873	7760
2223.897	7858
2225.921	7726
2227.944	7822
2229.967	7716
2231.991	7792
2234.011	7818
2236.032	7878
2238.053	7736
2240.073	7750
2242.094	7862
2244.114	7787
2246.131	7727
2248.149	7782
2250.167	7863
2252.186	7888
2254.201	7762
2256.218	7697
2258.233	7795
2260.247	7787
2262.262	7901
2264.278	7879
2266.29	7731
2268.303	7888
2270.315	7680
2272.327	7722
2274.341	7702
2276.35	7684
2278.361	7738
2280.37	7798
2282.38	7682
2284.388	7820
2286.397	7783
2288.405	7717
2290.412	7742
2292.419	7821
2294.425	7674
2296.431	7889
2298.437	7667
2300.441	7704
2302.445	7745
2304.449	7627
2306.453	7763
2308.455	7762
2310.457	7707
2312.459	7747
2314.46	7789
2316.46	7699
2318.461	7697
2320.46	7725
2322.458	7675
2324.458	7656
2326.456	7621
2328.455	7625
2330.451	7681
2332.447	7767
2334.443	7680
2336.438	7617
2338.433	7639
2340.429	7609
2342.422	7605
2344.416	7669
2346.408	7767
2348.399	7611
2350.393	7635
2352.384	7697
2354.375	7605
2356.365	7490
2358.355	7476
2360.344	7634
2362.333	7510
2364.322	7594
2366.309	7573
2368.295	7571
2370.282	7424
2372.27	7659
2374.256	7687
2376.24	7689
2378.225	7506
2380.208	7625
2382.194	7558
2384.177	7495
2386.159	7530
2388.142	7418
2390.122	7636
2392.105	7551
2394.085	7452
2396.066	7499
2398.044	7545
2400.024	7557
2402.002	7536
2403.982	7519
2405.959	7329
2407.935	7468
2409.913	7541
2411.888	7626
2413.865	7503
2415.84	7430
2417.814	7505
2419.788	7531
2421.762	7455
2423.735	7453
2425.708	7376
2427.68	7310
2429.651	7406
2431.623	7541
2433.593	7301
2435.564	7394
2437.533	7405
2439.502	7432
2441.47	7411
2443.438	7486
2445.406	7461
2447.373	7404
2449.34	7417
2451.305	7547
2453.271	7334
2455.235	7392
2457.201	7535
2459.165	7417
2461.129	7529
2463.092	7445
2465.054	7541
2467.018	7419
2468.978	7525
2470.939	7327
2472.899	7341
2474.86	7408
2476.819	7372
2478.778	7402
2480.737	7423
2482.695	7340
2484.653	7507
2486.609	7429
2488.567	7367
2490.524	7385
2492.478	7329
2494.433	7310
2496.387	7296
2498.343	7370
2500.297	7348
2502.249	7394
2504.202	7310
2506.153	7426
2508.105	7340
2510.057	7245
2512.008	7292
2513.957	7305
2515.906	7106
2517.855	7370
2519.805	7242
2521.754	7283
2523.7	7265
2525.647	7285
2527.594	7203
2529.54	7360
2531.486	7219
2533.431	7233
2535.376	7236
2537.32	7285
2539.263	7288
2541.207	7386
2543.151	7310
2545.093	7316
2547.034	7316
2548.975	7368
2550.917	7179
2552.856	7324
2554.796	7289
2556.735	7237
2558.673	7253
2560.611	7192
2562.55	7261
2564.487	7127
2566.424	7318
2568.36	7323
2570.296	7277
2572.232	7228
2574.167	7396
2576.101	7150
2578.035	7316
2579.969	7265
2581.902	7214
2583.834	7262
2585.766	7305
2587.698	7109
2589.628	7238
2591.557	7204
2593.489	7129
2595.419	7246
2597.348	7261
2599.275	7278
2601.204	7328
2603.131	7239
2605.059	7211
2606.986	7314
2608.911	7292
2610.837	7289
2612.76	7111
2614.687	7361
2616.61	7283
2618.534	7264
2620.457	7295
2622.38	7246
2624.302	7365
2626.225	7179
2628.145	7421
2630.067	7311
2631.986	7288
2633.906	7340
2635.827	7200
2637.745	7275
2639.662	7292
2641.581	7211
2643.498	7195
2645.415	7255
2647.331	7278
2649.248	7124
2651.163	7299
2653.077	7152
2654.993	7232
2656.906	7247
2658.821	7251
2660.733	7135
2662.646	7233
2664.557	7223
2666.47	7149
2668.381	7099
2670.291	7174
2672.201	7150
2674.11	7186
2676.021	7136
2677.929	7163
2679.837	7214
2681.745	7038
2683.652	7222
2685.56	7086
2687.466	7166
2689.371	7112
2691.276	7199
2693.181	7174
2695.085	7134
2696.991	7182
2698.893	7168
2700.796	7086
2702.698	7093
2704.601	7095
2706.502	7128
2708.404	7004
2710.304	7071
2712.203	7096
2714.103	7030
2716.003	7061
2717.902	7077
2719.8	7094
2721.697	7050
2723.594	7129
2725.49	7072
2727.389	7060
2729.283	7162
2731.179	7021
2733.073	7016
2734.968	6943
2736.863	6919
2738.757	7125
2740.649	6978
2742.541	7055
2744.433	7045
2746.324	7044
2748.216	6981
2750.107	6962
2751.997	7035
2753.886	6972
2755.776	7031
2757.666	6980
2759.553	7002
2761.44	7029
2763.327	6943
2765.215	6980
2767.102	6995
2768.988	7015
2770.873	7033
2772.757	6948
2774.641	6928
2776.525	6956
2778.41	6995
2780.292	6933
2782.175	6972
2784.057	6977
2785.938	7100
2787.821	6979
2789.701	6997
2791.581	6856
2793.461	6876
2795.34	6979
2797.219	6988
2799.099	6817
2800.975	6965
2802.853	7004
2804.73	6815
2806.606	6801
2808.484	6955
2810.358	6856
2812.233	6878
2814.108	6901
2815.981	6845
2817.857	6858
2819.73	6769
2821.602	6783
2823.474	6823
2825.346	6805
2827.217	6851
2829.089	6902
2830.959	6865
2832.829	6900
2834.698	6797
2836.567	6876
2838.436	6970
2840.305	6909
2842.172	6855
2844.04	6896
2845.905	6883
2847.772	6807
2849.639	6948
2851.503	6864
2853.369	6874
2855.232	6918
2857.096	6755
2858.961	6913
2860.824	6889
2862.686	6937
2864.547	6994
2866.41	7015
2868.272	6840
2870.132	7016
2871.992	7078
2873.851	6961
2875.711	7233
2877.57	7123
2879.429	7156
2881.287	7262
2883.144	7321
2885.001	7229
2886.857	7221
2888.714	7333
2890.57	7279
2892.425	7322
2894.279	7368
2896.133	7183
2897.987	7290
2899.842	7242
2901.694	7255
2903.547	7371
2905.397	7208
2907.249	7340
2909.101	7133
2910.952	7245
2912.802	7162
2914.652	7266
2916.5	7282
2918.35	7497
2920.198	7475
2922.045	7489
2923.893	7363
2925.74	7555
2927.585	7545
2929.433	7695
2931.279	7707
2933.123	7708
2934.968	7696
2936.811	7731
2938.656	7881
2940.5	7821
2942.342	7892
2944.185	8032
2946.026	8011
2947.87	7943
2949.71	7920
2951.549	7903
2953.39	7904
2955.229	7746
2957.069	7801
2958.908	7759
2960.746	7671
2962.584	7503
2964.421	7527
2966.257	7506
2968.094	7483
2969.931	7434
2971.766	7376
2973.601	7401
2975.435	7296
2977.27	7349
2979.105	7254
2980.938	7313
2982.77	7324
2984.602	7169
2986.434	7095
2988.267	7199
2990.097	7123
2991.927	7039
2993.757	7098
2995.587	7087
2997.417	7042
2999.246	6931
3001.074	6939
3002.902	6867
3004.729	6917
3006.556	6792
3008.384	6758
3010.21	6769
3012.036	6754
3013.861	6588
3015.684	6711
3017.51	6610
3019.334	6532
3021.157	6508
3022.981	6609
3024.802	6524
3026.624	6434
3028.448	6545
3030.267	6407
3032.088	6538
3033.909	6537
3035.728	6483
3037.549	6411
3039.368	6437
3041.186	6399
3043.004	6470
3044.821	6406
3046.64	6455
3048.455	6404
3050.272	6446
3052.087	6373
3053.903	6413
3055.717	6283
3057.534	6538
3059.347	6321
3061.16	6421
3062.974	6333
3064.785	6520
3066.598	6348
3068.411	6321
3070.222	6280
3072.032	6342
3073.844	6292
3075.653	6283
3077.463	6289
3079.272	6365
3081.08	6445
3082.889	6306
3084.697	6244
3086.505	6244
3088.312	6375
3090.118	6226
3091.924	6243
3093.729	6314
3095.535	6229
3097.34	6277
3099.144	6308
3100.947	6209
3102.75	6145
3104.553	6084
3106.357	6200
3108.159	6224
3109.961	6199
3111.762	6176
3113.562	6120
3115.365	6085
3117.164	6159
3118.964	6155
3120.761	6091
3122.56	6097
3124.36	6105
3126.158	6067
3127.954	6077
3129.75	6090
3131.547	6060
3133.343	6022
3135.139	6112
3136.934	6145
3138.729	6109
3140.522	6012
3142.317	6109
3144.11	6059
3145.904	6028
3147.695	6040
3149.488	5981
3151.28	6091
3153.07	6041
3154.863	5921
3156.652	6105
3158.441	5961
3160.231	5987
3162.019	5933
3163.81	5916
3165.597	5953
3167.384	5875
3169.172	6032
3170.958	5989
3172.745	5953
3174.532	5961
3176.317	5997
3178.101	5979
3179.885	5928
3181.67	5940
3183.455	5864
3185.238	5942
3187.02	5898
3188.802	5961
3190.585	5983
3192.368	5906
3194.149	5866
3195.929	5924
3197.709	5807
3199.489	5851
3201.268	5977
3203.048	5936
3204.826	5948
3206.604	5805
3208.382	5969
3210.159	5935
3211.937	5816
3213.713	5764
3215.489	5946
3217.263	5940
3219.038	5936
3220.815	5901
3222.589	5812
3224.363	5851
3226.136	5880
3227.908	5856
3229.681	5806
3231.454	5828
3233.226	5819
3234.996	5852
3236.767	5841
3238.538	5781
3240.308	5737
3242.078	5837
3243.847	5744
3245.615	5801
3247.384	5835
3249.15	5916
3250.92	5840
3252.686	5680
3254.453	5752
3256.218	5796
3257.984	5849
3259.75	5836
3261.515	5769
3263.279	5881
3265.044	5762
3266.806	5842
3268.57	5850
3270.334	5797
3272.095	5846
3273.856	5752
3275.619	5717
3277.379	5873
3279.14	5716
3280.9	5756
3282.661	5820
3284.419	5875
3286.178	5862
3287.937	5862
3289.695	5690
3291.453	5829
3293.21	5847
3294.967	5814
3296.723	5754
3298.48	5759
3300.235	5685
3301.99	5824
3303.744	5894
3305.498	5832
3307.253	5823
3309.006	5734
3310.759	5789
3312.511	5795
3314.263	5770
3316.017	5731
3317.768	5742
3319.519	5749
3321.268	5834
3323.018	5720
3324.767	5745
3326.518	5728
3328.267	5765
3330.014	5740
3331.762	5699
3333.509	5743
3335.258	5784
3337.003	5894
3338.75	5780
3340.496	5748
3342.24	5713
3343.987	5823
3345.732	5811
3347.475	5639
3349.219	5712
3350.961	5665
3352.705	5692
3354.448	5671
3356.19	5751
3357.931	5628
3359.672	5672
3361.412	5724
3363.155	5684
3364.894	5703
3366.633	5582
3368.372	5574
3370.11	5747
3371.849	5645
3373.588	5649
3375.325	5645
3377.061	5539
3378.799	5509
3380.534	5603
3382.271	5626
3384.006	5651
3385.741	5490
3387.475	5594
3389.209	5671
3390.944	5574
3392.677	5568
3394.409	5500
3396.143	5604
3397.874	5576
3399.606	5444
3401.338	5607
3403.069	5608
3404.799	5429
3406.528	5545
3408.258	5544
3409.988	5585
3411.717	5529
3413.445	5443
3415.173	5550
3416.899	5477
3418.626	5564
3420.354	5454
3422.08	5479
3423.806	5480
3425.531	5468
3427.255	5566
3428.981	5481
3430.705	5434
3432.429	5534
3434.151	5483
3435.875	5461
3437.599	5551
3439.321	5478
3441.042	5390
3442.763	5411
3444.483	5289
3446.204	5466
3447.926	5447
3449.645	5284
3451.364	5404
3453.082	5396
3454.801	5468
3456.52	5330
3458.238	5294
3459.954	5309
3461.671	5396
3463.387	5357
3465.104	5410
3466.82	5227
3468.534	5369
3470.25	5291
3471.963	5298
3473.676	5243
3475.392	5291
3477.104	5343
3478.817	5190
3480.528	5338
3482.241	5228
3483.954	5300
3485.664	5204
3487.374	5169
3489.084	5256
3490.795	5337
3492.504	5271
3494.214	5207
3495.922	5122
3497.63	5129
3499.338	5133
3501.045	5111
3502.753	5098
3504.459	5077
3506.166	5168
3507.871	5149
3509.576	5085
3511.283	5157
3512.987	5203
3514.691	5143
3516.395	5114
3518.098	5124
3519.8	5091
3521.504	5193
3523.206	5120
3524.908	5120
3526.609	5051
3528.309	5110
3530.011	5144
3531.711	5154
3533.411	5105
3535.109	5017
3536.808	5120
3538.507	5053
3540.206	5039
3541.904	5057
3543.601	5008
3545.297	5116
3546.994	4949
3548.69	5108
3550.387	5000
3552.081	4936
3553.776	5022
3555.47	5043
3557.166	4966
3558.859	5018
3560.553	5004
3562.245	5002
3563.938	4962
3565.629	5063
3567.322	4968
3569.014	5029
3570.704	5025
3572.394	4986
3574.084	4930
3575.775	4917
3577.464	4991
3579.152	4902
3580.842	4870
3582.529	4968
3584.216	4960
3585.905	4887
3587.591	4941
3589.279	4999
3590.964	4927
3592.649	4849
3594.336	4865
3596.021	4956
3597.705	4760
3599.388	4883
3601.072	4838
3602.757	4809
3604.439	4714
3606.122	4806
3607.803	4809
3609.485	4805
3611.167	4841
3612.849	4785
3614.529	4866
3616.208	4824
3617.888	4719
3619.567	4868
3621.247	4834
3622.926	4705
3624.603	4661
3626.281	4680
3627.958	4791
3629.635	4702
3631.312	4752
3632.989	4702
3634.665	4820
3636.339	4670
3638.014	4790
3639.691	4661
3641.364	4711
3643.038	4772
3644.71	4696
3646.384	4599
3648.058	4655
3649.729	4761
3651.402	4617
3653.073	4679
3654.744	4621
3656.414	4701
3658.085	4656
3659.755	4646
3661.424	4643
3663.094	4566
3664.762	4627
3666.431	4594
3668.099	4595
3669.766	4593
3671.433	4459
3673.099	4610
3674.768	4579
3676.433	4576
3678.098	4513
3679.763	4576
3681.428	4570
3683.093	4528
3684.757	4614
3686.421	4602
3688.083	4600
3689.746	4489
3691.408	4670
3693.071	4537
3694.733	4552
3696.394	4496
3698.054	4546
3699.715	4541
3701.375	4534
3703.036	4588
3704.695	4487
3706.354	4572
3708.012	4508
3709.67	4494
3711.329	4537
3712.987	4500
3714.644	4515
3716.299	4454
3717.955	4484
3719.613	4610
3721.268	4506
3722.923	4428
3724.577	4390
3726.231	4477
3727.885	4496
3729.539	4391
3731.192	4479
3732.845	4586
3734.497	4468
3736.149	4405
3737.802	4461
3739.453	4512
3741.104	4398
3742.753	4432
3744.404	4389
3746.052	4339
3747.704	4356
3749.352	4451
3751	4484
3752.648	4357
3754.296	4522
3755.944	4340
3757.59	4394
3759.238	4400
3760.883	4334
3762.528	4468
3764.176	4495
3765.82	4374
3767.464	4300
3769.109	4495
3770.753	4369
3772.396	4288
3774.04	4414
3775.683	4403
3777.325	4387
3778.967	4266
3780.608	4291
3782.25	4376
3783.89	4310
3785.531	4209
3787.17	4384
3788.81	4264
3790.45	4324
3792.09	4406
3793.729	4305
3795.366	4248
3797.003	4299
3798.64	4347
3800.278	4185
3801.915	4196
3803.551	4295
3805.187	4236
3806.822	4282
3808.458	4267
3810.093	4278
3811.726	4287
3813.36	4258
3814.994	4193
3816.627	4172
3818.262	4308
3819.893	4223
3821.525	4174
3823.157	4238
3824.787	4313
3826.42	4164
3828.051	4108
3829.68	4175
3831.31	4143
3832.938	4178
3834.569	4119
3836.198	4186
3837.825	4051
3839.454	4209
3841.08	4151
3842.708	4117
3844.335	4220
3845.962	4115
3847.587	4124
3849.212	4140
3850.838	4140
3852.463	4123
3854.089	4106
3855.712	4169
3857.335	4157
3858.959	4206
3860.582	4092
3862.205	4111
3863.827	4105
3865.449	4081
3867.07	4139
3868.691	4048
3870.312	4113
3871.933	4091
3873.553	4050
3875.173	4187
3876.792	4106
3878.411	4049
3880.03	4076
3881.647	4071
3883.265	4143
3884.882	4046
3886.499	4010
3888.116	4117
3889.732	4068
3891.348	4084
3892.964	4011
3894.579	3977
3896.195	4047
3897.809	4093
3899.423	4030
3901.036	4061
3902.648	4065
3904.261	3995
3905.875	4044
3907.487	4078
3909.099	4046
3910.709	3989
3912.321	4056
3913.933	4041
3915.542	3984
3917.152	4056
3918.762	4029
3920.37	3923
3921.98	4015
3923.589	3934
3925.196	3996
3926.804	4076
3928.41	3998
3930.018	4026
3931.626	3931
3933.231	4041
3934.838	3952
3936.442	3906
3938.046	4030
3939.653	3878
3941.257	3916
3942.861	3984
3944.464	3957
3946.068	3942
3947.67	3915
3949.273	3897
3950.876	3935
3952.477	3949
3954.078	4003
3955.678	3970
3957.281	3891
3958.881	3951
3960.48	3849
3962.079	3796
3963.678	3779
3965.279	3976
3966.877	3845
3968.475	3881
3970.072	3861
3971.669	3922
3973.266	3862
3974.864	3893
3976.459	3831
3978.055	3866
3979.65	3852
3981.245	3854
3982.841	3822
3984.436	3809
3986.03	3811
3987.623	3863
3989.216	3849
3990.809	3866
3992.403	3771
3993.995	3876
3995.586	3806
3997.177	3815
3998.768	3796
4000.361	3695
4001.951	3852
4003.54	3766
4005.13	3794
4006.719	3750
4008.31	3707
4009.897	3737
4011.485	3697
4013.073	3773
4014.66	3746
4016.247	3744
4017.834	3754
4019.421	3792
4021.006	3651
4022.592	3640
4024.178	3736
4025.763	3790
4027.348	3722
4028.932	3776
4030.515	3672
4032.099	3742
4033.682	3722
4035.266	3693
4036.847	3651
4038.429	3634
4040.011	3707
4041.592	3665
4043.173	3681
4044.755	3672
4046.334	3689
4047.913	3660
4049.494	3591
4051.074	3628
4052.652	3657
4054.23	3583
4055.807	3689
4057.385	3580
4058.963	3651
4060.541	3658
4062.117	3700
4063.693	3579
4065.269	3722
4066.844	3561
4068.42	3634
4069.995	3561
4071.569	3599
4073.143	3631
4074.716	3554
4076.291	3567
4077.864	3643
4079.436	3535
4081.009	3511
4082.58	3605
4084.152	3590
4085.723	3598
4087.294	3547
4088.865	3576
4090.435	3585
4092.005	3642
4093.574	3581
4095.143	3532
4096.712	3518
4098.279	3564
4099.848	3544
4101.416	3473
4102.984	3601
4104.55	3479
4106.117	3514
4107.682	3386
4109.248	3629
4110.815	3519
4112.379	3572
4113.945	3527
4115.508	3407
4117.073	3435
4118.637	3521
4120.201	3509
4121.763	3464
4123.325	3530
4124.888	3439
4126.449	3449
4128.013	3493
4129.573	3476
4131.133	3442
4132.694	3542
4134.254	3434
4135.814	3481
4137.374	3451
4138.933	3441
4140.491	3362
4142.049	3465
4143.607	3481
4145.167	3366
4146.724	3423
4148.28	3459
4149.836	3373
4151.392	3427
4152.949	3417
4154.504	3442
4156.059	3415
4157.614	3335
4159.168	3369
4160.723	3344
4162.277	3341
4163.83	3343
4165.383	3356
4166.936	3376
4168.488	3337
4170.041	3287
4171.593	3378
4173.144	3342
4174.695	3329
4176.246	3351
4177.796	3337
4179.346	3308
4180.896	3374
4182.445	3292
4183.994	3327
4185.542	3312
4187.091	3273
4188.639	3338
4190.185	3326
4191.732	3243
4193.279	3231
4194.826	3266
4196.373	3252
4197.918	3262
4199.463	3264
4201.008	3334
4202.553	3265
4204.098	3171
4205.641	3348
4207.185	3269
4208.728	3184
4210.271	3220
4211.814	3397
4213.357	3146
4214.898	3272
4216.439	3245
4217.98	3215
4219.522	3216
4221.062	3236
4222.603	3214
4224.142	3237
4225.681	3242
4227.222	3221
4228.76	3175
4230.298	3163
4231.835	3194
4233.373	3239
4234.911	3195
4236.449	3207
4237.985	3216
4239.521	3195
4241.057	3185
4242.592	3196
4244.128	3159
4245.663	3147
4247.197	3190
4248.731	3234
4250.265	3180
4251.798	3169
4253.333	3210
4254.865	3134
4256.397	3167
4257.93	3151
4259.461	3121
4260.994	3217
4262.525	3083
4264.056	3086
4265.586	3258
4267.115	3200
4268.646	3147
4270.176	3078
4271.705	3157
4273.232	3086
4274.761	3150
4276.289	3100
4277.818	3132
4279.345	3149
4280.872	3146
4282.399	3115
4283.924	3077
4285.452	3137
4286.976	3068
4288.502	3157
4290.026	3043
4291.551	3115
4293.074	3107
4294.6	3064
4296.123	3123
4297.646	3064
4299.168	3050
4300.691	3118
4302.214	3076
4303.736	3138
4305.257	3111
4306.778	3035
4308.299	3074
4309.82	3013
4311.34	3115
4312.86	2998
4314.379	3050
