400.0745	4247
402.597	4342
405.1208	4367
407.6419	4304
410.1623	4325
412.6819	4355
415.201	4356
417.7172	4385
420.2369	4468
422.7538	4445
425.2701	4395
427.7856	4532
430.3005	4535
432.8147	4601
435.3282	4580
437.841	4633
440.3511	4568
442.8625	4640
445.3753	4593
447.8854	4631
450.3927	4643
452.9014	4603
455.4073	4660
457.9146	4454
460.4233	4687
462.9272	4618
465.4325	4557
467.935	4618
470.4389	4614
472.9421	4626
475.4446	4687
477.9444	4613
480.4456	4774
482.944	4795
485.4417	4742
487.9429	4707
490.4393	4637
492.935	4725
495.4321	4739
497.9264	4739
500.4221	4734
502.9171	4684
505.4094	4879
507.9011	4779
510.392	4775
512.8864	4897
515.3759	4752
517.8649	4834
520.3531	4840
522.8406	4812
525.3275	4852
527.8178	4811
530.3033	4832
532.7881	4868
535.2723	4862
537.7558	4852
540.2407	4868
542.7228	4879
545.2043	4788
547.6851	4915
550.1652	4895
552.6467	4787
555.1255	4931
557.6016	4950
560.079	4849
562.5557	4888
565.0318	4931
567.5092	4906
569.984	5053
572.456	4903
574.9294	4963
577.4022	4976
579.8762	5057
582.3456	5082
584.8163	4982
587.2863	5054
589.7557	4980
592.2224	5094
594.6924	4968
597.1578	4974
599.6245	5063
602.0905	5026
604.5538	5027
607.0206	4982
609.4825	4995
611.9459	5102
614.4066	4979
616.8686	5068
619.33	5014
621.7906	5002
624.2487	4881
626.708	5036
629.1647	5035
631.6207	5016
634.0801	5041
636.5348	5045
638.9888	4960
641.4442	5050
643.8969	5121
646.3509	4952
648.8022	5035
651.255	5034
653.705	4968
656.1544	4955
658.6031	5063
661.0532	5066
663.5026	5140
665.9493	5129
668.3954	5133
670.8409	5117
673.2877	5171
675.7318	5129
678.1752	5136
680.618	5287
683.0601	5228
685.5035	5242
687.9444	5140
690.3845	5197
692.824	5153
695.2628	5228
697.701	5255
700.1406	5302
702.5774	5196
705.0116	5237
707.4472	5269
709.8821	5232
712.3183	5314
714.7519	5269
717.1829	5335
719.6151	5359
722.0468	5392
724.4777	5386
726.908	5383
729.3377	5373
731.7667	5300
734.1931	5399
736.6208	5342
739.0498	5500
741.4742	5456
743.9	5445
746.3231	5412
748.7476	5528
751.1713	5521
753.5945	5580
756.015	5550
758.4368	5451
760.856	5558
763.2766	5588
765.6965	5534
768.1157	5570
770.5323	5534
772.9483	5608
775.3656	5603
777.7822	5561
780.1963	5559
782.6116	5491
785.0244	5676
787.4365	5576
789.8499	5603
792.2626	5522
794.6728	5597
797.0823	5668
799.4911	5528
801.8994	5678
804.3109	5688
806.7178	5687
809.124	5601
811.5297	5631
813.9347	5620
816.341	5614
818.7447	5696
821.1478	5615
823.5502	5710
825.952	5691
828.3531	5699
830.7556	5653
833.1554	5612
835.5546	5661
837.9532	5698
840.3511	5583
842.7504	5624
845.1451	5693
847.5411	5771
849.9365	5807
852.3312	5737
854.7272	5804
857.1187	5783
859.5115	5797
861.9037	5725
864.2952	5719
866.6842	5784
869.0764	5744
871.4661	5783
873.8531	5606
876.2415	5754
878.6272	5733
881.0162	5698
883.4026	5731
885.7866	5785
888.1717	5786
890.5543	5827
892.9382	5785
895.3215	5775
897.7041	5817
900.0842	5684
902.4655	5763
904.8443	5740
907.2244	5726
909.6039	5842
911.9808	5879
914.357	5948
916.7346	5926
919.1115	5840
921.4859	5972
923.8616	5966
926.2347	6046
928.6071	5945
930.979	5885
933.3541	6068
935.7247	5969
938.0946	5937
940.4639	6132
942.8326	6166
945.2026	6233
947.5701	6159
949.9369	6339
952.305	6348
954.6705	6664
957.0355	6635
959.4017	6754
961.7654	6824
964.1284	6841
966.4908	6782
968.8527	6592
971.2138	6424
973.5743	6233
975.9343	6151
978.2936	6008
980.6522	5989
983.0122	6058
985.3696	5920
987.7245	6003
990.0807	5925
992.4362	5915
994.7911	5854
997.1474	5908
999.4991	5939
1001.852	6072
1004.205	5954
1006.555	5975
1008.908	5915
1011.258	5911
1013.606	5970
1015.956	5919
1018.302	5846
1020.652	6033
1022.998	5965
1025.345	5945
1027.691	6023
1030.035	6029
1032.378	6058
1034.724	6050
1037.066	6041
1039.409	6086
1041.75	6138
1044.092	6063
1046.433	6036
1048.771	5985
1051.112	6119
1053.449	5976
1055.786	5985
1058.124	6064
1060.462	6144
1062.797	6120
1065.131	6174
1067.467	6046
1069.8	6212
1072.135	6169
1074.467	6073
1076.798	6108
1079.129	6059
1081.459	6171
1083.792	6172
1086.121	6156
1088.449	6067
1090.777	6061
1093.104	6108
1095.431	6115
1097.759	6070
1100.084	6064
1102.408	6025
1104.732	6152
1107.056	6081
1109.379	6063
1111.701	6159
1114.022	6114
1116.343	6116
1118.664	6148
1120.983	6116
1123.303	6182
1125.621	6091
1127.939	6182
1130.256	6055
1132.573	6218
1134.889	6117
1137.205	6188
1139.52	6257
1141.832	6111
1144.146	6092
1146.461	6113
1148.771	6057
1151.083	6230
1153.392	6120
1155.703	6028
1158.011	6021
1160.323	6145
1162.629	6057
1164.938	6115
1167.243	6178
1169.55	6157
1171.857	6112
1174.163	6156
1176.466	6092
1178.769	6199
1181.073	6246
1183.374	6098
1185.677	6205
1187.979	6190
1190.279	6157
1192.578	6122
1194.878	6240
1197.178	6105
1199.476	6055
1201.772	6159
1204.068	6145
1206.366	6151
1208.663	6173
1210.957	6132
1213.251	6192
1215.544	6147
1217.836	6181
1220.128	6159
1222.421	6122
1224.712	6214
1227.002	6303
1229.292	6289
1231.581	6282
1233.871	6160
1236.159	6297
1238.446	6287
1240.732	6271
1243.018	6421
1245.304	6345
1247.59	6442
1249.874	6321
1252.156	6204
1254.439	6356
1256.721	6492
1259.005	6298
1261.286	6293
1263.565	6365
1265.845	6373
1268.125	6433
1270.403	6397
1272.682	6400
1274.959	6346
1277.234	6294
1279.511	6356
1281.787	6336
1284.062	6349
1286.337	6352
1288.609	6325
1290.882	6196
1293.153	6367
1295.428	6247
1297.698	6288
1299.969	6252
1302.237	6265
1304.507	6182
1306.777	6302
1309.044	6229
1311.312	6329
1313.578	6212
1315.844	6185
1318.109	6276
1320.375	6331
1322.638	6245
1324.903	6207
1327.165	6273
1329.427	6258
1331.69	6228
1333.952	6267
1336.212	6328
1338.471	6316
1340.73	6314
1342.988	6346
1345.248	6207
1347.505	6193
1349.763	6204
1352.019	6265
1354.274	6224
1356.53	6231
1358.784	6279
1361.038	6189
1363.291	6206
1365.543	6192
1367.797	6325
1370.048	6378
1372.296	6347
1374.546	6248
1376.796	6388
1379.045	6252
1381.295	6315
1383.542	6296
1385.787	6236
1388.034	6289
1390.28	6414
1392.527	6272
1394.772	6314
1397.014	6390
1399.258	6338
1401.501	6396
1403.741	6428
1405.985	6545
1408.226	6433
1410.465	6324
1412.705	6474
1414.943	6346
1417.184	6397
1419.42	6530
1421.658	6399
1423.894	6503
1426.13	6511
1428.366	6458
1430.602	6470
1432.835	6485
1435.069	6533
1437.301	6530
1439.535	6542
1441.767	6561
1443.997	6526
1446.229	6638
1448.458	6522
1450.687	6501
1452.916	6516
1455.146	6568
1457.372	6588
1459.599	6557
1461.824	6502
1464.051	6495
1466.277	6627
1468.501	6521
1470.725	6405
1472.948	6420
1475.17	6428
1477.393	6398
1479.614	6435
1481.837	6391
1484.057	6324
1486.276	6387
1488.497	6238
1490.715	6291
1492.932	6362
1495.148	6274
1497.364	6310
1499.58	6331
1501.798	6253
1504.012	6291
1506.227	6256
1508.44	6211
1510.653	6182
1512.866	6260
1515.078	6132
1517.289	6218
1519.5	6330
1521.711	6243
1523.92	6318
1526.13	6277
1528.338	6140
1530.544	6219
1532.752	6266
1534.959	6258
1537.165	6237
1539.371	6312
1541.574	6265
1543.779	6419
1545.983	6120
1548.187	6323
1550.39	6280
1552.59	6274
1554.792	6363
1556.991	6350
1559.19	6437
1561.392	6371
1563.59	6378
1565.789	6380
1567.986	6397
1570.182	6332
1572.381	6429
1574.576	6344
1576.771	6394
1578.966	6361
1581.16	6333
1583.354	6382
1585.546	6450
1587.74	6432
1589.931	6446
1592.121	6321
1594.311	6393
1596.502	6469
1598.693	6376
1600.881	6373
1603.069	6393
1605.256	6538
1607.445	6441
1609.631	6453
1611.816	6540
1614.001	6482
1616.186	6453
1618.37	6432
1620.555	6401
1622.737	6563
1624.919	6523
1627.101	6490
1629.282	6418
1631.463	6498
1633.643	6558
1635.822	6532
1638.001	6484
1640.179	6466
1642.359	6611
1644.534	6394
1646.711	6442
1648.887	6419
1651.062	6566
1653.235	6485
1655.412	6515
1657.586	6542
1659.757	6516
1661.93	6630
1664.1	6590
1666.274	6563
1668.445	6569
1670.614	6571
1672.784	6628
1674.951	6526
1677.12	6503
1679.289	6601
1681.457	6477
1683.622	6486
1685.789	6646
1687.953	6475
1690.121	6509
1692.284	6470
1694.447	6530
1696.611	6455
1698.772	6428
1700.935	6395
1703.098	6527
1705.258	6478
1707.417	6441
1709.576	6483
1711.736	6476
1713.896	6461
1716.053	6411
1718.21	6389
1720.366	6369
1722.522	6282
1724.68	6376
1726.835	6352
1728.989	6368
1731.142	6317
1733.295	6444
1735.449	6508
1737.601	6326
1739.753	6375
1741.903	6351
1744.054	6415
1746.203	6375
1748.354	6459
1750.503	6296
1752.651	6517
1754.798	6409
1756.944	6526
1759.092	6558
1761.238	6498
1763.383	6416
1765.528	6402
1767.672	6432
1769.814	6371
1771.959	6407
1774.102	6339
1776.242	6513
1778.384	6535
1780.525	6475
1782.665	6439
1784.805	6581
1786.945	6457
1789.082	6469
1791.22	6489
1793.36	6504
1795.495	6548
1797.632	6478
1799.766	6522
1801.902	6555
1804.035	6498
1806.172	6425
1808.304	6598
1810.436	6415
1812.569	6489
1814.699	6533
1816.833	6425
1818.963	6525
1821.092	6392
1823.222	6532
1825.35	6440
1827.478	6441
1829.608	6325
1831.734	6454
1833.86	6328
1835.986	6432
1838.11	6425
1840.238	6467
1842.362	6491
1844.485	6440
1846.608	6497
1848.73	6458
1850.853	6428
1852.974	6397
1855.097	6329
1857.217	6411
1859.336	6414
1861.455	6364
1863.576	6373
1865.693	6374
1867.811	6483
1869.926	6411
1872.042	6466
1874.16	6254
1876.275	6460
1878.39	6306
1880.504	6397
1882.618	6385
1884.731	6313
1886.843	6319
1888.956	6361
1891.067	6411
1893.178	6362
1895.287	6223
1897.399	6428
1899.508	6423
1901.617	6442
1903.724	6496
1905.832	6449
1907.941	6429
1910.046	6487
1912.152	6385
1914.256	6469
1916.361	6480
1918.464	6543
1920.57	6394
1922.672	6529
1924.775	6464
1926.876	6460
1928.978	6471
1931.08	6511
1933.181	6533
1935.28	6506
1937.38	6427
1939.478	6481
1941.577	6461
1943.675	6505
1945.771	6515
1947.867	6589
1949.964	6473
1952.058	6559
1954.154	6432
1956.248	6457
1958.343	6396
1960.435	6512
1962.527	6464
1964.62	6459
1966.711	6471
1968.802	6478
1970.892	6469
1972.983	6406
1975.072	6477
1977.162	6445
1979.25	6450
1981.337	6446
1983.424	6422
1985.51	6365
1987.598	6459
1989.683	6377
1991.768	6411
1993.852	6457
1995.934	6418
1998.019	6501
2000.102	6303
2002.184	6410
2004.266	6461
2006.347	6362
2008.427	6345
2010.508	6346
2012.587	6485
2014.666	6347
2016.745	6430
2018.821	6383
2020.9	6291
2022.977	6394
2025.052	6315
2027.128	6386
2029.204	6386
2031.277	6395
2033.353	6428
2035.425	6484
2037.499	6355
2039.57	6379
2041.642	6334
2043.714	6420
2045.786	6306
2047.855	6385
2049.925	6326
2051.993	6507
2054.064	6418
2056.132	6276
2058.2	6368
2060.266	6439
2062.332	6394
2064.398	6401
2066.465	6390
2068.529	6401
2070.592	6383
2072.657	6498
2074.719	6338
2076.783	6335
2078.845	6440
2080.907	6371
2082.968	6350
2085.028	6399
2087.087	6409
2089.148	6276
2091.207	6217
2093.264	6346
2095.322	6376
2097.379	6392
2099.439	6282
2101.495	6381
2103.55	6287
2105.605	6321
2107.658	6417
2109.713	6326
2111.767	6452
2113.82	6347
2115.872	6424
2117.924	6365
2119.975	6368
2122.028	6339
2124.078	6403
2126.126	6365
2128.176	6498
2130.225	6260
2132.275	6293
2134.321	6405
2136.368	6393
2138.415	6379
2140.461	6318
2142.505	6373
2144.552	6323
2146.597	6299
2148.64	6397
2150.684	6254
2152.725	6194
2154.77	6338
2156.811	6422
2158.852	6318
2160.894	6292
2162.933	6278
2164.973	6292
2167.013	6275
2169.051	6286
2171.089	6360
2173.126	6254
2175.164	6218
2177.201	6226
2179.236	6342
2181.273	6262
2183.307	6228
2185.341	6290
2187.377	6151
2189.41	6241
2191.442	6260
2193.473	6150
2195.506	6278
2197.539	6334
2199.569	6210
2201.598	6182
2203.628	6222
2205.656	6127
2207.686	6263
2209.716	6256
2211.743	6190
2213.769	6223
2215.796	6175
2217.821	6183
2219.848	6183
2221.873	6186
2223.897	6216
2225.921	6138
2227.944	6070
2229.967	6043
2231.991	6207
2234.011	6139
2236.032	6137
2238.053	6062
2240.073	6187
2242.094	6160
2244.114	6251
2246.131	6017
2248.149	6179
2250.167	6177
2252.186	6208
2254.201	6184
2256.218	6179
2258.233	6109
2260.247	6162
2262.262	6103
2264.278	6194
2266.29	6185
2268.303	6122
2270.315	6114
2272.327	6189
2274.341	6167
2276.35	6180
2278.361	6204
2280.37	6228
2282.38	6180
2284.388	6219
2286.397	6214
2288.405	6197
2290.412	6122
2292.419	6142
2294.425	6123
2296.431	6140
2298.437	6176
2300.441	6113
2302.445	6241
2304.449	6059
2306.453	6102
2308.455	6082
2310.457	6066
2312.459	6054
2314.46	6198
2316.46	6193
2318.461	5980
2320.46	5998
2322.458	6024
2324.458	6071
2326.456	6135
2328.455	6053
2330.451	6138
2332.447	6199
2334.443	6160
2336.438	6172
2338.433	5977
2340.429	6190
2342.422	6109
2344.416	6073
2346.408	6038
2348.399	5922
2350.393	6107
2352.384	6065
2354.375	5973
2356.365	6022
2358.355	6064
2360.344	5995
2362.333	5983
2364.322	5998
2366.309	6031
2368.295	6016
2370.282	5986
2372.27	5952
2374.256	5888
2376.24	5919
2378.225	5978
2380.208	6068
2382.194	6008
2384.177	6010
2386.159	6023
2388.142	5920
2390.122	5963
2392.105	5978
2394.085	5908
2396.066	5812
2398.044	5903
2400.024	5955
2402.002	5873
2403.982	5964
2405.959	5900
2407.935	5864
2409.913	5815
2411.888	6013
2413.865	5974
2415.84	5921
2417.814	5981
2419.788	5750
2421.762	5935
2423.735	5926
2425.708	5774
2427.68	5906
2429.651	5950
2431.623	5897
2433.593	5783
2435.564	5936
2437.533	5845
2439.502	5889
2441.47	5860
2443.438	5845
2445.406	5836
2447.373	5815
2449.34	5912
2451.305	5925
2453.271	5933
2455.235	5870
2457.201	5978
2459.165	5831
2461.129	5786
2463.092	5793
2465.054	5848
2467.018	5953
2468.978	5794
2470.939	5898
2472.899	5808
2474.86	5851
2476.819	5755
2478.778	5873
2480.737	5754
2482.695	5807
2484.653	5869
2486.609	5887
2488.567	5889
2490.524	5714
2492.478	5772
2494.433	5761
2496.387	5714
2498.343	5752
2500.297	5753
2502.249	5776
2504.202	5797
2506.153	5798
2508.105	5916
2510.057	5718
2512.008	5724
2513.957	5785
2515.906	5748
2517.855	5799
2519.805	5756
2521.754	5647
2523.7	5821
2525.647	5775
2527.594	5778
2529.54	5789
2531.486	5708
2533.431	5735
2535.376	5793
2537.32	5792
2539.263	5798
2541.207	5837
2543.151	5818
2545.093	5688
2547.034	5793
2548.975	5752
2550.917	5625
2552.856	5761
2554.796	5645
2556.735	5785
2558.673	5733
2560.611	5652
2562.55	5721
2564.487	5779
2566.424	5711
2568.36	5784
2570.296	5713
2572.232	5716
2574.167	5763
2576.101	5745
2578.035	5703
2579.969	5739
2581.902	5684
2583.834	5851
2585.766	5752
2587.698	5702
2589.628	5808
2591.557	5574
2593.489	5763
2595.419	5705
2597.348	5690
2599.275	5644
2601.204	5690
2603.131	5750
2605.059	5743
2606.986	5768
2608.911	5772
2610.837	5705
2612.76	5641
2614.687	5806
2616.61	5692
2618.534	5582
2620.457	5845
2622.38	5675
2624.302	5719
2626.225	5692
2628.145	5669
2630.067	5766
2631.986	5712
2633.906	5726
2635.827	5765
2637.745	5673
2639.662	5839
2641.581	5681
2643.498	5815
2645.415	5658
2647.331	5694
2649.248	5602
2651.163	5788
2653.077	5749
2654.993	5703
2656.906	5714
2658.821	5784
2660.733	5696
2662.646	5704
2664.557	5690
2666.47	5756
2668.381	5689
2670.291	5679
2672.201	5718
2674.11	5738
2676.021	5680
2677.929	5709
2679.837	5677
2681.745	5715
2683.652	5766
2685.56	5620
2687.466	5591
2689.371	5652
2691.276	5614
2693.181	5631
2695.085	5580
2696.991	5531
2698.893	5657
2700.796	5731
2702.698	5564
2704.601	5554
2706.502	5663
2708.404	5595
2710.304	5617
2712.203	5668
2714.103	5481
2716.003	5524
2717.902	5622
2719.8	5640
2721.697	5552
2723.594	5534
2725.49	5527
2727.389	5628
2729.283	5519
2731.179	5514
2733.073	5469
2734.968	5637
2736.863	5588
2738.757	5495
2740.649	5484
2742.541	5554
2744.433	5532
2746.324	5565
2748.216	5494
2750.107	5582
2751.997	5547
2753.886	5526
2755.776	5637
2757.666	5458
2759.553	5472
2761.44	5557
2763.327	5583
2765.215	5412
2767.102	5531
2768.988	5483
2770.873	5603
2772.757	5544
2774.641	5520
2776.525	5467
2778.41	5523
2780.292	5442
2782.175	5487
2784.057	5540
2785.938	5572
2787.821	5326
2789.701	5521
2791.581	5489
2793.461	5559
2795.34	5460
2797.219	5468
2799.099	5397
2800.975	5414
2802.853	5470
2804.73	5397
2806.606	5544
2808.484	5490
2810.358	5351
2812.233	5516
2814.108	5388
2815.981	5397
2817.857	5438
2819.73	5349
2821.602	5486
2823.474	5466
2825.346	5518
2827.217	5347
2829.089	5439
2830.959	5458
2832.829	5432
2834.698	5486
2836.567	5487
2838.436	5478
2840.305	5454
2842.172	5505
2844.04	5454
2845.905	5500
2847.772	5518
2849.639	5448
2851.503	5504
2853.369	5518
2855.232	5560
2857.096	5543
2858.961	5571
2860.824	5487
2862.686	5608
2864.547	5670
2866.41	5614
2868.272	5585
2870.132	5659
2871.992	5659
2873.851	5700
2875.711	5818
2877.57	5769
2879.429	5791
2881.287	5754
2883.144	5719
2885.001	5829
2886.857	5863
2888.714	5818
2890.57	5837
2892.425	5874
2894.279	5718
2896.133	5827
2897.987	5813
2899.842	5913
2901.694	5686
2903.547	5790
2905.397	5854
2907.249	5851
2909.101	5807
2910.952	5789
2912.802	5770
2914.652	5900
2916.5	5844
2918.35	6001
2920.198	5936
2922.045	5987
2923.893	6189
2925.74	6057
2927.585	6147
2929.433	6144
2931.279	6107
2933.123	6318
2934.968	6284
2936.811	6326
2938.656	6489
2940.5	6410
2942.342	6492
2944.185	6550
2946.026	6513
2947.87	6492
2949.71	6339
2951.549	6512
2953.39	6307
2955.229	6241
2957.069	6386
2958.908	6272
2960.746	6205
2962.584	6074
2964.421	6103
2966.257	6120
2968.094	6000
2969.931	5968
2971.766	6107
2973.601	5928
2975.435	5940
2977.27	5913
2979.105	5910
2980.938	5951
2982.77	5827
2984.602	5726
2986.434	5839
2988.267	5787
2990.097	5731
2991.927	5787
2993.757	5666
2995.587	5616
2997.417	5630
2999.246	5592
3001.074	5611
3002.902	5482
3004.729	5481
3006.556	5456
3008.384	5418
3010.21	5354
3012.036	5326
3013.861	5269
3015.684	5434
3017.51	5266
3019.334	5202
3021.157	5187
3022.981	5227
3024.802	5193
3026.624	5225
3028.448	5163
3030.267	5253
3032.088	5100
3033.909	5061
3035.728	5167
3037.549	5132
3039.368	5164
3041.186	5092
3043.004	5068
3044.821	4972
3046.64	5073
3048.455	5074
3050.272	5106
3052.087	5050
3053.903	5042
3055.717	5058
3057.534	5087
3059.347	4967
3061.16	5020
3062.974	5127
3064.785	5092
3066.598	5086
3068.411	5051
3070.222	5112
3072.032	4953
3073.844	5069
3075.653	5030
3077.463	5090
3079.272	4953
3081.08	4990
3082.889	4977
3084.697	5009
3086.505	4934
3088.312	4908
3090.118	4990
3091.924	4783
3093.729	4957
3095.535	4976
3097.34	4904
3099.144	4898
3100.947	4881
3102.75	4784
3104.553	4938
3106.357	4790
3108.159	4815
3109.961	4793
3111.762	4808
3113.562	4904
3115.365	4798
3117.164	4882
3118.964	4870
3120.761	4909
3122.56	4757
3124.36	4820
3126.158	4767
3127.954	4845
3129.75	4871
3131.547	4845
3133.343	4833
3135.139	4806
3136.934	4772
3138.729	4770
3140.522	4795
3142.317	4830
3144.11	4723
3145.904	4785
3147.695	4782
3149.488	4794
3151.28	4774
3153.07	4710
3154.863	4734
3156.652	4699
3158.441	4743
3160.231	4755
3162.019	4754
3163.81	4751
3165.597	4731
3167.384	4778
3169.172	4722
3170.958	4709
3172.745	4795
3174.532	4698
3176.317	4772
3178.101	4766
3179.885	4689
3181.67	4707
3183.455	4667
3185.238	4716
3187.02	4708
3188.802	4749
3190.585	4606
3192.368	4746
3194.149	4709
3195.929	4832
3197.709	4668
3199.489	4702
3201.268	4698
3203.048	4762
3204.826	4693
3206.604	4710
3208.382	4691
3210.159	4676
3211.937	4645
3213.713	4633
3215.489	4648
3217.263	4699
3219.038	4657
3220.815	4665
3222.589	4637
3224.363	4582
3226.136	4636
3227.908	4751
3229.681	4648
3231.454	4727
3233.226	4629
3234.996	4725
3236.767	4646
3238.538	4634
3240.308	4617
3242.078	4578
3243.847	4574
3245.615	4685
3247.384	4566
3249.15	4650
3250.92	4569
3252.686	4608
3254.453	4637
3256.218	4652
3257.984	4766
3259.75	4712
3261.515	4646
3263.279	4594
3265.044	4603
3266.806	4614
3268.57	4616
3270.334	4597
3272.095	4636
3273.856	4647
3275.619	4685
3277.379	4685
3279.14	4626
3280.9	4537
3282.661	4590
3284.419	4691
3286.178	4603
3287.937	4646
3289.695	4668
3291.453	4650
3293.21	4621
3294.967	4639
3296.723	4518
3298.48	4556
3300.235	4601
3301.99	4656
3303.744	4652
3305.498	4667
3307.253	4642
3309.006	4633
3310.759	4654
3312.511	4673
3314.263	4659
3316.017	4501
3317.768	4658
3319.519	4637
3321.268	4603
3323.018	4598
3324.767	4574
3326.518	4697
3328.267	4531
3330.014	4643
3331.762	4519
3333.509	4551
3335.258	4617
3337.003	4651
3338.75	4612
3340.496	4540
3342.24	4541
3343.987	4598
3345.732	4598
3347.475	4641
3349.219	4499
3350.961	4515
3352.705	4443
3354.448	4483
3356.19	4571
3357.931	4475
3359.672	4520
3361.412	4555
3363.155	4483
3364.894	4537
3366.633	4519
3368.372	4456
3370.11	4527
3371.849	4469
3373.588	4517
3375.325	4500
3377.061	4470
3378.799	4492
3380.534	4517
3382.271	4575
3384.006	4513
3385.741	4487
3387.475	4456
3389.209	4487
3390.944	4537
3392.677	4431
3394.409	4456
3396.143	4486
3397.874	4481
3399.606	4247
3401.338	4399
3403.069	4431
3404.799	4526
3406.528	4421
3408.258	4395
3409.988	4411
3411.717	4503
3413.445	4319
3415.173	4391
3416.899	4456
3418.626	4416
3420.354	4397
3422.08	4406
3423.806	4409
3425.531	4273
3427.255	4407
3428.981	4321
3430.705	4431
3432.429	4425
3434.151	4335
3435.875	4307
3437.599	4354
3439.321	4328
3441.042	4359
3442.763	4289
3444.483	4288
3446.204	4403
3447.926	4279
3449.645	4163
3451.364	4278
3453.082	4287
3454.801	4292
3456.52	4278
3458.238	4396
3459.954	4271
3461.671	4194
3463.387	4153
3465.104	4207
3466.82	4223
3468.534	4228
3470.25	4283
3471.963	4135
3473.676	4177
3475.392	4224
3477.104	4347
3478.817	4179
3480.528	4128
3482.241	4145
3483.954	4128
3485.664	4260
3487.374	4191
3489.084	4174
3490.795	4168
3492.504	4180
3494.214	4181
3495.922	4079
3497.63	4185
3499.338	4130
3501.045	4079
3502.753	4140
3504.459	4135
3506.166	4105
3507.871	4073
3509.576	4115
3511.283	4093
3512.987	4139
3514.691	4066
3516.395	4070
3518.098	4129
3519.8	4038
3521.504	4150
3523.206	4096
3524.908	4067
3526.609	3956
3528.309	4082
3530.011	4023
3531.711	4031
3533.411	4058
3535.109	4001
3536.808	3967
3538.507	4005
3540.206	4079
3541.904	3964
3543.601	4046
3545.297	3960
3546.994	4020
3548.69	3883
3550.387	4028
3552.081	4024
3553.776	3954
3555.47	4003
3557.166	4018
3558.859	4024
3560.553	3999
3562.245	4052
3563.938	3979
3565.629	3904
3567.322	3973
3569.014	3956
3570.704	3902
3572.394	3914
3574.084	3918
3575.775	3965
3577.464	3958
3579.152	3980
3580.842	3971
3582.529	3956
3584.216	3948
3585.905	3920
3587.591	3989
3589.279	3909
3590.964	3855
3592.649	3934
3594.336	3942
3596.021	3938
3597.705	3897
3599.388	3969
3601.072	3783
3602.757	3869
3604.439	3838
3606.122	3749
3607.803	3856
3609.485	3850
3611.167	3826
3612.849	3815
3614.529	3878
3616.208	3806
3617.888	3837
3619.567	3801
3621.247	3806
3622.926	3787
3624.603	3696
3626.281	3743
3627.958	3719
3629.635	3795
3631.312	3780
3632.989	3712
3634.665	3822
3636.339	3699
3638.014	3750
3639.691	3788
3641.364	3685
3643.038	3699
3644.71	3704
3646.384	3745
3648.058	3687
3649.729	3711
3651.402	3667
3653.073	3727
3654.744	3680
3656.414	3693
3658.085	3691
3659.755	3648
3661.424	3666
3663.094	3673
3664.762	3704
3666.431	3622
3668.099	3662
3669.766	3689
3671.433	3687
3673.099	3658
3674.768	3665
3676.433	3679
3678.098	3659
3679.763	3604
3681.428	3632
3683.093	3653
3684.757	3598
3686.421	3647
3688.083	3669
3689.746	3500
3691.408	3616
3693.071	3598
3694.733	3595
3696.394	3625
3698.054	3538
3699.715	3582
3701.375	3588
3703.036	3579
3704.695	3547
3706.354	3580
3708.012	3600
3709.67	3549
3711.329	3559
3712.987	3630
3714.644	3531
3716.299	3586
3717.955	3614
3719.613	3614
3721.268	3610
3722.923	3507
3724.577	3503
3726.231	3564
3727.885	3533
3729.539	3565
3731.192	3494
3732.845	3513
3734.497	3488
3736.149	3496
3737.802	3537
3739.453	3615
3741.104	3459
3742.753	3472
3744.404	3503
3746.052	3551
3747.704	3607
3749.352	3533
3751	3525
3752.648	3468
3754.296	3530
3755.944	3456
3757.59	3484
3759.238	3448
3760.883	3493
3762.528	3509
3764.176	3453
3765.82	3497
3767.464	3575
3769.109	3431
3770.753	3400
3772.396	3401
3774.04	3373
3775.683	3445
3777.325	3463
3778.967	3421
3780.608	3444
3782.25	3432
3783.89	3369
3785.531	3424
3787.17	3407
3788.81	3505
3790.45	3418
3792.09	3350
3793.729	3414
3795.366	3356
3797.003	3362
3798.64	3457
3800.278	3361
3801.915	3418
3803.551	3415
3805.187	3278
3806.822	3397
3808.458	3377
3810.093	3377
3811.726	3409
3813.36	3399
3814.994	3393
3816.627	3347
3818.262	3375
3819.893	3315
3821.525	3290
3823.157	3325
3824.787	3307
3826.42	3308
3828.051	3256
3829.68	3305
3831.31	3316
3832.938	3329
3834.569	3389
3836.198	3332
3837.825	3238
3839.454	3342
3841.08	3280
3842.708	3291
3844.335	3326
3845.962	3281
3847.587	3215
3849.212	3283
3850.838	3309
3852.463	3299
3854.089	3289
3855.712	3309
3857.335	3306
3858.959	3312
3860.582	3274
3862.205	3293
3863.827	3279
3865.449	3274
3867.07	3252
3868.691	3248
3870.312	3233
3871.933	3211
3873.553	3217
3875.173	3214
3876.792	3269
3878.411	3257
3880.03	3236
3881.647	3241
3883.265	3237
3884.882	3270
3886.499	3213
3888.116	3325
3889.732	3259
3891.348	3220
3892.964	3210
3894.579	3242
3896.195	3197
3897.809	3244
3899.423	3206
3901.036	3231
3902.648	3182
3904.261	3221
3905.875	3224
3907.487	3159
3909.099	3227
3910.709	3172
3912.321	3257
3913.933	3210
3915.542	3214
3917.152	3233
3918.762	3210
3920.37	3155
3921.98	3193
3923.589	3165
3925.196	3176
3926.804	3174
3928.41	3186
3930.018	3210
3931.626	3235
3933.231	3188
3934.838	3154
3936.442	3253
3938.046	3099
3939.653	3171
3941.257	3060
3942.861	3131
3944.464	3223
3946.068	3180
3947.67	3130
3949.273	3148
3950.876	3052
3952.477	3206
3954.078	3113
3955.678	3145
3957.281	3165
3958.881	3064
3960.48	3080
3962.079	3101
3963.678	3091
3965.279	3090
3966.877	3126
3968.475	3052
3970.072	3152
3971.669	3099
3973.266	3070
3974.864	3108
3976.459	3058
3978.055	3008
3979.65	3123
3981.245	3109
3982.841	3074
3984.436	3023
3986.03	3063
3987.623	3102
3989.216	3072
3990.809	2995
3992.403	3024
3993.995	2955
3995.586	3060
3997.177	3071
3998.768	3050
4000.361	3040
4001.951	3108
4003.54	3024
4005.13	3023
4006.719	2959
4008.31	3017
4009.897	2867
4011.485	2997
4013.073	2976
4014.66	2996
4016.247	2992
4017.834	3003
4019.421	2996
4021.006	2899
4022.592	2929
4024.178	2883
4025.763	2914
4027.348	2927
4028.932	2937
4030.515	2927
4032.099	3030
4033.682	2946
4035.266	2939
4036.847	2929
4038.429	2940
4040.011	2957
4041.592	2900
4043.173	2846
4044.755	2944
4046.334	2907
4047.913	2985
4049.494	2907
4051.074	2916
4052.652	2930
4054.23	2839
4055.807	2911
4057.385	2879
4058.963	2866
4060.541	2854
4062.117	2893
4063.693	2899
4065.269	2832
4066.844	2821
4068.42	2949
4069.995	2929
4071.569	2865
4073.143	2819
4074.716	2869
4076.291	2833
4077.864	2903
4079.436	2807
4081.009	2773
4082.58	2808
4084.152	2844
4085.723	2808
4087.294	2765
4088.865	2813
4090.435	2854
4092.005	2819
4093.574	2873
4095.143	2802
4096.712	2848
4098.279	2861
4099.848	2877
4101.416	2826
4102.984	2863
4104.55	2844
4106.117	2757
4107.682	2803
4109.248	2835
4110.815	2769
4112.379	2859
4113.945	2750
4115.508	2785
4117.073	2849
4118.637	2832
4120.201	2686
4121.763	2764
4123.325	2756
4124.888	2764
4126.449	2752
4128.013	2788
4129.573	2764
4131.133	2764
4132.694	2818
4134.254	2721
4135.814	2757
4137.374	2771
4138.933	2695
4140.491	2711
4142.049	2725
4143.607	2723
4145.167	2709
4146.724	2677
4148.28	2735
4149.836	2701
4151.392	2653
4152.949	2698
4154.504	2687
4156.059	2679
4157.614	2723
4159.168	2737
4160.723	2667
4162.277	2709
4163.83	2720
4165.383	2641
4166.936	2693
4168.488	2717
4170.041	2700
4171.593	2634
4173.144	2695
4174.695	2697
4176.246	2693
4177.796	2658
4179.346	2656
4180.896	2575
4182.445	2747
4183.994	2650
4185.542	2626
4187.091	2682
4188.639	2591
4190.185	2665
4191.732	2630
4193.279	2591
4194.826	2591
4196.373	2599
4197.918	2608
4199.463	2635
4201.008	2674
4202.553	2584
4204.098	2603
4205.641	2585
4207.185	2610
4208.728	2661
4210.271	2580
4211.814	2606
4213.357	2635
4214.898	2596
4216.439	2656
4217.98	2612
4219.522	2547
4221.062	2545
4222.603	2589
4224.142	2568
4225.681	2563
4227.222	2592
4228.76	2611
4230.298	2588
4231.835	2627
4233.373	2531
4234.911	2533
4236.449	2573
4237.985	2480
4239.521	2564
4241.057	2564
4242.592	2526
4244.128	2562
4245.663	2589
4247.197	2537
4248.731	2509
4250.265	2544
4251.798	2591
4253.333	2525
4254.865	2564
4256.397	2516
4257.93	2616
4259.461	2528
4260.994	2561
4262.525	2441
4264.056	2568
4265.586	2514
4267.115	2571
4268.646	2553
4270.176	2542
4271.705	2498
4273.232	2507
4274.761	2505
4276.289	2525
4277.818	2461
4279.345	2487
4280.872	2497
4282.399	2531
4283.924	2513
4285.452	2466
4286.976	2536
4288.502	2488
4290.026	2489
4291.551	2452
4293.074	2506
4294.6	2428
4296.123	2439
4297.646	2457
4299.168	2473
4300.691	2489
4302.214	2424
4303.736	2475
4305.257	2487
4306.778	2399
4308.299	2485
4309.82	2420
4311.34	2404
4312.86	2454
4314.379	2438
