400.0745	3876
402.597	4075
405.1208	4026
407.6419	4069
410.1623	4054
412.6819	4071
415.201	4009
417.7172	4088
420.2369	4206
422.7538	4141
425.2701	4163
427.7856	4218
430.3005	4242
432.8147	4250
435.3282	4294
437.841	4299
440.3511	4315
442.8625	4258
445.3753	4287
447.8854	4353
450.3927	4250
452.9014	4211
455.4073	4253
457.9146	4293
460.4233	4244
462.9272	4318
465.4325	4351
467.935	4333
470.4389	4282
472.9421	4245
475.4446	4416
477.9444	4395
480.4456	4291
482.944	4294
485.4417	4346
487.9429	4343
490.4393	4368
492.935	4455
495.4321	4340
497.9264	4287
500.4221	4398
502.9171	4404
505.4094	4415
507.9011	4414
510.392	4450
512.8864	4334
515.3759	4438
517.8649	4371
520.3531	4452
522.8406	4405
525.3275	4522
527.8178	4456
530.3033	4435
532.7881	4550
535.2723	4363
537.7558	4431
540.2407	4421
542.7228	4488
545.2043	4431
547.6851	4448
550.1652	4461
552.6467	4479
555.1255	4480
557.6016	4532
560.079	4529
562.5557	4540
565.0318	4517
567.5092	4522
569.984	4557
572.456	4542
574.9294	4556
577.4022	4621
579.8762	4741
582.3456	4722
584.8163	4563
587.2863	4710
589.7557	4673
592.2224	4637
594.6924	4602
597.1578	4641
599.6245	4708
602.0905	4578
604.5538	4674
607.0206	4509
609.4825	4629
611.9459	4642
614.4066	4617
616.8686	4601
619.33	4681
621.7906	4637
624.2487	4570
626.708	4576
629.1647	4662
631.6207	4562
634.0801	4614
636.5348	4545
638.9888	4604
641.4442	4645
643.8969	4588
646.3509	4570
648.8022	4644
651.255	4676
653.705	4693
656.1544	4716
658.6031	4706
661.0532	4672
663.5026	4631
665.9493	4693
668.3954	4785
670.8409	4720
673.2877	4806
675.7318	4804
678.1752	4724
680.618	4819
683.0601	4784
685.5035	4729
687.9444	4804
690.3845	4822
692.824	4785
695.2628	4715
697.701	4864
700.1406	4771
702.5774	4853
705.0116	4821
707.4472	4772
709.8821	4780
712.3183	4898
714.7519	4776
717.1829	4824
719.6151	4826
722.0468	4795
724.4777	4874
726.908	4986
729.3377	4880
731.7667	4952
734.1931	4834
736.6208	4908
739.0498	5034
741.4742	4911
743.9	4999
746.3231	4965
748.7476	5027
751.1713	4958
753.5945	5033
756.015	5097
758.4368	5108
760.856	5115
763.2766	5104
765.6965	5101
768.1157	5050
770.5323	5135
772.9483	5097
775.3656	5095
777.7822	5082
780.1963	5048
782.6116	5106
785.0244	5167
787.4365	5197
789.8499	5232
792.2626	5236
794.6728	5059
797.0823	5240
799.4911	5164
801.8994	5211
804.3109	5129
806.7178	5213
809.124	5176
811.5297	5167
813.9347	5086
816.341	5252
818.7447	5220
821.1478	5245
823.5502	5162
825.952	5183
828.3531	5213
830.7556	5240
833.1554	5171
835.5546	5237
837.9532	5277
840.3511	5200
842.7504	5220
845.1451	5291
847.5411	5370
849.9365	5260
852.3312	5326
854.7272	5279
857.1187	5319
859.5115	5367
861.9037	5328
864.2952	5348
866.6842	5293
869.0764	5333
871.4661	5325
873.8531	5321
876.2415	5380
878.6272	5324
881.0162	5298
883.4026	5308
885.7866	5188
888.1717	5381
890.5543	5276
892.9382	5304
895.3215	5312
897.7041	5345
900.0842	5280
902.4655	5257
904.8443	5311
907.2244	5441
909.6039	5296
911.9808	5382
914.357	5345
916.7346	5474
919.1115	5542
921.4859	5469
923.8616	5534
926.2347	5587
928.6071	5465
930.979	5521
933.3541	5510
935.7247	5591
938.0946	5539
940.4639	5657
942.8326	5671
945.2026	5917
947.5701	5750
949.9369	6024
952.305	6080
954.6705	6280
957.0355	6531
959.4017	6758
961.7654	6841
964.1284	6837
966.4908	6841
968.8527	6458
971.2138	6223
973.5743	6033
975.9343	5719
978.2936	5719
980.6522	5599
983.0122	5464
985.3696	5366
987.7245	5447
990.0807	5451
992.4362	5448
994.7911	5423
997.1474	5471
999.4991	5380
1001.852	5595
1004.205	5554
1006.555	5530
1008.908	5575
1011.258	5436
1013.606	5514
1015.956	5564
1018.302	5453
1020.652	5465
1022.998	5545
1025.345	5455
1027.691	5543
1030.035	5541
1032.378	5575
1034.724	5600
1037.066	5530
1039.409	5621
1041.75	5535
1044.092	5637
1046.433	5615
1048.771	5652
1051.112	5557
1053.449	5635
1055.786	5539
1058.124	5736
1060.462	5517
1062.797	5661
1065.131	5687
1067.467	5723
1069.8	5631
1072.135	5843
1074.467	5726
1076.798	5788
1079.129	5729
1081.459	5598
1083.792	5660
1086.121	5655
1088.449	5616
1090.777	5643
1093.104	5658
1095.431	5668
1097.759	5661
1100.084	5745
1102.408	5639
1104.732	5553
1107.056	5619
1109.379	5598
1111.701	5665
1114.022	5525
1116.343	5665
1118.664	5655
1120.983	5559
1123.303	5682
1125.621	5651
1127.939	5635
1130.256	5633
1132.573	5624
1134.889	5662
1137.205	5658
1139.52	5517
1141.832	5586
1144.146	5550
1146.461	5579
1148.771	5517
1151.083	5684
1153.392	5546
1155.703	5648
1158.011	5626
1160.323	5702
1162.629	5718
1164.938	5707
1167.243	5633
1169.55	5738
1171.857	5649
1174.163	5648
1176.466	5634
1178.769	5738
1181.073	5691
1183.374	5610
1185.677	5505
1187.979	5607
1190.279	5583
1192.578	5564
1194.878	5590
1197.178	5579
1199.476	5623
1201.772	5665
1204.068	5644
1206.366	5743
1208.663	5598
1210.957	5644
1213.251	5648
1215.544	5718
1217.836	5646
1220.128	5621
1222.421	5736
1224.712	5734
1227.002	5742
1229.292	5724
1231.581	5833
1233.871	5813
1236.159	5724
1238.446	5808
1240.732	5933
1243.018	5917
1245.304	5795
1247.59	5966
1249.874	5807
1252.156	5857
1254.439	5754
1256.721	5875
1259.005	5786
1261.286	5836
1263.565	5823
1265.845	5801
1268.125	5870
1270.403	5820
1272.682	5902
1274.959	5869
1277.234	5876
1279.511	5864
1281.787	5764
1284.062	5820
1286.337	5750
1288.609	5781
1290.882	5675
1293.153	5785
1295.428	5726
1297.698	5732
1299.969	5771
1302.237	5764
1304.507	5760
1306.777	5767
1309.044	5683
1311.312	5771
1313.578	5699
1315.844	5753
1318.109	5749
1320.375	5833
1322.638	5749
1324.903	5809
1327.165	5757
1329.427	5812
1331.69	5725
1333.952	5756
1336.212	5759
1338.471	5723
1340.73	5679
1342.988	5743
1345.248	5846
1347.505	5816
1349.763	5850
1352.019	5802
1354.274	5786
1356.53	5861
1358.784	5710
1361.038	5753
1363.291	5650
1365.543	5799
1367.797	5810
1370.048	5793
1372.296	5823
1374.546	5696
1376.796	5799
1379.045	5795
1381.295	5846
1383.542	5819
1385.787	5751
1388.034	5897
1390.28	5772
1392.527	5728
1394.772	5877
1397.014	5937
1399.258	5967
1401.501	5833
1403.741	5802
1405.985	5880
1408.226	5784
1410.465	5934
1412.705	5944
1414.943	5971
1417.184	5852
1419.42	5916
1421.658	5856
1423.894	5983
1426.13	5873
1428.366	5960
1430.602	5964
1432.835	5857
1435.069	5935
1437.301	5908
1439.535	6039
1441.767	5961
1443.997	6018
1446.229	5974
1448.458	5922
1450.687	6008
1452.916	6136
1455.146	6154
1457.372	6140
1459.599	6110
1461.824	5963
1464.051	6091
1466.277	6109
1468.501	6003
1470.725	5942
1472.948	6027
1475.17	5901
1477.393	5910
1479.614	5918
1481.837	5871
1484.057	5862
1486.276	5811
1488.497	5860
1490.715	5801
1492.932	5809
1495.148	5738
1497.364	5703
1499.58	5696
1501.798	5718
1504.012	5678
1506.227	5740
1508.44	5761
1510.653	5718
1512.866	5688
1515.078	5861
1517.289	5833
1519.5	5734
1521.711	5672
1523.92	5738
1526.13	5768
1528.338	5759
1530.544	5755
1532.752	5699
1534.959	5723
1537.165	5779
1539.371	5739
1541.574	5701
1543.779	5781
1545.983	5763
1548.187	5720
1550.39	5807
1552.59	5753
1554.792	5875
1556.991	5806
1559.19	5749
1561.392	5851
1563.59	5886
1565.789	5908
1567.986	5940
1570.182	5862
1572.381	5871
1574.576	5768
1576.771	5894
1578.966	5940
1581.16	5822
1583.354	5851
1585.546	5854
1587.74	5951
1589.931	5955
1592.121	5858
1594.311	5985
1596.502	5955
1598.693	5904
1600.881	5967
1603.069	5856
1605.256	6034
1607.445	5818
1609.631	5918
1611.816	5948
1614.001	5932
1616.186	5897
1618.37	5891
1620.555	5924
1622.737	6051
1624.919	5789
1627.101	5981
1629.282	6034
1631.463	6035
1633.643	5997
1635.822	5997
1638.001	6025
1640.179	6042
1642.359	5968
1644.534	6109
1646.711	6117
1648.887	6118
1651.062	6051
1653.235	6039
1655.412	6027
1657.586	6034
1659.757	6034
1661.93	6071
1664.1	5944
1666.274	6081
1668.445	6030
1670.614	6130
1672.784	6122
1674.951	6089
1677.12	5929
1679.289	6125
1681.457	5983
1683.622	5983
1685.789	5994
1687.953	6015
1690.121	6067
1692.284	6167
1694.447	6000
1696.611	5969
1698.772	6039
1700.935	5918
1703.098	5972
1705.258	5951
1707.417	6043
1709.576	5932
1711.736	5926
1713.896	5935
1716.053	5820
1718.21	5971
1720.366	5796
1722.522	5925
1724.68	5827
1726.835	5895
1728.989	5953
1731.142	5786
1733.295	5899
1735.449	5870
1737.601	5929
1739.753	6002
1741.903	5873
1744.054	5897
1746.203	5796
1748.354	5892
1750.503	5939
1752.651	5974
1754.798	5967
1756.944	6072
1759.092	5932
1761.238	5890
1763.383	5978
1765.528	5927
1767.672	5797
1769.814	5939
1771.959	5961
1774.102	5990
1776.242	5915
1778.384	5975
1780.525	5853
1782.665	5945
1784.805	5888
1786.945	5867
1789.082	5891
1791.22	5888
1793.36	5922
1795.495	5959
1797.632	6018
1799.766	5930
1801.902	5965
1804.035	6065
1806.172	5814
1808.304	5983
1810.436	5943
1812.569	5785
1814.699	5933
1816.833	5953
1818.963	5983
1821.092	5951
1823.222	5999
1825.35	6005
1827.478	5937
1829.608	5833
1831.734	5980
1833.86	5966
1835.986	5974
1838.11	5923
1840.238	5894
1842.362	5855
1844.485	5888
1846.608	5916
1848.73	5801
1850.853	5817
1852.974	5905
1855.097	5841
1857.217	5874
1859.336	5934
1861.455	5964
1863.576	5870
1865.693	5914
1867.811	5817
1869.926	5857
1872.042	5819
1874.16	5897
1876.275	5827
1878.39	5733
1880.504	5842
1882.618	5853
1884.731	5779
1886.843	5968
1888.956	5986
1891.067	5893
1893.178	5952
1895.287	5965
1897.399	5972
1899.508	5881
1901.617	5933
1903.724	5930
1905.832	6024
1907.941	5946
1910.046	5939
1912.152	5980
1914.256	5990
1916.361	5921
1918.464	5937
1920.57	6013
1922.672	5969
1924.775	6119
1926.876	5991
1928.978	5896
1931.08	5943
1933.181	5931
1935.28	5984
1937.38	5971
1939.478	5898
1941.577	6058
1943.675	5981
1945.771	5920
1947.867	6042
1949.964	5961
1952.058	5913
1954.154	5914
1956.248	5998
1958.343	5963
1960.435	5880
1962.527	5956
1964.62	6007
1966.711	5978
1968.802	5942
1970.892	5947
1972.983	6017
1975.072	5885
1977.162	5928
1979.25	5995
1981.337	5952
1983.424	5938
1985.51	6030
1987.598	5995
1989.683	5990
1991.768	5959
1993.852	5836
1995.934	5857
1998.019	5934
2000.102	5895
2002.184	5893
2004.266	5975
2006.347	5857
2008.427	5933
2010.508	5931
2012.587	5934
2014.666	5861
2016.745	5949
2018.821	5900
2020.9	5941
2022.977	6010
2025.052	5862
2027.128	5773
2029.204	5877
2031.277	5880
2033.353	5856
2035.425	5871
2037.499	5929
2039.57	5903
2041.642	5972
2043.714	5995
2045.786	5937
2047.855	5921
2049.925	5903
2051.993	5848
2054.064	5889
2056.132	5847
2058.2	5827
2060.266	5923
2062.332	5892
2064.398	5787
2066.465	5924
2068.529	5911
2070.592	5907
2072.657	5905
2074.719	5968
2076.783	5938
2078.845	5931
2080.907	5977
2082.968	5956
2085.028	5914
2087.087	5823
2089.148	5956
2091.207	5925
2093.264	5926
2095.322	5917
2097.379	5905
2099.439	5930
2101.495	5954
2103.55	5929
2105.605	5940
2107.658	5846
2109.713	5938
2111.767	5952
2113.82	5841
2115.872	5933
2117.924	5927
2119.975	5946
2122.028	5761
2124.078	5896
2126.126	5825
2128.176	5992
2130.225	5901
2132.275	5886
2134.321	5849
2136.368	5866
2138.415	5896
2140.461	6008
2142.505	6021
2144.552	5861
2146.597	5891
2148.64	5951
2150.684	5795
2152.725	5848
2154.77	5763
2156.811	5909
2158.852	5833
2160.894	5936
2162.933	5836
2164.973	5775
2167.013	5875
2169.051	5859
2171.089	5795
2173.126	5900
2175.164	5818
2177.201	5898
2179.236	5690
2181.273	5821
2183.307	5799
2185.341	5881
2187.377	5787
2189.41	5824
2191.442	5885
2193.473	5872
2195.506	5834
2197.539	5822
2199.569	5764
2201.598	5822
2203.628	5793
2205.656	5813
2207.686	5719
2209.716	5715
2211.743	5773
2213.769	5729
2215.796	5711
2217.821	5813
2219.848	5805
2221.873	5734
2223.897	5715
2225.921	5773
2227.944	5657
2229.967	5697
2231.991	5605
2234.011	5749
2236.032	5655
2238.053	5630
2240.073	5759
2242.094	5723
2244.114	5616
2246.131	5743
2248.149	5838
2250.167	5753
2252.186	5708
2254.201	5703
2256.218	5814
2258.233	5670
2260.247	5656
2262.262	5667
2264.278	5641
2266.29	5670
2268.303	5725
2270.315	5618
2272.327	5752
2274.341	5749
2276.35	5732
2278.361	5713
2280.37	5707
2282.38	5687
2284.388	5766
2286.397	5757
2288.405	5738
2290.412	5688
2292.419	5722
2294.425	5676
2296.431	5639
2298.437	5808
2300.441	5743
2302.445	5726
2304.449	5719
2306.453	5779
2308.455	5715
2310.457	5808
2312.459	5749
2314.46	5694
2316.46	5748
2318.461	5686
2320.46	5660
2322.458	5546
2324.458	5676
2326.456	5668
2328.455	5681
2330.451	5578
2332.447	5600
2334.443	5596
2336.438	5571
2338.433	5601
2340.429	5690
2342.422	5663
2344.416	5577
2346.408	5634
2348.399	5657
2350.393	5582
2352.384	5720
2354.375	5571
2356.365	5648
2358.355	5676
2360.344	5583
2362.333	5598
2364.322	5654
2366.309	5610
2368.295	5548
2370.282	5598
2372.27	5630
2374.256	5561
2376.24	5598
2378.225	5425
2380.208	5582
2382.194	5529
2384.177	5531
2386.159	5556
2388.142	5582
2390.122	5544
2392.105	5529
2394.085	5534
2396.066	5550
2398.044	5419
2400.024	5509
2402.002	5459
2403.982	5598
2405.959	5520
2407.935	5606
2409.913	5478
2411.888	5510
2413.865	5550
2415.84	5500
2417.814	5506
2419.788	5656
2421.762	5424
2423.735	5448
2425.708	5479
2427.68	5421
2429.651	5503
2431.623	5606
2433.593	5529
2435.564	5462
2437.533	5574
2439.502	5529
2441.47	5448
2443.438	5547
2445.406	5525
2447.373	5437
2449.34	5505
2451.305	5408
2453.271	5493
2455.235	5438
2457.201	5458
2459.165	5471
2461.129	5422
2463.092	5527
2465.054	5376
2467.018	5488
2468.978	5507
2470.939	5457
2472.899	5430
2474.86	5435
2476.819	5365
2478.778	5482
2480.737	5412
2482.695	5420
2484.653	5433
2486.609	5343
2488.567	5454
2490.524	5454
2492.478	5414
2494.433	5410
2496.387	5420
2498.343	5374
2500.297	5414
2502.249	5405
2504.202	5389
2506.153	5448
2508.105	5429
2510.057	5404
2512.008	5496
2513.957	5446
2515.906	5323
2517.855	5397
2519.805	5411
2521.754	5348
2523.7	5349
2525.647	5405
2527.594	5427
2529.54	5379
2531.486	5300
2533.431	5430
2535.376	5349
2537.32	5427
2539.263	5334
2541.207	5421
2543.151	5471
2545.093	5375
2547.034	5400
2548.975	5405
2550.917	5301
2552.856	5277
2554.796	5409
2556.735	5503
2558.673	5413
2560.611	5409
2562.55	5340
2564.487	5413
2566.424	5436
2568.36	5327
2570.296	5347
2572.232	5365
2574.167	5372
2576.101	5368
2578.035	5340
2579.969	5399
2581.902	5292
2583.834	5416
2585.766	5466
2587.698	5401
2589.628	5444
2591.557	5473
2593.489	5396
2595.419	5357
2597.348	5274
2599.275	5355
2601.204	5440
2603.131	5350
2605.059	5432
2606.986	5372
2608.911	5436
2610.837	5334
2612.76	5413
2614.687	5375
2616.61	5403
2618.534	5322
2620.457	5418
2622.38	5271
2624.302	5337
2626.225	5315
2628.145	5261
2630.067	5420
2631.986	5335
2633.906	5389
2635.827	5377
2637.745	5340
2639.662	5407
2641.581	5507
2643.498	5380
2645.415	5515
2647.331	5316
2649.248	5332
2651.163	5522
2653.077	5367
2654.993	5362
2656.906	5425
2658.821	5322
2660.733	5398
2662.646	5313
2664.557	5327
2666.47	5363
2668.381	5314
2670.291	5396
2672.201	5262
2674.11	5300
2676.021	5251
2677.929	5401
2679.837	5392
2681.745	5390
2683.652	5416
2685.56	5259
2687.466	5237
2689.371	5329
2691.276	5320
2693.181	5281
2695.085	5275
2696.991	5330
2698.893	5229
2700.796	5209
2702.698	5167
2704.601	5154
2706.502	5248
2708.404	5349
2710.304	5227
2712.203	5300
2714.103	5230
2716.003	5365
2717.902	5145
2719.8	5311
2721.697	5328
2723.594	5247
2725.49	5325
2727.389	5303
2729.283	5234
2731.179	5261
2733.073	5168
2734.968	5342
2736.863	5247
2738.757	5219
2740.649	5215
2742.541	5269
2744.433	5222
2746.324	5308
2748.216	5296
2750.107	5271
2751.997	5184
2753.886	5199
2755.776	5251
2757.666	5212
2759.553	5286
2761.44	5216
2763.327	5149
2765.215	5189
2767.102	5243
2768.988	5220
2770.873	5165
2772.757	5188
2774.641	5143
2776.525	5166
2778.41	5199
2780.292	5195
2782.175	5266
2784.057	5128
2785.938	5163
2787.821	5189
2789.701	5075
2791.581	5239
2793.461	5090
2795.34	5139
2797.219	5106
2799.099	5242
2800.975	5155
2802.853	5272
2804.73	5267
2806.606	5175
2808.484	5123
2810.358	5136
2812.233	5177
2814.108	5149
2815.981	5167
2817.857	5216
2819.73	5136
2821.602	5163
2823.474	5130
2825.346	5247
2827.217	5159
2829.089	5223
2830.959	5304
2832.829	5204
2834.698	5085
2836.567	5021
2838.436	5150
2840.305	5119
2842.172	5142
2844.04	5149
2845.905	5116
2847.772	5171
2849.639	5208
2851.503	5273
2853.369	5214
2855.232	5287
2857.096	5166
2858.961	5197
2860.824	5335
2862.686	5234
2864.547	5310
2866.41	5340
2868.272	5334
2870.132	5462
2871.992	5504
2873.851	5499
2875.711	5494
2877.57	5681
2879.429	5582
2881.287	5619
2883.144	5626
2885.001	5728
2886.857	5733
2888.714	5590
2890.57	5659
2892.425	5539
2894.279	5600
2896.133	5694
2897.987	5666
2899.842	5606
2901.694	5692
2903.547	5699
2905.397	5554
2907.249	5651
2909.101	5649
2910.952	5728
2912.802	5738
2914.652	5709
2916.5	5737
2918.35	5851
2920.198	5898
2922.045	5814
2923.893	5965
2925.74	5954
2927.585	6041
2929.433	6176
2931.279	6114
2933.123	6185
2934.968	6239
2936.811	6354
2938.656	6255
2940.5	6397
2942.342	6457
2944.185	6406
2946.026	6353
2947.87	6491
2949.71	6416
2951.549	6241
2953.39	6323
2955.229	6325
2957.069	6195
2958.908	6207
2960.746	6227
2962.584	6018
2964.421	5996
2966.257	5983
2968.094	5941
2969.931	5951
2971.766	5786
2973.601	5907
2975.435	5723
2977.27	5755
2979.105	5744
2980.938	5748
2982.77	5729
2984.602	5761
2986.434	5688
2988.267	5720
2990.097	5628
2991.927	5607
2993.757	5516
2995.587	5559
2997.417	5481
2999.246	5479
3001.074	5407
3002.902	5268
3004.729	5292
3006.556	5221
3008.384	5332
3010.21	5192
3012.036	5273
3013.861	5147
3015.684	5039
3017.51	4952
3019.334	5034
3021.157	5007
3022.981	5049
3024.802	4997
3026.624	4897
3028.448	4938
3030.267	4949
3032.088	4861
3033.909	4939
3035.728	4886
3037.549	4965
3039.368	4911
3041.186	4794
3043.004	4936
3044.821	4864
3046.64	4896
3048.455	4830
3050.272	4827
3052.087	4857
3053.903	4914
3055.717	4946
3057.534	4867
3059.347	4820
3061.16	4907
3062.974	4877
3064.785	4911
3066.598	4800
3068.411	4892
3070.222	4920
3072.032	4824
3073.844	4867
3075.653	4877
3077.463	4931
3079.272	4784
3081.08	4784
3082.889	4779
3084.697	4804
3086.505	4848
3088.312	4719
3090.118	4758
3091.924	4744
3093.729	4690
3095.535	4586
3097.34	4814
3099.144	4668
3100.947	4780
3102.75	4676
3104.553	4767
3106.357	4620
3108.159	4741
3109.961	4723
3111.762	4636
3113.562	4716
3115.365	4662
3117.164	4670
3118.964	4754
3120.761	4676
3122.56	4607
3124.36	4632
3126.158	4697
3127.954	4651
3129.75	4628
3131.547	4660
3133.343	4638
3135.139	4631
3136.934	4645
3138.729	4539
3140.522	4578
3142.317	4592
3144.11	4599
3145.904	4562
3147.695	4660
3149.488	4666
3151.28	4539
3153.07	4585
3154.863	4638
3156.652	4615
3158.441	4638
3160.231	4605
3162.019	4601
3163.81	4510
3165.597	4603
3167.384	4561
3169.172	4559
3170.958	4604
3172.745	4502
3174.532	4631
3176.317	4489
3178.101	4529
3179.885	4505
3181.67	4446
3183.455	4485
3185.238	4569
3187.02	4443
3188.802	4474
3190.585	4520
3192.368	4493
3194.149	4474
3195.929	4567
3197.709	4471
3199.489	4606
3201.268	4501
3203.048	4550
3204.826	4508
3206.604	4500
3208.382	4501
3210.159	4538
3211.937	4478
3213.713	4496
3215.489	4479
3217.263	4399
3219.038	4458
3220.815	4556
3222.589	4505
3224.363	4495
3226.136	4477
3227.908	4483
3229.681	4527
3231.454	4507
3233.226	4488
3234.996	4600
3236.767	4593
3238.538	4588
3240.308	4444
3242.078	4537
3243.847	4417
3245.615	4545
3247.384	4422
3249.15	4487
3250.92	4467
3252.686	4566
3254.453	4362
3256.218	4554
3257.984	4488
3259.75	4448
3261.515	4528
3263.279	4513
3265.044	4454
3266.806	4468
3268.57	4490
3270.334	4591
3272.095	4539
3273.856	4524
3275.619	4523
3277.379	4453
3279.14	4492
3280.9	4476
3282.661	4547
3284.419	4528
3286.178	4534
3287.937	4491
3289.695	4517
3291.453	4501
3293.21	4464
3294.967	4507
3296.723	4483
3298.48	4464
3300.235	4539
3301.99	4515
3303.744	4504
3305.498	4518
3307.253	4478
3309.006	4481
3310.759	4535
3312.511	4486
3314.263	4580
3316.017	4475
3317.768	4579
3319.519	4438
3321.268	4500
3323.018	4502
3324.767	4543
3326.518	4502
3328.267	4517
3330.014	4491
3331.762	4401
3333.509	4464
3335.258	4453
3337.003	4497
3338.75	4511
3340.496	4485
3342.24	4434
3343.987	4452
3345.732	4533
3347.475	4466
3349.219	4510
3350.961	4460
3352.705	4498
3354.448	4397
3356.19	4456
3357.931	4374
3359.672	4460
3361.412	4473
3363.155	4396
3364.894	4421
3366.633	4332
3368.372	4453
3370.11	4424
3371.849	4414
3373.588	4317
3375.325	4268
3377.061	4428
3378.799	4391
3380.534	4301
3382.271	4400
3384.006	4338
3385.741	4398
3387.475	4336
3389.209	4399
3390.944	4333
3392.677	4384
3394.409	4337
3396.143	4365
3397.874	4362
3399.606	4333
3401.338	4296
3403.069	4257
3404.799	4409
3406.528	4241
3408.258	4302
3409.988	4321
3411.717	4265
3413.445	4307
3415.173	4266
3416.899	4371
3418.626	4283
3420.354	4341
3422.08	4330
3423.806	4245
3425.531	4319
3427.255	4208
3428.981	4243
3430.705	4172
3432.429	4236
3434.151	4289
3435.875	4181
3437.599	4345
3439.321	4265
3441.042	4246
3442.763	4225
3444.483	4223
3446.204	4263
3447.926	4244
3449.645	4220
3451.364	4329
3453.082	4211
3454.801	4258
3456.52	4225
3458.238	4128
3459.954	4111
3461.671	4104
3463.387	4181
3465.104	4161
3466.82	4189
3468.534	4177
3470.25	4113
3471.963	4099
3473.676	4173
3475.392	4142
3477.104	4066
3478.817	4100
3480.528	4057
3482.241	4148
3483.954	4161
3485.664	4096
3487.374	4072
3489.084	4156
3490.795	4006
3492.504	4080
3494.214	4022
3495.922	4132
3497.63	4086
3499.338	4058
3501.045	4034
3502.753	4075
3504.459	3987
3506.166	4085
3507.871	3974
3509.576	4009
3511.283	4088
3512.987	4075
3514.691	4033
3516.395	3932
3518.098	4100
3519.8	3995
3521.504	3972
3523.206	3946
3524.908	3991
3526.609	3950
3528.309	4003
3530.011	3986
3531.711	3997
3533.411	3911
3535.109	4010
3536.808	3897
3538.507	4021
3540.206	3938
3541.904	3897
3543.601	3906
3545.297	3927
3546.994	3929
3548.69	3870
3550.387	3868
3552.081	3961
3553.776	3934
3555.47	3846
3557.166	3839
3558.859	3886
3560.553	3936
3562.245	3910
3563.938	3890
3565.629	3864
3567.322	3769
3569.014	3855
3570.704	3873
3572.394	3871
3574.084	3852
3575.775	3907
3577.464	3861
3579.152	3792
3580.842	3866
3582.529	3902
3584.216	3830
3585.905	3799
3587.591	3845
3589.279	3836
3590.964	3814
3592.649	3765
3594.336	3745
3596.021	3780
3597.705	3788
3599.388	3766
3601.072	3661
3602.757	3781
3604.439	3691
3606.122	3832
3607.803	3783
3609.485	3731
3611.167	3655
3612.849	3748
3614.529	3792
3616.208	3731
3617.888	3771
3619.567	3687
3621.247	3746
3622.926	3723
3624.603	3737
3626.281	3754
3627.958	3721
3629.635	3684
3631.312	3704
3632.989	3707
3634.665	3659
3636.339	3676
3638.014	3658
3639.691	3616
3641.364	3594
3643.038	3595
3644.71	3606
3646.384	3686
3648.058	3594
3649.729	3641
3651.402	3586
3653.073	3573
3654.744	3661
3656.414	3601
3658.085	3689
3659.755	3630
3661.424	3607
3663.094	3623
3664.762	3579
3666.431	3529
3668.099	3484
3669.766	3563
3671.433	3551
3673.099	3513
3674.768	3601
3676.433	3565
3678.098	3514
3679.763	3513
3681.428	3565
3683.093	3554
3684.757	3529
3686.421	3586
3688.083	3469
3689.746	3591
3691.408	3601
3693.071	3513
3694.733	3547
3696.394	3503
3698.054	3511
3699.715	3542
3701.375	3513
3703.036	3588
3704.695	3481
3706.354	3434
3708.012	3577
3709.67	3440
3711.329	3537
3712.987	3477
3714.644	3564
3716.299	3533
3717.955	3529
3719.613	3563
3721.268	3509
3722.923	3503
3724.577	3527
3726.231	3490
3727.885	3534
3729.539	3461
3731.192	3392
3732.845	3468
3734.497	3510
3736.149	3441
3737.802	3462
3739.453	3484
3741.104	3448
3742.753	3398
3744.404	3478
3746.052	3435
3747.704	3412
3749.352	3413
3751	3553
3752.648	3390
3754.296	3430
3755.944	3415
3757.59	3404
3759.238	3465
3760.883	3357
3762.528	3450
3764.176	3387
3765.82	3377
3767.464	3377
3769.109	3342
3770.753	3427
3772.396	3389
3774.04	3418
3775.683	3364
3777.325	3388
3778.967	3340
3780.608	3444
3782.25	3366
3783.89	3340
3785.531	3385
3787.17	3452
3788.81	3359
3790.45	3325
3792.09	3382
3793.729	3358
3795.366	3323
3797.003	3406
3798.64	3309
3800.278	3348
3801.915	3357
3803.551	3361
3805.187	3288
3806.822	3375
3808.458	3247
3810.093	3319
3811.726	3257
3813.36	3297
3814.994	3270
3816.627	3321
3818.262	3295
3819.893	3266
3821.525	3325
3823.157	3307
3824.787	3319
3826.42	3248
3828.051	3289
3829.68	3213
3831.31	3288
3832.938	3338
3834.569	3281
3836.198	3278
3837.825	3267
3839.454	3319
3841.08	3272
3842.708	3149
3844.335	3262
3845.962	3194
3847.587	3247
3849.212	3319
3850.838	3237
3852.463	3294
3854.089	3205
3855.712	3279
3857.335	3201
3858.959	3269
3860.582	3193
3862.205	3326
3863.827	3208
3865.449	3254
3867.07	3261
3868.691	3201
3870.312	3197
3871.933	3182
3873.553	3155
3875.173	3150
3876.792	3257
3878.411	3167
3880.03	3200
3881.647	3207
3883.265	3137
3884.882	3247
3886.499	3143
3888.116	3198
3889.732	3189
3891.348	3117
3892.964	3218
3894.579	3207
3896.195	3206
3897.809	3127
3899.423	3253
3901.036	3210
3902.648	3178
3904.261	3192
3905.875	3130
3907.487	3202
3909.099	3155
3910.709	3168
3912.321	3155
3913.933	3146
3915.542	3180
3917.152	3064
3918.762	3160
3920.37	3149
3921.98	3154
3923.589	3155
3925.196	3180
3926.804	3203
3928.41	3248
3930.018	3112
3931.626	3153
3933.231	3112
3934.838	3122
3936.442	3120
3938.046	3230
3939.653	3192
3941.257	3157
3942.861	3175
3944.464	3118
3946.068	3086
3947.67	3118
3949.273	3092
3950.876	3148
3952.477	3123
3954.078	3170
3955.678	3132
3957.281	3114
3958.881	3120
3960.48	3107
3962.079	2970
3963.678	3099
3965.279	3080
3966.877	3053
3968.475	3100
3970.072	3084
3971.669	3072
3973.266	3039
3974.864	3033
3976.459	3088
3978.055	3057
3979.65	3110
3981.245	3049
3982.841	3054
3984.436	3076
3986.03	2988
3987.623	3066
3989.216	3017
3990.809	3058
3992.403	3038
3993.995	3034
3995.586	3034
3997.177	3070
3998.768	2983
4000.361	2972
4001.951	3010
4003.54	3033
4005.13	3005
4006.719	2976
4008.31	2952
4009.897	2956
4011.485	2976
4013.073	2927
4014.66	2931
4016.247	2998
4017.834	2984
4019.421	2959
4021.006	2945
4022.592	2971
4024.178	2869
4025.763	2932
4027.348	2989
4028.932	2966
4030.515	2919
4032.099	2915
4033.682	2914
4035.266	2924
4036.847	2949
4038.429	2929
4040.011	2928
4041.592	2930
4043.173	2894
4044.755	2943
4046.334	2896
4047.913	2984
4049.494	2907
4051.074	2920
4052.652	2966
4054.23	2906
4055.807	2930
4057.385	2876
4058.963	2900
4060.541	3005
4062.117	2898
4063.693	2892
4065.269	2856
4066.844	2950
4068.42	2866
4069.995	2931
4071.569	2930
4073.143	2837
4074.716	2918
4076.291	2876
4077.864	2868
4079.436	2868
4081.009	2821
4082.58	2839
4084.152	2889
4085.723	2772
4087.294	2816
4088.865	2812
4090.435	2780
4092.005	2869
4093.574	2859
4095.143	2891
4096.712	2796
4098.279	2886
4099.848	2852
4101.416	2876
4102.984	2837
4104.55	2810
4106.117	2807
4107.682	2811
4109.248	2770
4110.815	2805
4112.379	2871
4113.945	2817
4115.508	2859
4117.073	2811
4118.637	2782
4120.201	2766
4121.763	2792
4123.325	2835
4124.888	2805
4126.449	2777
4128.013	2899
4129.573	2699
4131.133	2850
4132.694	2732
4134.254	2717
4135.814	2838
4137.374	2837
4138.933	2695
4140.491	2780
4142.049	2752
4143.607	2766
4145.167	2709
4146.724	2661
4148.28	2717
4149.836	2701
4151.392	2792
4152.949	2800
4154.504	2695
4156.059	2728
4157.614	2717
4159.168	2744
4160.723	2813
4162.277	2663
4163.83	2691
4165.383	2739
4166.936	2692
4168.488	2740
4170.041	2747
4171.593	2690
4173.144	2729
4174.695	2680
4176.246	2638
4177.796	2673
4179.346	2710
4180.896	2638
4182.445	2664
4183.994	2694
4185.542	2658
4187.091	2736
4188.639	2614
4190.185	2672
4191.732	2673
4193.279	2680
4194.826	2654
4196.373	2630
4197.918	2618
4199.463	2625
4201.008	2595
4202.553	2652
4204.098	2681
4205.641	2620
4207.185	2610
4208.728	2666
4210.271	2612
4211.814	2664
4213.357	2627
4214.898	2604
4216.439	2663
4217.98	2618
4219.522	2595
4221.062	2608
4222.603	2622
4224.142	2586
4225.681	2572
4227.222	2533
4228.76	2682
4230.298	2628
4231.835	2660
4233.373	2631
4234.911	2611
4236.449	2572
4237.985	2610
4239.521	2603
4241.057	2578
4242.592	2520
4244.128	2622
4245.663	2576
4247.197	2582
4248.731	2586
4250.265	2609
4251.798	2593
4253.333	2551
4254.865	2598
4256.397	2620
4257.93	2563
4259.461	2562
4260.994	2553
4262.525	2530
4264.056	2510
4265.586	2520
4267.115	2594
4268.646	2576
4270.176	2545
4271.705	2614
4273.232	2484
4274.761	2526
4276.289	2558
4277.818	2562
4279.345	2544
4280.872	2484
4282.399	2569
4283.924	2567
4285.452	2532
4286.976	2507
4288.502	2542
4290.026	2558
4291.551	2500
4293.074	2527
4294.6	2519
4296.123	2496
4297.646	2509
4299.168	2545
4300.691	2450
4302.214	2482
4303.736	2496
4305.257	2462
4306.778	2520
4308.299	2474
4309.82	2462
4311.34	2536
4312.86	2531
4314.379	2514
