400.0745	4260
402.597	4214
405.1208	4285
407.6419	4347
410.1623	4333
412.6819	4313
415.201	4408
417.7172	4425
420.2369	4430
422.7538	4521
425.2701	4450
427.7856	4438
430.3005	4570
432.8147	4566
435.3282	4553
437.841	4571
440.3511	4542
442.8625	4593
445.3753	4593
447.8854	4588
450.3927	4679
452.9014	4586
455.4073	4615
457.9146	4741
460.4233	4623
462.9272	4663
465.4325	4663
467.935	4628
470.4389	4753
472.9421	4616
475.4446	4729
477.9444	4598
480.4456	4738
482.944	4678
485.4417	4665
487.9429	4742
490.4393	4751
492.935	4715
495.4321	4773
497.9264	4781
500.4221	4806
502.9171	4830
505.4094	4923
507.9011	4800
510.392	4805
512.8864	4765
515.3759	4886
517.8649	4900
520.3531	4818
522.8406	4914
525.3275	4785
527.8178	4858
530.3033	4826
532.7881	4890
535.2723	4811
537.7558	4853
540.2407	4873
542.7228	4839
545.2043	4816
547.6851	4873
550.1652	4982
552.6467	4927
555.1255	4985
557.6016	4882
560.079	4922
562.5557	4981
565.0318	4895
567.5092	4910
569.984	4988
572.456	4974
574.9294	4902
577.4022	4948
579.8762	5011
582.3456	4944
584.8163	5086
587.2863	4948
589.7557	5095
592.2224	5085
594.6924	5071
597.1578	5069
599.6245	5025
602.0905	5124
604.5538	4907
607.0206	4976
609.4825	5040
611.9459	5090
614.4066	5070
616.8686	5146
619.33	4969
621.7906	5065
624.2487	5011
626.708	5053
629.1647	5100
631.6207	5102
634.0801	5119
636.5348	5062
638.9888	5029
641.4442	5068
643.8969	5100
646.3509	5090
648.8022	5040
651.255	5148
653.705	5149
656.1544	5157
658.6031	5191
661.0532	5159
663.5026	5133
665.9493	5200
668.3954	5198
670.8409	5206
673.2877	5138
675.7318	5268
678.1752	5156
680.618	5204
683.0601	5242
685.5035	5198
687.9444	5343
690.3845	5162
692.824	5285
695.2628	5137
697.701	5313
700.1406	5368
702.5774	5308
705.0116	5266
707.4472	5324
709.8821	5291
712.3183	5330
714.7519	5293
717.1829	5246
719.6151	5316
722.0468	5425
724.4777	5472
726.908	5379
729.3377	5437
731.7667	5491
734.1931	5521
736.6208	5511
739.0498	5575
741.4742	5477
743.9	5521
746.3231	5522
748.7476	5402
751.1713	5463
753.5945	5628
756.015	5518
758.4368	5597
760.856	5548
763.2766	5756
765.6965	5620
768.1157	5792
770.5323	5603
772.9483	5675
775.3656	5582
777.7822	5729
780.1963	5559
782.6116	5562
785.0244	5699
787.4365	5716
789.8499	5541
792.2626	5655
794.6728	5648
797.0823	5594
799.4911	5658
801.8994	5684
804.3109	5685
806.7178	5602
809.124	5711
811.5297	5702
813.9347	5647
816.341	5683
818.7447	5747
821.1478	5751
823.5502	5766
825.952	5749
828.3531	5744
830.7556	5728
833.1554	5747
835.5546	5665
837.9532	5711
840.3511	5809
842.7504	5681
845.1451	5796
847.5411	5815
849.9365	5675
852.3312	5858
854.7272	5790
857.1187	5802
859.5115	5735
861.9037	5753
864.2952	5816
866.6842	5846
869.0764	5817
871.4661	5714
873.8531	5781
876.2415	5795
878.6272	5749
881.0162	5769
883.4026	5786
885.7866	5710
888.1717	5885
890.5543	5663
892.9382	5787
895.3215	5829
897.7041	5690
900.0842	5710
902.4655	5787
904.8443	5753
907.2244	5800
909.6039	5786
911.9808	5798
914.357	5796
916.7346	5853
919.1115	6065
921.4859	6008
923.8616	6034
926.2347	5863
928.6071	6082
930.979	5921
933.3541	5975
935.7247	5948
938.0946	6026
940.4639	6068
942.8326	6042
945.2026	6045
947.5701	6053
949.9369	6182
952.305	6188
954.6705	6357
957.0355	6432
959.4017	6519
961.7654	6554
964.1284	6572
966.4908	6345
968.8527	6239
971.2138	6284
973.5743	6168
975.9343	6106
978.2936	5988
980.6522	5992
983.0122	5949
985.3696	5876
987.7245	5940
990.0807	5963
992.4362	5996
994.7911	6021
997.1474	6011
999.4991	5921
1001.852	5984
1004.205	6103
1006.555	5957
1008.908	6015
1011.258	6005
1013.606	6045
1015.956	5960
1018.302	5971
1020.652	6085
1022.998	6038
1025.345	6007
1027.691	5929
1030.035	6041
1032.378	6117
1034.724	6061
1037.066	6043
1039.409	6055
1041.75	6042
1044.092	6049
1046.433	6099
1048.771	6107
1051.112	6065
1053.449	6102
1055.786	6145
1058.124	6173
1060.462	6041
1062.797	6092
1065.131	6123
1067.467	6077
1069.8	6149
1072.135	6153
1074.467	6086
1076.798	6043
1079.129	6071
1081.459	6191
1083.792	6193
1086.121	6119
1088.449	6128
1090.777	6101
1093.104	6212
1095.431	6117
1097.759	6026
1100.084	6271
1102.408	6147
1104.732	6169
1107.056	6231
1109.379	6227
1111.701	6023
1114.022	6068
1116.343	6192
1118.664	6115
1120.983	6195
1123.303	6117
1125.621	6166
1127.939	6171
1130.256	6156
1132.573	6223
1134.889	6138
1137.205	6184
1139.52	6258
1141.832	6243
1144.146	6169
1146.461	6266
1148.771	6210
1151.083	6145
1153.392	6160
1155.703	6058
1158.011	6101
1160.323	6211
1162.629	6203
1164.938	6201
1167.243	6195
1169.55	6302
1171.857	6284
1174.163	6278
1176.466	6126
1178.769	6156
1181.073	6195
1183.374	6238
1185.677	6161
1187.979	6204
1190.279	6135
1192.578	6138
1194.878	6223
1197.178	6222
1199.476	6141
1201.772	6289
1204.068	6203
1206.366	6214
1208.663	6156
1210.957	6282
1213.251	6268
1215.544	6220
1217.836	6218
1220.128	6293
1222.421	6312
1224.712	6245
1227.002	6263
1229.292	6201
1231.581	6308
1233.871	6312
1236.159	6371
1238.446	6352
1240.732	6331
1243.018	6433
1245.304	6259
1247.59	6353
1249.874	6418
1252.156	6427
1254.439	6405
1256.721	6438
1259.005	6456
1261.286	6349
1263.565	6373
1265.845	6341
1268.125	6345
1270.403	6306
1272.682	6329
1274.959	6360
1277.234	6292
1279.511	6348
1281.787	6384
1284.062	6462
1286.337	6277
1288.609	6309
1290.882	6255
1293.153	6247
1295.428	6416
1297.698	6298
1299.969	6308
1302.237	6344
1304.507	6272
1306.777	6370
1309.044	6367
1311.312	6276
1313.578	6205
1315.844	6286
1318.109	6363
1320.375	6271
1322.638	6240
1324.903	6244
1327.165	6406
1329.427	6209
1331.69	6242
1333.952	6385
1336.212	6313
1338.471	6335
1340.73	6194
1342.988	6323
1345.248	6390
1347.505	6263
1349.763	6307
1352.019	6346
1354.274	6317
1356.53	6350
1358.784	6250
1361.038	6353
1363.291	6288
1365.543	6400
1367.797	6381
1370.048	6312
1372.296	6297
1374.546	6256
1376.796	6437
1379.045	6433
1381.295	6318
1383.542	6397
1385.787	6445
1388.034	6485
1390.28	6343
1392.527	6252
1394.772	6400
1397.014	6317
1399.258	6459
1401.501	6425
1403.741	6554
1405.985	6484
1408.226	6522
1410.465	6414
1412.705	6468
1414.943	6500
1417.184	6427
1419.42	6547
1421.658	6490
1423.894	6556
1426.13	6451
1428.366	6415
1430.602	6407
1432.835	6426
1435.069	6490
1437.301	6540
1439.535	6512
1441.767	6526
1443.997	6490
1446.229	6600
1448.458	6557
1450.687	6604
1452.916	6584
1455.146	6550
1457.372	6591
1459.599	6569
1461.824	6472
1464.051	6598
1466.277	6491
1468.501	6485
1470.725	6504
1472.948	6521
1475.17	6552
1477.393	6471
1479.614	6378
1481.837	6259
1484.057	6445
1486.276	6359
1488.497	6315
1490.715	6376
1492.932	6421
1495.148	6389
1497.364	6308
1499.58	6367
1501.798	6426
1504.012	6351
1506.227	6270
1508.44	6321
1510.653	6328
1512.866	6332
1515.078	6424
1517.289	6311
1519.5	6295
1521.711	6249
1523.92	6391
1526.13	6289
1528.338	6331
1530.544	6329
1532.752	6176
1534.959	6313
1537.165	6329
1539.371	6386
1541.574	6215
1543.779	6382
1545.983	6354
1548.187	6349
1550.39	6394
1552.59	6481
1554.792	6431
1556.991	6259
1559.19	6416
1561.392	6487
1563.59	6309
1565.789	6418
1567.986	6484
1570.182	6433
1572.381	6489
1574.576	6438
1576.771	6450
1578.966	6512
1581.16	6454
1583.354	6528
1585.546	6488
1587.74	6631
1589.931	6471
1592.121	6529
1594.311	6453
1596.502	6537
1598.693	6496
1600.881	6491
1603.069	6499
1605.256	6518
1607.445	6555
1609.631	6543
1611.816	6571
1614.001	6462
1616.186	6527
1618.37	6578
1620.555	6514
1622.737	6521
1624.919	6556
1627.101	6598
1629.282	6530
1631.463	6646
1633.643	6525
1635.822	6614
1638.001	6522
1640.179	6477
1642.359	6601
1644.534	6569
1646.711	6582
1648.887	6609
1651.062	6520
1653.235	6624
1655.412	6572
1657.586	6499
1659.757	6639
1661.93	6584
1664.1	6544
1666.274	6627
1668.445	6572
1670.614	6610
1672.784	6568
1674.951	6584
1677.12	6471
1679.289	6679
1681.457	6613
1683.622	6625
1685.789	6610
1687.953	6564
1690.121	6659
1692.284	6473
1694.447	6648
1696.611	6478
1698.772	6576
1700.935	6521
1703.098	6595
1705.258	6416
1707.417	6545
1709.576	6472
1711.736	6533
1713.896	6503
1716.053	6497
1718.21	6409
1720.366	6483
1722.522	6522
1724.68	6662
1726.835	6541
1728.989	6434
1731.142	6434
1733.295	6445
1735.449	6530
1737.601	6419
1739.753	6517
1741.903	6474
1744.054	6491
1746.203	6437
1748.354	6486
1750.503	6483
1752.651	6604
1754.798	6511
1756.944	6573
1759.092	6508
1761.238	6400
1763.383	6506
1765.528	6457
1767.672	6542
1769.814	6510
1771.959	6563
1774.102	6522
1776.242	6565
1778.384	6573
1780.525	6612
1782.665	6459
1784.805	6692
1786.945	6500
1789.082	6633
1791.22	6642
1793.36	6554
1795.495	6550
1797.632	6348
1799.766	6472
1801.902	6435
1804.035	6633
1806.172	6618
1808.304	6655
1810.436	6647
1812.569	6636
1814.699	6601
1816.833	6531
1818.963	6530
1821.092	6542
1823.222	6583
1825.35	6465
1827.478	6532
1829.608	6497
1831.734	6492
1833.86	6487
1835.986	6470
1838.11	6527
1840.238	6552
1842.362	6510
1844.485	6552
1846.608	6498
1848.73	6452
1850.853	6428
1852.974	6655
1855.097	6323
1857.217	6540
1859.336	6408
1861.455	6436
1863.576	6510
1865.693	6400
1867.811	6401
1869.926	6513
1872.042	6389
1874.16	6466
1876.275	6437
1878.39	6424
1880.504	6517
1882.618	6507
1884.731	6504
1886.843	6493
1888.956	6524
1891.067	6463
1893.178	6478
1895.287	6405
1897.399	6457
1899.508	6498
1901.617	6523
1903.724	6598
1905.832	6653
1907.941	6426
1910.046	6456
1912.152	6582
1914.256	6660
1916.361	6519
1918.464	6547
1920.57	6586
1922.672	6468
1924.775	6634
1926.876	6523
1928.978	6603
1931.08	6591
1933.181	6657
1935.28	6568
1937.38	6414
1939.478	6607
1941.577	6567
1943.675	6623
1945.771	6578
1947.867	6613
1949.964	6595
1952.058	6525
1954.154	6700
1956.248	6619
1958.343	6449
1960.435	6616
1962.527	6454
1964.62	6600
1966.711	6718
1968.802	6573
1970.892	6536
1972.983	6538
1975.072	6528
1977.162	6499
1979.25	6454
1981.337	6547
1983.424	6630
1985.51	6558
1987.598	6604
1989.683	6517
1991.768	6428
1993.852	6386
1995.934	6537
1998.019	6456
2000.102	6453
2002.184	6533
2004.266	6508
2006.347	6557
2008.427	6445
2010.508	6440
2012.587	6403
2014.666	6484
2016.745	6465
2018.821	6428
2020.9	6462
2022.977	6457
2025.052	6390
2027.128	6531
2029.204	6490
2031.277	6391
2033.353	6465
2035.425	6475
2037.499	6378
2039.57	6431
2041.642	6458
2043.714	6471
2045.786	6405
2047.855	6547
2049.925	6503
2051.993	6477
2054.064	6493
2056.132	6409
2058.2	6466
2060.266	6396
2062.332	6552
2064.398	6646
2066.465	6479
2068.529	6413
2070.592	6532
2072.657	6539
2074.719	6497
2076.783	6470
2078.845	6455
2080.907	6406
2082.968	6504
2085.028	6409
2087.087	6468
2089.148	6402
2091.207	6636
2093.264	6424
2095.322	6420
2097.379	6539
2099.439	6449
2101.495	6412
2103.55	6482
2105.605	6454
2107.658	6465
2109.713	6485
2111.767	6534
2113.82	6481
2115.872	6455
2117.924	6517
2119.975	6484
2122.028	6415
2124.078	6556
2126.126	6519
2128.176	6384
2130.225	6510
2132.275	6455
2134.321	6526
2136.368	6484
2138.415	6487
2140.461	6505
2142.505	6475
2144.552	6394
2146.597	6444
2148.64	6304
2150.684	6380
2152.725	6482
2154.77	6375
2156.811	6362
2158.852	6307
2160.894	6443
2162.933	6293
2164.973	6322
2167.013	6440
2169.051	6256
2171.089	6249
2173.126	6503
2175.164	6419
2177.201	6263
2179.236	6387
2181.273	6249
2183.307	6298
2185.341	6386
2187.377	6362
2189.41	6336
2191.442	6286
2193.473	6248
2195.506	6298
2197.539	6411
2199.569	6275
2201.598	6407
2203.628	6223
2205.656	6312
2207.686	6232
2209.716	6247
2211.743	6274
2213.769	6278
2215.796	6308
2217.821	6246
2219.848	6300
2221.873	6278
2223.897	6172
2225.921	6276
2227.944	6250
2229.967	6243
2231.991	6130
2234.011	6225
2236.032	6336
2238.053	6192
2240.073	6268
2242.094	6214
2244.114	6258
2246.131	6260
2248.149	6162
2250.167	6306
2252.186	6169
2254.201	6282
2256.218	6169
2258.233	6268
2260.247	6251
2262.262	6246
2264.278	6181
2266.29	6198
2268.303	6309
2270.315	6198
2272.327	6212
2274.341	6224
2276.35	6155
2278.361	6106
2280.37	6395
2282.38	6217
2284.388	6305
2286.397	6164
2288.405	6279
2290.412	6270
2292.419	6256
2294.425	6214
2296.431	6238
2298.437	6231
2300.441	6110
2302.445	6238
2304.449	6177
2306.453	6209
2308.455	6254
2310.457	6165
2312.459	6329
2314.46	6231
2316.46	6129
2318.461	6116
2320.46	6295
2322.458	6157
2324.458	6140
2326.456	6206
2328.455	6099
2330.451	6160
2332.447	6200
2334.443	6070
2336.438	6095
2338.433	6186
2340.429	6018
2342.422	6181
2344.416	6091
2346.408	6195
2348.399	6164
2350.393	6092
2352.384	6015
2354.375	6172
2356.365	6163
2358.355	5981
2360.344	6102
2362.333	5998
2364.322	6041
2366.309	5975
2368.295	6146
2370.282	6034
2372.27	6113
2374.256	6038
2376.24	6089
2378.225	6011
2380.208	6006
2382.194	6108
2384.177	6038
2386.159	6036
2388.142	5984
2390.122	6014
2392.105	6018
2394.085	5999
2396.066	6044
2398.044	5963
2400.024	6047
2402.002	6018
2403.982	5931
2405.959	5972
2407.935	5970
2409.913	5964
2411.888	6012
2413.865	6005
2415.84	5991
2417.814	5945
2419.788	5905
2421.762	5932
2423.735	6057
2425.708	6034
2427.68	5825
2429.651	5978
2431.623	6045
2433.593	5984
2435.564	5938
2437.533	5963
2439.502	5922
2441.47	6041
2443.438	5928
2445.406	5951
2447.373	5945
2449.34	5984
2451.305	5853
2453.271	5986
2455.235	5942
2457.201	5949
2459.165	5891
2461.129	5941
2463.092	5933
2465.054	5944
2467.018	5937
2468.978	6005
2470.939	5740
2472.899	6026
2474.86	5900
2476.819	5836
2478.778	5997
2480.737	5931
2482.695	5854
2484.653	5905
2486.609	5943
2488.567	5764
2490.524	5876
2492.478	5868
2494.433	5893
2496.387	5949
2498.343	5893
2500.297	5775
2502.249	5852
2504.202	5780
2506.153	5869
2508.105	5894
2510.057	5790
2512.008	5914
2513.957	5826
2515.906	5776
2517.855	5800
2519.805	5819
2521.754	5933
2523.7	5851
2525.647	5841
2527.594	5712
2529.54	5804
2531.486	5758
2533.431	5824
2535.376	5780
2537.32	5834
2539.263	5805
2541.207	5845
2543.151	5768
2545.093	5825
2547.034	5899
2548.975	5704
2550.917	5797
2552.856	5781
2554.796	5819
2556.735	5800
2558.673	5761
2560.611	5752
2562.55	5792
2564.487	5752
2566.424	5828
2568.36	5766
2570.296	5716
2572.232	5851
2574.167	5806
2576.101	5790
2578.035	5825
2579.969	5828
2581.902	5663
2583.834	5910
2585.766	5745
2587.698	5765
2589.628	5771
2591.557	5816
2593.489	5862
2595.419	5896
2597.348	5704
2599.275	5832
2601.204	5889
2603.131	5696
2605.059	5786
2606.986	5735
2608.911	5772
2610.837	5637
2612.76	5806
2614.687	5827
2616.61	5789
2618.534	5747
2620.457	5822
2622.38	5813
2624.302	5804
2626.225	5777
2628.145	5739
2630.067	5889
2631.986	5736
2633.906	5791
2635.827	5691
2637.745	5916
2639.662	5746
2641.581	5786
2643.498	5891
2645.415	5830
2647.331	5801
2649.248	5730
2651.163	5772
2653.077	5738
2654.993	5817
2656.906	5715
2658.821	5820
2660.733	5764
2662.646	5822
2664.557	5706
2666.47	5818
2668.381	5760
2670.291	5724
2672.201	5676
2674.11	5696
2676.021	5838
2677.929	5716
2679.837	5837
2681.745	5773
2683.652	5755
2685.56	5813
2687.466	5725
2689.371	5618
2691.276	5753
2693.181	5692
2695.085	5658
2696.991	5656
2698.893	5701
2700.796	5779
2702.698	5719
2704.601	5616
2706.502	5780
2708.404	5722
2710.304	5808
2712.203	5712
2714.103	5615
2716.003	5763
2717.902	5705
2719.8	5652
2721.697	5748
2723.594	5654
2725.49	5668
2727.389	5650
2729.283	5690
2731.179	5570
2733.073	5552
2734.968	5737
2736.863	5644
2738.757	5657
2740.649	5657
2742.541	5578
2744.433	5510
2746.324	5646
2748.216	5592
2750.107	5591
2751.997	5678
2753.886	5598
2755.776	5555
2757.666	5566
2759.553	5682
2761.44	5598
2763.327	5589
2765.215	5520
2767.102	5642
2768.988	5625
2770.873	5514
2772.757	5579
2774.641	5702
2776.525	5641
2778.41	5556
2780.292	5508
2782.175	5547
2784.057	5551
2785.938	5507
2787.821	5641
2789.701	5513
2791.581	5574
2793.461	5508
2795.34	5555
2797.219	5531
2799.099	5518
2800.975	5554
2802.853	5520
2804.73	5487
2806.606	5556
2808.484	5502
2810.358	5469
2812.233	5523
2814.108	5560
2815.981	5331
2817.857	5484
2819.73	5549
2821.602	5625
2823.474	5359
2825.346	5447
2827.217	5446
2829.089	5477
2830.959	5389
2832.829	5469
2834.698	5417
2836.567	5452
2838.436	5458
2840.305	5348
2842.172	5474
2844.04	5370
2845.905	5544
2847.772	5596
2849.639	5447
2851.503	5469
2853.369	5520
2855.232	5489
2857.096	5514
2858.961	5546
2860.824	5444
2862.686	5625
2864.547	5505
2866.41	5534
2868.272	5506
2870.132	5602
2871.992	5557
2873.851	5630
2875.711	5608
2877.57	5700
2879.429	5603
2881.287	5684
2883.144	5581
2885.001	5746
2886.857	5770
2888.714	5666
2890.57	5738
2892.425	5708
2894.279	5664
2896.133	5645
2897.987	5616
2899.842	5609
2901.694	5653
2903.547	5682
2905.397	5590
2907.249	5684
2909.101	5605
2910.952	5695
2912.802	5673
2914.652	5765
2916.5	5596
2918.35	5729
2920.198	5779
2922.045	5823
2923.893	5743
2925.74	5788
2927.585	5818
2929.433	5800
2931.279	5870
2933.123	5926
2934.968	5907
2936.811	5966
2938.656	5986
2940.5	6017
2942.342	5998
2944.185	6093
2946.026	6013
2947.87	6006
2949.71	5949
2951.549	5993
2953.39	5997
2955.229	5840
2957.069	5825
2958.908	5904
2960.746	5935
2962.584	5785
2964.421	5920
2966.257	5870
2968.094	5853
2969.931	5699
2971.766	5678
2973.601	5738
2975.435	5727
2977.27	5709
2979.105	5623
2980.938	5651
2982.77	5594
2984.602	5555
2986.434	5517
2988.267	5572
2990.097	5531
2991.927	5503
2993.757	5490
2995.587	5427
2997.417	5446
2999.246	5422
3001.074	5341
3002.902	5424
3004.729	5400
3006.556	5420
3008.384	5368
3010.21	5287
3012.036	5209
3013.861	5350
3015.684	5222
3017.51	5098
3019.334	5160
3021.157	5197
3022.981	5145
3024.802	5155
3026.624	5106
3028.448	5051
3030.267	5143
3032.088	5133
3033.909	5147
3035.728	5104
3037.549	5157
3039.368	5128
3041.186	4974
3043.004	5124
3044.821	5164
3046.64	5068
3048.455	5023
3050.272	5046
3052.087	5067
3053.903	5024
3055.717	4937
3057.534	5020
3059.347	5028
3061.16	5103
3062.974	5079
3064.785	5104
3066.598	5090
3068.411	5083
3070.222	5037
3072.032	5059
3073.844	4929
3075.653	5072
3077.463	4955
3079.272	5028
3081.08	4911
3082.889	4993
3084.697	4987
3086.505	5000
3088.312	4980
3090.118	4932
3091.924	4919
3093.729	4916
3095.535	4881
3097.34	4930
3099.144	4958
3100.947	4946
3102.75	4967
3104.553	4969
3106.357	4918
3108.159	4901
3109.961	4852
3111.762	4808
3113.562	4793
3115.365	4908
3117.164	4863
3118.964	4870
3120.761	4883
3122.56	4853
3124.36	4811
3126.158	4820
3127.954	4814
3129.75	4884
3131.547	4840
3133.343	4854
3135.139	4738
3136.934	4869
3138.729	4784
3140.522	4805
3142.317	4740
3144.11	4706
3145.904	4854
3147.695	4794
3149.488	4869
3151.28	4793
3153.07	4823
3154.863	4717
3156.652	4725
3158.441	4748
3160.231	4756
3162.019	4746
3163.81	4772
3165.597	4765
3167.384	4741
3169.172	4704
3170.958	4680
3172.745	4821
3174.532	4762
3176.317	4733
3178.101	4740
3179.885	4698
3181.67	4744
3183.455	4654
3185.238	4713
3187.02	4655
3188.802	4710
3190.585	4648
3192.368	4650
3194.149	4670
3195.929	4657
3197.709	4659
3199.489	4758
3201.268	4705
3203.048	4660
3204.826	4679
3206.604	4668
3208.382	4676
3210.159	4611
3211.937	4633
3213.713	4638
3215.489	4692
3217.263	4737
3219.038	4607
3220.815	4651
3222.589	4684
3224.363	4630
3226.136	4605
3227.908	4538
3229.681	4572
3231.454	4653
3233.226	4659
3234.996	4626
3236.767	4639
3238.538	4576
3240.308	4563
3242.078	4544
3243.847	4628
3245.615	4571
3247.384	4552
3249.15	4612
3250.92	4578
3252.686	4566
3254.453	4584
3256.218	4542
3257.984	4527
3259.75	4536
3261.515	4548
3263.279	4633
3265.044	4529
3266.806	4531
3268.57	4583
3270.334	4599
3272.095	4546
3273.856	4648
3275.619	4555
3277.379	4534
3279.14	4551
3280.9	4559
3282.661	4550
3284.419	4549
3286.178	4557
3287.937	4524
3289.695	4587
3291.453	4555
3293.21	4509
3294.967	4577
3296.723	4521
3298.48	4474
3300.235	4607
3301.99	4677
3303.744	4486
3305.498	4559
3307.253	4512
3309.006	4403
3310.759	4503
3312.511	4645
3314.263	4499
3316.017	4488
3317.768	4493
3319.519	4469
3321.268	4496
3323.018	4620
3324.767	4535
3326.518	4548
3328.267	4564
3330.014	4481
3331.762	4484
3333.509	4476
3335.258	4457
3337.003	4515
3338.75	4523
3340.496	4527
3342.24	4458
3343.987	4450
3345.732	4448
3347.475	4458
3349.219	4473
3350.961	4432
3352.705	4454
3354.448	4507
3356.19	4525
3357.931	4477
3359.672	4436
3361.412	4445
3363.155	4395
3364.894	4434
3366.633	4351
3368.372	4416
3370.11	4522
3371.849	4412
3373.588	4352
3375.325	4484
3377.061	4397
3378.799	4395
3380.534	4373
3382.271	4464
3384.006	4382
3385.741	4419
3387.475	4396
3389.209	4349
3390.944	4434
3392.677	4378
3394.409	4376
3396.143	4295
3397.874	4360
3399.606	4335
3401.338	4322
3403.069	4368
3404.799	4420
3406.528	4377
3408.258	4370
3409.988	4305
3411.717	4442
3413.445	4368
3415.173	4290
3416.899	4283
3418.626	4299
3420.354	4297
3422.08	4311
3423.806	4323
3425.531	4321
3427.255	4256
3428.981	4357
3430.705	4233
3432.429	4291
3434.151	4199
3435.875	4343
3437.599	4254
3439.321	4277
3441.042	4186
3442.763	4275
3444.483	4241
3446.204	4239
3447.926	4322
3449.645	4260
3451.364	4286
3453.082	4241
3454.801	4220
3456.52	4211
3458.238	4210
3459.954	4141
3461.671	4250
3463.387	4254
3465.104	4177
3466.82	4181
3468.534	4220
3470.25	4105
3471.963	4123
3473.676	4163
3475.392	4212
3477.104	4126
3478.817	4074
3480.528	4136
3482.241	4222
3483.954	4122
3485.664	4146
3487.374	4206
3489.084	4114
3490.795	4071
3492.504	3981
3494.214	4134
3495.922	4107
3497.63	4095
3499.338	4071
3501.045	3983
3502.753	4171
3504.459	4084
3506.166	4146
3507.871	4147
3509.576	3999
3511.283	3994
3512.987	4001
3514.691	4110
3516.395	3995
3518.098	4152
3519.8	4034
3521.504	3976
3523.206	3935
3524.908	4122
3526.609	4021
3528.309	3994
3530.011	3965
3531.711	4002
3533.411	3998
3535.109	4004
3536.808	3952
3538.507	3962
3540.206	4039
3541.904	3909
3543.601	4062
3545.297	3996
3546.994	3974
3548.69	3954
3550.387	3993
3552.081	3986
3553.776	4003
3555.47	3852
3557.166	3801
3558.859	3934
3560.553	4032
3562.245	3958
3563.938	3970
3565.629	3897
3567.322	3889
3569.014	3877
3570.704	3950
3572.394	3915
3574.084	3915
3575.775	3877
3577.464	3895
3579.152	3834
3580.842	3882
3582.529	3921
3584.216	3873
3585.905	3889
3587.591	3887
3589.279	3858
3590.964	3893
3592.649	3845
3594.336	3773
3596.021	3930
3597.705	3879
3599.388	3932
3601.072	3811
3602.757	3905
3604.439	3847
3606.122	3781
3607.803	3884
3609.485	3816
3611.167	3797
3612.849	3784
3614.529	3805
3616.208	3787
3617.888	3740
3619.567	3765
3621.247	3671
3622.926	3753
3624.603	3767
3626.281	3677
3627.958	3792
3629.635	3771
3631.312	3668
3632.989	3731
3634.665	3750
3636.339	3813
3638.014	3742
3639.691	3796
3641.364	3642
3643.038	3709
3644.71	3739
3646.384	3718
3648.058	3720
3649.729	3696
3651.402	3758
3653.073	3708
3654.744	3707
3656.414	3757
3658.085	3705
3659.755	3660
3661.424	3691
3663.094	3669
3664.762	3643
3666.431	3797
3668.099	3558
3669.766	3691
3671.433	3656
3673.099	3603
3674.768	3671
3676.433	3707
3678.098	3682
3679.763	3700
3681.428	3717
3683.093	3619
3684.757	3660
3686.421	3559
3688.083	3621
3689.746	3623
3691.408	3674
3693.071	3629
3694.733	3624
3696.394	3642
3698.054	3630
3699.715	3646
3701.375	3661
3703.036	3621
3704.695	3614
3706.354	3624
3708.012	3695
3709.67	3623
3711.329	3569
3712.987	3630
3714.644	3599
3716.299	3524
3717.955	3571
3719.613	3617
3721.268	3576
3722.923	3619
3724.577	3532
3726.231	3632
3727.885	3588
3729.539	3529
3731.192	3567
3732.845	3636
3734.497	3554
3736.149	3581
3737.802	3545
3739.453	3569
3741.104	3492
3742.753	3584
3744.404	3548
3746.052	3477
3747.704	3549
3749.352	3496
3751	3515
3752.648	3498
3754.296	3556
3755.944	3486
3757.59	3471
3759.238	3444
3760.883	3514
3762.528	3496
3764.176	3488
3765.82	3531
3767.464	3543
3769.109	3505
3770.753	3527
3772.396	3474
3774.04	3566
3775.683	3410
3777.325	3521
3778.967	3544
3780.608	3449
3782.25	3520
3783.89	3403
3785.531	3512
3787.17	3384
3788.81	3449
3790.45	3382
3792.09	3486
3793.729	3402
3795.366	3387
3797.003	3451
3798.64	3422
3800.278	3401
3801.915	3418
3803.551	3403
3805.187	3346
3806.822	3445
3808.458	3396
3810.093	3333
3811.726	3438
3813.36	3334
3814.994	3336
3816.627	3380
3818.262	3336
3819.893	3448
3821.525	3320
3823.157	3427
3824.787	3348
3826.42	3375
3828.051	3356
3829.68	3322
3831.31	3355
3832.938	3304
3834.569	3364
3836.198	3299
3837.825	3358
3839.454	3340
3841.08	3382
3842.708	3283
3844.335	3281
3845.962	3289
3847.587	3316
3849.212	3302
3850.838	3275
3852.463	3334
3854.089	3306
3855.712	3259
3857.335	3303
3858.959	3341
3860.582	3246
3862.205	3271
3863.827	3247
3865.449	3381
3867.07	3206
3868.691	3262
3870.312	3266
3871.933	3216
3873.553	3328
3875.173	3305
3876.792	3274
3878.411	3248
3880.03	3287
3881.647	3204
3883.265	3224
3884.882	3274
3886.499	3204
3888.116	3276
3889.732	3269
3891.348	3260
3892.964	3226
3894.579	3271
3896.195	3227
3897.809	3180
3899.423	3222
3901.036	3301
3902.648	3170
3904.261	3205
3905.875	3251
3907.487	3197
3909.099	3174
3910.709	3216
3912.321	3253
3913.933	3177
3915.542	3135
3917.152	3232
3918.762	3188
3920.37	3168
3921.98	3135
3923.589	3148
3925.196	3178
3926.804	3165
3928.41	3120
3930.018	3203
3931.626	3187
3933.231	3103
3934.838	3164
3936.442	3188
3938.046	3149
3939.653	3138
3941.257	3138
3942.861	3115
3944.464	3145
3946.068	3156
3947.67	3122
3949.273	3119
3950.876	3112
3952.477	3160
3954.078	3114
3955.678	3107
3957.281	3156
3958.881	3108
3960.48	3114
3962.079	3058
3963.678	3142
3965.279	3156
3966.877	3199
3968.475	3177
3970.072	3021
3971.669	3117
3973.266	3132
3974.864	3075
3976.459	3088
3978.055	3125
3979.65	3076
3981.245	3033
3982.841	3107
3984.436	3108
3986.03	3102
3987.623	3039
3989.216	3050
3990.809	3001
3992.403	2977
3993.995	3093
3995.586	3004
3997.177	2936
3998.768	3091
4000.361	2982
4001.951	3046
4003.54	2993
4005.13	3058
4006.719	2987
4008.31	3063
4009.897	3044
4011.485	3041
4013.073	2975
4014.66	2980
4016.247	2962
4017.834	2967
4019.421	3001
4021.006	2999
4022.592	3024
4024.178	2995
4025.763	2959
4027.348	2968
4028.932	2937
4030.515	2972
4032.099	2919
4033.682	2946
4035.266	2851
4036.847	2945
4038.429	2995
4040.011	3024
4041.592	2948
4043.173	2881
4044.755	2919
4046.334	2856
4047.913	2967
4049.494	2909
4051.074	2848
4052.652	2921
4054.23	2924
4055.807	2910
4057.385	2910
4058.963	2898
4060.541	2905
4062.117	2853
4063.693	2890
4065.269	2857
4066.844	2949
4068.42	2890
4069.995	2932
4071.569	2968
4073.143	2790
4074.716	2841
4076.291	2865
4077.864	2907
4079.436	2791
4081.009	2897
4082.58	2858
4084.152	2847
4085.723	2912
4087.294	2816
4088.865	2933
4090.435	2872
4092.005	2837
4093.574	2858
4095.143	2838
4096.712	2930
4098.279	2794
4099.848	2860
4101.416	2837
4102.984	2780
4104.55	2845
4106.117	2852
4107.682	2804
4109.248	2731
4110.815	2787
4112.379	2804
4113.945	2802
4115.508	2810
4117.073	2757
4118.637	2761
4120.201	2740
4121.763	2851
4123.325	2705
4124.888	2816
4126.449	2799
4128.013	2789
4129.573	2738
4131.133	2736
4132.694	2728
4134.254	2823
4135.814	2784
4137.374	2733
4138.933	2712
4140.491	2702
4142.049	2762
4143.607	2740
4145.167	2683
4146.724	2719
4148.28	2636
4149.836	2757
4151.392	2767
4152.949	2700
4154.504	2679
4156.059	2719
4157.614	2714
4159.168	2700
4160.723	2700
4162.277	2697
4163.83	2699
4165.383	2655
4166.936	2708
4168.488	2666
4170.041	2674
4171.593	2637
4173.144	2679
4174.695	2615
4176.246	2620
4177.796	2729
4179.346	2639
4180.896	2637
4182.445	2602
4183.994	2630
4185.542	2674
4187.091	2630
4188.639	2586
4190.185	2569
4191.732	2634
4193.279	2544
4194.826	2609
4196.373	2579
4197.918	2658
4199.463	2562
4201.008	2635
4202.553	2616
4204.098	2650
4205.641	2589
4207.185	2610
4208.728	2648
4210.271	2610
4211.814	2654
4213.357	2584
4214.898	2550
4216.439	2603
4217.98	2659
4219.522	2584
4221.062	2588
4222.603	2658
4224.142	2616
4225.681	2557
4227.222	2604
4228.76	2610
4230.298	2623
4231.835	2591
4233.373	2559
4234.911	2608
4236.449	2511
4237.985	2595
4239.521	2612
4241.057	2554
4242.592	2604
4244.128	2570
4245.663	2538
4247.197	2568
4248.731	2573
4250.265	2573
4251.798	2599
4253.333	2551
4254.865	2511
4256.397	2507
4257.93	2552
4259.461	2568
4260.994	2545
4262.525	2599
4264.056	2546
4265.586	2597
4267.115	2511
4268.646	2562
4270.176	2517
4271.705	2463
4273.232	2530
4274.761	2442
4276.289	2502
4277.818	2514
4279.345	2477
4280.872	2524
4282.399	2437
4283.924	2521
4285.452	2477
4286.976	2485
4288.502	2449
4290.026	2488
4291.551	2487
4293.074	2505
4294.6	2523
4296.123	2441
4297.646	2478
4299.168	2460
4300.691	2467
4302.214	2500
4303.736	2524
4305.257	2415
4306.778	2509
4308.299	2431
4309.82	2373
4311.34	2474
4312.86	2422
4314.379	2439
