400.0745	3885
402.597	3856
405.1208	3893
407.6419	3886
410.1623	3912
412.6819	3888
415.201	3911
417.7172	4001
420.2369	3988
422.7538	4096
425.2701	3970
427.7856	4041
430.3005	4116
432.8147	4120
435.3282	4174
437.841	4005
440.3511	4124
442.8625	4053
445.3753	4116
447.8854	4103
450.3927	4162
452.9014	4083
455.4073	4085
457.9146	4024
460.4233	4084
462.9272	4068
465.4325	4129
467.935	4108
470.4389	4031
472.9421	4091
475.4446	4165
477.9444	4071
480.4456	4000
482.944	4159
485.4417	4184
487.9429	4118
490.4393	4114
492.935	4194
495.4321	4133
497.9264	4202
500.4221	4183
502.9171	4179
505.4094	4155
507.9011	4118
510.392	4181
512.8864	4223
515.3759	4226
517.8649	4235
520.3531	4293
522.8406	4213
525.3275	4255
527.8178	4222
530.3033	4435
532.7881	4199
535.2723	4294
537.7558	4302
540.2407	4258
542.7228	4173
545.2043	4288
547.6851	4208
550.1652	4163
552.6467	4205
555.1255	4207
557.6016	4291
560.079	4264
562.5557	4334
565.0318	4351
567.5092	4291
569.984	4294
572.456	4410
574.9294	4379
577.4022	4431
579.8762	4436
582.3456	4446
584.8163	4431
587.2863	4471
589.7557	4447
592.2224	4464
594.6924	4479
597.1578	4504
599.6245	4350
602.0905	4379
604.5538	4368
607.0206	4427
609.4825	4417
611.9459	4377
614.4066	4388
616.8686	4366
619.33	4433
621.7906	4470
624.2487	4289
626.708	4389
629.1647	4328
631.6207	4414
634.0801	4304
636.5348	4358
638.9888	4358
641.4442	4409
643.8969	4365
646.3509	4387
648.8022	4423
651.255	4424
653.705	4385
656.1544	4496
658.6031	4444
661.0532	4522
663.5026	4478
665.9493	4488
668.3954	4441
670.8409	4493
673.2877	4420
675.7318	4514
678.1752	4534
680.618	4530
683.0601	4544
685.5035	4510
687.9444	4491
690.3845	4544
692.824	4537
695.2628	4536
697.701	4658
700.1406	4542
702.5774	4522
705.0116	4535
707.4472	4549
709.8821	4556
712.3183	4632
714.7519	4537
717.1829	4616
719.6151	4606
722.0468	4632
724.4777	4683
726.908	4686
729.3377	4752
731.7667	4596
734.1931	4764
736.6208	4618
739.0498	4740
741.4742	4772
743.9	4784
746.3231	4720
748.7476	4744
751.1713	4722
753.5945	4869
756.015	4923
758.4368	4805
760.856	4792
763.2766	4857
765.6965	4747
768.1157	4791
770.5323	4885
772.9483	4891
775.3656	4841
777.7822	4871
780.1963	4808
782.6116	4807
785.0244	4820
787.4365	4709
789.8499	4957
792.2626	4966
794.6728	4870
797.0823	4848
799.4911	4832
801.8994	4861
804.3109	4847
806.7178	4898
809.124	4864
811.5297	4970
813.9347	4829
816.341	4966
818.7447	4911
821.1478	4901
823.5502	4989
825.952	4995
828.3531	4942
830.7556	4888
833.1554	4889
835.5546	4874
837.9532	4936
840.3511	4971
842.7504	4987
845.1451	4912
847.5411	4945
849.9365	5065
852.3312	5052
854.7272	5015
857.1187	5041
859.5115	5028
861.9037	5031
864.2952	5081
866.6842	4999
869.0764	5066
871.4661	5045
873.8531	4961
876.2415	5031
878.6272	5050
881.0162	4990
883.4026	5013
885.7866	5053
888.1717	5069
890.5543	4987
892.9382	5017
895.3215	5081
897.7041	4981
900.0842	5135
902.4655	4988
904.8443	4995
907.2244	5079
909.6039	4995
911.9808	5168
914.357	5170
916.7346	5182
919.1115	5282
921.4859	5229
923.8616	5268
926.2347	5343
928.6071	5246
930.979	5158
933.3541	5320
935.7247	5333
938.0946	5384
940.4639	5468
942.8326	5385
945.2026	5512
947.5701	5592
949.9369	5687
952.305	5879
954.6705	6069
957.0355	6345
959.4017	6586
961.7654	6615
964.1284	6648
966.4908	6565
968.8527	6278
971.2138	6003
973.5743	5745
975.9343	5617
978.2936	5378
980.6522	5334
983.0122	5332
985.3696	5251
987.7245	5284
990.0807	5140
992.4362	5212
994.7911	5178
997.1474	5179
999.4991	5145
1001.852	5159
1004.205	5330
1006.555	5213
1008.908	5298
1011.258	5252
1013.606	5230
1015.956	5241
1018.302	5284
1020.652	5327
1022.998	5249
1025.345	5295
1027.691	5296
1030.035	5267
1032.378	5337
1034.724	5386
1037.066	5332
1039.409	5301
1041.75	5361
1044.092	5356
1046.433	5308
1048.771	5362
1051.112	5345
1053.449	5303
1055.786	5338
1058.124	5354
1060.462	5421
1062.797	5349
1065.131	5421
1067.467	5375
1069.8	5455
1072.135	5422
1074.467	5463
1076.798	5421
1079.129	5379
1081.459	5390
1083.792	5447
1086.121	5401
1088.449	5382
1090.777	5379
1093.104	5230
1095.431	5293
1097.759	5331
1100.084	5295
1102.408	5312
1104.732	5294
1107.056	5258
1109.379	5401
1111.701	5406
1114.022	5293
1116.343	5301
1118.664	5277
1120.983	5254
1123.303	5356
1125.621	5279
1127.939	5403
1130.256	5392
1132.573	5309
1134.889	5275
1137.205	5369
1139.52	5324
1141.832	5371
1144.146	5299
1146.461	5323
1148.771	5301
1151.083	5277
1153.392	5265
1155.703	5411
1158.011	5308
1160.323	5363
1162.629	5294
1164.938	5328
1167.243	5314
1169.55	5342
1171.857	5369
1174.163	5408
1176.466	5290
1178.769	5152
1181.073	5320
1183.374	5377
1185.677	5333
1187.979	5265
1190.279	5397
1192.578	5241
1194.878	5393
1197.178	5328
1199.476	5334
1201.772	5316
1204.068	5267
1206.366	5295
1208.663	5327
1210.957	5244
1213.251	5476
1215.544	5324
1217.836	5436
1220.128	5314
1222.421	5360
1224.712	5402
1227.002	5402
1229.292	5368
1231.581	5545
1233.871	5532
1236.159	5515
1238.446	5505
1240.732	5402
1243.018	5395
1245.304	5629
1247.59	5517
1249.874	5637
1252.156	5516
1254.439	5599
1256.721	5480
1259.005	5650
1261.286	5549
1263.565	5600
1265.845	5611
1268.125	5591
1270.403	5559
1272.682	5562
1274.959	5694
1277.234	5556
1279.511	5606
1281.787	5487
1284.062	5456
1286.337	5505
1288.609	5499
1290.882	5440
1293.153	5489
1295.428	5470
1297.698	5597
1299.969	5495
1302.237	5477
1304.507	5405
1306.777	5434
1309.044	5473
1311.312	5463
1313.578	5387
1315.844	5518
1318.109	5470
1320.375	5583
1322.638	5495
1324.903	5537
1327.165	5412
1329.427	5457
1331.69	5525
1333.952	5508
1336.212	5495
1338.471	5418
1340.73	5428
1342.988	5393
1345.248	5433
1347.505	5459
1349.763	5378
1352.019	5423
1354.274	5459
1356.53	5430
1358.784	5414
1361.038	5424
1363.291	5324
1365.543	5449
1367.797	5395
1370.048	5451
1372.296	5374
1374.546	5502
1376.796	5443
1379.045	5447
1381.295	5442
1383.542	5487
1385.787	5373
1388.034	5484
1390.28	5510
1392.527	5598
1394.772	5488
1397.014	5578
1399.258	5538
1401.501	5540
1403.741	5579
1405.985	5561
1408.226	5639
1410.465	5503
1412.705	5613
1414.943	5655
1417.184	5538
1419.42	5679
1421.658	5686
1423.894	5704
1426.13	5619
1428.366	5728
1430.602	5589
1432.835	5652
1435.069	5692
1437.301	5669
1439.535	5669
1441.767	5631
1443.997	5712
1446.229	5699
1448.458	5781
1450.687	5823
1452.916	5831
1455.146	5664
1457.372	5755
1459.599	5862
1461.824	5783
1464.051	5710
1466.277	5770
1468.501	5652
1470.725	5616
1472.948	5623
1475.17	5567
1477.393	5593
1479.614	5593
1481.837	5582
1484.057	5536
1486.276	5490
1488.497	5542
1490.715	5460
1492.932	5441
1495.148	5495
1497.364	5512
1499.58	5401
1501.798	5486
1504.012	5347
1506.227	5463
1508.44	5392
1510.653	5447
1512.866	5380
1515.078	5388
1517.289	5406
1519.5	5493
1521.711	5404
1523.92	5454
1526.13	5368
1528.338	5365
1530.544	5427
1532.752	5454
1534.959	5367
1537.165	5532
1539.371	5460
1541.574	5421
1543.779	5388
1545.983	5499
1548.187	5430
1550.39	5411
1552.59	5483
1554.792	5456
1556.991	5347
1559.19	5577
1561.392	5546
1563.59	5515
1565.789	5514
1567.986	5496
1570.182	5479
1572.381	5632
1574.576	5486
1576.771	5510
1578.966	5490
1581.16	5517
1583.354	5529
1585.546	5559
1587.74	5672
1589.931	5555
1592.121	5500
1594.311	5539
1596.502	5585
1598.693	5588
1600.881	5510
1603.069	5547
1605.256	5617
1607.445	5569
1609.631	5730
1611.816	5635
1614.001	5608
1616.186	5590
1618.37	5713
1620.555	5665
1622.737	5587
1624.919	5593
1627.101	5567
1629.282	5687
1631.463	5754
1633.643	5659
1635.822	5656
1638.001	5653
1640.179	5742
1642.359	5701
1644.534	5803
1646.711	5778
1648.887	5697
1651.062	5733
1653.235	5686
1655.412	5771
1657.586	5734
1659.757	5790
1661.93	5652
1664.1	5699
1666.274	5704
1668.445	5669
1670.614	5704
1672.784	5892
1674.951	5696
1677.12	5846
1679.289	5804
1681.457	5768
1683.622	5653
1685.789	5758
1687.953	5692
1690.121	5665
1692.284	5694
1694.447	5686
1696.611	5633
1698.772	5655
1700.935	5717
1703.098	5657
1705.258	5619
1707.417	5674
1709.576	5521
1711.736	5488
1713.896	5603
1716.053	5519
1718.21	5604
1720.366	5533
1722.522	5658
1724.68	5694
1726.835	5531
1728.989	5583
1731.142	5589
1733.295	5644
1735.449	5630
1737.601	5492
1739.753	5512
1741.903	5507
1744.054	5539
1746.203	5537
1748.354	5570
1750.503	5633
1752.651	5575
1754.798	5601
1756.944	5630
1759.092	5534
1761.238	5635
1763.383	5613
1765.528	5607
1767.672	5581
1769.814	5621
1771.959	5585
1774.102	5556
1776.242	5596
1778.384	5516
1780.525	5599
1782.665	5511
1784.805	5655
1786.945	5653
1789.082	5477
1791.22	5590
1793.36	5623
1795.495	5594
1797.632	5600
1799.766	5612
1801.902	5568
1804.035	5689
1806.172	5716
1808.304	5616
1810.436	5696
1812.569	5659
1814.699	5651
1816.833	5673
1818.963	5491
1821.092	5696
1823.222	5613
1825.35	5582
1827.478	5434
1829.608	5524
1831.734	5485
1833.86	5630
1835.986	5587
1838.11	5496
1840.238	5457
1842.362	5509
1844.485	5588
1846.608	5597
1848.73	5550
1850.853	5500
1852.974	5624
1855.097	5571
1857.217	5600
1859.336	5539
1861.455	5673
1863.576	5513
1865.693	5491
1867.811	5468
1869.926	5565
1872.042	5535
1874.16	5497
1876.275	5498
1878.39	5565
1880.504	5464
1882.618	5514
1884.731	5527
1886.843	5514
1888.956	5581
1891.067	5576
1893.178	5560
1895.287	5467
1897.399	5591
1899.508	5587
1901.617	5677
1903.724	5621
1905.832	5587
1907.941	5525
1910.046	5631
1912.152	5583
1914.256	5625
1916.361	5524
1918.464	5603
1920.57	5658
1922.672	5676
1924.775	5558
1926.876	5605
1928.978	5683
1931.08	5601
1933.181	5628
1935.28	5560
1937.38	5730
1939.478	5604
1941.577	5568
1943.675	5700
1945.771	5644
1947.867	5615
1949.964	5575
1952.058	5578
1954.154	5561
1956.248	5639
1958.343	5582
1960.435	5629
1962.527	5586
1964.62	5561
1966.711	5626
1968.802	5614
1970.892	5530
1972.983	5595
1975.072	5602
1977.162	5567
1979.25	5517
1981.337	5599
1983.424	5573
1985.51	5553
1987.598	5667
1989.683	5561
1991.768	5604
1993.852	5524
1995.934	5514
1998.019	5511
2000.102	5536
2002.184	5596
2004.266	5546
2006.347	5542
2008.427	5598
2010.508	5540
2012.587	5600
2014.666	5547
2016.745	5548
2018.821	5572
2020.9	5514
2022.977	5576
2025.052	5567
2027.128	5485
2029.204	5499
2031.277	5531
2033.353	5427
2035.425	5635
2037.499	5493
2039.57	5565
2041.642	5587
2043.714	5628
2045.786	5566
2047.855	5536
2049.925	5528
2051.993	5560
2054.064	5516
2056.132	5564
2058.2	5593
2060.266	5547
2062.332	5691
2064.398	5598
2066.465	5478
2068.529	5554
2070.592	5539
2072.657	5555
2074.719	5562
2076.783	5539
2078.845	5647
2080.907	5520
2082.968	5557
2085.028	5544
2087.087	5513
2089.148	5527
2091.207	5526
2093.264	5576
2095.322	5527
2097.379	5574
2099.439	5430
2101.495	5473
2103.55	5561
2105.605	5651
2107.658	5495
2109.713	5530
2111.767	5561
2113.82	5546
2115.872	5549
2117.924	5606
2119.975	5464
2122.028	5600
2124.078	5596
2126.126	5644
2128.176	5530
2130.225	5464
2132.275	5457
2134.321	5540
2136.368	5592
2138.415	5579
2140.461	5547
2142.505	5533
2144.552	5531
2146.597	5350
2148.64	5448
2150.684	5479
2152.725	5548
2154.77	5545
2156.811	5437
2158.852	5456
2160.894	5445
2162.933	5434
2164.973	5521
2167.013	5422
2169.051	5509
2171.089	5509
2173.126	5510
2175.164	5455
2177.201	5437
2179.236	5435
2181.273	5493
2183.307	5428
2185.341	5397
2187.377	5469
2189.41	5353
2191.442	5509
2193.473	5489
2195.506	5397
2197.539	5408
2199.569	5307
2201.598	5353
2203.628	5545
2205.656	5509
2207.686	5430
2209.716	5389
2211.743	5437
2213.769	5393
2215.796	5358
2217.821	5432
2219.848	5312
2221.873	5290
2223.897	5416
2225.921	5335
2227.944	5245
2229.967	5432
2231.991	5403
2234.011	5422
2236.032	5309
2238.053	5306
2240.073	5406
2242.094	5362
2244.114	5456
2246.131	5411
2248.149	5349
2250.167	5398
2252.186	5329
2254.201	5370
2256.218	5301
2258.233	5316
2260.247	5359
2262.262	5383
2264.278	5414
2266.29	5401
2268.303	5293
2270.315	5345
2272.327	5297
2274.341	5363
2276.35	5330
2278.361	5336
2280.37	5401
2282.38	5458
2284.388	5436
2286.397	5296
2288.405	5397
2290.412	5293
2292.419	5287
2294.425	5322
2296.431	5403
2298.437	5328
2300.441	5405
2302.445	5326
2304.449	5311
2306.453	5451
2308.455	5245
2310.457	5349
2312.459	5332
2314.46	5338
2316.46	5385
2318.461	5274
2320.46	5369
2322.458	5318
2324.458	5225
2326.456	5335
2328.455	5262
2330.451	5326
2332.447	5242
2334.443	5313
2336.438	5239
2338.433	5230
2340.429	5247
2342.422	5329
2344.416	5278
2346.408	5385
2348.399	5194
2350.393	5142
2352.384	5236
2354.375	5385
2356.365	5273
2358.355	5229
2360.344	5285
2362.333	5193
2364.322	5276
2366.309	5217
2368.295	5171
2370.282	5241
2372.27	5227
2374.256	5200
2376.24	5231
2378.225	5225
2380.208	5352
2382.194	5216
2384.177	5244
2386.159	5259
2388.142	5299
2390.122	5191
2392.105	5253
2394.085	5192
2396.066	5165
2398.044	5207
2400.024	5135
2402.002	5275
2403.982	5125
2405.959	5151
2407.935	5164
2409.913	5239
2411.888	5115
2413.865	5232
2415.84	5204
2417.814	5164
2419.788	5145
2421.762	5207
2423.735	5203
2425.708	5248
2427.68	5203
2429.651	5201
2431.623	5134
2433.593	5142
2435.564	5139
2437.533	5272
2439.502	5181
2441.47	5227
2443.438	5125
2445.406	5189
2447.373	5271
2449.34	5196
2451.305	5208
2453.271	5122
2455.235	5202
2457.201	5215
2459.165	5107
2461.129	5201
2463.092	5126
2465.054	5142
2467.018	5104
2468.978	5176
2470.939	5052
2472.899	5120
2474.86	5116
2476.819	5132
2478.778	5193
2480.737	5092
2482.695	5094
2484.653	5157
2486.609	5148
2488.567	5025
2490.524	5086
2492.478	5132
2494.433	5055
2496.387	5143
2498.343	5120
2500.297	5019
2502.249	5128
2504.202	5163
2506.153	5000
2508.105	5070
2510.057	5023
2512.008	5027
2513.957	5081
2515.906	5078
2517.855	5157
2519.805	5027
2521.754	5084
2523.7	5122
2525.647	5094
2527.594	5143
2529.54	5106
2531.486	4999
2533.431	4948
2535.376	5001
2537.32	5032
2539.263	4933
2541.207	5061
2543.151	5060
2545.093	5078
2547.034	5059
2548.975	5028
2550.917	4954
2552.856	5105
2554.796	4982
2556.735	5062
2558.673	5088
2560.611	5064
2562.55	5072
2564.487	5085
2566.424	5109
2568.36	5003
2570.296	4937
2572.232	5033
2574.167	5110
2576.101	5043
2578.035	4973
2579.969	5062
2581.902	4916
2583.834	5022
2585.766	5008
2587.698	5037
2589.628	5163
2591.557	5055
2593.489	5115
2595.419	5034
2597.348	5112
2599.275	5012
2601.204	5050
2603.131	5068
2605.059	4980
2606.986	4937
2608.911	5053
2610.837	5021
2612.76	4963
2614.687	5121
2616.61	5084
2618.534	5087
2620.457	5083
2622.38	5057
2624.302	5029
2626.225	5067
2628.145	5062
2630.067	5030
2631.986	5002
2633.906	5085
2635.827	5081
2637.745	5045
2639.662	5108
2641.581	5113
2643.498	5047
2645.415	5146
2647.331	5021
2649.248	5097
2651.163	4938
2653.077	5017
2654.993	4975
2656.906	5122
2658.821	5056
2660.733	4971
2662.646	5063
2664.557	5028
2666.47	4998
2668.381	5000
2670.291	4979
2672.201	4971
2674.11	5095
2676.021	4982
2677.929	5037
2679.837	5089
2681.745	5039
2683.652	5038
2685.56	4991
2687.466	4950
2689.371	5004
2691.276	4960
2693.181	4918
2695.085	4979
2696.991	4995
2698.893	5004
2700.796	5078
2702.698	4942
2704.601	4941
2706.502	4956
2708.404	4951
2710.304	5014
2712.203	5026
2714.103	4864
2716.003	4983
2717.902	4956
2719.8	4974
2721.697	4891
2723.594	4978
2725.49	4869
2727.389	4990
2729.283	4989
2731.179	4896
2733.073	4990
2734.968	5012
2736.863	4850
2738.757	5028
2740.649	4984
2742.541	5047
2744.433	4877
2746.324	5048
2748.216	4906
2750.107	4872
2751.997	5026
2753.886	4998
2755.776	4855
2757.666	4987
2759.553	4875
2761.44	4998
2763.327	4953
2765.215	4949
2767.102	4858
2768.988	4845
2770.873	4874
2772.757	4990
2774.641	4913
2776.525	4920
2778.41	4897
2780.292	4865
2782.175	4870
2784.057	4887
2785.938	4810
2787.821	4893
2789.701	4899
2791.581	4861
2793.461	4799
2795.34	4904
2797.219	4876
2799.099	4823
2800.975	4817
2802.853	4955
2804.73	4874
2806.606	4775
2808.484	4864
2810.358	4840
2812.233	4754
2814.108	4854
2815.981	4873
2817.857	4855
2819.73	4819
2821.602	4827
2823.474	4824
2825.346	4812
2827.217	4913
2829.089	4906
2830.959	4827
2832.829	4950
2834.698	4886
2836.567	4841
2838.436	4781
2840.305	4831
2842.172	4994
2844.04	4961
2845.905	4856
2847.772	5007
2849.639	4902
2851.503	4916
2853.369	4919
2855.232	4954
2857.096	4993
2858.961	4972
2860.824	4963
2862.686	4936
2864.547	5012
2866.41	5063
2868.272	5089
2870.132	5237
2871.992	5175
2873.851	5145
2875.711	5195
2877.57	5227
2879.429	5189
2881.287	5404
2883.144	5294
2885.001	5413
2886.857	5363
2888.714	5457
2890.57	5444
2892.425	5363
2894.279	5425
2896.133	5454
2897.987	5356
2899.842	5418
2901.694	5401
2903.547	5451
2905.397	5324
2907.249	5431
2909.101	5315
2910.952	5360
2912.802	5546
2914.652	5531
2916.5	5591
2918.35	5587
2920.198	5526
2922.045	5727
2923.893	5763
2925.74	5786
2927.585	5821
2929.433	5884
2931.279	5922
2933.123	5957
2934.968	6107
2936.811	6031
2938.656	6055
2940.5	6164
2942.342	6250
2944.185	6202
2946.026	6225
2947.87	6245
2949.71	6234
2951.549	6147
2953.39	6280
2955.229	6189
2957.069	6037
2958.908	5937
2960.746	5988
2962.584	5869
2964.421	5936
2966.257	5814
2968.094	5783
2969.931	5680
2971.766	5623
2973.601	5617
2975.435	5518
2977.27	5639
2979.105	5573
2980.938	5558
2982.77	5507
2984.602	5440
2986.434	5461
2988.267	5430
2990.097	5319
2991.927	5294
2993.757	5304
2995.587	5291
2997.417	5259
2999.246	5199
3001.074	5097
3002.902	5240
3004.729	4965
3006.556	5073
3008.384	5009
3010.21	4910
3012.036	4956
3013.861	4912
3015.684	4779
3017.51	4849
3019.334	4791
3021.157	4766
3022.981	4720
3024.802	4777
3026.624	4689
3028.448	4671
3030.267	4729
3032.088	4696
3033.909	4560
3035.728	4632
3037.549	4555
3039.368	4615
3041.186	4651
3043.004	4647
3044.821	4638
3046.64	4477
3048.455	4598
3050.272	4557
3052.087	4550
3053.903	4553
3055.717	4538
3057.534	4532
3059.347	4632
3061.16	4515
3062.974	4601
3064.785	4684
3066.598	4541
3068.411	4682
3070.222	4582
3072.032	4569
3073.844	4553
3075.653	4527
3077.463	4608
3079.272	4568
3081.08	4517
3082.889	4432
3084.697	4528
3086.505	4545
3088.312	4448
3090.118	4473
3091.924	4453
3093.729	4351
3095.535	4439
3097.34	4281
3099.144	4420
3100.947	4429
3102.75	4358
3104.553	4380
3106.357	4490
3108.159	4370
3109.961	4477
3111.762	4349
3113.562	4455
3115.365	4384
3117.164	4364
3118.964	4379
3120.761	4411
3122.56	4326
3124.36	4398
3126.158	4314
3127.954	4453
3129.75	4346
3131.547	4391
3133.343	4306
3135.139	4460
3136.934	4324
3138.729	4396
3140.522	4313
3142.317	4354
3144.11	4343
3145.904	4328
3147.695	4252
3149.488	4362
3151.28	4207
3153.07	4355
3154.863	4369
3156.652	4242
3158.441	4320
3160.231	4287
3162.019	4255
3163.81	4352
3165.597	4280
3167.384	4339
3169.172	4368
3170.958	4259
3172.745	4229
3174.532	4363
3176.317	4323
3178.101	4320
3179.885	4329
3181.67	4278
3183.455	4293
3185.238	4321
3187.02	4261
3188.802	4239
3190.585	4176
3192.368	4285
3194.149	4255
3195.929	4256
3197.709	4318
3199.489	4231
3201.268	4242
3203.048	4303
3204.826	4227
3206.604	4237
3208.382	4337
3210.159	4246
3211.937	4349
3213.713	4299
3215.489	4306
3217.263	4303
3219.038	4269
3220.815	4312
3222.589	4296
3224.363	4232
3226.136	4244
3227.908	4243
3229.681	4229
3231.454	4334
3233.226	4231
3234.996	4220
3236.767	4290
3238.538	4279
3240.308	4163
3242.078	4327
3243.847	4197
3245.615	4304
3247.384	4284
3249.15	4259
3250.92	4226
3252.686	4316
3254.453	4249
3256.218	4218
3257.984	4210
3259.75	4191
3261.515	4275
3263.279	4257
3265.044	4339
3266.806	4242
3268.57	4206
3270.334	4225
3272.095	4285
3273.856	4220
3275.619	4233
3277.379	4313
3279.14	4288
3280.9	4210
3282.661	4261
3284.419	4200
3286.178	4261
3287.937	4246
3289.695	4262
3291.453	4247
3293.21	4258
3294.967	4244
3296.723	4230
3298.48	4262
3300.235	4349
3301.99	4253
3303.744	4352
3305.498	4211
3307.253	4189
3309.006	4323
3310.759	4174
3312.511	4283
3314.263	4273
3316.017	4219
3317.768	4239
3319.519	4185
3321.268	4293
3323.018	4205
3324.767	4277
3326.518	4273
3328.267	4231
3330.014	4244
3331.762	4244
3333.509	4267
3335.258	4259
3337.003	4197
3338.75	4232
3340.496	4246
3342.24	4235
3343.987	4212
3345.732	4246
3347.475	4242
3349.219	4243
3350.961	4173
3352.705	4249
3354.448	4175
3356.19	4291
3357.931	4267
3359.672	4257
3361.412	4264
3363.155	4160
3364.894	4238
3366.633	4182
3368.372	4124
3370.11	4199
3371.849	4107
3373.588	4173
3375.325	4176
3377.061	4152
3378.799	4175
3380.534	4104
3382.271	4096
3384.006	4141
3385.741	4162
3387.475	4141
3389.209	4042
3390.944	4014
3392.677	4094
3394.409	4068
3396.143	4066
3397.874	4097
3399.606	4165
3401.338	4085
3403.069	4187
3404.799	4066
3406.528	4031
3408.258	4037
3409.988	4021
3411.717	4070
3413.445	4174
3415.173	4142
3416.899	3971
3418.626	4035
3420.354	4042
3422.08	4034
3423.806	4059
3425.531	3965
3427.255	4021
3428.981	3972
3430.705	4062
3432.429	4010
3434.151	3988
3435.875	4052
3437.599	3986
3439.321	3955
3441.042	3956
3442.763	4003
3444.483	4041
3446.204	4010
3447.926	4050
3449.645	3955
3451.364	3961
3453.082	3890
3454.801	3932
3456.52	4061
3458.238	3966
3459.954	3940
3461.671	3937
3463.387	3897
3465.104	3956
3466.82	3917
3468.534	3904
3470.25	3851
3471.963	3919
3473.676	3964
3475.392	3858
3477.104	3824
3478.817	3864
3480.528	3787
3482.241	3945
3483.954	3832
3485.664	3837
3487.374	3842
3489.084	3877
3490.795	3908
3492.504	3844
3494.214	3765
3495.922	3810
3497.63	3813
3499.338	3870
3501.045	3823
3502.753	3831
3504.459	3700
3506.166	3810
3507.871	3771
3509.576	3758
3511.283	3731
3512.987	3805
3514.691	3767
3516.395	3759
3518.098	3777
3519.8	3810
3521.504	3761
3523.206	3749
3524.908	3838
3526.609	3732
3528.309	3688
3530.011	3657
3531.711	3736
3533.411	3748
3535.109	3718
3536.808	3677
3538.507	3730
3540.206	3642
3541.904	3650
3543.601	3654
3545.297	3667
3546.994	3722
3548.69	3656
3550.387	3590
3552.081	3607
3553.776	3661
3555.47	3681
3557.166	3658
3558.859	3644
3560.553	3683
3562.245	3652
3563.938	3610
3565.629	3578
3567.322	3662
3569.014	3619
3570.704	3662
3572.394	3583
3574.084	3653
3575.775	3661
3577.464	3654
3579.152	3615
3580.842	3621
3582.529	3622
3584.216	3623
3585.905	3574
3587.591	3549
3589.279	3627
3590.964	3566
3592.649	3526
3594.336	3599
3596.021	3561
3597.705	3486
3599.388	3651
3601.072	3464
3602.757	3550
3604.439	3408
3606.122	3478
3607.803	3486
3609.485	3445
3611.167	3447
3612.849	3508
3614.529	3506
3616.208	3476
3617.888	3464
3619.567	3498
3621.247	3511
3622.926	3451
3624.603	3476
3626.281	3449
3627.958	3455
3629.635	3393
3631.312	3391
3632.989	3396
3634.665	3482
3636.339	3455
3638.014	3431
3639.691	3356
3641.364	3396
3643.038	3391
3644.71	3373
3646.384	3351
3648.058	3404
3649.729	3426
3651.402	3353
3653.073	3323
3654.744	3338
3656.414	3366
3658.085	3362
3659.755	3355
3661.424	3387
3663.094	3343
3664.762	3364
3666.431	3355
3668.099	3350
3669.766	3365
3671.433	3317
3673.099	3275
3674.768	3349
3676.433	3302
3678.098	3282
3679.763	3321
3681.428	3371
3683.093	3265
3684.757	3295
3686.421	3263
3688.083	3239
3689.746	3341
3691.408	3266
3693.071	3291
3694.733	3326
3696.394	3227
3698.054	3231
3699.715	3280
3701.375	3284
3703.036	3276
3704.695	3208
3706.354	3281
3708.012	3323
3709.67	3289
3711.329	3272
3712.987	3246
3714.644	3214
3716.299	3257
3717.955	3271
3719.613	3329
3721.268	3252
3722.923	3268
3724.577	3165
3726.231	3322
3727.885	3250
3729.539	3257
3731.192	3263
3732.845	3187
3734.497	3211
3736.149	3238
3737.802	3197
3739.453	3257
3741.104	3154
3742.753	3185
3744.404	3144
3746.052	3144
3747.704	3202
3749.352	3229
3751	3158
3752.648	3198
3754.296	3184
3755.944	3164
3757.59	3181
3759.238	3178
3760.883	3216
3762.528	3230
3764.176	3158
3765.82	3219
3767.464	3132
3769.109	3178
3770.753	3196
3772.396	3191
3774.04	3160
3775.683	3134
3777.325	3103
3778.967	3123
3780.608	3213
3782.25	3144
3783.89	3084
3785.531	3063
3787.17	3095
3788.81	3081
3790.45	3146
3792.09	3092
3793.729	3060
3795.366	3135
3797.003	3031
3798.64	3099
3800.278	3097
3801.915	3127
3803.551	3139
3805.187	3106
3806.822	3084
3808.458	3131
3810.093	3078
3811.726	3084
3813.36	3040
3814.994	3052
3816.627	3063
3818.262	3035
3819.893	3044
3821.525	3074
3823.157	3075
3824.787	3018
3826.42	3075
3828.051	3076
3829.68	3079
3831.31	2968
3832.938	3033
3834.569	3044
3836.198	3063
3837.825	3033
3839.454	3059
3841.08	3038
3842.708	3039
3844.335	3064
3845.962	2991
3847.587	2986
3849.212	2991
3850.838	2961
3852.463	2987
3854.089	3027
3855.712	3016
3857.335	2972
3858.959	3030
3860.582	3023
3862.205	3040
3863.827	2944
3865.449	2997
3867.07	2989
3868.691	2960
3870.312	3058
3871.933	2976
3873.553	2959
3875.173	2978
3876.792	3056
3878.411	2961
3880.03	2952
3881.647	2986
3883.265	2909
3884.882	3000
3886.499	2971
3888.116	2955
3889.732	2901
3891.348	2950
3892.964	2994
3894.579	2932
3896.195	2948
3897.809	2989
3899.423	2981
3901.036	2955
3902.648	2956
3904.261	2907
3905.875	2957
3907.487	2890
3909.099	2986
3910.709	2939
3912.321	2949
3913.933	2992
3915.542	2893
3917.152	2955
3918.762	2938
3920.37	2970
3921.98	2912
3923.589	2924
3925.196	2880
3926.804	2948
3928.41	2918
3930.018	2933
3931.626	2929
3933.231	2868
3934.838	2902
3936.442	2842
3938.046	2960
3939.653	2988
3941.257	2844
3942.861	2947
3944.464	2884
3946.068	2983
3947.67	2884
3949.273	2867
3950.876	2872
3952.477	2901
3954.078	2877
3955.678	2899
3957.281	2811
3958.881	2777
3960.48	2860
3962.079	2888
3963.678	2828
3965.279	2849
3966.877	2786
3968.475	2874
3970.072	2824
3971.669	2855
3973.266	2886
3974.864	2796
3976.459	2827
3978.055	2795
3979.65	2908
3981.245	2863
3982.841	2791
3984.436	2857
3986.03	2767
3987.623	2829
3989.216	2821
3990.809	2851
3992.403	2769
3993.995	2811
3995.586	2800
3997.177	2728
3998.768	2810
4000.361	2820
4001.951	2794
4003.54	2820
4005.13	2715
4006.719	2782
4008.31	2787
4009.897	2674
4011.485	2694
4013.073	2781
4014.66	2752
4016.247	2785
4017.834	2729
4019.421	2717
4021.006	2732
4022.592	2704
4024.178	2823
4025.763	2750
4027.348	2743
4028.932	2695
4030.515	2696
4032.099	2739
4033.682	2706
4035.266	2715
4036.847	2686
4038.429	2679
4040.011	2682
4041.592	2678
4043.173	2652
4044.755	2710
4046.334	2695
4047.913	2662
4049.494	2681
4051.074	2659
4052.652	2649
4054.23	2672
4055.807	2653
4057.385	2689
4058.963	2660
4060.541	2660
4062.117	2726
4063.693	2637
4065.269	2662
4066.844	2681
4068.42	2641
4069.995	2621
4071.569	2613
4073.143	2584
4074.716	2705
4076.291	2573
4077.864	2637
4079.436	2605
4081.009	2643
4082.58	2578
4084.152	2685
4085.723	2693
4087.294	2652
4088.865	2608
4090.435	2604
4092.005	2685
4093.574	2591
4095.143	2523
4096.712	2589
4098.279	2568
4099.848	2601
4101.416	2603
4102.984	2594
4104.55	2584
4106.117	2594
4107.682	2621
4109.248	2560
4110.815	2605
4112.379	2623
4113.945	2572
4115.508	2577
4117.073	2507
4118.637	2562
4120.201	2576
4121.763	2518
4123.325	2553
4124.888	2605
4126.449	2550
4128.013	2525
4129.573	2580
4131.133	2511
4132.694	2502
4134.254	2518
4135.814	2464
4137.374	2506
4138.933	2574
4140.491	2579
4142.049	2579
4143.607	2530
4145.167	2528
4146.724	2531
4148.28	2488
4149.836	2591
4151.392	2478
4152.949	2564
4154.504	2522
4156.059	2514
4157.614	2460
4159.168	2485
4160.723	2449
4162.277	2533
4163.83	2508
4165.383	2476
4166.936	2480
4168.488	2483
4170.041	2455
4171.593	2486
4173.144	2396
4174.695	2445
4176.246	2449
4177.796	2413
4179.346	2425
4180.896	2436
4182.445	2465
4183.994	2483
4185.542	2458
4187.091	2466
4188.639	2445
4190.185	2407
4191.732	2411
4193.279	2486
4194.826	2434
4196.373	2425
4197.918	2421
4199.463	2486
4201.008	2371
4202.553	2373
4204.098	2476
4205.641	2431
4207.185	2436
4208.728	2423
4210.271	2433
4211.814	2421
4213.357	2368
4214.898	2437
4216.439	2398
4217.98	2451
4219.522	2375
4221.062	2377
4222.603	2378
4224.142	2428
4225.681	2366
4227.222	2366
4228.76	2468
4230.298	2352
4231.835	2334
4233.373	2400
4234.911	2354
4236.449	2370
4237.985	2412
4239.521	2305
4241.057	2384
4242.592	2366
4244.128	2378
4245.663	2365
4247.197	2400
4248.731	2380
4250.265	2386
4251.798	2290
4253.333	2387
4254.865	2360
4256.397	2364
4257.93	2390
4259.461	2352
4260.994	2342
4262.525	2367
4264.056	2301
4265.586	2341
4267.115	2349
4268.646	2352
4270.176	2335
4271.705	2367
4273.232	2337
4274.761	2364
4276.289	2337
4277.818	2355
4279.345	2315
4280.872	2319
4282.399	2309
4283.924	2389
4285.452	2329
4286.976	2329
4288.502	2368
4290.026	2311
4291.551	2235
4293.074	2333
4294.6	2306
4296.123	2340
4297.646	2237
4299.168	2355
4300.691	2224
4302.214	2280
4303.736	2313
4305.257	2304
4306.778	2295
4308.299	2265
4309.82	2281
4311.34	2310
4312.86	2248
4314.379	2242
