400.0745	4332
402.597	4352
405.1208	4354
407.6419	4440
410.1623	4341
412.6819	4435
415.201	4588
417.7172	4500
420.2369	4449
422.7538	4586
425.2701	4600
427.7856	4534
430.3005	4723
432.8147	4621
435.3282	4532
437.841	4745
440.3511	4594
442.8625	4669
445.3753	4748
447.8854	4727
450.3927	4605
452.9014	4573
455.4073	4677
457.9146	4674
460.4233	4761
462.9272	4762
465.4325	4735
467.935	4592
470.4389	4688
472.9421	4750
475.4446	4827
477.9444	4788
480.4456	4709
482.944	4765
485.4417	4732
487.9429	4740
490.4393	4812
492.935	4826
495.4321	4783
497.9264	4843
500.4221	4913
502.9171	4778
505.4094	4772
507.9011	4881
510.392	4885
512.8864	4846
515.3759	4984
517.8649	4901
520.3531	4750
522.8406	4845
525.3275	5018
527.8178	4946
530.3033	4956
532.7881	4842
535.2723	4942
537.7558	4924
540.2407	4897
542.7228	4979
545.2043	4914
547.6851	4937
550.1652	4868
552.6467	4931
555.1255	5011
557.6016	4917
560.079	4931
562.5557	4896
565.0318	4994
567.5092	4934
569.984	4983
572.456	5008
574.9294	5015
577.4022	5035
579.8762	5127
582.3456	5082
584.8163	5078
587.2863	5134
589.7557	5068
592.2224	5025
594.6924	5191
597.1578	5074
599.6245	5042
602.0905	5138
604.5538	5071
607.0206	5042
609.4825	5080
611.9459	5062
614.4066	5093
616.8686	5098
619.33	5004
621.7906	5164
624.2487	4993
626.708	5130
629.1647	5018
631.6207	5059
634.0801	5022
636.5348	5132
638.9888	5075
641.4442	5102
643.8969	5036
646.3509	5076
648.8022	5057
651.255	5192
653.705	5143
656.1544	5052
658.6031	5149
661.0532	5067
663.5026	5379
665.9493	5141
668.3954	5201
670.8409	5184
673.2877	5245
675.7318	5189
678.1752	5155
680.618	5247
683.0601	5180
685.5035	5161
687.9444	5360
690.3845	5260
692.824	5228
695.2628	5297
697.701	5327
700.1406	5401
702.5774	5283
705.0116	5271
707.4472	5331
709.8821	5329
712.3183	5416
714.7519	5258
717.1829	5277
719.6151	5459
722.0468	5372
724.4777	5334
726.908	5430
729.3377	5370
731.7667	5458
734.1931	5492
736.6208	5494
739.0498	5465
741.4742	5502
743.9	5418
746.3231	5576
748.7476	5670
751.1713	5628
753.5945	5541
756.015	5638
758.4368	5579
760.856	5587
763.2766	5625
765.6965	5659
768.1157	5611
770.5323	5611
772.9483	5632
775.3656	5648
777.7822	5614
780.1963	5663
782.6116	5661
785.0244	5650
787.4365	5681
789.8499	5682
792.2626	5577
794.6728	5580
797.0823	5695
799.4911	5530
801.8994	5698
804.3109	5621
806.7178	5695
809.124	5675
811.5297	5720
813.9347	5737
816.341	5759
818.7447	5806
821.1478	5642
823.5502	5652
825.952	5718
828.3531	5744
830.7556	5649
833.1554	5744
835.5546	5837
837.9532	5766
840.3511	5849
842.7504	5732
845.1451	5833
847.5411	5747
849.9365	5783
852.3312	5804
854.7272	5756
857.1187	5895
859.5115	5917
861.9037	5924
864.2952	5723
866.6842	5911
869.0764	5891
871.4661	5788
873.8531	5803
876.2415	5832
878.6272	5768
881.0162	5891
883.4026	5769
885.7866	5692
888.1717	5759
890.5543	5938
892.9382	5794
895.3215	5809
897.7041	5812
900.0842	5863
902.4655	5914
904.8443	5802
907.2244	5777
909.6039	5776
911.9808	5869
914.357	6081
916.7346	5959
919.1115	5957
921.4859	6162
923.8616	6165
926.2347	6133
928.6071	6121
930.979	6132
933.3541	6068
935.7247	6176
938.0946	6151
940.4639	6219
942.8326	6267
945.2026	6288
947.5701	6286
949.9369	6448
952.305	6489
954.6705	6774
957.0355	6768
959.4017	6963
961.7654	7082
964.1284	7051
966.4908	6959
968.8527	6708
971.2138	6520
973.5743	6311
975.9343	6163
978.2936	6113
980.6522	6093
983.0122	6090
985.3696	6004
987.7245	6028
990.0807	5980
992.4362	5979
994.7911	5932
997.1474	5974
999.4991	6103
1001.852	6035
1004.205	6119
1006.555	5962
1008.908	6156
1011.258	6015
1013.606	6082
1015.956	6084
1018.302	6101
1020.652	6002
1022.998	6092
1025.345	6108
1027.691	6107
1030.035	6149
1032.378	6051
1034.724	6048
1037.066	6142
1039.409	6005
1041.75	6122
1044.092	6098
1046.433	6122
1048.771	6099
1051.112	6049
1053.449	6066
1055.786	6167
1058.124	6228
1060.462	6167
1062.797	6202
1065.131	6173
1067.467	6242
1069.8	6185
1072.135	6203
1074.467	6173
1076.798	6318
1079.129	6133
1081.459	6196
1083.792	6167
1086.121	6166
1088.449	6136
1090.777	6212
1093.104	6139
1095.431	6232
1097.759	6192
1100.084	6122
1102.408	6220
1104.732	6142
1107.056	6173
1109.379	6254
1111.701	6122
1114.022	6163
1116.343	6209
1118.664	6201
1120.983	6208
1123.303	6169
1125.621	6265
1127.939	6181
1130.256	6139
1132.573	6245
1134.889	6167
1137.205	6163
1139.52	6096
1141.832	6176
1144.146	6223
1146.461	6134
1148.771	6142
1151.083	6173
1153.392	6191
1155.703	6137
1158.011	6149
1160.323	6137
1162.629	6124
1164.938	6098
1167.243	6223
1169.55	6151
1171.857	6264
1174.163	6169
1176.466	6185
1178.769	6180
1181.073	6074
1183.374	6181
1185.677	6277
1187.979	6080
1190.279	6148
1192.578	6176
1194.878	6137
1197.178	6162
1199.476	6314
1201.772	6222
1204.068	6145
1206.366	6170
1208.663	6166
1210.957	6210
1213.251	6267
1215.544	6209
1217.836	6235
1220.128	6312
1222.421	6165
1224.712	6162
1227.002	6427
1229.292	6191
1231.581	6316
1233.871	6391
1236.159	6339
1238.446	6440
1240.732	6487
1243.018	6373
1245.304	6402
1247.59	6433
1249.874	6411
1252.156	6451
1254.439	6393
1256.721	6457
1259.005	6451
1261.286	6443
1263.565	6360
1265.845	6442
1268.125	6504
1270.403	6422
1272.682	6383
1274.959	6452
1277.234	6443
1279.511	6395
1281.787	6446
1284.062	6435
1286.337	6412
1288.609	6260
1290.882	6467
1293.153	6352
1295.428	6332
1297.698	6338
1299.969	6362
1302.237	6353
1304.507	6334
1306.777	6486
1309.044	6308
1311.312	6414
1313.578	6199
1315.844	6401
1318.109	6273
1320.375	6253
1322.638	6327
1324.903	6285
1327.165	6268
1329.427	6335
1331.69	6467
1333.952	6346
1336.212	6348
1338.471	6389
1340.73	6368
1342.988	6417
1345.248	6412
1347.505	6291
1349.763	6390
1352.019	6390
1354.274	6348
1356.53	6344
1358.784	6388
1361.038	6415
1363.291	6375
1365.543	6194
1367.797	6446
1370.048	6366
1372.296	6305
1374.546	6336
1376.796	6380
1379.045	6347
1381.295	6365
1383.542	6430
1385.787	6371
1388.034	6400
1390.28	6425
1392.527	6476
1394.772	6572
1397.014	6505
1399.258	6536
1401.501	6480
1403.741	6615
1405.985	6463
1408.226	6472
1410.465	6406
1412.705	6435
1414.943	6509
1417.184	6413
1419.42	6513
1421.658	6527
1423.894	6391
1426.13	6524
1428.366	6607
1430.602	6473
1432.835	6546
1435.069	6566
1437.301	6657
1439.535	6574
1441.767	6756
1443.997	6615
1446.229	6685
1448.458	6660
1450.687	6712
1452.916	6646
1455.146	6608
1457.372	6679
1459.599	6697
1461.824	6626
1464.051	6658
1466.277	6611
1468.501	6602
1470.725	6483
1472.948	6483
1475.17	6429
1477.393	6456
1479.614	6479
1481.837	6494
1484.057	6345
1486.276	6371
1488.497	6500
1490.715	6332
1492.932	6418
1495.148	6310
1497.364	6300
1499.58	6319
1501.798	6324
1504.012	6230
1506.227	6291
1508.44	6276
1510.653	6222
1512.866	6394
1515.078	6312
1517.289	6459
1519.5	6311
1521.711	6255
1523.92	6284
1526.13	6280
1528.338	6265
1530.544	6337
1532.752	6228
1534.959	6329
1537.165	6383
1539.371	6322
1541.574	6336
1543.779	6377
1545.983	6350
1548.187	6212
1550.39	6508
1552.59	6320
1554.792	6334
1556.991	6449
1559.19	6352
1561.392	6437
1563.59	6431
1565.789	6418
1567.986	6403
1570.182	6430
1572.381	6583
1574.576	6469
1576.771	6512
1578.966	6492
1581.16	6482
1583.354	6484
1585.546	6461
1587.74	6432
1589.931	6532
1592.121	6473
1594.311	6529
1596.502	6664
1598.693	6526
1600.881	6405
1603.069	6501
1605.256	6556
1607.445	6470
1609.631	6515
1611.816	6548
1614.001	6606
1616.186	6550
1618.37	6397
1620.555	6404
1622.737	6591
1624.919	6384
1627.101	6591
1629.282	6579
1631.463	6600
1633.643	6605
1635.822	6559
1638.001	6609
1640.179	6655
1642.359	6648
1644.534	6603
1646.711	6630
1648.887	6508
1651.062	6651
1653.235	6651
1655.412	6637
1657.586	6610
1659.757	6619
1661.93	6655
1664.1	6658
1666.274	6702
1668.445	6662
1670.614	6520
1672.784	6696
1674.951	6635
1677.12	6696
1679.289	6642
1681.457	6629
1683.622	6694
1685.789	6639
1687.953	6617
1690.121	6670
1692.284	6583
1694.447	6511
1696.611	6550
1698.772	6545
1700.935	6548
1703.098	6490
1705.258	6616
1707.417	6567
1709.576	6450
1711.736	6452
1713.896	6505
1716.053	6467
1718.21	6471
1720.366	6447
1722.522	6409
1724.68	6516
1726.835	6388
1728.989	6420
1731.142	6437
1733.295	6418
1735.449	6394
1737.601	6533
1739.753	6421
1741.903	6421
1744.054	6334
1746.203	6500
1748.354	6490
1750.503	6481
1752.651	6522
1754.798	6477
1756.944	6535
1759.092	6379
1761.238	6535
1763.383	6372
1765.528	6528
1767.672	6514
1769.814	6483
1771.959	6452
1774.102	6408
1776.242	6520
1778.384	6524
1780.525	6499
1782.665	6399
1784.805	6570
1786.945	6345
1789.082	6468
1791.22	6500
1793.36	6481
1795.495	6613
1797.632	6578
1799.766	6487
1801.902	6480
1804.035	6370
1806.172	6445
1808.304	6414
1810.436	6515
1812.569	6422
1814.699	6536
1816.833	6605
1818.963	6523
1821.092	6401
1823.222	6442
1825.35	6496
1827.478	6540
1829.608	6501
1831.734	6311
1833.86	6489
1835.986	6490
1838.11	6386
1840.238	6418
1842.362	6483
1844.485	6483
1846.608	6467
1848.73	6405
1850.853	6523
1852.974	6515
1855.097	6369
1857.217	6505
1859.336	6339
1861.455	6447
1863.576	6369
1865.693	6395
1867.811	6440
1869.926	6361
1872.042	6301
1874.16	6379
1876.275	6394
1878.39	6446
1880.504	6376
1882.618	6384
1884.731	6435
1886.843	6408
1888.956	6384
1891.067	6401
1893.178	6422
1895.287	6337
1897.399	6462
1899.508	6354
1901.617	6529
1903.724	6616
1905.832	6561
1907.941	6492
1910.046	6425
1912.152	6483
1914.256	6522
1916.361	6453
1918.464	6551
1920.57	6592
1922.672	6447
1924.775	6514
1926.876	6403
1928.978	6473
1931.08	6434
1933.181	6564
1935.28	6519
1937.38	6579
1939.478	6508
1941.577	6570
1943.675	6584
1945.771	6496
1947.867	6581
1949.964	6496
1952.058	6481
1954.154	6470
1956.248	6553
1958.343	6473
1960.435	6597
1962.527	6515
1964.62	6510
1966.711	6623
1968.802	6376
1970.892	6473
1972.983	6397
1975.072	6547
1977.162	6433
1979.25	6459
1981.337	6438
1983.424	6391
1985.51	6493
1987.598	6505
1989.683	6520
1991.768	6554
1993.852	6391
1995.934	6351
1998.019	6375
2000.102	6350
2002.184	6520
2004.266	6353
2006.347	6490
2008.427	6434
2010.508	6424
2012.587	6494
2014.666	6474
2016.745	6385
2018.821	6517
2020.9	6488
2022.977	6351
2025.052	6407
2027.128	6366
2029.204	6452
2031.277	6432
2033.353	6419
2035.425	6439
2037.499	6415
2039.57	6542
2041.642	6402
2043.714	6450
2045.786	6480
2047.855	6384
2049.925	6501
2051.993	6452
2054.064	6340
2056.132	6361
2058.2	6402
2060.266	6455
2062.332	6361
2064.398	6461
2066.465	6379
2068.529	6359
2070.592	6492
2072.657	6445
2074.719	6434
2076.783	6429
2078.845	6434
2080.907	6337
2082.968	6434
2085.028	6383
2087.087	6353
2089.148	6349
2091.207	6288
2093.264	6330
2095.322	6383
2097.379	6373
2099.439	6420
2101.495	6399
2103.55	6342
2105.605	6388
2107.658	6412
2109.713	6296
2111.767	6535
2113.82	6412
2115.872	6347
2117.924	6383
2119.975	6377
2122.028	6434
2124.078	6378
2126.126	6278
2128.176	6357
2130.225	6403
2132.275	6335
2134.321	6424
2136.368	6273
2138.415	6412
2140.461	6401
2142.505	6284
2144.552	6459
2146.597	6435
2148.64	6387
2150.684	6453
2152.725	6404
2154.77	6306
2156.811	6392
2158.852	6359
2160.894	6329
2162.933	6309
2164.973	6432
2167.013	6245
2169.051	6360
2171.089	6345
2173.126	6278
2175.164	6235
2177.201	6274
2179.236	6269
2181.273	6355
2183.307	6359
2185.341	6346
2187.377	6227
2189.41	6242
2191.442	6229
2193.473	6274
2195.506	6267
2197.539	6318
2199.569	6342
2201.598	6227
2203.628	6251
2205.656	6388
2207.686	6229
2209.716	6225
2211.743	6252
2213.769	6316
2215.796	6246
2217.821	6207
2219.848	6172
2221.873	6232
2223.897	6173
2225.921	6304
2227.944	6313
2229.967	6193
2231.991	6186
2234.011	6289
2236.032	6191
2238.053	6187
2240.073	6199
2242.094	6195
2244.114	6254
2246.131	6110
2248.149	6197
2250.167	6191
2252.186	6196
2254.201	6309
2256.218	6250
2258.233	6230
2260.247	6122
2262.262	6167
2264.278	6181
2266.29	6186
2268.303	6145
2270.315	6293
2272.327	6271
2274.341	6274
2276.35	6298
2278.361	6236
2280.37	6192
2282.38	6267
2284.388	6235
2286.397	6178
2288.405	6208
2290.412	6121
2292.419	6156
2294.425	6226
2296.431	6237
2298.437	6268
2300.441	6163
2302.445	6095
2304.449	6099
2306.453	6153
2308.455	6210
2310.457	6067
2312.459	6219
2314.46	6170
2316.46	6218
2318.461	6149
2320.46	6143
2322.458	6135
2324.458	6233
2326.456	6146
2328.455	6129
2330.451	6043
2332.447	6039
2334.443	6133
2336.438	6051
2338.433	6215
2340.429	6167
2342.422	6053
2344.416	6178
2346.408	6116
2348.399	6080
2350.393	5974
2352.384	5954
2354.375	6059
2356.365	6046
2358.355	6009
2360.344	6032
2362.333	6055
2364.322	6010
2366.309	6061
2368.295	5938
2370.282	5845
2372.27	5900
2374.256	6000
2376.24	6094
2378.225	6052
2380.208	5947
2382.194	5988
2384.177	5928
2386.159	5946
2388.142	6049
2390.122	6027
2392.105	6125
2394.085	5883
2396.066	5922
2398.044	5884
2400.024	6094
2402.002	5895
2403.982	6019
2405.959	5853
2407.935	6019
2409.913	5940
2411.888	6021
2413.865	5963
2415.84	5922
2417.814	5953
2419.788	6064
2421.762	5960
2423.735	5902
2425.708	5922
2427.68	5937
2429.651	5946
2431.623	5956
2433.593	5899
2435.564	6019
2437.533	5906
2439.502	5949
2441.47	5811
2443.438	5848
2445.406	5915
2447.373	6011
2449.34	5964
2451.305	5939
2453.271	5899
2455.235	5967
2457.201	6050
2459.165	5885
2461.129	5934
2463.092	5988
2465.054	5851
2467.018	5889
2468.978	5840
2470.939	5966
2472.899	5809
2474.86	5934
2476.819	5866
2478.778	5871
2480.737	5819
2482.695	5775
2484.653	5928
2486.609	5752
2488.567	5867
2490.524	5822
2492.478	5824
2494.433	5938
2496.387	5896
2498.343	5766
2500.297	5864
2502.249	5774
2504.202	5751
2506.153	5842
2508.105	5840
2510.057	5878
2512.008	5750
2513.957	5784
2515.906	5862
2517.855	5723
2519.805	5790
2521.754	5900
2523.7	5786
2525.647	5777
2527.594	5802
2529.54	5746
2531.486	5634
2533.431	5902
2535.376	5731
2537.32	5750
2539.263	5721
2541.207	5873
2543.151	5814
2545.093	5722
2547.034	5780
2548.975	5750
2550.917	5717
2552.856	5831
2554.796	5707
2556.735	5825
2558.673	5873
2560.611	5786
2562.55	5721
2564.487	5719
2566.424	5850
2568.36	5738
2570.296	5738
2572.232	5770
2574.167	5741
2576.101	5893
2578.035	5773
2579.969	5779
2581.902	5747
2583.834	5753
2585.766	5696
2587.698	5742
2589.628	5753
2591.557	5761
2593.489	5842
2595.419	5755
2597.348	5727
2599.275	5775
2601.204	5785
2603.131	5677
2605.059	5824
2606.986	5818
2608.911	5727
2610.837	5716
2612.76	5696
2614.687	5780
2616.61	5859
2618.534	5826
2620.457	5838
2622.38	5783
2624.302	5784
2626.225	5766
2628.145	5787
2630.067	5746
2631.986	5844
2633.906	5714
2635.827	5783
2637.745	5763
2639.662	5757
2641.581	5839
2643.498	5830
2645.415	5868
2647.331	5782
2649.248	5790
2651.163	5837
2653.077	5855
2654.993	5781
2656.906	5751
2658.821	5843
2660.733	5751
2662.646	5867
2664.557	5817
2666.47	5827
2668.381	5791
2670.291	5757
2672.201	5739
2674.11	5820
2676.021	5732
2677.929	5675
2679.837	5840
2681.745	5821
2683.652	5795
2685.56	5864
2687.466	5816
2689.371	5879
2691.276	5848
2693.181	5784
2695.085	5830
2696.991	5891
2698.893	5759
2700.796	5782
2702.698	5707
2704.601	5787
2706.502	5823
2708.404	5653
2710.304	5645
2712.203	5686
2714.103	5682
2716.003	5696
2717.902	5583
2719.8	5746
2721.697	5691
2723.594	5658
2725.49	5793
2727.389	5611
2729.283	5585
2731.179	5659
2733.073	5681
2734.968	5743
2736.863	5589
2738.757	5789
2740.649	5671
2742.541	5538
2744.433	5661
2746.324	5632
2748.216	5699
2750.107	5608
2751.997	5639
2753.886	5608
2755.776	5482
2757.666	5526
2759.553	5648
2761.44	5635
2763.327	5597
2765.215	5621
2767.102	5569
2768.988	5554
2770.873	5752
2772.757	5611
2774.641	5567
2776.525	5542
2778.41	5732
2780.292	5639
2782.175	5533
2784.057	5628
2785.938	5607
2787.821	5548
2789.701	5572
2791.581	5623
2793.461	5540
2795.34	5476
2797.219	5519
2799.099	5595
2800.975	5511
2802.853	5453
2804.73	5466
2806.606	5497
2808.484	5616
2810.358	5509
2812.233	5506
2814.108	5455
2815.981	5427
2817.857	5589
2819.73	5528
2821.602	5554
2823.474	5517
2825.346	5562
2827.217	5491
2829.089	5545
2830.959	5579
2832.829	5519
2834.698	5567
2836.567	5568
2838.436	5542
2840.305	5523
2842.172	5698
2844.04	5446
2845.905	5588
2847.772	5646
2849.639	5607
2851.503	5579
2853.369	5581
2855.232	5607
2857.096	5588
2858.961	5671
2860.824	5697
2862.686	5711
2864.547	5883
2866.41	5740
2868.272	5611
2870.132	5786
2871.992	5878
2873.851	5880
2875.711	5787
2877.57	5885
2879.429	5949
2881.287	5941
2883.144	6009
2885.001	6162
2886.857	6165
2888.714	6100
2890.57	6155
2892.425	6099
2894.279	6125
2896.133	6110
2897.987	6016
2899.842	6118
2901.694	6171
2903.547	6069
2905.397	5989
2907.249	5967
2909.101	6112
2910.952	6086
2912.802	6162
2914.652	6168
2916.5	6162
2918.35	6254
2920.198	6235
2922.045	6423
2923.893	6409
2925.74	6395
2927.585	6436
2929.433	6377
2931.279	6596
2933.123	6617
2934.968	6512
2936.811	6746
2938.656	6660
2940.5	6833
2942.342	6866
2944.185	6959
2946.026	6839
2947.87	6857
2949.71	6831
2951.549	6822
2953.39	6795
2955.229	6770
2957.069	6705
2958.908	6661
2960.746	6682
2962.584	6439
2964.421	6510
2966.257	6418
2968.094	6467
2969.931	6427
2971.766	6296
2973.601	6162
2975.435	6199
2977.27	6217
2979.105	6121
2980.938	6191
2982.77	5987
2984.602	6103
2986.434	6028
2988.267	6009
2990.097	6095
2991.927	5984
2993.757	5910
2995.587	5886
2997.417	5853
2999.246	5772
3001.074	5731
3002.902	5640
3004.729	5659
3006.556	5568
3008.384	5626
3010.21	5555
3012.036	5527
3013.861	5452
3015.684	5478
3017.51	5407
3019.334	5265
3021.157	5279
3022.981	5361
3024.802	5248
3026.624	5384
3028.448	5195
3030.267	5313
3032.088	5214
3033.909	5326
3035.728	5249
3037.549	5211
3039.368	5114
3041.186	5152
3043.004	5237
3044.821	5307
3046.64	5233
3048.455	5124
3050.272	5131
3052.087	5101
3053.903	5254
3055.717	5240
3057.534	5146
3059.347	5159
3061.16	5271
3062.974	5157
3064.785	5057
3066.598	5161
3068.411	5184
3070.222	5171
3072.032	5001
3073.844	5145
3075.653	5113
3077.463	5077
3079.272	5119
3081.08	5171
3082.889	5116
3084.697	5084
3086.505	5060
3088.312	5154
3090.118	5120
3091.924	5010
3093.729	5042
3095.535	5063
3097.34	5010
3099.144	5008
3100.947	4964
3102.75	5000
3104.553	4951
3106.357	5072
3108.159	4952
3109.961	4984
3111.762	4906
3113.562	4986
3115.365	4984
3117.164	4873
3118.964	4986
3120.761	4955
3122.56	4995
3124.36	4909
3126.158	4885
3127.954	4953
3129.75	4841
3131.547	4964
3133.343	4870
3135.139	4903
3136.934	5009
3138.729	4972
3140.522	4836
3142.317	4838
3144.11	4872
3145.904	4943
3147.695	4906
3149.488	4876
3151.28	4858
3153.07	4862
3154.863	4824
3156.652	4917
3158.441	4834
3160.231	4951
3162.019	4840
3163.81	4812
3165.597	4720
3167.384	4823
3169.172	4813
3170.958	4835
3172.745	4849
3174.532	4792
3176.317	4857
3178.101	4840
3179.885	4730
3181.67	4803
3183.455	4776
3185.238	4841
3187.02	4798
3188.802	4881
3190.585	4778
3192.368	4737
3194.149	4735
3195.929	4716
3197.709	4903
3199.489	4744
3201.268	4794
3203.048	4754
3204.826	4844
3206.604	4801
3208.382	4789
3210.159	4705
3211.937	4784
3213.713	4758
3215.489	4780
3217.263	4692
3219.038	4711
3220.815	4813
3222.589	4748
3224.363	4787
3226.136	4709
3227.908	4764
3229.681	4729
3231.454	4754
3233.226	4819
3234.996	4713
3236.767	4800
3238.538	4750
3240.308	4699
3242.078	4696
3243.847	4842
3245.615	4751
3247.384	4773
3249.15	4756
3250.92	4760
3252.686	4732
3254.453	4703
3256.218	4782
3257.984	4729
3259.75	4734
3261.515	4700
3263.279	4765
3265.044	4734
3266.806	4644
3268.57	4787
3270.334	4755
3272.095	4678
3273.856	4685
3275.619	4641
3277.379	4763
3279.14	4752
3280.9	4698
3282.661	4668
3284.419	4740
3286.178	4655
3287.937	4741
3289.695	4743
3291.453	4792
3293.21	4741
3294.967	4732
3296.723	4724
3298.48	4715
3300.235	4711
3301.99	4664
3303.744	4630
3305.498	4729
3307.253	4796
3309.006	4716
3310.759	4761
3312.511	4647
3314.263	4633
3316.017	4701
3317.768	4781
3319.519	4657
3321.268	4651
3323.018	4765
3324.767	4705
3326.518	4674
3328.267	4646
3330.014	4736
3331.762	4630
3333.509	4668
3335.258	4672
3337.003	4724
3338.75	4578
3340.496	4687
3342.24	4668
3343.987	4674
3345.732	4734
3347.475	4622
3349.219	4658
3350.961	4648
3352.705	4629
3354.448	4732
3356.19	4785
3357.931	4639
3359.672	4601
3361.412	4689
3363.155	4680
3364.894	4699
3366.633	4602
3368.372	4565
3370.11	4535
3371.849	4691
3373.588	4629
3375.325	4565
3377.061	4631
3378.799	4518
3380.534	4562
3382.271	4569
3384.006	4510
3385.741	4539
3387.475	4540
3389.209	4630
3390.944	4466
3392.677	4547
3394.409	4551
3396.143	4590
3397.874	4530
3399.606	4568
3401.338	4624
3403.069	4544
3404.799	4541
3406.528	4561
3408.258	4526
3409.988	4554
3411.717	4499
3413.445	4477
3415.173	4547
3416.899	4574
3418.626	4511
3420.354	4537
3422.08	4488
3423.806	4402
3425.531	4408
3427.255	4468
3428.981	4414
3430.705	4447
3432.429	4392
3434.151	4387
3435.875	4463
3437.599	4437
3439.321	4452
3441.042	4430
3442.763	4374
3444.483	4406
3446.204	4366
3447.926	4395
3449.645	4342
3451.364	4315
3453.082	4443
3454.801	4385
3456.52	4352
3458.238	4336
3459.954	4330
3461.671	4404
3463.387	4323
3465.104	4379
3466.82	4287
3468.534	4259
3470.25	4278
3471.963	4264
3473.676	4329
3475.392	4385
3477.104	4258
3478.817	4216
3480.528	4296
3482.241	4215
3483.954	4268
3485.664	4295
3487.374	4229
3489.084	4390
3490.795	4209
3492.504	4218
3494.214	4306
3495.922	4184
3497.63	4246
3499.338	4223
3501.045	4232
3502.753	4225
3504.459	4179
3506.166	4180
3507.871	4229
3509.576	4236
3511.283	4227
3512.987	4185
3514.691	4196
3516.395	4224
3518.098	4170
3519.8	4198
3521.504	4235
3523.206	4239
3524.908	4212
3526.609	4098
3528.309	4135
3530.011	4115
3531.711	4057
3533.411	4151
3535.109	4121
3536.808	4094
3538.507	4047
3540.206	4139
3541.904	4031
3543.601	4151
3545.297	4143
3546.994	4015
3548.69	4099
3550.387	4077
3552.081	4085
3553.776	4081
3555.47	4131
3557.166	4065
3558.859	4068
3560.553	4040
3562.245	4080
3563.938	4074
3565.629	4032
3567.322	4079
3569.014	4020
3570.704	3973
3572.394	4009
3574.084	4047
3575.775	4058
3577.464	4074
3579.152	4054
3580.842	4030
3582.529	4039
3584.216	4035
3585.905	3979
3587.591	3998
3589.279	3916
3590.964	3943
3592.649	3961
3594.336	3983
3596.021	3920
3597.705	3899
3599.388	3960
3601.072	3873
3602.757	3932
3604.439	3940
3606.122	3885
3607.803	3908
3609.485	3919
3611.167	3928
3612.849	3856
3614.529	3890
3616.208	3841
3617.888	3870
3619.567	3874
3621.247	3729
3622.926	3794
3624.603	3851
3626.281	3862
3627.958	3802
3629.635	3778
3631.312	3828
3632.989	3833
3634.665	3828
3636.339	3727
3638.014	3787
3639.691	3805
3641.364	3799
3643.038	3768
3644.71	3807
3646.384	3780
3648.058	3754
3649.729	3748
3651.402	3772
3653.073	3715
3654.744	3808
3656.414	3844
3658.085	3771
3659.755	3715
3661.424	3691
3663.094	3718
3664.762	3801
3666.431	3780
3668.099	3685
3669.766	3767
3671.433	3761
3673.099	3721
3674.768	3676
3676.433	3757
3678.098	3722
3679.763	3746
3681.428	3671
3683.093	3646
3684.757	3631
3686.421	3695
3688.083	3744
3689.746	3612
3691.408	3725
3693.071	3668
3694.733	3672
3696.394	3630
3698.054	3664
3699.715	3664
3701.375	3702
3703.036	3609
3704.695	3580
3706.354	3631
3708.012	3648
3709.67	3612
3711.329	3664
3712.987	3618
3714.644	3582
3716.299	3636
3717.955	3540
3719.613	3677
3721.268	3617
3722.923	3584
3724.577	3602
3726.231	3615
3727.885	3580
3729.539	3562
3731.192	3594
3732.845	3638
3734.497	3556
3736.149	3646
3737.802	3603
3739.453	3536
3741.104	3568
3742.753	3591
3744.404	3606
3746.052	3551
3747.704	3558
3749.352	3608
3751	3521
3752.648	3567
3754.296	3552
3755.944	3529
3757.59	3547
3759.238	3487
3760.883	3548
3762.528	3581
3764.176	3528
3765.82	3594
3767.464	3583
3769.109	3564
3770.753	3495
3772.396	3472
3774.04	3544
3775.683	3544
3777.325	3558
3778.967	3457
3780.608	3537
3782.25	3356
3783.89	3403
3785.531	3484
3787.17	3450
3788.81	3461
3790.45	3428
3792.09	3501
3793.729	3437
3795.366	3519
3797.003	3407
3798.64	3446
3800.278	3467
3801.915	3446
3803.551	3442
3805.187	3465
3806.822	3468
3808.458	3481
3810.093	3382
3811.726	3478
3813.36	3420
3814.994	3473
3816.627	3370
3818.262	3440
3819.893	3436
3821.525	3393
3823.157	3402
3824.787	3368
3826.42	3355
3828.051	3395
3829.68	3411
3831.31	3431
3832.938	3313
3834.569	3368
3836.198	3316
3837.825	3426
3839.454	3344
3841.08	3361
3842.708	3417
3844.335	3373
3845.962	3303
3847.587	3357
3849.212	3339
3850.838	3398
3852.463	3327
3854.089	3338
3855.712	3368
3857.335	3318
3858.959	3399
3860.582	3356
3862.205	3283
3863.827	3343
3865.449	3311
3867.07	3351
3868.691	3312
3870.312	3333
3871.933	3324
3873.553	3355
3875.173	3328
3876.792	3275
3878.411	3292
3880.03	3305
3881.647	3310
3883.265	3286
3884.882	3287
3886.499	3298
3888.116	3324
3889.732	3267
3891.348	3351
3892.964	3222
3894.579	3263
3896.195	3282
3897.809	3275
3899.423	3318
3901.036	3305
3902.648	3271
3904.261	3270
3905.875	3301
3907.487	3235
3909.099	3254
3910.709	3235
3912.321	3322
3913.933	3249
3915.542	3331
3917.152	3199
3918.762	3252
3920.37	3285
3921.98	3208
3923.589	3299
3925.196	3225
3926.804	3312
3928.41	3194
3930.018	3283
3931.626	3221
3933.231	3188
3934.838	3174
3936.442	3216
3938.046	3202
3939.653	3276
3941.257	3223
3942.861	3198
3944.464	3185
3946.068	3211
3947.67	3267
3949.273	3212
3950.876	3186
3952.477	3176
3954.078	3231
3955.678	3219
3957.281	3267
3958.881	3200
3960.48	3160
3962.079	3218
3963.678	3114
3965.279	3186
3966.877	3163
3968.475	3147
3970.072	3118
3971.669	3208
3973.266	3122
3974.864	3165
3976.459	3185
3978.055	3116
3979.65	3150
3981.245	3127
3982.841	3209
3984.436	3095
3986.03	3188
3987.623	3181
3989.216	3071
3990.809	3089
3992.403	3126
3993.995	3128
3995.586	3099
3997.177	3091
3998.768	3170
4000.361	3032
4001.951	3030
4003.54	3036
4005.13	3069
4006.719	3053
4008.31	3087
4009.897	3059
4011.485	3089
4013.073	3009
4014.66	3023
4016.247	3015
4017.834	3040
4019.421	2988
4021.006	3027
4022.592	3014
4024.178	3012
4025.763	3012
4027.348	3038
4028.932	2976
4030.515	3042
4032.099	3032
4033.682	3020
4035.266	2994
4036.847	2992
4038.429	3025
4040.011	3011
4041.592	3047
4043.173	2932
4044.755	3095
4046.334	3036
4047.913	2938
4049.494	2932
4051.074	2962
4052.652	2897
4054.23	2965
4055.807	2939
4057.385	2964
4058.963	2933
4060.541	2899
4062.117	2971
4063.693	2869
4065.269	2934
4066.844	2892
4068.42	2874
4069.995	2952
4071.569	2934
4073.143	2925
4074.716	2973
4076.291	2992
4077.864	2942
4079.436	2912
4081.009	2899
4082.58	2932
4084.152	2909
4085.723	2945
4087.294	2865
4088.865	2868
4090.435	2939
4092.005	2934
4093.574	2923
4095.143	2889
4096.712	2874
4098.279	2902
4099.848	2890
4101.416	2904
4102.984	2931
4104.55	2956
4106.117	2849
4107.682	2930
4109.248	2893
4110.815	2829
4112.379	2743
4113.945	2800
4115.508	2891
4117.073	2808
4118.637	2924
4120.201	2818
4121.763	2828
4123.325	2873
4124.888	2831
4126.449	2837
4128.013	2785
4129.573	2851
4131.133	2743
4132.694	2846
4134.254	2819
4135.814	2892
4137.374	2819
4138.933	2781
4140.491	2782
4142.049	2808
4143.607	2719
4145.167	2753
4146.724	2788
4148.28	2795
4149.836	2835
4151.392	2794
4152.949	2849
4154.504	2804
4156.059	2766
4157.614	2761
4159.168	2773
4160.723	2834
4162.277	2690
4163.83	2711
4165.383	2759
4166.936	2719
4168.488	2742
4170.041	2743
4171.593	2750
4173.144	2659
4174.695	2686
4176.246	2745
4177.796	2721
4179.346	2649
4180.896	2734
4182.445	2703
4183.994	2680
4185.542	2727
4187.091	2701
4188.639	2669
4190.185	2647
4191.732	2712
4193.279	2677
4194.826	2724
4196.373	2671
4197.918	2729
4199.463	2673
4201.008	2746
4202.553	2671
4204.098	2647
4205.641	2686
4207.185	2658
4208.728	2603
4210.271	2653
4211.814	2655
4213.357	2698
4214.898	2663
4216.439	2703
4217.98	2669
4219.522	2639
4221.062	2596
4222.603	2605
4224.142	2666
4225.681	2629
4227.222	2671
4228.76	2659
4230.298	2677
4231.835	2581
4233.373	2653
4234.911	2645
4236.449	2638
4237.985	2632
4239.521	2624
4241.057	2650
4242.592	2612
4244.128	2595
4245.663	2553
4247.197	2606
4248.731	2649
4250.265	2633
4251.798	2648
4253.333	2653
4254.865	2639
4256.397	2610
4257.93	2556
4259.461	2569
4260.994	2620
4262.525	2562
4264.056	2675
4265.586	2640
4267.115	2581
4268.646	2557
4270.176	2621
4271.705	2478
4273.232	2528
4274.761	2577
4276.289	2634
4277.818	2637
4279.345	2559
4280.872	2641
4282.399	2637
4283.924	2639
4285.452	2619
4286.976	2629
4288.502	2521
4290.026	2567
4291.551	2581
4293.074	2591
4294.6	2520
4296.123	2473
4297.646	2590
4299.168	2531
4300.691	2512
4302.214	2481
4303.736	2538
4305.257	2576
4306.778	2518
4308.299	2505
4309.82	2546
4311.34	2509
4312.86	2508
4314.379	2549
