400.0745	5694
402.597	5607
405.1208	5662
407.6419	5723
410.1623	5760
412.6819	5730
415.201	5764
417.7172	5754
420.2369	5910
422.7538	5865
425.2701	5976
427.7856	5901
430.3005	5947
432.8147	6003
435.3282	6025
437.841	6076
440.3511	6024
442.8625	6152
445.3753	6070
447.8854	6119
450.3927	6085
452.9014	5991
455.4073	6181
457.9146	6073
460.4233	6151
462.9272	6089
465.4325	6100
467.935	6143
470.4389	6153
472.9421	6184
475.4446	6194
477.9444	6055
480.4456	6175
482.944	6233
485.4417	6155
487.9429	6359
490.4393	6277
492.935	6221
495.4321	6283
497.9264	6340
500.4221	6327
502.9171	6257
505.4094	6316
507.9011	6391
510.392	6296
512.8864	6442
515.3759	6403
517.8649	6405
520.3531	6338
522.8406	6428
525.3275	6528
527.8178	6414
530.3033	6461
532.7881	6444
535.2723	6338
537.7558	6467
540.2407	6468
542.7228	6395
545.2043	6299
547.6851	6383
550.1652	6634
552.6467	6465
555.1255	6459
557.6016	6490
560.079	6403
562.5557	6518
565.0318	6614
567.5092	6514
569.984	6639
572.456	6538
574.9294	6555
577.4022	6605
579.8762	6601
582.3456	6653
584.8163	6567
587.2863	6703
589.7557	6676
592.2224	6776
594.6924	6728
597.1578	6696
599.6245	6773
602.0905	6814
604.5538	6706
607.0206	6769
609.4825	6725
611.9459	6696
614.4066	6687
616.8686	6736
619.33	6624
621.7906	6653
624.2487	6668
626.708	6675
629.1647	6635
631.6207	6696
634.0801	6764
636.5348	6644
638.9888	6746
641.4442	6698
643.8969	6653
646.3509	6771
648.8022	6739
651.255	6727
653.705	6760
656.1544	6779
658.6031	6813
661.0532	6907
663.5026	6876
665.9493	6849
668.3954	6842
670.8409	6752
673.2877	6891
675.7318	6904
678.1752	6802
680.618	6864
683.0601	6771
685.5035	6930
687.9444	7019
690.3845	7013
692.824	7010
695.2628	6980
697.701	6940
700.1406	7001
702.5774	7051
705.0116	6896
707.4472	7092
709.8821	7022
712.3183	7070
714.7519	7104
717.1829	6973
719.6151	7109
722.0468	6941
724.4777	7090
726.908	7179
729.3377	7117
731.7667	7173
734.1931	7234
736.6208	7168
739.0498	7249
741.4742	7420
743.9	7226
746.3231	7461
748.7476	7287
751.1713	7394
753.5945	7324
756.015	7326
758.4368	7361
760.856	7354
763.2766	7480
765.6965	7505
768.1157	7517
770.5323	7367
772.9483	7665
775.3656	7494
777.7822	7517
780.1963	7355
782.6116	7452
785.0244	7541
787.4365	7506
789.8499	7426
792.2626	7440
794.6728	7410
797.0823	7450
799.4911	7407
801.8994	7442
804.3109	7479
806.7178	7535
809.124	7522
811.5297	7434
813.9347	7531
816.341	7620
818.7447	7626
821.1478	7641
823.5502	7495
825.952	7600
828.3531	7507
830.7556	7516
833.1554	7585
835.5546	7612
837.9532	7632
840.3511	7745
842.7504	7781
845.1451	7681
847.5411	7632
849.9365	7713
852.3312	7671
854.7272	7733
857.1187	7621
859.5115	7651
861.9037	7656
864.2952	7738
866.6842	7598
869.0764	7696
871.4661	7553
873.8531	7721
876.2415	7629
878.6272	7639
881.0162	7622
883.4026	7676
885.7866	7662
888.1717	7684
890.5543	7682
892.9382	7682
895.3215	7717
897.7041	7641
900.0842	7630
902.4655	7695
904.8443	7673
907.2244	7677
909.6039	7802
911.9808	7785
914.357	7852
916.7346	7839
919.1115	7970
921.4859	7873
923.8616	7982
926.2347	7909
928.6071	7972
930.979	7975
933.3541	8088
935.7247	7968
938.0946	8048
940.4639	8119
942.8326	8040
945.2026	8209
947.5701	8227
949.9369	8402
952.305	8493
954.6705	8687
957.0355	8791
959.4017	8951
961.7654	9170
964.1284	9119
966.4908	8920
968.8527	8862
971.2138	8586
973.5743	8381
975.9343	8367
978.2936	8159
980.6522	8136
983.0122	7984
985.3696	8107
987.7245	7923
990.0807	7990
992.4362	7881
994.7911	7833
997.1474	7973
999.4991	7842
1001.852	8019
1004.205	7929
1006.555	7985
1008.908	7991
1011.258	7904
1013.606	7880
1015.956	7770
1018.302	7922
1020.652	7988
1022.998	7966
1025.345	7983
1027.691	8024
1030.035	8022
1032.378	8014
1034.724	8048
1037.066	8069
1039.409	8038
1041.75	8104
1044.092	8034
1046.433	8137
1048.771	8201
1051.112	8039
1053.449	8067
1055.786	8071
1058.124	8140
1060.462	8265
1062.797	8107
1065.131	8136
1067.467	8159
1069.8	8239
1072.135	8261
1074.467	8265
1076.798	8153
1079.129	8180
1081.459	8220
1083.792	8166
1086.121	8157
1088.449	8154
1090.777	8069
1093.104	8117
1095.431	8250
1097.759	8118
1100.084	8229
1102.408	8184
1104.732	8116
1107.056	8126
1109.379	8163
1111.701	8074
1114.022	8152
1116.343	8183
1118.664	8131
1120.983	8121
1123.303	8191
1125.621	8340
1127.939	8249
1130.256	8185
1132.573	8185
1134.889	8369
1137.205	8244
1139.52	8252
1141.832	8299
1144.146	8256
1146.461	8258
1148.771	8290
1151.083	8298
1153.392	8187
1155.703	8157
1158.011	8130
1160.323	8198
1162.629	8325
1164.938	8156
1167.243	8195
1169.55	8161
1171.857	8227
1174.163	8232
1176.466	8245
1178.769	8196
1181.073	8245
1183.374	8125
1185.677	8187
1187.979	8341
1190.279	8205
1192.578	8195
1194.878	8123
1197.178	8272
1199.476	8174
1201.772	8227
1204.068	8239
1206.366	8119
1208.663	8250
1210.957	8163
1213.251	8216
1215.544	8185
1217.836	8328
1220.128	8217
1222.421	8244
1224.712	8311
1227.002	8231
1229.292	8285
1231.581	8285
1233.871	8326
1236.159	8296
1238.446	8343
1240.732	8442
1243.018	8505
1245.304	8519
1247.59	8491
1249.874	8478
1252.156	8470
1254.439	8535
1256.721	8429
1259.005	8480
1261.286	8511
1263.565	8512
1265.845	8475
1268.125	8463
1270.403	8473
1272.682	8482
1274.959	8528
1277.234	8364
1279.511	8470
1281.787	8516
1284.062	8406
1286.337	8378
1288.609	8403
1290.882	8362
1293.153	8374
1295.428	8375
1297.698	8309
1299.969	8402
1302.237	8306
1304.507	8346
1306.777	8427
1309.044	8327
1311.312	8325
1313.578	8396
1315.844	8388
1318.109	8446
1320.375	8492
1322.638	8349
1324.903	8372
1327.165	8294
1329.427	8420
1331.69	8363
1333.952	8276
1336.212	8429
1338.471	8386
1340.73	8434
1342.988	8335
1345.248	8463
1347.505	8363
1349.763	8449
1352.019	8247
1354.274	8298
1356.53	8336
1358.784	8418
1361.038	8235
1363.291	8395
1365.543	8484
1367.797	8501
1370.048	8328
1372.296	8397
1374.546	8252
1376.796	8403
1379.045	8555
1381.295	8447
1383.542	8525
1385.787	8489
1388.034	8271
1390.28	8496
1392.527	8546
1394.772	8486
1397.014	8574
1399.258	8473
1401.501	8449
1403.741	8530
1405.985	8614
1408.226	8557
1410.465	8576
1412.705	8653
1414.943	8553
1417.184	8496
1419.42	8509
1421.658	8615
1423.894	8612
1426.13	8639
1428.366	8583
1430.602	8525
1432.835	8643
1435.069	8677
1437.301	8623
1439.535	8700
1441.767	8724
1443.997	8564
1446.229	8747
1448.458	8597
1450.687	8554
1452.916	8750
1455.146	8700
1457.372	8807
1459.599	8707
1461.824	8756
1464.051	8778
1466.277	8752
1468.501	8604
1470.725	8639
1472.948	8644
1475.17	8530
1477.393	8577
1479.614	8570
1481.837	8521
1484.057	8545
1486.276	8586
1488.497	8451
1490.715	8493
1492.932	8446
1495.148	8286
1497.364	8537
1499.58	8377
1501.798	8417
1504.012	8382
1506.227	8388
1508.44	8347
1510.653	8440
1512.866	8348
1515.078	8360
1517.289	8350
1519.5	8251
1521.711	8237
1523.92	8260
1526.13	8371
1528.338	8388
1530.544	8312
1532.752	8520
1534.959	8510
1537.165	8399
1539.371	8330
1541.574	8444
1543.779	8459
1545.983	8430
1548.187	8337
1550.39	8497
1552.59	8468
1554.792	8474
1556.991	8514
1559.19	8571
1561.392	8479
1563.59	8527
1565.789	8538
1567.986	8540
1570.182	8527
1572.381	8599
1574.576	8513
1576.771	8521
1578.966	8599
1581.16	8641
1583.354	8623
1585.546	8673
1587.74	8613
1589.931	8579
1592.121	8526
1594.311	8582
1596.502	8652
1598.693	8681
1600.881	8761
1603.069	8655
1605.256	8649
1607.445	8574
1609.631	8764
1611.816	8706
1614.001	8676
1616.186	8617
1618.37	8785
1620.555	8741
1622.737	8591
1624.919	8800
1627.101	8643
1629.282	8787
1631.463	8645
1633.643	8661
1635.822	8635
1638.001	8723
1640.179	8731
1642.359	8778
1644.534	8748
1646.711	8796
1648.887	8716
1651.062	8704
1653.235	8722
1655.412	8683
1657.586	8702
1659.757	8767
1661.93	8574
1664.1	8914
1666.274	8769
1668.445	8930
1670.614	8801
1672.784	8798
1674.951	8868
1677.12	8816
1679.289	8820
1681.457	8747
1683.622	8725
1685.789	8753
1687.953	8709
1690.121	8714
1692.284	8900
1694.447	8822
1696.611	8712
1698.772	8706
1700.935	8667
1703.098	8719
1705.258	8698
1707.417	8587
1709.576	8764
1711.736	8616
1713.896	8642
1716.053	8775
1718.21	8793
1720.366	8672
1722.522	8815
1724.68	8609
1726.835	8663
1728.989	8633
1731.142	8652
1733.295	8577
1735.449	8642
1737.601	8483
1739.753	8689
1741.903	8641
1744.054	8720
1746.203	8745
1748.354	8729
1750.503	8755
1752.651	8706
1754.798	8626
1756.944	8883
1759.092	8600
1761.238	8567
1763.383	8637
1765.528	8646
1767.672	8744
1769.814	8694
1771.959	8774
1774.102	8780
1776.242	8775
1778.384	8742
1780.525	8689
1782.665	8728
1784.805	8637
1786.945	8752
1789.082	8617
1791.22	8884
1793.36	8675
1795.495	8738
1797.632	8724
1799.766	8686
1801.902	8690
1804.035	8579
1806.172	8650
1808.304	8704
1810.436	8626
1812.569	8604
1814.699	8722
1816.833	8666
1818.963	8770
1821.092	8734
1823.222	8535
1825.35	8675
1827.478	8697
1829.608	8715
1831.734	8620
1833.86	8650
1835.986	8681
1838.11	8601
1840.238	8634
1842.362	8593
1844.485	8663
1846.608	8770
1848.73	8602
1850.853	8578
1852.974	8711
1855.097	8523
1857.217	8642
1859.336	8628
1861.455	8583
1863.576	8672
1865.693	8782
1867.811	8536
1869.926	8614
1872.042	8678
1874.16	8676
1876.275	8646
1878.39	8591
1880.504	8678
1882.618	8705
1884.731	8649
1886.843	8541
1888.956	8552
1891.067	8666
1893.178	8791
1895.287	8612
1897.399	8609
1899.508	8656
1901.617	8868
1903.724	8592
1905.832	8768
1907.941	8665
1910.046	8584
1912.152	8711
1914.256	8830
1916.361	8654
1918.464	8876
1920.57	8688
1922.672	8688
1924.775	8769
1926.876	8838
1928.978	8772
1931.08	8723
1933.181	8776
1935.28	8689
1937.38	8781
1939.478	8724
1941.577	8739
1943.675	8816
1945.771	8709
1947.867	8726
1949.964	8810
1952.058	8934
1954.154	8848
1956.248	8783
1958.343	8747
1960.435	8706
1962.527	8960
1964.62	8664
1966.711	8631
1968.802	8747
1970.892	8595
1972.983	8824
1975.072	8727
1977.162	8756
1979.25	8676
1981.337	8736
1983.424	8524
1985.51	8693
1987.598	8715
1989.683	8707
1991.768	8800
1993.852	8692
1995.934	8504
1998.019	8620
2000.102	8684
2002.184	8590
2004.266	8519
2006.347	8731
2008.427	8638
2010.508	8685
2012.587	8617
2014.666	8583
2016.745	8658
2018.821	8745
2020.9	8644
2022.977	8692
2025.052	8619
2027.128	8637
2029.204	8534
2031.277	8571
2033.353	8678
2035.425	8570
2037.499	8493
2039.57	8610
2041.642	8609
2043.714	8689
2045.786	8496
2047.855	8614
2049.925	8574
2051.993	8623
2054.064	8633
2056.132	8677
2058.2	8559
2060.266	8678
2062.332	8628
2064.398	8585
2066.465	8642
2068.529	8631
2070.592	8697
2072.657	8763
2074.719	8551
2076.783	8653
2078.845	8559
2080.907	8685
2082.968	8630
2085.028	8656
2087.087	8634
2089.148	8587
2091.207	8607
2093.264	8623
2095.322	8613
2097.379	8690
2099.439	8636
2101.495	8699
2103.55	8566
2105.605	8738
2107.658	8631
2109.713	8703
2111.767	8725
2113.82	8670
2115.872	8449
2117.924	8786
2119.975	8612
2122.028	8647
2124.078	8557
2126.126	8613
2128.176	8637
2130.225	8644
2132.275	8553
2134.321	8698
2136.368	8593
2138.415	8682
2140.461	8642
2142.505	8418
2144.552	8642
2146.597	8683
2148.64	8546
2150.684	8629
2152.725	8591
2154.77	8570
2156.811	8509
2158.852	8603
2160.894	8678
2162.933	8511
2164.973	8722
2167.013	8501
2169.051	8412
2171.089	8447
2173.126	8603
2175.164	8561
2177.201	8500
2179.236	8660
2181.273	8501
2183.307	8449
2185.341	8551
2187.377	8539
2189.41	8537
2191.442	8364
2193.473	8413
2195.506	8386
2197.539	8473
2199.569	8377
2201.598	8479
2203.628	8475
2205.656	8410
2207.686	8470
2209.716	8362
2211.743	8360
2213.769	8490
2215.796	8496
2217.821	8250
2219.848	8399
2221.873	8372
2223.897	8379
2225.921	8254
2227.944	8249
2229.967	8352
2231.991	8292
2234.011	8280
2236.032	8433
2238.053	8246
2240.073	8426
2242.094	8336
2244.114	8345
2246.131	8301
2248.149	8328
2250.167	8360
2252.186	8374
2254.201	8443
2256.218	8416
2258.233	8392
2260.247	8391
2262.262	8392
2264.278	8360
2266.29	8348
2268.303	8299
2270.315	8422
2272.327	8362
2274.341	8386
2276.35	8365
2278.361	8466
2280.37	8452
2282.38	8327
2284.388	8313
2286.397	8417
2288.405	8319
2290.412	8268
2292.419	8316
2294.425	8350
2296.431	8385
2298.437	8379
2300.441	8386
2302.445	8340
2304.449	8392
2306.453	8452
2308.455	8246
2310.457	8295
2312.459	8294
2314.46	8272
2316.46	8270
2318.461	8326
2320.46	8326
2322.458	8169
2324.458	8356
2326.456	8237
2328.455	8261
2330.451	8196
2332.447	8141
2334.443	8252
2336.438	8240
2338.433	8192
2340.429	8307
2342.422	8242
2344.416	8185
2346.408	8235
2348.399	8234
2350.393	8209
2352.384	8215
2354.375	8190
2356.365	8098
2358.355	8202
2360.344	8191
2362.333	8178
2364.322	8178
2366.309	8218
2368.295	8124
2370.282	8215
2372.27	8146
2374.256	8037
2376.24	8204
2378.225	8097
2380.208	8070
2382.194	8078
2384.177	8017
2386.159	8076
2388.142	8037
2390.122	8133
2392.105	7877
2394.085	8008
2396.066	8045
2398.044	8074
2400.024	8066
2402.002	8045
2403.982	8015
2405.959	8120
2407.935	8054
2409.913	7984
2411.888	8145
2413.865	8117
2415.84	7984
2417.814	8043
2419.788	8000
2421.762	7954
2423.735	8037
2425.708	7985
2427.68	7993
2429.651	7989
2431.623	8062
2433.593	7967
2435.564	8019
2437.533	8029
2439.502	8063
2441.47	7871
2443.438	8076
2445.406	8025
2447.373	7992
2449.34	8126
2451.305	7964
2453.271	8067
2455.235	7931
2457.201	7983
2459.165	7975
2461.129	7936
2463.092	7958
2465.054	8005
2467.018	7933
2468.978	8071
2470.939	7884
2472.899	8073
2474.86	7969
2476.819	7867
2478.778	7883
2480.737	7971
2482.695	7873
2484.653	7985
2486.609	7970
2488.567	7878
2490.524	7965
2492.478	7899
2494.433	7912
2496.387	7876
2498.343	7990
2500.297	7823
2502.249	8032
2504.202	7816
2506.153	7855
2508.105	7836
2510.057	7870
2512.008	7872
2513.957	7890
2515.906	7880
2517.855	7901
2519.805	7849
2521.754	7942
2523.7	7697
2525.647	7789
2527.594	7818
2529.54	7762
2531.486	7748
2533.431	7833
2535.376	7659
2537.32	7834
2539.263	7728
2541.207	7786
2543.151	7776
2545.093	7776
2547.034	7860
2548.975	7787
2550.917	7832
2552.856	7846
2554.796	7840
2556.735	7855
2558.673	7775
2560.611	7829
2562.55	7732
2564.487	7777
2566.424	7843
2568.36	7910
2570.296	7851
2572.232	7666
2574.167	7811
2576.101	7864
2578.035	7806
2579.969	7771
2581.902	7793
2583.834	7755
2585.766	7700
2587.698	7789
2589.628	7858
2591.557	7722
2593.489	7804
2595.419	7882
2597.348	7665
2599.275	7912
2601.204	7789
2603.131	7769
2605.059	7782
2606.986	7848
2608.911	7784
2610.837	7811
2612.76	7905
2614.687	7788
2616.61	7743
2618.534	7828
2620.457	7787
2622.38	7820
2624.302	7846
2626.225	7761
2628.145	7963
2630.067	7715
2631.986	7787
2633.906	7867
2635.827	7705
2637.745	7661
2639.662	7782
2641.581	7662
2643.498	7918
2645.415	7806
2647.331	7840
2649.248	7824
2651.163	7803
2653.077	7815
2654.993	7789
2656.906	7697
2658.821	7830
2660.733	7658
2662.646	7738
2664.557	7664
2666.47	7821
2668.381	7856
2670.291	7703
2672.201	7667
2674.11	7743
2676.021	7646
2677.929	7707
2679.837	7702
2681.745	7781
2683.652	7746
2685.56	7752
2687.466	7612
2689.371	7695
2691.276	7600
2693.181	7624
2695.085	7651
2696.991	7601
2698.893	7768
2700.796	7596
2702.698	7593
2704.601	7759
2706.502	7711
2708.404	7494
2710.304	7567
2712.203	7688
2714.103	7519
2716.003	7566
2717.902	7574
2719.8	7593
2721.697	7567
2723.594	7557
2725.49	7559
2727.389	7568
2729.283	7612
2731.179	7554
2733.073	7561
2734.968	7639
2736.863	7560
2738.757	7647
2740.649	7599
2742.541	7576
2744.433	7599
2746.324	7532
2748.216	7565
2750.107	7538
2751.997	7659
2753.886	7380
2755.776	7431
2757.666	7571
2759.553	7444
2761.44	7575
2763.327	7515
2765.215	7369
2767.102	7450
2768.988	7468
2770.873	7423
2772.757	7541
2774.641	7532
2776.525	7530
2778.41	7454
2780.292	7558
2782.175	7409
2784.057	7577
2785.938	7457
2787.821	7505
2789.701	7514
2791.581	7491
2793.461	7307
2795.34	7452
2797.219	7442
2799.099	7470
2800.975	7357
2802.853	7457
2804.73	7374
2806.606	7421
2808.484	7431
2810.358	7421
2812.233	7474
2814.108	7321
2815.981	7360
2817.857	7298
2819.73	7516
2821.602	7364
2823.474	7319
2825.346	7397
2827.217	7397
2829.089	7408
2830.959	7311
2832.829	7406
2834.698	7350
2836.567	7368
2838.436	7316
2840.305	7411
2842.172	7415
2844.04	7409
2845.905	7283
2847.772	7422
2849.639	7373
2851.503	7471
2853.369	7539
2855.232	7374
2857.096	7409
2858.961	7403
2860.824	7425
2862.686	7467
2864.547	7431
2866.41	7462
2868.272	7503
2870.132	7618
2871.992	7634
2873.851	7702
2875.711	7641
2877.57	7675
2879.429	7699
2881.287	7713
2883.144	7628
2885.001	7795
2886.857	7803
2888.714	7742
2890.57	7807
2892.425	7773
2894.279	7571
2896.133	7757
2897.987	7869
2899.842	7817
2901.694	7742
2903.547	7741
2905.397	7720
2907.249	7709
2909.101	7814
2910.952	7712
2912.802	7753
2914.652	7851
2916.5	7744
2918.35	7949
2920.198	7779
2922.045	8010
2923.893	7868
2925.74	7992
2927.585	8220
2929.433	8012
2931.279	8083
2933.123	8181
2934.968	8212
2936.811	8114
2938.656	8227
2940.5	8163
2942.342	8325
2944.185	8478
2946.026	8239
2947.87	8251
2949.71	8390
2951.549	8325
2953.39	8334
2955.229	8200
2957.069	8195
2958.908	8111
2960.746	8242
2962.584	7972
2964.421	7933
2966.257	7989
2968.094	7986
2969.931	8006
2971.766	7870
2973.601	7732
2975.435	7806
2977.27	7811
2979.105	7719
2980.938	7718
2982.77	7588
2984.602	7731
2986.434	7632
2988.267	7646
2990.097	7515
2991.927	7443
2993.757	7476
2995.587	7436
2997.417	7512
2999.246	7387
3001.074	7385
3002.902	7460
3004.729	7263
3006.556	7219
3008.384	7226
3010.21	7215
3012.036	7110
3013.861	7109
3015.684	7098
3017.51	7088
3019.334	7030
3021.157	7039
3022.981	6971
3024.802	6919
3026.624	6974
3028.448	6918
3030.267	7028
3032.088	6865
3033.909	6969
3035.728	6935
3037.549	6944
3039.368	6891
3041.186	6784
3043.004	6972
3044.821	6876
3046.64	6811
3048.455	6857
3050.272	6959
3052.087	6840
3053.903	6889
3055.717	6815
3057.534	6770
3059.347	6863
3061.16	6970
3062.974	6846
3064.785	6871
3066.598	6752
3068.411	6818
3070.222	6856
3072.032	6833
3073.844	6780
3075.653	6844
3077.463	6781
3079.272	6665
3081.08	6712
3082.889	6729
3084.697	6621
3086.505	6689
3088.312	6759
3090.118	6754
3091.924	6639
3093.729	6820
3095.535	6561
3097.34	6721
3099.144	6601
3100.947	6597
3102.75	6721
3104.553	6612
3106.357	6564
3108.159	6661
3109.961	6588
3111.762	6507
3113.562	6555
3115.365	6453
3117.164	6637
3118.964	6621
3120.761	6554
3122.56	6675
3124.36	6530
3126.158	6570
3127.954	6494
3129.75	6550
3131.547	6571
3133.343	6531
3135.139	6477
3136.934	6501
3138.729	6511
3140.522	6329
3142.317	6554
3144.11	6444
3145.904	6441
3147.695	6376
3149.488	6481
3151.28	6464
3153.07	6543
3154.863	6457
3156.652	6445
3158.441	6437
3160.231	6406
3162.019	6428
3163.81	6437
3165.597	6414
3167.384	6436
3169.172	6295
3170.958	6402
3172.745	6323
3174.532	6416
3176.317	6346
3178.101	6296
3179.885	6361
3181.67	6447
3183.455	6427
3185.238	6376
3187.02	6303
3188.802	6346
3190.585	6365
3192.368	6448
3194.149	6443
3195.929	6312
3197.709	6213
3199.489	6355
3201.268	6187
3203.048	6320
3204.826	6335
3206.604	6313
3208.382	6337
3210.159	6260
3211.937	6172
3213.713	6342
3215.489	6363
3217.263	6379
3219.038	6246
3220.815	6256
3222.589	6308
3224.363	6315
3226.136	6240
3227.908	6322
3229.681	6307
3231.454	6299
3233.226	6238
3234.996	6300
3236.767	6221
3238.538	6201
3240.308	6265
3242.078	6193
3243.847	6159
3245.615	6176
3247.384	6270
3249.15	6219
3250.92	6230
3252.686	6283
3254.453	6264
3256.218	6274
3257.984	6247
3259.75	6296
3261.515	6334
3263.279	6177
3265.044	6159
3266.806	6250
3268.57	6233
3270.334	6314
3272.095	6136
3273.856	6104
3275.619	6144
3277.379	6209
3279.14	6153
3280.9	6141
3282.661	6177
3284.419	6207
3286.178	6155
3287.937	6178
3289.695	6143
3291.453	6268
3293.21	6288
3294.967	6131
3296.723	6233
3298.48	6161
3300.235	6098
3301.99	6185
3303.744	6249
3305.498	6256
3307.253	6123
3309.006	6192
3310.759	6180
3312.511	6212
3314.263	6242
3316.017	6154
3317.768	6186
3319.519	6229
3321.268	6250
3323.018	6222
3324.767	6145
3326.518	6090
3328.267	6186
3330.014	6129
3331.762	6143
3333.509	6149
3335.258	6122
3337.003	6111
3338.75	6149
3340.496	6172
3342.24	6076
3343.987	6090
3345.732	6164
3347.475	6066
3349.219	6052
3350.961	6023
3352.705	5924
3354.448	6044
3356.19	6131
3357.931	6026
3359.672	5974
3361.412	6033
3363.155	6031
3364.894	6105
3366.633	5943
3368.372	6067
3370.11	6172
3371.849	5961
3373.588	5932
3375.325	5934
3377.061	5866
3378.799	5896
3380.534	6006
3382.271	5981
3384.006	5856
3385.741	5953
3387.475	5999
3389.209	5897
3390.944	5859
3392.677	5928
3394.409	5950
3396.143	6106
3397.874	5901
3399.606	5911
3401.338	5932
3403.069	5958
3404.799	5916
3406.528	5898
3408.258	5846
3409.988	5951
3411.717	5921
3413.445	5900
3415.173	5785
3416.899	5906
3418.626	5820
3420.354	5909
3422.08	5829
3423.806	5809
3425.531	5963
3427.255	5968
3428.981	5699
3430.705	5813
3432.429	5820
3434.151	5742
3435.875	5748
3437.599	5840
3439.321	5794
3441.042	5869
3442.763	5759
3444.483	5774
3446.204	5719
3447.926	5759
3449.645	5658
3451.364	5721
3453.082	5772
3454.801	5727
3456.52	5677
3458.238	5777
3459.954	5660
3461.671	5719
3463.387	5724
3465.104	5714
3466.82	5680
3468.534	5674
3470.25	5663
3471.963	5602
3473.676	5572
3475.392	5588
3477.104	5680
3478.817	5696
3480.528	5600
3482.241	5509
3483.954	5621
3485.664	5605
3487.374	5657
3489.084	5655
3490.795	5546
3492.504	5682
3494.214	5453
3495.922	5589
3497.63	5474
3499.338	5444
3501.045	5617
3502.753	5514
3504.459	5537
3506.166	5508
3507.871	5588
3509.576	5411
3511.283	5454
3512.987	5528
3514.691	5470
3516.395	5440
3518.098	5481
3519.8	5503
3521.504	5384
3523.206	5564
3524.908	5447
3526.609	5468
3528.309	5367
3530.011	5479
3531.711	5376
3533.411	5428
3535.109	5411
3536.808	5349
3538.507	5389
3540.206	5344
3541.904	5358
3543.601	5410
3545.297	5421
3546.994	5390
3548.69	5312
3550.387	5336
3552.081	5316
3553.776	5364
3555.47	5360
3557.166	5345
3558.859	5347
3560.553	5341
3562.245	5292
3563.938	5300
3565.629	5296
3567.322	5391
3569.014	5387
3570.704	5334
3572.394	5227
3574.084	5199
3575.775	5312
3577.464	5345
3579.152	5347
3580.842	5246
3582.529	5328
3584.216	5247
3585.905	5215
3587.591	5291
3589.279	5158
3590.964	5179
3592.649	5234
3594.336	5237
3596.021	5252
3597.705	5166
3599.388	5331
3601.072	5131
3602.757	5174
3604.439	5170
3606.122	5257
3607.803	5166
3609.485	5141
3611.167	5060
3612.849	5100
3614.529	5111
3616.208	5238
3617.888	5127
3619.567	5213
3621.247	5113
3622.926	5173
3624.603	5012
3626.281	5129
3627.958	5059
3629.635	5101
3631.312	5057
3632.989	5120
3634.665	5027
3636.339	5094
3638.014	4918
3639.691	5084
3641.364	5022
3643.038	4953
3644.71	4909
3646.384	5074
3648.058	4982
3649.729	5080
3651.402	4940
3653.073	4890
3654.744	4974
3656.414	4951
3658.085	5008
3659.755	4992
3661.424	4954
3663.094	4912
3664.762	4916
3666.431	4989
3668.099	4942
3669.766	4928
3671.433	4837
3673.099	4977
3674.768	4957
3676.433	4922
3678.098	4914
3679.763	4960
3681.428	4976
3683.093	4916
3684.757	4883
3686.421	4901
3688.083	4900
3689.746	4855
3691.408	4961
3693.071	4859
3694.733	4927
3696.394	4856
3698.054	4925
3699.715	4877
3701.375	4825
3703.036	4850
3704.695	4932
3706.354	4857
3708.012	4863
3709.67	4786
3711.329	4883
3712.987	4824
3714.644	4770
3716.299	4900
3717.955	4768
3719.613	4747
3721.268	4886
3722.923	4785
3724.577	4849
3726.231	4935
3727.885	4752
3729.539	4775
3731.192	4710
3732.845	4846
3734.497	4781
3736.149	4788
3737.802	4836
3739.453	4796
3741.104	4718
3742.753	4764
3744.404	4723
3746.052	4798
3747.704	4731
3749.352	4807
3751	4672
3752.648	4774
3754.296	4689
3755.944	4692
3757.59	4769
3759.238	4731
3760.883	4668
3762.528	4652
3764.176	4758
3765.82	4726
3767.464	4639
3769.109	4665
3770.753	4713
3772.396	4734
3774.04	4696
3775.683	4585
3777.325	4673
3778.967	4617
3780.608	4670
3782.25	4698
3783.89	4597
3785.531	4656
3787.17	4673
3788.81	4529
3790.45	4596
3792.09	4544
3793.729	4693
3795.366	4607
3797.003	4648
3798.64	4450
3800.278	4607
3801.915	4599
3803.551	4581
3805.187	4526
3806.822	4601
3808.458	4528
3810.093	4627
3811.726	4496
3813.36	4589
3814.994	4517
3816.627	4508
3818.262	4556
3819.893	4500
3821.525	4542
3823.157	4398
3824.787	4517
3826.42	4496
3828.051	4461
3829.68	4522
3831.31	4487
3832.938	4493
3834.569	4469
3836.198	4467
3837.825	4438
3839.454	4495
3841.08	4438
3842.708	4391
3844.335	4473
3845.962	4463
3847.587	4404
3849.212	4393
3850.838	4508
3852.463	4389
3854.089	4376
3855.712	4524
3857.335	4457
3858.959	4404
3860.582	4377
3862.205	4476
3863.827	4460
3865.449	4318
3867.07	4435
3868.691	4437
3870.312	4385
3871.933	4388
3873.553	4323
3875.173	4272
3876.792	4328
3878.411	4352
3880.03	4438
3881.647	4336
3883.265	4275
3884.882	4449
3886.499	4281
3888.116	4401
3889.732	4369
3891.348	4384
3892.964	4342
3894.579	4392
3896.195	4376
3897.809	4350
3899.423	4361
3901.036	4307
3902.648	4341
3904.261	4336
3905.875	4293
3907.487	4320
3909.099	4292
3910.709	4284
3912.321	4290
3913.933	4265
3915.542	4311
3917.152	4350
3918.762	4263
3920.37	4378
3921.98	4290
3923.589	4228
3925.196	4172
3926.804	4235
3928.41	4332
3930.018	4399
3931.626	4341
3933.231	4237
3934.838	4223
3936.442	4299
3938.046	4223
3939.653	4349
3941.257	4221
3942.861	4310
3944.464	4251
3946.068	4268
3947.67	4258
3949.273	4121
3950.876	4252
3952.477	4187
3954.078	4213
3955.678	4199
3957.281	4226
3958.881	4235
3960.48	4123
3962.079	4147
3963.678	4167
3965.279	4271
3966.877	4169
3968.475	4177
3970.072	4174
3971.669	4221
3973.266	4187
3974.864	4111
3976.459	4107
3978.055	4165
3979.65	4090
3981.245	4109
3982.841	4131
3984.436	4060
3986.03	4119
3987.623	4187
3989.216	4132
3990.809	4102
3992.403	4050
3993.995	4105
3995.586	4151
3997.177	4024
3998.768	3958
4000.361	4072
4001.951	4105
4003.54	4014
4005.13	4091
4006.719	4058
4008.31	4102
4009.897	3972
4011.485	4013
4013.073	4086
4014.66	4063
4016.247	4055
4017.834	4021
4019.421	3996
4021.006	4003
4022.592	3954
4024.178	3988
4025.763	3967
4027.348	3996
4028.932	3933
4030.515	4014
4032.099	3974
4033.682	3960
4035.266	4001
4036.847	3985
4038.429	3892
4040.011	3870
4041.592	3913
4043.173	3958
4044.755	3895
4046.334	3974
4047.913	3994
4049.494	3931
4051.074	3916
4052.652	3852
4054.23	3924
4055.807	3919
4057.385	3914
4058.963	3868
4060.541	3892
4062.117	3905
4063.693	3817
4065.269	3850
4066.844	3904
4068.42	3895
4069.995	3867
4071.569	3837
4073.143	4000
4074.716	3813
4076.291	3847
4077.864	3884
4079.436	3836
4081.009	3830
4082.58	3812
4084.152	3823
4085.723	3843
4087.294	3768
4088.865	3814
4090.435	3820
4092.005	3815
4093.574	3855
4095.143	3830
4096.712	3854
4098.279	3752
4099.848	3743
4101.416	3772
4102.984	3772
4104.55	3715
4106.117	3875
4107.682	3829
4109.248	3795
4110.815	3782
4112.379	3682
4113.945	3724
4115.508	3750
4117.073	3763
4118.637	3682
4120.201	3764
4121.763	3780
4123.325	3716
4124.888	3730
4126.449	3759
4128.013	3717
4129.573	3713
4131.133	3779
4132.694	3662
4134.254	3728
4135.814	3634
4137.374	3656
4138.933	3741
4140.491	3759
4142.049	3677
4143.607	3707
4145.167	3658
4146.724	3681
4148.28	3656
4149.836	3572
4151.392	3613
4152.949	3687
4154.504	3547
4156.059	3667
4157.614	3704
4159.168	3648
4160.723	3652
4162.277	3640
4163.83	3605
4165.383	3555
4166.936	3576
4168.488	3557
4170.041	3632
4171.593	3596
4173.144	3593
4174.695	3537
4176.246	3624
4177.796	3520
4179.346	3550
4180.896	3545
4182.445	3464
4183.994	3554
4185.542	3597
4187.091	3469
4188.639	3519
4190.185	3482
4191.732	3473
4193.279	3642
4194.826	3594
4196.373	3481
4197.918	3507
4199.463	3458
4201.008	3521
4202.553	3462
4204.098	3516
4205.641	3454
4207.185	3463
4208.728	3501
4210.271	3497
4211.814	3510
4213.357	3427
4214.898	3539
4216.439	3455
4217.98	3377
4219.522	3462
4221.062	3435
4222.603	3421
4224.142	3429
4225.681	3513
4227.222	3452
4228.76	3408
4230.298	3442
4231.835	3421
4233.373	3410
4234.911	3500
4236.449	3452
4237.985	3425
4239.521	3460
4241.057	3467
4242.592	3477
4244.128	3481
4245.663	3360
4247.197	3479
4248.731	3418
4250.265	3402
4251.798	3390
4253.333	3431
4254.865	3418
4256.397	3460
4257.93	3399
4259.461	3413
4260.994	3361
4262.525	3377
4264.056	3444
4265.586	3495
4267.115	3380
4268.646	3412
4270.176	3336
4271.705	3269
4273.232	3360
4274.761	3357
4276.289	3270
4277.818	3349
4279.345	3366
4280.872	3296
4282.399	3380
4283.924	3304
4285.452	3315
4286.976	3264
4288.502	3303
4290.026	3355
4291.551	3283
4293.074	3374
4294.6	3219
4296.123	3342
4297.646	3334
4299.168	3368
4300.691	3275
4302.214	3281
4303.736	3309
4305.257	3290
4306.778	3283
4308.299	3275
4309.82	3248
4311.34	3259
4312.86	3242
4314.379	3172
