400.0745	3716
402.597	3733
405.1208	3733
407.6419	3780
410.1623	3724
412.6819	3783
415.201	3899
417.7172	3830
420.2369	3861
422.7538	3928
425.2701	3920
427.7856	3902
430.3005	4023
432.8147	3940
435.3282	4096
437.841	4050
440.3511	3991
442.8625	3993
445.3753	3979
447.8854	4090
450.3927	3990
452.9014	3968
455.4073	4009
457.9146	3918
460.4233	4027
462.9272	3915
465.4325	3998
467.935	3998
470.4389	4083
472.9421	3971
475.4446	4000
477.9444	4007
480.4456	4017
482.944	4009
485.4417	4100
487.9429	4033
490.4393	4043
492.935	4093
495.4321	4013
497.9264	4106
500.4221	4157
502.9171	4143
505.4094	4163
507.9011	4105
510.392	4148
512.8864	4093
515.3759	4158
517.8649	4192
520.3531	4174
522.8406	4116
525.3275	4074
527.8178	4165
530.3033	4051
532.7881	4142
535.2723	4234
537.7558	4182
540.2407	4101
542.7228	4178
545.2043	4067
547.6851	4159
550.1652	4266
552.6467	4222
555.1255	4138
557.6016	4231
560.079	4157
562.5557	4228
565.0318	4089
567.5092	4287
569.984	4220
572.456	4206
574.9294	4244
577.4022	4277
579.8762	4356
582.3456	4363
584.8163	4237
587.2863	4441
589.7557	4317
592.2224	4335
594.6924	4310
597.1578	4375
599.6245	4222
602.0905	4344
604.5538	4313
607.0206	4330
609.4825	4322
611.9459	4279
614.4066	4288
616.8686	4323
619.33	4162
621.7906	4219
624.2487	4351
626.708	4230
629.1647	4227
631.6207	4243
634.0801	4248
636.5348	4248
638.9888	4268
641.4442	4320
643.8969	4310
646.3509	4288
648.8022	4325
651.255	4265
653.705	4290
656.1544	4269
658.6031	4338
661.0532	4317
663.5026	4328
665.9493	4256
668.3954	4354
670.8409	4354
673.2877	4460
675.7318	4452
678.1752	4522
680.618	4394
683.0601	4388
685.5035	4473
687.9444	4470
690.3845	4473
692.824	4368
695.2628	4387
697.701	4382
700.1406	4477
702.5774	4436
705.0116	4510
707.4472	4546
709.8821	4508
712.3183	4502
714.7519	4508
717.1829	4424
719.6151	4488
722.0468	4638
724.4777	4524
726.908	4497
729.3377	4648
731.7667	4616
734.1931	4613
736.6208	4646
739.0498	4673
741.4742	4679
743.9	4611
746.3231	4621
748.7476	4699
751.1713	4695
753.5945	4740
756.015	4679
758.4368	4622
760.856	4659
763.2766	4733
765.6965	4776
768.1157	4632
770.5323	4802
772.9483	4697
775.3656	4651
777.7822	4666
780.1963	4825
782.6116	4693
785.0244	4689
787.4365	4736
789.8499	4661
792.2626	4885
794.6728	4641
797.0823	4769
799.4911	4780
801.8994	4771
804.3109	4742
806.7178	4768
809.124	4840
811.5297	4800
813.9347	4890
816.341	4932
818.7447	4750
821.1478	4960
823.5502	4867
825.952	4703
828.3531	4883
830.7556	4822
833.1554	4843
835.5546	4796
837.9532	4818
840.3511	4813
842.7504	4830
845.1451	4928
847.5411	4870
849.9365	4927
852.3312	5062
854.7272	4885
857.1187	4976
859.5115	4856
861.9037	5042
864.2952	4896
866.6842	4954
869.0764	4896
871.4661	4933
873.8531	4967
876.2415	4846
878.6272	4881
881.0162	4875
883.4026	4952
885.7866	4951
888.1717	4902
890.5543	4945
892.9382	4916
895.3215	4843
897.7041	4860
900.0842	4921
902.4655	4866
904.8443	5026
907.2244	4926
909.6039	4958
911.9808	4983
914.357	5044
916.7346	5039
919.1115	5099
921.4859	5222
923.8616	5134
926.2347	5255
928.6071	5293
930.979	5280
933.3541	5246
935.7247	5189
938.0946	5177
940.4639	5314
942.8326	5318
945.2026	5270
947.5701	5512
949.9369	5478
952.305	5633
954.6705	5775
957.0355	5884
959.4017	6132
961.7654	6222
964.1284	6274
966.4908	6165
968.8527	5860
971.2138	5719
973.5743	5463
975.9343	5344
978.2936	5292
980.6522	5197
983.0122	5206
985.3696	5036
987.7245	5153
990.0807	5032
992.4362	5070
994.7911	5071
997.1474	5060
999.4991	4982
1001.852	5063
1004.205	5211
1006.555	5077
1008.908	5159
1011.258	5056
1013.606	5054
1015.956	5149
1018.302	5091
1020.652	5164
1022.998	5059
1025.345	5039
1027.691	5257
1030.035	5126
1032.378	5169
1034.724	5165
1037.066	5195
1039.409	5184
1041.75	5156
1044.092	5202
1046.433	5126
1048.771	5301
1051.112	5209
1053.449	5209
1055.786	5102
1058.124	5280
1060.462	5187
1062.797	5183
1065.131	5247
1067.467	5242
1069.8	5321
1072.135	5261
1074.467	5340
1076.798	5205
1079.129	5226
1081.459	5269
1083.792	5204
1086.121	5144
1088.449	5260
1090.777	5262
1093.104	5162
1095.431	5152
1097.759	5206
1100.084	5234
1102.408	5297
1104.732	5136
1107.056	5163
1109.379	5198
1111.701	5226
1114.022	5249
1116.343	5225
1118.664	5090
1120.983	5151
1123.303	5168
1125.621	5317
1127.939	5186
1130.256	5215
1132.573	5159
1134.889	5243
1137.205	5199
1139.52	5145
1141.832	5156
1144.146	5146
1146.461	5124
1148.771	5115
1151.083	5135
1153.392	5229
1155.703	5227
1158.011	5194
1160.323	5246
1162.629	5205
1164.938	5247
1167.243	5305
1169.55	5245
1171.857	5309
1174.163	5217
1176.466	5099
1178.769	5256
1181.073	5182
1183.374	5232
1185.677	5184
1187.979	5237
1190.279	5182
1192.578	5120
1194.878	5147
1197.178	5162
1199.476	5191
1201.772	5165
1204.068	5266
1206.366	5070
1208.663	5278
1210.957	5206
1213.251	5184
1215.544	5190
1217.836	5197
1220.128	5254
1222.421	5205
1224.712	5280
1227.002	5277
1229.292	5346
1231.581	5231
1233.871	5340
1236.159	5349
1238.446	5336
1240.732	5352
1243.018	5336
1245.304	5443
1247.59	5390
1249.874	5447
1252.156	5435
1254.439	5450
1256.721	5391
1259.005	5544
1261.286	5349
1263.565	5400
1265.845	5414
1268.125	5420
1270.403	5324
1272.682	5456
1274.959	5356
1277.234	5401
1279.511	5380
1281.787	5291
1284.062	5440
1286.337	5302
1288.609	5339
1290.882	5340
1293.153	5385
1295.428	5351
1297.698	5386
1299.969	5232
1302.237	5415
1304.507	5331
1306.777	5329
1309.044	5345
1311.312	5387
1313.578	5292
1315.844	5271
1318.109	5354
1320.375	5368
1322.638	5340
1324.903	5340
1327.165	5350
1329.427	5391
1331.69	5313
1333.952	5387
1336.212	5419
1338.471	5297
1340.73	5393
1342.988	5356
1345.248	5354
1347.505	5365
1349.763	5248
1352.019	5333
1354.274	5203
1356.53	5276
1358.784	5331
1361.038	5362
1363.291	5274
1365.543	5306
1367.797	5368
1370.048	5288
1372.296	5332
1374.546	5299
1376.796	5370
1379.045	5300
1381.295	5336
1383.542	5352
1385.787	5340
1388.034	5392
1390.28	5339
1392.527	5365
1394.772	5423
1397.014	5419
1399.258	5351
1401.501	5473
1403.741	5427
1405.985	5550
1408.226	5488
1410.465	5450
1412.705	5526
1414.943	5439
1417.184	5470
1419.42	5571
1421.658	5473
1423.894	5459
1426.13	5491
1428.366	5494
1430.602	5549
1432.835	5453
1435.069	5569
1437.301	5554
1439.535	5561
1441.767	5613
1443.997	5601
1446.229	5656
1448.458	5541
1450.687	5625
1452.916	5733
1455.146	5657
1457.372	5656
1459.599	5657
1461.824	5582
1464.051	5624
1466.277	5550
1468.501	5585
1470.725	5481
1472.948	5532
1475.17	5444
1477.393	5448
1479.614	5447
1481.837	5312
1484.057	5404
1486.276	5473
1488.497	5357
1490.715	5353
1492.932	5290
1495.148	5292
1497.364	5393
1499.58	5341
1501.798	5215
1504.012	5368
1506.227	5300
1508.44	5284
1510.653	5225
1512.866	5351
1515.078	5297
1517.289	5354
1519.5	5318
1521.711	5270
1523.92	5275
1526.13	5301
1528.338	5296
1530.544	5301
1532.752	5284
1534.959	5229
1537.165	5276
1539.371	5265
1541.574	5270
1543.779	5207
1545.983	5367
1548.187	5411
1550.39	5283
1552.59	5296
1554.792	5394
1556.991	5290
1559.19	5369
1561.392	5400
1563.59	5293
1565.789	5363
1567.986	5303
1570.182	5317
1572.381	5477
1574.576	5411
1576.771	5324
1578.966	5369
1581.16	5478
1583.354	5528
1585.546	5406
1587.74	5503
1589.931	5424
1592.121	5510
1594.311	5456
1596.502	5436
1598.693	5398
1600.881	5441
1603.069	5463
1605.256	5494
1607.445	5486
1609.631	5391
1611.816	5492
1614.001	5475
1616.186	5427
1618.37	5530
1620.555	5457
1622.737	5568
1624.919	5517
1627.101	5488
1629.282	5503
1631.463	5529
1633.643	5406
1635.822	5568
1638.001	5533
1640.179	5542
1642.359	5611
1644.534	5534
1646.711	5672
1648.887	5653
1651.062	5415
1653.235	5549
1655.412	5567
1657.586	5587
1659.757	5733
1661.93	5581
1664.1	5698
1666.274	5605
1668.445	5680
1670.614	5482
1672.784	5725
1674.951	5622
1677.12	5654
1679.289	5666
1681.457	5608
1683.622	5587
1685.789	5600
1687.953	5635
1690.121	5557
1692.284	5520
1694.447	5517
1696.611	5541
1698.772	5551
1700.935	5477
1703.098	5507
1705.258	5393
1707.417	5309
1709.576	5449
1711.736	5411
1713.896	5357
1716.053	5392
1718.21	5342
1720.366	5359
1722.522	5480
1724.68	5306
1726.835	5469
1728.989	5415
1731.142	5395
1733.295	5426
1735.449	5457
1737.601	5335
1739.753	5422
1741.903	5379
1744.054	5473
1746.203	5482
1748.354	5383
1750.503	5390
1752.651	5305
1754.798	5460
1756.944	5417
1759.092	5436
1761.238	5516
1763.383	5431
1765.528	5498
1767.672	5466
1769.814	5417
1771.959	5557
1774.102	5384
1776.242	5466
1778.384	5464
1780.525	5409
1782.665	5476
1784.805	5497
1786.945	5450
1789.082	5394
1791.22	5491
1793.36	5439
1795.495	5465
1797.632	5494
1799.766	5626
1801.902	5552
1804.035	5515
1806.172	5471
1808.304	5434
1810.436	5482
1812.569	5417
1814.699	5551
1816.833	5484
1818.963	5489
1821.092	5448
1823.222	5379
1825.35	5546
1827.478	5533
1829.608	5475
1831.734	5499
1833.86	5442
1835.986	5441
1838.11	5439
1840.238	5403
1842.362	5487
1844.485	5438
1846.608	5455
1848.73	5466
1850.853	5455
1852.974	5407
1855.097	5295
1857.217	5388
1859.336	5425
1861.455	5371
1863.576	5452
1865.693	5394
1867.811	5425
1869.926	5449
1872.042	5333
1874.16	5461
1876.275	5416
1878.39	5314
1880.504	5261
1882.618	5386
1884.731	5472
1886.843	5433
1888.956	5436
1891.067	5488
1893.178	5441
1895.287	5452
1897.399	5463
1899.508	5454
1901.617	5418
1903.724	5423
1905.832	5601
1907.941	5457
1910.046	5499
1912.152	5399
1914.256	5508
1916.361	5434
1918.464	5455
1920.57	5412
1922.672	5511
1924.775	5432
1926.876	5578
1928.978	5528
1931.08	5401
1933.181	5456
1935.28	5498
1937.38	5427
1939.478	5492
1941.577	5467
1943.675	5422
1945.771	5474
1947.867	5469
1949.964	5517
1952.058	5560
1954.154	5490
1956.248	5496
1958.343	5373
1960.435	5558
1962.527	5469
1964.62	5423
1966.711	5417
1968.802	5380
1970.892	5465
1972.983	5458
1975.072	5451
1977.162	5416
1979.25	5428
1981.337	5370
1983.424	5488
1985.51	5452
1987.598	5521
1989.683	5439
1991.768	5492
1993.852	5416
1995.934	5455
1998.019	5449
2000.102	5493
2002.184	5447
2004.266	5537
2006.347	5509
2008.427	5362
2010.508	5509
2012.587	5507
2014.666	5441
2016.745	5367
2018.821	5405
2020.9	5282
2022.977	5452
2025.052	5385
2027.128	5425
2029.204	5481
2031.277	5468
2033.353	5384
2035.425	5424
2037.499	5388
2039.57	5511
2041.642	5469
2043.714	5380
2045.786	5488
2047.855	5453
2049.925	5456
2051.993	5411
2054.064	5362
2056.132	5417
2058.2	5493
2060.266	5394
2062.332	5369
2064.398	5407
2066.465	5402
2068.529	5473
2070.592	5394
2072.657	5418
2074.719	5432
2076.783	5429
2078.845	5403
2080.907	5465
2082.968	5450
2085.028	5402
2087.087	5435
2089.148	5433
2091.207	5383
2093.264	5323
2095.322	5446
2097.379	5384
2099.439	5351
2101.495	5521
2103.55	5450
2105.605	5442
2107.658	5422
2109.713	5431
2111.767	5420
2113.82	5405
2115.872	5460
2117.924	5408
2119.975	5285
2122.028	5369
2124.078	5406
2126.126	5482
2128.176	5339
2130.225	5455
2132.275	5339
2134.321	5398
2136.368	5460
2138.415	5436
2140.461	5316
2142.505	5399
2144.552	5470
2146.597	5552
2148.64	5447
2150.684	5354
2152.725	5370
2154.77	5419
2156.811	5375
2158.852	5292
2160.894	5413
2162.933	5409
2164.973	5326
2167.013	5420
2169.051	5384
2171.089	5408
2173.126	5414
2175.164	5359
2177.201	5339
2179.236	5408
2181.273	5350
2183.307	5343
2185.341	5291
2187.377	5296
2189.41	5339
2191.442	5381
2193.473	5245
2195.506	5359
2197.539	5301
2199.569	5253
2201.598	5198
2203.628	5275
2205.656	5182
2207.686	5264
2209.716	5344
2211.743	5264
2213.769	5293
2215.796	5320
2217.821	5241
2219.848	5227
2221.873	5185
2223.897	5206
2225.921	5322
2227.944	5186
2229.967	5229
2231.991	5257
2234.011	5288
2236.032	5350
2238.053	5188
2240.073	5287
2242.094	5227
2244.114	5224
2246.131	5232
2248.149	5209
2250.167	5329
2252.186	5294
2254.201	5252
2256.218	5291
2258.233	5319
2260.247	5266
2262.262	5242
2264.278	5272
2266.29	5257
2268.303	5229
2270.315	5191
2272.327	5314
2274.341	5183
2276.35	5275
2278.361	5326
2280.37	5306
2282.38	5285
2284.388	5259
2286.397	5252
2288.405	5346
2290.412	5176
2292.419	5361
2294.425	5269
2296.431	5228
2298.437	5213
2300.441	5222
2302.445	5209
2304.449	5179
2306.453	5178
2308.455	5150
2310.457	5204
2312.459	5256
2314.46	5245
2316.46	5198
2318.461	5204
2320.46	5240
2322.458	5202
2324.458	5159
2326.456	5240
2328.455	5223
2330.451	5205
2332.447	5119
2334.443	5109
2336.438	5117
2338.433	5213
2340.429	5098
2342.422	5109
2344.416	5161
2346.408	5127
2348.399	5196
2350.393	5142
2352.384	5035
2354.375	5142
2356.365	5150
2358.355	5133
2360.344	5225
2362.333	5005
2364.322	5183
2366.309	5126
2368.295	5139
2370.282	5067
2372.27	5204
2374.256	5060
2376.24	5124
2378.225	5134
2380.208	5137
2382.194	5042
2384.177	5092
2386.159	5058
2388.142	5162
2390.122	5054
2392.105	5091
2394.085	5097
2396.066	5147
2398.044	5044
2400.024	5119
2402.002	5119
2403.982	5058
2405.959	5102
2407.935	5064
2409.913	5020
2411.888	5015
2413.865	5106
2415.84	5162
2417.814	5136
2419.788	5032
2421.762	5064
2423.735	5163
2425.708	5040
2427.68	5023
2429.651	5029
2431.623	5037
2433.593	5048
2435.564	5119
2437.533	5105
2439.502	5105
2441.47	5035
2443.438	5030
2445.406	5029
2447.373	4978
2449.34	5024
2451.305	5088
2453.271	5093
2455.235	4939
2457.201	4995
2459.165	5044
2461.129	5021
2463.092	4989
2465.054	4909
2467.018	4945
2468.978	5041
2470.939	4950
2472.899	4940
2474.86	5063
2476.819	4980
2478.778	4992
2480.737	5025
2482.695	4932
2484.653	5052
2486.609	5012
2488.567	5026
2490.524	4952
2492.478	4989
2494.433	5050
2496.387	4958
2498.343	4971
2500.297	5004
2502.249	4929
2504.202	4957
2506.153	5027
2508.105	4895
2510.057	4971
2512.008	4942
2513.957	5056
2515.906	4911
2517.855	4946
2519.805	4934
2521.754	5009
2523.7	4859
2525.647	4956
2527.594	4947
2529.54	4950
2531.486	4906
2533.431	4967
2535.376	4994
2537.32	4885
2539.263	4897
2541.207	4931
2543.151	5021
2545.093	4964
2547.034	4916
2548.975	4954
2550.917	4876
2552.856	4913
2554.796	4891
2556.735	4993
2558.673	5020
2560.611	4899
2562.55	4894
2564.487	4924
2566.424	4889
2568.36	5029
2570.296	4973
2572.232	4939
2574.167	4894
2576.101	4982
2578.035	4923
2579.969	4961
2581.902	4915
2583.834	4988
2585.766	4974
2587.698	4973
2589.628	4922
2591.557	4940
2593.489	4943
2595.419	4936
2597.348	4887
2599.275	4980
2601.204	4951
2603.131	4866
2605.059	4934
2606.986	4909
2608.911	4890
2610.837	5000
2612.76	4915
2614.687	4923
2616.61	4952
2618.534	5011
2620.457	5016
2622.38	4939
2624.302	5049
2626.225	4989
2628.145	4998
2630.067	4919
2631.986	4878
2633.906	4877
2635.827	4902
2637.745	4930
2639.662	4967
2641.581	4974
2643.498	4968
2645.415	4900
2647.331	5021
2649.248	4937
2651.163	4944
2653.077	4858
2654.993	4966
2656.906	5000
2658.821	5060
2660.733	4920
2662.646	4849
2664.557	4954
2666.47	4960
2668.381	4920
2670.291	4826
2672.201	4937
2674.11	4950
2676.021	4939
2677.929	4886
2679.837	4854
2681.745	4974
2683.652	4923
2685.56	4897
2687.466	4863
2689.371	4865
2691.276	4962
2693.181	4790
2695.085	4984
2696.991	4872
2698.893	4860
2700.796	4870
2702.698	4809
2704.601	4947
2706.502	4837
2708.404	4876
2710.304	4871
2712.203	4819
2714.103	4875
2716.003	4848
2717.902	4800
2719.8	4856
2721.697	4803
2723.594	4903
2725.49	4788
2727.389	4782
2729.283	4855
2731.179	4876
2733.073	4778
2734.968	4904
2736.863	4850
2738.757	4836
2740.649	4901
2742.541	4806
2744.433	4863
2746.324	4797
2748.216	4792
2750.107	4844
2751.997	4809
2753.886	4820
2755.776	4791
2757.666	4783
2759.553	4788
2761.44	4790
2763.327	4828
2765.215	4839
2767.102	4912
2768.988	4822
2770.873	4827
2772.757	4812
2774.641	4802
2776.525	4772
2778.41	4698
2780.292	4825
2782.175	4909
2784.057	4818
2785.938	4806
2787.821	4834
2789.701	4793
2791.581	4695
2793.461	4704
2795.34	4744
2797.219	4739
2799.099	4753
2800.975	4729
2802.853	4725
2804.73	4700
2806.606	4846
2808.484	4746
2810.358	4724
2812.233	4766
2814.108	4744
2815.981	4700
2817.857	4661
2819.73	4760
2821.602	4789
2823.474	4799
2825.346	4810
2827.217	4711
2829.089	4633
2830.959	4806
2832.829	4731
2834.698	4685
2836.567	4781
2838.436	4858
2840.305	4766
2842.172	4850
2844.04	4922
2845.905	4802
2847.772	4758
2849.639	4885
2851.503	4900
2853.369	4768
2855.232	4789
2857.096	4920
2858.961	4869
2860.824	4946
2862.686	4958
2864.547	5042
2866.41	4910
2868.272	5059
2870.132	5060
2871.992	5056
2873.851	5029
2875.711	5076
2877.57	5133
2879.429	5296
2881.287	5208
2883.144	5362
2885.001	5339
2886.857	5449
2888.714	5337
2890.57	5403
2892.425	5295
2894.279	5364
2896.133	5308
2897.987	5356
2899.842	5322
2901.694	5214
2903.547	5336
2905.397	5289
2907.249	5253
2909.101	5380
2910.952	5283
2912.802	5383
2914.652	5350
2916.5	5465
2918.35	5484
2920.198	5473
2922.045	5534
2923.893	5728
2925.74	5575
2927.585	5728
2929.433	5792
2931.279	5756
2933.123	5876
2934.968	5738
2936.811	5855
2938.656	5857
2940.5	5919
2942.342	6046
2944.185	5987
2946.026	6145
2947.87	6049
2949.71	6134
2951.549	6021
2953.39	6132
2955.229	6007
2957.069	5839
2958.908	5934
2960.746	5887
2962.584	5828
2964.421	5716
2966.257	5823
2968.094	5610
2969.931	5626
2971.766	5616
2973.601	5462
2975.435	5510
2977.27	5408
2979.105	5494
2980.938	5409
2982.77	5405
2984.602	5327
2986.434	5241
2988.267	5158
2990.097	5266
2991.927	5130
2993.757	5283
2995.587	5013
2997.417	5193
2999.246	5062
3001.074	5147
3002.902	4784
3004.729	4933
3006.556	4877
3008.384	4850
3010.21	4766
3012.036	4831
3013.861	4720
3015.684	4709
3017.51	4647
3019.334	4663
3021.157	4661
3022.981	4655
3024.802	4559
3026.624	4542
3028.448	4544
3030.267	4495
3032.088	4571
3033.909	4494
3035.728	4484
3037.549	4474
3039.368	4435
3041.186	4512
3043.004	4551
3044.821	4523
3046.64	4492
3048.455	4562
3050.272	4491
3052.087	4542
3053.903	4442
3055.717	4424
3057.534	4499
3059.347	4469
3061.16	4461
3062.974	4438
3064.785	4580
3066.598	4410
3068.411	4460
3070.222	4510
3072.032	4419
3073.844	4471
3075.653	4405
3077.463	4447
3079.272	4396
3081.08	4445
3082.889	4431
3084.697	4367
3086.505	4320
3088.312	4350
3090.118	4434
3091.924	4305
3093.729	4316
3095.535	4306
3097.34	4308
3099.144	4414
3100.947	4276
3102.75	4265
3104.553	4409
3106.357	4241
3108.159	4309
3109.961	4327
3111.762	4293
3113.562	4337
3115.365	4284
3117.164	4367
3118.964	4267
3120.761	4219
3122.56	4329
3124.36	4279
3126.158	4288
3127.954	4218
3129.75	4217
3131.547	4248
3133.343	4148
3135.139	4197
3136.934	4214
3138.729	4253
3140.522	4250
3142.317	4200
3144.11	4190
3145.904	4166
3147.695	4185
3149.488	4282
3151.28	4235
3153.07	4208
3154.863	4204
3156.652	4111
3158.441	4165
3160.231	4202
3162.019	4192
3163.81	4136
3165.597	4184
3167.384	4150
3169.172	4232
3170.958	4157
3172.745	4209
3174.532	4165
3176.317	4206
3178.101	4183
3179.885	4106
3181.67	4137
3183.455	4154
3185.238	4193
3187.02	4203
3188.802	4132
3190.585	4113
3192.368	4147
3194.149	4182
3195.929	4202
3197.709	4177
3199.489	4149
3201.268	4140
3203.048	4166
3204.826	4123
3206.604	4154
3208.382	4213
3210.159	4092
3211.937	4134
3213.713	4205
3215.489	4103
3217.263	4131
3219.038	4117
3220.815	4130
3222.589	4038
3224.363	4190
3226.136	4171
3227.908	4077
3229.681	4114
3231.454	4105
3233.226	4094
3234.996	4176
3236.767	4128
3238.538	4155
3240.308	4087
3242.078	4077
3243.847	4206
3245.615	4191
3247.384	4147
3249.15	4241
3250.92	4178
3252.686	4205
3254.453	4170
3256.218	4188
3257.984	4075
3259.75	4111
3261.515	4140
3263.279	4130
3265.044	4112
3266.806	4089
3268.57	4184
3270.334	4094
3272.095	4062
3273.856	4066
3275.619	4140
3277.379	4196
3279.14	4247
3280.9	4112
3282.661	4115
3284.419	4127
3286.178	4095
3287.937	4144
3289.695	4109
3291.453	4188
3293.21	4173
3294.967	4198
3296.723	4202
3298.48	4216
3300.235	4025
3301.99	4166
3303.744	4144
3305.498	4159
3307.253	4110
3309.006	4197
3310.759	4116
3312.511	4226
3314.263	4158
3316.017	4099
3317.768	4207
3319.519	4085
3321.268	4070
3323.018	4079
3324.767	4186
3326.518	4149
3328.267	4108
3330.014	4074
3331.762	4147
3333.509	4112
3335.258	4122
3337.003	4119
3338.75	4149
3340.496	4045
3342.24	4069
3343.987	4079
3345.732	4121
3347.475	4107
3349.219	4043
3350.961	4150
3352.705	4027
3354.448	4004
3356.19	4105
3357.931	4029
3359.672	4032
3361.412	4029
3363.155	4049
3364.894	4130
3366.633	4031
3368.372	4080
3370.11	3980
3371.849	4023
3373.588	4025
3375.325	4010
3377.061	3992
3378.799	4052
3380.534	4015
3382.271	4038
3384.006	4005
3385.741	4033
3387.475	3990
3389.209	4094
3390.944	4033
3392.677	3928
3394.409	3949
3396.143	4024
3397.874	3919
3399.606	3909
3401.338	3988
3403.069	3966
3404.799	3937
3406.528	3968
3408.258	3975
3409.988	3944
3411.717	4027
3413.445	3893
3415.173	3993
3416.899	3852
3418.626	3839
3420.354	3851
3422.08	3884
3423.806	3934
3425.531	3927
3427.255	3830
3428.981	3884
3430.705	3911
3432.429	3934
3434.151	3983
3435.875	3859
3437.599	3816
3439.321	3910
3441.042	3937
3442.763	3867
3444.483	3889
3446.204	3909
3447.926	3884
3449.645	3741
3451.364	3868
3453.082	3867
3454.801	3812
3456.52	3854
3458.238	3736
3459.954	3879
3461.671	3835
3463.387	3805
3465.104	3792
3466.82	3788
3468.534	3750
3470.25	3758
3471.963	3835
3473.676	3792
3475.392	3789
3477.104	3750
3478.817	3827
3480.528	3773
3482.241	3703
3483.954	3767
3485.664	3719
3487.374	3710
3489.084	3723
3490.795	3723
3492.504	3726
3494.214	3731
3495.922	3651
3497.63	3701
3499.338	3680
3501.045	3761
3502.753	3726
3504.459	3615
3506.166	3714
3507.871	3704
3509.576	3579
3511.283	3677
3512.987	3643
3514.691	3640
3516.395	3551
3518.098	3689
3519.8	3667
3521.504	3569
3523.206	3576
3524.908	3602
3526.609	3602
3528.309	3614
3530.011	3620
3531.711	3641
3533.411	3585
3535.109	3620
3536.808	3536
3538.507	3586
3540.206	3532
3541.904	3626
3543.601	3551
3545.297	3607
3546.994	3498
3548.69	3664
3550.387	3596
3552.081	3610
3553.776	3519
3555.47	3539
3557.166	3591
3558.859	3606
3560.553	3538
3562.245	3540
3563.938	3558
3565.629	3531
3567.322	3556
3569.014	3466
3570.704	3503
3572.394	3548
3574.084	3520
3575.775	3613
3577.464	3508
3579.152	3566
3580.842	3502
3582.529	3496
3584.216	3428
3585.905	3606
3587.591	3472
3589.279	3406
3590.964	3455
3592.649	3550
3594.336	3437
3596.021	3524
3597.705	3405
3599.388	3492
3601.072	3451
3602.757	3484
3604.439	3442
3606.122	3417
3607.803	3487
3609.485	3490
3611.167	3327
3612.849	3305
3614.529	3362
3616.208	3406
3617.888	3273
3619.567	3305
3621.247	3365
3622.926	3335
3624.603	3361
3626.281	3313
3627.958	3364
3629.635	3332
3631.312	3330
3632.989	3405
3634.665	3333
3636.339	3270
3638.014	3313
3639.691	3316
3641.364	3314
3643.038	3256
3644.71	3319
3646.384	3350
3648.058	3321
3649.729	3357
3651.402	3324
3653.073	3228
3654.744	3256
3656.414	3217
3658.085	3266
3659.755	3160
3661.424	3317
3663.094	3321
3664.762	3263
3666.431	3213
3668.099	3297
3669.766	3277
3671.433	3260
3673.099	3255
3674.768	3272
3676.433	3282
3678.098	3249
3679.763	3202
3681.428	3207
3683.093	3207
3684.757	3228
3686.421	3241
3688.083	3219
3689.746	3149
3691.408	3245
3693.071	3199
3694.733	3164
3696.394	3137
3698.054	3219
3699.715	3269
3701.375	3190
3703.036	3177
3704.695	3214
3706.354	3150
3708.012	3140
3709.67	3172
3711.329	3156
3712.987	3176
3714.644	3221
3716.299	3202
3717.955	3243
3719.613	3179
3721.268	3138
3722.923	3186
3724.577	3201
3726.231	3168
3727.885	3158
3729.539	3192
3731.192	3110
3732.845	3084
3734.497	3094
3736.149	3183
3737.802	3148
3739.453	3104
3741.104	3130
3742.753	3083
3744.404	3146
3746.052	3120
3747.704	3113
3749.352	3184
3751	3092
3752.648	3056
3754.296	3089
3755.944	3107
3757.59	3111
3759.238	3089
3760.883	3094
3762.528	3178
3764.176	3065
3765.82	3020
3767.464	3008
3769.109	3102
3770.753	3058
3772.396	3107
3774.04	3134
3775.683	3105
3777.325	3144
3778.967	3059
3780.608	3060
3782.25	3067
3783.89	3043
3785.531	3118
3787.17	3071
3788.81	3028
3790.45	3102
3792.09	3068
3793.729	3057
3795.366	3040
3797.003	2991
3798.64	3048
3800.278	3038
3801.915	3043
3803.551	3080
3805.187	3036
3806.822	3019
3808.458	3010
3810.093	3009
3811.726	3092
3813.36	3051
3814.994	3017
3816.627	2995
3818.262	2989
3819.893	2936
3821.525	3008
3823.157	2989
3824.787	2953
3826.42	2958
3828.051	2957
3829.68	2994
3831.31	3005
3832.938	2993
3834.569	2952
3836.198	3047
3837.825	2974
3839.454	3011
3841.08	2972
3842.708	2986
3844.335	3003
3845.962	2956
3847.587	2907
3849.212	2969
3850.838	2951
3852.463	3017
3854.089	2959
3855.712	2961
3857.335	2934
3858.959	2945
3860.582	2901
3862.205	2963
3863.827	2919
3865.449	2940
3867.07	2833
3868.691	2942
3870.312	2915
3871.933	2880
3873.553	2939
3875.173	2933
3876.792	2856
3878.411	2971
3880.03	2922
3881.647	2924
3883.265	2910
3884.882	2860
3886.499	2794
3888.116	2906
3889.732	2993
3891.348	2841
3892.964	2877
3894.579	2819
3896.195	2889
3897.809	2901
3899.423	2885
3901.036	2866
3902.648	2861
3904.261	2933
3905.875	2862
3907.487	2800
3909.099	2776
3910.709	2948
3912.321	2801
3913.933	2817
3915.542	2906
3917.152	2887
3918.762	2847
3920.37	2808
3921.98	2837
3923.589	2870
3925.196	2822
3926.804	2869
3928.41	2858
3930.018	2803
3931.626	2855
3933.231	2834
3934.838	2793
3936.442	2801
3938.046	2858
3939.653	2853
3941.257	2897
3942.861	2907
3944.464	2781
3946.068	2896
3947.67	2854
3949.273	2833
3950.876	2867
3952.477	2833
3954.078	2795
3955.678	2770
3957.281	2762
3958.881	2858
3960.48	2843
3962.079	2835
3963.678	2767
3965.279	2760
3966.877	2803
3968.475	2761
3970.072	2799
3971.669	2767
3973.266	2914
3974.864	2773
3976.459	2734
3978.055	2787
3979.65	2736
3981.245	2745
3982.841	2705
3984.436	2813
3986.03	2760
3987.623	2772
3989.216	2766
3990.809	2764
3992.403	2687
3993.995	2740
3995.586	2660
3997.177	2688
3998.768	2739
4000.361	2655
4001.951	2742
4003.54	2659
4005.13	2683
4006.719	2657
4008.31	2650
4009.897	2629
4011.485	2672
4013.073	2697
4014.66	2707
4016.247	2644
4017.834	2654
4019.421	2690
4021.006	2643
4022.592	2681
4024.178	2730
4025.763	2657
4027.348	2634
4028.932	2641
4030.515	2652
4032.099	2608
4033.682	2656
4035.266	2655
4036.847	2637
4038.429	2717
4040.011	2663
4041.592	2648
4043.173	2624
4044.755	2615
4046.334	2618
4047.913	2602
4049.494	2614
4051.074	2631
4052.652	2617
4054.23	2524
4055.807	2672
4057.385	2560
4058.963	2608
4060.541	2592
4062.117	2615
4063.693	2508
4065.269	2652
4066.844	2642
4068.42	2645
4069.995	2592
4071.569	2607
4073.143	2608
4074.716	2604
4076.291	2552
4077.864	2542
4079.436	2587
4081.009	2644
4082.58	2588
4084.152	2513
4085.723	2589
4087.294	2622
4088.865	2573
4090.435	2586
4092.005	2530
4093.574	2480
4095.143	2576
4096.712	2489
4098.279	2543
4099.848	2528
4101.416	2553
4102.984	2576
4104.55	2531
4106.117	2575
4107.682	2548
4109.248	2588
4110.815	2534
4112.379	2531
4113.945	2587
4115.508	2555
4117.073	2533
4118.637	2553
4120.201	2539
4121.763	2573
4123.325	2471
4124.888	2499
4126.449	2510
4128.013	2520
4129.573	2537
4131.133	2528
4132.694	2473
4134.254	2527
4135.814	2466
4137.374	2438
4138.933	2492
4140.491	2432
4142.049	2443
4143.607	2431
4145.167	2503
4146.724	2430
4148.28	2499
4149.836	2470
4151.392	2453
4152.949	2478
4154.504	2499
4156.059	2434
4157.614	2420
4159.168	2452
4160.723	2460
4162.277	2458
4163.83	2373
4165.383	2401
4166.936	2482
4168.488	2427
4170.041	2415
4171.593	2422
4173.144	2425
4174.695	2433
4176.246	2438
4177.796	2439
4179.346	2382
4180.896	2379
4182.445	2380
4183.994	2421
4185.542	2319
4187.091	2374
4188.639	2472
4190.185	2432
4191.732	2418
4193.279	2428
4194.826	2357
4196.373	2409
4197.918	2339
4199.463	2374
4201.008	2422
4202.553	2318
4204.098	2261
4205.641	2375
4207.185	2361
4208.728	2361
4210.271	2321
4211.814	2319
4213.357	2347
4214.898	2344
4216.439	2350
4217.98	2285
4219.522	2397
4221.062	2347
4222.603	2351
4224.142	2366
4225.681	2379
4227.222	2345
4228.76	2333
4230.298	2382
4231.835	2355
4233.373	2321
4234.911	2349
4236.449	2351
4237.985	2364
4239.521	2306
4241.057	2346
4242.592	2329
4244.128	2346
4245.663	2378
4247.197	2296
4248.731	2344
4250.265	2282
4251.798	2327
4253.333	2275
4254.865	2287
4256.397	2305
4257.93	2330
4259.461	2368
4260.994	2274
4262.525	2289
4264.056	2285
4265.586	2272
4267.115	2320
4268.646	2259
4270.176	2255
4271.705	2285
4273.232	2300
4274.761	2280
4276.289	2229
4277.818	2301
4279.345	2236
4280.872	2251
4282.399	2255
4283.924	2318
4285.452	2261
4286.976	2247
4288.502	2337
4290.026	2320
4291.551	2291
4293.074	2261
4294.6	2271
4296.123	2216
4297.646	2254
4299.168	2242
4300.691	2153
4302.214	2285
4303.736	2229
4305.257	2298
4306.778	2209
4308.299	2249
4309.82	2223
4311.34	2201
4312.86	2209
4314.379	2273
