400.0745	4416
402.597	4451
405.1208	4488
407.6419	4488
410.1623	4322
412.6819	4432
415.201	4403
417.7172	4513
420.2369	4602
422.7538	4535
425.2701	4572
427.7856	4621
430.3005	4623
432.8147	4660
435.3282	4703
437.841	4751
440.3511	4622
442.8625	4707
445.3753	4724
447.8854	4752
450.3927	4683
452.9014	4742
455.4073	4769
457.9146	4666
460.4233	4675
462.9272	4710
465.4325	4686
467.935	4684
470.4389	4749
472.9421	4835
475.4446	4861
477.9444	4801
480.4456	4733
482.944	4824
485.4417	4933
487.9429	4804
490.4393	4743
492.935	4853
495.4321	4986
497.9264	4927
500.4221	4991
502.9171	4939
505.4094	4869
507.9011	4860
510.392	4955
512.8864	4951
515.3759	4934
517.8649	4967
520.3531	4950
522.8406	5029
525.3275	5031
527.8178	4974
530.3033	5012
532.7881	4922
535.2723	4941
537.7558	5073
540.2407	4994
542.7228	5016
545.2043	4978
547.6851	4921
550.1652	4980
552.6467	4944
555.1255	5007
557.6016	5028
560.079	4975
562.5557	5101
565.0318	4970
567.5092	5070
569.984	5043
572.456	4996
574.9294	5126
577.4022	5191
579.8762	5202
582.3456	5206
584.8163	5120
587.2863	5227
589.7557	5170
592.2224	5156
594.6924	5181
597.1578	5130
599.6245	5153
602.0905	5152
604.5538	5142
607.0206	5144
609.4825	5178
611.9459	5185
614.4066	5158
616.8686	5166
619.33	5234
621.7906	5190
624.2487	5181
626.708	5103
629.1647	5089
631.6207	5189
634.0801	5129
636.5348	5098
638.9888	5175
641.4442	5090
643.8969	5275
646.3509	5209
648.8022	5220
651.255	5224
653.705	5178
656.1544	5326
658.6031	5235
661.0532	5251
663.5026	5220
665.9493	5358
668.3954	5373
670.8409	5291
673.2877	5287
675.7318	5262
678.1752	5428
680.618	5337
683.0601	5351
685.5035	5368
687.9444	5404
690.3845	5384
692.824	5421
695.2628	5363
697.701	5356
700.1406	5397
702.5774	5382
705.0116	5401
707.4472	5408
709.8821	5381
712.3183	5450
714.7519	5500
717.1829	5435
719.6151	5537
722.0468	5575
724.4777	5478
726.908	5535
729.3377	5547
731.7667	5573
734.1931	5590
736.6208	5693
739.0498	5490
741.4742	5589
743.9	5649
746.3231	5735
748.7476	5726
751.1713	5694
753.5945	5760
756.015	5611
758.4368	5723
760.856	5734
763.2766	5728
765.6965	5804
768.1157	5718
770.5323	5653
772.9483	5809
775.3656	5771
777.7822	5752
780.1963	5761
782.6116	5718
785.0244	5768
787.4365	5765
789.8499	5727
792.2626	5781
794.6728	5695
797.0823	5884
799.4911	5867
801.8994	5757
804.3109	5779
806.7178	5815
809.124	5886
811.5297	5874
813.9347	5786
816.341	5838
818.7447	5860
821.1478	5915
823.5502	5952
825.952	5830
828.3531	5787
830.7556	5760
833.1554	5828
835.5546	5878
837.9532	5917
840.3511	5909
842.7504	5761
845.1451	5936
847.5411	5924
849.9365	5842
852.3312	5862
854.7272	5881
857.1187	5959
859.5115	5945
861.9037	5902
864.2952	5915
866.6842	5948
869.0764	5936
871.4661	5885
873.8531	5896
876.2415	5939
878.6272	5902
881.0162	5875
883.4026	6035
885.7866	5788
888.1717	5920
890.5543	5908
892.9382	5915
895.3215	5923
897.7041	5923
900.0842	5809
902.4655	5955
904.8443	5994
907.2244	5938
909.6039	5951
911.9808	5957
914.357	6032
916.7346	6036
919.1115	6084
921.4859	6082
923.8616	6109
926.2347	6096
928.6071	6130
930.979	6096
933.3541	6157
935.7247	6178
938.0946	6006
940.4639	6396
942.8326	6242
945.2026	6284
947.5701	6313
949.9369	6359
952.305	6629
954.6705	6712
957.0355	6836
959.4017	6972
961.7654	6944
964.1284	6930
966.4908	6732
968.8527	6686
971.2138	6546
973.5743	6402
975.9343	6262
978.2936	6235
980.6522	6201
983.0122	6125
985.3696	6143
987.7245	6116
990.0807	6155
992.4362	6083
994.7911	6094
997.1474	6001
999.4991	6261
1001.852	6119
1004.205	6192
1006.555	6116
1008.908	6232
1011.258	6163
1013.606	6135
1015.956	6164
1018.302	6185
1020.652	6245
1022.998	6125
1025.345	6124
1027.691	6186
1030.035	6164
1032.378	6249
1034.724	6300
1037.066	6128
1039.409	6257
1041.75	6200
1044.092	6304
1046.433	6273
1048.771	6271
1051.112	6202
1053.449	6182
1055.786	6360
1058.124	6214
1060.462	6300
1062.797	6216
1065.131	6274
1067.467	6323
1069.8	6282
1072.135	6351
1074.467	6253
1076.798	6290
1079.129	6306
1081.459	6228
1083.792	6260
1086.121	6323
1088.449	6207
1090.777	6250
1093.104	6223
1095.431	6227
1097.759	6131
1100.084	6245
1102.408	6275
1104.732	6323
1107.056	6308
1109.379	6286
1111.701	6261
1114.022	6302
1116.343	6234
1118.664	6243
1120.983	6238
1123.303	6361
1125.621	6278
1127.939	6520
1130.256	6344
1132.573	6348
1134.889	6297
1137.205	6400
1139.52	6342
1141.832	6266
1144.146	6236
1146.461	6383
1148.771	6392
1151.083	6347
1153.392	6309
1155.703	6368
1158.011	6335
1160.323	6320
1162.629	6395
1164.938	6273
1167.243	6354
1169.55	6479
1171.857	6457
1174.163	6346
1176.466	6232
1178.769	6295
1181.073	6444
1183.374	6364
1185.677	6342
1187.979	6415
1190.279	6405
1192.578	6311
1194.878	6253
1197.178	6182
1199.476	6379
1201.772	6484
1204.068	6365
1206.366	6308
1208.663	6337
1210.957	6355
1213.251	6365
1215.544	6388
1217.836	6403
1220.128	6448
1222.421	6338
1224.712	6338
1227.002	6401
1229.292	6462
1231.581	6295
1233.871	6460
1236.159	6511
1238.446	6442
1240.732	6513
1243.018	6457
1245.304	6506
1247.59	6603
1249.874	6514
1252.156	6369
1254.439	6444
1256.721	6582
1259.005	6566
1261.286	6526
1263.565	6477
1265.845	6637
1268.125	6499
1270.403	6557
1272.682	6569
1274.959	6594
1277.234	6517
1279.511	6450
1281.787	6558
1284.062	6499
1286.337	6474
1288.609	6430
1290.882	6536
1293.153	6425
1295.428	6502
1297.698	6363
1299.969	6514
1302.237	6416
1304.507	6448
1306.777	6488
1309.044	6488
1311.312	6476
1313.578	6481
1315.844	6378
1318.109	6488
1320.375	6328
1322.638	6408
1324.903	6502
1327.165	6417
1329.427	6448
1331.69	6539
1333.952	6414
1336.212	6466
1338.471	6512
1340.73	6539
1342.988	6447
1345.248	6549
1347.505	6498
1349.763	6426
1352.019	6491
1354.274	6514
1356.53	6444
1358.784	6490
1361.038	6551
1363.291	6506
1365.543	6392
1367.797	6518
1370.048	6447
1372.296	6549
1374.546	6457
1376.796	6565
1379.045	6498
1381.295	6516
1383.542	6425
1385.787	6513
1388.034	6549
1390.28	6521
1392.527	6543
1394.772	6488
1397.014	6575
1399.258	6478
1401.501	6447
1403.741	6575
1405.985	6563
1408.226	6399
1410.465	6509
1412.705	6674
1414.943	6553
1417.184	6492
1419.42	6706
1421.658	6675
1423.894	6651
1426.13	6501
1428.366	6599
1430.602	6656
1432.835	6692
1435.069	6703
1437.301	6644
1439.535	6668
1441.767	6725
1443.997	6752
1446.229	6648
1448.458	6770
1450.687	6641
1452.916	6678
1455.146	6818
1457.372	6653
1459.599	6686
1461.824	6703
1464.051	6780
1466.277	6667
1468.501	6789
1470.725	6625
1472.948	6592
1475.17	6637
1477.393	6660
1479.614	6610
1481.837	6588
1484.057	6522
1486.276	6740
1488.497	6614
1490.715	6577
1492.932	6600
1495.148	6486
1497.364	6463
1499.58	6537
1501.798	6525
1504.012	6625
1506.227	6523
1508.44	6607
1510.653	6483
1512.866	6465
1515.078	6333
1517.289	6506
1519.5	6384
1521.711	6478
1523.92	6540
1526.13	6474
1528.338	6509
1530.544	6366
1532.752	6442
1534.959	6478
1537.165	6443
1539.371	6450
1541.574	6504
1543.779	6353
1545.983	6529
1548.187	6482
1550.39	6544
1552.59	6508
1554.792	6611
1556.991	6597
1559.19	6626
1561.392	6511
1563.59	6558
1565.789	6574
1567.986	6664
1570.182	6599
1572.381	6630
1574.576	6654
1576.771	6560
1578.966	6612
1581.16	6648
1583.354	6608
1585.546	6714
1587.74	6723
1589.931	6704
1592.121	6660
1594.311	6705
1596.502	6679
1598.693	6678
1600.881	6660
1603.069	6676
1605.256	6730
1607.445	6641
1609.631	6654
1611.816	6657
1614.001	6770
1616.186	6713
1618.37	6828
1620.555	6683
1622.737	6744
1624.919	6713
1627.101	6713
1629.282	6787
1631.463	6604
1633.643	6677
1635.822	6775
1638.001	6759
1640.179	6834
1642.359	6841
1644.534	6789
1646.711	6710
1648.887	6780
1651.062	6771
1653.235	6836
1655.412	6741
1657.586	6622
1659.757	6785
1661.93	6799
1664.1	6837
1666.274	6752
1668.445	6769
1670.614	6654
1672.784	6863
1674.951	6744
1677.12	6736
1679.289	6841
1681.457	6788
1683.622	6797
1685.789	6872
1687.953	6837
1690.121	6722
1692.284	6745
1694.447	6712
1696.611	6780
1698.772	6807
1700.935	6636
1703.098	6666
1705.258	6650
1707.417	6708
1709.576	6824
1711.736	6589
1713.896	6668
1716.053	6715
1718.21	6754
1720.366	6654
1722.522	6694
1724.68	6735
1726.835	6578
1728.989	6768
1731.142	6724
1733.295	6682
1735.449	6704
1737.601	6726
1739.753	6774
1741.903	6767
1744.054	6663
1746.203	6714
1748.354	6701
1750.503	6797
1752.651	6725
1754.798	6694
1756.944	6737
1759.092	6661
1761.238	6610
1763.383	6641
1765.528	6806
1767.672	6731
1769.814	6686
1771.959	6777
1774.102	6700
1776.242	6685
1778.384	6854
1780.525	6776
1782.665	6895
1784.805	6788
1786.945	6733
1789.082	6703
1791.22	6678
1793.36	6725
1795.495	6803
1797.632	6670
1799.766	6740
1801.902	6703
1804.035	6886
1806.172	6810
1808.304	6649
1810.436	6819
1812.569	6677
1814.699	6864
1816.833	6693
1818.963	6658
1821.092	6644
1823.222	6733
1825.35	6826
1827.478	6812
1829.608	6735
1831.734	6765
1833.86	6702
1835.986	6673
1838.11	6679
1840.238	6727
1842.362	6642
1844.485	6705
1846.608	6656
1848.73	6719
1850.853	6626
1852.974	6711
1855.097	6719
1857.217	6717
1859.336	6706
1861.455	6679
1863.576	6718
1865.693	6535
1867.811	6670
1869.926	6656
1872.042	6659
1874.16	6635
1876.275	6716
1878.39	6693
1880.504	6701
1882.618	6581
1884.731	6656
1886.843	6641
1888.956	6777
1891.067	6794
1893.178	6748
1895.287	6704
1897.399	6748
1899.508	6772
1901.617	6720
1903.724	6681
1905.832	6804
1907.941	6826
1910.046	6774
1912.152	6615
1914.256	6812
1916.361	6723
1918.464	6699
1920.57	6685
1922.672	6746
1924.775	6710
1926.876	6817
1928.978	6754
1931.08	6783
1933.181	6739
1935.28	6769
1937.38	6851
1939.478	6780
1941.577	6882
1943.675	6797
1945.771	6865
1947.867	6802
1949.964	6840
1952.058	6891
1954.154	6845
1956.248	6748
1958.343	6565
1960.435	6749
1962.527	6742
1964.62	6711
1966.711	6767
1968.802	6787
1970.892	6664
1972.983	6676
1975.072	6796
1977.162	6717
1979.25	6718
1981.337	6688
1983.424	6717
1985.51	6790
1987.598	6708
1989.683	6685
1991.768	6670
1993.852	6756
1995.934	6715
1998.019	6652
2000.102	6712
2002.184	6733
2004.266	6777
2006.347	6828
2008.427	6616
2010.508	6741
2012.587	6572
2014.666	6831
2016.745	6715
2018.821	6678
2020.9	6673
2022.977	6677
2025.052	6642
2027.128	6713
2029.204	6759
2031.277	6638
2033.353	6708
2035.425	6603
2037.499	6773
2039.57	6692
2041.642	6748
2043.714	6666
2045.786	6694
2047.855	6672
2049.925	6717
2051.993	6777
2054.064	6637
2056.132	6775
2058.2	6714
2060.266	6679
2062.332	6644
2064.398	6702
2066.465	6720
2068.529	6781
2070.592	6735
2072.657	6696
2074.719	6813
2076.783	6687
2078.845	6690
2080.907	6671
2082.968	6826
2085.028	6672
2087.087	6677
2089.148	6727
2091.207	6599
2093.264	6755
2095.322	6769
2097.379	6582
2099.439	6659
2101.495	6590
2103.55	6542
2105.605	6726
2107.658	6717
2109.713	6673
2111.767	6665
2113.82	6611
2115.872	6745
2117.924	6607
2119.975	6715
2122.028	6659
2124.078	6747
2126.126	6603
2128.176	6619
2130.225	6686
2132.275	6581
2134.321	6709
2136.368	6675
2138.415	6743
2140.461	6696
2142.505	6652
2144.552	6673
2146.597	6728
2148.64	6708
2150.684	6514
2152.725	6624
2154.77	6563
2156.811	6644
2158.852	6641
2160.894	6639
2162.933	6551
2164.973	6621
2167.013	6624
2169.051	6467
2171.089	6602
2173.126	6589
2175.164	6442
2177.201	6516
2179.236	6451
2181.273	6512
2183.307	6454
2185.341	6475
2187.377	6505
2189.41	6428
2191.442	6488
2193.473	6650
2195.506	6448
2197.539	6452
2199.569	6479
2201.598	6465
2203.628	6545
2205.656	6433
2207.686	6476
2209.716	6390
2211.743	6611
2213.769	6533
2215.796	6440
2217.821	6496
2219.848	6437
2221.873	6441
2223.897	6414
2225.921	6527
2227.944	6503
2229.967	6481
2231.991	6402
2234.011	6500
2236.032	6517
2238.053	6511
2240.073	6496
2242.094	6471
2244.114	6405
2246.131	6538
2248.149	6478
2250.167	6533
2252.186	6487
2254.201	6462
2256.218	6550
2258.233	6472
2260.247	6414
2262.262	6391
2264.278	6328
2266.29	6381
2268.303	6486
2270.315	6430
2272.327	6395
2274.341	6394
2276.35	6493
2278.361	6510
2280.37	6465
2282.38	6465
2284.388	6482
2286.397	6421
2288.405	6404
2290.412	6475
2292.419	6480
2294.425	6334
2296.431	6404
2298.437	6392
2300.441	6394
2302.445	6525
2304.449	6449
2306.453	6469
2308.455	6471
2310.457	6399
2312.459	6496
2314.46	6438
2316.46	6438
2318.461	6464
2320.46	6359
2322.458	6290
2324.458	6354
2326.456	6318
2328.455	6330
2330.451	6391
2332.447	6415
2334.443	6277
2336.438	6336
2338.433	6410
2340.429	6363
2342.422	6445
2344.416	6343
2346.408	6322
2348.399	6324
2350.393	6306
2352.384	6299
2354.375	6312
2356.365	6298
2358.355	6342
2360.344	6206
2362.333	6167
2364.322	6261
2366.309	6269
2368.295	6367
2370.282	6211
2372.27	6143
2374.256	6168
2376.24	6380
2378.225	6240
2380.208	6307
2382.194	6200
2384.177	6264
2386.159	6254
2388.142	6089
2390.122	6270
2392.105	6246
2394.085	6170
2396.066	6254
2398.044	6159
2400.024	6197
2402.002	6130
2403.982	6144
2405.959	6187
2407.935	6149
2409.913	6197
2411.888	6268
2413.865	6177
2415.84	6202
2417.814	6292
2419.788	6207
2421.762	6191
2423.735	6172
2425.708	6154
2427.68	6100
2429.651	6255
2431.623	6189
2433.593	6116
2435.564	6189
2437.533	6209
2439.502	6225
2441.47	6180
2443.438	6140
2445.406	6103
2447.373	6146
2449.34	6282
2451.305	6257
2453.271	6228
2455.235	6208
2457.201	6181
2459.165	6159
2461.129	6165
2463.092	6204
2465.054	6216
2467.018	6282
2468.978	6183
2470.939	6105
2472.899	6156
2474.86	6089
2476.819	6094
2478.778	6035
2480.737	6264
2482.695	6108
2484.653	6052
2486.609	6061
2488.567	6079
2490.524	6149
2492.478	6084
2494.433	6133
2496.387	6066
2498.343	6061
2500.297	6072
2502.249	6179
2504.202	6063
2506.153	6188
2508.105	6129
2510.057	6122
2512.008	6064
2513.957	5949
2515.906	6134
2517.855	6029
2519.805	6058
2521.754	6009
2523.7	6124
2525.647	6046
2527.594	6045
2529.54	5952
2531.486	6096
2533.431	5967
2535.376	6022
2537.32	5918
2539.263	6064
2541.207	6076
2543.151	6011
2545.093	6048
2547.034	5966
2548.975	6073
2550.917	6111
2552.856	6048
2554.796	6018
2556.735	6045
2558.673	6006
2560.611	6012
2562.55	5948
2564.487	6138
2566.424	6023
2568.36	5928
2570.296	6010
2572.232	6016
2574.167	6051
2576.101	5909
2578.035	5915
2579.969	6002
2581.902	6071
2583.834	5970
2585.766	5987
2587.698	6134
2589.628	5960
2591.557	6021
2593.489	5966
2595.419	6021
2597.348	5970
2599.275	6010
2601.204	6135
2603.131	5971
2605.059	6029
2606.986	6033
2608.911	6073
2610.837	6010
2612.76	6012
2614.687	6073
2616.61	5965
2618.534	6023
2620.457	6044
2622.38	5997
2624.302	5943
2626.225	5977
2628.145	5995
2630.067	6141
2631.986	5964
2633.906	6072
2635.827	5951
2637.745	6025
2639.662	6009
2641.581	6004
2643.498	6090
2645.415	5994
2647.331	6092
2649.248	6018
2651.163	6017
2653.077	6080
2654.993	6008
2656.906	6058
2658.821	6101
2660.733	5909
2662.646	6021
2664.557	6011
2666.47	6036
2668.381	6013
2670.291	5933
2672.201	6044
2674.11	5960
2676.021	6031
2677.929	6003
2679.837	5970
2681.745	6003
2683.652	5938
2685.56	6001
2687.466	5947
2689.371	6003
2691.276	5898
2693.181	5928
2695.085	5862
2696.991	5828
2698.893	5950
2700.796	6007
2702.698	5891
2704.601	5953
2706.502	5831
2708.404	5895
2710.304	5841
2712.203	5847
2714.103	5886
2716.003	5896
2717.902	5911
2719.8	5853
2721.697	5971
2723.594	5953
2725.49	5914
2727.389	5869
2729.283	5908
2731.179	5821
2733.073	5892
2734.968	5912
2736.863	5868
2738.757	5786
2740.649	5868
2742.541	5888
2744.433	5836
2746.324	5850
2748.216	5811
2750.107	5885
2751.997	5952
2753.886	5827
2755.776	5941
2757.666	5903
2759.553	5841
2761.44	6000
2763.327	5747
2765.215	5797
2767.102	5810
2768.988	5924
2770.873	5762
2772.757	5848
2774.641	5738
2776.525	5827
2778.41	5767
2780.292	5750
2782.175	5818
2784.057	5782
2785.938	5768
2787.821	5830
2789.701	5795
2791.581	5795
2793.461	5663
2795.34	5808
2797.219	5773
2799.099	5784
2800.975	5747
2802.853	5783
2804.73	5823
2806.606	5720
2808.484	5774
2810.358	5713
2812.233	5761
2814.108	5645
2815.981	5716
2817.857	5734
2819.73	5695
2821.602	5761
2823.474	5752
2825.346	5696
2827.217	5724
2829.089	5634
2830.959	5721
2832.829	5676
2834.698	5727
2836.567	5688
2838.436	5733
2840.305	5653
2842.172	5652
2844.04	5690
2845.905	5631
2847.772	5670
2849.639	5768
2851.503	5649
2853.369	5659
2855.232	5720
2857.096	5680
2858.961	5757
2860.824	5723
2862.686	5808
2864.547	5794
2866.41	5810
2868.272	5891
2870.132	5765
2871.992	5812
2873.851	5887
2875.711	5810
2877.57	5964
2879.429	5834
2881.287	5904
2883.144	5997
2885.001	5972
2886.857	5846
2888.714	5969
2890.57	5931
2892.425	5979
2894.279	5889
2896.133	5947
2897.987	5986
2899.842	5931
2901.694	5926
2903.547	5981
2905.397	5787
2907.249	5904
2909.101	5942
2910.952	5905
2912.802	6045
2914.652	5949
2916.5	5944
2918.35	6037
2920.198	6084
2922.045	6120
2923.893	6039
2925.74	6143
2927.585	6080
2929.433	6107
2931.279	6210
2933.123	6214
2934.968	6248
2936.811	6319
2938.656	6316
2940.5	6326
2942.342	6286
2944.185	6350
2946.026	6390
2947.87	6363
2949.71	6355
2951.549	6265
2953.39	6250
2955.229	6215
2957.069	6211
2958.908	6206
2960.746	6209
2962.584	6139
2964.421	6103
2966.257	6139
2968.094	5936
2969.931	6062
2971.766	5944
2973.601	6020
2975.435	5939
2977.27	6017
2979.105	5911
2980.938	5905
2982.77	5885
2984.602	5876
2986.434	5873
2988.267	5681
2990.097	5809
2991.927	5814
2993.757	5733
2995.587	5782
2997.417	5733
2999.246	5651
3001.074	5673
3002.902	5640
3004.729	5537
3006.556	5604
3008.384	5563
3010.21	5617
3012.036	5553
3013.861	5537
3015.684	5496
3017.51	5458
3019.334	5391
3021.157	5488
3022.981	5548
3024.802	5400
3026.624	5434
3028.448	5398
3030.267	5395
3032.088	5328
3033.909	5322
3035.728	5379
3037.549	5449
3039.368	5317
3041.186	5295
3043.004	5315
3044.821	5397
3046.64	5345
3048.455	5400
3050.272	5315
3052.087	5376
3053.903	5448
3055.717	5280
3057.534	5321
3059.347	5309
3061.16	5399
3062.974	5327
3064.785	5369
3066.598	5269
3068.411	5411
3070.222	5274
3072.032	5399
3073.844	5333
3075.653	5365
3077.463	5313
3079.272	5223
3081.08	5187
3082.889	5336
3084.697	5199
3086.505	5169
3088.312	5183
3090.118	5250
3091.924	5222
3093.729	5293
3095.535	5086
3097.34	5155
3099.144	5215
3100.947	5134
3102.75	5188
3104.553	5134
3106.357	5236
3108.159	5171
3109.961	5129
3111.762	5109
3113.562	5104
3115.365	5076
3117.164	5080
3118.964	5182
3120.761	5136
3122.56	5094
3124.36	5046
3126.158	5123
3127.954	5058
3129.75	5022
3131.547	5154
3133.343	4947
3135.139	5063
3136.934	5078
3138.729	5021
3140.522	5105
3142.317	5014
3144.11	5052
3145.904	5077
3147.695	5013
3149.488	5043
3151.28	5012
3153.07	5094
3154.863	4976
3156.652	5061
3158.441	4911
3160.231	5049
3162.019	5100
3163.81	4954
3165.597	5045
3167.384	5028
3169.172	5015
3170.958	4987
3172.745	4903
3174.532	4995
3176.317	4969
3178.101	4909
3179.885	4897
3181.67	4930
3183.455	4959
3185.238	4883
3187.02	4882
3188.802	4911
3190.585	4869
3192.368	4963
3194.149	4936
3195.929	4943
3197.709	4920
3199.489	4943
3201.268	4956
3203.048	4810
3204.826	4791
3206.604	4889
3208.382	4985
3210.159	4902
3211.937	4881
3213.713	4888
3215.489	4933
3217.263	4810
3219.038	4843
3220.815	4863
3222.589	4808
3224.363	4901
3226.136	4885
3227.908	4805
3229.681	4829
3231.454	4783
3233.226	4910
3234.996	4860
3236.767	4846
3238.538	4925
3240.308	4890
3242.078	4794
3243.847	4910
3245.615	4923
3247.384	4862
3249.15	4879
3250.92	4789
3252.686	4887
3254.453	4766
3256.218	4803
3257.984	4916
3259.75	4870
3261.515	4816
3263.279	4935
3265.044	4830
3266.806	4792
3268.57	4765
3270.334	4901
3272.095	4816
3273.856	4811
3275.619	4881
3277.379	4793
3279.14	4912
3280.9	4826
3282.661	4778
3284.419	4845
3286.178	4899
3287.937	4858
3289.695	4817
3291.453	4827
3293.21	4932
3294.967	4857
3296.723	4867
3298.48	4910
3300.235	4801
3301.99	4863
3303.744	4754
3305.498	4826
3307.253	4846
3309.006	4786
3310.759	4752
3312.511	4805
3314.263	4849
3316.017	4807
3317.768	4761
3319.519	4836
3321.268	4758
3323.018	4812
3324.767	4741
3326.518	4887
3328.267	4821
3330.014	4830
3331.762	4760
3333.509	4816
3335.258	4835
3337.003	4787
3338.75	4787
3340.496	4743
3342.24	4773
3343.987	4817
3345.732	4710
3347.475	4809
3349.219	4761
3350.961	4775
3352.705	4633
3354.448	4806
3356.19	4728
3357.931	4764
3359.672	4628
3361.412	4793
3363.155	4705
3364.894	4674
3366.633	4681
3368.372	4749
3370.11	4666
3371.849	4693
3373.588	4710
3375.325	4650
3377.061	4628
3378.799	4617
3380.534	4676
3382.271	4726
3384.006	4730
3385.741	4622
3387.475	4654
3389.209	4657
3390.944	4700
3392.677	4626
3394.409	4633
3396.143	4664
3397.874	4706
3399.606	4570
3401.338	4537
3403.069	4666
3404.799	4627
3406.528	4692
3408.258	4576
3409.988	4646
3411.717	4635
3413.445	4562
3415.173	4647
3416.899	4618
3418.626	4524
3420.354	4611
3422.08	4514
3423.806	4670
3425.531	4602
3427.255	4631
3428.981	4603
3430.705	4513
3432.429	4608
3434.151	4499
3435.875	4535
3437.599	4639
3439.321	4567
3441.042	4517
3442.763	4439
3444.483	4545
3446.204	4430
3447.926	4485
3449.645	4478
3451.364	4504
3453.082	4589
3454.801	4499
3456.52	4487
3458.238	4515
3459.954	4488
3461.671	4456
3463.387	4466
3465.104	4522
3466.82	4391
3468.534	4475
3470.25	4417
3471.963	4318
3473.676	4391
3475.392	4378
3477.104	4377
3478.817	4405
3480.528	4420
3482.241	4442
3483.954	4382
3485.664	4420
3487.374	4399
3489.084	4376
3490.795	4393
3492.504	4329
3494.214	4335
3495.922	4387
3497.63	4285
3499.338	4306
3501.045	4349
3502.753	4286
3504.459	4386
3506.166	4383
3507.871	4299
3509.576	4266
3511.283	4297
3512.987	4287
3514.691	4227
3516.395	4228
3518.098	4305
3519.8	4379
3521.504	4222
3523.206	4358
3524.908	4269
3526.609	4235
3528.309	4214
3530.011	4322
3531.711	4358
3533.411	4270
3535.109	4218
3536.808	4277
3538.507	4292
3540.206	4179
3541.904	4250
3543.601	4192
3545.297	4205
3546.994	4276
3548.69	4248
3550.387	4208
3552.081	4125
3553.776	4205
3555.47	4161
3557.166	4174
3558.859	4202
3560.553	4215
3562.245	4213
3563.938	4188
3565.629	4186
3567.322	4140
3569.014	4146
3570.704	4158
3572.394	4159
3574.084	4230
3575.775	4141
3577.464	4118
3579.152	4144
3580.842	4173
3582.529	4147
3584.216	4192
3585.905	4184
3587.591	4218
3589.279	4053
3590.964	4032
3592.649	4118
3594.336	4104
3596.021	4067
3597.705	4063
3599.388	4129
3601.072	4228
3602.757	4085
3604.439	4028
3606.122	4032
3607.803	4110
3609.485	4074
3611.167	4057
3612.849	4047
3614.529	4060
3616.208	4002
3617.888	3996
3619.567	4089
3621.247	4101
3622.926	3979
3624.603	4012
3626.281	3993
3627.958	4078
3629.635	3937
3631.312	4063
3632.989	3918
3634.665	3993
3636.339	4001
3638.014	3991
3639.691	3935
3641.364	3994
3643.038	3883
3644.71	3920
3646.384	3936
3648.058	3939
3649.729	3974
3651.402	3850
3653.073	3923
3654.744	3911
3656.414	3925
3658.085	3885
3659.755	3862
3661.424	3959
3663.094	3885
3664.762	3956
3666.431	3858
3668.099	3837
3669.766	3865
3671.433	3923
3673.099	3915
3674.768	3915
3676.433	3921
3678.098	3882
3679.763	3864
3681.428	3873
3683.093	3836
3684.757	3868
3686.421	3942
3688.083	3854
3689.746	3847
3691.408	3880
3693.071	3856
3694.733	3856
3696.394	3802
3698.054	3874
3699.715	3863
3701.375	3883
3703.036	3864
3704.695	3695
3706.354	3771
3708.012	3814
3709.67	3779
3711.329	3773
3712.987	3860
3714.644	3782
3716.299	3822
3717.955	3836
3719.613	3751
3721.268	3782
3722.923	3754
3724.577	3794
3726.231	3843
3727.885	3720
3729.539	3919
3731.192	3731
3732.845	3784
3734.497	3707
3736.149	3766
3737.802	3855
3739.453	3746
3741.104	3705
3742.753	3786
3744.404	3785
3746.052	3774
3747.704	3659
3749.352	3758
3751	3804
3752.648	3682
3754.296	3719
3755.944	3825
3757.59	3601
3759.238	3774
3760.883	3774
3762.528	3676
3764.176	3702
3765.82	3743
3767.464	3714
3769.109	3714
3770.753	3793
3772.396	3656
3774.04	3672
3775.683	3673
3777.325	3651
3778.967	3715
3780.608	3734
3782.25	3634
3783.89	3664
3785.531	3691
3787.17	3709
3788.81	3678
3790.45	3645
3792.09	3708
3793.729	3632
3795.366	3622
3797.003	3692
3798.64	3663
3800.278	3655
3801.915	3601
3803.551	3633
3805.187	3622
3806.822	3521
3808.458	3520
3810.093	3588
3811.726	3561
3813.36	3621
3814.994	3652
3816.627	3537
3818.262	3563
3819.893	3652
3821.525	3600
3823.157	3590
3824.787	3458
3826.42	3611
3828.051	3534
3829.68	3529
3831.31	3555
3832.938	3522
3834.569	3532
3836.198	3510
3837.825	3496
3839.454	3531
3841.08	3515
3842.708	3563
3844.335	3558
3845.962	3565
3847.587	3500
3849.212	3539
3850.838	3548
3852.463	3479
3854.089	3468
3855.712	3465
3857.335	3503
3858.959	3502
3860.582	3431
3862.205	3422
3863.827	3412
3865.449	3499
3867.07	3470
3868.691	3493
3870.312	3530
3871.933	3548
3873.553	3420
3875.173	3515
3876.792	3416
3878.411	3463
3880.03	3544
3881.647	3534
3883.265	3427
3884.882	3453
3886.499	3429
3888.116	3416
3889.732	3423
3891.348	3468
3892.964	3451
3894.579	3466
3896.195	3476
3897.809	3368
3899.423	3435
3901.036	3414
3902.648	3489
3904.261	3420
3905.875	3386
3907.487	3462
3909.099	3369
3910.709	3417
3912.321	3412
3913.933	3405
3915.542	3392
3917.152	3345
3918.762	3468
3920.37	3352
3921.98	3437
3923.589	3405
3925.196	3402
3926.804	3382
3928.41	3402
3930.018	3481
3931.626	3404
3933.231	3407
3934.838	3463
3936.442	3306
3938.046	3435
3939.653	3336
3941.257	3388
3942.861	3452
3944.464	3383
3946.068	3393
3947.67	3329
3949.273	3413
3950.876	3403
3952.477	3379
3954.078	3323
3955.678	3342
3957.281	3358
3958.881	3350
3960.48	3369
3962.079	3361
3963.678	3305
3965.279	3235
3966.877	3383
3968.475	3366
3970.072	3311
3971.669	3281
3973.266	3300
3974.864	3319
3976.459	3181
3978.055	3318
3979.65	3387
3981.245	3218
3982.841	3298
3984.436	3223
3986.03	3249
3987.623	3316
3989.216	3328
3990.809	3305
3992.403	3236
3993.995	3235
3995.586	3203
3997.177	3254
3998.768	3222
4000.361	3234
4001.951	3236
4003.54	3241
4005.13	3199
4006.719	3226
4008.31	3217
4009.897	3162
4011.485	3247
4013.073	3224
4014.66	3166
4016.247	3120
4017.834	3151
4019.421	3219
4021.006	3261
4022.592	3151
4024.178	3179
4025.763	3203
4027.348	3176
4028.932	3121
4030.515	3140
4032.099	3121
4033.682	3222
4035.266	3159
4036.847	3086
4038.429	3098
4040.011	3118
4041.592	3076
4043.173	3085
4044.755	3129
4046.334	3105
4047.913	3102
4049.494	3055
4051.074	3053
4052.652	3169
4054.23	3077
4055.807	3036
4057.385	3093
4058.963	3109
4060.541	3120
4062.117	3154
4063.693	3099
4065.269	3086
4066.844	3038
4068.42	3003
4069.995	3150
4071.569	3069
4073.143	3060
4074.716	3000
4076.291	3085
4077.864	3031
4079.436	2990
4081.009	3046
4082.58	3019
4084.152	3014
4085.723	3043
4087.294	3017
4088.865	3083
4090.435	2977
4092.005	3026
4093.574	2953
4095.143	3005
4096.712	3001
4098.279	3046
4099.848	2997
4101.416	3052
4102.984	3022
4104.55	2999
4106.117	3007
4107.682	2957
4109.248	2970
4110.815	3027
4112.379	3057
4113.945	3002
4115.508	2920
4117.073	3024
4118.637	2993
4120.201	2973
4121.763	3026
4123.325	2943
4124.888	2973
4126.449	2972
4128.013	2940
4129.573	2964
4131.133	2942
4132.694	3001
4134.254	2922
4135.814	2891
4137.374	2930
4138.933	2862
4140.491	2955
4142.049	2889
4143.607	2917
4145.167	2927
4146.724	2894
4148.28	2905
4149.836	2867
4151.392	2935
4152.949	2847
4154.504	2854
4156.059	2869
4157.614	2923
4159.168	2926
4160.723	2881
4162.277	2865
4163.83	2954
4165.383	2871
4166.936	2880
4168.488	2929
4170.041	2796
4171.593	2789
4173.144	2864
4174.695	2862
4176.246	2818
4177.796	2793
4179.346	2850
4180.896	2858
4182.445	2783
4183.994	2870
4185.542	2828
4187.091	2780
4188.639	2835
4190.185	2841
4191.732	2729
4193.279	2787
4194.826	2874
4196.373	2832
4197.918	2819
4199.463	2812
4201.008	2824
4202.553	2819
4204.098	2748
4205.641	2802
4207.185	2752
4208.728	2765
4210.271	2739
4211.814	2790
4213.357	2833
4214.898	2794
4216.439	2711
4217.98	2754
4219.522	2828
4221.062	2820
4222.603	2755
4224.142	2687
4225.681	2769
4227.222	2738
4228.76	2778
4230.298	2700
4231.835	2681
4233.373	2804
4234.911	2739
4236.449	2747
4237.985	2723
4239.521	2741
4241.057	2793
4242.592	2720
4244.128	2776
4245.663	2688
4247.197	2764
4248.731	2746
4250.265	2788
4251.798	2717
4253.333	2716
4254.865	2679
4256.397	2646
4257.93	2696
4259.461	2678
4260.994	2702
4262.525	2671
4264.056	2700
4265.586	2650
4267.115	2750
4268.646	2733
4270.176	2709
4271.705	2689
4273.232	2702
4274.761	2689
4276.289	2614
4277.818	2655
4279.345	2695
4280.872	2675
4282.399	2654
4283.924	2659
4285.452	2669
4286.976	2665
4288.502	2669
4290.026	2729
4291.551	2611
4293.074	2651
4294.6	2640
4296.123	2654
4297.646	2681
4299.168	2620
4300.691	2661
4302.214	2643
4303.736	2609
4305.257	2639
4306.778	2609
4308.299	2629
4309.82	2628
4311.34	2579
4312.86	2655
4314.379	2613
