400.0745	5392
402.597	5425
405.1208	5438
407.6419	5504
410.1623	5500
412.6819	5432
415.201	5435
417.7172	5590
420.2369	5603
422.7538	5656
425.2701	5650
427.7856	5688
430.3005	5775
432.8147	5852
435.3282	5734
437.841	5814
440.3511	5697
442.8625	5681
445.3753	5893
447.8854	5858
450.3927	5893
452.9014	5827
455.4073	5917
457.9146	5855
460.4233	5810
462.9272	5849
465.4325	5978
467.935	5903
470.4389	5811
472.9421	5828
475.4446	5936
477.9444	5846
480.4456	5858
482.944	5972
485.4417	5920
487.9429	5963
490.4393	5937
492.935	6054
495.4321	5956
497.9264	5941
500.4221	6046
502.9171	6108
505.4094	6070
507.9011	5989
510.392	6010
512.8864	5978
515.3759	6060
517.8649	6140
520.3531	6095
522.8406	6078
525.3275	6122
527.8178	6111
530.3033	6068
532.7881	6249
535.2723	6146
537.7558	6119
540.2407	6125
542.7228	6128
545.2043	6034
547.6851	6096
550.1652	6051
552.6467	6130
555.1255	6203
557.6016	6229
560.079	6111
562.5557	6194
565.0318	6188
567.5092	6240
569.984	6143
572.456	6365
574.9294	6336
577.4022	6295
579.8762	6506
582.3456	6265
584.8163	6306
587.2863	6246
589.7557	6386
592.2224	6439
594.6924	6410
597.1578	6314
599.6245	6331
602.0905	6333
604.5538	6367
607.0206	6303
609.4825	6367
611.9459	6324
614.4066	6315
616.8686	6355
619.33	6302
621.7906	6318
624.2487	6273
626.708	6368
629.1647	6427
631.6207	6287
634.0801	6303
636.5348	6359
638.9888	6441
641.4442	6365
643.8969	6393
646.3509	6487
648.8022	6351
651.255	6447
653.705	6403
656.1544	6365
658.6031	6492
661.0532	6388
663.5026	6542
665.9493	6579
668.3954	6557
670.8409	6515
673.2877	6474
675.7318	6542
678.1752	6505
680.618	6621
683.0601	6614
685.5035	6716
687.9444	6541
690.3845	6643
692.824	6647
695.2628	6641
697.701	6722
700.1406	6730
702.5774	6633
705.0116	6665
707.4472	6653
709.8821	6637
712.3183	6596
714.7519	6764
717.1829	6662
719.6151	6723
722.0468	6740
724.4777	6723
726.908	6749
729.3377	6793
731.7667	6767
734.1931	6768
736.6208	6818
739.0498	6909
741.4742	6794
743.9	6833
746.3231	6887
748.7476	6957
751.1713	7104
753.5945	7037
756.015	6923
758.4368	6967
760.856	7055
763.2766	7143
765.6965	7041
768.1157	7039
770.5323	7121
772.9483	7099
775.3656	7230
777.7822	6993
780.1963	7015
782.6116	7065
785.0244	7143
787.4365	7108
789.8499	6998
792.2626	7134
794.6728	7110
797.0823	7153
799.4911	7037
801.8994	7256
804.3109	6945
806.7178	7147
809.124	7200
811.5297	7187
813.9347	7153
816.341	7136
818.7447	7236
821.1478	7163
823.5502	7194
825.952	7246
828.3531	7208
830.7556	7185
833.1554	7214
835.5546	7172
837.9532	7153
840.3511	7253
842.7504	7244
845.1451	7233
847.5411	7303
849.9365	7251
852.3312	7221
854.7272	7273
857.1187	7266
859.5115	7389
861.9037	7364
864.2952	7263
866.6842	7288
869.0764	7224
871.4661	7333
873.8531	7308
876.2415	7309
878.6272	7239
881.0162	7267
883.4026	7251
885.7866	7328
888.1717	7396
890.5543	7358
892.9382	7320
895.3215	7327
897.7041	7288
900.0842	7253
902.4655	7188
904.8443	7164
907.2244	7349
909.6039	7484
911.9808	7376
914.357	7451
916.7346	7417
919.1115	7361
921.4859	7378
923.8616	7402
926.2347	7531
928.6071	7524
930.979	7489
933.3541	7571
935.7247	7558
938.0946	7631
940.4639	7584
942.8326	7599
945.2026	7778
947.5701	7938
949.9369	7927
952.305	8075
954.6705	8223
957.0355	8431
959.4017	8579
961.7654	8583
964.1284	8662
966.4908	8430
968.8527	8313
971.2138	8050
973.5743	7855
975.9343	7720
978.2936	7598
980.6522	7634
983.0122	7443
985.3696	7592
987.7245	7687
990.0807	7566
992.4362	7454
994.7911	7571
997.1474	7509
999.4991	7426
1001.852	7476
1004.205	7580
1006.555	7568
1008.908	7479
1011.258	7517
1013.606	7468
1015.956	7485
1018.302	7580
1020.652	7622
1022.998	7549
1025.345	7527
1027.691	7628
1030.035	7685
1032.378	7669
1034.724	7660
1037.066	7656
1039.409	7592
1041.75	7695
1044.092	7610
1046.433	7735
1048.771	7759
1051.112	7678
1053.449	7577
1055.786	7710
1058.124	7698
1060.462	7774
1062.797	7710
1065.131	7683
1067.467	7772
1069.8	7925
1072.135	7785
1074.467	7820
1076.798	7770
1079.129	7847
1081.459	7764
1083.792	7729
1086.121	7793
1088.449	7741
1090.777	7576
1093.104	7744
1095.431	7654
1097.759	7555
1100.084	7765
1102.408	7631
1104.732	7734
1107.056	7849
1109.379	7724
1111.701	7687
1114.022	7643
1116.343	7867
1118.664	7677
1120.983	7634
1123.303	7646
1125.621	7703
1127.939	7714
1130.256	7712
1132.573	7618
1134.889	7748
1137.205	7867
1139.52	7716
1141.832	7833
1144.146	7786
1146.461	7879
1148.771	7818
1151.083	7833
1153.392	7694
1155.703	7837
1158.011	7765
1160.323	7721
1162.629	7763
1164.938	7801
1167.243	7792
1169.55	7904
1171.857	7722
1174.163	7703
1176.466	7719
1178.769	7771
1181.073	7755
1183.374	7837
1185.677	7802
1187.979	7836
1190.279	7741
1192.578	7769
1194.878	7711
1197.178	7815
1199.476	7796
1201.772	7814
1204.068	7712
1206.366	7731
1208.663	7807
1210.957	7863
1213.251	7818
1215.544	7889
1217.836	7900
1220.128	7853
1222.421	7818
1224.712	7830
1227.002	7865
1229.292	7816
1231.581	7861
1233.871	7908
1236.159	7867
1238.446	7992
1240.732	8202
1243.018	7937
1245.304	7964
1247.59	8049
1249.874	7964
1252.156	7898
1254.439	8040
1256.721	7972
1259.005	8020
1261.286	8019
1263.565	8114
1265.845	7921
1268.125	7997
1270.403	7859
1272.682	7878
1274.959	8033
1277.234	7877
1279.511	7936
1281.787	7971
1284.062	7977
1286.337	7874
1288.609	7852
1290.882	7833
1293.153	7993
1295.428	7835
1297.698	7897
1299.969	7972
1302.237	7877
1304.507	7759
1306.777	7874
1309.044	7970
1311.312	8001
1313.578	7770
1315.844	7771
1318.109	7821
1320.375	7897
1322.638	7837
1324.903	7917
1327.165	7954
1329.427	7926
1331.69	8015
1333.952	7995
1336.212	7900
1338.471	8034
1340.73	7916
1342.988	7856
1345.248	7978
1347.505	7988
1349.763	7875
1352.019	7868
1354.274	7937
1356.53	7967
1358.784	7770
1361.038	7951
1363.291	7975
1365.543	7963
1367.797	7986
1370.048	8039
1372.296	7865
1374.546	7902
1376.796	8005
1379.045	7963
1381.295	7945
1383.542	7935
1385.787	7939
1388.034	7811
1390.28	7945
1392.527	8025
1394.772	8116
1397.014	8004
1399.258	7949
1401.501	8032
1403.741	8059
1405.985	7860
1408.226	7951
1410.465	7959
1412.705	8054
1414.943	8096
1417.184	8005
1419.42	8064
1421.658	8034
1423.894	7931
1426.13	8171
1428.366	8055
1430.602	8043
1432.835	8098
1435.069	8116
1437.301	8247
1439.535	8148
1441.767	8231
1443.997	8094
1446.229	8145
1448.458	8255
1450.687	8137
1452.916	8191
1455.146	8203
1457.372	8165
1459.599	8130
1461.824	8116
1464.051	8139
1466.277	8191
1468.501	8240
1470.725	8019
1472.948	8016
1475.17	8103
1477.393	8116
1479.614	8083
1481.837	8042
1484.057	8117
1486.276	7920
1488.497	7965
1490.715	8026
1492.932	7977
1495.148	8008
1497.364	7984
1499.58	8006
1501.798	7831
1504.012	7865
1506.227	7985
1508.44	7962
1510.653	7925
1512.866	7910
1515.078	7878
1517.289	7881
1519.5	7871
1521.711	7843
1523.92	7860
1526.13	7896
1528.338	7968
1530.544	7924
1532.752	7883
1534.959	7887
1537.165	7903
1539.371	8002
1541.574	7987
1543.779	7869
1545.983	7967
1548.187	7916
1550.39	7885
1552.59	7883
1554.792	7989
1556.991	7984
1559.19	8157
1561.392	8060
1563.59	7974
1565.789	8014
1567.986	8069
1570.182	7980
1572.381	8134
1574.576	8116
1576.771	8084
1578.966	8083
1581.16	8280
1583.354	8115
1585.546	8106
1587.74	8038
1589.931	8049
1592.121	8054
1594.311	8141
1596.502	7931
1598.693	8078
1600.881	8072
1603.069	8101
1605.256	8182
1607.445	8029
1609.631	8069
1611.816	8156
1614.001	8000
1616.186	8187
1618.37	8182
1620.555	8103
1622.737	8063
1624.919	8209
1627.101	8143
1629.282	8213
1631.463	8152
1633.643	8186
1635.822	8188
1638.001	8195
1640.179	8176
1642.359	8184
1644.534	8115
1646.711	8204
1648.887	8196
1651.062	8232
1653.235	8260
1655.412	8270
1657.586	8148
1659.757	8314
1661.93	8334
1664.1	8107
1666.274	8221
1668.445	8194
1670.614	8195
1672.784	8339
1674.951	8262
1677.12	8227
1679.289	8113
1681.457	8248
1683.622	8177
1685.789	8282
1687.953	8250
1690.121	8185
1692.284	8203
1694.447	8184
1696.611	8121
1698.772	8060
1700.935	8089
1703.098	8101
1705.258	8205
1707.417	8140
1709.576	8163
1711.736	8142
1713.896	8066
1716.053	8209
1718.21	8137
1720.366	8015
1722.522	8184
1724.68	8006
1726.835	8056
1728.989	8276
1731.142	8057
1733.295	8068
1735.449	8126
1737.601	8195
1739.753	8044
1741.903	8051
1744.054	8079
1746.203	8141
1748.354	7977
1750.503	8212
1752.651	8087
1754.798	8274
1756.944	8053
1759.092	8092
1761.238	8185
1763.383	8099
1765.528	8115
1767.672	8035
1769.814	8179
1771.959	8180
1774.102	8123
1776.242	8125
1778.384	8289
1780.525	8169
1782.665	8171
1784.805	8101
1786.945	8139
1789.082	8191
1791.22	8221
1793.36	8133
1795.495	8222
1797.632	8167
1799.766	8039
1801.902	8126
1804.035	8257
1806.172	8184
1808.304	8076
1810.436	8150
1812.569	8147
1814.699	8143
1816.833	8067
1818.963	8202
1821.092	8255
1823.222	8184
1825.35	8025
1827.478	8105
1829.608	8132
1831.734	8241
1833.86	8081
1835.986	7915
1838.11	8209
1840.238	8173
1842.362	8157
1844.485	8247
1846.608	8116
1848.73	8089
1850.853	8040
1852.974	8195
1855.097	8193
1857.217	8077
1859.336	7952
1861.455	8037
1863.576	8092
1865.693	7998
1867.811	8104
1869.926	8062
1872.042	8107
1874.16	8011
1876.275	8024
1878.39	8115
1880.504	8125
1882.618	8032
1884.731	8074
1886.843	8035
1888.956	8007
1891.067	8062
1893.178	8063
1895.287	8041
1897.399	8179
1899.508	8062
1901.617	8116
1903.724	8061
1905.832	8182
1907.941	8151
1910.046	8176
1912.152	8231
1914.256	8143
1916.361	8167
1918.464	8121
1920.57	8284
1922.672	7983
1924.775	8281
1926.876	8251
1928.978	8181
1931.08	8128
1933.181	8264
1935.28	8152
1937.38	8245
1939.478	8199
1941.577	8308
1943.675	8296
1945.771	8184
1947.867	8113
1949.964	8219
1952.058	8238
1954.154	8237
1956.248	8123
1958.343	8196
1960.435	8108
1962.527	8167
1964.62	8214
1966.711	8196
1968.802	8239
1970.892	8091
1972.983	8193
1975.072	8234
1977.162	8120
1979.25	8048
1981.337	8032
1983.424	8107
1985.51	8132
1987.598	7928
1989.683	8108
1991.768	8099
1993.852	8038
1995.934	8006
1998.019	8133
2000.102	7950
2002.184	8092
2004.266	8022
2006.347	8029
2008.427	8007
2010.508	7949
2012.587	8146
2014.666	8052
2016.745	7963
2018.821	8035
2020.9	8106
2022.977	8128
2025.052	7898
2027.128	8156
2029.204	8106
2031.277	8093
2033.353	8092
2035.425	8120
2037.499	8048
2039.57	8070
2041.642	8051
2043.714	7928
2045.786	8030
2047.855	7948
2049.925	8073
2051.993	8055
2054.064	8084
2056.132	8154
2058.2	8123
2060.266	7920
2062.332	8032
2064.398	8050
2066.465	8120
2068.529	8123
2070.592	7987
2072.657	8209
2074.719	7980
2076.783	8049
2078.845	8101
2080.907	7982
2082.968	7972
2085.028	8032
2087.087	8144
2089.148	8081
2091.207	8016
2093.264	7994
2095.322	7969
2097.379	8119
2099.439	7979
2101.495	7996
2103.55	8057
2105.605	8032
2107.658	8023
2109.713	8072
2111.767	7937
2113.82	8099
2115.872	8002
2117.924	7974
2119.975	7943
2122.028	7875
2124.078	7907
2126.126	7899
2128.176	8011
2130.225	8003
2132.275	8041
2134.321	7962
2136.368	8038
2138.415	8009
2140.461	7960
2142.505	7943
2144.552	8049
2146.597	7969
2148.64	8026
2150.684	7974
2152.725	7975
2154.77	8009
2156.811	8013
2158.852	7931
2160.894	7995
2162.933	7904
2164.973	7887
2167.013	7933
2169.051	7866
2171.089	7938
2173.126	7946
2175.164	8073
2177.201	7911
2179.236	7754
2181.273	7911
2183.307	7978
2185.341	7921
2187.377	7886
2189.41	7816
2191.442	7858
2193.473	7871
2195.506	7828
2197.539	7870
2199.569	7901
2201.598	7889
2203.628	7799
2205.656	7816
2207.686	7754
2209.716	7825
2211.743	7805
2213.769	7820
2215.796	7769
2217.821	7725
2219.848	7799
2221.873	7738
2223.897	7777
2225.921	7847
2227.944	7743
2229.967	7707
2231.991	7742
2234.011	7735
2236.032	7757
2238.053	7713
2240.073	7778
2242.094	7732
2244.114	7786
2246.131	7682
2248.149	7725
2250.167	7565
2252.186	7771
2254.201	7733
2256.218	7784
2258.233	7663
2260.247	7783
2262.262	7791
2264.278	7754
2266.29	7748
2268.303	7740
2270.315	7813
2272.327	7784
2274.341	7647
2276.35	7815
2278.361	7794
2280.37	7698
2282.38	7708
2284.388	7685
2286.397	7678
2288.405	7831
2290.412	7712
2292.419	7659
2294.425	7637
2296.431	7744
2298.437	7614
2300.441	7630
2302.445	7766
2304.449	7720
2306.453	7749
2308.455	7658
2310.457	7720
2312.459	7712
2314.46	7634
2316.46	7763
2318.461	7705
2320.46	7635
2322.458	7506
2324.458	7686
2326.456	7714
2328.455	7624
2330.451	7567
2332.447	7679
2334.443	7514
2336.438	7592
2338.433	7547
2340.429	7569
2342.422	7667
2344.416	7517
2346.408	7638
2348.399	7612
2350.393	7628
2352.384	7528
2354.375	7546
2356.365	7589
2358.355	7462
2360.344	7542
2362.333	7520
2364.322	7471
2366.309	7515
2368.295	7522
2370.282	7507
2372.27	7485
2374.256	7481
2376.24	7456
2378.225	7357
2380.208	7527
2382.194	7518
2384.177	7350
2386.159	7538
2388.142	7490
2390.122	7429
2392.105	7556
2394.085	7413
2396.066	7449
2398.044	7620
2400.024	7469
2402.002	7361
2403.982	7291
2405.959	7404
2407.935	7516
2409.913	7359
2411.888	7396
2413.865	7430
2415.84	7420
2417.814	7342
2419.788	7466
2421.762	7495
2423.735	7369
2425.708	7276
2427.68	7365
2429.651	7454
2431.623	7336
2433.593	7391
2435.564	7391
2437.533	7493
2439.502	7370
2441.47	7280
2443.438	7472
2445.406	7393
2447.373	7247
2449.34	7480
2451.305	7371
2453.271	7323
2455.235	7324
2457.201	7431
2459.165	7391
2461.129	7403
2463.092	7223
2465.054	7400
2467.018	7300
2468.978	7337
2470.939	7253
2472.899	7462
2474.86	7347
2476.819	7285
2478.778	7389
2480.737	7268
2482.695	7216
2484.653	7233
2486.609	7247
2488.567	7224
2490.524	7338
2492.478	7130
2494.433	7265
2496.387	7327
2498.343	7196
2500.297	7206
2502.249	7276
2504.202	7261
2506.153	7383
2508.105	7337
2510.057	7200
2512.008	7161
2513.957	7303
2515.906	7096
2517.855	7260
2519.805	7296
2521.754	7170
2523.7	7172
2525.647	7325
2527.594	7279
2529.54	7241
2531.486	7140
2533.431	7221
2535.376	7189
2537.32	7228
2539.263	7301
2541.207	7017
2543.151	7101
2545.093	7084
2547.034	7285
2548.975	7237
2550.917	7176
2552.856	7170
2554.796	7125
2556.735	7171
2558.673	7100
2560.611	7031
2562.55	7132
2564.487	7186
2566.424	7137
2568.36	7165
2570.296	7135
2572.232	7195
2574.167	7139
2576.101	7260
2578.035	7224
2579.969	7156
2581.902	7139
2583.834	7124
2585.766	7183
2587.698	7148
2589.628	7132
2591.557	7062
2593.489	7244
2595.419	7194
2597.348	7040
2599.275	7290
2601.204	7109
2603.131	7081
2605.059	7240
2606.986	7216
2608.911	7177
2610.837	7145
2612.76	7203
2614.687	7235
2616.61	7139
2618.534	7047
2620.457	7117
2622.38	7130
2624.302	7206
2626.225	7136
2628.145	7277
2630.067	7087
2631.986	7160
2633.906	7269
2635.827	7151
2637.745	7106
2639.662	7156
2641.581	7130
2643.498	7158
2645.415	7097
2647.331	7067
2649.248	7179
2651.163	7122
2653.077	7017
2654.993	7152
2656.906	7100
2658.821	7228
2660.733	7068
2662.646	7099
2664.557	7150
2666.47	7144
2668.381	7043
2670.291	7149
2672.201	7072
2674.11	7027
2676.021	7106
2677.929	7220
2679.837	7083
2681.745	7038
2683.652	6979
2685.56	7031
2687.466	7096
2689.371	7039
2691.276	6971
2693.181	7210
2695.085	7029
2696.991	7065
2698.893	7055
2700.796	7060
2702.698	6956
2704.601	6875
2706.502	7038
2708.404	6983
2710.304	7015
2712.203	6977
2714.103	6969
2716.003	7010
2717.902	6933
2719.8	6876
2721.697	6946
2723.594	6967
2725.49	7056
2727.389	7134
2729.283	6928
2731.179	6980
2733.073	6967
2734.968	6918
2736.863	6953
2738.757	6971
2740.649	6921
2742.541	6926
2744.433	7033
2746.324	6884
2748.216	6930
2750.107	6940
2751.997	6874
2753.886	6869
2755.776	6931
2757.666	6910
2759.553	6759
2761.44	6836
2763.327	6776
2765.215	6822
2767.102	6866
2768.988	6894
2770.873	6837
2772.757	6892
2774.641	6878
2776.525	6928
2778.41	6831
2780.292	6779
2782.175	6889
2784.057	6818
2785.938	6759
2787.821	6880
2789.701	6823
2791.581	6747
2793.461	6691
2795.34	6736
2797.219	6807
2799.099	6759
2800.975	6684
2802.853	6916
2804.73	6712
2806.606	6732
2808.484	6727
2810.358	6927
2812.233	6781
2814.108	6636
2815.981	6819
2817.857	6650
2819.73	6760
2821.602	6807
2823.474	6747
2825.346	6731
2827.217	6825
2829.089	6734
2830.959	6605
2832.829	6648
2834.698	6700
2836.567	6819
2838.436	6611
2840.305	6777
2842.172	6689
2844.04	6787
2845.905	6835
2847.772	6705
2849.639	6695
2851.503	6714
2853.369	6701
2855.232	6802
2857.096	6820
2858.961	6671
2860.824	6735
2862.686	6749
2864.547	6819
2866.41	6769
2868.272	6870
2870.132	6819
2871.992	6914
2873.851	6846
2875.711	6850
2877.57	6910
2879.429	6957
2881.287	6973
2883.144	6949
2885.001	6959
2886.857	6886
2888.714	6985
2890.57	7011
2892.425	6854
2894.279	6835
2896.133	7041
2897.987	6860
2899.842	6953
2901.694	6974
2903.547	6938
2905.397	6934
2907.249	6939
2909.101	6908
2910.952	6783
2912.802	6853
2914.652	6975
2916.5	6856
2918.35	6922
2920.198	6871
2922.045	7025
2923.893	7082
2925.74	7051
2927.585	7139
2929.433	7132
2931.279	7265
2933.123	7167
2934.968	7199
2936.811	7279
2938.656	7202
2940.5	7271
2942.342	7360
2944.185	7227
2946.026	7435
2947.87	7231
2949.71	7124
2951.549	7275
2953.39	7273
2955.229	7283
2957.069	6949
2958.908	7115
2960.746	7138
2962.584	7088
2964.421	7008
2966.257	7143
2968.094	6944
2969.931	6978
2971.766	6910
2973.601	6881
2975.435	6855
2977.27	6936
2979.105	6764
2980.938	6901
2982.77	6842
2984.602	6791
2986.434	6812
2988.267	6724
2990.097	6628
2991.927	6712
2993.757	6760
2995.587	6625
2997.417	6690
2999.246	6593
3001.074	6559
3002.902	6588
3004.729	6631
3006.556	6485
3008.384	6504
3010.21	6525
3012.036	6397
3013.861	6339
3015.684	6380
3017.51	6420
3019.334	6319
3021.157	6438
3022.981	6405
3024.802	6377
3026.624	6255
3028.448	6267
3030.267	6240
3032.088	6348
3033.909	6339
3035.728	6351
3037.549	6256
3039.368	6189
3041.186	6120
3043.004	6213
3044.821	6402
3046.64	6181
3048.455	6282
3050.272	6206
3052.087	6303
3053.903	6117
3055.717	6052
3057.534	6208
3059.347	6240
3061.16	6200
3062.974	6275
3064.785	6208
3066.598	6088
3068.411	6238
3070.222	6193
3072.032	6271
3073.844	6186
3075.653	6241
3077.463	6087
3079.272	6162
3081.08	6204
3082.889	6143
3084.697	6173
3086.505	6054
3088.312	6106
3090.118	5942
3091.924	6086
3093.729	6052
3095.535	6016
3097.34	5941
3099.144	6048
3100.947	5962
3102.75	6002
3104.553	6071
3106.357	6153
3108.159	5979
3109.961	5963
3111.762	5888
3113.562	6133
3115.365	5913
3117.164	6062
3118.964	5818
3120.761	5960
3122.56	5959
3124.36	5973
3126.158	5978
3127.954	5904
3129.75	5815
3131.547	5892
3133.343	5967
3135.139	5869
3136.934	5905
3138.729	5870
3140.522	5790
3142.317	5858
3144.11	5984
3145.904	5798
3147.695	5924
3149.488	5846
3151.28	5776
3153.07	5871
3154.863	6001
3156.652	5847
3158.441	5883
3160.231	5812
3162.019	5818
3163.81	5816
3165.597	5721
3167.384	5696
3169.172	5778
3170.958	5788
3172.745	5721
3174.532	5736
3176.317	5892
3178.101	5724
3179.885	5753
3181.67	5790
3183.455	5704
3185.238	5744
3187.02	5656
3188.802	5801
3190.585	5741
3192.368	5674
3194.149	5790
3195.929	5627
3197.709	5739
3199.489	5692
3201.268	5717
3203.048	5745
3204.826	5768
3206.604	5829
3208.382	5597
3210.159	5729
3211.937	5542
3213.713	5707
3215.489	5704
3217.263	5648
3219.038	5693
3220.815	5733
3222.589	5652
3224.363	5671
3226.136	5747
3227.908	5567
3229.681	5613
3231.454	5672
3233.226	5752
3234.996	5589
3236.767	5539
3238.538	5628
3240.308	5632
3242.078	5510
3243.847	5743
3245.615	5611
3247.384	5556
3249.15	5733
3250.92	5620
3252.686	5634
3254.453	5566
3256.218	5538
3257.984	5494
3259.75	5536
3261.515	5578
3263.279	5538
3265.044	5673
3266.806	5629
3268.57	5522
3270.334	5466
3272.095	5682
3273.856	5675
3275.619	5568
3277.379	5492
3279.14	5586
3280.9	5512
3282.661	5485
3284.419	5577
3286.178	5675
3287.937	5634
3289.695	5410
3291.453	5678
3293.21	5571
3294.967	5500
3296.723	5516
3298.48	5617
3300.235	5536
3301.99	5650
3303.744	5671
3305.498	5558
3307.253	5565
3309.006	5651
3310.759	5586
3312.511	5525
3314.263	5583
3316.017	5490
3317.768	5512
3319.519	5505
3321.268	5497
3323.018	5588
3324.767	5532
3326.518	5498
3328.267	5474
3330.014	5521
3331.762	5492
3333.509	5533
3335.258	5484
3337.003	5543
3338.75	5459
3340.496	5503
3342.24	5533
3343.987	5478
3345.732	5546
3347.475	5400
3349.219	5409
3350.961	5388
3352.705	5403
3354.448	5528
3356.19	5533
3357.931	5523
3359.672	5404
3361.412	5542
3363.155	5463
3364.894	5493
3366.633	5387
3368.372	5412
3370.11	5491
3371.849	5366
3373.588	5325
3375.325	5408
3377.061	5487
3378.799	5414
3380.534	5397
3382.271	5393
3384.006	5374
3385.741	5413
3387.475	5398
3389.209	5429
3390.944	5398
3392.677	5319
3394.409	5271
3396.143	5417
3397.874	5422
3399.606	5386
3401.338	5337
3403.069	5419
3404.799	5249
3406.528	5251
3408.258	5356
3409.988	5248
3411.717	5398
3413.445	5266
3415.173	5265
3416.899	5361
3418.626	5318
3420.354	5228
3422.08	5399
3423.806	5275
3425.531	5170
3427.255	5182
3428.981	5181
3430.705	5311
3432.429	5283
3434.151	5125
3435.875	5273
3437.599	5131
3439.321	5208
3441.042	5194
3442.763	5268
3444.483	5214
3446.204	5162
3447.926	5269
3449.645	5209
3451.364	5153
3453.082	5137
3454.801	5227
3456.52	5239
3458.238	5227
3459.954	5146
3461.671	5121
3463.387	5207
3465.104	5148
3466.82	5126
3468.534	5079
3470.25	4982
3471.963	5147
3473.676	5088
3475.392	5042
3477.104	5076
3478.817	5073
3480.528	5046
3482.241	5007
3483.954	5058
3485.664	5039
3487.374	4982
3489.084	5169
3490.795	4951
3492.504	5002
3494.214	4990
3495.922	4918
3497.63	5069
3499.338	4962
3501.045	4933
3502.753	5028
3504.459	4870
3506.166	4956
3507.871	5012
3509.576	4917
3511.283	4848
3512.987	4953
3514.691	5049
3516.395	4950
3518.098	4933
3519.8	4990
3521.504	4925
3523.206	4950
3524.908	4965
3526.609	4941
3528.309	4895
3530.011	4906
3531.711	4921
3533.411	4854
3535.109	4846
3536.808	4957
3538.507	4857
3540.206	4840
3541.904	4854
3543.601	4841
3545.297	4907
3546.994	4944
3548.69	4839
3550.387	4766
3552.081	4965
3553.776	4912
3555.47	4684
3557.166	4753
3558.859	4892
3560.553	4757
3562.245	4833
3563.938	4842
3565.629	4764
3567.322	4809
3569.014	4770
3570.704	4746
3572.394	4787
3574.084	4700
3575.775	4802
3577.464	4751
3579.152	4818
3580.842	4747
3582.529	4753
3584.216	4756
3585.905	4700
3587.591	4798
3589.279	4606
3590.964	4759
3592.649	4574
3594.336	4640
3596.021	4632
3597.705	4751
3599.388	4676
3601.072	4723
3602.757	4764
3604.439	4682
3606.122	4614
3607.803	4688
3609.485	4637
3611.167	4651
3612.849	4503
3614.529	4567
3616.208	4676
3617.888	4591
3619.567	4567
3621.247	4629
3622.926	4609
3624.603	4540
3626.281	4561
3627.958	4599
3629.635	4607
3631.312	4575
3632.989	4483
3634.665	4600
3636.339	4537
3638.014	4489
3639.691	4541
3641.364	4541
3643.038	4526
3644.71	4535
3646.384	4551
3648.058	4491
3649.729	4549
3651.402	4480
3653.073	4537
3654.744	4526
3656.414	4492
3658.085	4403
3659.755	4511
3661.424	4516
3663.094	4491
3664.762	4415
3666.431	4449
3668.099	4405
3669.766	4494
3671.433	4455
3673.099	4406
3674.768	4373
3676.433	4446
3678.098	4415
3679.763	4451
3681.428	4382
3683.093	4367
3684.757	4415
3686.421	4495
3688.083	4454
3689.746	4351
3691.408	4306
3693.071	4370
3694.733	4365
3696.394	4399
3698.054	4365
3699.715	4297
3701.375	4320
3703.036	4502
3704.695	4397
3706.354	4337
3708.012	4419
3709.67	4351
3711.329	4383
3712.987	4378
3714.644	4299
3716.299	4370
3717.955	4337
3719.613	4403
3721.268	4405
3722.923	4344
3724.577	4404
3726.231	4336
3727.885	4237
3729.539	4293
3731.192	4308
3732.845	4327
3734.497	4359
3736.149	4201
3737.802	4305
3739.453	4291
3741.104	4211
3742.753	4269
3744.404	4338
3746.052	4302
3747.704	4275
3749.352	4337
3751	4325
3752.648	4235
3754.296	4247
3755.944	4221
3757.59	4308
3759.238	4327
3760.883	4263
3762.528	4216
3764.176	4185
3765.82	4155
3767.464	4261
3769.109	4198
3770.753	4332
3772.396	4133
3774.04	4151
3775.683	4188
3777.325	4237
3778.967	4189
3780.608	4265
3782.25	4181
3783.89	4090
3785.531	4137
3787.17	4161
3788.81	4200
3790.45	4145
3792.09	4115
3793.729	4098
3795.366	4138
3797.003	4119
3798.64	4149
3800.278	4152
3801.915	4063
3803.551	4166
3805.187	4075
3806.822	4187
3808.458	4152
3810.093	4058
3811.726	4132
3813.36	4137
3814.994	4104
3816.627	4148
3818.262	4134
3819.893	4123
3821.525	4123
3823.157	4024
3824.787	4119
3826.42	4094
3828.051	3958
3829.68	3995
3831.31	4047
3832.938	4041
3834.569	4016
3836.198	4045
3837.825	3988
3839.454	4065
3841.08	4030
3842.708	4056
3844.335	4060
3845.962	3962
3847.587	4014
3849.212	4008
3850.838	3962
3852.463	3925
3854.089	3984
3855.712	3954
3857.335	3969
3858.959	3997
3860.582	4018
3862.205	3976
3863.827	3944
3865.449	3933
3867.07	3987
3868.691	3957
3870.312	4019
3871.933	3943
3873.553	3982
3875.173	3911
3876.792	3916
3878.411	3877
3880.03	3929
3881.647	3972
3883.265	3847
3884.882	3888
3886.499	3903
3888.116	3802
3889.732	3820
3891.348	3940
3892.964	3940
3894.579	3856
3896.195	3841
3897.809	3860
3899.423	3934
3901.036	3876
3902.648	3951
3904.261	3717
3905.875	3857
3907.487	3875
3909.099	3774
3910.709	3846
3912.321	3929
3913.933	3945
3915.542	3902
3917.152	3820
3918.762	3875
3920.37	3830
3921.98	3887
3923.589	3860
3925.196	3882
3926.804	3855
3928.41	3857
3930.018	3822
3931.626	3888
3933.231	3763
3934.838	3766
3936.442	3784
3938.046	3794
3939.653	3792
3941.257	3848
3942.861	3792
3944.464	3857
3946.068	3779
3947.67	3802
3949.273	3802
3950.876	3921
3952.477	3826
3954.078	3909
3955.678	3857
3957.281	3766
3958.881	3845
3960.48	3832
3962.079	3823
3963.678	3790
3965.279	3777
3966.877	3793
3968.475	3777
3970.072	3734
3971.669	3781
3973.266	3761
3974.864	3717
3976.459	3706
3978.055	3718
3979.65	3732
3981.245	3682
3982.841	3737
3984.436	3695
3986.03	3686
3987.623	3723
3989.216	3660
3990.809	3702
3992.403	3696
3993.995	3694
3995.586	3642
3997.177	3574
3998.768	3607
4000.361	3679
4001.951	3690
4003.54	3671
4005.13	3648
4006.719	3677
4008.31	3630
4009.897	3695
4011.485	3622
4013.073	3528
4014.66	3620
4016.247	3590
4017.834	3569
4019.421	3590
4021.006	3652
4022.592	3496
4024.178	3591
4025.763	3613
4027.348	3476
4028.932	3560
4030.515	3587
4032.099	3538
4033.682	3531
4035.266	3579
4036.847	3533
4038.429	3539
4040.011	3547
4041.592	3542
4043.173	3515
4044.755	3550
4046.334	3522
4047.913	3439
4049.494	3500
4051.074	3487
4052.652	3500
4054.23	3499
4055.807	3536
4057.385	3409
4058.963	3444
4060.541	3503
4062.117	3508
4063.693	3476
4065.269	3435
4066.844	3407
4068.42	3473
4069.995	3419
4071.569	3477
4073.143	3472
4074.716	3431
4076.291	3500
4077.864	3419
4079.436	3450
4081.009	3432
4082.58	3491
4084.152	3419
4085.723	3398
4087.294	3454
4088.865	3412
4090.435	3451
4092.005	3483
4093.574	3340
4095.143	3412
4096.712	3461
4098.279	3449
4099.848	3393
4101.416	3396
4102.984	3394
4104.55	3365
4106.117	3348
4107.682	3327
4109.248	3324
4110.815	3393
4112.379	3388
4113.945	3430
4115.508	3296
4117.073	3398
4118.637	3382
4120.201	3340
4121.763	3398
4123.325	3368
4124.888	3319
4126.449	3280
4128.013	3298
4129.573	3373
4131.133	3378
4132.694	3289
4134.254	3272
4135.814	3288
4137.374	3328
4138.933	3249
4140.491	3282
4142.049	3298
4143.607	3254
4145.167	3275
4146.724	3279
4148.28	3206
4149.836	3332
4151.392	3295
4152.949	3254
4154.504	3249
4156.059	3262
4157.614	3197
4159.168	3233
4160.723	3289
4162.277	3254
4163.83	3179
4165.383	3216
4166.936	3257
4168.488	3188
4170.041	3270
4171.593	3178
4173.144	3197
4174.695	3206
4176.246	3173
4177.796	3169
4179.346	3169
4180.896	3119
4182.445	3162
4183.994	3150
4185.542	3251
4187.091	3151
4188.639	3203
4190.185	3247
4191.732	3216
4193.279	3171
4194.826	3117
4196.373	3177
4197.918	3105
4199.463	3151
4201.008	3137
4202.553	3135
4204.098	3090
4205.641	3089
4207.185	3146
4208.728	3177
4210.271	3129
4211.814	3101
4213.357	3205
4214.898	3076
4216.439	3164
4217.98	3019
4219.522	3175
4221.062	3067
4222.603	3138
4224.142	3105
4225.681	3134
4227.222	3078
4228.76	3075
4230.298	3106
4231.835	3064
4233.373	3032
4234.911	3082
4236.449	3055
4237.985	3048
4239.521	3050
4241.057	3039
4242.592	3068
4244.128	3009
4245.663	3016
4247.197	2981
4248.731	3012
4250.265	3123
4251.798	3080
4253.333	3076
4254.865	3004
4256.397	3029
4257.93	3000
4259.461	3023
4260.994	2995
4262.525	3073
4264.056	3004
4265.586	3060
4267.115	3023
4268.646	2959
4270.176	3015
4271.705	2970
4273.232	2995
4274.761	2998
4276.289	3005
4277.818	2965
4279.345	2971
4280.872	3004
4282.399	3001
4283.924	3011
4285.452	2998
4286.976	3002
4288.502	2971
4290.026	2969
4291.551	2969
4293.074	2941
4294.6	2954
4296.123	2898
4297.646	2942
4299.168	2947
4300.691	2981
4302.214	2872
4303.736	2944
4305.257	2930
4306.778	2900
4308.299	2949
4309.82	2896
4311.34	2921
4312.86	2938
4314.379	2936
