400.0745	4330
402.597	4312
405.1208	4345
407.6419	4342
410.1623	4388
412.6819	4362
415.201	4377
417.7172	4433
420.2369	4518
422.7538	4495
425.2701	4537
427.7856	4584
430.3005	4541
432.8147	4554
435.3282	4702
437.841	4583
440.3511	4572
442.8625	4685
445.3753	4699
447.8854	4574
450.3927	4648
452.9014	4689
455.4073	4530
457.9146	4620
460.4233	4635
462.9272	4606
465.4325	4641
467.935	4635
470.4389	4610
472.9421	4614
475.4446	4664
477.9444	4666
480.4456	4706
482.944	4626
485.4417	4685
487.9429	4673
490.4393	4736
492.935	4719
495.4321	4687
497.9264	4686
500.4221	4682
502.9171	4745
505.4094	4799
507.9011	4769
510.392	4760
512.8864	4827
515.3759	4818
517.8649	4846
520.3531	4850
522.8406	4763
525.3275	4866
527.8178	4802
530.3033	4860
532.7881	4837
535.2723	4851
537.7558	4787
540.2407	4864
542.7228	4746
545.2043	4846
547.6851	4844
550.1652	4841
552.6467	4867
555.1255	4929
557.6016	4786
560.079	4778
562.5557	4837
565.0318	4956
567.5092	4871
569.984	4889
572.456	4876
574.9294	4971
577.4022	5004
579.8762	5024
582.3456	5078
584.8163	5043
587.2863	5105
589.7557	5075
592.2224	5129
594.6924	5112
597.1578	5105
599.6245	5057
602.0905	5019
604.5538	5020
607.0206	5023
609.4825	5115
611.9459	5043
614.4066	4912
616.8686	4992
619.33	5014
621.7906	5012
624.2487	4983
626.708	4980
629.1647	4959
631.6207	4972
634.0801	5000
636.5348	5020
638.9888	5058
641.4442	4979
643.8969	4979
646.3509	5096
648.8022	5076
651.255	5126
653.705	5149
656.1544	5023
658.6031	5057
661.0532	5055
663.5026	5127
665.9493	5038
668.3954	5118
670.8409	5124
673.2877	5143
675.7318	5156
678.1752	5110
680.618	5100
683.0601	5210
685.5035	5180
687.9444	5346
690.3845	5184
692.824	5223
695.2628	5159
697.701	5262
700.1406	5315
702.5774	5206
705.0116	5261
707.4472	5182
709.8821	5199
712.3183	5250
714.7519	5202
717.1829	5354
719.6151	5221
722.0468	5354
724.4777	5282
726.908	5334
729.3377	5207
731.7667	5317
734.1931	5398
736.6208	5443
739.0498	5325
741.4742	5419
743.9	5526
746.3231	5479
748.7476	5378
751.1713	5518
753.5945	5594
756.015	5561
758.4368	5551
760.856	5548
763.2766	5441
765.6965	5550
768.1157	5582
770.5323	5602
772.9483	5599
775.3656	5597
777.7822	5476
780.1963	5454
782.6116	5633
785.0244	5499
787.4365	5670
789.8499	5644
792.2626	5575
794.6728	5525
797.0823	5521
799.4911	5669
801.8994	5527
804.3109	5567
806.7178	5572
809.124	5668
811.5297	5592
813.9347	5611
816.341	5726
818.7447	5671
821.1478	5604
823.5502	5585
825.952	5735
828.3531	5691
830.7556	5660
833.1554	5631
835.5546	5577
837.9532	5723
840.3511	5684
842.7504	5735
845.1451	5738
847.5411	5733
849.9365	5699
852.3312	5781
854.7272	5758
857.1187	5802
859.5115	5825
861.9037	5768
864.2952	5744
866.6842	5637
869.0764	5737
871.4661	5784
873.8531	5890
876.2415	5753
878.6272	5772
881.0162	5736
883.4026	5803
885.7866	5781
888.1717	5806
890.5543	5710
892.9382	5804
895.3215	5808
897.7041	5688
900.0842	5885
902.4655	5738
904.8443	5802
907.2244	5816
909.6039	5859
911.9808	5735
914.357	5805
916.7346	5952
919.1115	6015
921.4859	5962
923.8616	5991
926.2347	5947
928.6071	6019
930.979	5964
933.3541	6039
935.7247	6020
938.0946	6081
940.4639	6086
942.8326	6020
945.2026	6339
947.5701	6267
949.9369	6397
952.305	6624
954.6705	6818
957.0355	6951
959.4017	7167
961.7654	7294
964.1284	7261
966.4908	7127
968.8527	6831
971.2138	6633
973.5743	6371
975.9343	6212
978.2936	6187
980.6522	6001
983.0122	5975
985.3696	5935
987.7245	5945
990.0807	5912
992.4362	5851
994.7911	5992
997.1474	6043
999.4991	5929
1001.852	6022
1004.205	5975
1006.555	6074
1008.908	5955
1011.258	5992
1013.606	6014
1015.956	6069
1018.302	5980
1020.652	6009
1022.998	5949
1025.345	5993
1027.691	5953
1030.035	6057
1032.378	6083
1034.724	6065
1037.066	6028
1039.409	6117
1041.75	6086
1044.092	6118
1046.433	6159
1048.771	6106
1051.112	6155
1053.449	6126
1055.786	6144
1058.124	6015
1060.462	6220
1062.797	6195
1065.131	6190
1067.467	6238
1069.8	6106
1072.135	6266
1074.467	6148
1076.798	6187
1079.129	6228
1081.459	6221
1083.792	6263
1086.121	6213
1088.449	6213
1090.777	6057
1093.104	6038
1095.431	6211
1097.759	6150
1100.084	6169
1102.408	6068
1104.732	6060
1107.056	6153
1109.379	6105
1111.701	6117
1114.022	6046
1116.343	6028
1118.664	6013
1120.983	6100
1123.303	6154
1125.621	6051
1127.939	6102
1130.256	6055
1132.573	6032
1134.889	6105
1137.205	6177
1139.52	6127
1141.832	6193
1144.146	6070
1146.461	6144
1148.771	6097
1151.083	6111
1153.392	6107
1155.703	6109
1158.011	6082
1160.323	6087
1162.629	6158
1164.938	6140
1167.243	6163
1169.55	6104
1171.857	6175
1174.163	6199
1176.466	6047
1178.769	6177
1181.073	6110
1183.374	6031
1185.677	6225
1187.979	6148
1190.279	6139
1192.578	6111
1194.878	6043
1197.178	6108
1199.476	6155
1201.772	6208
1204.068	6177
1206.366	6259
1208.663	6181
1210.957	6183
1213.251	6156
1215.544	6188
1217.836	6223
1220.128	6139
1222.421	6127
1224.712	6193
1227.002	6195
1229.292	6207
1231.581	6262
1233.871	6309
1236.159	6276
1238.446	6229
1240.732	6220
1243.018	6309
1245.304	6377
1247.59	6444
1249.874	6266
1252.156	6346
1254.439	6368
1256.721	6316
1259.005	6469
1261.286	6233
1263.565	6191
1265.845	6329
1268.125	6295
1270.403	6154
1272.682	6379
1274.959	6362
1277.234	6355
1279.511	6263
1281.787	6251
1284.062	6302
1286.337	6373
1288.609	6387
1290.882	6298
1293.153	6280
1295.428	6334
1297.698	6232
1299.969	6301
1302.237	6228
1304.507	6249
1306.777	6332
1309.044	6233
1311.312	6255
1313.578	6172
1315.844	6273
1318.109	6273
1320.375	6305
1322.638	6079
1324.903	6177
1327.165	6223
1329.427	6334
1331.69	6329
1333.952	6296
1336.212	6262
1338.471	6276
1340.73	6275
1342.988	6287
1345.248	6262
1347.505	6349
1349.763	6308
1352.019	6267
1354.274	6124
1356.53	6240
1358.784	6240
1361.038	6217
1363.291	6192
1365.543	6234
1367.797	6235
1370.048	6361
1372.296	6287
1374.546	6206
1376.796	6306
1379.045	6231
1381.295	6255
1383.542	6287
1385.787	6320
1388.034	6285
1390.28	6197
1392.527	6243
1394.772	6420
1397.014	6285
1399.258	6398
1401.501	6372
1403.741	6333
1405.985	6345
1408.226	6342
1410.465	6499
1412.705	6463
1414.943	6343
1417.184	6452
1419.42	6377
1421.658	6291
1423.894	6475
1426.13	6497
1428.366	6481
1430.602	6412
1432.835	6371
1435.069	6385
1437.301	6473
1439.535	6483
1441.767	6584
1443.997	6483
1446.229	6539
1448.458	6607
1450.687	6555
1452.916	6584
1455.146	6560
1457.372	6558
1459.599	6548
1461.824	6535
1464.051	6588
1466.277	6515
1468.501	6532
1470.725	6443
1472.948	6478
1475.17	6363
1477.393	6389
1479.614	6446
1481.837	6371
1484.057	6280
1486.276	6288
1488.497	6367
1490.715	6222
1492.932	6211
1495.148	6217
1497.364	6181
1499.58	6245
1501.798	6288
1504.012	6195
1506.227	6156
1508.44	6112
1510.653	6219
1512.866	6242
1515.078	6175
1517.289	6132
1519.5	6256
1521.711	6206
1523.92	6277
1526.13	6210
1528.338	6195
1530.544	6188
1532.752	6246
1534.959	6275
1537.165	6197
1539.371	6284
1541.574	6375
1543.779	6197
1545.983	6261
1548.187	6193
1550.39	6235
1552.59	6329
1554.792	6315
1556.991	6324
1559.19	6406
1561.392	6289
1563.59	6227
1565.789	6361
1567.986	6359
1570.182	6264
1572.381	6283
1574.576	6341
1576.771	6293
1578.966	6417
1581.16	6470
1583.354	6238
1585.546	6248
1587.74	6335
1589.931	6428
1592.121	6352
1594.311	6509
1596.502	6419
1598.693	6314
1600.881	6468
1603.069	6460
1605.256	6356
1607.445	6427
1609.631	6404
1611.816	6461
1614.001	6511
1616.186	6460
1618.37	6425
1620.555	6458
1622.737	6494
1624.919	6413
1627.101	6413
1629.282	6479
1631.463	6468
1633.643	6516
1635.822	6552
1638.001	6449
1640.179	6472
1642.359	6420
1644.534	6596
1646.711	6505
1648.887	6448
1651.062	6529
1653.235	6528
1655.412	6523
1657.586	6700
1659.757	6597
1661.93	6543
1664.1	6573
1666.274	6582
1668.445	6531
1670.614	6541
1672.784	6568
1674.951	6590
1677.12	6610
1679.289	6510
1681.457	6582
1683.622	6571
1685.789	6500
1687.953	6490
1690.121	6464
1692.284	6531
1694.447	6558
1696.611	6488
1698.772	6494
1700.935	6534
1703.098	6469
1705.258	6465
1707.417	6417
1709.576	6629
1711.736	6284
1713.896	6512
1716.053	6303
1718.21	6393
1720.366	6308
1722.522	6476
1724.68	6290
1726.835	6410
1728.989	6279
1731.142	6430
1733.295	6314
1735.449	6329
1737.601	6388
1739.753	6280
1741.903	6381
1744.054	6460
1746.203	6349
1748.354	6367
1750.503	6371
1752.651	6313
1754.798	6474
1756.944	6365
1759.092	6443
1761.238	6417
1763.383	6408
1765.528	6379
1767.672	6383
1769.814	6419
1771.959	6319
1774.102	6358
1776.242	6392
1778.384	6505
1780.525	6534
1782.665	6410
1784.805	6438
1786.945	6470
1789.082	6364
1791.22	6424
1793.36	6491
1795.495	6467
1797.632	6508
1799.766	6500
1801.902	6487
1804.035	6360
1806.172	6371
1808.304	6401
1810.436	6435
1812.569	6405
1814.699	6425
1816.833	6500
1818.963	6385
1821.092	6430
1823.222	6410
1825.35	6435
1827.478	6405
1829.608	6396
1831.734	6429
1833.86	6385
1835.986	6436
1838.11	6436
1840.238	6427
1842.362	6429
1844.485	6324
1846.608	6410
1848.73	6363
1850.853	6344
1852.974	6359
1855.097	6337
1857.217	6364
1859.336	6313
1861.455	6268
1863.576	6365
1865.693	6347
1867.811	6365
1869.926	6194
1872.042	6419
1874.16	6349
1876.275	6467
1878.39	6208
1880.504	6408
1882.618	6477
1884.731	6400
1886.843	6297
1888.956	6374
1891.067	6360
1893.178	6458
1895.287	6425
1897.399	6485
1899.508	6325
1901.617	6435
1903.724	6389
1905.832	6353
1907.941	6317
1910.046	6377
1912.152	6451
1914.256	6438
1916.361	6413
1918.464	6415
1920.57	6466
1922.672	6394
1924.775	6530
1926.876	6443
1928.978	6452
1931.08	6430
1933.181	6571
1935.28	6456
1937.38	6562
1939.478	6373
1941.577	6501
1943.675	6568
1945.771	6623
1947.867	6428
1949.964	6442
1952.058	6405
1954.154	6460
1956.248	6489
1958.343	6359
1960.435	6316
1962.527	6438
1964.62	6384
1966.711	6378
1968.802	6460
1970.892	6306
1972.983	6446
1975.072	6416
1977.162	6435
1979.25	6371
1981.337	6393
1983.424	6390
1985.51	6445
1987.598	6443
1989.683	6393
1991.768	6433
1993.852	6394
1995.934	6403
1998.019	6469
2000.102	6292
2002.184	6375
2004.266	6395
2006.347	6328
2008.427	6343
2010.508	6321
2012.587	6312
2014.666	6441
2016.745	6365
2018.821	6395
2020.9	6381
2022.977	6309
2025.052	6451
2027.128	6497
2029.204	6331
2031.277	6371
2033.353	6373
2035.425	6353
2037.499	6420
2039.57	6401
2041.642	6383
2043.714	6338
2045.786	6295
2047.855	6347
2049.925	6258
2051.993	6346
2054.064	6517
2056.132	6327
2058.2	6364
2060.266	6300
2062.332	6369
2064.398	6265
2066.465	6475
2068.529	6439
2070.592	6408
2072.657	6278
2074.719	6321
2076.783	6359
2078.845	6368
2080.907	6360
2082.968	6333
2085.028	6450
2087.087	6344
2089.148	6386
2091.207	6302
2093.264	6401
2095.322	6427
2097.379	6296
2099.439	6326
2101.495	6416
2103.55	6338
2105.605	6381
2107.658	6343
2109.713	6323
2111.767	6363
2113.82	6329
2115.872	6374
2117.924	6260
2119.975	6269
2122.028	6218
2124.078	6384
2126.126	6341
2128.176	6146
2130.225	6307
2132.275	6299
2134.321	6357
2136.368	6264
2138.415	6305
2140.461	6353
2142.505	6246
2144.552	6258
2146.597	6429
2148.64	6331
2150.684	6258
2152.725	6278
2154.77	6304
2156.811	6361
2158.852	6264
2160.894	6247
2162.933	6252
2164.973	6218
2167.013	6264
2169.051	6172
2171.089	6284
2173.126	6293
2175.164	6361
2177.201	6241
2179.236	6279
2181.273	6361
2183.307	6324
2185.341	6173
2187.377	6125
2189.41	6244
2191.442	6345
2193.473	6168
2195.506	6163
2197.539	6263
2199.569	6269
2201.598	6148
2203.628	6088
2205.656	6229
2207.686	6224
2209.716	6182
2211.743	6190
2213.769	6177
2215.796	6181
2217.821	6193
2219.848	6131
2221.873	6090
2223.897	6216
2225.921	6193
2227.944	6283
2229.967	6113
2231.991	6049
2234.011	6292
2236.032	6096
2238.053	6147
2240.073	6084
2242.094	6047
2244.114	6162
2246.131	6119
2248.149	6005
2250.167	6125
2252.186	6118
2254.201	6046
2256.218	6123
2258.233	6202
2260.247	6070
2262.262	6154
2264.278	6087
2266.29	6140
2268.303	6238
2270.315	6039
2272.327	6143
2274.341	6171
2276.35	6052
2278.361	6166
2280.37	6019
2282.38	6170
2284.388	6095
2286.397	6153
2288.405	6059
2290.412	6192
2292.419	6094
2294.425	6097
2296.431	6087
2298.437	6081
2300.441	6185
2302.445	6082
2304.449	6076
2306.453	6156
2308.455	6086
2310.457	6062
2312.459	6038
2314.46	6116
2316.46	6150
2318.461	5993
2320.46	5963
2322.458	6108
2324.458	6002
2326.456	6130
2328.455	5999
2330.451	5985
2332.447	5989
2334.443	6055
2336.438	6095
2338.433	6008
2340.429	5976
2342.422	6012
2344.416	6008
2346.408	5987
2348.399	6065
2350.393	5984
2352.384	6092
2354.375	6032
2356.365	5983
2358.355	5818
2360.344	6030
2362.333	6062
2364.322	5910
2366.309	6012
2368.295	5983
2370.282	5998
2372.27	6011
2374.256	5835
2376.24	5928
2378.225	5947
2380.208	5967
2382.194	5909
2384.177	5956
2386.159	5919
2388.142	5936
2390.122	5816
2392.105	5925
2394.085	5838
2396.066	5911
2398.044	5894
2400.024	5899
2402.002	5913
2403.982	5990
2405.959	5879
2407.935	5950
2409.913	5854
2411.888	5925
2413.865	5949
2415.84	5897
2417.814	5908
2419.788	5963
2421.762	5899
2423.735	5881
2425.708	5927
2427.68	5876
2429.651	5887
2431.623	5956
2433.593	5856
2435.564	5839
2437.533	6006
2439.502	5892
2441.47	5814
2443.438	5943
2445.406	5814
2447.373	5855
2449.34	6021
2451.305	5859
2453.271	5861
2455.235	5790
2457.201	5839
2459.165	5838
2461.129	5914
2463.092	5732
2465.054	5781
2467.018	5777
2468.978	5811
2470.939	5810
2472.899	5862
2474.86	5878
2476.819	5820
2478.778	5893
2480.737	5829
2482.695	5805
2484.653	5803
2486.609	5785
2488.567	5769
2490.524	5796
2492.478	5704
2494.433	5782
2496.387	5785
2498.343	5677
2500.297	5808
2502.249	5801
2504.202	5732
2506.153	5744
2508.105	5676
2510.057	5754
2512.008	5817
2513.957	5767
2515.906	5749
2517.855	5804
2519.805	5787
2521.754	5760
2523.7	5686
2525.647	5864
2527.594	5721
2529.54	5745
2531.486	5828
2533.431	5753
2535.376	5788
2537.32	5588
2539.263	5738
2541.207	5663
2543.151	5767
2545.093	5735
2547.034	5687
2548.975	5779
2550.917	5609
2552.856	5602
2554.796	5779
2556.735	5617
2558.673	5769
2560.611	5718
2562.55	5634
2564.487	5827
2566.424	5742
2568.36	5688
2570.296	5596
2572.232	5706
2574.167	5688
2576.101	5693
2578.035	5699
2579.969	5671
2581.902	5719
2583.834	5713
2585.766	5695
2587.698	5693
2589.628	5693
2591.557	5754
2593.489	5809
2595.419	5663
2597.348	5650
2599.275	5748
2601.204	5765
2603.131	5622
2605.059	5686
2606.986	5655
2608.911	5670
2610.837	5751
2612.76	5619
2614.687	5724
2616.61	5742
2618.534	5738
2620.457	5757
2622.38	5674
2624.302	5725
2626.225	5764
2628.145	5577
2630.067	5817
2631.986	5768
2633.906	5710
2635.827	5724
2637.745	5779
2639.662	5712
2641.581	5675
2643.498	5744
2645.415	5665
2647.331	5723
2649.248	5738
2651.163	5679
2653.077	5797
2654.993	5687
2656.906	5709
2658.821	5766
2660.733	5694
2662.646	5727
2664.557	5682
2666.47	5707
2668.381	5694
2670.291	5656
2672.201	5631
2674.11	5778
2676.021	5691
2677.929	5659
2679.837	5678
2681.745	5651
2683.652	5704
2685.56	5722
2687.466	5690
2689.371	5669
2691.276	5658
2693.181	5626
2695.085	5612
2696.991	5668
2698.893	5660
2700.796	5609
2702.698	5575
2704.601	5674
2706.502	5584
2708.404	5568
2710.304	5642
2712.203	5728
2714.103	5622
2716.003	5529
2717.902	5500
2719.8	5413
2721.697	5600
2723.594	5592
2725.49	5543
2727.389	5582
2729.283	5683
2731.179	5589
2733.073	5684
2734.968	5599
2736.863	5507
2738.757	5611
2740.649	5612
2742.541	5594
2744.433	5493
2746.324	5504
2748.216	5539
2750.107	5640
2751.997	5571
2753.886	5617
2755.776	5601
2757.666	5601
2759.553	5643
2761.44	5517
2763.327	5605
2765.215	5465
2767.102	5535
2768.988	5513
2770.873	5532
2772.757	5516
2774.641	5476
2776.525	5467
2778.41	5570
2780.292	5473
2782.175	5507
2784.057	5498
2785.938	5525
2787.821	5580
2789.701	5475
2791.581	5468
2793.461	5508
2795.34	5432
2797.219	5509
2799.099	5535
2800.975	5492
2802.853	5425
2804.73	5428
2806.606	5492
2808.484	5376
2810.358	5459
2812.233	5421
2814.108	5414
2815.981	5422
2817.857	5410
2819.73	5404
2821.602	5537
2823.474	5456
2825.346	5417
2827.217	5457
2829.089	5436
2830.959	5520
2832.829	5491
2834.698	5525
2836.567	5384
2838.436	5427
2840.305	5487
2842.172	5543
2844.04	5399
2845.905	5602
2847.772	5449
2849.639	5534
2851.503	5361
2853.369	5490
2855.232	5490
2857.096	5448
2858.961	5545
2860.824	5467
2862.686	5485
2864.547	5622
2866.41	5593
2868.272	5565
2870.132	5635
2871.992	5638
2873.851	5724
2875.711	5819
2877.57	5802
2879.429	5877
2881.287	5812
2883.144	5792
2885.001	5818
2886.857	5891
2888.714	5870
2890.57	5880
2892.425	5858
2894.279	5824
2896.133	5855
2897.987	5935
2899.842	5866
2901.694	5807
2903.547	5784
2905.397	5736
2907.249	5907
2909.101	5860
2910.952	5945
2912.802	5980
2914.652	5923
2916.5	6015
2918.35	6041
2920.198	6105
2922.045	5947
2923.893	6114
2925.74	6172
2927.585	6169
2929.433	6227
2931.279	6183
2933.123	6361
2934.968	6347
2936.811	6464
2938.656	6478
2940.5	6413
2942.342	6623
2944.185	6555
2946.026	6529
2947.87	6541
2949.71	6638
2951.549	6517
2953.39	6525
2955.229	6375
2957.069	6418
2958.908	6294
2960.746	6320
2962.584	6265
2964.421	6086
2966.257	6096
2968.094	6094
2969.931	6082
2971.766	6143
2973.601	5997
2975.435	5919
2977.27	5970
2979.105	5948
2980.938	5935
2982.77	5892
2984.602	5915
2986.434	5969
2988.267	5821
2990.097	5817
2991.927	5826
2993.757	5802
2995.587	5699
2997.417	5587
2999.246	5615
3001.074	5668
3002.902	5586
3004.729	5542
3006.556	5438
3008.384	5408
3010.21	5442
3012.036	5297
3013.861	5328
3015.684	5215
3017.51	5315
3019.334	5177
3021.157	5290
3022.981	5234
3024.802	5138
3026.624	5262
3028.448	5239
3030.267	5066
3032.088	5202
3033.909	5216
3035.728	5123
3037.549	5058
3039.368	5086
3041.186	5083
3043.004	5158
3044.821	5168
3046.64	5037
3048.455	5208
3050.272	5033
3052.087	5188
3053.903	5137
3055.717	5030
3057.534	5081
3059.347	4981
3061.16	5105
3062.974	4990
3064.785	5096
3066.598	5079
3068.411	5087
3070.222	5046
3072.032	5073
3073.844	5192
3075.653	4954
3077.463	5056
3079.272	4968
3081.08	4977
3082.889	5039
3084.697	4966
3086.505	5036
3088.312	4873
3090.118	5035
3091.924	4860
3093.729	4929
3095.535	4905
3097.34	4912
3099.144	4899
3100.947	4867
3102.75	4949
3104.553	4977
3106.357	4813
3108.159	4871
3109.961	4954
3111.762	4847
3113.562	4919
3115.365	4848
3117.164	4935
3118.964	4846
3120.761	4829
3122.56	4888
3124.36	4884
3126.158	4762
3127.954	4879
3129.75	4783
3131.547	4895
3133.343	4767
3135.139	4866
3136.934	4825
3138.729	4756
3140.522	4762
3142.317	4828
3144.11	4913
3145.904	4849
3147.695	4771
3149.488	4695
3151.28	4795
3153.07	4789
3154.863	4803
3156.652	4768
3158.441	4797
3160.231	4737
3162.019	4739
3163.81	4770
3165.597	4765
3167.384	4713
3169.172	4797
3170.958	4771
3172.745	4702
3174.532	4744
3176.317	4742
3178.101	4772
3179.885	4675
3181.67	4841
3183.455	4771
3185.238	4705
3187.02	4690
3188.802	4676
3190.585	4729
3192.368	4726
3194.149	4696
3195.929	4824
3197.709	4659
3199.489	4600
3201.268	4606
3203.048	4731
3204.826	4729
3206.604	4672
3208.382	4684
3210.159	4661
3211.937	4739
3213.713	4681
3215.489	4740
3217.263	4646
3219.038	4661
3220.815	4699
3222.589	4650
3224.363	4654
3226.136	4717
3227.908	4711
3229.681	4625
3231.454	4641
3233.226	4768
3234.996	4729
3236.767	4635
3238.538	4625
3240.308	4682
3242.078	4698
3243.847	4680
3245.615	4613
3247.384	4596
3249.15	4672
3250.92	4654
3252.686	4623
3254.453	4713
3256.218	4672
3257.984	4655
3259.75	4608
3261.515	4636
3263.279	4645
3265.044	4639
3266.806	4641
3268.57	4746
3270.334	4672
3272.095	4694
3273.856	4696
3275.619	4684
3277.379	4708
3279.14	4716
3280.9	4679
3282.661	4688
3284.419	4717
3286.178	4741
3287.937	4668
3289.695	4708
3291.453	4669
3293.21	4656
3294.967	4680
3296.723	4603
3298.48	4653
3300.235	4705
3301.99	4604
3303.744	4648
3305.498	4694
3307.253	4643
3309.006	4582
3310.759	4662
3312.511	4697
3314.263	4713
3316.017	4673
3317.768	4596
3319.519	4666
3321.268	4625
3323.018	4707
3324.767	4609
3326.518	4623
3328.267	4657
3330.014	4677
3331.762	4738
3333.509	4656
3335.258	4626
3337.003	4602
3338.75	4620
3340.496	4599
3342.24	4673
3343.987	4536
3345.732	4679
3347.475	4589
3349.219	4561
3350.961	4559
3352.705	4669
3354.448	4558
3356.19	4597
3357.931	4652
3359.672	4620
3361.412	4578
3363.155	4526
3364.894	4554
3366.633	4533
3368.372	4487
3370.11	4580
3371.849	4508
3373.588	4498
3375.325	4429
3377.061	4521
3378.799	4521
3380.534	4469
3382.271	4501
3384.006	4508
3385.741	4486
3387.475	4493
3389.209	4465
3390.944	4468
3392.677	4549
3394.409	4489
3396.143	4428
3397.874	4442
3399.606	4435
3401.338	4367
3403.069	4437
3404.799	4475
3406.528	4498
3408.258	4368
3409.988	4530
3411.717	4542
3413.445	4520
3415.173	4519
3416.899	4427
3418.626	4349
3420.354	4340
3422.08	4484
3423.806	4413
3425.531	4412
3427.255	4295
3428.981	4310
3430.705	4364
3432.429	4375
3434.151	4331
3435.875	4311
3437.599	4330
3439.321	4336
3441.042	4413
3442.763	4311
3444.483	4320
3446.204	4344
3447.926	4451
3449.645	4276
3451.364	4312
3453.082	4375
3454.801	4361
3456.52	4411
3458.238	4295
3459.954	4371
3461.671	4336
3463.387	4271
3465.104	4253
3466.82	4241
3468.534	4201
3470.25	4242
3471.963	4330
3473.676	4248
3475.392	4212
3477.104	4116
3478.817	4164
3480.528	4174
3482.241	4140
3483.954	4223
3485.664	4230
3487.374	4155
3489.084	4234
3490.795	4125
3492.504	4240
3494.214	4192
3495.922	4127
3497.63	4161
3499.338	4169
3501.045	4124
3502.753	4137
3504.459	4146
3506.166	4134
3507.871	4120
3509.576	4179
3511.283	4129
3512.987	4108
3514.691	4191
3516.395	4189
3518.098	4133
3519.8	4169
3521.504	4094
3523.206	4142
3524.908	4061
3526.609	3975
3528.309	4101
3530.011	4063
3531.711	4008
3533.411	4080
3535.109	4116
3536.808	4062
3538.507	4063
3540.206	4044
3541.904	3973
3543.601	3985
3545.297	4086
3546.994	3992
3548.69	3970
3550.387	4004
3552.081	4042
3553.776	3937
3555.47	4014
3557.166	3999
3558.859	4032
3560.553	3921
3562.245	4012
3563.938	4011
3565.629	3878
3567.322	3928
3569.014	3953
3570.704	3947
3572.394	4007
3574.084	3987
3575.775	4073
3577.464	4010
3579.152	3859
3580.842	3946
3582.529	3898
3584.216	3916
3585.905	3894
3587.591	3986
3589.279	3795
3590.964	3927
3592.649	3933
3594.336	3885
3596.021	3953
3597.705	3821
3599.388	3863
3601.072	3831
3602.757	3852
3604.439	3867
3606.122	3852
3607.803	3897
3609.485	3819
3611.167	3785
3612.849	3822
3614.529	3826
3616.208	3846
3617.888	3819
3619.567	3865
3621.247	3809
3622.926	3836
3624.603	3740
3626.281	3808
3627.958	3865
3629.635	3787
3631.312	3769
3632.989	3789
3634.665	3714
3636.339	3814
3638.014	3731
3639.691	3706
3641.364	3810
3643.038	3768
3644.71	3757
3646.384	3779
3648.058	3649
3649.729	3658
3651.402	3624
3653.073	3767
3654.744	3709
3656.414	3659
3658.085	3647
3659.755	3626
3661.424	3624
3663.094	3588
3664.762	3692
3666.431	3697
3668.099	3619
3669.766	3614
3671.433	3726
3673.099	3640
3674.768	3605
3676.433	3651
3678.098	3629
3679.763	3608
3681.428	3564
3683.093	3668
3684.757	3650
3686.421	3584
3688.083	3634
3689.746	3591
3691.408	3686
3693.071	3625
3694.733	3637
3696.394	3521
3698.054	3603
3699.715	3574
3701.375	3590
3703.036	3500
3704.695	3636
3706.354	3536
3708.012	3583
3709.67	3579
3711.329	3595
3712.987	3614
3714.644	3603
3716.299	3499
3717.955	3630
3719.613	3601
3721.268	3553
3722.923	3604
3724.577	3601
3726.231	3587
3727.885	3564
3729.539	3478
3731.192	3548
3732.845	3510
3734.497	3557
3736.149	3463
3737.802	3537
3739.453	3471
3741.104	3528
3742.753	3456
3744.404	3557
3746.052	3487
3747.704	3559
3749.352	3544
3751	3557
3752.648	3460
3754.296	3503
3755.944	3591
3757.59	3466
3759.238	3423
3760.883	3444
3762.528	3507
3764.176	3449
3765.82	3458
3767.464	3489
3769.109	3507
3770.753	3465
3772.396	3454
3774.04	3467
3775.683	3323
3777.325	3449
3778.967	3454
3780.608	3503
3782.25	3420
3783.89	3348
3785.531	3439
3787.17	3388
3788.81	3531
3790.45	3388
3792.09	3439
3793.729	3385
3795.366	3381
3797.003	3396
3798.64	3426
3800.278	3337
3801.915	3400
3803.551	3375
3805.187	3305
3806.822	3407
3808.458	3396
3810.093	3312
3811.726	3440
3813.36	3385
3814.994	3314
3816.627	3342
3818.262	3349
3819.893	3379
3821.525	3345
3823.157	3362
3824.787	3357
3826.42	3362
3828.051	3331
3829.68	3350
3831.31	3387
3832.938	3382
3834.569	3339
3836.198	3230
3837.825	3332
3839.454	3289
3841.08	3284
3842.708	3267
3844.335	3366
3845.962	3275
3847.587	3345
3849.212	3358
3850.838	3272
3852.463	3347
3854.089	3241
3855.712	3298
3857.335	3277
3858.959	3223
3860.582	3272
3862.205	3306
3863.827	3307
3865.449	3317
3867.07	3260
3868.691	3208
3870.312	3286
3871.933	3268
3873.553	3243
3875.173	3244
3876.792	3232
3878.411	3140
3880.03	3207
3881.647	3224
3883.265	3208
3884.882	3340
3886.499	3233
3888.116	3159
3889.732	3317
3891.348	3306
3892.964	3183
3894.579	3167
3896.195	3197
3897.809	3201
3899.423	3203
3901.036	3264
3902.648	3210
3904.261	3202
3905.875	3221
3907.487	3225
3909.099	3190
3910.709	3209
3912.321	3176
3913.933	3215
3915.542	3245
3917.152	3159
3918.762	3158
3920.37	3151
3921.98	3139
3923.589	3132
3925.196	3208
3926.804	3150
3928.41	3210
3930.018	3148
3931.626	3195
3933.231	3159
3934.838	3152
3936.442	3239
3938.046	3159
3939.653	3225
3941.257	3169
3942.861	3105
3944.464	3208
3946.068	3175
3947.67	3173
3949.273	3103
3950.876	3175
3952.477	3116
3954.078	3186
3955.678	3137
3957.281	3046
3958.881	3132
3960.48	3119
3962.079	3110
3963.678	3124
3965.279	3063
3966.877	3126
3968.475	3137
3970.072	3110
3971.669	3203
3973.266	3046
3974.864	3059
3976.459	3065
3978.055	3045
3979.65	3071
3981.245	3054
3982.841	3033
3984.436	3060
3986.03	3055
3987.623	3093
3989.216	3055
3990.809	3072
3992.403	2994
3993.995	2973
3995.586	3085
3997.177	3034
3998.768	3055
4000.361	3014
4001.951	3033
4003.54	3022
4005.13	3041
4006.719	3063
4008.31	2981
4009.897	3008
4011.485	2989
4013.073	3012
4014.66	2952
4016.247	2951
4017.834	2960
4019.421	2987
4021.006	2944
4022.592	3015
4024.178	2943
4025.763	2944
4027.348	2949
4028.932	2995
4030.515	2946
4032.099	2890
4033.682	2953
4035.266	2925
4036.847	2890
4038.429	2889
4040.011	2914
4041.592	2925
4043.173	2929
4044.755	2928
4046.334	2964
4047.913	2899
4049.494	2943
4051.074	2908
4052.652	2884
4054.23	2918
4055.807	2920
4057.385	2854
4058.963	2888
4060.541	2904
4062.117	2842
4063.693	2917
4065.269	2865
4066.844	2815
4068.42	2845
4069.995	2899
4071.569	2883
4073.143	2892
4074.716	2814
4076.291	2930
4077.864	2827
4079.436	2873
4081.009	2780
4082.58	2866
4084.152	2879
4085.723	2839
4087.294	2862
4088.865	2848
4090.435	2850
4092.005	2741
4093.574	2868
4095.143	2852
4096.712	2806
4098.279	2775
4099.848	2817
4101.416	2842
4102.984	2796
4104.55	2865
4106.117	2785
4107.682	2825
4109.248	2787
4110.815	2800
4112.379	2771
4113.945	2823
4115.508	2777
4117.073	2775
4118.637	2823
4120.201	2797
4121.763	2745
4123.325	2779
4124.888	2707
4126.449	2740
4128.013	2741
4129.573	2729
4131.133	2800
4132.694	2804
4134.254	2767
4135.814	2826
4137.374	2815
4138.933	2753
4140.491	2754
4142.049	2738
4143.607	2750
4145.167	2710
4146.724	2783
4148.28	2728
4149.836	2721
4151.392	2766
4152.949	2669
4154.504	2640
4156.059	2681
4157.614	2750
4159.168	2732
4160.723	2743
4162.277	2712
4163.83	2705
4165.383	2776
4166.936	2739
4168.488	2660
4170.041	2697
4171.593	2674
4173.144	2650
4174.695	2697
4176.246	2691
4177.796	2639
4179.346	2704
4180.896	2673
4182.445	2649
4183.994	2598
4185.542	2658
4187.091	2591
4188.639	2583
4190.185	2634
4191.732	2646
4193.279	2628
4194.826	2664
4196.373	2639
4197.918	2625
4199.463	2648
4201.008	2590
4202.553	2624
4204.098	2618
4205.641	2656
4207.185	2614
4208.728	2557
4210.271	2588
4211.814	2578
4213.357	2634
4214.898	2598
4216.439	2562
4217.98	2600
4219.522	2569
4221.062	2564
4222.603	2530
4224.142	2570
4225.681	2571
4227.222	2656
4228.76	2660
4230.298	2659
4231.835	2598
4233.373	2573
4234.911	2586
4236.449	2555
4237.985	2544
4239.521	2609
4241.057	2547
4242.592	2600
4244.128	2546
4245.663	2517
4247.197	2542
4248.731	2595
4250.265	2551
4251.798	2511
4253.333	2531
4254.865	2549
4256.397	2606
4257.93	2521
4259.461	2572
4260.994	2539
4262.525	2535
4264.056	2502
4265.586	2605
4267.115	2521
4268.646	2595
4270.176	2491
4271.705	2486
4273.232	2494
4274.761	2558
4276.289	2518
4277.818	2562
4279.345	2503
4280.872	2461
4282.399	2439
4283.924	2543
4285.452	2484
4286.976	2456
4288.502	2509
4290.026	2431
4291.551	2460
4293.074	2462
4294.6	2501
4296.123	2445
4297.646	2557
4299.168	2429
4300.691	2480
4302.214	2452
4303.736	2416
4305.257	2422
4306.778	2429
4308.299	2471
4309.82	2402
4311.34	2462
4312.86	2421
4314.379	2423
