400.0745	6419
402.597	6588
405.1208	6513
407.6419	6606
410.1623	6583
412.6819	6606
415.201	6671
417.7172	6724
420.2369	6685
422.7538	6931
425.2701	6980
427.7856	6959
430.3005	7097
432.8147	7051
435.3282	6944
437.841	6893
440.3511	6995
442.8625	6874
445.3753	7064
447.8854	6972
450.3927	7005
452.9014	7048
455.4073	6954
457.9146	6990
460.4233	6979
462.9272	6893
465.4325	7017
467.935	7014
470.4389	7026
472.9421	7063
475.4446	7021
477.9444	7055
480.4456	7067
482.944	7068
485.4417	7097
487.9429	7036
490.4393	7154
492.935	7172
495.4321	7123
497.9264	7116
500.4221	7140
502.9171	7146
505.4094	7194
507.9011	7240
510.392	7300
512.8864	7185
515.3759	7447
517.8649	7310
520.3531	7218
522.8406	7340
525.3275	7266
527.8178	7278
530.3033	7227
532.7881	7181
535.2723	7313
537.7558	7298
540.2407	7262
542.7228	7403
545.2043	7209
547.6851	7344
550.1652	7422
552.6467	7380
555.1255	7251
557.6016	7323
560.079	7502
562.5557	7427
565.0318	7377
567.5092	7384
569.984	7500
572.456	7426
574.9294	7589
577.4022	7492
579.8762	7518
582.3456	7740
584.8163	7682
587.2863	7738
589.7557	7807
592.2224	7731
594.6924	7632
597.1578	7654
599.6245	7653
602.0905	7544
604.5538	7574
607.0206	7650
609.4825	7525
611.9459	7583
614.4066	7521
616.8686	7556
619.33	7626
621.7906	7508
624.2487	7638
626.708	7622
629.1647	7498
631.6207	7627
634.0801	7460
636.5348	7514
638.9888	7627
641.4442	7518
643.8969	7695
646.3509	7501
648.8022	7601
651.255	7756
653.705	7639
656.1544	7821
658.6031	7744
661.0532	7642
663.5026	7798
665.9493	7634
668.3954	7757
670.8409	7923
673.2877	7683
675.7318	7815
678.1752	7747
680.618	7866
683.0601	7807
685.5035	7848
687.9444	7813
690.3845	7886
692.824	7918
695.2628	7872
697.701	7864
700.1406	7933
702.5774	8012
705.0116	7965
707.4472	7992
709.8821	7887
712.3183	8042
714.7519	7938
717.1829	7980
719.6151	8173
722.0468	7955
724.4777	8047
726.908	8205
729.3377	8092
731.7667	8086
734.1931	8199
736.6208	8237
739.0498	8220
741.4742	8276
743.9	8253
746.3231	8249
748.7476	8296
751.1713	8198
753.5945	8337
756.015	8315
758.4368	8349
760.856	8384
763.2766	8474
765.6965	8303
768.1157	8325
770.5323	8350
772.9483	8511
775.3656	8392
777.7822	8505
780.1963	8371
782.6116	8464
785.0244	8508
787.4365	8554
789.8499	8502
792.2626	8459
794.6728	8438
797.0823	8357
799.4911	8528
801.8994	8473
804.3109	8413
806.7178	8521
809.124	8528
811.5297	8641
813.9347	8543
816.341	8509
818.7447	8643
821.1478	8611
823.5502	8574
825.952	8536
828.3531	8543
830.7556	8458
833.1554	8553
835.5546	8644
837.9532	8485
840.3511	8644
842.7504	8673
845.1451	8636
847.5411	8767
849.9365	8666
852.3312	8814
854.7272	8889
857.1187	8711
859.5115	8732
861.9037	8681
864.2952	8804
866.6842	8641
869.0764	8918
871.4661	8593
873.8531	8785
876.2415	8695
878.6272	8679
881.0162	8812
883.4026	8693
885.7866	8629
888.1717	8804
890.5543	8766
892.9382	8809
895.3215	8646
897.7041	8698
900.0842	8814
902.4655	8673
904.8443	8726
907.2244	8786
909.6039	8780
911.9808	8740
914.357	8818
916.7346	8788
919.1115	8782
921.4859	8979
923.8616	8999
926.2347	9028
928.6071	9034
930.979	9091
933.3541	9059
935.7247	9137
938.0946	9193
940.4639	9340
942.8326	9422
945.2026	9431
947.5701	9610
949.9369	9797
952.305	10068
954.6705	10262
957.0355	10873
959.4017	10950
961.7654	11191
964.1284	11026
966.4908	10882
968.8527	10375
971.2138	10148
973.5743	9763
975.9343	9431
978.2936	9297
980.6522	9144
983.0122	9062
985.3696	8886
987.7245	9026
990.0807	8893
992.4362	8873
994.7911	9043
997.1474	8959
999.4991	9008
1001.852	9160
1004.205	9124
1006.555	8985
1008.908	9074
1011.258	9064
1013.606	8993
1015.956	9172
1018.302	9031
1020.652	9206
1022.998	9199
1025.345	9072
1027.691	9092
1030.035	9300
1032.378	9092
1034.724	9101
1037.066	9239
1039.409	9184
1041.75	9160
1044.092	9205
1046.433	9290
1048.771	9234
1051.112	9187
1053.449	9075
1055.786	9204
1058.124	9230
1060.462	9285
1062.797	9145
1065.131	9196
1067.467	9395
1069.8	9382
1072.135	9403
1074.467	9342
1076.798	9369
1079.129	9462
1081.459	9348
1083.792	9402
1086.121	9127
1088.449	9276
1090.777	9220
1093.104	9108
1095.431	9221
1097.759	9247
1100.084	9177
1102.408	9206
1104.732	9225
1107.056	9305
1109.379	9218
1111.701	9308
1114.022	9233
1116.343	9095
1118.664	9216
1120.983	9253
1123.303	9226
1125.621	9221
1127.939	9180
1130.256	9385
1132.573	9290
1134.889	9380
1137.205	9199
1139.52	9229
1141.832	9167
1144.146	9185
1146.461	9193
1148.771	9219
1151.083	9235
1153.392	9244
1155.703	9239
1158.011	9237
1160.323	9274
1162.629	9282
1164.938	9330
1167.243	9242
1169.55	9213
1171.857	9260
1174.163	9213
1176.466	9185
1178.769	9225
1181.073	9434
1183.374	9261
1185.677	9255
1187.979	9199
1190.279	9203
1192.578	9293
1194.878	9235
1197.178	9182
1199.476	9271
1201.772	9250
1204.068	9267
1206.366	9250
1208.663	9273
1210.957	9242
1213.251	9285
1215.544	9268
1217.836	9273
1220.128	9363
1222.421	9230
1224.712	9241
1227.002	9472
1229.292	9448
1231.581	9350
1233.871	9650
1236.159	9557
1238.446	9375
1240.732	9534
1243.018	9619
1245.304	9589
1247.59	9645
1249.874	9606
1252.156	9444
1254.439	9556
1256.721	9520
1259.005	9530
1261.286	9610
1263.565	9642
1265.845	9640
1268.125	9558
1270.403	9527
1272.682	9543
1274.959	9773
1277.234	9518
1279.511	9500
1281.787	9489
1284.062	9454
1286.337	9525
1288.609	9507
1290.882	9452
1293.153	9522
1295.428	9584
1297.698	9548
1299.969	9448
1302.237	9567
1304.507	9464
1306.777	9371
1309.044	9392
1311.312	9494
1313.578	9476
1315.844	9577
1318.109	9418
1320.375	9398
1322.638	9320
1324.903	9387
1327.165	9251
1329.427	9384
1331.69	9558
1333.952	9388
1336.212	9401
1338.471	9420
1340.73	9481
1342.988	9309
1345.248	9397
1347.505	9344
1349.763	9494
1352.019	9441
1354.274	9387
1356.53	9375
1358.784	9414
1361.038	9370
1363.291	9382
1365.543	9364
1367.797	9399
1370.048	9363
1372.296	9423
1374.546	9315
1376.796	9369
1379.045	9430
1381.295	9345
1383.542	9534
1385.787	9492
1388.034	9414
1390.28	9519
1392.527	9443
1394.772	9419
1397.014	9443
1399.258	9362
1401.501	9612
1403.741	9510
1405.985	9635
1408.226	9563
1410.465	9501
1412.705	9544
1414.943	9507
1417.184	9537
1419.42	9754
1421.658	9526
1423.894	9628
1426.13	9566
1428.366	9685
1430.602	9584
1432.835	9674
1435.069	9708
1437.301	9715
1439.535	9634
1441.767	9836
1443.997	9853
1446.229	9859
1448.458	9909
1450.687	9870
1452.916	9855
1455.146	9942
1457.372	9894
1459.599	9898
1461.824	9749
1464.051	9721
1466.277	9841
1468.501	9730
1470.725	9875
1472.948	9635
1475.17	9587
1477.393	9682
1479.614	9542
1481.837	9613
1484.057	9436
1486.276	9552
1488.497	9420
1490.715	9542
1492.932	9441
1495.148	9469
1497.364	9444
1499.58	9571
1501.798	9343
1504.012	9489
1506.227	9318
1508.44	9378
1510.653	9261
1512.866	9352
1515.078	9268
1517.289	9312
1519.5	9248
1521.711	9394
1523.92	9371
1526.13	9207
1528.338	9333
1530.544	9379
1532.752	9257
1534.959	9335
1537.165	9316
1539.371	9460
1541.574	9453
1543.779	9278
1545.983	9532
1548.187	9395
1550.39	9482
1552.59	9297
1554.792	9518
1556.991	9449
1559.19	9662
1561.392	9534
1563.59	9572
1565.789	9442
1567.986	9658
1570.182	9680
1572.381	9590
1574.576	9650
1576.771	9633
1578.966	9624
1581.16	9571
1583.354	9541
1585.546	9621
1587.74	9598
1589.931	9626
1592.121	9631
1594.311	9620
1596.502	9605
1598.693	9754
1600.881	9657
1603.069	9606
1605.256	9664
1607.445	9643
1609.631	9714
1611.816	9600
1614.001	9655
1616.186	9776
1618.37	9682
1620.555	9741
1622.737	9665
1624.919	9790
1627.101	9664
1629.282	9755
1631.463	9719
1633.643	9862
1635.822	9706
1638.001	9979
1640.179	9805
1642.359	9737
1644.534	9805
1646.711	9971
1648.887	9756
1651.062	9898
1653.235	9709
1655.412	9792
1657.586	9932
1659.757	9844
1661.93	9742
1664.1	9878
1666.274	9907
1668.445	9805
1670.614	9973
1672.784	9897
1674.951	9931
1677.12	10027
1679.289	9955
1681.457	9729
1683.622	9907
1685.789	9765
1687.953	9830
1690.121	9786
1692.284	9633
1694.447	9661
1696.611	9723
1698.772	9743
1700.935	9681
1703.098	9706
1705.258	9715
1707.417	9624
1709.576	9657
1711.736	9706
1713.896	9483
1716.053	9659
1718.21	9591
1720.366	9685
1722.522	9472
1724.68	9699
1726.835	9556
1728.989	9559
1731.142	9664
1733.295	9676
1735.449	9613
1737.601	9600
1739.753	9533
1741.903	9631
1744.054	9637
1746.203	9561
1748.354	9434
1750.503	9637
1752.651	9599
1754.798	9634
1756.944	9547
1759.092	9601
1761.238	9628
1763.383	9738
1765.528	9619
1767.672	9585
1769.814	9660
1771.959	9733
1774.102	9653
1776.242	9710
1778.384	9626
1780.525	9585
1782.665	9635
1784.805	9721
1786.945	9781
1789.082	9703
1791.22	9655
1793.36	9615
1795.495	9784
1797.632	9698
1799.766	9621
1801.902	9639
1804.035	9813
1806.172	9655
1808.304	9678
1810.436	9741
1812.569	9598
1814.699	9739
1816.833	9605
1818.963	9745
1821.092	9622
1823.222	9592
1825.35	9662
1827.478	9766
1829.608	9584
1831.734	9697
1833.86	9589
1835.986	9547
1838.11	9593
1840.238	9703
1842.362	9601
1844.485	9629
1846.608	9520
1848.73	9599
1850.853	9620
1852.974	9576
1855.097	9535
1857.217	9654
1859.336	9535
1861.455	9631
1863.576	9504
1865.693	9516
1867.811	9586
1869.926	9483
1872.042	9427
1874.16	9576
1876.275	9690
1878.39	9525
1880.504	9654
1882.618	9617
1884.731	9641
1886.843	9502
1888.956	9507
1891.067	9655
1893.178	9686
1895.287	9608
1897.399	9586
1899.508	9489
1901.617	9580
1903.724	9558
1905.832	9697
1907.941	9706
1910.046	9660
1912.152	9661
1914.256	9725
1916.361	9510
1918.464	9627
1920.57	9731
1922.672	9632
1924.775	9730
1926.876	9708
1928.978	9726
1931.08	9715
1933.181	9617
1935.28	9825
1937.38	9623
1939.478	9806
1941.577	9808
1943.675	9792
1945.771	9774
1947.867	9706
1949.964	9683
1952.058	9696
1954.154	9678
1956.248	9586
1958.343	9574
1960.435	9709
1962.527	9792
1964.62	9641
1966.711	9835
1968.802	9747
1970.892	9573
1972.983	9686
1975.072	9585
1977.162	9737
1979.25	9545
1981.337	9580
1983.424	9620
1985.51	9692
1987.598	9575
1989.683	9695
1991.768	9573
1993.852	9627
1995.934	9615
1998.019	9659
2000.102	9543
2002.184	9515
2004.266	9545
2006.347	9439
2008.427	9439
2010.508	9513
2012.587	9608
2014.666	9640
2016.745	9399
2018.821	9590
2020.9	9502
2022.977	9540
2025.052	9535
2027.128	9586
2029.204	9493
2031.277	9571
2033.353	9552
2035.425	9628
2037.499	9500
2039.57	9518
2041.642	9417
2043.714	9521
2045.786	9450
2047.855	9444
2049.925	9513
2051.993	9458
2054.064	9604
2056.132	9523
2058.2	9523
2060.266	9656
2062.332	9539
2064.398	9625
2066.465	9570
2068.529	9501
2070.592	9580
2072.657	9453
2074.719	9557
2076.783	9642
2078.845	9544
2080.907	9669
2082.968	9668
2085.028	9598
2087.087	9532
2089.148	9687
2091.207	9620
2093.264	9435
2095.322	9737
2097.379	9664
2099.439	9558
2101.495	9463
2103.55	9536
2105.605	9495
2107.658	9382
2109.713	9561
2111.767	9468
2113.82	9574
2115.872	9470
2117.924	9463
2119.975	9601
2122.028	9506
2124.078	9566
2126.126	9506
2128.176	9498
2130.225	9494
2132.275	9453
2134.321	9408
2136.368	9496
2138.415	9480
2140.461	9475
2142.505	9534
2144.552	9388
2146.597	9627
2148.64	9506
2150.684	9489
2152.725	9339
2154.77	9717
2156.811	9451
2158.852	9467
2160.894	9316
2162.933	9400
2164.973	9365
2167.013	9387
2169.051	9440
2171.089	9422
2173.126	9445
2175.164	9578
2177.201	9220
2179.236	9198
2181.273	9273
2183.307	9476
2185.341	9302
2187.377	9175
2189.41	9474
2191.442	9208
2193.473	9293
2195.506	9265
2197.539	9231
2199.569	9176
2201.598	9087
2203.628	9283
2205.656	9214
2207.686	9275
2209.716	9271
2211.743	9269
2213.769	9145
2215.796	9264
2217.821	9241
2219.848	9159
2221.873	9187
2223.897	9121
2225.921	9272
2227.944	9262
2229.967	9215
2231.991	9103
2234.011	9262
2236.032	9081
2238.053	9108
2240.073	9281
2242.094	9309
2244.114	9179
2246.131	9166
2248.149	9097
2250.167	9180
2252.186	9047
2254.201	9186
2256.218	9211
2258.233	9305
2260.247	9114
2262.262	9149
2264.278	9281
2266.29	9183
2268.303	9219
2270.315	9063
2272.327	9210
2274.341	9201
2276.35	9224
2278.361	8999
2280.37	9141
2282.38	9212
2284.388	9182
2286.397	9202
2288.405	9157
2290.412	9164
2292.419	9169
2294.425	9117
2296.431	9074
2298.437	9150
2300.441	9142
2302.445	9080
2304.449	9142
2306.453	9178
2308.455	9109
2310.457	9013
2312.459	9371
2314.46	9137
2316.46	9120
2318.461	9199
2320.46	9065
2322.458	9061
2324.458	9000
2326.456	9122
2328.455	8980
2330.451	9050
2332.447	9052
2334.443	9088
2336.438	9089
2338.433	8963
2340.429	9059
2342.422	8958
2344.416	8994
2346.408	9004
2348.399	8914
2350.393	8824
2352.384	8963
2354.375	8988
2356.365	8997
2358.355	8902
2360.344	8973
2362.333	8938
2364.322	8967
2366.309	8891
2368.295	8929
2370.282	8766
2372.27	9068
2374.256	8834
2376.24	8939
2378.225	8739
2380.208	8855
2382.194	8936
2384.177	8678
2386.159	8783
2388.142	8804
2390.122	8933
2392.105	8810
2394.085	8934
2396.066	8742
2398.044	8865
2400.024	8846
2402.002	8758
2403.982	8842
2405.959	8842
2407.935	8729
2409.913	8728
2411.888	8847
2413.865	8876
2415.84	8877
2417.814	8797
2419.788	8878
2421.762	8785
2423.735	8705
2425.708	8774
2427.68	8838
2429.651	8878
2431.623	8854
2433.593	8654
2435.564	8675
2437.533	8839
2439.502	8779
2441.47	8720
2443.438	8816
2445.406	8749
2447.373	8788
2449.34	8829
2451.305	8777
2453.271	8795
2455.235	8741
2457.201	8713
2459.165	8757
2461.129	8889
2463.092	8700
2465.054	8755
2467.018	8764
2468.978	8678
2470.939	8603
2472.899	8644
2474.86	8688
2476.819	8675
2478.778	8626
2480.737	8684
2482.695	8644
2484.653	8700
2486.609	8662
2488.567	8657
2490.524	8616
2492.478	8534
2494.433	8803
2496.387	8576
2498.343	8648
2500.297	8560
2502.249	8481
2504.202	8581
2506.153	8701
2508.105	8662
2510.057	8659
2512.008	8582
2513.957	8694
2515.906	8647
2517.855	8544
2519.805	8541
2521.754	8668
2523.7	8543
2525.647	8585
2527.594	8448
2529.54	8528
2531.486	8689
2533.431	8661
2535.376	8584
2537.32	8449
2539.263	8540
2541.207	8605
2543.151	8387
2545.093	8609
2547.034	8452
2548.975	8473
2550.917	8533
2552.856	8545
2554.796	8588
2556.735	8472
2558.673	8486
2560.611	8515
2562.55	8377
2564.487	8534
2566.424	8588
2568.36	8456
2570.296	8413
2572.232	8470
2574.167	8600
2576.101	8431
2578.035	8581
2579.969	8478
2581.902	8491
2583.834	8482
2585.766	8535
2587.698	8490
2589.628	8492
2591.557	8467
2593.489	8547
2595.419	8502
2597.348	8563
2599.275	8518
2601.204	8564
2603.131	8526
2605.059	8534
2606.986	8507
2608.911	8454
2610.837	8500
2612.76	8516
2614.687	8575
2616.61	8558
2618.534	8517
2620.457	8434
2622.38	8594
2624.302	8588
2626.225	8440
2628.145	8612
2630.067	8696
2631.986	8544
2633.906	8537
2635.827	8407
2637.745	8452
2639.662	8477
2641.581	8492
2643.498	8612
2645.415	8569
2647.331	8472
2649.248	8442
2651.163	8626
2653.077	8553
2654.993	8568
2656.906	8486
2658.821	8533
2660.733	8435
2662.646	8431
2664.557	8446
2666.47	8456
2668.381	8503
2670.291	8494
2672.201	8360
2674.11	8500
2676.021	8464
2677.929	8385
2679.837	8476
2681.745	8310
2683.652	8433
2685.56	8324
2687.466	8375
2689.371	8517
2691.276	8463
2693.181	8484
2695.085	8427
2696.991	8180
2698.893	8377
2700.796	8305
2702.698	8427
2704.601	8268
2706.502	8330
2708.404	8376
2710.304	8274
2712.203	8202
2714.103	8304
2716.003	8342
2717.902	8294
2719.8	8270
2721.697	8204
2723.594	8334
2725.49	8285
2727.389	8290
2729.283	8233
2731.179	8286
2733.073	8238
2734.968	8283
2736.863	8221
2738.757	8398
2740.649	8337
2742.541	8205
2744.433	8354
2746.324	8261
2748.216	8293
2750.107	8243
2751.997	8223
2753.886	8332
2755.776	8167
2757.666	8296
2759.553	8166
2761.44	8174
2763.327	8196
2765.215	8316
2767.102	8105
2768.988	8064
2770.873	8180
2772.757	8150
2774.641	8327
2776.525	8264
2778.41	8167
2780.292	8122
2782.175	8149
2784.057	8158
2785.938	8028
2787.821	8115
2789.701	8125
2791.581	8113
2793.461	8189
2795.34	8159
2797.219	8253
2799.099	8130
2800.975	8112
2802.853	8156
2804.73	8043
2806.606	8085
2808.484	8115
2810.358	8008
2812.233	8062
2814.108	8073
2815.981	8059
2817.857	8031
2819.73	8069
2821.602	8104
2823.474	8162
2825.346	8045
2827.217	8019
2829.089	8088
2830.959	8124
2832.829	8171
2834.698	7977
2836.567	7998
2838.436	8085
2840.305	8021
2842.172	8098
2844.04	8134
2845.905	8097
2847.772	7933
2849.639	8058
2851.503	8161
2853.369	8086
2855.232	8067
2857.096	8163
2858.961	8132
2860.824	8316
2862.686	8218
2864.547	8174
2866.41	8370
2868.272	8303
2870.132	8455
2871.992	8503
2873.851	8341
2875.711	8541
2877.57	8451
2879.429	8493
2881.287	8566
2883.144	8780
2885.001	8711
2886.857	8748
2888.714	8744
2890.57	8640
2892.425	8628
2894.279	8542
2896.133	8549
2897.987	8535
2899.842	8625
2901.694	8595
2903.547	8545
2905.397	8649
2907.249	8779
2909.101	8683
2910.952	8565
2912.802	8704
2914.652	8765
2916.5	8870
2918.35	8821
2920.198	9073
2922.045	8901
2923.893	8822
2925.74	9024
2927.585	9148
2929.433	9225
2931.279	9374
2933.123	9416
2934.968	9262
2936.811	9491
2938.656	9532
2940.5	9620
2942.342	9689
2944.185	9829
2946.026	9769
2947.87	9682
2949.71	9636
2951.549	9621
2953.39	9594
2955.229	9434
2957.069	9462
2958.908	9288
2960.746	9198
2962.584	9131
2964.421	9098
2966.257	8888
2968.094	8835
2969.931	8761
2971.766	8909
2973.601	8869
2975.435	8828
2977.27	8919
2979.105	8788
2980.938	8642
2982.77	8724
2984.602	8668
2986.434	8754
2988.267	8636
2990.097	8692
2991.927	8546
2993.757	8533
2995.587	8533
2997.417	8398
2999.246	8246
3001.074	8365
3002.902	8162
3004.729	8113
3006.556	8164
3008.384	7941
3010.21	7877
3012.036	7910
3013.861	7861
3015.684	7758
3017.51	7834
3019.334	7964
3021.157	7780
3022.981	7741
3024.802	7699
3026.624	7611
3028.448	7444
3030.267	7615
3032.088	7618
3033.909	7551
3035.728	7638
3037.549	7593
3039.368	7628
3041.186	7633
3043.004	7538
3044.821	7423
3046.64	7494
3048.455	7581
3050.272	7537
3052.087	7511
3053.903	7505
3055.717	7442
3057.534	7600
3059.347	7531
3061.16	7460
3062.974	7546
3064.785	7544
3066.598	7377
3068.411	7604
3070.222	7455
3072.032	7518
3073.844	7372
3075.653	7547
3077.463	7533
3079.272	7442
3081.08	7460
3082.889	7447
3084.697	7376
3086.505	7415
3088.312	7321
3090.118	7367
3091.924	7306
3093.729	7341
3095.535	7329
3097.34	7249
3099.144	7319
3100.947	7256
3102.75	7230
3104.553	7267
3106.357	7195
3108.159	7282
3109.961	7222
3111.762	7161
3113.562	7209
3115.365	7217
3117.164	7251
3118.964	7178
3120.761	7361
3122.56	7189
3124.36	7121
3126.158	7185
3127.954	7195
3129.75	7112
3131.547	7121
3133.343	7015
3135.139	7113
3136.934	7129
3138.729	7107
3140.522	7200
3142.317	7083
3144.11	7124
3145.904	7187
3147.695	7074
3149.488	6992
3151.28	7161
3153.07	7122
3154.863	6959
3156.652	7104
3158.441	7052
3160.231	7022
3162.019	7001
3163.81	7056
3165.597	7013
3167.384	7060
3169.172	7001
3170.958	7155
3172.745	7014
3174.532	6961
3176.317	7013
3178.101	7045
3179.885	7024
3181.67	6962
3183.455	7013
3185.238	7045
3187.02	7033
3188.802	7012
3190.585	6922
3192.368	6965
3194.149	6886
3195.929	6968
3197.709	6892
3199.489	6922
3201.268	6968
3203.048	7221
3204.826	7015
3206.604	6924
3208.382	6958
3210.159	6939
3211.937	6946
3213.713	6938
3215.489	6908
3217.263	6966
3219.038	7031
3220.815	6908
3222.589	6956
3224.363	6972
3226.136	7027
3227.908	6832
3229.681	6919
3231.454	6936
3233.226	6902
3234.996	6900
3236.767	6976
3238.538	6919
3240.308	6928
3242.078	6984
3243.847	6876
3245.615	6871
3247.384	6943
3249.15	6812
3250.92	6868
3252.686	6876
3254.453	6867
3256.218	6922
3257.984	6849
3259.75	7037
3261.515	6867
3263.279	6941
3265.044	6900
3266.806	6999
3268.57	6886
3270.334	6917
3272.095	6875
3273.856	6839
3275.619	6832
3277.379	6938
3279.14	6886
3280.9	6837
3282.661	6791
3284.419	6899
3286.178	6890
3287.937	6843
3289.695	6864
3291.453	6963
3293.21	6900
3294.967	6964
3296.723	6910
3298.48	6864
3300.235	6947
3301.99	6801
3303.744	6797
3305.498	6888
3307.253	6923
3309.006	6858
3310.759	6928
3312.511	6912
3314.263	6873
3316.017	6859
3317.768	6872
3319.519	6851
3321.268	6823
3323.018	6865
3324.767	6976
3326.518	6907
3328.267	6875
3330.014	6998
3331.762	6808
3333.509	6792
3335.258	6875
3337.003	6894
3338.75	6770
3340.496	6849
3342.24	6871
3343.987	6877
3345.732	6785
3347.475	6742
3349.219	6755
3350.961	6752
3352.705	6901
3354.448	6817
3356.19	6826
3357.931	6719
3359.672	6730
3361.412	6676
3363.155	6830
3364.894	6750
3366.633	6803
3368.372	6699
3370.11	6660
3371.849	6757
3373.588	6745
3375.325	6550
3377.061	6772
3378.799	6569
3380.534	6659
3382.271	6629
3384.006	6579
3385.741	6659
3387.475	6617
3389.209	6662
3390.944	6692
3392.677	6567
3394.409	6667
3396.143	6564
3397.874	6659
3399.606	6623
3401.338	6601
3403.069	6633
3404.799	6600
3406.528	6698
3408.258	6547
3409.988	6567
3411.717	6485
3413.445	6492
3415.173	6602
3416.899	6653
3418.626	6521
3420.354	6580
3422.08	6502
3423.806	6549
3425.531	6572
3427.255	6577
3428.981	6499
3430.705	6545
3432.429	6536
3434.151	6467
3435.875	6496
3437.599	6448
3439.321	6421
3441.042	6569
3442.763	6366
3444.483	6457
3446.204	6269
3447.926	6410
3449.645	6407
3451.364	6320
3453.082	6410
3454.801	6322
3456.52	6338
3458.238	6329
3459.954	6293
3461.671	6348
3463.387	6351
3465.104	6328
3466.82	6194
3468.534	6289
3470.25	6310
3471.963	6271
3473.676	6139
3475.392	6232
3477.104	6188
3478.817	6197
3480.528	6240
3482.241	6139
3483.954	6195
3485.664	6243
3487.374	6156
3489.084	6203
3490.795	6031
3492.504	6235
3494.214	6265
3495.922	6141
3497.63	6192
3499.338	6195
3501.045	6138
3502.753	6174
3504.459	6105
3506.166	6043
3507.871	6067
3509.576	6123
3511.283	6001
3512.987	6072
3514.691	6064
3516.395	5913
3518.098	6099
3519.8	5971
3521.504	6147
3523.206	5951
3524.908	6010
3526.609	6030
3528.309	5825
3530.011	5975
3531.711	5901
3533.411	5954
3535.109	6099
3536.808	6090
3538.507	6078
3540.206	5914
3541.904	5893
3543.601	5977
3545.297	5890
3546.994	6010
3548.69	5996
3550.387	6043
3552.081	5798
3553.776	5853
3555.47	5848
3557.166	5852
3558.859	5870
3560.553	5869
3562.245	5886
3563.938	5935
3565.629	5874
3567.322	5774
3569.014	5745
3570.704	5878
3572.394	5845
3574.084	5943
3575.775	5852
3577.464	5947
3579.152	5852
3580.842	5798
3582.529	5836
3584.216	5788
3585.905	5617
3587.591	5726
3589.279	5713
3590.964	5785
3592.649	5802
3594.336	5732
3596.021	5728
3597.705	5700
3599.388	5793
3601.072	5633
3602.757	5651
3604.439	5660
3606.122	5694
3607.803	5598
3609.485	5554
3611.167	5654
3612.849	5575
3614.529	5646
3616.208	5675
3617.888	5554
3619.567	5564
3621.247	5641
3622.926	5564
3624.603	5444
3626.281	5518
3627.958	5510
3629.635	5501
3631.312	5655
3632.989	5416
3634.665	5426
3636.339	5502
3638.014	5451
3639.691	5424
3641.364	5356
3643.038	5538
3644.71	5496
3646.384	5530
3648.058	5456
3649.729	5551
3651.402	5434
3653.073	5408
3654.744	5412
3656.414	5516
3658.085	5538
3659.755	5444
3661.424	5359
3663.094	5346
3664.762	5359
3666.431	5421
3668.099	5334
3669.766	5310
3671.433	5380
3673.099	5390
3674.768	5320
3676.433	5296
3678.098	5300
3679.763	5265
3681.428	5305
3683.093	5366
3684.757	5350
3686.421	5271
3688.083	5296
3689.746	5230
3691.408	5288
3693.071	5176
3694.733	5281
3696.394	5242
3698.054	5298
3699.715	5309
3701.375	5287
3703.036	5171
3704.695	5220
3706.354	5266
3708.012	5291
3709.67	5170
3711.329	5243
3712.987	5134
3714.644	5279
3716.299	5215
3717.955	5265
3719.613	5265
3721.268	5156
3722.923	5263
3724.577	5181
3726.231	5281
3727.885	5212
3729.539	5186
3731.192	5227
3732.845	5078
3734.497	5139
3736.149	5121
3737.802	5230
3739.453	5278
3741.104	5116
3742.753	5075
3744.404	5161
3746.052	5075
3747.704	5192
3749.352	5121
3751	5193
3752.648	5226
3754.296	5162
3755.944	5135
3757.59	5096
3759.238	5128
3760.883	5108
3762.528	5100
3764.176	5153
3765.82	5076
3767.464	5088
3769.109	4978
3770.753	5086
3772.396	5084
3774.04	4977
3775.683	5143
3777.325	5050
3778.967	5042
3780.608	4995
3782.25	5093
3783.89	4990
3785.531	5054
3787.17	4958
3788.81	5124
3790.45	5061
3792.09	4877
3793.729	5016
3795.366	4934
3797.003	4968
3798.64	5011
3800.278	4959
3801.915	4966
3803.551	5059
3805.187	4940
3806.822	4978
3808.458	4950
3810.093	4811
3811.726	4980
3813.36	5036
3814.994	4931
3816.627	4791
3818.262	4940
3819.893	4935
3821.525	4904
3823.157	4807
3824.787	4873
3826.42	4864
3828.051	4882
3829.68	4819
3831.31	4914
3832.938	4875
3834.569	4815
3836.198	4866
3837.825	4816
3839.454	4829
3841.08	4693
3842.708	4810
3844.335	4804
3845.962	4869
3847.587	4844
3849.212	4771
3850.838	4689
3852.463	4783
3854.089	4759
3855.712	4752
3857.335	4809
3858.959	4792
3860.582	4810
3862.205	4880
3863.827	4754
3865.449	4785
3867.07	4834
3868.691	4753
3870.312	4821
3871.933	4739
3873.553	4735
3875.173	4755
3876.792	4750
3878.411	4643
3880.03	4690
3881.647	4739
3883.265	4726
3884.882	4746
3886.499	4686
3888.116	4687
3889.732	4689
3891.348	4786
3892.964	4670
3894.579	4721
3896.195	4709
3897.809	4713
3899.423	4666
3901.036	4747
3902.648	4728
3904.261	4666
3905.875	4732
3907.487	4683
3909.099	4739
3910.709	4615
3912.321	4722
3913.933	4644
3915.542	4629
3917.152	4713
3918.762	4660
3920.37	4617
3921.98	4683
3923.589	4609
3925.196	4612
3926.804	4668
3928.41	4636
3930.018	4645
3931.626	4614
3933.231	4557
3934.838	4591
3936.442	4664
3938.046	4657
3939.653	4699
3941.257	4529
3942.861	4630
3944.464	4627
3946.068	4644
3947.67	4598
3949.273	4516
3950.876	4668
3952.477	4559
3954.078	4536
3955.678	4520
3957.281	4508
3958.881	4601
3960.48	4543
3962.079	4536
3963.678	4548
3965.279	4534
3966.877	4514
3968.475	4514
3970.072	4516
3971.669	4421
3973.266	4523
3974.864	4585
3976.459	4434
3978.055	4481
3979.65	4435
3981.245	4412
3982.841	4374
3984.436	4462
3986.03	4437
3987.623	4393
3989.216	4396
3990.809	4383
3992.403	4417
3993.995	4323
3995.586	4403
3997.177	4457
3998.768	4352
4000.361	4325
4001.951	4291
4003.54	4427
4005.13	4367
4006.719	4423
4008.31	4357
4009.897	4358
4011.485	4324
4013.073	4373
4014.66	4354
4016.247	4362
4017.834	4379
4019.421	4318
4021.006	4373
4022.592	4311
4024.178	4301
4025.763	4376
4027.348	4365
4028.932	4246
4030.515	4270
4032.099	4206
4033.682	4320
4035.266	4291
4036.847	4301
4038.429	4290
4040.011	4297
4041.592	4323
4043.173	4207
4044.755	4274
4046.334	4203
4047.913	4165
4049.494	4232
4051.074	4161
4052.652	4239
4054.23	4198
4055.807	4223
4057.385	4196
4058.963	4237
4060.541	4173
4062.117	4212
4063.693	4196
4065.269	4218
4066.844	4177
4068.42	4175
4069.995	4166
4071.569	4087
4073.143	4233
4074.716	4212
4076.291	4121
4077.864	4114
4079.436	4199
4081.009	4098
4082.58	4090
4084.152	4131
4085.723	4078
4087.294	4150
4088.865	4201
4090.435	4223
4092.005	4154
4093.574	4190
4095.143	4186
4096.712	4172
4098.279	4075
4099.848	4189
4101.416	4070
4102.984	4078
4104.55	4053
4106.117	4084
4107.682	4082
4109.248	4077
4110.815	4208
4112.379	4090
4113.945	4125
4115.508	3981
4117.073	4051
4118.637	4102
4120.201	4081
4121.763	3962
4123.325	4115
4124.888	3974
4126.449	4017
4128.013	3970
4129.573	4002
4131.133	4026
4132.694	4038
4134.254	3973
4135.814	4039
4137.374	3987
4138.933	3947
4140.491	3867
4142.049	3921
4143.607	4000
4145.167	3977
4146.724	4018
4148.28	3987
4149.836	3917
4151.392	3887
4152.949	3948
4154.504	3989
4156.059	3938
4157.614	3912
4159.168	3899
4160.723	3839
4162.277	3920
4163.83	3872
4165.383	3779
4166.936	3862
4168.488	3917
4170.041	3896
4171.593	3782
4173.144	3893
4174.695	3756
4176.246	3859
4177.796	3804
4179.346	3902
4180.896	3814
4182.445	3802
4183.994	3868
4185.542	3795
4187.091	3843
4188.639	3827
4190.185	3794
4191.732	3830
4193.279	3803
4194.826	3830
4196.373	3772
4197.918	3719
4199.463	3734
4201.008	3691
4202.553	3715
4204.098	3704
4205.641	3753
4207.185	3762
4208.728	3817
4210.271	3830
4211.814	3663
4213.357	3754
4214.898	3660
4216.439	3671
4217.98	3769
4219.522	3769
4221.062	3736
4222.603	3710
4224.142	3786
4225.681	3708
4227.222	3727
4228.76	3746
4230.298	3687
4231.835	3689
4233.373	3801
4234.911	3747
4236.449	3673
4237.985	3639
4239.521	3702
4241.057	3615
4242.592	3712
4244.128	3682
4245.663	3676
4247.197	3707
4248.731	3663
4250.265	3686
4251.798	3674
4253.333	3715
4254.865	3609
4256.397	3669
4257.93	3618
4259.461	3679
4260.994	3574
4262.525	3699
4264.056	3700
4265.586	3671
4267.115	3659
4268.646	3670
4270.176	3528
4271.705	3643
4273.232	3587
4274.761	3625
4276.289	3595
4277.818	3527
4279.345	3607
4280.872	3577
4282.399	3549
4283.924	3600
4285.452	3599
4286.976	3548
4288.502	3611
4290.026	3519
4291.551	3544
4293.074	3561
4294.6	3578
4296.123	3555
4297.646	3564
4299.168	3565
4300.691	3595
4302.214	3649
4303.736	3530
4305.257	3523
4306.778	3544
4308.299	3526
4309.82	3571
4311.34	3451
4312.86	3497
4314.379	3501
