400.0745	4233
402.597	4289
405.1208	4280
407.6419	4252
410.1623	4387
412.6819	4311
415.201	4281
417.7172	4311
420.2369	4422
422.7538	4358
425.2701	4482
427.7856	4484
430.3005	4534
432.8147	4497
435.3282	4621
437.841	4525
440.3511	4490
442.8625	4692
445.3753	4645
447.8854	4628
450.3927	4646
452.9014	4540
455.4073	4536
457.9146	4563
460.4233	4565
462.9272	4553
465.4325	4538
467.935	4660
470.4389	4519
472.9421	4573
475.4446	4592
477.9444	4625
480.4456	4522
482.944	4690
485.4417	4617
487.9429	4611
490.4393	4631
492.935	4680
495.4321	4625
497.9264	4588
500.4221	4790
502.9171	4740
505.4094	4772
507.9011	4646
510.392	4752
512.8864	4796
515.3759	4827
517.8649	4838
520.3531	4684
522.8406	4738
525.3275	4832
527.8178	4758
530.3033	4727
532.7881	4784
535.2723	4731
537.7558	4738
540.2407	4882
542.7228	4804
545.2043	4800
547.6851	4752
550.1652	4843
552.6467	4821
555.1255	4858
557.6016	4762
560.079	4925
562.5557	4834
565.0318	4952
567.5092	4903
569.984	4786
572.456	4972
574.9294	4853
577.4022	4997
579.8762	4921
582.3456	5007
584.8163	4949
587.2863	5009
589.7557	4995
592.2224	4954
594.6924	5054
597.1578	5019
599.6245	4925
602.0905	4912
604.5538	4998
607.0206	4921
609.4825	4967
611.9459	5021
614.4066	4963
616.8686	5026
619.33	4957
621.7906	5003
624.2487	4914
626.708	5044
629.1647	4968
631.6207	5035
634.0801	4968
636.5348	4879
638.9888	5057
641.4442	5026
643.8969	4959
646.3509	5059
648.8022	5050
651.255	4913
653.705	5036
656.1544	5032
658.6031	5076
661.0532	5042
663.5026	5039
665.9493	5108
668.3954	5130
670.8409	4983
673.2877	5195
675.7318	5059
678.1752	5261
680.618	5127
683.0601	5062
685.5035	5200
687.9444	5161
690.3845	5234
692.824	5140
695.2628	5113
697.701	5168
700.1406	5156
702.5774	5178
705.0116	5160
707.4472	5237
709.8821	5205
712.3183	5189
714.7519	5266
717.1829	5342
719.6151	5316
722.0468	5294
724.4777	5265
726.908	5283
729.3377	5282
731.7667	5292
734.1931	5294
736.6208	5440
739.0498	5435
741.4742	5472
743.9	5369
746.3231	5472
748.7476	5327
751.1713	5423
753.5945	5456
756.015	5475
758.4368	5404
760.856	5464
763.2766	5489
765.6965	5540
768.1157	5569
770.5323	5575
772.9483	5674
775.3656	5519
777.7822	5553
780.1963	5540
782.6116	5533
785.0244	5520
787.4365	5520
789.8499	5464
792.2626	5550
794.6728	5444
797.0823	5466
799.4911	5576
801.8994	5439
804.3109	5494
806.7178	5530
809.124	5501
811.5297	5566
813.9347	5622
816.341	5585
818.7447	5619
821.1478	5673
823.5502	5620
825.952	5637
828.3531	5580
830.7556	5670
833.1554	5619
835.5546	5703
837.9532	5722
840.3511	5738
842.7504	5633
845.1451	5616
847.5411	5657
849.9365	5698
852.3312	5721
854.7272	5686
857.1187	5741
859.5115	5645
861.9037	5696
864.2952	5732
866.6842	5657
869.0764	5713
871.4661	5621
873.8531	5658
876.2415	5713
878.6272	5833
881.0162	5776
883.4026	5653
885.7866	5607
888.1717	5706
890.5543	5704
892.9382	5837
895.3215	5792
897.7041	5638
900.0842	5690
902.4655	5678
904.8443	5654
907.2244	5729
909.6039	5689
911.9808	5804
914.357	5799
916.7346	5851
919.1115	5779
921.4859	5974
923.8616	5883
926.2347	6025
928.6071	5905
930.979	6014
933.3541	5961
935.7247	5915
938.0946	5904
940.4639	6088
942.8326	6094
945.2026	6210
947.5701	6184
949.9369	6256
952.305	6274
954.6705	6498
957.0355	6491
959.4017	6827
961.7654	6813
964.1284	6837
966.4908	6647
968.8527	6593
971.2138	6341
973.5743	6183
975.9343	6078
978.2936	6000
980.6522	5980
983.0122	5827
985.3696	5893
987.7245	5914
990.0807	5900
992.4362	5775
994.7911	5817
997.1474	5831
999.4991	5908
1001.852	5963
1004.205	5942
1006.555	5877
1008.908	5906
1011.258	5874
1013.606	5910
1015.956	6044
1018.302	6031
1020.652	5955
1022.998	5897
1025.345	5937
1027.691	5974
1030.035	5903
1032.378	5972
1034.724	6052
1037.066	6105
1039.409	6081
1041.75	6052
1044.092	5954
1046.433	5924
1048.771	5950
1051.112	6015
1053.449	6061
1055.786	5998
1058.124	6079
1060.462	6044
1062.797	5951
1065.131	6104
1067.467	5971
1069.8	6188
1072.135	6185
1074.467	6057
1076.798	6111
1079.129	6003
1081.459	6075
1083.792	6037
1086.121	6046
1088.449	5946
1090.777	6073
1093.104	5953
1095.431	6070
1097.759	6041
1100.084	6137
1102.408	5999
1104.732	5965
1107.056	6084
1109.379	6079
1111.701	6064
1114.022	6112
1116.343	6118
1118.664	6040
1120.983	6191
1123.303	6068
1125.621	6020
1127.939	6160
1130.256	6066
1132.573	6022
1134.889	6065
1137.205	6073
1139.52	6173
1141.832	6086
1144.146	6128
1146.461	6006
1148.771	6001
1151.083	6105
1153.392	6070
1155.703	6102
1158.011	6099
1160.323	6059
1162.629	6101
1164.938	6061
1167.243	6057
1169.55	6081
1171.857	6090
1174.163	6094
1176.466	6007
1178.769	6111
1181.073	6099
1183.374	6178
1185.677	5985
1187.979	6178
1190.279	6128
1192.578	6044
1194.878	6054
1197.178	6084
1199.476	6040
1201.772	6215
1204.068	6147
1206.366	6099
1208.663	6230
1210.957	6170
1213.251	6248
1215.544	6089
1217.836	6133
1220.128	6089
1222.421	6158
1224.712	6104
1227.002	6113
1229.292	6251
1231.581	6198
1233.871	6222
1236.159	6295
1238.446	6250
1240.732	6226
1243.018	6383
1245.304	6279
1247.59	6387
1249.874	6349
1252.156	6321
1254.439	6323
1256.721	6297
1259.005	6256
1261.286	6320
1263.565	6260
1265.845	6374
1268.125	6350
1270.403	6327
1272.682	6251
1274.959	6233
1277.234	6342
1279.511	6300
1281.787	6184
1284.062	6330
1286.337	6174
1288.609	6293
1290.882	6212
1293.153	6313
1295.428	6339
1297.698	6219
1299.969	6187
1302.237	6299
1304.507	6243
1306.777	6289
1309.044	6191
1311.312	6168
1313.578	6247
1315.844	6212
1318.109	6220
1320.375	6157
1322.638	6135
1324.903	6205
1327.165	6229
1329.427	6288
1331.69	6233
1333.952	6284
1336.212	6231
1338.471	6258
1340.73	6369
1342.988	6310
1345.248	6315
1347.505	6316
1349.763	6341
1352.019	6236
1354.274	6191
1356.53	6385
1358.784	6259
1361.038	6282
1363.291	6216
1365.543	6199
1367.797	6378
1370.048	6305
1372.296	6194
1374.546	6219
1376.796	6275
1379.045	6294
1381.295	6287
1383.542	6316
1385.787	6424
1388.034	6172
1390.28	6341
1392.527	6354
1394.772	6392
1397.014	6460
1399.258	6326
1401.501	6400
1403.741	6424
1405.985	6351
1408.226	6336
1410.465	6411
1412.705	6425
1414.943	6325
1417.184	6237
1419.42	6357
1421.658	6461
1423.894	6352
1426.13	6327
1428.366	6382
1430.602	6422
1432.835	6369
1435.069	6504
1437.301	6365
1439.535	6505
1441.767	6500
1443.997	6570
1446.229	6459
1448.458	6551
1450.687	6462
1452.916	6554
1455.146	6618
1457.372	6617
1459.599	6588
1461.824	6550
1464.051	6503
1466.277	6589
1468.501	6527
1470.725	6479
1472.948	6569
1475.17	6462
1477.393	6443
1479.614	6344
1481.837	6335
1484.057	6338
1486.276	6379
1488.497	6275
1490.715	6288
1492.932	6274
1495.148	6261
1497.364	6268
1499.58	6297
1501.798	6263
1504.012	6249
1506.227	6217
1508.44	6235
1510.653	6214
1512.866	6117
1515.078	6252
1517.289	6343
1519.5	6187
1521.711	6193
1523.92	6358
1526.13	6296
1528.338	6308
1530.544	6437
1532.752	6304
1534.959	6261
1537.165	6185
1539.371	6270
1541.574	6266
1543.779	6353
1545.983	6304
1548.187	6250
1550.39	6391
1552.59	6397
1554.792	6270
1556.991	6281
1559.19	6336
1561.392	6370
1563.59	6281
1565.789	6456
1567.986	6420
1570.182	6407
1572.381	6414
1574.576	6407
1576.771	6437
1578.966	6446
1581.16	6436
1583.354	6424
1585.546	6503
1587.74	6495
1589.931	6374
1592.121	6474
1594.311	6446
1596.502	6575
1598.693	6473
1600.881	6562
1603.069	6437
1605.256	6590
1607.445	6405
1609.631	6467
1611.816	6510
1614.001	6599
1616.186	6387
1618.37	6457
1620.555	6315
1622.737	6452
1624.919	6493
1627.101	6430
1629.282	6528
1631.463	6412
1633.643	6489
1635.822	6419
1638.001	6473
1640.179	6520
1642.359	6569
1644.534	6529
1646.711	6598
1648.887	6473
1651.062	6583
1653.235	6516
1655.412	6529
1657.586	6439
1659.757	6584
1661.93	6487
1664.1	6611
1666.274	6611
1668.445	6531
1670.614	6548
1672.784	6635
1674.951	6598
1677.12	6489
1679.289	6564
1681.457	6546
1683.622	6693
1685.789	6615
1687.953	6429
1690.121	6471
1692.284	6513
1694.447	6428
1696.611	6545
1698.772	6639
1700.935	6441
1703.098	6519
1705.258	6530
1707.417	6557
1709.576	6475
1711.736	6437
1713.896	6338
1716.053	6448
1718.21	6380
1720.366	6334
1722.522	6375
1724.68	6476
1726.835	6438
1728.989	6450
1731.142	6297
1733.295	6332
1735.449	6515
1737.601	6421
1739.753	6378
1741.903	6532
1744.054	6495
1746.203	6500
1748.354	6474
1750.503	6370
1752.651	6432
1754.798	6429
1756.944	6552
1759.092	6481
1761.238	6460
1763.383	6509
1765.528	6468
1767.672	6343
1769.814	6570
1771.959	6519
1774.102	6386
1776.242	6526
1778.384	6484
1780.525	6393
1782.665	6388
1784.805	6532
1786.945	6546
1789.082	6539
1791.22	6493
1793.36	6486
1795.495	6474
1797.632	6415
1799.766	6414
1801.902	6604
1804.035	6410
1806.172	6503
1808.304	6458
1810.436	6503
1812.569	6490
1814.699	6442
1816.833	6536
1818.963	6480
1821.092	6507
1823.222	6550
1825.35	6505
1827.478	6428
1829.608	6522
1831.734	6507
1833.86	6424
1835.986	6516
1838.11	6457
1840.238	6383
1842.362	6464
1844.485	6509
1846.608	6494
1848.73	6464
1850.853	6496
1852.974	6499
1855.097	6334
1857.217	6489
1859.336	6490
1861.455	6439
1863.576	6261
1865.693	6413
1867.811	6435
1869.926	6419
1872.042	6435
1874.16	6417
1876.275	6403
1878.39	6387
1880.504	6466
1882.618	6414
1884.731	6434
1886.843	6341
1888.956	6474
1891.067	6500
1893.178	6533
1895.287	6532
1897.399	6493
1899.508	6462
1901.617	6410
1903.724	6438
1905.832	6547
1907.941	6483
1910.046	6480
1912.152	6500
1914.256	6600
1916.361	6588
1918.464	6541
1920.57	6509
1922.672	6541
1924.775	6564
1926.876	6631
1928.978	6522
1931.08	6561
1933.181	6598
1935.28	6509
1937.38	6451
1939.478	6536
1941.577	6680
1943.675	6476
1945.771	6613
1947.867	6564
1949.964	6513
1952.058	6458
1954.154	6544
1956.248	6571
1958.343	6589
1960.435	6596
1962.527	6360
1964.62	6470
1966.711	6556
1968.802	6480
1970.892	6546
1972.983	6524
1975.072	6407
1977.162	6474
1979.25	6616
1981.337	6549
1983.424	6417
1985.51	6505
1987.598	6341
1989.683	6459
1991.768	6377
1993.852	6456
1995.934	6535
1998.019	6471
2000.102	6581
2002.184	6434
2004.266	6512
2006.347	6397
2008.427	6339
2010.508	6448
2012.587	6462
2014.666	6416
2016.745	6359
2018.821	6521
2020.9	6363
2022.977	6478
2025.052	6442
2027.128	6396
2029.204	6373
2031.277	6417
2033.353	6390
2035.425	6406
2037.499	6439
2039.57	6434
2041.642	6477
2043.714	6481
2045.786	6555
2047.855	6489
2049.925	6509
2051.993	6400
2054.064	6516
2056.132	6587
2058.2	6349
2060.266	6456
2062.332	6467
2064.398	6523
2066.465	6391
2068.529	6453
2070.592	6515
2072.657	6520
2074.719	6431
2076.783	6490
2078.845	6537
2080.907	6430
2082.968	6413
2085.028	6538
2087.087	6407
2089.148	6510
2091.207	6441
2093.264	6431
2095.322	6494
2097.379	6503
2099.439	6500
2101.495	6460
2103.55	6471
2105.605	6472
2107.658	6525
2109.713	6502
2111.767	6461
2113.82	6507
2115.872	6517
2117.924	6504
2119.975	6525
2122.028	6387
2124.078	6436
2126.126	6467
2128.176	6454
2130.225	6431
2132.275	6405
2134.321	6455
2136.368	6489
2138.415	6521
2140.461	6457
2142.505	6416
2144.552	6468
2146.597	6274
2148.64	6435
2150.684	6392
2152.725	6511
2154.77	6467
2156.811	6448
2158.852	6395
2160.894	6412
2162.933	6415
2164.973	6288
2167.013	6377
2169.051	6358
2171.089	6413
2173.126	6433
2175.164	6361
2177.201	6331
2179.236	6327
2181.273	6433
2183.307	6415
2185.341	6392
2187.377	6320
2189.41	6276
2191.442	6371
2193.473	6359
2195.506	6284
2197.539	6352
2199.569	6207
2201.598	6254
2203.628	6270
2205.656	6299
2207.686	6294
2209.716	6293
2211.743	6302
2213.769	6251
2215.796	6337
2217.821	6253
2219.848	6202
2221.873	6201
2223.897	6275
2225.921	6243
2227.944	6255
2229.967	6164
2231.991	6173
2234.011	6336
2236.032	6186
2238.053	6295
2240.073	6275
2242.094	6265
2244.114	6269
2246.131	6172
2248.149	6347
2250.167	6259
2252.186	6192
2254.201	6201
2256.218	6238
2258.233	6277
2260.247	6269
2262.262	6276
2264.278	6385
2266.29	6166
2268.303	6153
2270.315	6266
2272.327	6346
2274.341	6180
2276.35	6303
2278.361	6279
2280.37	6254
2282.38	6212
2284.388	6161
2286.397	6224
2288.405	6282
2290.412	6169
2292.419	6240
2294.425	6130
2296.431	6165
2298.437	6345
2300.441	6178
2302.445	6209
2304.449	6230
2306.453	6168
2308.455	6190
2310.457	6214
2312.459	6313
2314.46	6217
2316.46	6132
2318.461	6128
2320.46	6259
2322.458	6221
2324.458	6196
2326.456	6175
2328.455	6298
2330.451	6198
2332.447	6073
2334.443	6305
2336.438	6174
2338.433	6128
2340.429	6137
2342.422	6117
2344.416	6068
2346.408	6144
2348.399	6078
2350.393	6074
2352.384	6068
2354.375	6105
2356.365	6177
2358.355	6132
2360.344	6168
2362.333	6083
2364.322	6093
2366.309	6029
2368.295	6022
2370.282	6044
2372.27	6090
2374.256	6051
2376.24	6107
2378.225	6048
2380.208	6036
2382.194	6071
2384.177	6010
2386.159	5974
2388.142	5984
2390.122	6009
2392.105	6109
2394.085	6011
2396.066	6008
2398.044	6082
2400.024	6025
2402.002	6075
2403.982	5929
2405.959	6046
2407.935	6036
2409.913	5933
2411.888	5980
2413.865	5965
2415.84	5973
2417.814	5989
2419.788	5983
2421.762	6104
2423.735	5951
2425.708	6062
2427.68	6022
2429.651	6027
2431.623	6000
2433.593	6060
2435.564	5910
2437.533	6065
2439.502	5911
2441.47	5885
2443.438	6008
2445.406	6158
2447.373	5965
2449.34	5998
2451.305	5967
2453.271	5900
2455.235	6048
2457.201	5950
2459.165	6026
2461.129	6008
2463.092	5992
2465.054	5967
2467.018	5931
2468.978	6029
2470.939	5949
2472.899	5966
2474.86	5973
2476.819	5914
2478.778	5934
2480.737	6087
2482.695	5836
2484.653	5988
2486.609	5827
2488.567	5866
2490.524	5921
2492.478	5970
2494.433	5919
2496.387	5913
2498.343	5896
2500.297	5967
2502.249	5907
2504.202	5926
2506.153	5887
2508.105	5869
2510.057	5834
2512.008	5931
2513.957	6012
2515.906	5713
2517.855	5937
2519.805	5947
2521.754	5806
2523.7	5802
2525.647	5831
2527.594	5935
2529.54	5923
2531.486	5752
2533.431	5844
2535.376	5821
2537.32	5765
2539.263	5825
2541.207	5836
2543.151	5882
2545.093	5859
2547.034	5859
2548.975	5806
2550.917	5787
2552.856	5739
2554.796	5862
2556.735	5773
2558.673	5722
2560.611	5858
2562.55	5922
2564.487	5835
2566.424	5902
2568.36	5892
2570.296	5803
2572.232	5835
2574.167	6030
2576.101	5878
2578.035	5830
2579.969	5858
2581.902	5818
2583.834	5806
2585.766	5880
2587.698	5748
2589.628	5862
2591.557	5843
2593.489	5777
2595.419	5830
2597.348	5783
2599.275	5897
2601.204	5820
2603.131	5762
2605.059	5857
2606.986	5976
2608.911	5893
2610.837	5920
2612.76	5938
2614.687	5792
2616.61	5814
2618.534	5856
2620.457	5847
2622.38	5857
2624.302	5759
2626.225	5824
2628.145	5907
2630.067	5861
2631.986	5888
2633.906	5793
2635.827	5819
2637.745	5920
2639.662	5826
2641.581	5903
2643.498	5759
2645.415	5766
2647.331	5795
2649.248	5872
2651.163	5888
2653.077	5870
2654.993	5944
2656.906	5748
2658.821	5860
2660.733	5760
2662.646	5868
2664.557	5802
2666.47	5798
2668.381	5773
2670.291	5861
2672.201	5779
2674.11	5788
2676.021	5737
2677.929	5823
2679.837	5814
2681.745	5936
2683.652	5763
2685.56	5832
2687.466	5675
2689.371	5846
2691.276	5765
2693.181	5787
2695.085	5759
2696.991	5760
2698.893	5743
2700.796	5720
2702.698	5684
2704.601	5726
2706.502	5662
2708.404	5650
2710.304	5661
2712.203	5733
2714.103	5625
2716.003	5723
2717.902	5670
2719.8	5739
2721.697	5655
2723.594	5737
2725.49	5722
2727.389	5783
2729.283	5738
2731.179	5646
2733.073	5763
2734.968	5717
2736.863	5679
2738.757	5782
2740.649	5707
2742.541	5718
2744.433	5660
2746.324	5705
2748.216	5729
2750.107	5688
2751.997	5551
2753.886	5625
2755.776	5677
2757.666	5636
2759.553	5618
2761.44	5580
2763.327	5567
2765.215	5721
2767.102	5630
2768.988	5590
2770.873	5557
2772.757	5737
2774.641	5614
2776.525	5736
2778.41	5599
2780.292	5634
2782.175	5603
2784.057	5677
2785.938	5624
2787.821	5622
2789.701	5635
2791.581	5669
2793.461	5611
2795.34	5575
2797.219	5581
2799.099	5655
2800.975	5629
2802.853	5629
2804.73	5559
2806.606	5718
2808.484	5710
2810.358	5567
2812.233	5539
2814.108	5559
2815.981	5607
2817.857	5613
2819.73	5662
2821.602	5629
2823.474	5546
2825.346	5653
2827.217	5596
2829.089	5558
2830.959	5595
2832.829	5699
2834.698	5587
2836.567	5592
2838.436	5626
2840.305	5665
2842.172	5665
2844.04	5689
2845.905	5616
2847.772	5641
2849.639	5605
2851.503	5663
2853.369	5571
2855.232	5658
2857.096	5699
2858.961	5641
2860.824	5728
2862.686	5762
2864.547	5824
2866.41	5713
2868.272	5752
2870.132	5797
2871.992	5782
2873.851	5860
2875.711	5845
2877.57	5914
2879.429	5966
2881.287	6083
2883.144	5922
2885.001	6030
2886.857	6009
2888.714	6006
2890.57	6031
2892.425	6016
2894.279	6100
2896.133	5891
2897.987	6115
2899.842	6011
2901.694	5954
2903.547	6039
2905.397	5929
2907.249	6064
2909.101	5980
2910.952	5982
2912.802	5941
2914.652	5994
2916.5	6024
2918.35	6173
2920.198	6098
2922.045	6220
2923.893	6244
2925.74	6317
2927.585	6140
2929.433	6324
2931.279	6407
2933.123	6267
2934.968	6350
2936.811	6317
2938.656	6407
2940.5	6554
2942.342	6641
2944.185	6601
2946.026	6628
2947.87	6636
2949.71	6504
2951.549	6537
2953.39	6538
2955.229	6509
2957.069	6499
2958.908	6321
2960.746	6520
2962.584	6258
2964.421	6316
2966.257	6326
2968.094	6191
2969.931	6299
2971.766	6207
2973.601	6194
2975.435	6127
2977.27	5978
2979.105	6088
2980.938	6025
2982.77	5928
2984.602	5861
2986.434	5909
2988.267	5897
2990.097	5795
2991.927	5787
2993.757	5797
2995.587	5835
2997.417	5731
2999.246	5831
3001.074	5632
3002.902	5593
3004.729	5616
3006.556	5559
3008.384	5555
3010.21	5450
3012.036	5449
3013.861	5486
3015.684	5446
3017.51	5421
3019.334	5284
3021.157	5431
3022.981	5403
3024.802	5381
3026.624	5250
3028.448	5295
3030.267	5277
3032.088	5235
3033.909	5256
3035.728	5316
3037.549	5256
3039.368	5285
3041.186	5332
3043.004	5156
3044.821	5251
3046.64	5183
3048.455	5254
3050.272	5150
3052.087	5188
3053.903	5233
3055.717	5229
3057.534	5215
3059.347	5244
3061.16	5225
3062.974	5230
3064.785	5174
3066.598	5319
3068.411	5259
3070.222	5166
3072.032	5220
3073.844	5211
3075.653	5208
3077.463	5252
3079.272	5194
3081.08	5072
3082.889	5077
3084.697	5116
3086.505	5094
3088.312	5177
3090.118	5217
3091.924	5108
3093.729	5089
3095.535	5041
3097.34	5095
3099.144	5054
3100.947	4999
3102.75	5082
3104.553	4996
3106.357	5033
3108.159	4964
3109.961	5062
3111.762	5089
3113.562	5055
3115.365	5018
3117.164	5006
3118.964	5049
3120.761	4958
3122.56	4978
3124.36	4955
3126.158	4905
3127.954	4897
3129.75	4969
3131.547	4980
3133.343	4938
3135.139	4929
3136.934	4997
3138.729	4862
3140.522	4977
3142.317	5072
3144.11	4866
3145.904	4834
3147.695	5020
3149.488	4990
3151.28	4895
3153.07	4834
3154.863	4933
3156.652	4856
3158.441	4932
3160.231	4992
3162.019	4927
3163.81	4861
3165.597	4846
3167.384	4812
3169.172	4943
3170.958	4896
3172.745	4944
3174.532	4828
3176.317	4927
3178.101	4942
3179.885	4874
3181.67	4921
3183.455	4871
3185.238	4878
3187.02	4883
3188.802	4898
3190.585	4867
3192.368	4748
3194.149	4770
3195.929	4863
3197.709	4823
3199.489	4926
3201.268	4846
3203.048	4791
3204.826	4903
3206.604	4916
3208.382	4849
3210.159	4793
3211.937	4772
3213.713	4770
3215.489	4861
3217.263	4776
3219.038	4788
3220.815	4777
3222.589	4841
3224.363	4833
3226.136	4761
3227.908	4959
3229.681	4857
3231.454	4727
3233.226	4725
3234.996	4797
3236.767	4857
3238.538	4829
3240.308	4717
3242.078	4827
3243.847	4842
3245.615	4884
3247.384	4813
3249.15	4770
3250.92	4886
3252.686	4734
3254.453	4742
3256.218	4910
3257.984	4749
3259.75	4780
3261.515	4850
3263.279	4802
3265.044	4762
3266.806	4787
3268.57	4715
3270.334	4847
3272.095	4821
3273.856	4682
3275.619	4798
3277.379	4816
3279.14	4826
3280.9	4727
3282.661	4743
3284.419	4831
3286.178	4756
3287.937	4744
3289.695	4745
3291.453	4926
3293.21	4840
3294.967	4712
3296.723	4754
3298.48	4813
3300.235	4755
3301.99	4837
3303.744	4743
3305.498	4832
3307.253	4818
3309.006	4755
3310.759	4776
3312.511	4761
3314.263	4783
3316.017	4772
3317.768	4790
3319.519	4732
3321.268	4800
3323.018	4796
3324.767	4778
3326.518	4804
3328.267	4833
3330.014	4772
3331.762	4662
3333.509	4617
3335.258	4763
3337.003	4755
3338.75	4757
3340.496	4753
3342.24	4668
3343.987	4720
3345.732	4767
3347.475	4796
3349.219	4653
3350.961	4740
3352.705	4715
3354.448	4715
3356.19	4667
3357.931	4633
3359.672	4751
3361.412	4644
3363.155	4686
3364.894	4695
3366.633	4646
3368.372	4656
3370.11	4522
3371.849	4692
3373.588	4549
3375.325	4627
3377.061	4699
3378.799	4564
3380.534	4626
3382.271	4675
3384.006	4586
3385.741	4606
3387.475	4627
3389.209	4488
3390.944	4517
3392.677	4568
3394.409	4592
3396.143	4624
3397.874	4579
3399.606	4630
3401.338	4553
3403.069	4537
3404.799	4468
3406.528	4628
3408.258	4541
3409.988	4595
3411.717	4525
3413.445	4518
3415.173	4633
3416.899	4532
3418.626	4669
3420.354	4450
3422.08	4515
3423.806	4495
3425.531	4522
3427.255	4433
3428.981	4518
3430.705	4509
3432.429	4488
3434.151	4528
3435.875	4438
3437.599	4602
3439.321	4493
3441.042	4441
3442.763	4459
3444.483	4481
3446.204	4517
3447.926	4520
3449.645	4335
3451.364	4466
3453.082	4460
3454.801	4446
3456.52	4383
3458.238	4369
3459.954	4366
3461.671	4325
3463.387	4377
3465.104	4408
3466.82	4368
3468.534	4427
3470.25	4394
3471.963	4287
3473.676	4303
3475.392	4372
3477.104	4360
3478.817	4387
3480.528	4405
3482.241	4374
3483.954	4333
3485.664	4414
3487.374	4272
3489.084	4351
3490.795	4318
3492.504	4326
3494.214	4327
3495.922	4306
3497.63	4277
3499.338	4243
3501.045	4297
3502.753	4314
3504.459	4224
3506.166	4227
3507.871	4318
3509.576	4298
3511.283	4282
3512.987	4144
3514.691	4262
3516.395	4288
3518.098	4213
3519.8	4228
3521.504	4196
3523.206	4213
3524.908	4221
3526.609	4185
3528.309	4177
3530.011	4281
3531.711	4215
3533.411	4178
3535.109	4081
3536.808	4122
3538.507	4205
3540.206	4161
3541.904	4140
3543.601	4220
3545.297	4232
3546.994	4091
3548.69	4218
3550.387	4161
3552.081	4217
3553.776	4117
3555.47	4171
3557.166	4215
3558.859	4017
3560.553	4076
3562.245	4124
3563.938	4148
3565.629	4073
3567.322	4110
3569.014	4079
3570.704	4130
3572.394	4044
3574.084	4076
3575.775	4067
3577.464	4180
3579.152	4076
3580.842	4071
3582.529	4121
3584.216	4062
3585.905	4102
3587.591	4057
3589.279	4079
3590.964	4048
3592.649	4124
3594.336	3905
3596.021	3998
3597.705	4007
3599.388	3996
3601.072	4001
3602.757	4036
3604.439	3986
3606.122	3997
3607.803	4015
3609.485	3913
3611.167	3925
3612.849	4021
3614.529	3976
3616.208	3944
3617.888	3878
3619.567	3919
3621.247	4006
3622.926	3930
3624.603	3942
3626.281	3961
3627.958	3917
3629.635	3893
3631.312	3935
3632.989	3889
3634.665	3822
3636.339	3859
3638.014	3919
3639.691	3937
3641.364	3861
3643.038	3874
3644.71	3842
3646.384	3872
3648.058	3855
3649.729	3951
3651.402	3850
3653.073	3856
3654.744	3855
3656.414	3881
3658.085	3856
3659.755	3815
3661.424	3881
3663.094	3871
3664.762	3804
3666.431	3843
3668.099	3920
3669.766	3839
3671.433	3866
3673.099	3734
3674.768	3802
3676.433	3770
3678.098	3831
3679.763	3727
3681.428	3830
3683.093	3794
3684.757	3787
3686.421	3814
3688.083	3756
3689.746	3700
3691.408	3714
3693.071	3853
3694.733	3741
3696.394	3835
3698.054	3687
3699.715	3750
3701.375	3661
3703.036	3829
3704.695	3731
3706.354	3833
3708.012	3685
3709.67	3673
3711.329	3697
3712.987	3764
3714.644	3754
3716.299	3727
3717.955	3743
3719.613	3766
3721.268	3759
3722.923	3765
3724.577	3701
3726.231	3700
3727.885	3710
3729.539	3744
3731.192	3606
3732.845	3697
3734.497	3685
3736.149	3651
3737.802	3678
3739.453	3633
3741.104	3648
3742.753	3678
3744.404	3732
3746.052	3655
3747.704	3649
3749.352	3673
3751	3604
3752.648	3680
3754.296	3671
3755.944	3615
3757.59	3662
3759.238	3592
3760.883	3664
3762.528	3581
3764.176	3720
3765.82	3608
3767.464	3659
3769.109	3590
3770.753	3617
3772.396	3639
3774.04	3623
3775.683	3548
3777.325	3581
3778.967	3620
3780.608	3545
3782.25	3535
3783.89	3551
3785.531	3552
3787.17	3543
3788.81	3560
3790.45	3512
3792.09	3504
3793.729	3555
3795.366	3534
3797.003	3523
3798.64	3621
3800.278	3521
3801.915	3569
3803.551	3570
3805.187	3516
3806.822	3541
3808.458	3548
3810.093	3473
3811.726	3553
3813.36	3624
3814.994	3531
3816.627	3497
3818.262	3501
3819.893	3518
3821.525	3453
3823.157	3508
3824.787	3399
3826.42	3561
3828.051	3519
3829.68	3511
3831.31	3528
3832.938	3482
3834.569	3383
3836.198	3486
3837.825	3460
3839.454	3410
3841.08	3402
3842.708	3458
3844.335	3450
3845.962	3462
3847.587	3457
3849.212	3378
3850.838	3514
3852.463	3477
3854.089	3378
3855.712	3485
3857.335	3386
3858.959	3424
3860.582	3418
3862.205	3563
3863.827	3407
3865.449	3450
3867.07	3402
3868.691	3453
3870.312	3409
3871.933	3399
3873.553	3497
3875.173	3399
3876.792	3346
3878.411	3389
3880.03	3365
3881.647	3418
3883.265	3367
3884.882	3332
3886.499	3368
3888.116	3410
3889.732	3431
3891.348	3374
3892.964	3326
3894.579	3322
3896.195	3327
3897.809	3324
3899.423	3393
3901.036	3289
3902.648	3293
3904.261	3326
3905.875	3323
3907.487	3317
3909.099	3384
3910.709	3284
3912.321	3278
3913.933	3316
3915.542	3295
3917.152	3296
3918.762	3362
3920.37	3297
3921.98	3376
3923.589	3301
3925.196	3310
3926.804	3331
3928.41	3319
3930.018	3291
3931.626	3349
3933.231	3341
3934.838	3341
3936.442	3333
3938.046	3188
3939.653	3341
3941.257	3268
3942.861	3311
3944.464	3251
3946.068	3322
3947.67	3280
3949.273	3288
3950.876	3322
3952.477	3280
3954.078	3216
3955.678	3299
3957.281	3302
3958.881	3226
3960.48	3315
3962.079	3217
3963.678	3238
3965.279	3293
3966.877	3349
3968.475	3237
3970.072	3318
3971.669	3176
3973.266	3223
3974.864	3276
3976.459	3223
3978.055	3278
3979.65	3225
3981.245	3166
3982.841	3231
3984.436	3182
3986.03	3217
3987.623	3129
3989.216	3204
3990.809	3178
3992.403	3219
3993.995	3181
3995.586	3182
3997.177	3190
3998.768	3188
4000.361	3192
4001.951	3200
4003.54	3157
4005.13	3171
4006.719	3187
4008.31	3158
4009.897	3098
4011.485	3197
4013.073	3049
4014.66	3115
4016.247	3100
4017.834	3083
4019.421	3094
4021.006	3141
4022.592	3131
4024.178	3133
4025.763	3114
4027.348	3077
4028.932	3065
4030.515	3081
4032.099	3027
4033.682	3047
4035.266	3032
4036.847	3025
4038.429	3056
4040.011	3101
4041.592	3092
4043.173	3064
4044.755	3064
4046.334	2985
4047.913	3059
4049.494	3028
4051.074	2961
4052.652	3012
4054.23	3103
4055.807	3053
4057.385	3103
4058.963	3091
4060.541	3052
4062.117	3002
4063.693	2970
4065.269	3045
4066.844	2991
4068.42	2998
4069.995	3039
4071.569	3024
4073.143	2979
4074.716	2949
4076.291	2904
4077.864	3008
4079.436	3018
4081.009	2958
4082.58	3022
4084.152	2980
4085.723	3029
4087.294	2940
4088.865	3008
4090.435	3032
4092.005	2954
4093.574	2989
4095.143	2951
4096.712	3015
4098.279	2929
4099.848	2947
4101.416	2965
4102.984	3038
4104.55	3016
4106.117	2905
4107.682	2951
4109.248	2904
4110.815	3038
4112.379	2969
4113.945	2951
4115.508	2980
4117.073	2901
4118.637	2914
4120.201	2946
4121.763	2915
4123.325	2920
4124.888	2942
4126.449	2908
4128.013	2860
4129.573	2887
4131.133	2903
4132.694	2919
4134.254	2881
4135.814	2873
4137.374	2923
4138.933	2888
4140.491	2854
4142.049	2852
4143.607	2846
4145.167	2877
4146.724	2917
4148.28	2859
4149.836	2833
4151.392	2861
4152.949	2892
4154.504	2838
4156.059	2779
4157.614	2888
4159.168	2879
4160.723	2809
4162.277	2783
4163.83	2819
4165.383	2873
4166.936	2804
4168.488	2812
4170.041	2877
4171.593	2809
4173.144	2839
4174.695	2846
4176.246	2797
4177.796	2783
4179.346	2793
4180.896	2757
4182.445	2836
4183.994	2734
4185.542	2694
4187.091	2813
4188.639	2732
4190.185	2729
4191.732	2778
4193.279	2821
4194.826	2792
4196.373	2807
4197.918	2788
4199.463	2694
4201.008	2745
4202.553	2767
4204.098	2718
4205.641	2726
4207.185	2764
4208.728	2796
4210.271	2796
4211.814	2726
4213.357	2766
4214.898	2769
4216.439	2758
4217.98	2699
4219.522	2677
4221.062	2733
4222.603	2652
4224.142	2702
4225.681	2731
4227.222	2675
4228.76	2649
4230.298	2736
4231.835	2669
4233.373	2682
4234.911	2716
4236.449	2705
4237.985	2812
4239.521	2694
4241.057	2741
4242.592	2715
4244.128	2767
4245.663	2623
4247.197	2666
4248.731	2624
4250.265	2665
4251.798	2677
4253.333	2681
4254.865	2677
4256.397	2715
4257.93	2640
4259.461	2732
4260.994	2635
4262.525	2709
4264.056	2625
4265.586	2713
4267.115	2667
4268.646	2609
4270.176	2657
4271.705	2690
4273.232	2666
4274.761	2538
4276.289	2601
4277.818	2623
4279.345	2661
4280.872	2590
4282.399	2644
4283.924	2609
4285.452	2638
4286.976	2638
4288.502	2587
4290.026	2631
4291.551	2602
4293.074	2647
4294.6	2614
4296.123	2656
4297.646	2582
4299.168	2559
4300.691	2609
4302.214	2571
4303.736	2580
4305.257	2583
4306.778	2639
4308.299	2597
4309.82	2574
4311.34	2629
4312.86	2544
4314.379	2578
