400.0745	5834
402.597	5854
405.1208	5822
407.6419	5862
410.1623	5892
412.6819	5880
415.201	5919
417.7172	6045
420.2369	6084
422.7538	6110
425.2701	6112
427.7856	6166
430.3005	6166
432.8147	6278
435.3282	6098
437.841	6118
440.3511	6152
442.8625	6212
445.3753	6207
447.8854	6287
450.3927	6323
452.9014	6317
455.4073	6249
457.9146	6290
460.4233	6184
462.9272	6305
465.4325	6334
467.935	6297
470.4389	6326
472.9421	6315
475.4446	6380
477.9444	6328
480.4456	6418
482.944	6386
485.4417	6383
487.9429	6381
490.4393	6443
492.935	6353
495.4321	6526
497.9264	6487
500.4221	6502
502.9171	6416
505.4094	6524
507.9011	6430
510.392	6538
512.8864	6442
515.3759	6634
517.8649	6545
520.3531	6498
522.8406	6537
525.3275	6496
527.8178	6646
530.3033	6532
532.7881	6671
535.2723	6598
537.7558	6481
540.2407	6756
542.7228	6613
545.2043	6655
547.6851	6608
550.1652	6654
552.6467	6600
555.1255	6601
557.6016	6580
560.079	6674
562.5557	6541
565.0318	6655
567.5092	6707
569.984	6752
572.456	6758
574.9294	6672
577.4022	6808
579.8762	6905
582.3456	6851
584.8163	6923
587.2863	6915
589.7557	6938
592.2224	6876
594.6924	6756
597.1578	6813
599.6245	6751
602.0905	6781
604.5538	6860
607.0206	6670
609.4825	6813
611.9459	6747
614.4066	6741
616.8686	6790
619.33	6821
621.7906	6799
624.2487	6780
626.708	6916
629.1647	6800
631.6207	6782
634.0801	6790
636.5348	6932
638.9888	6707
641.4442	6872
643.8969	6867
646.3509	6856
648.8022	6916
651.255	6853
653.705	6899
656.1544	6956
658.6031	6871
661.0532	7053
663.5026	6946
665.9493	7041
668.3954	7057
670.8409	7083
673.2877	6969
675.7318	6969
678.1752	7089
680.618	7071
683.0601	7120
685.5035	7180
687.9444	7096
690.3845	7175
692.824	7037
695.2628	7185
697.701	7018
700.1406	7104
702.5774	7090
705.0116	7133
707.4472	7170
709.8821	7131
712.3183	7058
714.7519	7197
717.1829	7152
719.6151	7273
722.0468	7342
724.4777	7325
726.908	7125
729.3377	7392
731.7667	7232
734.1931	7283
736.6208	7325
739.0498	7400
741.4742	7312
743.9	7536
746.3231	7447
748.7476	7333
751.1713	7602
753.5945	7507
756.015	7618
758.4368	7561
760.856	7625
763.2766	7582
765.6965	7581
768.1157	7593
770.5323	7442
772.9483	7567
775.3656	7767
777.7822	7619
780.1963	7651
782.6116	7731
785.0244	7644
787.4365	7637
789.8499	7661
792.2626	7600
794.6728	7604
797.0823	7653
799.4911	7670
801.8994	7627
804.3109	7682
806.7178	7702
809.124	7599
811.5297	7697
813.9347	7705
816.341	7747
818.7447	7673
821.1478	7825
823.5502	7743
825.952	7708
828.3531	7680
830.7556	7616
833.1554	7679
835.5546	7594
837.9532	7748
840.3511	7780
842.7504	7665
845.1451	7867
847.5411	7958
849.9365	7786
852.3312	7949
854.7272	7743
857.1187	7874
859.5115	7825
861.9037	7851
864.2952	7795
866.6842	7811
869.0764	7796
871.4661	7832
873.8531	7800
876.2415	7898
878.6272	7984
881.0162	7704
883.4026	7805
885.7866	7767
888.1717	7870
890.5543	7905
892.9382	7874
895.3215	7808
897.7041	7774
900.0842	7797
902.4655	7868
904.8443	7946
907.2244	7855
909.6039	8008
911.9808	7820
914.357	7854
916.7346	8093
919.1115	7903
921.4859	7944
923.8616	8065
926.2347	8025
928.6071	8087
930.979	8112
933.3541	8186
935.7247	8185
938.0946	8329
940.4639	8295
942.8326	8325
945.2026	8453
947.5701	8468
949.9369	8568
952.305	8773
954.6705	8889
957.0355	9326
959.4017	9581
961.7654	9505
964.1284	9487
966.4908	9536
968.8527	9089
971.2138	8840
973.5743	8554
975.9343	8321
978.2936	8284
980.6522	8216
983.0122	8082
985.3696	8116
987.7245	8204
990.0807	7959
992.4362	8081
994.7911	8190
997.1474	8078
999.4991	8024
1001.852	8066
1004.205	8152
1006.555	8177
1008.908	8121
1011.258	8243
1013.606	8194
1015.956	8130
1018.302	8170
1020.652	8151
1022.998	8211
1025.345	8188
1027.691	8165
1030.035	8270
1032.378	8195
1034.724	8279
1037.066	8304
1039.409	8341
1041.75	8364
1044.092	8154
1046.433	8374
1048.771	8387
1051.112	8146
1053.449	8283
1055.786	8310
1058.124	8242
1060.462	8276
1062.797	8239
1065.131	8372
1067.467	8340
1069.8	8414
1072.135	8550
1074.467	8357
1076.798	8375
1079.129	8275
1081.459	8404
1083.792	8278
1086.121	8240
1088.449	8453
1090.777	8431
1093.104	8327
1095.431	8288
1097.759	8284
1100.084	8397
1102.408	8361
1104.732	8191
1107.056	8535
1109.379	8414
1111.701	8321
1114.022	8308
1116.343	8246
1118.664	8336
1120.983	8431
1123.303	8335
1125.621	8302
1127.939	8236
1130.256	8359
1132.573	8373
1134.889	8293
1137.205	8448
1139.52	8476
1141.832	8403
1144.146	8276
1146.461	8478
1148.771	8378
1151.083	8423
1153.392	8446
1155.703	8316
1158.011	8375
1160.323	8479
1162.629	8341
1164.938	8552
1167.243	8301
1169.55	8260
1171.857	8473
1174.163	8291
1176.466	8300
1178.769	8314
1181.073	8363
1183.374	8365
1185.677	8366
1187.979	8473
1190.279	8307
1192.578	8331
1194.878	8347
1197.178	8388
1199.476	8272
1201.772	8333
1204.068	8384
1206.366	8450
1208.663	8424
1210.957	8341
1213.251	8437
1215.544	8396
1217.836	8393
1220.128	8415
1222.421	8252
1224.712	8436
1227.002	8441
1229.292	8368
1231.581	8516
1233.871	8725
1236.159	8696
1238.446	8530
1240.732	8638
1243.018	8623
1245.304	8518
1247.59	8615
1249.874	8606
1252.156	8663
1254.439	8641
1256.721	8612
1259.005	8803
1261.286	8609
1263.565	8745
1265.845	8516
1268.125	8685
1270.403	8656
1272.682	8589
1274.959	8681
1277.234	8588
1279.511	8638
1281.787	8587
1284.062	8765
1286.337	8580
1288.609	8514
1290.882	8571
1293.153	8554
1295.428	8687
1297.698	8589
1299.969	8601
1302.237	8524
1304.507	8493
1306.777	8373
1309.044	8509
1311.312	8494
1313.578	8440
1315.844	8564
1318.109	8523
1320.375	8603
1322.638	8494
1324.903	8505
1327.165	8357
1329.427	8469
1331.69	8675
1333.952	8616
1336.212	8458
1338.471	8568
1340.73	8541
1342.988	8519
1345.248	8579
1347.505	8521
1349.763	8433
1352.019	8553
1354.274	8562
1356.53	8612
1358.784	8534
1361.038	8515
1363.291	8504
1365.543	8502
1367.797	8645
1370.048	8564
1372.296	8629
1374.546	8457
1376.796	8570
1379.045	8624
1381.295	8618
1383.542	8637
1385.787	8401
1388.034	8645
1390.28	8706
1392.527	8651
1394.772	8612
1397.014	8669
1399.258	8563
1401.501	8603
1403.741	8752
1405.985	8707
1408.226	8626
1410.465	8638
1412.705	8715
1414.943	8578
1417.184	8697
1419.42	8789
1421.658	8703
1423.894	8616
1426.13	8775
1428.366	8754
1430.602	8699
1432.835	8760
1435.069	8736
1437.301	8846
1439.535	8851
1441.767	8907
1443.997	8856
1446.229	8780
1448.458	8960
1450.687	8819
1452.916	8917
1455.146	8896
1457.372	8923
1459.599	8787
1461.824	8814
1464.051	8838
1466.277	8877
1468.501	8741
1470.725	8946
1472.948	8845
1475.17	8718
1477.393	8815
1479.614	8739
1481.837	8442
1484.057	8670
1486.276	8653
1488.497	8616
1490.715	8640
1492.932	8522
1495.148	8572
1497.364	8570
1499.58	8641
1501.798	8483
1504.012	8429
1506.227	8376
1508.44	8656
1510.653	8528
1512.866	8620
1515.078	8412
1517.289	8474
1519.5	8563
1521.711	8519
1523.92	8508
1526.13	8458
1528.338	8364
1530.544	8499
1532.752	8578
1534.959	8489
1537.165	8548
1539.371	8560
1541.574	8573
1543.779	8572
1545.983	8519
1548.187	8608
1550.39	8586
1552.59	8593
1554.792	8689
1556.991	8572
1559.19	8643
1561.392	8538
1563.59	8684
1565.789	8672
1567.986	8771
1570.182	8690
1572.381	8662
1574.576	8775
1576.771	8782
1578.966	8761
1581.16	8706
1583.354	8726
1585.546	8662
1587.74	8699
1589.931	8718
1592.121	8741
1594.311	8737
1596.502	8795
1598.693	8806
1600.881	8950
1603.069	8826
1605.256	8789
1607.445	8889
1609.631	8754
1611.816	8783
1614.001	8743
1616.186	8827
1618.37	8904
1620.555	8932
1622.737	8813
1624.919	8821
1627.101	8801
1629.282	8901
1631.463	8880
1633.643	8945
1635.822	8885
1638.001	8812
1640.179	8896
1642.359	8953
1644.534	8770
1646.711	8871
1648.887	8898
1651.062	8964
1653.235	8817
1655.412	8906
1657.586	8888
1659.757	8931
1661.93	8919
1664.1	8820
1666.274	9006
1668.445	8837
1670.614	8909
1672.784	9060
1674.951	8966
1677.12	8921
1679.289	9041
1681.457	8982
1683.622	8839
1685.789	8911
1687.953	8852
1690.121	8893
1692.284	8791
1694.447	8948
1696.611	8876
1698.772	8903
1700.935	8760
1703.098	8701
1705.258	8775
1707.417	8689
1709.576	8589
1711.736	8715
1713.896	8795
1716.053	8679
1718.21	8759
1720.366	8769
1722.522	8670
1724.68	8777
1726.835	8788
1728.989	8668
1731.142	8650
1733.295	8584
1735.449	8813
1737.601	8636
1739.753	8709
1741.903	8734
1744.054	8775
1746.203	8645
1748.354	8656
1750.503	8810
1752.651	8765
1754.798	8895
1756.944	8953
1759.092	8743
1761.238	8838
1763.383	8838
1765.528	8883
1767.672	8690
1769.814	8887
1771.959	8856
1774.102	8838
1776.242	8798
1778.384	8852
1780.525	8894
1782.665	8900
1784.805	8847
1786.945	8819
1789.082	8807
1791.22	8874
1793.36	8798
1795.495	8963
1797.632	8876
1799.766	8899
1801.902	8804
1804.035	8851
1806.172	8927
1808.304	8838
1810.436	8883
1812.569	8794
1814.699	8832
1816.833	8748
1818.963	8741
1821.092	8682
1823.222	8740
1825.35	8775
1827.478	8844
1829.608	8810
1831.734	8659
1833.86	8747
1835.986	8837
1838.11	8803
1840.238	8701
1842.362	8705
1844.485	8797
1846.608	8708
1848.73	8770
1850.853	8685
1852.974	8580
1855.097	8757
1857.217	8624
1859.336	8546
1861.455	8725
1863.576	8692
1865.693	8579
1867.811	8699
1869.926	8745
1872.042	8744
1874.16	8872
1876.275	8527
1878.39	8661
1880.504	8680
1882.618	8820
1884.731	8759
1886.843	8717
1888.956	8628
1891.067	8799
1893.178	8652
1895.287	8785
1897.399	8795
1899.508	8696
1901.617	8634
1903.724	8780
1905.832	8748
1907.941	8733
1910.046	8660
1912.152	8846
1914.256	8742
1916.361	8873
1918.464	8809
1920.57	8816
1922.672	8792
1924.775	8881
1926.876	8762
1928.978	8772
1931.08	8865
1933.181	8873
1935.28	8875
1937.38	8903
1939.478	8891
1941.577	8642
1943.675	8885
1945.771	8975
1947.867	8828
1949.964	8918
1952.058	8847
1954.154	8824
1956.248	8795
1958.343	8755
1960.435	8885
1962.527	8728
1964.62	8827
1966.711	8835
1968.802	8697
1970.892	8786
1972.983	8901
1975.072	8920
1977.162	8725
1979.25	8969
1981.337	8766
1983.424	8668
1985.51	8806
1987.598	8861
1989.683	8785
1991.768	8827
1993.852	8773
1995.934	8757
1998.019	8701
2000.102	8753
2002.184	8726
2004.266	8582
2006.347	8657
2008.427	8820
2010.508	8736
2012.587	8710
2014.666	8694
2016.745	8772
2018.821	8716
2020.9	8678
2022.977	8847
2025.052	8646
2027.128	8675
2029.204	8574
2031.277	8677
2033.353	8607
2035.425	8784
2037.499	8748
2039.57	8787
2041.642	8674
2043.714	8684
2045.786	8870
2047.855	8752
2049.925	8529
2051.993	8699
2054.064	8814
2056.132	8806
2058.2	8760
2060.266	8669
2062.332	8794
2064.398	8664
2066.465	8663
2068.529	8683
2070.592	8806
2072.657	8823
2074.719	8698
2076.783	8738
2078.845	8731
2080.907	8849
2082.968	8571
2085.028	8746
2087.087	8700
2089.148	8747
2091.207	8756
2093.264	8600
2095.322	8567
2097.379	8727
2099.439	8723
2101.495	8649
2103.55	8710
2105.605	8668
2107.658	8753
2109.713	8798
2111.767	8645
2113.82	8749
2115.872	8744
2117.924	8711
2119.975	8646
2122.028	8705
2124.078	8725
2126.126	8655
2128.176	8710
2130.225	8684
2132.275	8721
2134.321	8781
2136.368	8626
2138.415	8702
2140.461	8527
2142.505	8690
2144.552	8631
2146.597	8732
2148.64	8696
2150.684	8628
2152.725	8558
2154.77	8543
2156.811	8758
2158.852	8744
2160.894	8679
2162.933	8565
2164.973	8627
2167.013	8737
2169.051	8534
2171.089	8579
2173.126	8628
2175.164	8514
2177.201	8556
2179.236	8618
2181.273	8722
2183.307	8550
2185.341	8691
2187.377	8591
2189.41	8546
2191.442	8459
2193.473	8361
2195.506	8622
2197.539	8442
2199.569	8484
2201.598	8508
2203.628	8524
2205.656	8520
2207.686	8379
2209.716	8489
2211.743	8427
2213.769	8333
2215.796	8463
2217.821	8429
2219.848	8387
2221.873	8342
2223.897	8346
2225.921	8369
2227.944	8384
2229.967	8430
2231.991	8478
2234.011	8495
2236.032	8313
2238.053	8456
2240.073	8517
2242.094	8392
2244.114	8481
2246.131	8371
2248.149	8378
2250.167	8572
2252.186	8328
2254.201	8361
2256.218	8410
2258.233	8485
2260.247	8426
2262.262	8400
2264.278	8422
2266.29	8546
2268.303	8491
2270.315	8400
2272.327	8323
2274.341	8288
2276.35	8349
2278.361	8463
2280.37	8445
2282.38	8440
2284.388	8404
2286.397	8452
2288.405	8516
2290.412	8434
2292.419	8418
2294.425	8396
2296.431	8449
2298.437	8412
2300.441	8450
2302.445	8421
2304.449	8358
2306.453	8345
2308.455	8466
2310.457	8344
2312.459	8509
2314.46	8351
2316.46	8367
2318.461	8292
2320.46	8383
2322.458	8257
2324.458	8333
2326.456	8302
2328.455	8331
2330.451	8320
2332.447	8304
2334.443	8200
2336.438	8266
2338.433	8238
2340.429	8178
2342.422	8257
2344.416	8144
2346.408	8277
2348.399	8132
2350.393	8266
2352.384	8214
2354.375	8266
2356.365	8205
2358.355	8166
2360.344	8221
2362.333	8274
2364.322	8316
2366.309	8181
2368.295	8181
2370.282	8072
2372.27	8244
2374.256	8233
2376.24	8223
2378.225	8163
2380.208	8232
2382.194	8213
2384.177	8171
2386.159	8132
2388.142	8127
2390.122	8075
2392.105	8114
2394.085	8131
2396.066	8224
2398.044	8172
2400.024	8153
2402.002	7930
2403.982	8120
2405.959	8157
2407.935	7975
2409.913	8094
2411.888	7960
2413.865	8069
2415.84	7962
2417.814	8071
2419.788	8237
2421.762	8122
2423.735	8116
2425.708	8122
2427.68	8052
2429.651	8069
2431.623	8031
2433.593	8008
2435.564	8056
2437.533	8152
2439.502	7982
2441.47	8072
2443.438	8086
2445.406	8110
2447.373	7973
2449.34	8146
2451.305	8114
2453.271	8140
2455.235	8009
2457.201	8004
2459.165	7943
2461.129	8017
2463.092	8088
2465.054	8098
2467.018	8192
2468.978	8196
2470.939	7954
2472.899	8114
2474.86	7982
2476.819	7965
2478.778	8011
2480.737	7928
2482.695	7923
2484.653	8046
2486.609	7817
2488.567	7927
2490.524	7927
2492.478	7977
2494.433	7910
2496.387	8005
2498.343	7884
2500.297	7879
2502.249	7797
2504.202	7822
2506.153	8057
2508.105	7942
2510.057	7840
2512.008	7949
2513.957	7913
2515.906	7994
2517.855	7958
2519.805	7785
2521.754	7872
2523.7	7937
2525.647	7895
2527.594	7931
2529.54	7950
2531.486	7774
2533.431	7908
2535.376	7973
2537.32	7879
2539.263	7878
2541.207	7956
2543.151	7806
2545.093	7986
2547.034	7877
2548.975	7856
2550.917	7899
2552.856	7882
2554.796	7898
2556.735	7886
2558.673	7738
2560.611	7970
2562.55	7838
2564.487	7887
2566.424	7888
2568.36	7883
2570.296	7763
2572.232	7776
2574.167	7885
2576.101	7852
2578.035	7771
2579.969	7823
2581.902	7780
2583.834	7901
2585.766	7989
2587.698	7915
2589.628	7851
2591.557	7791
2593.489	7819
2595.419	7838
2597.348	7916
2599.275	7888
2601.204	7918
2603.131	7685
2605.059	7816
2606.986	7924
2608.911	7817
2610.837	7838
2612.76	7774
2614.687	7842
2616.61	7870
2618.534	7825
2620.457	8007
2622.38	7901
2624.302	7917
2626.225	7683
2628.145	7836
2630.067	7857
2631.986	7891
2633.906	7832
2635.827	7908
2637.745	7879
2639.662	7793
2641.581	7887
2643.498	7840
2645.415	7796
2647.331	7839
2649.248	7911
2651.163	7867
2653.077	7812
2654.993	7836
2656.906	7784
2658.821	7866
2660.733	7730
2662.646	7727
2664.557	7820
2666.47	7895
2668.381	7828
2670.291	7832
2672.201	7832
2674.11	7864
2676.021	7791
2677.929	7778
2679.837	7669
2681.745	7648
2683.652	7754
2685.56	7827
2687.466	7708
2689.371	7762
2691.276	7713
2693.181	7739
2695.085	7645
2696.991	7673
2698.893	7694
2700.796	7728
2702.698	7713
2704.601	7761
2706.502	7741
2708.404	7599
2710.304	7636
2712.203	7692
2714.103	7520
2716.003	7740
2717.902	7660
2719.8	7644
2721.697	7659
2723.594	7745
2725.49	7657
2727.389	7581
2729.283	7540
2731.179	7601
2733.073	7647
2734.968	7687
2736.863	7519
2738.757	7542
2740.649	7611
2742.541	7693
2744.433	7526
2746.324	7654
2748.216	7558
2750.107	7543
2751.997	7614
2753.886	7603
2755.776	7557
2757.666	7659
2759.553	7551
2761.44	7484
2763.327	7598
2765.215	7568
2767.102	7537
2768.988	7491
2770.873	7615
2772.757	7565
2774.641	7521
2776.525	7462
2778.41	7513
2780.292	7457
2782.175	7594
2784.057	7522
2785.938	7455
2787.821	7504
2789.701	7476
2791.581	7471
2793.461	7518
2795.34	7473
2797.219	7692
2799.099	7569
2800.975	7392
2802.853	7537
2804.73	7511
2806.606	7473
2808.484	7593
2810.358	7432
2812.233	7446
2814.108	7484
2815.981	7372
2817.857	7447
2819.73	7454
2821.602	7427
2823.474	7389
2825.346	7402
2827.217	7335
2829.089	7343
2830.959	7399
2832.829	7358
2834.698	7549
2836.567	7392
2838.436	7442
2840.305	7476
2842.172	7476
2844.04	7476
2845.905	7528
2847.772	7492
2849.639	7336
2851.503	7497
2853.369	7593
2855.232	7583
2857.096	7420
2858.961	7593
2860.824	7464
2862.686	7492
2864.547	7556
2866.41	7534
2868.272	7517
2870.132	7553
2871.992	7698
2873.851	7629
2875.711	7619
2877.57	7643
2879.429	7710
2881.287	7794
2883.144	7778
2885.001	7853
2886.857	7759
2888.714	7901
2890.57	7726
2892.425	7782
2894.279	7794
2896.133	7671
2897.987	7733
2899.842	7866
2901.694	7715
2903.547	7704
2905.397	7778
2907.249	7715
2909.101	7697
2910.952	7762
2912.802	7947
2914.652	7832
2916.5	7854
2918.35	7857
2920.198	7894
2922.045	7957
2923.893	7949
2925.74	8077
2927.585	7975
2929.433	8111
2931.279	8227
2933.123	8232
2934.968	8162
2936.811	8221
2938.656	8239
2940.5	8302
2942.342	8364
2944.185	8338
2946.026	8480
2947.87	8391
2949.71	8315
2951.549	8235
2953.39	8338
2955.229	8222
2957.069	8233
2958.908	8021
2960.746	8067
2962.584	7940
2964.421	7967
2966.257	7961
2968.094	7813
2969.931	7813
2971.766	7878
2973.601	7855
2975.435	7737
2977.27	7744
2979.105	7722
2980.938	7621
2982.77	7598
2984.602	7681
2986.434	7776
2988.267	7588
2990.097	7488
2991.927	7579
2993.757	7456
2995.587	7468
2997.417	7449
2999.246	7556
3001.074	7299
3002.902	7327
3004.729	7379
3006.556	7252
3008.384	7168
3010.21	7204
3012.036	7269
3013.861	7285
3015.684	7112
3017.51	7189
3019.334	6965
3021.157	7148
3022.981	7101
3024.802	6970
3026.624	6977
3028.448	7008
3030.267	7069
3032.088	6870
3033.909	7060
3035.728	6970
3037.549	6945
3039.368	6898
3041.186	6917
3043.004	6881
3044.821	6879
3046.64	6899
3048.455	6896
3050.272	6786
3052.087	6936
3053.903	6937
3055.717	6921
3057.534	6903
3059.347	6901
3061.16	6888
3062.974	6718
3064.785	6901
3066.598	6782
3068.411	6838
3070.222	6846
3072.032	6760
3073.844	6813
3075.653	6837
3077.463	6807
3079.272	6659
3081.08	6719
3082.889	6650
3084.697	6785
3086.505	6821
3088.312	6685
3090.118	6762
3091.924	6666
3093.729	6721
3095.535	6716
3097.34	6777
3099.144	6680
3100.947	6586
3102.75	6601
3104.553	6858
3106.357	6681
3108.159	6755
3109.961	6750
3111.762	6603
3113.562	6575
3115.365	6752
3117.164	6616
3118.964	6515
3120.761	6517
3122.56	6681
3124.36	6616
3126.158	6594
3127.954	6493
3129.75	6549
3131.547	6573
3133.343	6507
3135.139	6466
3136.934	6568
3138.729	6543
3140.522	6547
3142.317	6550
3144.11	6517
3145.904	6381
3147.695	6326
3149.488	6546
3151.28	6611
3153.07	6461
3154.863	6367
3156.652	6440
3158.441	6491
3160.231	6459
3162.019	6418
3163.81	6439
3165.597	6381
3167.384	6438
3169.172	6271
3170.958	6428
3172.745	6438
3174.532	6410
3176.317	6364
3178.101	6431
3179.885	6494
3181.67	6286
3183.455	6397
3185.238	6288
3187.02	6337
3188.802	6294
3190.585	6310
3192.368	6401
3194.149	6381
3195.929	6271
3197.709	6250
3199.489	6321
3201.268	6253
3203.048	6320
3204.826	6262
3206.604	6307
3208.382	6244
3210.159	6243
3211.937	6331
3213.713	6356
3215.489	6356
3217.263	6265
3219.038	6307
3220.815	6248
3222.589	6313
3224.363	6302
3226.136	6344
3227.908	6338
3229.681	6357
3231.454	6242
3233.226	6254
3234.996	6236
3236.767	6388
3238.538	6178
3240.308	6286
3242.078	6328
3243.847	6311
3245.615	6318
3247.384	6220
3249.15	6339
3250.92	6254
3252.686	6301
3254.453	6254
3256.218	6232
3257.984	6212
3259.75	6244
3261.515	6271
3263.279	6375
3265.044	6284
3266.806	6201
3268.57	6303
3270.334	6271
3272.095	6238
3273.856	6259
3275.619	6352
3277.379	6220
3279.14	6301
3280.9	6273
3282.661	6171
3284.419	6184
3286.178	6142
3287.937	6243
3289.695	6247
3291.453	6282
3293.21	6206
3294.967	6199
3296.723	6093
3298.48	6255
3300.235	6261
3301.99	6236
3303.744	6343
3305.498	6273
3307.253	6205
3309.006	6226
3310.759	6164
3312.511	6179
3314.263	6241
3316.017	6066
3317.768	6281
3319.519	6167
3321.268	6113
3323.018	6229
3324.767	6181
3326.518	6203
3328.267	6127
3330.014	6316
3331.762	6205
3333.509	6217
3335.258	6252
3337.003	6097
3338.75	6293
3340.496	6156
3342.24	6043
3343.987	6087
3345.732	6083
3347.475	6219
3349.219	6132
3350.961	6192
3352.705	6113
3354.448	6083
3356.19	6062
3357.931	6008
3359.672	6094
3361.412	6066
3363.155	6089
3364.894	6165
3366.633	6114
3368.372	6072
3370.11	6236
3371.849	6076
3373.588	6039
3375.325	6061
3377.061	6037
3378.799	6078
3380.534	5968
3382.271	6009
3384.006	6010
3385.741	5969
3387.475	5954
3389.209	6073
3390.944	6016
3392.677	5995
3394.409	6044
3396.143	5977
3397.874	5899
3399.606	5848
3401.338	5938
3403.069	5977
3404.799	5879
3406.528	5909
3408.258	5875
3409.988	5942
3411.717	5908
3413.445	5866
3415.173	5972
3416.899	6015
3418.626	5976
3420.354	5821
3422.08	5960
3423.806	5923
3425.531	5881
3427.255	5865
3428.981	5804
3430.705	5755
3432.429	5814
3434.151	5881
3435.875	5846
3437.599	5804
3439.321	5775
3441.042	5768
3442.763	5839
3444.483	5821
3446.204	5689
3447.926	5859
3449.645	5638
3451.364	5826
3453.082	5795
3454.801	5699
3456.52	5725
3458.238	5681
3459.954	5738
3461.671	5688
3463.387	5679
3465.104	5605
3466.82	5694
3468.534	5756
3470.25	5699
3471.963	5741
3473.676	5584
3475.392	5636
3477.104	5675
3478.817	5610
3480.528	5594
3482.241	5541
3483.954	5560
3485.664	5660
3487.374	5552
3489.084	5520
3490.795	5702
3492.504	5577
3494.214	5609
3495.922	5601
3497.63	5563
3499.338	5599
3501.045	5515
3502.753	5593
3504.459	5591
3506.166	5480
3507.871	5567
3509.576	5395
3511.283	5580
3512.987	5638
3514.691	5567
3516.395	5428
3518.098	5523
3519.8	5521
3521.504	5463
3523.206	5462
3524.908	5580
3526.609	5449
3528.309	5406
3530.011	5487
3531.711	5493
3533.411	5411
3535.109	5458
3536.808	5362
3538.507	5405
3540.206	5343
3541.904	5374
3543.601	5372
3545.297	5330
3546.994	5457
3548.69	5430
3550.387	5274
3552.081	5377
3553.776	5369
3555.47	5356
3557.166	5427
3558.859	5271
3560.553	5288
3562.245	5295
3563.938	5325
3565.629	5333
3567.322	5306
3569.014	5207
3570.704	5300
3572.394	5366
3574.084	5342
3575.775	5320
3577.464	5340
3579.152	5353
3580.842	5286
3582.529	5285
3584.216	5250
3585.905	5266
3587.591	5389
3589.279	5237
3590.964	5280
3592.649	5233
3594.336	5207
3596.021	5257
3597.705	5246
3599.388	5167
3601.072	5163
3602.757	5241
3604.439	5243
3606.122	5190
3607.803	5115
3609.485	5198
3611.167	5115
3612.849	5079
3614.529	5088
3616.208	5302
3617.888	5056
3619.567	5141
3621.247	5172
3622.926	5107
3624.603	5079
3626.281	5108
3627.958	5089
3629.635	5003
3631.312	4994
3632.989	5026
3634.665	5127
3636.339	5061
3638.014	4928
3639.691	5019
3641.364	4986
3643.038	4993
3644.71	5035
3646.384	4980
3648.058	5062
3649.729	4974
3651.402	4984
3653.073	4932
3654.744	4974
3656.414	4918
3658.085	4994
3659.755	5008
3661.424	4987
3663.094	4883
3664.762	4966
3666.431	4945
3668.099	4942
3669.766	4897
3671.433	5007
3673.099	4825
3674.768	4920
3676.433	4839
3678.098	4907
3679.763	4936
3681.428	4876
3683.093	5029
3684.757	4915
3686.421	4839
3688.083	4820
3689.746	4883
3691.408	4916
3693.071	4921
3694.733	4901
3696.394	4833
3698.054	4885
3699.715	4788
3701.375	4786
3703.036	4884
3704.695	4912
3706.354	4823
3708.012	4879
3709.67	4848
3711.329	4854
3712.987	4830
3714.644	4812
3716.299	4794
3717.955	4759
3719.613	4729
3721.268	4744
3722.923	4813
3724.577	4885
3726.231	4822
3727.885	4863
3729.539	4826
3731.192	4844
3732.845	4821
3734.497	4723
3736.149	4797
3737.802	4845
3739.453	4747
3741.104	4728
3742.753	4659
3744.404	4779
3746.052	4714
3747.704	4661
3749.352	4690
3751	4723
3752.648	4679
3754.296	4651
3755.944	4664
3757.59	4824
3759.238	4704
3760.883	4687
3762.528	4805
3764.176	4674
3765.82	4698
3767.464	4697
3769.109	4744
3770.753	4620
3772.396	4678
3774.04	4719
3775.683	4806
3777.325	4738
3778.967	4663
3780.608	4633
3782.25	4702
3783.89	4648
3785.531	4668
3787.17	4595
3788.81	4623
3790.45	4620
3792.09	4573
3793.729	4527
3795.366	4608
3797.003	4613
3798.64	4579
3800.278	4477
3801.915	4550
3803.551	4585
3805.187	4573
3806.822	4485
3808.458	4516
3810.093	4511
3811.726	4561
3813.36	4505
3814.994	4573
3816.627	4482
3818.262	4568
3819.893	4574
3821.525	4503
3823.157	4500
3824.787	4510
3826.42	4571
3828.051	4510
3829.68	4523
3831.31	4371
3832.938	4487
3834.569	4452
3836.198	4539
3837.825	4585
3839.454	4427
3841.08	4457
3842.708	4487
3844.335	4491
3845.962	4490
3847.587	4467
3849.212	4421
3850.838	4404
3852.463	4401
3854.089	4391
3855.712	4439
3857.335	4395
3858.959	4383
3860.582	4362
3862.205	4436
3863.827	4386
3865.449	4349
3867.07	4509
3868.691	4465
3870.312	4419
3871.933	4335
3873.553	4481
3875.173	4342
3876.792	4411
3878.411	4308
3880.03	4446
3881.647	4348
3883.265	4374
3884.882	4334
3886.499	4337
3888.116	4365
3889.732	4404
3891.348	4371
3892.964	4345
3894.579	4285
3896.195	4379
3897.809	4326
3899.423	4362
3901.036	4281
3902.648	4375
3904.261	4357
3905.875	4332
3907.487	4364
3909.099	4245
3910.709	4256
3912.321	4318
3913.933	4142
3915.542	4233
3917.152	4318
3918.762	4316
3920.37	4338
3921.98	4294
3923.589	4400
3925.196	4280
3926.804	4323
3928.41	4333
3930.018	4302
3931.626	4288
3933.231	4277
3934.838	4248
3936.442	4245
3938.046	4226
3939.653	4290
3941.257	4283
3942.861	4379
3944.464	4214
3946.068	4281
3947.67	4250
3949.273	4257
3950.876	4243
3952.477	4310
3954.078	4195
3955.678	4174
3957.281	4164
3958.881	4116
3960.48	4205
3962.079	4237
3963.678	4162
3965.279	4217
3966.877	4200
3968.475	4225
3970.072	4204
3971.669	4168
3973.266	4155
3974.864	4144
3976.459	4138
3978.055	4133
3979.65	4122
3981.245	4137
3982.841	4143
3984.436	4118
3986.03	4081
3987.623	4098
3989.216	4105
3990.809	4047
3992.403	4084
3993.995	4092
3995.586	4055
3997.177	4049
3998.768	4047
4000.361	4054
4001.951	3929
4003.54	4106
4005.13	4097
4006.719	4230
4008.31	3999
4009.897	4084
4011.485	3984
4013.073	4017
4014.66	4015
4016.247	4111
4017.834	3922
4019.421	4076
4021.006	3942
4022.592	4013
4024.178	4003
4025.763	3946
4027.348	3914
4028.932	4035
4030.515	3916
4032.099	4044
4033.682	4023
4035.266	3966
4036.847	3887
4038.429	3928
4040.011	3965
4041.592	3933
4043.173	3920
4044.755	3903
4046.334	3967
4047.913	3883
4049.494	3949
4051.074	3892
4052.652	3876
4054.23	3894
4055.807	3780
4057.385	3808
4058.963	3850
4060.541	3928
4062.117	3962
4063.693	3948
4065.269	3878
4066.844	3783
4068.42	3846
4069.995	3859
4071.569	3853
4073.143	3891
4074.716	3857
4076.291	3873
4077.864	3819
4079.436	3819
4081.009	3798
4082.58	3858
4084.152	3885
4085.723	3829
4087.294	3769
4088.865	3877
4090.435	3788
4092.005	3747
4093.574	3830
4095.143	3785
4096.712	3771
4098.279	3771
4099.848	3893
4101.416	3744
4102.984	3746
4104.55	3788
4106.117	3768
4107.682	3804
4109.248	3759
4110.815	3794
4112.379	3768
4113.945	3743
4115.508	3748
4117.073	3767
4118.637	3734
4120.201	3703
4121.763	3737
4123.325	3715
4124.888	3684
4126.449	3743
4128.013	3700
4129.573	3679
4131.133	3747
4132.694	3679
4134.254	3749
4135.814	3754
4137.374	3636
4138.933	3657
4140.491	3662
4142.049	3702
4143.607	3643
4145.167	3690
4146.724	3689
4148.28	3582
4149.836	3613
4151.392	3565
4152.949	3603
4154.504	3598
4156.059	3575
4157.614	3631
4159.168	3627
4160.723	3627
4162.277	3669
4163.83	3623
4165.383	3575
4166.936	3561
4168.488	3561
4170.041	3622
4171.593	3504
4173.144	3628
4174.695	3538
4176.246	3533
4177.796	3581
4179.346	3521
4180.896	3534
4182.445	3478
4183.994	3472
4185.542	3519
4187.091	3539
4188.639	3480
4190.185	3518
4191.732	3534
4193.279	3496
4194.826	3489
4196.373	3487
4197.918	3569
4199.463	3505
4201.008	3409
4202.553	3488
4204.098	3551
4205.641	3453
4207.185	3460
4208.728	3565
4210.271	3441
4211.814	3448
4213.357	3411
4214.898	3419
4216.439	3427
4217.98	3453
4219.522	3501
4221.062	3482
4222.603	3497
4224.142	3496
4225.681	3442
4227.222	3368
4228.76	3441
4230.298	3416
4231.835	3503
4233.373	3409
4234.911	3463
4236.449	3520
4237.985	3414
4239.521	3402
4241.057	3334
4242.592	3349
4244.128	3403
4245.663	3304
4247.197	3355
4248.731	3467
4250.265	3386
4251.798	3436
4253.333	3352
4254.865	3348
4256.397	3418
4257.93	3310
4259.461	3372
4260.994	3404
4262.525	3332
4264.056	3329
4265.586	3378
4267.115	3366
4268.646	3368
4270.176	3380
4271.705	3351
4273.232	3349
4274.761	3309
4276.289	3341
4277.818	3344
4279.345	3278
4280.872	3342
4282.399	3346
4283.924	3370
4285.452	3278
4286.976	3365
4288.502	3298
4290.026	3341
4291.551	3275
4293.074	3232
4294.6	3278
4296.123	3332
4297.646	3272
4299.168	3252
4300.691	3262
4302.214	3240
4303.736	3241
4305.257	3253
4306.778	3207
4308.299	3285
4309.82	3288
4311.34	3275
4312.86	3215
4314.379	3279
