400.0745	3957
402.597	3922
405.1208	3970
407.6419	3940
410.1623	3957
412.6819	4007
415.201	4017
417.7172	3976
420.2369	4029
422.7538	4146
425.2701	4182
427.7856	4149
430.3005	4227
432.8147	4226
435.3282	4242
437.841	4197
440.3511	4204
442.8625	4185
445.3753	4264
447.8854	4189
450.3927	4248
452.9014	4206
455.4073	4199
457.9146	4170
460.4233	4127
462.9272	4146
465.4325	4142
467.935	4178
470.4389	4259
472.9421	4234
475.4446	4224
477.9444	4221
480.4456	4207
482.944	4250
485.4417	4277
487.9429	4301
490.4393	4343
492.935	4250
495.4321	4211
497.9264	4253
500.4221	4316
502.9171	4232
505.4094	4297
507.9011	4351
510.392	4367
512.8864	4299
515.3759	4338
517.8649	4390
520.3531	4363
522.8406	4322
525.3275	4368
527.8178	4425
530.3033	4333
532.7881	4292
535.2723	4304
537.7558	4334
540.2407	4466
542.7228	4388
545.2043	4339
547.6851	4359
550.1652	4325
552.6467	4363
555.1255	4400
557.6016	4372
560.079	4481
562.5557	4403
565.0318	4333
567.5092	4481
569.984	4445
572.456	4523
574.9294	4480
577.4022	4502
579.8762	4515
582.3456	4546
584.8163	4576
587.2863	4517
589.7557	4491
592.2224	4573
594.6924	4566
597.1578	4610
599.6245	4552
602.0905	4510
604.5538	4547
607.0206	4534
609.4825	4515
611.9459	4571
614.4066	4535
616.8686	4537
619.33	4572
621.7906	4463
624.2487	4490
626.708	4657
629.1647	4430
631.6207	4516
634.0801	4491
636.5348	4487
638.9888	4412
641.4442	4498
643.8969	4534
646.3509	4594
648.8022	4580
651.255	4634
653.705	4473
656.1544	4583
658.6031	4536
661.0532	4567
663.5026	4588
665.9493	4647
668.3954	4563
670.8409	4730
673.2877	4618
675.7318	4548
678.1752	4704
680.618	4633
683.0601	4760
685.5035	4639
687.9444	4743
690.3845	4607
692.824	4673
695.2628	4715
697.701	4590
700.1406	4785
702.5774	4688
705.0116	4722
707.4472	4709
709.8821	4756
712.3183	4770
714.7519	4673
717.1829	4797
719.6151	4815
722.0468	4805
724.4777	4771
726.908	4883
729.3377	4726
731.7667	4833
734.1931	4822
736.6208	4759
739.0498	4905
741.4742	4900
743.9	4864
746.3231	4956
748.7476	4976
751.1713	4977
753.5945	4987
756.015	4956
758.4368	5041
760.856	5002
763.2766	5025
765.6965	4885
768.1157	5056
770.5323	5013
772.9483	4962
775.3656	5101
777.7822	5017
780.1963	4971
782.6116	4972
785.0244	5045
787.4365	5038
789.8499	4964
792.2626	5041
794.6728	5031
797.0823	5059
799.4911	5048
801.8994	5051
804.3109	5084
806.7178	5141
809.124	5072
811.5297	5057
813.9347	5148
816.341	5116
818.7447	4971
821.1478	5121
823.5502	5158
825.952	5130
828.3531	5073
830.7556	5063
833.1554	5063
835.5546	5096
837.9532	5170
840.3511	5154
842.7504	5094
845.1451	5213
847.5411	5177
849.9365	5186
852.3312	5268
854.7272	5255
857.1187	5276
859.5115	5239
861.9037	5199
864.2952	5185
866.6842	5184
869.0764	5339
871.4661	5208
873.8531	5162
876.2415	5177
878.6272	5128
881.0162	5059
883.4026	5198
885.7866	5166
888.1717	5141
890.5543	5223
892.9382	5209
895.3215	5222
897.7041	5271
900.0842	5116
902.4655	5186
904.8443	5225
907.2244	5156
909.6039	5259
911.9808	5296
914.357	5202
916.7346	5444
919.1115	5375
921.4859	5451
923.8616	5447
926.2347	5575
928.6071	5563
930.979	5474
933.3541	5549
935.7247	5495
938.0946	5414
940.4639	5495
942.8326	5556
945.2026	5545
947.5701	5604
949.9369	5663
952.305	5894
954.6705	5995
957.0355	6205
959.4017	6295
961.7654	6508
964.1284	6442
966.4908	6319
968.8527	6074
971.2138	6050
973.5743	5723
975.9343	5592
978.2936	5545
980.6522	5515
983.0122	5482
985.3696	5460
987.7245	5297
990.0807	5364
992.4362	5363
994.7911	5276
997.1474	5527
999.4991	5386
1001.852	5472
1004.205	5378
1006.555	5409
1008.908	5440
1011.258	5475
1013.606	5431
1015.956	5340
1018.302	5344
1020.652	5368
1022.998	5369
1025.345	5303
1027.691	5442
1030.035	5540
1032.378	5479
1034.724	5428
1037.066	5451
1039.409	5434
1041.75	5398
1044.092	5277
1046.433	5468
1048.771	5364
1051.112	5386
1053.449	5491
1055.786	5470
1058.124	5459
1060.462	5435
1062.797	5543
1065.131	5586
1067.467	5631
1069.8	5610
1072.135	5588
1074.467	5474
1076.798	5582
1079.129	5545
1081.459	5565
1083.792	5492
1086.121	5423
1088.449	5507
1090.777	5495
1093.104	5497
1095.431	5394
1097.759	5491
1100.084	5590
1102.408	5460
1104.732	5447
1107.056	5538
1109.379	5543
1111.701	5502
1114.022	5448
1116.343	5457
1118.664	5435
1120.983	5469
1123.303	5573
1125.621	5559
1127.939	5609
1130.256	5594
1132.573	5473
1134.889	5528
1137.205	5580
1139.52	5540
1141.832	5433
1144.146	5537
1146.461	5520
1148.771	5487
1151.083	5451
1153.392	5488
1155.703	5452
1158.011	5421
1160.323	5585
1162.629	5468
1164.938	5548
1167.243	5589
1169.55	5545
1171.857	5566
1174.163	5639
1176.466	5595
1178.769	5593
1181.073	5609
1183.374	5582
1185.677	5530
1187.979	5512
1190.279	5444
1192.578	5518
1194.878	5499
1197.178	5415
1199.476	5566
1201.772	5649
1204.068	5466
1206.366	5537
1208.663	5525
1210.957	5611
1213.251	5504
1215.544	5509
1217.836	5533
1220.128	5570
1222.421	5471
1224.712	5646
1227.002	5590
1229.292	5576
1231.581	5626
1233.871	5701
1236.159	5644
1238.446	5676
1240.732	5708
1243.018	5563
1245.304	5701
1247.59	5715
1249.874	5800
1252.156	5754
1254.439	5660
1256.721	5756
1259.005	5785
1261.286	5832
1263.565	5728
1265.845	5816
1268.125	5787
1270.403	5810
1272.682	5744
1274.959	5822
1277.234	5759
1279.511	5766
1281.787	5724
1284.062	5697
1286.337	5699
1288.609	5680
1290.882	5714
1293.153	5689
1295.428	5759
1297.698	5709
1299.969	5588
1302.237	5724
1304.507	5584
1306.777	5728
1309.044	5674
1311.312	5645
1313.578	5752
1315.844	5769
1318.109	5638
1320.375	5643
1322.638	5650
1324.903	5759
1327.165	5724
1329.427	5650
1331.69	5716
1333.952	5692
1336.212	5683
1338.471	5692
1340.73	5789
1342.988	5633
1345.248	5708
1347.505	5703
1349.763	5815
1352.019	5694
1354.274	5668
1356.53	5637
1358.784	5712
1361.038	5733
1363.291	5741
1365.543	5643
1367.797	5685
1370.048	5688
1372.296	5668
1374.546	5627
1376.796	5819
1379.045	5622
1381.295	5691
1383.542	5842
1385.787	5678
1388.034	5751
1390.28	5767
1392.527	5747
1394.772	5774
1397.014	5781
1399.258	5836
1401.501	5911
1403.741	5845
1405.985	5985
1408.226	5910
1410.465	5964
1412.705	5834
1414.943	5830
1417.184	5946
1419.42	5789
1421.658	5892
1423.894	5827
1426.13	5876
1428.366	5966
1430.602	5871
1432.835	5962
1435.069	5969
1437.301	5985
1439.535	5995
1441.767	6069
1443.997	6022
1446.229	5978
1448.458	6035
1450.687	6009
1452.916	6008
1455.146	6024
1457.372	5994
1459.599	6107
1461.824	6091
1464.051	5953
1466.277	5934
1468.501	5940
1470.725	5811
1472.948	5790
1475.17	5732
1477.393	5787
1479.614	5716
1481.837	5820
1484.057	5744
1486.276	5724
1488.497	5723
1490.715	5810
1492.932	5616
1495.148	5684
1497.364	5633
1499.58	5682
1501.798	5703
1504.012	5520
1506.227	5654
1508.44	5582
1510.653	5592
1512.866	5659
1515.078	5703
1517.289	5657
1519.5	5640
1521.711	5684
1523.92	5637
1526.13	5616
1528.338	5760
1530.544	5633
1532.752	5726
1534.959	5679
1537.165	5687
1539.371	5767
1541.574	5712
1543.779	5731
1545.983	5623
1548.187	5763
1550.39	5679
1552.59	5668
1554.792	5730
1556.991	5669
1559.19	5746
1561.392	5874
1563.59	5700
1565.789	5780
1567.986	5795
1570.182	5716
1572.381	5740
1574.576	5773
1576.771	5823
1578.966	5772
1581.16	5784
1583.354	5894
1585.546	5804
1587.74	5851
1589.931	5714
1592.121	5769
1594.311	5850
1596.502	5884
1598.693	5860
1600.881	5855
1603.069	5841
1605.256	5847
1607.445	5798
1609.631	5845
1611.816	5914
1614.001	5778
1616.186	5883
1618.37	5818
1620.555	5816
1622.737	5917
1624.919	5741
1627.101	5786
1629.282	5857
1631.463	5826
1633.643	5877
1635.822	5883
1638.001	5849
1640.179	5845
1642.359	5958
1644.534	5913
1646.711	5780
1648.887	5851
1651.062	5886
1653.235	5975
1655.412	5938
1657.586	5808
1659.757	5949
1661.93	5898
1664.1	6006
1666.274	5870
1668.445	5957
1670.614	6029
1672.784	5973
1674.951	5903
1677.12	5992
1679.289	5978
1681.457	5985
1683.622	5876
1685.789	6028
1687.953	5868
1690.121	5948
1692.284	5952
1694.447	5851
1696.611	5869
1698.772	5989
1700.935	5835
1703.098	5938
1705.258	5783
1707.417	5856
1709.576	5684
1711.736	5811
1713.896	5798
1716.053	5796
1718.21	5779
1720.366	5826
1722.522	5951
1724.68	5845
1726.835	5753
1728.989	5754
1731.142	5643
1733.295	5752
1735.449	5849
1737.601	5713
1739.753	5723
1741.903	5874
1744.054	5757
1746.203	5704
1748.354	5882
1750.503	5749
1752.651	5791
1754.798	5849
1756.944	5760
1759.092	5758
1761.238	5752
1763.383	5867
1765.528	5739
1767.672	5956
1769.814	5753
1771.959	5865
1774.102	5846
1776.242	5846
1778.384	5678
1780.525	5879
1782.665	5888
1784.805	5785
1786.945	5907
1789.082	5837
1791.22	6010
1793.36	5949
1795.495	5876
1797.632	5815
1799.766	5912
1801.902	5795
1804.035	5806
1806.172	5814
1808.304	5921
1810.436	5816
1812.569	5794
1814.699	5956
1816.833	5866
1818.963	5873
1821.092	5804
1823.222	5747
1825.35	5833
1827.478	5763
1829.608	5864
1831.734	5833
1833.86	5860
1835.986	5662
1838.11	5853
1840.238	5851
1842.362	5799
1844.485	5693
1846.608	5872
1848.73	5843
1850.853	5718
1852.974	5781
1855.097	5762
1857.217	5773
1859.336	5766
1861.455	5767
1863.576	5771
1865.693	5776
1867.811	5803
1869.926	5794
1872.042	5738
1874.16	5727
1876.275	5809
1878.39	5747
1880.504	5743
1882.618	5841
1884.731	5760
1886.843	5807
1888.956	5831
1891.067	5880
1893.178	5812
1895.287	5865
1897.399	5831
1899.508	5809
1901.617	5660
1903.724	5810
1905.832	5855
1907.941	5866
1910.046	5848
1912.152	5925
1914.256	5840
1916.361	5778
1918.464	5733
1920.57	5993
1922.672	5924
1924.775	5995
1926.876	5870
1928.978	5878
1931.08	5950
1933.181	5811
1935.28	5804
1937.38	5900
1939.478	5923
1941.577	5880
1943.675	5866
1945.771	5792
1947.867	5926
1949.964	5880
1952.058	5862
1954.154	5816
1956.248	5846
1958.343	5967
1960.435	5864
1962.527	5840
1964.62	5771
1966.711	5909
1968.802	5754
1970.892	5907
1972.983	5787
1975.072	5804
1977.162	5747
1979.25	5825
1981.337	5832
1983.424	5817
1985.51	5873
1987.598	5880
1989.683	5759
1991.768	5828
1993.852	5792
1995.934	5890
1998.019	5823
2000.102	5794
2002.184	5705
2004.266	5790
2006.347	5824
2008.427	5830
2010.508	5768
2012.587	5800
2014.666	5727
2016.745	5727
2018.821	5783
2020.9	5751
2022.977	5789
2025.052	5730
2027.128	5705
2029.204	5796
2031.277	5821
2033.353	5735
2035.425	5844
2037.499	5804
2039.57	5794
2041.642	5802
2043.714	5801
2045.786	5769
2047.855	5763
2049.925	5813
2051.993	5789
2054.064	5876
2056.132	5801
2058.2	5894
2060.266	5748
2062.332	5803
2064.398	5790
2066.465	5723
2068.529	5751
2070.592	5820
2072.657	5971
2074.719	5761
2076.783	5714
2078.845	5750
2080.907	5884
2082.968	5845
2085.028	5839
2087.087	5666
2089.148	5825
2091.207	5868
2093.264	5755
2095.322	5727
2097.379	5776
2099.439	5745
2101.495	5837
2103.55	5886
2105.605	5724
2107.658	5782
2109.713	5736
2111.767	5738
2113.82	5832
2115.872	5769
2117.924	5865
2119.975	5732
2122.028	5852
2124.078	5850
2126.126	5790
2128.176	5680
2130.225	5780
2132.275	5750
2134.321	5831
2136.368	5680
2138.415	5705
2140.461	5841
2142.505	5784
2144.552	5837
2146.597	5747
2148.64	5694
2150.684	5723
2152.725	5760
2154.77	5678
2156.811	5723
2158.852	5718
2160.894	5769
2162.933	5741
2164.973	5674
2167.013	5682
2169.051	5631
2171.089	5723
2173.126	5788
2175.164	5741
2177.201	5662
2179.236	5673
2181.273	5606
2183.307	5736
2185.341	5658
2187.377	5549
2189.41	5652
2191.442	5673
2193.473	5689
2195.506	5679
2197.539	5738
2199.569	5665
2201.598	5582
2203.628	5546
2205.656	5684
2207.686	5621
2209.716	5700
2211.743	5571
2213.769	5587
2215.796	5613
2217.821	5649
2219.848	5620
2221.873	5717
2223.897	5552
2225.921	5658
2227.944	5539
2229.967	5596
2231.991	5609
2234.011	5563
2236.032	5608
2238.053	5648
2240.073	5586
2242.094	5551
2244.114	5598
2246.131	5586
2248.149	5598
2250.167	5602
2252.186	5645
2254.201	5590
2256.218	5654
2258.233	5564
2260.247	5609
2262.262	5695
2264.278	5632
2266.29	5578
2268.303	5568
2270.315	5664
2272.327	5546
2274.341	5748
2276.35	5630
2278.361	5581
2280.37	5584
2282.38	5705
2284.388	5587
2286.397	5654
2288.405	5676
2290.412	5646
2292.419	5529
2294.425	5575
2296.431	5604
2298.437	5666
2300.441	5512
2302.445	5735
2304.449	5555
2306.453	5632
2308.455	5500
2310.457	5569
2312.459	5625
2314.46	5596
2316.46	5556
2318.461	5500
2320.46	5507
2322.458	5539
2324.458	5601
2326.456	5540
2328.455	5562
2330.451	5638
2332.447	5502
2334.443	5543
2336.438	5662
2338.433	5428
2340.429	5528
2342.422	5461
2344.416	5582
2346.408	5423
2348.399	5449
2350.393	5569
2352.384	5501
2354.375	5502
2356.365	5500
2358.355	5512
2360.344	5542
2362.333	5468
2364.322	5448
2366.309	5434
2368.295	5526
2370.282	5429
2372.27	5427
2374.256	5458
2376.24	5585
2378.225	5482
2380.208	5541
2382.194	5575
2384.177	5376
2386.159	5404
2388.142	5410
2390.122	5414
2392.105	5457
2394.085	5287
2396.066	5383
2398.044	5290
2400.024	5432
2402.002	5377
2403.982	5366
2405.959	5444
2407.935	5417
2409.913	5323
2411.888	5321
2413.865	5393
2415.84	5427
2417.814	5369
2419.788	5431
2421.762	5380
2423.735	5312
2425.708	5322
2427.68	5374
2429.651	5455
2431.623	5462
2433.593	5398
2435.564	5317
2437.533	5477
2439.502	5378
2441.47	5487
2443.438	5340
2445.406	5424
2447.373	5367
2449.34	5427
2451.305	5359
2453.271	5392
2455.235	5354
2457.201	5394
2459.165	5300
2461.129	5277
2463.092	5328
2465.054	5366
2467.018	5278
2468.978	5267
2470.939	5280
2472.899	5376
2474.86	5305
2476.819	5288
2478.778	5273
2480.737	5341
2482.695	5337
2484.653	5364
2486.609	5312
2488.567	5286
2490.524	5301
2492.478	5225
2494.433	5398
2496.387	5307
2498.343	5280
2500.297	5262
2502.249	5248
2504.202	5310
2506.153	5298
2508.105	5296
2510.057	5333
2512.008	5352
2513.957	5237
2515.906	5233
2517.855	5340
2519.805	5382
2521.754	5246
2523.7	5295
2525.647	5293
2527.594	5212
2529.54	5308
2531.486	5292
2533.431	5246
2535.376	5345
2537.32	5299
2539.263	5288
2541.207	5279
2543.151	5246
2545.093	5272
2547.034	5290
2548.975	5204
2550.917	5187
2552.856	5281
2554.796	5316
2556.735	5313
2558.673	5244
2560.611	5254
2562.55	5274
2564.487	5295
2566.424	5309
2568.36	5420
2570.296	5292
2572.232	5207
2574.167	5223
2576.101	5224
2578.035	5162
2579.969	5280
2581.902	5232
2583.834	5236
2585.766	5353
2587.698	5234
2589.628	5297
2591.557	5430
2593.489	5256
2595.419	5250
2597.348	5321
2599.275	5277
2601.204	5245
2603.131	5228
2605.059	5307
2606.986	5285
2608.911	5284
2610.837	5252
2612.76	5302
2614.687	5290
2616.61	5286
2618.534	5320
2620.457	5373
2622.38	5233
2624.302	5346
2626.225	5208
2628.145	5204
2630.067	5183
2631.986	5143
2633.906	5273
2635.827	5338
2637.745	5326
2639.662	5384
2641.581	5263
2643.498	5336
2645.415	5278
2647.331	5235
2649.248	5322
2651.163	5320
2653.077	5241
2654.993	5245
2656.906	5349
2658.821	5246
2660.733	5283
2662.646	5329
2664.557	5195
2666.47	5186
2668.381	5301
2670.291	5283
2672.201	5226
2674.11	5275
2676.021	5252
2677.929	5252
2679.837	5205
2681.745	5277
2683.652	5273
2685.56	5219
2687.466	5161
2689.371	5209
2691.276	5189
2693.181	5106
2695.085	5243
2696.991	5285
2698.893	5216
2700.796	5254
2702.698	5161
2704.601	5251
2706.502	5131
2708.404	5191
2710.304	5213
2712.203	5198
2714.103	5235
2716.003	5154
2717.902	5087
2719.8	5165
2721.697	5157
2723.594	5141
2725.49	5124
2727.389	5178
2729.283	5187
2731.179	5100
2733.073	5175
2734.968	5194
2736.863	5144
2738.757	5073
2740.649	5224
2742.541	5071
2744.433	5099
2746.324	5230
2748.216	5163
2750.107	5191
2751.997	5180
2753.886	5175
2755.776	5096
2757.666	5114
2759.553	5213
2761.44	5089
2763.327	5139
2765.215	5047
2767.102	5111
2768.988	5173
2770.873	5134
2772.757	5119
2774.641	5062
2776.525	5092
2778.41	5106
2780.292	5121
2782.175	5105
2784.057	5000
2785.938	5152
2787.821	5127
2789.701	5109
2791.581	5059
2793.461	5045
2795.34	5068
2797.219	5079
2799.099	5126
2800.975	5113
2802.853	5117
2804.73	4996
2806.606	5022
2808.484	5074
2810.358	5138
2812.233	4904
2814.108	4990
2815.981	5107
2817.857	5039
2819.73	5079
2821.602	5032
2823.474	4955
2825.346	5114
2827.217	5081
2829.089	5087
2830.959	5083
2832.829	5018
2834.698	5101
2836.567	5014
2838.436	5161
2840.305	5112
2842.172	5146
2844.04	5040
2845.905	5165
2847.772	5144
2849.639	5193
2851.503	5259
2853.369	5252
2855.232	5190
2857.096	5143
2858.961	5295
2860.824	5137
2862.686	5328
2864.547	5353
2866.41	5292
2868.272	5331
2870.132	5229
2871.992	5410
2873.851	5359
2875.711	5503
2877.57	5618
2879.429	5516
2881.287	5565
2883.144	5566
2885.001	5533
2886.857	5649
2888.714	5574
2890.57	5717
2892.425	5781
2894.279	5783
2896.133	5705
2897.987	5805
2899.842	5665
2901.694	5601
2903.547	5637
2905.397	5671
2907.249	5602
2909.101	5707
2910.952	5643
2912.802	5668
2914.652	5705
2916.5	5799
2918.35	5731
2920.198	5797
2922.045	6006
2923.893	5908
2925.74	5849
2927.585	5869
2929.433	5924
2931.279	5926
2933.123	6034
2934.968	5927
2936.811	6014
2938.656	6086
2940.5	6075
2942.342	6270
2944.185	6190
2946.026	6103
2947.87	6312
2949.71	6246
2951.549	6321
2953.39	6398
2955.229	6308
2957.069	6099
2958.908	6074
2960.746	6196
2962.584	6173
2964.421	6072
2966.257	6123
2968.094	5868
2969.931	5993
2971.766	5913
2973.601	5740
2975.435	5735
2977.27	5715
2979.105	5727
2980.938	5691
2982.77	5641
2984.602	5461
2986.434	5570
2988.267	5503
2990.097	5446
2991.927	5409
2993.757	5387
2995.587	5328
2997.417	5248
2999.246	5225
3001.074	5229
3002.902	5209
3004.729	5148
3006.556	5218
3008.384	5111
3010.21	5048
3012.036	5089
3013.861	5028
3015.684	4947
3017.51	5001
3019.334	4908
3021.157	4919
3022.981	4865
3024.802	4928
3026.624	4844
3028.448	4772
3030.267	4923
3032.088	4907
3033.909	4783
3035.728	4737
3037.549	4799
3039.368	4812
3041.186	4832
3043.004	4770
3044.821	4772
3046.64	4806
3048.455	4768
3050.272	4698
3052.087	4727
3053.903	4836
3055.717	4708
3057.534	4771
3059.347	4792
3061.16	4706
3062.974	4776
3064.785	4702
3066.598	4716
3068.411	4718
3070.222	4634
3072.032	4722
3073.844	4781
3075.653	4712
3077.463	4676
3079.272	4707
3081.08	4702
3082.889	4737
3084.697	4766
3086.505	4696
3088.312	4659
3090.118	4691
3091.924	4623
3093.729	4637
3095.535	4683
3097.34	4551
3099.144	4718
3100.947	4574
3102.75	4729
3104.553	4662
3106.357	4589
3108.159	4674
3109.961	4574
3111.762	4651
3113.562	4577
3115.365	4563
3117.164	4502
3118.964	4554
3120.761	4671
3122.56	4509
3124.36	4556
3126.158	4640
3127.954	4551
3129.75	4474
3131.547	4600
3133.343	4474
3135.139	4483
3136.934	4554
3138.729	4558
3140.522	4517
3142.317	4503
3144.11	4422
3145.904	4552
3147.695	4483
3149.488	4372
3151.28	4556
3153.07	4474
3154.863	4460
3156.652	4474
3158.441	4419
3160.231	4530
3162.019	4496
3163.81	4449
3165.597	4383
3167.384	4497
3169.172	4414
3170.958	4420
3172.745	4341
3174.532	4422
3176.317	4477
3178.101	4448
3179.885	4348
3181.67	4451
3183.455	4478
3185.238	4438
3187.02	4486
3188.802	4362
3190.585	4444
3192.368	4425
3194.149	4360
3195.929	4354
3197.709	4323
3199.489	4425
3201.268	4391
3203.048	4386
3204.826	4370
3206.604	4457
3208.382	4418
3210.159	4383
3211.937	4297
3213.713	4342
3215.489	4420
3217.263	4328
3219.038	4402
3220.815	4423
3222.589	4426
3224.363	4451
3226.136	4478
3227.908	4319
3229.681	4434
3231.454	4307
3233.226	4465
3234.996	4455
3236.767	4271
3238.538	4314
3240.308	4346
3242.078	4363
3243.847	4368
3245.615	4401
3247.384	4326
3249.15	4457
3250.92	4288
3252.686	4427
3254.453	4341
3256.218	4484
3257.984	4238
3259.75	4383
3261.515	4385
3263.279	4441
3265.044	4306
3266.806	4394
3268.57	4415
3270.334	4412
3272.095	4383
3273.856	4361
3275.619	4390
3277.379	4309
3279.14	4365
3280.9	4362
3282.661	4345
3284.419	4430
3286.178	4380
3287.937	4373
3289.695	4316
3291.453	4407
3293.21	4384
3294.967	4368
3296.723	4341
3298.48	4341
3300.235	4375
3301.99	4335
3303.744	4342
3305.498	4439
3307.253	4335
3309.006	4306
3310.759	4387
3312.511	4340
3314.263	4291
3316.017	4345
3317.768	4308
3319.519	4329
3321.268	4444
3323.018	4277
3324.767	4320
3326.518	4333
3328.267	4334
3330.014	4381
3331.762	4320
3333.509	4358
3335.258	4303
3337.003	4331
3338.75	4247
3340.496	4351
3342.24	4332
3343.987	4373
3345.732	4301
3347.475	4238
3349.219	4302
3350.961	4332
3352.705	4285
3354.448	4283
3356.19	4298
3357.931	4253
3359.672	4232
3361.412	4266
3363.155	4169
3364.894	4301
3366.633	4203
3368.372	4217
3370.11	4297
3371.849	4228
3373.588	4242
3375.325	4267
3377.061	4256
3378.799	4252
3380.534	4299
3382.271	4200
3384.006	4187
3385.741	4254
3387.475	4225
3389.209	4212
3390.944	4241
3392.677	4206
3394.409	4223
3396.143	4214
3397.874	4206
3399.606	4271
3401.338	4148
3403.069	4154
3404.799	4167
3406.528	4137
3408.258	4198
3409.988	4180
3411.717	4169
3413.445	4175
3415.173	4064
3416.899	4110
3418.626	4087
3420.354	4038
3422.08	4152
3423.806	4177
3425.531	4159
3427.255	4191
3428.981	4060
3430.705	4146
3432.429	4151
3434.151	4043
3435.875	4021
3437.599	4079
3439.321	4103
3441.042	4087
3442.763	3996
3444.483	3980
3446.204	3962
3447.926	4070
3449.645	4059
3451.364	4046
3453.082	4020
3454.801	4009
3456.52	4080
3458.238	4004
3459.954	4049
3461.671	4078
3463.387	3983
3465.104	4001
3466.82	4034
3468.534	3947
3470.25	3990
3471.963	3904
3473.676	3975
3475.392	4024
3477.104	3978
3478.817	4018
3480.528	3954
3482.241	3963
3483.954	3875
3485.664	3966
3487.374	3969
3489.084	3883
3490.795	3928
3492.504	3889
3494.214	3866
3495.922	3896
3497.63	3885
3499.338	3785
3501.045	3887
3502.753	3958
3504.459	3847
3506.166	3899
3507.871	3893
3509.576	3839
3511.283	3873
3512.987	3789
3514.691	3933
3516.395	3778
3518.098	3884
3519.8	3928
3521.504	3951
3523.206	3855
3524.908	3828
3526.609	3753
3528.309	3683
3530.011	3784
3531.711	3789
3533.411	3835
3535.109	3750
3536.808	3730
3538.507	3825
3540.206	3763
3541.904	3782
3543.601	3803
3545.297	3874
3546.994	3708
3548.69	3789
3550.387	3793
3552.081	3735
3553.776	3728
3555.47	3760
3557.166	3705
3558.859	3756
3560.553	3684
3562.245	3745
3563.938	3738
3565.629	3666
3567.322	3719
3569.014	3602
3570.704	3707
3572.394	3754
3574.084	3728
3575.775	3720
3577.464	3744
3579.152	3722
3580.842	3674
3582.529	3674
3584.216	3701
3585.905	3710
3587.591	3657
3589.279	3634
3590.964	3726
3592.649	3626
3594.336	3722
3596.021	3657
3597.705	3642
3599.388	3686
3601.072	3681
3602.757	3599
3604.439	3588
3606.122	3584
3607.803	3646
3609.485	3646
3611.167	3598
3612.849	3651
3614.529	3586
3616.208	3589
3617.888	3581
3619.567	3624
3621.247	3639
3622.926	3540
3624.603	3560
3626.281	3551
3627.958	3541
3629.635	3531
3631.312	3510
3632.989	3451
3634.665	3540
3636.339	3533
3638.014	3538
3639.691	3534
3641.364	3432
3643.038	3584
3644.71	3507
3646.384	3536
3648.058	3487
3649.729	3488
3651.402	3493
3653.073	3411
3654.744	3506
3656.414	3429
3658.085	3497
3659.755	3494
3661.424	3490
3663.094	3440
3664.762	3400
3666.431	3514
3668.099	3486
3669.766	3483
3671.433	3450
3673.099	3404
3674.768	3434
3676.433	3405
3678.098	3453
3679.763	3421
3681.428	3403
3683.093	3420
3684.757	3401
3686.421	3438
3688.083	3409
3689.746	3404
3691.408	3434
3693.071	3357
3694.733	3413
3696.394	3371
3698.054	3423
3699.715	3360
3701.375	3377
3703.036	3368
3704.695	3369
3706.354	3325
3708.012	3462
3709.67	3373
3711.329	3433
3712.987	3322
3714.644	3260
3716.299	3271
3717.955	3446
3719.613	3365
3721.268	3372
3722.923	3374
3724.577	3402
3726.231	3307
3727.885	3294
3729.539	3361
3731.192	3266
3732.845	3289
3734.497	3246
3736.149	3277
3737.802	3345
3739.453	3298
3741.104	3331
3742.753	3248
3744.404	3244
3746.052	3338
3747.704	3301
3749.352	3263
3751	3292
3752.648	3268
3754.296	3317
3755.944	3263
3757.59	3331
3759.238	3250
3760.883	3318
3762.528	3283
3764.176	3229
3765.82	3314
3767.464	3272
3769.109	3281
3770.753	3334
3772.396	3296
3774.04	3227
3775.683	3286
3777.325	3315
3778.967	3264
3780.608	3272
3782.25	3242
3783.89	3227
3785.531	3235
3787.17	3210
3788.81	3292
3790.45	3247
3792.09	3201
3793.729	3188
3795.366	3216
3797.003	3226
3798.64	3233
3800.278	3190
3801.915	3269
3803.551	3197
3805.187	3136
3806.822	3184
3808.458	3222
3810.093	3147
3811.726	3132
3813.36	3197
3814.994	3166
3816.627	3114
3818.262	3155
3819.893	3172
3821.525	3256
3823.157	3118
3824.787	3190
3826.42	3181
3828.051	3175
3829.68	3164
3831.31	3147
3832.938	3196
3834.569	3137
3836.198	3128
3837.825	3143
3839.454	3129
3841.08	3177
3842.708	3181
3844.335	3125
3845.962	3171
3847.587	3138
3849.212	3129
3850.838	3124
3852.463	3173
3854.089	3042
3855.712	3092
3857.335	3140
3858.959	3114
3860.582	3148
3862.205	3082
3863.827	3074
3865.449	3079
3867.07	3080
3868.691	3060
3870.312	3041
3871.933	3068
3873.553	3085
3875.173	3090
3876.792	3079
3878.411	3129
3880.03	3095
3881.647	3068
3883.265	3040
3884.882	3038
3886.499	3086
3888.116	3072
3889.732	3046
3891.348	3038
3892.964	3036
3894.579	3025
3896.195	3019
3897.809	3066
3899.423	3067
3901.036	3046
3902.648	3113
3904.261	3043
3905.875	3025
3907.487	3034
3909.099	3015
3910.709	3044
3912.321	3086
3913.933	3016
3915.542	3049
3917.152	3033
3918.762	3024
3920.37	3050
3921.98	3120
3923.589	3092
3925.196	2966
3926.804	3043
3928.41	2984
3930.018	3035
3931.626	2997
3933.231	3101
3934.838	3012
3936.442	2984
3938.046	2985
3939.653	3021
3941.257	2958
3942.861	3019
3944.464	2901
3946.068	3019
3947.67	2978
3949.273	2979
3950.876	2968
3952.477	2929
3954.078	2931
3955.678	2970
3957.281	2969
3958.881	2894
3960.48	2943
3962.079	2998
3963.678	2931
3965.279	2955
3966.877	2887
3968.475	2942
3970.072	2969
3971.669	2997
3973.266	2985
3974.864	2949
3976.459	2910
3978.055	2947
3979.65	2936
3981.245	2959
3982.841	2981
3984.436	2994
3986.03	2926
3987.623	2914
3989.216	2836
3990.809	2946
3992.403	2820
3993.995	2918
3995.586	2871
3997.177	2924
3998.768	2831
4000.361	2828
4001.951	2895
4003.54	2882
4005.13	2846
4006.719	2843
4008.31	2835
4009.897	2842
4011.485	2831
4013.073	2738
4014.66	2895
4016.247	2815
4017.834	2831
4019.421	2750
4021.006	2799
4022.592	2789
4024.178	2918
4025.763	2820
4027.348	2788
4028.932	2882
4030.515	2803
4032.099	2860
4033.682	2864
4035.266	2784
4036.847	2737
4038.429	2797
4040.011	2772
4041.592	2775
4043.173	2779
4044.755	2783
4046.334	2775
4047.913	2803
4049.494	2805
4051.074	2739
4052.652	2793
4054.23	2730
4055.807	2794
4057.385	2840
4058.963	2723
4060.541	2708
4062.117	2711
4063.693	2710
4065.269	2738
4066.844	2766
4068.42	2765
4069.995	2760
4071.569	2743
4073.143	2691
4074.716	2752
4076.291	2677
4077.864	2744
4079.436	2693
4081.009	2691
4082.58	2759
4084.152	2790
4085.723	2674
4087.294	2715
4088.865	2717
4090.435	2691
4092.005	2705
4093.574	2706
4095.143	2672
4096.712	2780
4098.279	2747
4099.848	2659
4101.416	2686
4102.984	2680
4104.55	2728
4106.117	2639
4107.682	2719
4109.248	2638
4110.815	2641
4112.379	2676
4113.945	2686
4115.508	2638
4117.073	2644
4118.637	2707
4120.201	2723
4121.763	2696
4123.325	2690
4124.888	2651
4126.449	2625
4128.013	2658
4129.573	2587
4131.133	2644
4132.694	2669
4134.254	2700
4135.814	2639
4137.374	2640
4138.933	2626
4140.491	2700
4142.049	2576
4143.607	2605
4145.167	2571
4146.724	2621
4148.28	2648
4149.836	2590
4151.392	2588
4152.949	2567
4154.504	2694
4156.059	2609
4157.614	2651
4159.168	2612
4160.723	2614
4162.277	2593
4163.83	2587
4165.383	2532
4166.936	2643
4168.488	2582
4170.041	2573
4171.593	2607
4173.144	2549
4174.695	2604
4176.246	2615
4177.796	2593
4179.346	2527
4180.896	2561
4182.445	2503
4183.994	2546
4185.542	2570
4187.091	2539
4188.639	2484
4190.185	2546
4191.732	2577
4193.279	2506
4194.826	2516
4196.373	2549
4197.918	2470
4199.463	2461
4201.008	2456
4202.553	2444
4204.098	2579
4205.641	2503
4207.185	2472
4208.728	2536
4210.271	2466
4211.814	2525
4213.357	2533
4214.898	2498
4216.439	2507
4217.98	2379
4219.522	2525
4221.062	2506
4222.603	2496
4224.142	2448
4225.681	2392
4227.222	2471
4228.76	2473
4230.298	2480
4231.835	2466
4233.373	2477
4234.911	2499
4236.449	2445
4237.985	2442
4239.521	2486
4241.057	2552
4242.592	2449
4244.128	2374
4245.663	2482
4247.197	2474
4248.731	2437
4250.265	2450
4251.798	2481
4253.333	2412
4254.865	2465
4256.397	2443
4257.93	2474
4259.461	2515
4260.994	2431
4262.525	2432
4264.056	2416
4265.586	2457
4267.115	2420
4268.646	2497
4270.176	2380
4271.705	2408
4273.232	2444
4274.761	2405
4276.289	2377
4277.818	2503
4279.345	2429
4280.872	2389
4282.399	2357
4283.924	2410
4285.452	2424
4286.976	2380
4288.502	2428
4290.026	2390
4291.551	2377
4293.074	2448
4294.6	2417
4296.123	2366
4297.646	2420
4299.168	2390
4300.691	2427
4302.214	2370
4303.736	2454
4305.257	2335
4306.778	2367
4308.299	2308
4309.82	2292
4311.34	2347
4312.86	2334
4314.379	2348
