400.0745	5888
402.597	5847
405.1208	5727
407.6419	5854
410.1623	5856
412.6819	6020
415.201	5979
417.7172	5971
420.2369	6017
422.7538	6033
425.2701	5987
427.7856	6111
430.3005	6132
432.8147	6086
435.3282	6202
437.841	6158
440.3511	6156
442.8625	6301
445.3753	6220
447.8854	6179
450.3927	6295
452.9014	6279
455.4073	6188
457.9146	6249
460.4233	6208
462.9272	6244
465.4325	6114
467.935	6249
470.4389	6343
472.9421	6290
475.4446	6336
477.9444	6232
480.4456	6301
482.944	6304
485.4417	6231
487.9429	6349
490.4393	6260
492.935	6302
495.4321	6460
497.9264	6385
500.4221	6344
502.9171	6391
505.4094	6498
507.9011	6505
510.392	6443
512.8864	6413
515.3759	6413
517.8649	6573
520.3531	6396
522.8406	6467
525.3275	6560
527.8178	6569
530.3033	6581
532.7881	6596
535.2723	6441
537.7558	6518
540.2407	6480
542.7228	6528
545.2043	6473
547.6851	6570
550.1652	6637
552.6467	6497
555.1255	6633
557.6016	6490
560.079	6599
562.5557	6642
565.0318	6635
567.5092	6606
569.984	6693
572.456	6751
574.9294	6712
577.4022	6765
579.8762	6756
582.3456	6800
584.8163	6831
587.2863	6871
589.7557	6835
592.2224	6806
594.6924	6772
597.1578	6862
599.6245	6799
602.0905	6713
604.5538	6760
607.0206	6862
609.4825	6782
611.9459	6739
614.4066	6829
616.8686	6770
619.33	6757
621.7906	6772
624.2487	6676
626.708	6751
629.1647	6760
631.6207	6747
634.0801	6689
636.5348	6660
638.9888	6808
641.4442	6787
643.8969	6773
646.3509	6802
648.8022	6841
651.255	6838
653.705	6806
656.1544	6949
658.6031	6914
661.0532	6806
663.5026	6968
665.9493	6952
668.3954	6898
670.8409	6997
673.2877	6843
675.7318	6981
678.1752	6977
680.618	7033
683.0601	7039
685.5035	6967
687.9444	6960
690.3845	7054
692.824	7002
695.2628	6931
697.701	7048
700.1406	7074
702.5774	7110
705.0116	7128
707.4472	7021
709.8821	6926
712.3183	7027
714.7519	7017
717.1829	7075
719.6151	7160
722.0468	7223
724.4777	7340
726.908	7236
729.3377	7198
731.7667	7192
734.1931	7463
736.6208	7328
739.0498	7494
741.4742	7362
743.9	7311
746.3231	7441
748.7476	7319
751.1713	7353
753.5945	7459
756.015	7490
758.4368	7510
760.856	7433
763.2766	7465
765.6965	7561
768.1157	7554
770.5323	7570
772.9483	7515
775.3656	7607
777.7822	7416
780.1963	7614
782.6116	7445
785.0244	7527
787.4365	7498
789.8499	7525
792.2626	7486
794.6728	7654
797.0823	7553
799.4911	7430
801.8994	7540
804.3109	7660
806.7178	7560
809.124	7676
811.5297	7556
813.9347	7596
816.341	7631
818.7447	7733
821.1478	7746
823.5502	7613
825.952	7622
828.3531	7626
830.7556	7711
833.1554	7740
835.5546	7778
837.9532	7790
840.3511	7676
842.7504	7647
845.1451	7735
847.5411	7826
849.9365	7766
852.3312	7868
854.7272	7797
857.1187	7719
859.5115	7909
861.9037	7787
864.2952	7777
866.6842	7796
869.0764	7851
871.4661	7727
873.8531	7881
876.2415	7712
878.6272	7859
881.0162	7888
883.4026	7722
885.7866	7742
888.1717	7762
890.5543	7677
892.9382	7740
895.3215	7852
897.7041	7939
900.0842	7709
902.4655	7961
904.8443	7791
907.2244	7824
909.6039	7836
911.9808	7784
914.357	7982
916.7346	7999
919.1115	7996
921.4859	8010
923.8616	8126
926.2347	8006
928.6071	8048
930.979	8050
933.3541	8106
935.7247	8164
938.0946	8145
940.4639	8361
942.8326	8170
945.2026	8187
947.5701	8503
949.9369	8585
952.305	8722
954.6705	8888
957.0355	9142
959.4017	9388
961.7654	9641
964.1284	9412
966.4908	9150
968.8527	8799
971.2138	8719
973.5743	8550
975.9343	8294
978.2936	8183
980.6522	8088
983.0122	8060
985.3696	7967
987.7245	7985
990.0807	8066
992.4362	8004
994.7911	8080
997.1474	7995
999.4991	8018
1001.852	8085
1004.205	8045
1006.555	8046
1008.908	8164
1011.258	8058
1013.606	8109
1015.956	8121
1018.302	8177
1020.652	8168
1022.998	8058
1025.345	8126
1027.691	8039
1030.035	8182
1032.378	8076
1034.724	8157
1037.066	8193
1039.409	8176
1041.75	8037
1044.092	8118
1046.433	8180
1048.771	8129
1051.112	8120
1053.449	8182
1055.786	8314
1058.124	8266
1060.462	8173
1062.797	8199
1065.131	8267
1067.467	8254
1069.8	8338
1072.135	8340
1074.467	8403
1076.798	8312
1079.129	8320
1081.459	8398
1083.792	8214
1086.121	8259
1088.449	8308
1090.777	8176
1093.104	8439
1095.431	8222
1097.759	8164
1100.084	8159
1102.408	8284
1104.732	8352
1107.056	8197
1109.379	8163
1111.701	8351
1114.022	8114
1116.343	8229
1118.664	8175
1120.983	8240
1123.303	8119
1125.621	8221
1127.939	8266
1130.256	8210
1132.573	8225
1134.889	8242
1137.205	8317
1139.52	8279
1141.832	8170
1144.146	8251
1146.461	8373
1148.771	8285
1151.083	8241
1153.392	8352
1155.703	8250
1158.011	8310
1160.323	8161
1162.629	8240
1164.938	8228
1167.243	8386
1169.55	8201
1171.857	8240
1174.163	8244
1176.466	8153
1178.769	8214
1181.073	8394
1183.374	8165
1185.677	8341
1187.979	8276
1190.279	8178
1192.578	8195
1194.878	8165
1197.178	8153
1199.476	8246
1201.772	8283
1204.068	8279
1206.366	8325
1208.663	8349
1210.957	8371
1213.251	8357
1215.544	8188
1217.836	8281
1220.128	8291
1222.421	8301
1224.712	8429
1227.002	8459
1229.292	8313
1231.581	8429
1233.871	8456
1236.159	8471
1238.446	8433
1240.732	8676
1243.018	8547
1245.304	8574
1247.59	8518
1249.874	8635
1252.156	8597
1254.439	8605
1256.721	8690
1259.005	8524
1261.286	8512
1263.565	8494
1265.845	8579
1268.125	8744
1270.403	8548
1272.682	8499
1274.959	8642
1277.234	8586
1279.511	8557
1281.787	8526
1284.062	8493
1286.337	8419
1288.609	8531
1290.882	8562
1293.153	8500
1295.428	8496
1297.698	8421
1299.969	8325
1302.237	8415
1304.507	8426
1306.777	8438
1309.044	8515
1311.312	8515
1313.578	8403
1315.844	8448
1318.109	8518
1320.375	8462
1322.638	8315
1324.903	8489
1327.165	8291
1329.427	8502
1331.69	8488
1333.952	8479
1336.212	8538
1338.471	8446
1340.73	8569
1342.988	8415
1345.248	8556
1347.505	8505
1349.763	8461
1352.019	8461
1354.274	8379
1356.53	8317
1358.784	8365
1361.038	8416
1363.291	8452
1365.543	8381
1367.797	8390
1370.048	8390
1372.296	8466
1374.546	8431
1376.796	8422
1379.045	8550
1381.295	8511
1383.542	8388
1385.787	8513
1388.034	8408
1390.28	8554
1392.527	8492
1394.772	8446
1397.014	8649
1399.258	8554
1401.501	8439
1403.741	8573
1405.985	8506
1408.226	8521
1410.465	8590
1412.705	8689
1414.943	8533
1417.184	8593
1419.42	8735
1421.658	8775
1423.894	8575
1426.13	8671
1428.366	8658
1430.602	8674
1432.835	8821
1435.069	8760
1437.301	8746
1439.535	8793
1441.767	8817
1443.997	8806
1446.229	8725
1448.458	8814
1450.687	8830
1452.916	8988
1455.146	8898
1457.372	8900
1459.599	8770
1461.824	8815
1464.051	8691
1466.277	8842
1468.501	8746
1470.725	8737
1472.948	8670
1475.17	8741
1477.393	8720
1479.614	8546
1481.837	8515
1484.057	8645
1486.276	8524
1488.497	8657
1490.715	8505
1492.932	8426
1495.148	8447
1497.364	8503
1499.58	8472
1501.798	8407
1504.012	8241
1506.227	8312
1508.44	8515
1510.653	8267
1512.866	8315
1515.078	8429
1517.289	8369
1519.5	8336
1521.711	8440
1523.92	8493
1526.13	8423
1528.338	8394
1530.544	8505
1532.752	8441
1534.959	8305
1537.165	8564
1539.371	8560
1541.574	8380
1543.779	8459
1545.983	8404
1548.187	8309
1550.39	8527
1552.59	8445
1554.792	8399
1556.991	8603
1559.19	8612
1561.392	8536
1563.59	8462
1565.789	8350
1567.986	8577
1570.182	8541
1572.381	8515
1574.576	8624
1576.771	8489
1578.966	8594
1581.16	8476
1583.354	8520
1585.546	8687
1587.74	8658
1589.931	8602
1592.121	8649
1594.311	8687
1596.502	8664
1598.693	8668
1600.881	8653
1603.069	8643
1605.256	8753
1607.445	8648
1609.631	8761
1611.816	8620
1614.001	8731
1616.186	8778
1618.37	8709
1620.555	8632
1622.737	8819
1624.919	8713
1627.101	8684
1629.282	8692
1631.463	8807
1633.643	8766
1635.822	8694
1638.001	8704
1640.179	8855
1642.359	8811
1644.534	8826
1646.711	8838
1648.887	8701
1651.062	8841
1653.235	8738
1655.412	8882
1657.586	8745
1659.757	8798
1661.93	8823
1664.1	8935
1666.274	8830
1668.445	8804
1670.614	8869
1672.784	8889
1674.951	8854
1677.12	8853
1679.289	8750
1681.457	8708
1683.622	8983
1685.789	8880
1687.953	8706
1690.121	8988
1692.284	8758
1694.447	8818
1696.611	8780
1698.772	8742
1700.935	8612
1703.098	8699
1705.258	8527
1707.417	8566
1709.576	8535
1711.736	8553
1713.896	8518
1716.053	8527
1718.21	8693
1720.366	8539
1722.522	8631
1724.68	8689
1726.835	8610
1728.989	8711
1731.142	8554
1733.295	8621
1735.449	8550
1737.601	8689
1739.753	8631
1741.903	8704
1744.054	8543
1746.203	8619
1748.354	8550
1750.503	8652
1752.651	8583
1754.798	8643
1756.944	8638
1759.092	8659
1761.238	8476
1763.383	8621
1765.528	8649
1767.672	8544
1769.814	8693
1771.959	8727
1774.102	8674
1776.242	8581
1778.384	8873
1780.525	8611
1782.665	8559
1784.805	8712
1786.945	8637
1789.082	8738
1791.22	8708
1793.36	8696
1795.495	8596
1797.632	8720
1799.766	8615
1801.902	8616
1804.035	8658
1806.172	8642
1808.304	8709
1810.436	8657
1812.569	8608
1814.699	8700
1816.833	8646
1818.963	8703
1821.092	8663
1823.222	8679
1825.35	8698
1827.478	8614
1829.608	8758
1831.734	8496
1833.86	8583
1835.986	8663
1838.11	8648
1840.238	8579
1842.362	8591
1844.485	8657
1846.608	8562
1848.73	8569
1850.853	8505
1852.974	8531
1855.097	8561
1857.217	8611
1859.336	8524
1861.455	8417
1863.576	8564
1865.693	8402
1867.811	8579
1869.926	8572
1872.042	8559
1874.16	8499
1876.275	8501
1878.39	8537
1880.504	8572
1882.618	8537
1884.731	8622
1886.843	8610
1888.956	8557
1891.067	8537
1893.178	8587
1895.287	8607
1897.399	8675
1899.508	8569
1901.617	8606
1903.724	8537
1905.832	8526
1907.941	8561
1910.046	8592
1912.152	8733
1914.256	8758
1916.361	8613
1918.464	8598
1920.57	8618
1922.672	8577
1924.775	8664
1926.876	8729
1928.978	8684
1931.08	8747
1933.181	8714
1935.28	8724
1937.38	8791
1939.478	8701
1941.577	8749
1943.675	8681
1945.771	8762
1947.867	8693
1949.964	8823
1952.058	8732
1954.154	8680
1956.248	8618
1958.343	8686
1960.435	8852
1962.527	8719
1964.62	8712
1966.711	8812
1968.802	8793
1970.892	8582
1972.983	8717
1975.072	8540
1977.162	8573
1979.25	8639
1981.337	8709
1983.424	8704
1985.51	8602
1987.598	8664
1989.683	8548
1991.768	8651
1993.852	8637
1995.934	8570
1998.019	8600
2000.102	8832
2002.184	8654
2004.266	8720
2006.347	8663
2008.427	8563
2010.508	8625
2012.587	8562
2014.666	8822
2016.745	8658
2018.821	8633
2020.9	8542
2022.977	8581
2025.052	8730
2027.128	8775
2029.204	8486
2031.277	8585
2033.353	8684
2035.425	8567
2037.499	8660
2039.57	8697
2041.642	8636
2043.714	8642
2045.786	8593
2047.855	8582
2049.925	8639
2051.993	8501
2054.064	8602
2056.132	8807
2058.2	8753
2060.266	8750
2062.332	8612
2064.398	8603
2066.465	8530
2068.529	8610
2070.592	8706
2072.657	8692
2074.719	8584
2076.783	8691
2078.845	8582
2080.907	8609
2082.968	8725
2085.028	8540
2087.087	8666
2089.148	8516
2091.207	8669
2093.264	8684
2095.322	8644
2097.379	8704
2099.439	8644
2101.495	8644
2103.55	8738
2105.605	8716
2107.658	8654
2109.713	8724
2111.767	8676
2113.82	8598
2115.872	8512
2117.924	8635
2119.975	8566
2122.028	8699
2124.078	8656
2126.126	8762
2128.176	8544
2130.225	8622
2132.275	8695
2134.321	8704
2136.368	8534
2138.415	8694
2140.461	8623
2142.505	8576
2144.552	8448
2146.597	8628
2148.64	8562
2150.684	8534
2152.725	8655
2154.77	8554
2156.811	8667
2158.852	8554
2160.894	8630
2162.933	8575
2164.973	8532
2167.013	8673
2169.051	8388
2171.089	8485
2173.126	8530
2175.164	8513
2177.201	8684
2179.236	8518
2181.273	8644
2183.307	8501
2185.341	8599
2187.377	8570
2189.41	8491
2191.442	8556
2193.473	8443
2195.506	8452
2197.539	8487
2199.569	8478
2201.598	8436
2203.628	8447
2205.656	8365
2207.686	8486
2209.716	8501
2211.743	8489
2213.769	8489
2215.796	8397
2217.821	8508
2219.848	8346
2221.873	8433
2223.897	8295
2225.921	8483
2227.944	8466
2229.967	8365
2231.991	8483
2234.011	8421
2236.032	8477
2238.053	8466
2240.073	8394
2242.094	8477
2244.114	8388
2246.131	8414
2248.149	8440
2250.167	8362
2252.186	8517
2254.201	8576
2256.218	8446
2258.233	8433
2260.247	8331
2262.262	8434
2264.278	8479
2266.29	8352
2268.303	8483
2270.315	8432
2272.327	8260
2274.341	8396
2276.35	8488
2278.361	8507
2280.37	8445
2282.38	8508
2284.388	8422
2286.397	8489
2288.405	8346
2290.412	8404
2292.419	8471
2294.425	8505
2296.431	8291
2298.437	8342
2300.441	8438
2302.445	8397
2304.449	8323
2306.453	8399
2308.455	8419
2310.457	8342
2312.459	8381
2314.46	8393
2316.46	8484
2318.461	8400
2320.46	8343
2322.458	8330
2324.458	8373
2326.456	8335
2328.455	8252
2330.451	8317
2332.447	8185
2334.443	8295
2336.438	8313
2338.433	8288
2340.429	8278
2342.422	8285
2344.416	8201
2346.408	8363
2348.399	8214
2350.393	8188
2352.384	8248
2354.375	8307
2356.365	8260
2358.355	8112
2360.344	8242
2362.333	8301
2364.322	8156
2366.309	8171
2368.295	8247
2370.282	8115
2372.27	8126
2374.256	8099
2376.24	8173
2378.225	8264
2380.208	8179
2382.194	8052
2384.177	8122
2386.159	8129
2388.142	8165
2390.122	8038
2392.105	8084
2394.085	8117
2396.066	8216
2398.044	8144
2400.024	8090
2402.002	8054
2403.982	8106
2405.959	8106
2407.935	8004
2409.913	8050
2411.888	7977
2413.865	8024
2415.84	8020
2417.814	8012
2419.788	8042
2421.762	8100
2423.735	8007
2425.708	8093
2427.68	8164
2429.651	8036
2431.623	8124
2433.593	8133
2435.564	8054
2437.533	8054
2439.502	8150
2441.47	7993
2443.438	8206
2445.406	8072
2447.373	8044
2449.34	8046
2451.305	8014
2453.271	7960
2455.235	8050
2457.201	8018
2459.165	7947
2461.129	8044
2463.092	8032
2465.054	7974
2467.018	7870
2468.978	7896
2470.939	7984
2472.899	7926
2474.86	8012
2476.819	7913
2478.778	7914
2480.737	8112
2482.695	7984
2484.653	7898
2486.609	7941
2488.567	7939
2490.524	7968
2492.478	7914
2494.433	8014
2496.387	7988
2498.343	7734
2500.297	7844
2502.249	7937
2504.202	7842
2506.153	7895
2508.105	7899
2510.057	7921
2512.008	8024
2513.957	7870
2515.906	7743
2517.855	7970
2519.805	7901
2521.754	7839
2523.7	7841
2525.647	7873
2527.594	7851
2529.54	7803
2531.486	7749
2533.431	7771
2535.376	7875
2537.32	7674
2539.263	7797
2541.207	7874
2543.151	7791
2545.093	7810
2547.034	7737
2548.975	7807
2550.917	7752
2552.856	7826
2554.796	7645
2556.735	7833
2558.673	7798
2560.611	7830
2562.55	7838
2564.487	7795
2566.424	7807
2568.36	7755
2570.296	7866
2572.232	7798
2574.167	7929
2576.101	7712
2578.035	7626
2579.969	7834
2581.902	7936
2583.834	7745
2585.766	7810
2587.698	7789
2589.628	7880
2591.557	7791
2593.489	7709
2595.419	7774
2597.348	7777
2599.275	7671
2601.204	7700
2603.131	7730
2605.059	7826
2606.986	7802
2608.911	7880
2610.837	7807
2612.76	7691
2614.687	7813
2616.61	7801
2618.534	7858
2620.457	7671
2622.38	7735
2624.302	7828
2626.225	7588
2628.145	7678
2630.067	7678
2631.986	7772
2633.906	7842
2635.827	7893
2637.745	7635
2639.662	7663
2641.581	7774
2643.498	7757
2645.415	7808
2647.331	7669
2649.248	7740
2651.163	7765
2653.077	7770
2654.993	7664
2656.906	7571
2658.821	7851
2660.733	7729
2662.646	7733
2664.557	7793
2666.47	7621
2668.381	7647
2670.291	7688
2672.201	7718
2674.11	7726
2676.021	7637
2677.929	7680
2679.837	7715
2681.745	7592
2683.652	7696
2685.56	7555
2687.466	7557
2689.371	7711
2691.276	7609
2693.181	7700
2695.085	7627
2696.991	7696
2698.893	7623
2700.796	7563
2702.698	7631
2704.601	7526
2706.502	7531
2708.404	7500
2710.304	7546
2712.203	7612
2714.103	7613
2716.003	7542
2717.902	7565
2719.8	7503
2721.697	7590
2723.594	7582
2725.49	7596
2727.389	7542
2729.283	7443
2731.179	7412
2733.073	7589
2734.968	7602
2736.863	7574
2738.757	7574
2740.649	7469
2742.541	7386
2744.433	7391
2746.324	7533
2748.216	7585
2750.107	7454
2751.997	7432
2753.886	7530
2755.776	7458
2757.666	7523
2759.553	7367
2761.44	7564
2763.327	7312
2765.215	7354
2767.102	7453
2768.988	7421
2770.873	7456
2772.757	7420
2774.641	7403
2776.525	7473
2778.41	7546
2780.292	7391
2782.175	7424
2784.057	7341
2785.938	7430
2787.821	7491
2789.701	7410
2791.581	7314
2793.461	7334
2795.34	7363
2797.219	7470
2799.099	7499
2800.975	7445
2802.853	7301
2804.73	7297
2806.606	7365
2808.484	7241
2810.358	7304
2812.233	7308
2814.108	7297
2815.981	7296
2817.857	7245
2819.73	7369
2821.602	7288
2823.474	7471
2825.346	7417
2827.217	7275
2829.089	7286
2830.959	7214
2832.829	7177
2834.698	7353
2836.567	7313
2838.436	7409
2840.305	7353
2842.172	7273
2844.04	7286
2845.905	7308
2847.772	7343
2849.639	7345
2851.503	7444
2853.369	7367
2855.232	7306
2857.096	7420
2858.961	7408
2860.824	7452
2862.686	7512
2864.547	7577
2866.41	7419
2868.272	7463
2870.132	7468
2871.992	7690
2873.851	7586
2875.711	7675
2877.57	7790
2879.429	7823
2881.287	7731
2883.144	7764
2885.001	7813
2886.857	7899
2888.714	7783
2890.57	7887
2892.425	7771
2894.279	7807
2896.133	7816
2897.987	7676
2899.842	7851
2901.694	7652
2903.547	7746
2905.397	7739
2907.249	7870
2909.101	7889
2910.952	7742
2912.802	7824
2914.652	7763
2916.5	7927
2918.35	7990
2920.198	8071
2922.045	8084
2923.893	8086
2925.74	8175
2927.585	8343
2929.433	8245
2931.279	8361
2933.123	8310
2934.968	8429
2936.811	8442
2938.656	8620
2940.5	8645
2942.342	8680
2944.185	8649
2946.026	8723
2947.87	8789
2949.71	8649
2951.549	8578
2953.39	8420
2955.229	8417
2957.069	8403
2958.908	8282
2960.746	8286
2962.584	8184
2964.421	8201
2966.257	8205
2968.094	7929
2969.931	8004
2971.766	8063
2973.601	7933
2975.435	7892
2977.27	7827
2979.105	7787
2980.938	7889
2982.77	7828
2984.602	7768
2986.434	7849
2988.267	7787
2990.097	7675
2991.927	7652
2993.757	7560
2995.587	7562
2997.417	7473
2999.246	7438
3001.074	7589
3002.902	7284
3004.729	7275
3006.556	7215
3008.384	7157
3010.21	7303
3012.036	7100
3013.861	7147
3015.684	7128
3017.51	7000
3019.334	6939
3021.157	6864
3022.981	6960
3024.802	6937
3026.624	6868
3028.448	6853
3030.267	6845
3032.088	6705
3033.909	6840
3035.728	6808
3037.549	6780
3039.368	6732
3041.186	6634
3043.004	6785
3044.821	6744
3046.64	6746
3048.455	6725
3050.272	6847
3052.087	6725
3053.903	6792
3055.717	6775
3057.534	6737
3059.347	6632
3061.16	6718
3062.974	6778
3064.785	6806
3066.598	6639
3068.411	6725
3070.222	6719
3072.032	6754
3073.844	6666
3075.653	6665
3077.463	6656
3079.272	6603
3081.08	6548
3082.889	6646
3084.697	6604
3086.505	6715
3088.312	6590
3090.118	6397
3091.924	6485
3093.729	6591
3095.535	6542
3097.34	6462
3099.144	6596
3100.947	6487
3102.75	6508
3104.553	6532
3106.357	6437
3108.159	6555
3109.961	6400
3111.762	6309
3113.562	6601
3115.365	6449
3117.164	6478
3118.964	6432
3120.761	6404
3122.56	6435
3124.36	6340
3126.158	6475
3127.954	6469
3129.75	6278
3131.547	6460
3133.343	6381
3135.139	6508
3136.934	6373
3138.729	6345
3140.522	6324
3142.317	6425
3144.11	6524
3145.904	6309
3147.695	6273
3149.488	6355
3151.28	6268
3153.07	6366
3154.863	6314
3156.652	6339
3158.441	6353
3160.231	6262
3162.019	6335
3163.81	6323
3165.597	6145
3167.384	6324
3169.172	6210
3170.958	6180
3172.745	6197
3174.532	6267
3176.317	6304
3178.101	6175
3179.885	6149
3181.67	6268
3183.455	6278
3185.238	6226
3187.02	6182
3188.802	6270
3190.585	6306
3192.368	6176
3194.149	6280
3195.929	6275
3197.709	6172
3199.489	6186
3201.268	6128
3203.048	6302
3204.826	6247
3206.604	6210
3208.382	6197
3210.159	6183
3211.937	6118
3213.713	6184
3215.489	6135
3217.263	6173
3219.038	6275
3220.815	6048
3222.589	6178
3224.363	6209
3226.136	6146
3227.908	6129
3229.681	6172
3231.454	6164
3233.226	6167
3234.996	6152
3236.767	6088
3238.538	6179
3240.308	6026
3242.078	6117
3243.847	6200
3245.615	6094
3247.384	6074
3249.15	6149
3250.92	6141
3252.686	6066
3254.453	6242
3256.218	6215
3257.984	6210
3259.75	6067
3261.515	6110
3263.279	6103
3265.044	6233
3266.806	6194
3268.57	6224
3270.334	6057
3272.095	6167
3273.856	6098
3275.619	6134
3277.379	6101
3279.14	6152
3280.9	6213
3282.661	6091
3284.419	6187
3286.178	6203
3287.937	6158
3289.695	6104
3291.453	6223
3293.21	6206
3294.967	6154
3296.723	6191
3298.48	6093
3300.235	6041
3301.99	6104
3303.744	6056
3305.498	6129
3307.253	6157
3309.006	6049
3310.759	6124
3312.511	6127
3314.263	6202
3316.017	6016
3317.768	6138
3319.519	6149
3321.268	6069
3323.018	6103
3324.767	6218
3326.518	6021
3328.267	5987
3330.014	6095
3331.762	6061
3333.509	6085
3335.258	6121
3337.003	5953
3338.75	6147
3340.496	6089
3342.24	6011
3343.987	6220
3345.732	6050
3347.475	6029
3349.219	6049
3350.961	5955
3352.705	5979
3354.448	6022
3356.19	6048
3357.931	5998
3359.672	6116
3361.412	6021
3363.155	6018
3364.894	6061
3366.633	6004
3368.372	5940
3370.11	6006
3371.849	5863
3373.588	6005
3375.325	5918
3377.061	5908
3378.799	5883
3380.534	5919
3382.271	5843
3384.006	5917
3385.741	5933
3387.475	5884
3389.209	5926
3390.944	5915
3392.677	5982
3394.409	5938
3396.143	5930
3397.874	5978
3399.606	5864
3401.338	5777
3403.069	5827
3404.799	5775
3406.528	5891
3408.258	5877
3409.988	5783
3411.717	5849
3413.445	5666
3415.173	5851
3416.899	5800
3418.626	5770
3420.354	5890
3422.08	5773
3423.806	5802
3425.531	5744
3427.255	5853
3428.981	5766
3430.705	5883
3432.429	5661
3434.151	5772
3435.875	5759
3437.599	5595
3439.321	5642
3441.042	5732
3442.763	5800
3444.483	5608
3446.204	5722
3447.926	5771
3449.645	5591
3451.364	5774
3453.082	5663
3454.801	5706
3456.52	5632
3458.238	5673
3459.954	5593
3461.671	5679
3463.387	5597
3465.104	5637
3466.82	5577
3468.534	5558
3470.25	5595
3471.963	5514
3473.676	5529
3475.392	5636
3477.104	5547
3478.817	5471
3480.528	5550
3482.241	5532
3483.954	5625
3485.664	5562
3487.374	5428
3489.084	5497
3490.795	5422
3492.504	5453
3494.214	5474
3495.922	5553
3497.63	5487
3499.338	5427
3501.045	5452
3502.753	5402
3504.459	5449
3506.166	5492
3507.871	5493
3509.576	5386
3511.283	5512
3512.987	5399
3514.691	5434
3516.395	5467
3518.098	5472
3519.8	5405
3521.504	5365
3523.206	5411
3524.908	5379
3526.609	5352
3528.309	5392
3530.011	5381
3531.711	5502
3533.411	5270
3535.109	5262
3536.808	5342
3538.507	5374
3540.206	5328
3541.904	5239
3543.601	5326
3545.297	5255
3546.994	5380
3548.69	5261
3550.387	5328
3552.081	5337
3553.776	5302
3555.47	5288
3557.166	5150
3558.859	5187
3560.553	5338
3562.245	5286
3563.938	5244
3565.629	5277
3567.322	5278
3569.014	5208
3570.704	5233
3572.394	5262
3574.084	5143
3575.775	5161
3577.464	5176
3579.152	5141
3580.842	5176
3582.529	5216
3584.216	5225
3585.905	5205
3587.591	5158
3589.279	5201
3590.964	5212
3592.649	5121
3594.336	5159
3596.021	5063
3597.705	5023
3599.388	5032
3601.072	5226
3602.757	5033
3604.439	5096
3606.122	5140
3607.803	5010
3609.485	5031
3611.167	5025
3612.849	5001
3614.529	4969
3616.208	4919
3617.888	5049
3619.567	5030
3621.247	5097
3622.926	4918
3624.603	4883
3626.281	5008
3627.958	4905
3629.635	4918
3631.312	4973
3632.989	4874
3634.665	4986
3636.339	4930
3638.014	4971
3639.691	4947
3641.364	4881
3643.038	4821
3644.71	4858
3646.384	4993
3648.058	4855
3649.729	4925
3651.402	4913
3653.073	4928
3654.744	4850
3656.414	4784
3658.085	4880
3659.755	4878
3661.424	4771
3663.094	4897
3664.762	4789
3666.431	4809
3668.099	4773
3669.766	4805
3671.433	4835
3673.099	4900
3674.768	4895
3676.433	4850
3678.098	4882
3679.763	4740
3681.428	4770
3683.093	4753
3684.757	4833
3686.421	4777
3688.083	4867
3689.746	4744
3691.408	4749
3693.071	4829
3694.733	4714
3696.394	4737
3698.054	4798
3699.715	4786
3701.375	4816
3703.036	4778
3704.695	4681
3706.354	4774
3708.012	4751
3709.67	4553
3711.329	4704
3712.987	4750
3714.644	4825
3716.299	4679
3717.955	4773
3719.613	4771
3721.268	4745
3722.923	4670
3724.577	4659
3726.231	4651
3727.885	4695
3729.539	4775
3731.192	4734
3732.845	4667
3734.497	4586
3736.149	4618
3737.802	4698
3739.453	4624
3741.104	4624
3742.753	4548
3744.404	4710
3746.052	4608
3747.704	4680
3749.352	4655
3751	4573
3752.648	4560
3754.296	4665
3755.944	4647
3757.59	4569
3759.238	4673
3760.883	4599
3762.528	4654
3764.176	4557
3765.82	4552
3767.464	4533
3769.109	4556
3770.753	4546
3772.396	4614
3774.04	4613
3775.683	4491
3777.325	4534
3778.967	4534
3780.608	4535
3782.25	4553
3783.89	4464
3785.531	4548
3787.17	4582
3788.81	4522
3790.45	4426
3792.09	4517
3793.729	4520
3795.366	4483
3797.003	4552
3798.64	4536
3800.278	4430
3801.915	4420
3803.551	4503
3805.187	4461
3806.822	4529
3808.458	4506
3810.093	4383
3811.726	4389
3813.36	4437
3814.994	4454
3816.627	4431
3818.262	4357
3819.893	4430
3821.525	4357
3823.157	4362
3824.787	4399
3826.42	4378
3828.051	4495
3829.68	4393
3831.31	4357
3832.938	4403
3834.569	4273
3836.198	4380
3837.825	4390
3839.454	4417
3841.08	4299
3842.708	4388
3844.335	4352
3845.962	4255
3847.587	4344
3849.212	4324
3850.838	4364
3852.463	4329
3854.089	4307
3855.712	4237
3857.335	4287
3858.959	4276
3860.582	4375
3862.205	4171
3863.827	4332
3865.449	4244
3867.07	4212
3868.691	4295
3870.312	4253
3871.933	4324
3873.553	4340
3875.173	4250
3876.792	4237
3878.411	4225
3880.03	4282
3881.647	4305
3883.265	4287
3884.882	4229
3886.499	4134
3888.116	4186
3889.732	4210
3891.348	4251
3892.964	4291
3894.579	4254
3896.195	4150
3897.809	4162
3899.423	4150
3901.036	4180
3902.648	4274
3904.261	4179
3905.875	4214
3907.487	4210
3909.099	4227
3910.709	4188
3912.321	4255
3913.933	4262
3915.542	4279
3917.152	4215
3918.762	4118
3920.37	4175
3921.98	4109
3923.589	4179
3925.196	4144
3926.804	4246
3928.41	4190
3930.018	4160
3931.626	4241
3933.231	4142
3934.838	4131
3936.442	4184
3938.046	4175
3939.653	4234
3941.257	4096
3942.861	4119
3944.464	4094
3946.068	4152
3947.67	4057
3949.273	4077
3950.876	4045
3952.477	4127
3954.078	4153
3955.678	4095
3957.281	3995
3958.881	4005
3960.48	4175
3962.079	3995
3963.678	4003
3965.279	4058
3966.877	4008
3968.475	4094
3970.072	3970
3971.669	3934
3973.266	4012
3974.864	3973
3976.459	4052
3978.055	3973
3979.65	4130
3981.245	4016
3982.841	3976
3984.436	4004
3986.03	3932
3987.623	4018
3989.216	4016
3990.809	3955
3992.403	3905
3993.995	3975
3995.586	3982
3997.177	3974
3998.768	3958
4000.361	3993
4001.951	3885
4003.54	3902
4005.13	3920
4006.719	3976
4008.31	3961
4009.897	3939
4011.485	3927
4013.073	3933
4014.66	3889
4016.247	3877
4017.834	3918
4019.421	3865
4021.006	3823
4022.592	3847
4024.178	3821
4025.763	3891
4027.348	3741
4028.932	3883
4030.515	3801
4032.099	3805
4033.682	3854
4035.266	3845
4036.847	3847
4038.429	3855
4040.011	3784
4041.592	3824
4043.173	3794
4044.755	3843
4046.334	3845
4047.913	3829
4049.494	3822
4051.074	3796
4052.652	3863
4054.23	3777
4055.807	3819
4057.385	3835
4058.963	3731
4060.541	3787
4062.117	3777
4063.693	3739
4065.269	3705
4066.844	3734
4068.42	3761
4069.995	3687
4071.569	3725
4073.143	3621
4074.716	3696
4076.291	3694
4077.864	3648
4079.436	3632
4081.009	3646
4082.58	3636
4084.152	3710
4085.723	3651
4087.294	3643
4088.865	3670
4090.435	3675
4092.005	3691
4093.574	3590
4095.143	3622
4096.712	3705
4098.279	3657
4099.848	3675
4101.416	3627
4102.984	3659
4104.55	3633
4106.117	3649
4107.682	3699
4109.248	3617
4110.815	3693
4112.379	3621
4113.945	3623
4115.508	3639
4117.073	3616
4118.637	3647
4120.201	3566
4121.763	3607
4123.325	3614
4124.888	3586
4126.449	3588
4128.013	3547
4129.573	3571
4131.133	3573
4132.694	3531
4134.254	3614
4135.814	3594
4137.374	3571
4138.933	3602
4140.491	3543
4142.049	3550
4143.607	3569
4145.167	3538
4146.724	3506
4148.28	3556
4149.836	3585
4151.392	3494
4152.949	3510
4154.504	3526
4156.059	3560
4157.614	3389
4159.168	3489
4160.723	3436
4162.277	3494
4163.83	3529
4165.383	3469
4166.936	3490
4168.488	3485
4170.041	3394
4171.593	3528
4173.144	3412
4174.695	3445
4176.246	3445
4177.796	3439
4179.346	3302
4180.896	3432
4182.445	3442
4183.994	3400
4185.542	3516
4187.091	3322
4188.639	3433
4190.185	3360
4191.732	3500
4193.279	3349
4194.826	3384
4196.373	3364
4197.918	3415
4199.463	3377
4201.008	3388
4202.553	3363
4204.098	3326
4205.641	3340
4207.185	3366
4208.728	3370
4210.271	3296
4211.814	3373
4213.357	3367
4214.898	3311
4216.439	3328
4217.98	3417
4219.522	3436
4221.062	3235
4222.603	3364
4224.142	3353
4225.681	3365
4227.222	3258
4228.76	3386
4230.298	3224
4231.835	3262
4233.373	3335
4234.911	3293
4236.449	3304
4237.985	3281
4239.521	3244
4241.057	3300
4242.592	3309
4244.128	3236
4245.663	3313
4247.197	3246
4248.731	3242
4250.265	3319
4251.798	3284
4253.333	3194
4254.865	3225
4256.397	3242
4257.93	3301
4259.461	3222
4260.994	3288
4262.525	3281
4264.056	3212
4265.586	3203
4267.115	3237
4268.646	3257
4270.176	3217
4271.705	3157
4273.232	3212
4274.761	3256
4276.289	3224
4277.818	3249
4279.345	3256
4280.872	3264
4282.399	3247
4283.924	3191
4285.452	3183
4286.976	3226
4288.502	3137
4290.026	3170
4291.551	3144
4293.074	3125
4294.6	3274
4296.123	3151
4297.646	3140
4299.168	3188
4300.691	3168
4302.214	3120
4303.736	3115
4305.257	3240
4306.778	3168
4308.299	3145
4309.82	3058
4311.34	3141
4312.86	3093
4314.379	3130
