400.0745	5187
402.597	5235
405.1208	5419
407.6419	5259
410.1623	5344
412.6819	5388
415.201	5362
417.7172	5343
420.2369	5380
422.7538	5456
425.2701	5470
427.7856	5485
430.3005	5501
432.8147	5545
435.3282	5670
437.841	5430
440.3511	5567
442.8625	5627
445.3753	5517
447.8854	5534
450.3927	5645
452.9014	5634
455.4073	5727
457.9146	5617
460.4233	5568
462.9272	5740
465.4325	5665
467.935	5616
470.4389	5580
472.9421	5625
475.4446	5759
477.9444	5660
480.4456	5646
482.944	5705
485.4417	5844
487.9429	5742
490.4393	5815
492.935	5754
495.4321	5763
497.9264	5845
500.4221	5763
502.9171	5816
505.4094	5895
507.9011	5845
510.392	5953
512.8864	5844
515.3759	5888
517.8649	5974
520.3531	5777
522.8406	5902
525.3275	5922
527.8178	5970
530.3033	5865
532.7881	5892
535.2723	6111
537.7558	5928
540.2407	6031
542.7228	5940
545.2043	5884
547.6851	5952
550.1652	5992
552.6467	5976
555.1255	6082
557.6016	5977
560.079	5904
562.5557	6079
565.0318	5981
567.5092	6069
569.984	6139
572.456	6075
574.9294	6019
577.4022	6168
579.8762	6066
582.3456	6324
584.8163	6170
587.2863	6290
589.7557	6248
592.2224	6294
594.6924	6202
597.1578	6247
599.6245	6184
602.0905	6286
604.5538	6123
607.0206	6025
609.4825	6066
611.9459	6244
614.4066	6234
616.8686	6105
619.33	6162
621.7906	6121
624.2487	6165
626.708	6121
629.1647	6092
631.6207	6154
634.0801	6145
636.5348	6282
638.9888	6245
641.4442	6227
643.8969	6237
646.3509	6181
648.8022	6230
651.255	6257
653.705	6184
656.1544	6293
658.6031	6293
661.0532	6338
663.5026	6237
665.9493	6248
668.3954	6356
670.8409	6309
673.2877	6393
675.7318	6414
678.1752	6298
680.618	6346
683.0601	6438
685.5035	6384
687.9444	6408
690.3845	6466
692.824	6305
695.2628	6345
697.701	6388
700.1406	6542
702.5774	6373
705.0116	6394
707.4472	6550
709.8821	6476
712.3183	6547
714.7519	6428
717.1829	6557
719.6151	6448
722.0468	6567
724.4777	6463
726.908	6574
729.3377	6548
731.7667	6618
734.1931	6689
736.6208	6667
739.0498	6744
741.4742	6663
743.9	6598
746.3231	6602
748.7476	6857
751.1713	6898
753.5945	6738
756.015	6796
758.4368	6767
760.856	6879
763.2766	6790
765.6965	6925
768.1157	6799
770.5323	6826
772.9483	6939
775.3656	6928
777.7822	6909
780.1963	6850
782.6116	6772
785.0244	6903
787.4365	6908
789.8499	6820
792.2626	6874
794.6728	6870
797.0823	6861
799.4911	6876
801.8994	6876
804.3109	6902
806.7178	6932
809.124	6966
811.5297	6933
813.9347	6977
816.341	6956
818.7447	6977
821.1478	6926
823.5502	7002
825.952	7006
828.3531	6864
830.7556	6976
833.1554	7059
835.5546	6907
837.9532	7011
840.3511	6915
842.7504	7085
845.1451	7154
847.5411	7055
849.9365	6920
852.3312	7210
854.7272	7026
857.1187	7084
859.5115	7161
861.9037	7004
864.2952	6986
866.6842	7015
869.0764	7032
871.4661	7100
873.8531	7059
876.2415	7000
878.6272	7042
881.0162	6921
883.4026	6997
885.7866	7114
888.1717	7068
890.5543	7059
892.9382	6972
895.3215	7015
897.7041	7011
900.0842	7084
902.4655	7115
904.8443	7042
907.2244	7077
909.6039	7078
911.9808	7148
914.357	7135
916.7346	7156
919.1115	7192
921.4859	7282
923.8616	7304
926.2347	7334
928.6071	7217
930.979	7289
933.3541	7220
935.7247	7318
938.0946	7326
940.4639	7334
942.8326	7398
945.2026	7346
947.5701	7611
949.9369	7529
952.305	7798
954.6705	7866
957.0355	7991
959.4017	8215
961.7654	8215
964.1284	8297
966.4908	8038
968.8527	7976
971.2138	7781
973.5743	7475
975.9343	7339
978.2936	7467
980.6522	7362
983.0122	7393
985.3696	7271
987.7245	7417
990.0807	7237
992.4362	7246
994.7911	7295
997.1474	7241
999.4991	7348
1001.852	7368
1004.205	7324
1006.555	7298
1008.908	7405
1011.258	7331
1013.606	7225
1015.956	7423
1018.302	7316
1020.652	7316
1022.998	7296
1025.345	7302
1027.691	7332
1030.035	7439
1032.378	7415
1034.724	7390
1037.066	7447
1039.409	7412
1041.75	7348
1044.092	7440
1046.433	7460
1048.771	7558
1051.112	7372
1053.449	7356
1055.786	7362
1058.124	7469
1060.462	7439
1062.797	7530
1065.131	7501
1067.467	7562
1069.8	7564
1072.135	7508
1074.467	7611
1076.798	7583
1079.129	7506
1081.459	7490
1083.792	7452
1086.121	7324
1088.449	7500
1090.777	7421
1093.104	7312
1095.431	7423
1097.759	7522
1100.084	7462
1102.408	7431
1104.732	7624
1107.056	7539
1109.379	7502
1111.701	7447
1114.022	7467
1116.343	7501
1118.664	7464
1120.983	7504
1123.303	7610
1125.621	7651
1127.939	7432
1130.256	7563
1132.573	7503
1134.889	7480
1137.205	7609
1139.52	7391
1141.832	7466
1144.146	7437
1146.461	7563
1148.771	7635
1151.083	7472
1153.392	7572
1155.703	7404
1158.011	7451
1160.323	7480
1162.629	7451
1164.938	7518
1167.243	7545
1169.55	7499
1171.857	7470
1174.163	7497
1176.466	7482
1178.769	7433
1181.073	7492
1183.374	7636
1185.677	7374
1187.979	7502
1190.279	7542
1192.578	7531
1194.878	7489
1197.178	7531
1199.476	7530
1201.772	7505
1204.068	7596
1206.366	7558
1208.663	7532
1210.957	7469
1213.251	7529
1215.544	7507
1217.836	7553
1220.128	7531
1222.421	7760
1224.712	7530
1227.002	7699
1229.292	7543
1231.581	7674
1233.871	7643
1236.159	7673
1238.446	7623
1240.732	7687
1243.018	7769
1245.304	7687
1247.59	7709
1249.874	7717
1252.156	7766
1254.439	7630
1256.721	7711
1259.005	7690
1261.286	7573
1263.565	7739
1265.845	7683
1268.125	7699
1270.403	7760
1272.682	7627
1274.959	7768
1277.234	7634
1279.511	7710
1281.787	7761
1284.062	7626
1286.337	7797
1288.609	7734
1290.882	7630
1293.153	7709
1295.428	7740
1297.698	7779
1299.969	7639
1302.237	7628
1304.507	7556
1306.777	7734
1309.044	7649
1311.312	7686
1313.578	7673
1315.844	7523
1318.109	7798
1320.375	7625
1322.638	7499
1324.903	7633
1327.165	7772
1329.427	7682
1331.69	7655
1333.952	7657
1336.212	7746
1338.471	7709
1340.73	7804
1342.988	7767
1345.248	7693
1347.505	7661
1349.763	7627
1352.019	7701
1354.274	7625
1356.53	7679
1358.784	7781
1361.038	7660
1363.291	7625
1365.543	7743
1367.797	7634
1370.048	7840
1372.296	7647
1374.546	7653
1376.796	7721
1379.045	7629
1381.295	7654
1383.542	7724
1385.787	7725
1388.034	7621
1390.28	7687
1392.527	7577
1394.772	7722
1397.014	7783
1399.258	7785
1401.501	7798
1403.741	7789
1405.985	7816
1408.226	7810
1410.465	7876
1412.705	7801
1414.943	7698
1417.184	7707
1419.42	7853
1421.658	7771
1423.894	7894
1426.13	7869
1428.366	7949
1430.602	7691
1432.835	7885
1435.069	7770
1437.301	7982
1439.535	7911
1441.767	7994
1443.997	7845
1446.229	7976
1448.458	7795
1450.687	7795
1452.916	7951
1455.146	7891
1457.372	7995
1459.599	7846
1461.824	7787
1464.051	7807
1466.277	7918
1468.501	7913
1470.725	7830
1472.948	7860
1475.17	7756
1477.393	7920
1479.614	7792
1481.837	7913
1484.057	7791
1486.276	7720
1488.497	7684
1490.715	7702
1492.932	7654
1495.148	7658
1497.364	7659
1499.58	7530
1501.798	7765
1504.012	7667
1506.227	7760
1508.44	7667
1510.653	7678
1512.866	7663
1515.078	7716
1517.289	7640
1519.5	7584
1521.711	7529
1523.92	7742
1526.13	7584
1528.338	7689
1530.544	7698
1532.752	7637
1534.959	7801
1537.165	7707
1539.371	7825
1541.574	7653
1543.779	7698
1545.983	7730
1548.187	7787
1550.39	7768
1552.59	7757
1554.792	7799
1556.991	7716
1559.19	7765
1561.392	7729
1563.59	7753
1565.789	7760
1567.986	7790
1570.182	7788
1572.381	7890
1574.576	7824
1576.771	7770
1578.966	7896
1581.16	7867
1583.354	7766
1585.546	7982
1587.74	7817
1589.931	7858
1592.121	7924
1594.311	7794
1596.502	7811
1598.693	7859
1600.881	7985
1603.069	7995
1605.256	8015
1607.445	8008
1609.631	7957
1611.816	7871
1614.001	7912
1616.186	7806
1618.37	7917
1620.555	7808
1622.737	7917
1624.919	7889
1627.101	7920
1629.282	7951
1631.463	7934
1633.643	7897
1635.822	7979
1638.001	7912
1640.179	7881
1642.359	7981
1644.534	7872
1646.711	7879
1648.887	7970
1651.062	7944
1653.235	7932
1655.412	7982
1657.586	7880
1659.757	8085
1661.93	7877
1664.1	7936
1666.274	7978
1668.445	8108
1670.614	7964
1672.784	7907
1674.951	8080
1677.12	7978
1679.289	8033
1681.457	7972
1683.622	7917
1685.789	7882
1687.953	7993
1690.121	7874
1692.284	7887
1694.447	7983
1696.611	7977
1698.772	7963
1700.935	7968
1703.098	7953
1705.258	7796
1707.417	7922
1709.576	7987
1711.736	7803
1713.896	7869
1716.053	7837
1718.21	7913
1720.366	7895
1722.522	7969
1724.68	7880
1726.835	7697
1728.989	7778
1731.142	7824
1733.295	7809
1735.449	7964
1737.601	7761
1739.753	7864
1741.903	7928
1744.054	7886
1746.203	7848
1748.354	7861
1750.503	7905
1752.651	7779
1754.798	7827
1756.944	7808
1759.092	7963
1761.238	7929
1763.383	7843
1765.528	7926
1767.672	7871
1769.814	7912
1771.959	7802
1774.102	7843
1776.242	7913
1778.384	7883
1780.525	7996
1782.665	7866
1784.805	7828
1786.945	7964
1789.082	7940
1791.22	7945
1793.36	7932
1795.495	7953
1797.632	7958
1799.766	7974
1801.902	7948
1804.035	8033
1806.172	8018
1808.304	7921
1810.436	7763
1812.569	7905
1814.699	8048
1816.833	7992
1818.963	7835
1821.092	7932
1823.222	7893
1825.35	7831
1827.478	7917
1829.608	7895
1831.734	7845
1833.86	7808
1835.986	7852
1838.11	7893
1840.238	7853
1842.362	7883
1844.485	7898
1846.608	7836
1848.73	7779
1850.853	7811
1852.974	7786
1855.097	7758
1857.217	7832
1859.336	7924
1861.455	7829
1863.576	7821
1865.693	7822
1867.811	7765
1869.926	7826
1872.042	7790
1874.16	7848
1876.275	7826
1878.39	7856
1880.504	7717
1882.618	7850
1884.731	7798
1886.843	7765
1888.956	7833
1891.067	7935
1893.178	7860
1895.287	7969
1897.399	7807
1899.508	7812
1901.617	7884
1903.724	7817
1905.832	7916
1907.941	7873
1910.046	7967
1912.152	8022
1914.256	7915
1916.361	7919
1918.464	8006
1920.57	8029
1922.672	7958
1924.775	7882
1926.876	7876
1928.978	7925
1931.08	8005
1933.181	7917
1935.28	7886
1937.38	7819
1939.478	8103
1941.577	7870
1943.675	7948
1945.771	7888
1947.867	7998
1949.964	7986
1952.058	7992
1954.154	7881
1956.248	7915
1958.343	7840
1960.435	7953
1962.527	7812
1964.62	7826
1966.711	7833
1968.802	7816
1970.892	7933
1972.983	7798
1975.072	7944
1977.162	7851
1979.25	7783
1981.337	7845
1983.424	7752
1985.51	7842
1987.598	7961
1989.683	7954
1991.768	7859
1993.852	7959
1995.934	7768
1998.019	7922
2000.102	7816
2002.184	7931
2004.266	7755
2006.347	7961
2008.427	7744
2010.508	7901
2012.587	7787
2014.666	7833
2016.745	7799
2018.821	7868
2020.9	7775
2022.977	7879
2025.052	7781
2027.128	7817
2029.204	7786
2031.277	7643
2033.353	7878
2035.425	7777
2037.499	7726
2039.57	7990
2041.642	7854
2043.714	7767
2045.786	7707
2047.855	7756
2049.925	7819
2051.993	7816
2054.064	7692
2056.132	7881
2058.2	7908
2060.266	7862
2062.332	7778
2064.398	7824
2066.465	7756
2068.529	7748
2070.592	7918
2072.657	7963
2074.719	7705
2076.783	7893
2078.845	7889
2080.907	7798
2082.968	7867
2085.028	7819
2087.087	7806
2089.148	7836
2091.207	7776
2093.264	7852
2095.322	7835
2097.379	7813
2099.439	7762
2101.495	7752
2103.55	7853
2105.605	7868
2107.658	7739
2109.713	7806
2111.767	7758
2113.82	7786
2115.872	7721
2117.924	7929
2119.975	7801
2122.028	7726
2124.078	7713
2126.126	7715
2128.176	7799
2130.225	7722
2132.275	7831
2134.321	7707
2136.368	7848
2138.415	7717
2140.461	7796
2142.505	7856
2144.552	7675
2146.597	7616
2148.64	7796
2150.684	7681
2152.725	7738
2154.77	7627
2156.811	7799
2158.852	7760
2160.894	7736
2162.933	7636
2164.973	7628
2167.013	7735
2169.051	7676
2171.089	7762
2173.126	7698
2175.164	7608
2177.201	7542
2179.236	7739
2181.273	7819
2183.307	7568
2185.341	7757
2187.377	7597
2189.41	7626
2191.442	7646
2193.473	7683
2195.506	7644
2197.539	7542
2199.569	7561
2201.598	7601
2203.628	7577
2205.656	7578
2207.686	7473
2209.716	7701
2211.743	7577
2213.769	7456
2215.796	7480
2217.821	7432
2219.848	7681
2221.873	7518
2223.897	7489
2225.921	7606
2227.944	7554
2229.967	7547
2231.991	7486
2234.011	7543
2236.032	7497
2238.053	7388
2240.073	7578
2242.094	7532
2244.114	7493
2246.131	7450
2248.149	7595
2250.167	7517
2252.186	7493
2254.201	7389
2256.218	7557
2258.233	7564
2260.247	7419
2262.262	7506
2264.278	7521
2266.29	7396
2268.303	7504
2270.315	7414
2272.327	7501
2274.341	7486
2276.35	7647
2278.361	7361
2280.37	7558
2282.38	7587
2284.388	7323
2286.397	7430
2288.405	7525
2290.412	7618
2292.419	7360
2294.425	7598
2296.431	7460
2298.437	7488
2300.441	7651
2302.445	7471
2304.449	7394
2306.453	7465
2308.455	7505
2310.457	7437
2312.459	7336
2314.46	7513
2316.46	7493
2318.461	7463
2320.46	7467
2322.458	7455
2324.458	7410
2326.456	7362
2328.455	7299
2330.451	7455
2332.447	7359
2334.443	7426
2336.438	7485
2338.433	7258
2340.429	7426
2342.422	7365
2344.416	7237
2346.408	7286
2348.399	7313
2350.393	7357
2352.384	7318
2354.375	7471
2356.365	7363
2358.355	7267
2360.344	7227
2362.333	7430
2364.322	7283
2366.309	7245
2368.295	7289
2370.282	7255
2372.27	7350
2374.256	7204
2376.24	7217
2378.225	7056
2380.208	7256
2382.194	7364
2384.177	7262
2386.159	7246
2388.142	7182
2390.122	7201
2392.105	7242
2394.085	7233
2396.066	7162
2398.044	7187
2400.024	7262
2402.002	7272
2403.982	7269
2405.959	7216
2407.935	7166
2409.913	7175
2411.888	7166
2413.865	7131
2415.84	7128
2417.814	7208
2419.788	7204
2421.762	7203
2423.735	7077
2425.708	7158
2427.68	7161
2429.651	7106
2431.623	7191
2433.593	7107
2435.564	7050
2437.533	7140
2439.502	7183
2441.47	7243
2443.438	7132
2445.406	7117
2447.373	7123
2449.34	7178
2451.305	7201
2453.271	7083
2455.235	7077
2457.201	7127
2459.165	7087
2461.129	7141
2463.092	7245
2465.054	7063
2467.018	7002
2468.978	7007
2470.939	7086
2472.899	7110
2474.86	7152
2476.819	7060
2478.778	7121
2480.737	7093
2482.695	7013
2484.653	7127
2486.609	7044
2488.567	7064
2490.524	7070
2492.478	6975
2494.433	6992
2496.387	7051
2498.343	7094
2500.297	7031
2502.249	7028
2504.202	7076
2506.153	6955
2508.105	7081
2510.057	7047
2512.008	7024
2513.957	7092
2515.906	7026
2517.855	7066
2519.805	6972
2521.754	6957
2523.7	6969
2525.647	6936
2527.594	6962
2529.54	6934
2531.486	7005
2533.431	6961
2535.376	7037
2537.32	6974
2539.263	7018
2541.207	7094
2543.151	7014
2545.093	6983
2547.034	7034
2548.975	6865
2550.917	6941
2552.856	6951
2554.796	6869
2556.735	7025
2558.673	6984
2560.611	6963
2562.55	6893
2564.487	6971
2566.424	7044
2568.36	6947
2570.296	6984
2572.232	7019
2574.167	6950
2576.101	6971
2578.035	6988
2579.969	6971
2581.902	6912
2583.834	6874
2585.766	6954
2587.698	6841
2589.628	7054
2591.557	6928
2593.489	6860
2595.419	6969
2597.348	6928
2599.275	6952
2601.204	6988
2603.131	6867
2605.059	6956
2606.986	7089
2608.911	6945
2610.837	6879
2612.76	6854
2614.687	7031
2616.61	6969
2618.534	6990
2620.457	6982
2622.38	7009
2624.302	6948
2626.225	7022
2628.145	6815
2630.067	6884
2631.986	6880
2633.906	6985
2635.827	7023
2637.745	6980
2639.662	6919
2641.581	6921
2643.498	6955
2645.415	6909
2647.331	6884
2649.248	6889
2651.163	6837
2653.077	6879
2654.993	6896
2656.906	6853
2658.821	6928
2660.733	6945
2662.646	6962
2664.557	6903
2666.47	6954
2668.381	6950
2670.291	6806
2672.201	6919
2674.11	6964
2676.021	6933
2677.929	6863
2679.837	6868
2681.745	6940
2683.652	6842
2685.56	6797
2687.466	6790
2689.371	6901
2691.276	6755
2693.181	6862
2695.085	6819
2696.991	6796
2698.893	6722
2700.796	6825
2702.698	6850
2704.601	6841
2706.502	6793
2708.404	6684
2710.304	6839
2712.203	6823
2714.103	6727
2716.003	6752
2717.902	6721
2719.8	6644
2721.697	6735
2723.594	6685
2725.49	6798
2727.389	6676
2729.283	6603
2731.179	6815
2733.073	6793
2734.968	6727
2736.863	6840
2738.757	6722
2740.649	6727
2742.541	6657
2744.433	6719
2746.324	6639
2748.216	6694
2750.107	6726
2751.997	6751
2753.886	6623
2755.776	6602
2757.666	6670
2759.553	6661
2761.44	6722
2763.327	6719
2765.215	6720
2767.102	6763
2768.988	6648
2770.873	6693
2772.757	6745
2774.641	6716
2776.525	6715
2778.41	6739
2780.292	6615
2782.175	6679
2784.057	6497
2785.938	6634
2787.821	6691
2789.701	6718
2791.581	6640
2793.461	6609
2795.34	6600
2797.219	6762
2799.099	6701
2800.975	6682
2802.853	6598
2804.73	6562
2806.606	6506
2808.484	6502
2810.358	6606
2812.233	6640
2814.108	6581
2815.981	6580
2817.857	6584
2819.73	6501
2821.602	6597
2823.474	6607
2825.346	6491
2827.217	6637
2829.089	6575
2830.959	6669
2832.829	6557
2834.698	6547
2836.567	6486
2838.436	6575
2840.305	6646
2842.172	6483
2844.04	6448
2845.905	6499
2847.772	6499
2849.639	6560
2851.503	6440
2853.369	6576
2855.232	6529
2857.096	6577
2858.961	6521
2860.824	6517
2862.686	6665
2864.547	6515
2866.41	6647
2868.272	6645
2870.132	6616
2871.992	6663
2873.851	6633
2875.711	6697
2877.57	6704
2879.429	6638
2881.287	6758
2883.144	6780
2885.001	6874
2886.857	6800
2888.714	6743
2890.57	6777
2892.425	6727
2894.279	6750
2896.133	6686
2897.987	6785
2899.842	6736
2901.694	6688
2903.547	6678
2905.397	6707
2907.249	6640
2909.101	6754
2910.952	6752
2912.802	6688
2914.652	6767
2916.5	6680
2918.35	6836
2920.198	6789
2922.045	6911
2923.893	6933
2925.74	6899
2927.585	7054
2929.433	6910
2931.279	7064
2933.123	7055
2934.968	7046
2936.811	6977
2938.656	7032
2940.5	7149
2942.342	7118
2944.185	7119
2946.026	7174
2947.87	7136
2949.71	7057
2951.549	7026
2953.39	7076
2955.229	6976
2957.069	6899
2958.908	7012
2960.746	6991
2962.584	6873
2964.421	6841
2966.257	6862
2968.094	6905
2969.931	6721
2971.766	6755
2973.601	6688
2975.435	6715
2977.27	6634
2979.105	6653
2980.938	6729
2982.77	6693
2984.602	6727
2986.434	6667
2988.267	6695
2990.097	6675
2991.927	6582
2993.757	6575
2995.587	6556
2997.417	6428
2999.246	6528
3001.074	6610
3002.902	6400
3004.729	6375
3006.556	6278
3008.384	6339
3010.21	6319
3012.036	6279
3013.861	6270
3015.684	6169
3017.51	6146
3019.334	6179
3021.157	6428
3022.981	6165
3024.802	6195
3026.624	6184
3028.448	6197
3030.267	6117
3032.088	6035
3033.909	6199
3035.728	6175
3037.549	6084
3039.368	6055
3041.186	6121
3043.004	6078
3044.821	6139
3046.64	5964
3048.455	6081
3050.272	6002
3052.087	6089
3053.903	5942
3055.717	6062
3057.534	6053
3059.347	6028
3061.16	6092
3062.974	6028
3064.785	6020
3066.598	5941
3068.411	6132
3070.222	6090
3072.032	6013
3073.844	6091
3075.653	5957
3077.463	5942
3079.272	6054
3081.08	5929
3082.889	6010
3084.697	5886
3086.505	5998
3088.312	5935
3090.118	5920
3091.924	5912
3093.729	5962
3095.535	6015
3097.34	5822
3099.144	5897
3100.947	5796
3102.75	5894
3104.553	5945
3106.357	5803
3108.159	5844
3109.961	5852
3111.762	5792
3113.562	5861
3115.365	5714
3117.164	5796
3118.964	5800
3120.761	5830
3122.56	5863
3124.36	5763
3126.158	5763
3127.954	5884
3129.75	5782
3131.547	5739
3133.343	5699
3135.139	5693
3136.934	5849
3138.729	5836
3140.522	5591
3142.317	5628
3144.11	5757
3145.904	5728
3147.695	5664
3149.488	5784
3151.28	5752
3153.07	5659
3154.863	5666
3156.652	5646
3158.441	5596
3160.231	5692
3162.019	5710
3163.81	5610
3165.597	5670
3167.384	5675
3169.172	5639
3170.958	5599
3172.745	5583
3174.532	5574
3176.317	5560
3178.101	5498
3179.885	5651
3181.67	5560
3183.455	5684
3185.238	5587
3187.02	5616
3188.802	5587
3190.585	5487
3192.368	5563
3194.149	5601
3195.929	5630
3197.709	5480
3199.489	5508
3201.268	5585
3203.048	5535
3204.826	5531
3206.604	5587
3208.382	5532
3210.159	5521
3211.937	5629
3213.713	5531
3215.489	5512
3217.263	5685
3219.038	5506
3220.815	5525
3222.589	5471
3224.363	5544
3226.136	5509
3227.908	5573
3229.681	5566
3231.454	5556
3233.226	5516
3234.996	5471
3236.767	5511
3238.538	5529
3240.308	5395
3242.078	5557
3243.847	5524
3245.615	5512
3247.384	5518
3249.15	5543
3250.92	5468
3252.686	5385
3254.453	5530
3256.218	5463
3257.984	5423
3259.75	5469
3261.515	5500
3263.279	5505
3265.044	5476
3266.806	5510
3268.57	5436
3270.334	5411
3272.095	5420
3273.856	5385
3275.619	5356
3277.379	5545
3279.14	5433
3280.9	5469
3282.661	5424
3284.419	5402
3286.178	5464
3287.937	5472
3289.695	5465
3291.453	5446
3293.21	5408
3294.967	5457
3296.723	5364
3298.48	5517
3300.235	5527
3301.99	5466
3303.744	5487
3305.498	5434
3307.253	5490
3309.006	5446
3310.759	5357
3312.511	5530
3314.263	5467
3316.017	5358
3317.768	5421
3319.519	5374
3321.268	5481
3323.018	5342
3324.767	5381
3326.518	5379
3328.267	5322
3330.014	5440
3331.762	5375
3333.509	5442
3335.258	5289
3337.003	5343
3338.75	5404
3340.496	5420
3342.24	5297
3343.987	5441
3345.732	5285
3347.475	5418
3349.219	5237
3350.961	5299
3352.705	5263
3354.448	5326
3356.19	5328
3357.931	5293
3359.672	5284
3361.412	5222
3363.155	5251
3364.894	5329
3366.633	5254
3368.372	5350
3370.11	5334
3371.849	5236
3373.588	5294
3375.325	5223
3377.061	5281
3378.799	5229
3380.534	5253
3382.271	5202
3384.006	5196
3385.741	5188
3387.475	5173
3389.209	5276
3390.944	5199
3392.677	5198
3394.409	5209
3396.143	5216
3397.874	5261
3399.606	5197
3401.338	5161
3403.069	5102
3404.799	5257
3406.528	5289
3408.258	5044
3409.988	5107
3411.717	5299
3413.445	5084
3415.173	5180
3416.899	5141
3418.626	4982
3420.354	5162
3422.08	5152
3423.806	5090
3425.531	5178
3427.255	5121
3428.981	5144
3430.705	5130
3432.429	5054
3434.151	5156
3435.875	5140
3437.599	5073
3439.321	5102
3441.042	5085
3442.763	5111
3444.483	5042
3446.204	5062
3447.926	4935
3449.645	4987
3451.364	5073
3453.082	5118
3454.801	5036
3456.52	4987
3458.238	5036
3459.954	5015
3461.671	5035
3463.387	5047
3465.104	4977
3466.82	4903
3468.534	5026
3470.25	5024
3471.963	4953
3473.676	4927
3475.392	5033
3477.104	5019
3478.817	4927
3480.528	4870
3482.241	4843
3483.954	4812
3485.664	4904
3487.374	4816
3489.084	4994
3490.795	4732
3492.504	4911
3494.214	4886
3495.922	4875
3497.63	4905
3499.338	4906
3501.045	4791
3502.753	4906
3504.459	4740
3506.166	4885
3507.871	4889
3509.576	4859
3511.283	4861
3512.987	4792
3514.691	4805
3516.395	4859
3518.098	4804
3519.8	4802
3521.504	4787
3523.206	4726
3524.908	4799
3526.609	4729
3528.309	4710
3530.011	4859
3531.711	4766
3533.411	4715
3535.109	4763
3536.808	4706
3538.507	4782
3540.206	4791
3541.904	4780
3543.601	4688
3545.297	4739
3546.994	4757
3548.69	4760
3550.387	4678
3552.081	4743
3553.776	4745
3555.47	4765
3557.166	4768
3558.859	4690
3560.553	4702
3562.245	4647
3563.938	4746
3565.629	4688
3567.322	4684
3569.014	4609
3570.704	4734
3572.394	4722
3574.084	4708
3575.775	4644
3577.464	4597
3579.152	4592
3580.842	4637
3582.529	4686
3584.216	4667
3585.905	4626
3587.591	4642
3589.279	4584
3590.964	4602
3592.649	4620
3594.336	4630
3596.021	4714
3597.705	4551
3599.388	4625
3601.072	4557
3602.757	4514
3604.439	4559
3606.122	4667
3607.803	4495
3609.485	4502
3611.167	4462
3612.849	4497
3614.529	4551
3616.208	4532
3617.888	4445
3619.567	4482
3621.247	4495
3622.926	4465
3624.603	4462
3626.281	4516
3627.958	4487
3629.635	4504
3631.312	4508
3632.989	4446
3634.665	4468
3636.339	4367
3638.014	4481
3639.691	4467
3641.364	4500
3643.038	4449
3644.71	4387
3646.384	4400
3648.058	4374
3649.729	4411
3651.402	4405
3653.073	4441
3654.744	4345
3656.414	4416
3658.085	4316
3659.755	4360
3661.424	4404
3663.094	4348
3664.762	4348
3666.431	4370
3668.099	4376
3669.766	4315
3671.433	4354
3673.099	4333
3674.768	4372
3676.433	4324
3678.098	4410
3679.763	4286
3681.428	4332
3683.093	4293
3684.757	4342
3686.421	4336
3688.083	4332
3689.746	4271
3691.408	4431
3693.071	4225
3694.733	4359
3696.394	4200
3698.054	4337
3699.715	4420
3701.375	4256
3703.036	4257
3704.695	4240
3706.354	4270
3708.012	4290
3709.67	4215
3711.329	4279
3712.987	4277
3714.644	4399
3716.299	4339
3717.955	4228
3719.613	4234
3721.268	4268
3722.923	4309
3724.577	4260
3726.231	4174
3727.885	4185
3729.539	4198
3731.192	4244
3732.845	4280
3734.497	4205
3736.149	4186
3737.802	4176
3739.453	4111
3741.104	4166
3742.753	4163
3744.404	4244
3746.052	4128
3747.704	4125
3749.352	4179
3751	4086
3752.648	4202
3754.296	4143
3755.944	4228
3757.59	4100
3759.238	4215
3760.883	4161
3762.528	4178
3764.176	4111
3765.82	4130
3767.464	4038
3769.109	4146
3770.753	4109
3772.396	4125
3774.04	4186
3775.683	4028
3777.325	4174
3778.967	4083
3780.608	4090
3782.25	4083
3783.89	4100
3785.531	4098
3787.17	4001
3788.81	4052
3790.45	4084
3792.09	3996
3793.729	4058
3795.366	4136
3797.003	4095
3798.64	4072
3800.278	4010
3801.915	3999
3803.551	4109
3805.187	4003
3806.822	4075
3808.458	4060
3810.093	4028
3811.726	3968
3813.36	3980
3814.994	3919
3816.627	3883
3818.262	3921
3819.893	4007
3821.525	3934
3823.157	3983
3824.787	3999
3826.42	3977
3828.051	3969
3829.68	3994
3831.31	3992
3832.938	4000
3834.569	4039
3836.198	3931
3837.825	3971
3839.454	3905
3841.08	3991
3842.708	3857
3844.335	3993
3845.962	3945
3847.587	3969
3849.212	3935
3850.838	3906
3852.463	3908
3854.089	3794
3855.712	3891
3857.335	3866
3858.959	3934
3860.582	3908
3862.205	3870
3863.827	3825
3865.449	4013
3867.07	3875
3868.691	3843
3870.312	3876
3871.933	3891
3873.553	3895
3875.173	3923
3876.792	3896
3878.411	3765
3880.03	3832
3881.647	3823
3883.265	3875
3884.882	3853
3886.499	3846
3888.116	3770
3889.732	3788
3891.348	3825
3892.964	3788
3894.579	3844
3896.195	3868
3897.809	3766
3899.423	3806
3901.036	3861
3902.648	3815
3904.261	3810
3905.875	3895
3907.487	3843
3909.099	3793
3910.709	3768
3912.321	3798
3913.933	3780
3915.542	3748
3917.152	3768
3918.762	3787
3920.37	3804
3921.98	3818
3923.589	3785
3925.196	3778
3926.804	3850
3928.41	3760
3930.018	3798
3931.626	3804
3933.231	3741
3934.838	3759
3936.442	3812
3938.046	3700
3939.653	3828
3941.257	3665
3942.861	3767
3944.464	3764
3946.068	3821
3947.67	3698
3949.273	3719
3950.876	3639
3952.477	3628
3954.078	3678
3955.678	3710
3957.281	3684
3958.881	3682
3960.48	3671
3962.079	3700
3963.678	3678
3965.279	3703
3966.877	3630
3968.475	3699
3970.072	3569
3971.669	3666
3973.266	3678
3974.864	3743
3976.459	3672
3978.055	3611
3979.65	3749
3981.245	3587
3982.841	3662
3984.436	3585
3986.03	3629
3987.623	3597
3989.216	3627
3990.809	3606
3992.403	3553
3993.995	3510
3995.586	3573
3997.177	3531
3998.768	3589
4000.361	3543
4001.951	3496
4003.54	3575
4005.13	3568
4006.719	3515
4008.31	3547
4009.897	3428
4011.485	3620
4013.073	3456
4014.66	3469
4016.247	3571
4017.834	3428
4019.421	3589
4021.006	3496
4022.592	3540
4024.178	3535
4025.763	3504
4027.348	3513
4028.932	3492
4030.515	3501
4032.099	3463
4033.682	3547
4035.266	3467
4036.847	3459
4038.429	3508
4040.011	3470
4041.592	3419
4043.173	3498
4044.755	3448
4046.334	3459
4047.913	3498
4049.494	3502
4051.074	3424
4052.652	3467
4054.23	3484
4055.807	3373
4057.385	3466
4058.963	3448
4060.541	3424
4062.117	3432
4063.693	3396
4065.269	3471
4066.844	3348
4068.42	3392
4069.995	3356
4071.569	3395
4073.143	3336
4074.716	3389
4076.291	3359
4077.864	3411
4079.436	3325
4081.009	3384
4082.58	3372
4084.152	3366
4085.723	3367
4087.294	3393
4088.865	3255
4090.435	3333
4092.005	3318
4093.574	3217
4095.143	3385
4096.712	3333
4098.279	3374
4099.848	3389
4101.416	3303
4102.984	3297
4104.55	3304
4106.117	3348
4107.682	3313
4109.248	3320
4110.815	3288
4112.379	3319
4113.945	3244
4115.508	3306
4117.073	3230
4118.637	3324
4120.201	3324
4121.763	3262
4123.325	3244
4124.888	3214
4126.449	3201
4128.013	3293
4129.573	3253
4131.133	3263
4132.694	3177
4134.254	3207
4135.814	3284
4137.374	3165
4138.933	3176
4140.491	3244
4142.049	3202
4143.607	3265
4145.167	3184
4146.724	3211
4148.28	3215
4149.836	3142
4151.392	3233
4152.949	3220
4154.504	3175
4156.059	3162
4157.614	3234
4159.168	3160
4160.723	3139
4162.277	3157
4163.83	3138
4165.383	3128
4166.936	3121
4168.488	3133
4170.041	3133
4171.593	3144
4173.144	3157
4174.695	3206
4176.246	3193
4177.796	3033
4179.346	3071
4180.896	3142
4182.445	3131
4183.994	3069
4185.542	3121
4187.091	3081
4188.639	3073
4190.185	3099
4191.732	3130
4193.279	3054
4194.826	3089
4196.373	3132
4197.918	3071
4199.463	3068
4201.008	3152
4202.553	3076
4204.098	3076
4205.641	3108
4207.185	3090
4208.728	3132
4210.271	3072
4211.814	3068
4213.357	3109
4214.898	2998
4216.439	3033
4217.98	3045
4219.522	3032
4221.062	3014
4222.603	3023
4224.142	3040
4225.681	3077
4227.222	3074
4228.76	2999
4230.298	3073
4231.835	3034
4233.373	3001
4234.911	2948
4236.449	3065
4237.985	3046
4239.521	3060
4241.057	2996
4242.592	3056
4244.128	2974
4245.663	2923
4247.197	2976
4248.731	3051
4250.265	2952
4251.798	3056
4253.333	3021
4254.865	2959
4256.397	2949
4257.93	2946
4259.461	3013
4260.994	3038
4262.525	2972
4264.056	3004
4265.586	2994
4267.115	2918
4268.646	2939
4270.176	2958
4271.705	2954
4273.232	3007
4274.761	2977
4276.289	2940
4277.818	2935
4279.345	2937
4280.872	2908
4282.399	3018
4283.924	2926
4285.452	2938
4286.976	2882
4288.502	2956
4290.026	2939
4291.551	2920
4293.074	2884
4294.6	2918
4296.123	2959
4297.646	2885
4299.168	2878
4300.691	2908
4302.214	2880
4303.736	2871
4305.257	2877
4306.778	2834
4308.299	2873
4309.82	2830
4311.34	2820
4312.86	2876
4314.379	2838
