400.0745	3568
402.597	3546
405.1208	3472
407.6419	3525
410.1623	3570
412.6819	3620
415.201	3524
417.7172	3628
420.2369	3635
422.7538	3687
425.2701	3692
427.7856	3717
430.3005	3734
432.8147	3734
435.3282	3847
437.841	3750
440.3511	3771
442.8625	3695
445.3753	3877
447.8854	3736
450.3927	3791
452.9014	3817
455.4073	3822
457.9146	3802
460.4233	3869
462.9272	3783
465.4325	3827
467.935	3766
470.4389	3848
472.9421	3847
475.4446	3866
477.9444	3779
480.4456	3904
482.944	3893
485.4417	3909
487.9429	3863
490.4393	3824
492.935	3893
495.4321	3968
497.9264	3884
500.4221	3955
502.9171	3935
505.4094	3952
507.9011	3996
510.392	3967
512.8864	3896
515.3759	3961
517.8649	3966
520.3531	4056
522.8406	3996
525.3275	3973
527.8178	3991
530.3033	3966
532.7881	4049
535.2723	3966
537.7558	3943
540.2407	3932
542.7228	3995
545.2043	3936
547.6851	4073
550.1652	3977
552.6467	4010
555.1255	3995
557.6016	3909
560.079	3992
562.5557	4150
565.0318	4093
567.5092	4090
569.984	4075
572.456	4126
574.9294	4020
577.4022	4072
579.8762	4106
582.3456	4119
584.8163	4112
587.2863	4161
589.7557	4169
592.2224	4188
594.6924	4158
597.1578	4135
599.6245	4111
602.0905	4208
604.5538	4259
607.0206	4103
609.4825	4057
611.9459	4137
614.4066	4035
616.8686	4173
619.33	4220
621.7906	4134
624.2487	4182
626.708	4098
629.1647	4069
631.6207	4101
634.0801	4131
636.5348	4226
638.9888	4176
641.4442	4101
643.8969	4041
646.3509	4078
648.8022	4167
651.255	4212
653.705	4156
656.1544	4221
658.6031	4183
661.0532	4193
663.5026	4304
665.9493	4195
668.3954	4204
670.8409	4259
673.2877	4192
675.7318	4179
678.1752	4250
680.618	4251
683.0601	4287
685.5035	4342
687.9444	4265
690.3845	4343
692.824	4246
695.2628	4265
697.701	4303
700.1406	4125
702.5774	4324
705.0116	4332
707.4472	4358
709.8821	4405
712.3183	4337
714.7519	4344
717.1829	4336
719.6151	4440
722.0468	4328
724.4777	4483
726.908	4418
729.3377	4471
731.7667	4429
734.1931	4403
736.6208	4494
739.0498	4508
741.4742	4450
743.9	4456
746.3231	4494
748.7476	4445
751.1713	4526
753.5945	4566
756.015	4493
758.4368	4550
760.856	4576
763.2766	4660
765.6965	4568
768.1157	4600
770.5323	4481
772.9483	4575
775.3656	4547
777.7822	4630
780.1963	4561
782.6116	4675
785.0244	4524
787.4365	4561
789.8499	4588
792.2626	4525
794.6728	4619
797.0823	4632
799.4911	4611
801.8994	4571
804.3109	4590
806.7178	4565
809.124	4643
811.5297	4639
813.9347	4636
816.341	4718
818.7447	4611
821.1478	4736
823.5502	4676
825.952	4590
828.3531	4650
830.7556	4709
833.1554	4603
835.5546	4591
837.9532	4652
840.3511	4674
842.7504	4654
845.1451	4692
847.5411	4753
849.9365	4783
852.3312	4720
854.7272	4733
857.1187	4754
859.5115	4731
861.9037	4645
864.2952	4673
866.6842	4734
869.0764	4705
871.4661	4690
873.8531	4670
876.2415	4720
878.6272	4751
881.0162	4690
883.4026	4729
885.7866	4747
888.1717	4678
890.5543	4815
892.9382	4614
895.3215	4621
897.7041	4793
900.0842	4713
902.4655	4773
904.8443	4755
907.2244	4772
909.6039	4729
911.9808	4746
914.357	4874
916.7346	4739
919.1115	4885
921.4859	4831
923.8616	4932
926.2347	4860
928.6071	4952
930.979	4864
933.3541	5003
935.7247	4951
938.0946	4920
940.4639	4958
942.8326	4986
945.2026	4993
947.5701	5014
949.9369	5121
952.305	5162
954.6705	5242
957.0355	5332
959.4017	5305
961.7654	5491
964.1284	5502
966.4908	5470
968.8527	5362
971.2138	5189
973.5743	5123
975.9343	5054
978.2936	4979
980.6522	4943
983.0122	4899
985.3696	4899
987.7245	4895
990.0807	4922
992.4362	4847
994.7911	4923
997.1474	4822
999.4991	4805
1001.852	4900
1004.205	4921
1006.555	4942
1008.908	4945
1011.258	4918
1013.606	4824
1015.956	4919
1018.302	4926
1020.652	4867
1022.998	4931
1025.345	4889
1027.691	5002
1030.035	5004
1032.378	4977
1034.724	4980
1037.066	4933
1039.409	4932
1041.75	4903
1044.092	4926
1046.433	5032
1048.771	4969
1051.112	5055
1053.449	5055
1055.786	4891
1058.124	4998
1060.462	4898
1062.797	5000
1065.131	4970
1067.467	4986
1069.8	5057
1072.135	5013
1074.467	4989
1076.798	5041
1079.129	5166
1081.459	5032
1083.792	4937
1086.121	4960
1088.449	5074
1090.777	5049
1093.104	4965
1095.431	4956
1097.759	5008
1100.084	5052
1102.408	5048
1104.732	4952
1107.056	5116
1109.379	4993
1111.701	5056
1114.022	4972
1116.343	5139
1118.664	5077
1120.983	5106
1123.303	5068
1125.621	5165
1127.939	5072
1130.256	5063
1132.573	5023
1134.889	5175
1137.205	5019
1139.52	4991
1141.832	5044
1144.146	5070
1146.461	5067
1148.771	5029
1151.083	5016
1153.392	5071
1155.703	5114
1158.011	5076
1160.323	5084
1162.629	5147
1164.938	5018
1167.243	5083
1169.55	4985
1171.857	4995
1174.163	5129
1176.466	4967
1178.769	5006
1181.073	5084
1183.374	5198
1185.677	5027
1187.979	5066
1190.279	5005
1192.578	5043
1194.878	5047
1197.178	5161
1199.476	5008
1201.772	5015
1204.068	5041
1206.366	5110
1208.663	5047
1210.957	5056
1213.251	5027
1215.544	5006
1217.836	5136
1220.128	5038
1222.421	5054
1224.712	5223
1227.002	5254
1229.292	5031
1231.581	5065
1233.871	5231
1236.159	5201
1238.446	5075
1240.732	5185
1243.018	5225
1245.304	5370
1247.59	5171
1249.874	5262
1252.156	5163
1254.439	5290
1256.721	5247
1259.005	5237
1261.286	5255
1263.565	5216
1265.845	5206
1268.125	5282
1270.403	5282
1272.682	5141
1274.959	5239
1277.234	5264
1279.511	5249
1281.787	5185
1284.062	5218
1286.337	5202
1288.609	5145
1290.882	5199
1293.153	5126
1295.428	5115
1297.698	5272
1299.969	5234
1302.237	5191
1304.507	5131
1306.777	5233
1309.044	5146
1311.312	5113
1313.578	5176
1315.844	5122
1318.109	5232
1320.375	5109
1322.638	5153
1324.903	5243
1327.165	5101
1329.427	5251
1331.69	5242
1333.952	5262
1336.212	5158
1338.471	5174
1340.73	5127
1342.988	5116
1345.248	5163
1347.505	5180
1349.763	5195
1352.019	5220
1354.274	5163
1356.53	5223
1358.784	5115
1361.038	5225
1363.291	5112
1365.543	5136
1367.797	5065
1370.048	5169
1372.296	5159
1374.546	5175
1376.796	5170
1379.045	5171
1381.295	5151
1383.542	5228
1385.787	5187
1388.034	5215
1390.28	5249
1392.527	5264
1394.772	5116
1397.014	5159
1399.258	5197
1401.501	5269
1403.741	5237
1405.985	5295
1408.226	5245
1410.465	5321
1412.705	5243
1414.943	5347
1417.184	5334
1419.42	5237
1421.658	5331
1423.894	5200
1426.13	5273
1428.366	5379
1430.602	5228
1432.835	5231
1435.069	5326
1437.301	5278
1439.535	5364
1441.767	5437
1443.997	5328
1446.229	5362
1448.458	5415
1450.687	5386
1452.916	5380
1455.146	5324
1457.372	5527
1459.599	5431
1461.824	5387
1464.051	5414
1466.277	5501
1468.501	5406
1470.725	5377
1472.948	5166
1475.17	5287
1477.393	5398
1479.614	5330
1481.837	5240
1484.057	5258
1486.276	5247
1488.497	5262
1490.715	5211
1492.932	5252
1495.148	5215
1497.364	5151
1499.58	5315
1501.798	5138
1504.012	5166
1506.227	5132
1508.44	5138
1510.653	5217
1512.866	5224
1515.078	5205
1517.289	5099
1519.5	5165
1521.711	5277
1523.92	5180
1526.13	5167
1528.338	5065
1530.544	5175
1532.752	5164
1534.959	5213
1537.165	5142
1539.371	5186
1541.574	5177
1543.779	5185
1545.983	5248
1548.187	5212
1550.39	5226
1552.59	5175
1554.792	5255
1556.991	5178
1559.19	5235
1561.392	5213
1563.59	5276
1565.789	5331
1567.986	5133
1570.182	5289
1572.381	5231
1574.576	5248
1576.771	5281
1578.966	5361
1581.16	5276
1583.354	5301
1585.546	5273
1587.74	5273
1589.931	5276
1592.121	5395
1594.311	5321
1596.502	5448
1598.693	5343
1600.881	5381
1603.069	5314
1605.256	5340
1607.445	5360
1609.631	5272
1611.816	5436
1614.001	5284
1616.186	5339
1618.37	5319
1620.555	5428
1622.737	5380
1624.919	5531
1627.101	5410
1629.282	5384
1631.463	5484
1633.643	5417
1635.822	5401
1638.001	5419
1640.179	5376
1642.359	5423
1644.534	5422
1646.711	5568
1648.887	5369
1651.062	5459
1653.235	5407
1655.412	5351
1657.586	5379
1659.757	5443
1661.93	5426
1664.1	5427
1666.274	5397
1668.445	5527
1670.614	5429
1672.784	5449
1674.951	5484
1677.12	5371
1679.289	5421
1681.457	5382
1683.622	5395
1685.789	5346
1687.953	5352
1690.121	5485
1692.284	5312
1694.447	5620
1696.611	5357
1698.772	5373
1700.935	5438
1703.098	5358
1705.258	5314
1707.417	5436
1709.576	5395
1711.736	5378
1713.896	5418
1716.053	5355
1718.21	5305
1720.366	5301
1722.522	5342
1724.68	5397
1726.835	5447
1728.989	5280
1731.142	5290
1733.295	5289
1735.449	5415
1737.601	5310
1739.753	5399
1741.903	5293
1744.054	5247
1746.203	5287
1748.354	5332
1750.503	5395
1752.651	5359
1754.798	5359
1756.944	5457
1759.092	5379
1761.238	5410
1763.383	5344
1765.528	5383
1767.672	5397
1769.814	5434
1771.959	5437
1774.102	5347
1776.242	5496
1778.384	5465
1780.525	5357
1782.665	5465
1784.805	5362
1786.945	5308
1789.082	5429
1791.22	5456
1793.36	5405
1795.495	5382
1797.632	5307
1799.766	5445
1801.902	5439
1804.035	5386
1806.172	5358
1808.304	5515
1810.436	5396
1812.569	5332
1814.699	5333
1816.833	5365
1818.963	5364
1821.092	5514
1823.222	5444
1825.35	5318
1827.478	5510
1829.608	5326
1831.734	5351
1833.86	5355
1835.986	5378
1838.11	5308
1840.238	5357
1842.362	5345
1844.485	5416
1846.608	5465
1848.73	5395
1850.853	5404
1852.974	5362
1855.097	5378
1857.217	5404
1859.336	5334
1861.455	5359
1863.576	5363
1865.693	5295
1867.811	5413
1869.926	5414
1872.042	5205
1874.16	5266
1876.275	5365
1878.39	5369
1880.504	5330
1882.618	5323
1884.731	5469
1886.843	5322
1888.956	5348
1891.067	5410
1893.178	5325
1895.287	5330
1897.399	5401
1899.508	5413
1901.617	5337
1903.724	5362
1905.832	5449
1907.941	5413
1910.046	5478
1912.152	5394
1914.256	5361
1916.361	5429
1918.464	5425
1920.57	5367
1922.672	5400
1924.775	5345
1926.876	5449
1928.978	5472
1931.08	5306
1933.181	5397
1935.28	5437
1937.38	5409
1939.478	5477
1941.577	5389
1943.675	5495
1945.771	5500
1947.867	5389
1949.964	5336
1952.058	5429
1954.154	5518
1956.248	5453
1958.343	5430
1960.435	5439
1962.527	5464
1964.62	5390
1966.711	5479
1968.802	5518
1970.892	5376
1972.983	5385
1975.072	5384
1977.162	5454
1979.25	5352
1981.337	5409
1983.424	5400
1985.51	5406
1987.598	5496
1989.683	5355
1991.768	5430
1993.852	5483
1995.934	5418
1998.019	5436
2000.102	5390
2002.184	5467
2004.266	5408
2006.347	5432
2008.427	5413
2010.508	5318
2012.587	5391
2014.666	5484
2016.745	5424
2018.821	5417
2020.9	5361
2022.977	5461
2025.052	5363
2027.128	5389
2029.204	5429
2031.277	5470
2033.353	5410
2035.425	5304
2037.499	5438
2039.57	5484
2041.642	5490
2043.714	5455
2045.786	5331
2047.855	5428
2049.925	5465
2051.993	5445
2054.064	5518
2056.132	5452
2058.2	5430
2060.266	5385
2062.332	5481
2064.398	5431
2066.465	5319
2068.529	5433
2070.592	5427
2072.657	5412
2074.719	5401
2076.783	5382
2078.845	5487
2080.907	5422
2082.968	5388
2085.028	5370
2087.087	5500
2089.148	5437
2091.207	5349
2093.264	5262
2095.322	5376
2097.379	5409
2099.439	5339
2101.495	5395
2103.55	5443
2105.605	5320
2107.658	5411
2109.713	5330
2111.767	5348
2113.82	5493
2115.872	5371
2117.924	5385
2119.975	5437
2122.028	5349
2124.078	5475
2126.126	5468
2128.176	5404
2130.225	5500
2132.275	5325
2134.321	5385
2136.368	5331
2138.415	5429
2140.461	5417
2142.505	5330
2144.552	5362
2146.597	5316
2148.64	5381
2150.684	5374
2152.725	5338
2154.77	5497
2156.811	5409
2158.852	5357
2160.894	5462
2162.933	5380
2164.973	5295
2167.013	5374
2169.051	5383
2171.089	5364
2173.126	5414
2175.164	5287
2177.201	5426
2179.236	5377
2181.273	5368
2183.307	5402
2185.341	5354
2187.377	5384
2189.41	5317
2191.442	5293
2193.473	5401
2195.506	5411
2197.539	5360
2199.569	5297
2201.598	5301
2203.628	5356
2205.656	5260
2207.686	5303
2209.716	5323
2211.743	5317
2213.769	5325
2215.796	5362
2217.821	5272
2219.848	5305
2221.873	5398
2223.897	5312
2225.921	5398
2227.944	5275
2229.967	5387
2231.991	5234
2234.011	5304
2236.032	5280
2238.053	5330
2240.073	5222
2242.094	5290
2244.114	5336
2246.131	5308
2248.149	5306
2250.167	5320
2252.186	5397
2254.201	5225
2256.218	5261
2258.233	5421
2260.247	5244
2262.262	5312
2264.278	5325
2266.29	5312
2268.303	5448
2270.315	5308
2272.327	5320
2274.341	5334
2276.35	5368
2278.361	5263
2280.37	5268
2282.38	5360
2284.388	5296
2286.397	5325
2288.405	5295
2290.412	5361
2292.419	5256
2294.425	5261
2296.431	5284
2298.437	5374
2300.441	5274
2302.445	5241
2304.449	5395
2306.453	5265
2308.455	5368
2310.457	5221
2312.459	5243
2314.46	5318
2316.46	5303
2318.461	5310
2320.46	5307
2322.458	5261
2324.458	5222
2326.456	5267
2328.455	5289
2330.451	5195
2332.447	5109
2334.443	5272
2336.438	5222
2338.433	5296
2340.429	5134
2342.422	5280
2344.416	5228
2346.408	5148
2348.399	5185
2350.393	5189
2352.384	5144
2354.375	5227
2356.365	5201
2358.355	5176
2360.344	5191
2362.333	5230
2364.322	5157
2366.309	5151
2368.295	5217
2370.282	5257
2372.27	5087
2374.256	5168
2376.24	5075
2378.225	5221
2380.208	5139
2382.194	5202
2384.177	5258
2386.159	5117
2388.142	5182
2390.122	5109
2392.105	5030
2394.085	5133
2396.066	5116
2398.044	5088
2400.024	5169
2402.002	5043
2403.982	5157
2405.959	5064
2407.935	5101
2409.913	5118
2411.888	5116
2413.865	5135
2415.84	5123
2417.814	5126
2419.788	5159
2421.762	5098
2423.735	4974
2425.708	5165
2427.68	5076
2429.651	5159
2431.623	5155
2433.593	5066
2435.564	5106
2437.533	5127
2439.502	5071
2441.47	5013
2443.438	5176
2445.406	5117
2447.373	5134
2449.34	5123
2451.305	5064
2453.271	5193
2455.235	5037
2457.201	5082
2459.165	5112
2461.129	5090
2463.092	5042
2465.054	5076
2467.018	5020
2468.978	5084
2470.939	5071
2472.899	5076
2474.86	5025
2476.819	5098
2478.778	5096
2480.737	5068
2482.695	5077
2484.653	5023
2486.609	4969
2488.567	5001
2490.524	5047
2492.478	4960
2494.433	5081
2496.387	5043
2498.343	5078
2500.297	5057
2502.249	4955
2504.202	4978
2506.153	5033
2508.105	5076
2510.057	5006
2512.008	5049
2513.957	5050
2515.906	5011
2517.855	4992
2519.805	5029
2521.754	4885
2523.7	4944
2525.647	5010
2527.594	4993
2529.54	4968
2531.486	4974
2533.431	4853
2535.376	4923
2537.32	4882
2539.263	4808
2541.207	5020
2543.151	4888
2545.093	4945
2547.034	4885
2548.975	4916
2550.917	4979
2552.856	4957
2554.796	4958
2556.735	4942
2558.673	4917
2560.611	4906
2562.55	5022
2564.487	4937
2566.424	4983
2568.36	5015
2570.296	4887
2572.232	4946
2574.167	4975
2576.101	4987
2578.035	4938
2579.969	4907
2581.902	4929
2583.834	4960
2585.766	5043
2587.698	4917
2589.628	4999
2591.557	5003
2593.489	4986
2595.419	4868
2597.348	4931
2599.275	4924
2601.204	4963
2603.131	4902
2605.059	4856
2606.986	4959
2608.911	4928
2610.837	4948
2612.76	4904
2614.687	4975
2616.61	4955
2618.534	4914
2620.457	4859
2622.38	4917
2624.302	4988
2626.225	4917
2628.145	4960
2630.067	4992
2631.986	4935
2633.906	4909
2635.827	4943
2637.745	5004
2639.662	4910
2641.581	4881
2643.498	4866
2645.415	4918
2647.331	4984
2649.248	4897
2651.163	4885
2653.077	4867
2654.993	4940
2656.906	4971
2658.821	4878
2660.733	4834
2662.646	4926
2664.557	4799
2666.47	4855
2668.381	4921
2670.291	4881
2672.201	4969
2674.11	4832
2676.021	4891
2677.929	4927
2679.837	4934
2681.745	4936
2683.652	4895
2685.56	4850
2687.466	4917
2689.371	4826
2691.276	4831
2693.181	4912
2695.085	4861
2696.991	4859
2698.893	4868
2700.796	4806
2702.698	4922
2704.601	4888
2706.502	4857
2708.404	4811
2710.304	4835
2712.203	4856
2714.103	4720
2716.003	4834
2717.902	4823
2719.8	4728
2721.697	4855
2723.594	4794
2725.49	4821
2727.389	4788
2729.283	4744
2731.179	4857
2733.073	4777
2734.968	4808
2736.863	4804
2738.757	4864
2740.649	4862
2742.541	4758
2744.433	4800
2746.324	4811
2748.216	4661
2750.107	4744
2751.997	4804
2753.886	4737
2755.776	4779
2757.666	4755
2759.553	4772
2761.44	4801
2763.327	4796
2765.215	4762
2767.102	4769
2768.988	4659
2770.873	4806
2772.757	4753
2774.641	4702
2776.525	4696
2778.41	4687
2780.292	4697
2782.175	4705
2784.057	4779
2785.938	4699
2787.821	4687
2789.701	4807
2791.581	4717
2793.461	4694
2795.34	4751
2797.219	4742
2799.099	4624
2800.975	4684
2802.853	4746
2804.73	4699
2806.606	4719
2808.484	4656
2810.358	4627
2812.233	4640
2814.108	4704
2815.981	4613
2817.857	4705
2819.73	4656
2821.602	4800
2823.474	4645
2825.346	4623
2827.217	4610
2829.089	4545
2830.959	4764
2832.829	4653
2834.698	4702
2836.567	4675
2838.436	4744
2840.305	4711
2842.172	4694
2844.04	4699
2845.905	4733
2847.772	4703
2849.639	4784
2851.503	4719
2853.369	4764
2855.232	4636
2857.096	4810
2858.961	4786
2860.824	4711
2862.686	4699
2864.547	4763
2866.41	4788
2868.272	4804
2870.132	4767
2871.992	4898
2873.851	4726
2875.711	4776
2877.57	4845
2879.429	4807
2881.287	4865
2883.144	4985
2885.001	4905
2886.857	5051
2888.714	4924
2890.57	4827
2892.425	4918
2894.279	4843
2896.133	4852
2897.987	4841
2899.842	4907
2901.694	4897
2903.547	4959
2905.397	4914
2907.249	4872
2909.101	4923
2910.952	4950
2912.802	4912
2914.652	4829
2916.5	4893
2918.35	4975
2920.198	4988
2922.045	4984
2923.893	4980
2925.74	5022
2927.585	5102
2929.433	5150
2931.279	5131
2933.123	5140
2934.968	5149
2936.811	5124
2938.656	5187
2940.5	5176
2942.342	5129
2944.185	5218
2946.026	5219
2947.87	5247
2949.71	5132
2951.549	5202
2953.39	5185
2955.229	5154
2957.069	5004
2958.908	5184
2960.746	5038
2962.584	4961
2964.421	4903
2966.257	4986
2968.094	4913
2969.931	4933
2971.766	4914
2973.601	4858
2975.435	4940
2977.27	4899
2979.105	4829
2980.938	4912
2982.77	4856
2984.602	4817
2986.434	4836
2988.267	4854
2990.097	4825
2991.927	4727
2993.757	4688
2995.587	4719
2997.417	4687
2999.246	4700
3001.074	4706
3002.902	4695
3004.729	4570
3006.556	4496
3008.384	4591
3010.21	4529
3012.036	4494
3013.861	4454
3015.684	4514
3017.51	4558
3019.334	4433
3021.157	4437
3022.981	4509
3024.802	4361
3026.624	4379
3028.448	4509
3030.267	4433
3032.088	4322
3033.909	4322
3035.728	4352
3037.549	4388
3039.368	4308
3041.186	4350
3043.004	4340
3044.821	4385
3046.64	4281
3048.455	4457
3050.272	4369
3052.087	4371
3053.903	4290
3055.717	4329
3057.534	4369
3059.347	4388
3061.16	4350
3062.974	4319
3064.785	4307
3066.598	4319
3068.411	4379
3070.222	4358
3072.032	4303
3073.844	4288
3075.653	4233
3077.463	4308
3079.272	4265
3081.08	4134
3082.889	4319
3084.697	4317
3086.505	4281
3088.312	4287
3090.118	4190
3091.924	4183
3093.729	4135
3095.535	4202
3097.34	4213
3099.144	4211
3100.947	4247
3102.75	4173
3104.553	4210
3106.357	4099
3108.159	4088
3109.961	4091
3111.762	4236
3113.562	4153
3115.365	4120
3117.164	4090
3118.964	4145
3120.761	4187
3122.56	4184
3124.36	4143
3126.158	4138
3127.954	4183
3129.75	4113
3131.547	4152
3133.343	4056
3135.139	4118
3136.934	4073
3138.729	4123
3140.522	4153
3142.317	4091
3144.11	4091
3145.904	4206
3147.695	4156
3149.488	4097
3151.28	4067
3153.07	4144
3154.863	4087
3156.652	4087
3158.441	4071
3160.231	4054
3162.019	4161
3163.81	4031
3165.597	4083
3167.384	4003
3169.172	4028
3170.958	4092
3172.745	3951
3174.532	4029
3176.317	4053
3178.101	4075
3179.885	3955
3181.67	4112
3183.455	4036
3185.238	3994
3187.02	4008
3188.802	3998
3190.585	3959
3192.368	4006
3194.149	4005
3195.929	4077
3197.709	3981
3199.489	4042
3201.268	3945
3203.048	4098
3204.826	3977
3206.604	4045
3208.382	4045
3210.159	3987
3211.937	4055
3213.713	3915
3215.489	3970
3217.263	4021
3219.038	3964
3220.815	3946
3222.589	3976
3224.363	4052
3226.136	4005
3227.908	3917
3229.681	3983
3231.454	3990
3233.226	3917
3234.996	3908
3236.767	3941
3238.538	3960
3240.308	3924
3242.078	4006
3243.847	3942
3245.615	3962
3247.384	3988
3249.15	3881
3250.92	4015
3252.686	3912
3254.453	3935
3256.218	3899
3257.984	4005
3259.75	3954
3261.515	3947
3263.279	3938
3265.044	3940
3266.806	3912
3268.57	3932
3270.334	4033
3272.095	3958
3273.856	3864
3275.619	3900
3277.379	3954
3279.14	4014
3280.9	3953
3282.661	3903
3284.419	3981
3286.178	3829
3287.937	3934
3289.695	3870
3291.453	3943
3293.21	4032
3294.967	4011
3296.723	3954
3298.48	3890
3300.235	3874
3301.99	3931
3303.744	3969
3305.498	4000
3307.253	3970
3309.006	3912
3310.759	3931
3312.511	3942
3314.263	3927
3316.017	3917
3317.768	3897
3319.519	3888
3321.268	3925
3323.018	3865
3324.767	3891
3326.518	3917
3328.267	3885
3330.014	3868
3331.762	3952
3333.509	3903
3335.258	3952
3337.003	3847
3338.75	3859
3340.496	3891
3342.24	3940
3343.987	3935
3345.732	3904
3347.475	3869
3349.219	3880
3350.961	3834
3352.705	3900
3354.448	3872
3356.19	3844
3357.931	3936
3359.672	3759
3361.412	3884
3363.155	3815
3364.894	3893
3366.633	3768
3368.372	3828
3370.11	3852
3371.849	3866
3373.588	3836
3375.325	3861
3377.061	3854
3378.799	3730
3380.534	3829
3382.271	3845
3384.006	3827
3385.741	3830
3387.475	3785
3389.209	3845
3390.944	3882
3392.677	3796
3394.409	3791
3396.143	3803
3397.874	3773
3399.606	3842
3401.338	3811
3403.069	3788
3404.799	3714
3406.528	3864
3408.258	3733
3409.988	3761
3411.717	3767
3413.445	3724
3415.173	3744
3416.899	3750
3418.626	3826
3420.354	3704
3422.08	3791
3423.806	3729
3425.531	3814
3427.255	3710
3428.981	3748
3430.705	3741
3432.429	3682
3434.151	3759
3435.875	3687
3437.599	3736
3439.321	3786
3441.042	3730
3442.763	3734
3444.483	3644
3446.204	3695
3447.926	3728
3449.645	3712
3451.364	3707
3453.082	3718
3454.801	3682
3456.52	3612
3458.238	3505
3459.954	3663
3461.671	3713
3463.387	3754
3465.104	3646
3466.82	3645
3468.534	3648
3470.25	3581
3471.963	3648
3473.676	3603
3475.392	3564
3477.104	3577
3478.817	3603
3480.528	3513
3482.241	3617
3483.954	3581
3485.664	3596
3487.374	3653
3489.084	3623
3490.795	3578
3492.504	3544
3494.214	3535
3495.922	3641
3497.63	3571
3499.338	3611
3501.045	3556
3502.753	3626
3504.459	3540
3506.166	3619
3507.871	3621
3509.576	3559
3511.283	3542
3512.987	3491
3514.691	3552
3516.395	3584
3518.098	3552
3519.8	3480
3521.504	3591
3523.206	3635
3524.908	3470
3526.609	3577
3528.309	3585
3530.011	3510
3531.711	3472
3533.411	3526
3535.109	3458
3536.808	3416
3538.507	3527
3540.206	3530
3541.904	3564
3543.601	3606
3545.297	3473
3546.994	3504
3548.69	3433
3550.387	3472
3552.081	3461
3553.776	3497
3555.47	3478
3557.166	3477
3558.859	3521
3560.553	3409
3562.245	3485
3563.938	3483
3565.629	3409
3567.322	3458
3569.014	3408
3570.704	3404
3572.394	3440
3574.084	3464
3575.775	3405
3577.464	3407
3579.152	3434
3580.842	3437
3582.529	3487
3584.216	3438
3585.905	3496
3587.591	3463
3589.279	3429
3590.964	3396
3592.649	3305
3594.336	3385
3596.021	3437
3597.705	3384
3599.388	3397
3601.072	3356
3602.757	3370
3604.439	3521
3606.122	3382
3607.803	3291
3609.485	3395
3611.167	3291
3612.849	3409
3614.529	3455
3616.208	3306
3617.888	3287
3619.567	3269
3621.247	3359
3622.926	3268
3624.603	3331
3626.281	3359
3627.958	3247
3629.635	3253
3631.312	3358
3632.989	3305
3634.665	3271
3636.339	3252
3638.014	3271
3639.691	3285
3641.364	3273
3643.038	3329
3644.71	3272
3646.384	3219
3648.058	3205
3649.729	3340
3651.402	3244
3653.073	3260
3654.744	3263
3656.414	3214
3658.085	3314
3659.755	3189
3661.424	3234
3663.094	3254
3664.762	3218
3666.431	3261
3668.099	3240
3669.766	3207
3671.433	3203
3673.099	3212
3674.768	3244
3676.433	3282
3678.098	3220
3679.763	3261
3681.428	3201
3683.093	3107
3684.757	3204
3686.421	3268
3688.083	3184
3689.746	3248
3691.408	3161
3693.071	3199
3694.733	3226
3696.394	3181
3698.054	3301
3699.715	3204
3701.375	3164
3703.036	3135
3704.695	3223
3706.354	3191
3708.012	3130
3709.67	3106
3711.329	3219
3712.987	3166
3714.644	3195
3716.299	3138
3717.955	3160
3719.613	3135
3721.268	3092
3722.923	3162
3724.577	3186
3726.231	3147
3727.885	3183
3729.539	3132
3731.192	3157
3732.845	3144
3734.497	3161
3736.149	3189
3737.802	3146
3739.453	3127
3741.104	3138
3742.753	3144
3744.404	3063
3746.052	3180
3747.704	3106
3749.352	3209
3751	3170
3752.648	3042
3754.296	3106
3755.944	3118
3757.59	3108
3759.238	3105
3760.883	3144
3762.528	3106
3764.176	3150
3765.82	3084
3767.464	3123
3769.109	3093
3770.753	3111
3772.396	3089
3774.04	3069
3775.683	3075
3777.325	3099
3778.967	3132
3780.608	3060
3782.25	3023
3783.89	3058
3785.531	3049
3787.17	2997
3788.81	3075
3790.45	2967
3792.09	3004
3793.729	3030
3795.366	3033
3797.003	3050
3798.64	3081
3800.278	2967
3801.915	3057
3803.551	3035
3805.187	2980
3806.822	3027
3808.458	2984
3810.093	3015
3811.726	2993
3813.36	2987
3814.994	3003
3816.627	2958
3818.262	2964
3819.893	2919
3821.525	3086
3823.157	2952
3824.787	2943
3826.42	2912
3828.051	3007
3829.68	3080
3831.31	2931
3832.938	2974
3834.569	2917
3836.198	2969
3837.825	2901
3839.454	2911
3841.08	2890
3842.708	2960
3844.335	2979
3845.962	2937
3847.587	2961
3849.212	2951
3850.838	2904
3852.463	2917
3854.089	2922
3855.712	3001
3857.335	2922
3858.959	2896
3860.582	2947
3862.205	2919
3863.827	2934
3865.449	2926
3867.07	2888
3868.691	2903
3870.312	2903
3871.933	2934
3873.553	2851
3875.173	2908
3876.792	2838
3878.411	2907
3880.03	2920
3881.647	2796
3883.265	2888
3884.882	2915
3886.499	2920
3888.116	2911
3889.732	2818
3891.348	2968
3892.964	2819
3894.579	2878
3896.195	2888
3897.809	2864
3899.423	2908
3901.036	2950
3902.648	2780
3904.261	2886
3905.875	2832
3907.487	2848
3909.099	2794
3910.709	2811
3912.321	2830
3913.933	2909
3915.542	2857
3917.152	2808
3918.762	2839
3920.37	2885
3921.98	2833
3923.589	2889
3925.196	2828
3926.804	2827
3928.41	2842
3930.018	2809
3931.626	2823
3933.231	2870
3934.838	2823
3936.442	2816
3938.046	2763
3939.653	2836
3941.257	2789
3942.861	2796
3944.464	2899
3946.068	2841
3947.67	2774
3949.273	2814
3950.876	2803
3952.477	2868
3954.078	2808
3955.678	2787
3957.281	2765
3958.881	2754
3960.48	2860
3962.079	2731
3963.678	2791
3965.279	2788
3966.877	2809
3968.475	2778
3970.072	2725
3971.669	2754
3973.266	2773
3974.864	2736
3976.459	2777
3978.055	2699
3979.65	2724
3981.245	2668
3982.841	2727
3984.436	2708
3986.03	2703
3987.623	2724
3989.216	2768
3990.809	2680
3992.403	2701
3993.995	2725
3995.586	2698
3997.177	2620
3998.768	2712
4000.361	2763
4001.951	2684
4003.54	2775
4005.13	2707
4006.719	2677
4008.31	2650
4009.897	2597
4011.485	2641
4013.073	2657
4014.66	2697
4016.247	2646
4017.834	2621
4019.421	2676
4021.006	2652
4022.592	2662
4024.178	2653
4025.763	2632
4027.348	2592
4028.932	2629
4030.515	2626
4032.099	2644
4033.682	2618
4035.266	2655
4036.847	2612
4038.429	2609
4040.011	2579
4041.592	2592
4043.173	2622
4044.755	2570
4046.334	2598
4047.913	2589
4049.494	2610
4051.074	2547
4052.652	2579
4054.23	2632
4055.807	2574
4057.385	2576
4058.963	2635
4060.541	2529
4062.117	2560
4063.693	2565
4065.269	2543
4066.844	2579
4068.42	2594
4069.995	2594
4071.569	2540
4073.143	2503
4074.716	2615
4076.291	2503
4077.864	2621
4079.436	2495
4081.009	2598
4082.58	2602
4084.152	2526
4085.723	2486
4087.294	2532
4088.865	2486
4090.435	2516
4092.005	2588
4093.574	2537
4095.143	2550
4096.712	2432
4098.279	2576
4099.848	2493
4101.416	2517
4102.984	2563
4104.55	2544
4106.117	2586
4107.682	2492
4109.248	2521
4110.815	2504
4112.379	2504
4113.945	2497
4115.508	2504
4117.073	2508
4118.637	2517
4120.201	2450
4121.763	2431
4123.325	2524
4124.888	2489
4126.449	2475
4128.013	2472
4129.573	2459
4131.133	2469
4132.694	2456
4134.254	2468
4135.814	2498
4137.374	2415
4138.933	2530
4140.491	2422
4142.049	2489
4143.607	2469
4145.167	2349
4146.724	2422
4148.28	2510
4149.836	2414
4151.392	2439
4152.949	2399
4154.504	2414
4156.059	2401
4157.614	2388
4159.168	2431
4160.723	2393
4162.277	2422
4163.83	2319
4165.383	2375
4166.936	2392
4168.488	2426
4170.041	2402
4171.593	2402
4173.144	2366
4174.695	2356
4176.246	2379
4177.796	2365
4179.346	2396
4180.896	2369
4182.445	2358
4183.994	2383
4185.542	2353
4187.091	2397
4188.639	2374
4190.185	2359
4191.732	2406
4193.279	2383
4194.826	2364
4196.373	2377
4197.918	2389
4199.463	2288
4201.008	2326
4202.553	2320
4204.098	2405
4205.641	2331
4207.185	2297
4208.728	2306
4210.271	2355
4211.814	2390
4213.357	2300
4214.898	2375
4216.439	2287
4217.98	2388
4219.522	2291
4221.062	2288
4222.603	2301
4224.142	2376
4225.681	2345
4227.222	2308
4228.76	2358
4230.298	2316
4231.835	2278
4233.373	2337
4234.911	2253
4236.449	2311
4237.985	2332
4239.521	2323
4241.057	2327
4242.592	2365
4244.128	2300
4245.663	2249
4247.197	2293
4248.731	2290
4250.265	2295
4251.798	2277
4253.333	2292
4254.865	2239
4256.397	2260
4257.93	2267
4259.461	2313
4260.994	2304
4262.525	2251
4264.056	2258
4265.586	2302
4267.115	2278
4268.646	2289
4270.176	2276
4271.705	2274
4273.232	2289
4274.761	2267
4276.289	2275
4277.818	2313
4279.345	2219
4280.872	2243
4282.399	2189
4283.924	2197
4285.452	2283
4286.976	2222
4288.502	2204
4290.026	2208
4291.551	2193
4293.074	2284
4294.6	2236
4296.123	2270
4297.646	2212
4299.168	2194
4300.691	2234
4302.214	2297
4303.736	2232
4305.257	2256
4306.778	2220
4308.299	2158
4309.82	2245
4311.34	2217
4312.86	2211
4314.379	2241
