400.0745	4198
402.597	4041
405.1208	4143
407.6419	4138
410.1623	4132
412.6819	4147
415.201	4203
417.7172	4275
420.2369	4315
422.7538	4265
425.2701	4311
427.7856	4377
430.3005	4305
432.8147	4340
435.3282	4294
437.841	4362
440.3511	4333
442.8625	4403
445.3753	4372
447.8854	4395
450.3927	4449
452.9014	4398
455.4073	4333
457.9146	4418
460.4233	4356
462.9272	4330
465.4325	4415
467.935	4420
470.4389	4423
472.9421	4389
475.4446	4376
477.9444	4411
480.4456	4459
482.944	4460
485.4417	4469
487.9429	4516
490.4393	4501
492.935	4523
495.4321	4495
497.9264	4521
500.4221	4611
502.9171	4585
505.4094	4536
507.9011	4605
510.392	4611
512.8864	4590
515.3759	4525
517.8649	4616
520.3531	4603
522.8406	4631
525.3275	4543
527.8178	4621
530.3033	4606
532.7881	4560
535.2723	4635
537.7558	4552
540.2407	4538
542.7228	4585
545.2043	4556
547.6851	4684
550.1652	4544
552.6467	4697
555.1255	4559
557.6016	4602
560.079	4725
562.5557	4653
565.0318	4676
567.5092	4701
569.984	4623
572.456	4841
574.9294	4747
577.4022	4770
579.8762	4755
582.3456	4790
584.8163	4813
587.2863	4856
589.7557	4762
592.2224	4784
594.6924	4744
597.1578	4819
599.6245	4815
602.0905	4719
604.5538	4688
607.0206	4734
609.4825	4861
611.9459	4792
614.4066	4847
616.8686	4800
619.33	4740
621.7906	4785
624.2487	4742
626.708	4744
629.1647	4808
631.6207	4686
634.0801	4783
636.5348	4856
638.9888	4773
641.4442	4771
643.8969	4758
646.3509	4782
648.8022	4737
651.255	4862
653.705	4820
656.1544	4817
658.6031	4869
661.0532	4882
663.5026	4837
665.9493	4859
668.3954	4899
670.8409	4920
673.2877	4949
675.7318	4941
678.1752	4868
680.618	4896
683.0601	4900
685.5035	4959
687.9444	4871
690.3845	5003
692.824	4971
695.2628	4936
697.701	4974
700.1406	5063
702.5774	4994
705.0116	5067
707.4472	5004
709.8821	5044
712.3183	5086
714.7519	4969
717.1829	4977
719.6151	4952
722.0468	5040
724.4777	5065
726.908	5024
729.3377	5073
731.7667	5238
734.1931	5115
736.6208	5205
739.0498	5093
741.4742	5182
743.9	5197
746.3231	5151
748.7476	5161
751.1713	5263
753.5945	5224
756.015	5157
758.4368	5247
760.856	5246
763.2766	5257
765.6965	5371
768.1157	5243
770.5323	5326
772.9483	5310
775.3656	5324
777.7822	5305
780.1963	5293
782.6116	5303
785.0244	5338
787.4365	5318
789.8499	5255
792.2626	5291
794.6728	5304
797.0823	5251
799.4911	5269
801.8994	5279
804.3109	5350
806.7178	5302
809.124	5332
811.5297	5342
813.9347	5431
816.341	5403
818.7447	5372
821.1478	5408
823.5502	5479
825.952	5332
828.3531	5322
830.7556	5430
833.1554	5417
835.5546	5374
837.9532	5397
840.3511	5279
842.7504	5345
845.1451	5511
847.5411	5482
849.9365	5375
852.3312	5433
854.7272	5484
857.1187	5464
859.5115	5516
861.9037	5508
864.2952	5467
866.6842	5446
869.0764	5398
871.4661	5451
873.8531	5486
876.2415	5506
878.6272	5478
881.0162	5461
883.4026	5508
885.7866	5530
888.1717	5572
890.5543	5386
892.9382	5460
895.3215	5406
897.7041	5510
900.0842	5421
902.4655	5464
904.8443	5486
907.2244	5516
909.6039	5509
911.9808	5519
914.357	5496
916.7346	5667
919.1115	5635
921.4859	5810
923.8616	5628
926.2347	5775
928.6071	5684
930.979	5745
933.3541	5710
935.7247	5648
938.0946	5810
940.4639	5853
942.8326	5820
945.2026	5888
947.5701	5901
949.9369	5951
952.305	6213
954.6705	6276
957.0355	6468
959.4017	6617
961.7654	6643
964.1284	6693
966.4908	6558
968.8527	6315
971.2138	6186
973.5743	6089
975.9343	5865
978.2936	5654
980.6522	5733
983.0122	5739
985.3696	5551
987.7245	5576
990.0807	5686
992.4362	5709
994.7911	5725
997.1474	5706
999.4991	5559
1001.852	5640
1004.205	5782
1006.555	5686
1008.908	5700
1011.258	5691
1013.606	5567
1015.956	5693
1018.302	5609
1020.652	5717
1022.998	5661
1025.345	5601
1027.691	5697
1030.035	5735
1032.378	5752
1034.724	5799
1037.066	5670
1039.409	5672
1041.75	5787
1044.092	5835
1046.433	5864
1048.771	5798
1051.112	5777
1053.449	5786
1055.786	5694
1058.124	5739
1060.462	5676
1062.797	5765
1065.131	5823
1067.467	5757
1069.8	5826
1072.135	5868
1074.467	5842
1076.798	5843
1079.129	5771
1081.459	5732
1083.792	5757
1086.121	5800
1088.449	5847
1090.777	5768
1093.104	5795
1095.431	5732
1097.759	5819
1100.084	5757
1102.408	5747
1104.732	5837
1107.056	5840
1109.379	5811
1111.701	5802
1114.022	5825
1116.343	5811
1118.664	5923
1120.983	5830
1123.303	5875
1125.621	5746
1127.939	5761
1130.256	5875
1132.573	5837
1134.889	5783
1137.205	5838
1139.52	5775
1141.832	5850
1144.146	5782
1146.461	5751
1148.771	5921
1151.083	5822
1153.392	5886
1155.703	5818
1158.011	5840
1160.323	5825
1162.629	5790
1164.938	5814
1167.243	5830
1169.55	5829
1171.857	5803
1174.163	5756
1176.466	5919
1178.769	5753
1181.073	5902
1183.374	5757
1185.677	5778
1187.979	5738
1190.279	5790
1192.578	5914
1194.878	5845
1197.178	5816
1199.476	5722
1201.772	5779
1204.068	5830
1206.366	5820
1208.663	5840
1210.957	5805
1213.251	5907
1215.544	5859
1217.836	5969
1220.128	5988
1222.421	5857
1224.712	5913
1227.002	5933
1229.292	5925
1231.581	5944
1233.871	5955
1236.159	6048
1238.446	5995
1240.732	6057
1243.018	6067
1245.304	5998
1247.59	6084
1249.874	6014
1252.156	6103
1254.439	5967
1256.721	6031
1259.005	6017
1261.286	6070
1263.565	5983
1265.845	5959
1268.125	6075
1270.403	6066
1272.682	6036
1274.959	6027
1277.234	5958
1279.511	6026
1281.787	5987
1284.062	5933
1286.337	6002
1288.609	6005
1290.882	5890
1293.153	5898
1295.428	5856
1297.698	5922
1299.969	5968
1302.237	6025
1304.507	5938
1306.777	5949
1309.044	5997
1311.312	5889
1313.578	5950
1315.844	6010
1318.109	5908
1320.375	5963
1322.638	5916
1324.903	5955
1327.165	5887
1329.427	6128
1331.69	6004
1333.952	6028
1336.212	5913
1338.471	5871
1340.73	5963
1342.988	6073
1345.248	5870
1347.505	6007
1349.763	5987
1352.019	5953
1354.274	5993
1356.53	5895
1358.784	5934
1361.038	5938
1363.291	5989
1365.543	5941
1367.797	5951
1370.048	6017
1372.296	5919
1374.546	5969
1376.796	5997
1379.045	6021
1381.295	5979
1383.542	6075
1385.787	5935
1388.034	5945
1390.28	6033
1392.527	6041
1394.772	6032
1397.014	6115
1399.258	6068
1401.501	6068
1403.741	6177
1405.985	5976
1408.226	6024
1410.465	6033
1412.705	6171
1414.943	6097
1417.184	6064
1419.42	6107
1421.658	6058
1423.894	6174
1426.13	6225
1428.366	6072
1430.602	6139
1432.835	6188
1435.069	6143
1437.301	6139
1439.535	6129
1441.767	6189
1443.997	6180
1446.229	6252
1448.458	6228
1450.687	6120
1452.916	6222
1455.146	6205
1457.372	6320
1459.599	6284
1461.824	6180
1464.051	6264
1466.277	6196
1468.501	6155
1470.725	6244
1472.948	6119
1475.17	6122
1477.393	6273
1479.614	6023
1481.837	5933
1484.057	5941
1486.276	6068
1488.497	6047
1490.715	6024
1492.932	5928
1495.148	5916
1497.364	6116
1499.58	5982
1501.798	5784
1504.012	5999
1506.227	5970
1508.44	5904
1510.653	5965
1512.866	5914
1515.078	5943
1517.289	5911
1519.5	5895
1521.711	5864
1523.92	5965
1526.13	5882
1528.338	5812
1530.544	6104
1532.752	5939
1534.959	5929
1537.165	5874
1539.371	6007
1541.574	5908
1543.779	6009
1545.983	5912
1548.187	6107
1550.39	6079
1552.59	6024
1554.792	6086
1556.991	5900
1559.19	6046
1561.392	5990
1563.59	6003
1565.789	6111
1567.986	6091
1570.182	5944
1572.381	6113
1574.576	6109
1576.771	6049
1578.966	6182
1581.16	6045
1583.354	6217
1585.546	5978
1587.74	6146
1589.931	6157
1592.121	6171
1594.311	6107
1596.502	6153
1598.693	6037
1600.881	6105
1603.069	6078
1605.256	6154
1607.445	6245
1609.631	6143
1611.816	6219
1614.001	6213
1616.186	6108
1618.37	6136
1620.555	6228
1622.737	6254
1624.919	6079
1627.101	6169
1629.282	6280
1631.463	6211
1633.643	6174
1635.822	6284
1638.001	6226
1640.179	6186
1642.359	6279
1644.534	6351
1646.711	6206
1648.887	6265
1651.062	6227
1653.235	6310
1655.412	6243
1657.586	6249
1659.757	6284
1661.93	6241
1664.1	6390
1666.274	6294
1668.445	6280
1670.614	6299
1672.784	6198
1674.951	6312
1677.12	6289
1679.289	6340
1681.457	6145
1683.622	6221
1685.789	6311
1687.953	6356
1690.121	6255
1692.284	6203
1694.447	6287
1696.611	6226
1698.772	6227
1700.935	6180
1703.098	6234
1705.258	6045
1707.417	6018
1709.576	6161
1711.736	6043
1713.896	6119
1716.053	6140
1718.21	6229
1720.366	6141
1722.522	6176
1724.68	6073
1726.835	6067
1728.989	6020
1731.142	6110
1733.295	6011
1735.449	6065
1737.601	6153
1739.753	6140
1741.903	6154
1744.054	6177
1746.203	6082
1748.354	6001
1750.503	6135
1752.651	6109
1754.798	6180
1756.944	6212
1759.092	6093
1761.238	6179
1763.383	6126
1765.528	6272
1767.672	6180
1769.814	6127
1771.959	6025
1774.102	6185
1776.242	6081
1778.384	6231
1780.525	6227
1782.665	6190
1784.805	6217
1786.945	6100
1789.082	6073
1791.22	6103
1793.36	6212
1795.495	6186
1797.632	6180
1799.766	6103
1801.902	6190
1804.035	6282
1806.172	6110
1808.304	6151
1810.436	6153
1812.569	6251
1814.699	6167
1816.833	6086
1818.963	6207
1821.092	6261
1823.222	6085
1825.35	6240
1827.478	6122
1829.608	6123
1831.734	6145
1833.86	6093
1835.986	6193
1838.11	6219
1840.238	6122
1842.362	6038
1844.485	6110
1846.608	6145
1848.73	6110
1850.853	6089
1852.974	6152
1855.097	6068
1857.217	6097
1859.336	6115
1861.455	6153
1863.576	6125
1865.693	5911
1867.811	6083
1869.926	6174
1872.042	6149
1874.16	6221
1876.275	6059
1878.39	6093
1880.504	6165
1882.618	6056
1884.731	6141
1886.843	6130
1888.956	6175
1891.067	6107
1893.178	6134
1895.287	6169
1897.399	6196
1899.508	6162
1901.617	6176
1903.724	6114
1905.832	6199
1907.941	6109
1910.046	6152
1912.152	6210
1914.256	6137
1916.361	6171
1918.464	6245
1920.57	6228
1922.672	6286
1924.775	6239
1926.876	6123
1928.978	6198
1931.08	6152
1933.181	6241
1935.28	6216
1937.38	6186
1939.478	6285
1941.577	6208
1943.675	6226
1945.771	6318
1947.867	6238
1949.964	6164
1952.058	6215
1954.154	6272
1956.248	6077
1958.343	6100
1960.435	6169
1962.527	6198
1964.62	6200
1966.711	6115
1968.802	6129
1970.892	6074
1972.983	6193
1975.072	6157
1977.162	6112
1979.25	6167
1981.337	6103
1983.424	6195
1985.51	6163
1987.598	6198
1989.683	6142
1991.768	6136
1993.852	6106
1995.934	6084
1998.019	6070
2000.102	6125
2002.184	6197
2004.266	6164
2006.347	6097
2008.427	6063
2010.508	6126
2012.587	6137
2014.666	6049
2016.745	6163
2018.821	6033
2020.9	6117
2022.977	6113
2025.052	6186
2027.128	6187
2029.204	6127
2031.277	6112
2033.353	6080
2035.425	6143
2037.499	6041
2039.57	6032
2041.642	6128
2043.714	6181
2045.786	6122
2047.855	6141
2049.925	6129
2051.993	6000
2054.064	6109
2056.132	6019
2058.2	6074
2060.266	6204
2062.332	6165
2064.398	6108
2066.465	6201
2068.529	6114
2070.592	6120
2072.657	6207
2074.719	6240
2076.783	6146
2078.845	6093
2080.907	6308
2082.968	6171
2085.028	6193
2087.087	6123
2089.148	6037
2091.207	6102
2093.264	6109
2095.322	6089
2097.379	6182
2099.439	6064
2101.495	6112
2103.55	6263
2105.605	6061
2107.658	6110
2109.713	5999
2111.767	6142
2113.82	6114
2115.872	6125
2117.924	6039
2119.975	6120
2122.028	6118
2124.078	6129
2126.126	6001
2128.176	6140
2130.225	6167
2132.275	6121
2134.321	6225
2136.368	6150
2138.415	6144
2140.461	6190
2142.505	6065
2144.552	6067
2146.597	6059
2148.64	6168
2150.684	6067
2152.725	6088
2154.77	6119
2156.811	6025
2158.852	6023
2160.894	6044
2162.933	6095
2164.973	6059
2167.013	5949
2169.051	5984
2171.089	6002
2173.126	6022
2175.164	6128
2177.201	5950
2179.236	6069
2181.273	6163
2183.307	6022
2185.341	6026
2187.377	5968
2189.41	5970
2191.442	6083
2193.473	5986
2195.506	5987
2197.539	6068
2199.569	5924
2201.598	5944
2203.628	5890
2205.656	6007
2207.686	6053
2209.716	5909
2211.743	5997
2213.769	5950
2215.796	5956
2217.821	5951
2219.848	5867
2221.873	6016
2223.897	5948
2225.921	6007
2227.944	5885
2229.967	6008
2231.991	5942
2234.011	5962
2236.032	5938
2238.053	5859
2240.073	5944
2242.094	5959
2244.114	5977
2246.131	5957
2248.149	6009
2250.167	5974
2252.186	5888
2254.201	5820
2256.218	5897
2258.233	5909
2260.247	5874
2262.262	5853
2264.278	5896
2266.29	5820
2268.303	5854
2270.315	5959
2272.327	5978
2274.341	5979
2276.35	5879
2278.361	6055
2280.37	5899
2282.38	5862
2284.388	5891
2286.397	5895
2288.405	5985
2290.412	5874
2292.419	5937
2294.425	5956
2296.431	5906
2298.437	5944
2300.441	5886
2302.445	5776
2304.449	5880
2306.453	5862
2308.455	5840
2310.457	5891
2312.459	5918
2314.46	5880
2316.46	5909
2318.461	5836
2320.46	5864
2322.458	5982
2324.458	5913
2326.456	5871
2328.455	5946
2330.451	5780
2332.447	5861
2334.443	5945
2336.438	5903
2338.433	5874
2340.429	5920
2342.422	5775
2344.416	5836
2346.408	5836
2348.399	5901
2350.393	5798
2352.384	5729
2354.375	5792
2356.365	5864
2358.355	5835
2360.344	5939
2362.333	5860
2364.322	5734
2366.309	5837
2368.295	5863
2370.282	5793
2372.27	5737
2374.256	5803
2376.24	5843
2378.225	5738
2380.208	5717
2382.194	5842
2384.177	5729
2386.159	5766
2388.142	5733
2390.122	5730
2392.105	5784
2394.085	5701
2396.066	5709
2398.044	5723
2400.024	5709
2402.002	5549
2403.982	5832
2405.959	5672
2407.935	5761
2409.913	5605
2411.888	5645
2413.865	5733
2415.84	5690
2417.814	5699
2419.788	5684
2421.762	5700
2423.735	5722
2425.708	5778
2427.68	5714
2429.651	5726
2431.623	5739
2433.593	5708
2435.564	5723
2437.533	5612
2439.502	5711
2441.47	5741
2443.438	5704
2445.406	5806
2447.373	5695
2449.34	5728
2451.305	5688
2453.271	5696
2455.235	5682
2457.201	5668
2459.165	5794
2461.129	5620
2463.092	5621
2465.054	5648
2467.018	5650
2468.978	5669
2470.939	5663
2472.899	5640
2474.86	5681
2476.819	5602
2478.778	5772
2480.737	5601
2482.695	5538
2484.653	5693
2486.609	5595
2488.567	5592
2490.524	5494
2492.478	5623
2494.433	5585
2496.387	5531
2498.343	5661
2500.297	5591
2502.249	5568
2504.202	5587
2506.153	5605
2508.105	5617
2510.057	5563
2512.008	5587
2513.957	5543
2515.906	5529
2517.855	5483
2519.805	5587
2521.754	5585
2523.7	5591
2525.647	5584
2527.594	5630
2529.54	5511
2531.486	5572
2533.431	5519
2535.376	5576
2537.32	5499
2539.263	5499
2541.207	5611
2543.151	5649
2545.093	5576
2547.034	5589
2548.975	5603
2550.917	5509
2552.856	5568
2554.796	5585
2556.735	5499
2558.673	5634
2560.611	5595
2562.55	5610
2564.487	5544
2566.424	5577
2568.36	5498
2570.296	5580
2572.232	5513
2574.167	5644
2576.101	5551
2578.035	5530
2579.969	5623
2581.902	5606
2583.834	5630
2585.766	5520
2587.698	5518
2589.628	5593
2591.557	5606
2593.489	5581
2595.419	5605
2597.348	5552
2599.275	5658
2601.204	5536
2603.131	5488
2605.059	5527
2606.986	5643
2608.911	5496
2610.837	5696
2612.76	5544
2614.687	5601
2616.61	5542
2618.534	5578
2620.457	5607
2622.38	5556
2624.302	5609
2626.225	5544
2628.145	5531
2630.067	5540
2631.986	5678
2633.906	5570
2635.827	5530
2637.745	5510
2639.662	5562
2641.581	5608
2643.498	5575
2645.415	5418
2647.331	5522
2649.248	5645
2651.163	5601
2653.077	5488
2654.993	5354
2656.906	5599
2658.821	5567
2660.733	5538
2662.646	5536
2664.557	5401
2666.47	5541
2668.381	5549
2670.291	5576
2672.201	5488
2674.11	5561
2676.021	5429
2677.929	5491
2679.837	5470
2681.745	5458
2683.652	5497
2685.56	5579
2687.466	5488
2689.371	5458
2691.276	5565
2693.181	5414
2695.085	5413
2696.991	5457
2698.893	5498
2700.796	5447
2702.698	5416
2704.601	5506
2706.502	5405
2708.404	5549
2710.304	5417
2712.203	5374
2714.103	5395
2716.003	5347
2717.902	5429
2719.8	5380
2721.697	5417
2723.594	5464
2725.49	5425
2727.389	5417
2729.283	5319
2731.179	5471
2733.073	5503
2734.968	5441
2736.863	5415
2738.757	5491
2740.649	5490
2742.541	5460
2744.433	5458
2746.324	5476
2748.216	5421
2750.107	5395
2751.997	5368
2753.886	5337
2755.776	5342
2757.666	5378
2759.553	5334
2761.44	5392
2763.327	5393
2765.215	5373
2767.102	5382
2768.988	5297
2770.873	5436
2772.757	5306
2774.641	5350
2776.525	5437
2778.41	5348
2780.292	5364
2782.175	5419
2784.057	5404
2785.938	5226
2787.821	5402
2789.701	5276
2791.581	5322
2793.461	5374
2795.34	5293
2797.219	5306
2799.099	5362
2800.975	5298
2802.853	5266
2804.73	5256
2806.606	5300
2808.484	5334
2810.358	5230
2812.233	5320
2814.108	5371
2815.981	5278
2817.857	5137
2819.73	5176
2821.602	5331
2823.474	5339
2825.346	5324
2827.217	5244
2829.089	5295
2830.959	5299
2832.829	5256
2834.698	5328
2836.567	5314
2838.436	5324
2840.305	5343
2842.172	5357
2844.04	5312
2845.905	5239
2847.772	5353
2849.639	5280
2851.503	5371
2853.369	5330
2855.232	5446
2857.096	5329
2858.961	5340
2860.824	5397
2862.686	5329
2864.547	5494
2866.41	5390
2868.272	5502
2870.132	5416
2871.992	5547
2873.851	5521
2875.711	5560
2877.57	5671
2879.429	5718
2881.287	5652
2883.144	5603
2885.001	5702
2886.857	5752
2888.714	5586
2890.57	5625
2892.425	5652
2894.279	5617
2896.133	5668
2897.987	5619
2899.842	5674
2901.694	5537
2903.547	5788
2905.397	5602
2907.249	5705
2909.101	5684
2910.952	5642
2912.802	5694
2914.652	5737
2916.5	5727
2918.35	5757
2920.198	5962
2922.045	5940
2923.893	5844
2925.74	5892
2927.585	5958
2929.433	6072
2931.279	5987
2933.123	6154
2934.968	6292
2936.811	6149
2938.656	6290
2940.5	6162
2942.342	6327
2944.185	6290
2946.026	6199
2947.87	6317
2949.71	6252
2951.549	6188
2953.39	6282
2955.229	6113
2957.069	6128
2958.908	6020
2960.746	6076
2962.584	5894
2964.421	5912
2966.257	5976
2968.094	5958
2969.931	5846
2971.766	5882
2973.601	5943
2975.435	5769
2977.27	5787
2979.105	5802
2980.938	5770
2982.77	5712
2984.602	5654
2986.434	5650
2988.267	5630
2990.097	5564
2991.927	5623
2993.757	5499
2995.587	5491
2997.417	5480
2999.246	5415
3001.074	5386
3002.902	5333
3004.729	5405
3006.556	5311
3008.384	5231
3010.21	5261
3012.036	5157
3013.861	5224
3015.684	5197
3017.51	5188
3019.334	5084
3021.157	5179
3022.981	5084
3024.802	5051
3026.624	5058
3028.448	5091
3030.267	5026
3032.088	4967
3033.909	4889
3035.728	5023
3037.549	4949
3039.368	5051
3041.186	5014
3043.004	5050
3044.821	5039
3046.64	4933
3048.455	4970
3050.272	4960
3052.087	5058
3053.903	4931
3055.717	4853
3057.534	4986
3059.347	5020
3061.16	4918
3062.974	4994
3064.785	4931
3066.598	4881
3068.411	4886
3070.222	4945
3072.032	4913
3073.844	4932
3075.653	4818
3077.463	4898
3079.272	4868
3081.08	4890
3082.889	4841
3084.697	4812
3086.505	4898
3088.312	4812
3090.118	4795
3091.924	4817
3093.729	4799
3095.535	4827
3097.34	4843
3099.144	4722
3100.947	4740
3102.75	4808
3104.553	4730
3106.357	4802
3108.159	4828
3109.961	4783
3111.762	4743
3113.562	4844
3115.365	4853
3117.164	4781
3118.964	4675
3120.761	4757
3122.56	4778
3124.36	4747
3126.158	4727
3127.954	4714
3129.75	4645
3131.547	4652
3133.343	4656
3135.139	4733
3136.934	4648
3138.729	4661
3140.522	4685
3142.317	4649
3144.11	4695
3145.904	4638
3147.695	4682
3149.488	4637
3151.28	4645
3153.07	4630
3154.863	4587
3156.652	4681
3158.441	4623
3160.231	4587
3162.019	4687
3163.81	4531
3165.597	4518
3167.384	4727
3169.172	4585
3170.958	4622
3172.745	4697
3174.532	4595
3176.317	4693
3178.101	4515
3179.885	4578
3181.67	4642
3183.455	4578
3185.238	4529
3187.02	4623
3188.802	4570
3190.585	4639
3192.368	4580
3194.149	4528
3195.929	4576
3197.709	4589
3199.489	4621
3201.268	4580
3203.048	4557
3204.826	4599
3206.604	4619
3208.382	4542
3210.159	4541
3211.937	4586
3213.713	4627
3215.489	4649
3217.263	4566
3219.038	4579
3220.815	4463
3222.589	4634
3224.363	4574
3226.136	4501
3227.908	4554
3229.681	4546
3231.454	4580
3233.226	4576
3234.996	4562
3236.767	4516
3238.538	4524
3240.308	4540
3242.078	4584
3243.847	4471
3245.615	4471
3247.384	4521
3249.15	4637
3250.92	4523
3252.686	4493
3254.453	4551
3256.218	4533
3257.984	4552
3259.75	4489
3261.515	4492
3263.279	4484
3265.044	4537
3266.806	4539
3268.57	4613
3270.334	4541
3272.095	4454
3273.856	4548
3275.619	4488
3277.379	4484
3279.14	4558
3280.9	4526
3282.661	4539
3284.419	4576
3286.178	4606
3287.937	4523
3289.695	4527
3291.453	4604
3293.21	4556
3294.967	4621
3296.723	4534
3298.48	4551
3300.235	4553
3301.99	4504
3303.744	4546
3305.498	4642
3307.253	4560
3309.006	4593
3310.759	4523
3312.511	4463
3314.263	4597
3316.017	4460
3317.768	4595
3319.519	4537
3321.268	4504
3323.018	4543
3324.767	4537
3326.518	4512
3328.267	4590
3330.014	4578
3331.762	4504
3333.509	4475
3335.258	4477
3337.003	4493
3338.75	4507
3340.496	4456
3342.24	4508
3343.987	4518
3345.732	4477
3347.475	4490
3349.219	4554
3350.961	4475
3352.705	4392
3354.448	4452
3356.19	4544
3357.931	4432
3359.672	4431
3361.412	4444
3363.155	4383
3364.894	4467
3366.633	4471
3368.372	4411
3370.11	4525
3371.849	4394
3373.588	4406
3375.325	4410
3377.061	4459
3378.799	4343
3380.534	4388
3382.271	4380
3384.006	4377
3385.741	4391
3387.475	4401
3389.209	4394
3390.944	4323
3392.677	4406
3394.409	4344
3396.143	4325
3397.874	4401
3399.606	4410
3401.338	4397
3403.069	4336
3404.799	4326
3406.528	4353
3408.258	4365
3409.988	4334
3411.717	4260
3413.445	4325
3415.173	4300
3416.899	4306
3418.626	4290
3420.354	4298
3422.08	4355
3423.806	4322
3425.531	4352
3427.255	4296
3428.981	4251
3430.705	4356
3432.429	4245
3434.151	4150
3435.875	4219
3437.599	4330
3439.321	4219
3441.042	4332
3442.763	4191
3444.483	4280
3446.204	4209
3447.926	4234
3449.645	4201
3451.364	4252
3453.082	4103
3454.801	4213
3456.52	4304
3458.238	4189
3459.954	4212
3461.671	4178
3463.387	4153
3465.104	4198
3466.82	4224
3468.534	4201
3470.25	4124
3471.963	4160
3473.676	4264
3475.392	4124
3477.104	4194
3478.817	4156
3480.528	4074
3482.241	4117
3483.954	4029
3485.664	4134
3487.374	4129
3489.084	4148
3490.795	4161
3492.504	4084
3494.214	4061
3495.922	3992
3497.63	4113
3499.338	4063
3501.045	4022
3502.753	4014
3504.459	4039
3506.166	4087
3507.871	4037
3509.576	4064
3511.283	4069
3512.987	4097
3514.691	4103
3516.395	3952
3518.098	4014
3519.8	4087
3521.504	4012
3523.206	3915
3524.908	4093
3526.609	4028
3528.309	3962
3530.011	4079
3531.711	4013
3533.411	4030
3535.109	3924
3536.808	4025
3538.507	3962
3540.206	3950
3541.904	3992
3543.601	3906
3545.297	3916
3546.994	3948
3548.69	3922
3550.387	3941
3552.081	3848
3553.776	3952
3555.47	3910
3557.166	3918
3558.859	3942
3560.553	3891
3562.245	3968
3563.938	3906
3565.629	3966
3567.322	3919
3569.014	3819
3570.704	3882
3572.394	3876
3574.084	3949
3575.775	3940
3577.464	3824
3579.152	3833
3580.842	3791
3582.529	3888
3584.216	3849
3585.905	3829
3587.591	3869
3589.279	3863
3590.964	3810
3592.649	3798
3594.336	3880
3596.021	3804
3597.705	3812
3599.388	3830
3601.072	3794
3602.757	3789
3604.439	3847
3606.122	3762
3607.803	3813
3609.485	3843
3611.167	3812
3612.849	3763
3614.529	3746
3616.208	3686
3617.888	3728
3619.567	3746
3621.247	3777
3622.926	3665
3624.603	3693
3626.281	3776
3627.958	3750
3629.635	3765
3631.312	3733
3632.989	3687
3634.665	3755
3636.339	3591
3638.014	3705
3639.691	3731
3641.364	3710
3643.038	3629
3644.71	3667
3646.384	3736
3648.058	3644
3649.729	3789
3651.402	3658
3653.073	3667
3654.744	3670
3656.414	3687
3658.085	3617
3659.755	3671
3661.424	3646
3663.094	3647
3664.762	3610
3666.431	3619
3668.099	3583
3669.766	3596
3671.433	3709
3673.099	3610
3674.768	3516
3676.433	3626
3678.098	3613
3679.763	3648
3681.428	3641
3683.093	3573
3684.757	3606
3686.421	3579
3688.083	3594
3689.746	3539
3691.408	3509
3693.071	3613
3694.733	3580
3696.394	3568
3698.054	3528
3699.715	3540
3701.375	3561
3703.036	3544
3704.695	3535
3706.354	3607
3708.012	3555
3709.67	3539
3711.329	3488
3712.987	3606
3714.644	3552
3716.299	3523
3717.955	3487
3719.613	3520
3721.268	3622
3722.923	3478
3724.577	3483
3726.231	3548
3727.885	3498
3729.539	3541
3731.192	3447
3732.845	3435
3734.497	3536
3736.149	3471
3737.802	3538
3739.453	3506
3741.104	3552
3742.753	3501
3744.404	3509
3746.052	3446
3747.704	3512
3749.352	3541
3751	3494
3752.648	3391
3754.296	3543
3755.944	3473
3757.59	3509
3759.238	3492
3760.883	3417
3762.528	3473
3764.176	3485
3765.82	3429
3767.464	3489
3769.109	3414
3770.753	3398
3772.396	3330
3774.04	3429
3775.683	3385
3777.325	3407
3778.967	3388
3780.608	3448
3782.25	3397
3783.89	3398
3785.531	3484
3787.17	3440
3788.81	3363
3790.45	3368
3792.09	3344
3793.729	3431
3795.366	3331
3797.003	3346
3798.64	3430
3800.278	3339
3801.915	3353
3803.551	3403
3805.187	3374
3806.822	3383
3808.458	3323
3810.093	3306
3811.726	3308
3813.36	3375
3814.994	3318
3816.627	3340
3818.262	3283
3819.893	3405
3821.525	3299
3823.157	3372
3824.787	3286
3826.42	3357
3828.051	3399
3829.68	3313
3831.31	3269
3832.938	3358
3834.569	3312
3836.198	3316
3837.825	3247
3839.454	3278
3841.08	3231
3842.708	3375
3844.335	3201
3845.962	3260
3847.587	3274
3849.212	3223
3850.838	3319
3852.463	3265
3854.089	3303
3855.712	3251
3857.335	3249
3858.959	3248
3860.582	3289
3862.205	3275
3863.827	3307
3865.449	3202
3867.07	3268
3868.691	3233
3870.312	3247
3871.933	3193
3873.553	3217
3875.173	3235
3876.792	3230
3878.411	3283
3880.03	3236
3881.647	3241
3883.265	3231
3884.882	3204
3886.499	3143
3888.116	3228
3889.732	3201
3891.348	3280
3892.964	3172
3894.579	3151
3896.195	3155
3897.809	3147
3899.423	3238
3901.036	3225
3902.648	3194
3904.261	3184
3905.875	3114
3907.487	3184
3909.099	3092
3910.709	3160
3912.321	3226
3913.933	3188
3915.542	3099
3917.152	3118
3918.762	3205
3920.37	3238
3921.98	3196
3923.589	3169
3925.196	3202
3926.804	3167
3928.41	3119
3930.018	3142
3931.626	3068
3933.231	3191
3934.838	3113
3936.442	3165
3938.046	3152
3939.653	3160
3941.257	3193
3942.861	3181
3944.464	3068
3946.068	3155
3947.67	3041
3949.273	3141
3950.876	3130
3952.477	3103
3954.078	3123
3955.678	3100
3957.281	3101
3958.881	3128
3960.48	3131
3962.079	3122
3963.678	3054
3965.279	3103
3966.877	3034
3968.475	3085
3970.072	3049
3971.669	3044
3973.266	3111
3974.864	3009
3976.459	3125
3978.055	3080
3979.65	3034
3981.245	3028
3982.841	3088
3984.436	3086
3986.03	3066
3987.623	3003
3989.216	2994
3990.809	3001
3992.403	3049
3993.995	3063
3995.586	3098
3997.177	2986
3998.768	3051
4000.361	3029
4001.951	2986
4003.54	2945
4005.13	2983
4006.719	2974
4008.31	3041
4009.897	2948
4011.485	2906
4013.073	2948
4014.66	2993
4016.247	3000
4017.834	3010
4019.421	2974
4021.006	2962
4022.592	2951
4024.178	2857
4025.763	2899
4027.348	2987
4028.932	2952
4030.515	2995
4032.099	2930
4033.682	2924
4035.266	2899
4036.847	2931
4038.429	2918
4040.011	2933
4041.592	2858
4043.173	2965
4044.755	2873
4046.334	2875
4047.913	2904
4049.494	2928
4051.074	2895
4052.652	2915
4054.23	2871
4055.807	2867
4057.385	2782
4058.963	2865
4060.541	2894
4062.117	2853
4063.693	2865
4065.269	2873
4066.844	2861
4068.42	2874
4069.995	2853
4071.569	2903
4073.143	2823
4074.716	2852
4076.291	2850
4077.864	2769
4079.436	2841
4081.009	2886
4082.58	2922
4084.152	2776
4085.723	2862
4087.294	2781
4088.865	2820
4090.435	2845
4092.005	2799
4093.574	2881
4095.143	2847
4096.712	2872
4098.279	2805
4099.848	2820
4101.416	2827
4102.984	2841
4104.55	2778
4106.117	2813
4107.682	2829
4109.248	2755
4110.815	2760
4112.379	2742
4113.945	2766
4115.508	2824
4117.073	2791
4118.637	2827
4120.201	2784
4121.763	2711
4123.325	2768
4124.888	2768
4126.449	2751
4128.013	2732
4129.573	2791
4131.133	2708
4132.694	2804
4134.254	2679
4135.814	2718
4137.374	2706
4138.933	2748
4140.491	2703
4142.049	2750
4143.607	2712
4145.167	2724
4146.724	2704
4148.28	2662
4149.836	2711
4151.392	2720
4152.949	2765
4154.504	2724
4156.059	2680
4157.614	2702
4159.168	2750
4160.723	2671
4162.277	2672
4163.83	2599
4165.383	2607
4166.936	2634
4168.488	2700
4170.041	2646
4171.593	2690
4173.144	2722
4174.695	2675
4176.246	2640
4177.796	2596
4179.346	2649
4180.896	2600
4182.445	2714
4183.994	2588
4185.542	2614
4187.091	2668
4188.639	2640
4190.185	2698
4191.732	2614
4193.279	2608
4194.826	2639
4196.373	2648
4197.918	2635
4199.463	2532
4201.008	2611
4202.553	2581
4204.098	2598
4205.641	2579
4207.185	2563
4208.728	2624
4210.271	2666
4211.814	2551
4213.357	2595
4214.898	2602
4216.439	2565
4217.98	2631
4219.522	2640
4221.062	2540
4222.603	2524
4224.142	2559
4225.681	2618
4227.222	2619
4228.76	2632
4230.298	2539
4231.835	2524
4233.373	2584
4234.911	2600
4236.449	2616
4237.985	2530
4239.521	2595
4241.057	2594
4242.592	2571
4244.128	2565
4245.663	2524
4247.197	2562
4248.731	2538
4250.265	2507
4251.798	2517
4253.333	2572
4254.865	2459
4256.397	2495
4257.93	2572
4259.461	2594
4260.994	2522
4262.525	2429
4264.056	2560
4265.586	2508
4267.115	2571
4268.646	2575
4270.176	2507
4271.705	2461
4273.232	2533
4274.761	2452
4276.289	2485
4277.818	2525
4279.345	2517
4280.872	2448
4282.399	2515
4283.924	2486
4285.452	2519
4286.976	2528
4288.502	2514
4290.026	2470
4291.551	2450
4293.074	2513
4294.6	2490
4296.123	2461
4297.646	2433
4299.168	2425
4300.691	2470
4302.214	2494
4303.736	2425
4305.257	2419
4306.778	2466
4308.299	2490
4309.82	2357
4311.34	2454
4312.86	2449
4314.379	2347
