400.0745	5233
402.597	5375
405.1208	5379
407.6419	5314
410.1623	5243
412.6819	5462
415.201	5399
417.7172	5445
420.2369	5501
422.7538	5530
425.2701	5547
427.7856	5610
430.3005	5686
432.8147	5650
435.3282	5649
437.841	5717
440.3511	5605
442.8625	5557
445.3753	5711
447.8854	5747
450.3927	5585
452.9014	5548
455.4073	5754
457.9146	5699
460.4233	5683
462.9272	5699
465.4325	5594
467.935	5641
470.4389	5587
472.9421	5689
475.4446	5745
477.9444	5612
480.4456	5729
482.944	5685
485.4417	5711
487.9429	5689
490.4393	5746
492.935	5834
495.4321	5683
497.9264	5876
500.4221	5834
502.9171	5812
505.4094	5908
507.9011	5773
510.392	5806
512.8864	5832
515.3759	5904
517.8649	5942
520.3531	5946
522.8406	5923
525.3275	5923
527.8178	5926
530.3033	5965
532.7881	6018
535.2723	5973
537.7558	5997
540.2407	5964
542.7228	5871
545.2043	5938
547.6851	5954
550.1652	5943
552.6467	5913
555.1255	6046
557.6016	5955
560.079	6017
562.5557	5990
565.0318	5981
567.5092	6012
569.984	6073
572.456	6132
574.9294	6140
577.4022	6234
579.8762	6167
582.3456	6206
584.8163	6136
587.2863	6242
589.7557	6254
592.2224	6220
594.6924	6135
597.1578	6359
599.6245	6207
602.0905	6217
604.5538	6167
607.0206	6171
609.4825	6202
611.9459	6104
614.4066	6214
616.8686	6184
619.33	6152
621.7906	6173
624.2487	6151
626.708	6245
629.1647	6134
631.6207	6140
634.0801	6229
636.5348	6079
638.9888	6173
641.4442	6088
643.8969	6128
646.3509	6179
648.8022	6094
651.255	6187
653.705	6174
656.1544	6193
658.6031	6129
661.0532	6239
663.5026	6331
665.9493	6266
668.3954	6349
670.8409	6303
673.2877	6412
675.7318	6343
678.1752	6334
680.618	6380
683.0601	6342
685.5035	6302
687.9444	6373
690.3845	6351
692.824	6444
695.2628	6480
697.701	6516
700.1406	6490
702.5774	6401
705.0116	6355
707.4472	6433
709.8821	6448
712.3183	6485
714.7519	6408
717.1829	6465
719.6151	6524
722.0468	6488
724.4777	6510
726.908	6602
729.3377	6439
731.7667	6495
734.1931	6671
736.6208	6476
739.0498	6625
741.4742	6744
743.9	6717
746.3231	6843
748.7476	6724
751.1713	6738
753.5945	6885
756.015	6687
758.4368	6773
760.856	6799
763.2766	6729
765.6965	6931
768.1157	6915
770.5323	6839
772.9483	6879
775.3656	6742
777.7822	6868
780.1963	6837
782.6116	6915
785.0244	6745
787.4365	6806
789.8499	6862
792.2626	6832
794.6728	6794
797.0823	6974
799.4911	6810
801.8994	6890
804.3109	6877
806.7178	6876
809.124	6865
811.5297	7077
813.9347	7011
816.341	6929
818.7447	6914
821.1478	6842
823.5502	7152
825.952	6935
828.3531	7003
830.7556	7035
833.1554	7003
835.5546	6984
837.9532	7130
840.3511	6998
842.7504	6875
845.1451	7003
847.5411	7080
849.9365	7151
852.3312	7212
854.7272	7121
857.1187	7029
859.5115	7068
861.9037	7050
864.2952	7028
866.6842	6996
869.0764	7090
871.4661	7023
873.8531	7147
876.2415	7160
878.6272	7115
881.0162	7065
883.4026	7003
885.7866	7062
888.1717	6957
890.5543	7039
892.9382	7089
895.3215	6986
897.7041	7194
900.0842	7004
902.4655	7115
904.8443	7180
907.2244	7058
909.6039	7143
911.9808	7107
914.357	7381
916.7346	7139
919.1115	7370
921.4859	7395
923.8616	7230
926.2347	7433
928.6071	7434
930.979	7431
933.3541	7387
935.7247	7592
938.0946	7441
940.4639	7587
942.8326	7541
945.2026	7621
947.5701	7767
949.9369	7996
952.305	8204
954.6705	8453
957.0355	8583
959.4017	8999
961.7654	8968
964.1284	8862
966.4908	8613
968.8527	8224
971.2138	7999
973.5743	7648
975.9343	7575
978.2936	7495
980.6522	7464
983.0122	7360
985.3696	7318
987.7245	7385
990.0807	7380
992.4362	7306
994.7911	7311
997.1474	7210
999.4991	7335
1001.852	7274
1004.205	7398
1006.555	7246
1008.908	7402
1011.258	7418
1013.606	7274
1015.956	7212
1018.302	7380
1020.652	7326
1022.998	7419
1025.345	7321
1027.691	7353
1030.035	7456
1032.378	7451
1034.724	7557
1037.066	7388
1039.409	7418
1041.75	7586
1044.092	7473
1046.433	7579
1048.771	7510
1051.112	7477
1053.449	7506
1055.786	7363
1058.124	7516
1060.462	7547
1062.797	7407
1065.131	7580
1067.467	7586
1069.8	7615
1072.135	7508
1074.467	7676
1076.798	7768
1079.129	7502
1081.459	7612
1083.792	7560
1086.121	7502
1088.449	7499
1090.777	7474
1093.104	7550
1095.431	7546
1097.759	7406
1100.084	7427
1102.408	7501
1104.732	7500
1107.056	7484
1109.379	7566
1111.701	7521
1114.022	7561
1116.343	7508
1118.664	7481
1120.983	7474
1123.303	7559
1125.621	7545
1127.939	7454
1130.256	7492
1132.573	7533
1134.889	7404
1137.205	7503
1139.52	7535
1141.832	7469
1144.146	7362
1146.461	7416
1148.771	7525
1151.083	7544
1153.392	7491
1155.703	7529
1158.011	7499
1160.323	7504
1162.629	7455
1164.938	7433
1167.243	7496
1169.55	7344
1171.857	7574
1174.163	7407
1176.466	7460
1178.769	7466
1181.073	7425
1183.374	7571
1185.677	7515
1187.979	7570
1190.279	7510
1192.578	7674
1194.878	7478
1197.178	7458
1199.476	7410
1201.772	7541
1204.068	7523
1206.366	7566
1208.663	7431
1210.957	7483
1213.251	7484
1215.544	7586
1217.836	7570
1220.128	7566
1222.421	7558
1224.712	7587
1227.002	7604
1229.292	7525
1231.581	7781
1233.871	7597
1236.159	7806
1238.446	7675
1240.732	7742
1243.018	7815
1245.304	7887
1247.59	7951
1249.874	7926
1252.156	7836
1254.439	7828
1256.721	7760
1259.005	7729
1261.286	7754
1263.565	7675
1265.845	7820
1268.125	7865
1270.403	7729
1272.682	7754
1274.959	7799
1277.234	7852
1279.511	7695
1281.787	7707
1284.062	7675
1286.337	7850
1288.609	7765
1290.882	7564
1293.153	7655
1295.428	7650
1297.698	7645
1299.969	7724
1302.237	7582
1304.507	7699
1306.777	7695
1309.044	7609
1311.312	7719
1313.578	7675
1315.844	7857
1318.109	7659
1320.375	7637
1322.638	7721
1324.903	7688
1327.165	7747
1329.427	7746
1331.69	7770
1333.952	7672
1336.212	7473
1338.471	7637
1340.73	7704
1342.988	7617
1345.248	7594
1347.505	7661
1349.763	7642
1352.019	7559
1354.274	7680
1356.53	7679
1358.784	7679
1361.038	7665
1363.291	7717
1365.543	7642
1367.797	7710
1370.048	7615
1372.296	7723
1374.546	7464
1376.796	7706
1379.045	7873
1381.295	7656
1383.542	7711
1385.787	7850
1388.034	7674
1390.28	7707
1392.527	7685
1394.772	7761
1397.014	7886
1399.258	7988
1401.501	7847
1403.741	7779
1405.985	7749
1408.226	7701
1410.465	7793
1412.705	7953
1414.943	7823
1417.184	7717
1419.42	7813
1421.658	7762
1423.894	7815
1426.13	7807
1428.366	7802
1430.602	7992
1432.835	7932
1435.069	8128
1437.301	7943
1439.535	7913
1441.767	8034
1443.997	7992
1446.229	7973
1448.458	8013
1450.687	8003
1452.916	8000
1455.146	7946
1457.372	8006
1459.599	7948
1461.824	7973
1464.051	8011
1466.277	7957
1468.501	8109
1470.725	7927
1472.948	7722
1475.17	7924
1477.393	7831
1479.614	7785
1481.837	7813
1484.057	7798
1486.276	7806
1488.497	7723
1490.715	7758
1492.932	7632
1495.148	7710
1497.364	7661
1499.58	7694
1501.798	7622
1504.012	7803
1506.227	7568
1508.44	7625
1510.653	7627
1512.866	7554
1515.078	7629
1517.289	7635
1519.5	7628
1521.711	7627
1523.92	7684
1526.13	7620
1528.338	7622
1530.544	7657
1532.752	7612
1534.959	7589
1537.165	7658
1539.371	7564
1541.574	7618
1543.779	7637
1545.983	7679
1548.187	7784
1550.39	7780
1552.59	7706
1554.792	7793
1556.991	7768
1559.19	7833
1561.392	7806
1563.59	7659
1565.789	7774
1567.986	7734
1570.182	7817
1572.381	7685
1574.576	7662
1576.771	7834
1578.966	7869
1581.16	7836
1583.354	7760
1585.546	7727
1587.74	7824
1589.931	7877
1592.121	7747
1594.311	7888
1596.502	7773
1598.693	7932
1600.881	7911
1603.069	7946
1605.256	7803
1607.445	7860
1609.631	7933
1611.816	7835
1614.001	7882
1616.186	7731
1618.37	7963
1620.555	7823
1622.737	7904
1624.919	7786
1627.101	7926
1629.282	8001
1631.463	7833
1633.643	7918
1635.822	7883
1638.001	7999
1640.179	7922
1642.359	7984
1644.534	7893
1646.711	7994
1648.887	7950
1651.062	8018
1653.235	7919
1655.412	7964
1657.586	7926
1659.757	8056
1661.93	7964
1664.1	8048
1666.274	8064
1668.445	7990
1670.614	8015
1672.784	8117
1674.951	7944
1677.12	8069
1679.289	8111
1681.457	8078
1683.622	8095
1685.789	7987
1687.953	8035
1690.121	7783
1692.284	7970
1694.447	7849
1696.611	7846
1698.772	7886
1700.935	7924
1703.098	7829
1705.258	7823
1707.417	7732
1709.576	7879
1711.736	7835
1713.896	7831
1716.053	7810
1718.21	7790
1720.366	7806
1722.522	7679
1724.68	7840
1726.835	7771
1728.989	7830
1731.142	7859
1733.295	7906
1735.449	7774
1737.601	7815
1739.753	7806
1741.903	7808
1744.054	7819
1746.203	7814
1748.354	7752
1750.503	7804
1752.651	7824
1754.798	7770
1756.944	7885
1759.092	7924
1761.238	7793
1763.383	7792
1765.528	7763
1767.672	7841
1769.814	7770
1771.959	7755
1774.102	7881
1776.242	7795
1778.384	8016
1780.525	7863
1782.665	7825
1784.805	7947
1786.945	7839
1789.082	7834
1791.22	7832
1793.36	7866
1795.495	7789
1797.632	7967
1799.766	7914
1801.902	7839
1804.035	7795
1806.172	7779
1808.304	7837
1810.436	7846
1812.569	7907
1814.699	7905
1816.833	7799
1818.963	7782
1821.092	7874
1823.222	7817
1825.35	7904
1827.478	7810
1829.608	7846
1831.734	7916
1833.86	7841
1835.986	7841
1838.11	7647
1840.238	7829
1842.362	7754
1844.485	7872
1846.608	7800
1848.73	7751
1850.853	7668
1852.974	7938
1855.097	7692
1857.217	7732
1859.336	7773
1861.455	7815
1863.576	7791
1865.693	7760
1867.811	7823
1869.926	7857
1872.042	7691
1874.16	7900
1876.275	7736
1878.39	7748
1880.504	7765
1882.618	7734
1884.731	7704
1886.843	7759
1888.956	7781
1891.067	7837
1893.178	7659
1895.287	7734
1897.399	7823
1899.508	7750
1901.617	7811
1903.724	7691
1905.832	7803
1907.941	7796
1910.046	7773
1912.152	7747
1914.256	7773
1916.361	7911
1918.464	7777
1920.57	7727
1922.672	7843
1924.775	7803
1926.876	7919
1928.978	7911
1931.08	7733
1933.181	7819
1935.28	7870
1937.38	7878
1939.478	7907
1941.577	7829
1943.675	7828
1945.771	7938
1947.867	7804
1949.964	7900
1952.058	7789
1954.154	7779
1956.248	7819
1958.343	7647
1960.435	7825
1962.527	7833
1964.62	7926
1966.711	7801
1968.802	7859
1970.892	7892
1972.983	7771
1975.072	7839
1977.162	7724
1979.25	7691
1981.337	7800
1983.424	7814
1985.51	7825
1987.598	7848
1989.683	7826
1991.768	7750
1993.852	7746
1995.934	7799
1998.019	7692
2000.102	7740
2002.184	7786
2004.266	7881
2006.347	7740
2008.427	7707
2010.508	7653
2012.587	7853
2014.666	7678
2016.745	7747
2018.821	7839
2020.9	7596
2022.977	7764
2025.052	7740
2027.128	7705
2029.204	7631
2031.277	7884
2033.353	7636
2035.425	7702
2037.499	7622
2039.57	7725
2041.642	7625
2043.714	7709
2045.786	7709
2047.855	7631
2049.925	7689
2051.993	7712
2054.064	7866
2056.132	7755
2058.2	7611
2060.266	7708
2062.332	7808
2064.398	7740
2066.465	7716
2068.529	7811
2070.592	7769
2072.657	7718
2074.719	7756
2076.783	7714
2078.845	7707
2080.907	7685
2082.968	7680
2085.028	7810
2087.087	7698
2089.148	7765
2091.207	7714
2093.264	7686
2095.322	7635
2097.379	7828
2099.439	7712
2101.495	7622
2103.55	7720
2105.605	7798
2107.658	7610
2109.713	7701
2111.767	7676
2113.82	7568
2115.872	7840
2117.924	7750
2119.975	7568
2122.028	7685
2124.078	7762
2126.126	7660
2128.176	7636
2130.225	7592
2132.275	7687
2134.321	7641
2136.368	7557
2138.415	7572
2140.461	7659
2142.505	7776
2144.552	7716
2146.597	7725
2148.64	7653
2150.684	7643
2152.725	7713
2154.77	7620
2156.811	7696
2158.852	7649
2160.894	7627
2162.933	7510
2164.973	7558
2167.013	7662
2169.051	7715
2171.089	7513
2173.126	7545
2175.164	7615
2177.201	7502
2179.236	7616
2181.273	7628
2183.307	7615
2185.341	7625
2187.377	7515
2189.41	7577
2191.442	7569
2193.473	7542
2195.506	7401
2197.539	7669
2199.569	7532
2201.598	7394
2203.628	7402
2205.656	7489
2207.686	7407
2209.716	7466
2211.743	7483
2213.769	7480
2215.796	7466
2217.821	7350
2219.848	7448
2221.873	7446
2223.897	7373
2225.921	7518
2227.944	7439
2229.967	7525
2231.991	7421
2234.011	7532
2236.032	7424
2238.053	7327
2240.073	7343
2242.094	7422
2244.114	7394
2246.131	7393
2248.149	7422
2250.167	7462
2252.186	7390
2254.201	7376
2256.218	7412
2258.233	7447
2260.247	7349
2262.262	7459
2264.278	7457
2266.29	7417
2268.303	7565
2270.315	7495
2272.327	7482
2274.341	7423
2276.35	7405
2278.361	7390
2280.37	7346
2282.38	7438
2284.388	7437
2286.397	7385
2288.405	7575
2290.412	7452
2292.419	7467
2294.425	7455
2296.431	7365
2298.437	7482
2300.441	7480
2302.445	7402
2304.449	7345
2306.453	7385
2308.455	7260
2310.457	7309
2312.459	7447
2314.46	7374
2316.46	7342
2318.461	7339
2320.46	7340
2322.458	7280
2324.458	7315
2326.456	7352
2328.455	7226
2330.451	7401
2332.447	7316
2334.443	7411
2336.438	7393
2338.433	7196
2340.429	7234
2342.422	7340
2344.416	7296
2346.408	7286
2348.399	7227
2350.393	7282
2352.384	7198
2354.375	7217
2356.365	7242
2358.355	7177
2360.344	7196
2362.333	7244
2364.322	7241
2366.309	7268
2368.295	7285
2370.282	7199
2372.27	7340
2374.256	6996
2376.24	7209
2378.225	7101
2380.208	7168
2382.194	7133
2384.177	7101
2386.159	7245
2388.142	7156
2390.122	7129
2392.105	7195
2394.085	7110
2396.066	7071
2398.044	7172
2400.024	7024
2402.002	7090
2403.982	7097
2405.959	7087
2407.935	7138
2409.913	7032
2411.888	7118
2413.865	7111
2415.84	7099
2417.814	7145
2419.788	7085
2421.762	7143
2423.735	7072
2425.708	7043
2427.68	7114
2429.651	7179
2431.623	7246
2433.593	7003
2435.564	7134
2437.533	7133
2439.502	7131
2441.47	7118
2443.438	7103
2445.406	7034
2447.373	6975
2449.34	7141
2451.305	7102
2453.271	7055
2455.235	7159
2457.201	7050
2459.165	7017
2461.129	7165
2463.092	7091
2465.054	7045
2467.018	7004
2468.978	7018
2470.939	6922
2472.899	6936
2474.86	7012
2476.819	7010
2478.778	7063
2480.737	6980
2482.695	6918
2484.653	6968
2486.609	6913
2488.567	7001
2490.524	6965
2492.478	6980
2494.433	6884
2496.387	6934
2498.343	7037
2500.297	7108
2502.249	6942
2504.202	6924
2506.153	7029
2508.105	6898
2510.057	7007
2512.008	6828
2513.957	6922
2515.906	6854
2517.855	6891
2519.805	6914
2521.754	6971
2523.7	6956
2525.647	6971
2527.594	6972
2529.54	6887
2531.486	6960
2533.431	6960
2535.376	6890
2537.32	6797
2539.263	6830
2541.207	6996
2543.151	6958
2545.093	6850
2547.034	7065
2548.975	7036
2550.917	6845
2552.856	6843
2554.796	6962
2556.735	6768
2558.673	6712
2560.611	6934
2562.55	6869
2564.487	6881
2566.424	6924
2568.36	6908
2570.296	6949
2572.232	6831
2574.167	6941
2576.101	6874
2578.035	6964
2579.969	6825
2581.902	6883
2583.834	6864
2585.766	7012
2587.698	6737
2589.628	6887
2591.557	6895
2593.489	6809
2595.419	6958
2597.348	6835
2599.275	6924
2601.204	6893
2603.131	6797
2605.059	6896
2606.986	6856
2608.911	6996
2610.837	6921
2612.76	7003
2614.687	7002
2616.61	6812
2618.534	6931
2620.457	6879
2622.38	6889
2624.302	6886
2626.225	6866
2628.145	6912
2630.067	6935
2631.986	6835
2633.906	6967
2635.827	6770
2637.745	6931
2639.662	6912
2641.581	6946
2643.498	6861
2645.415	7080
2647.331	6985
2649.248	6855
2651.163	6898
2653.077	6939
2654.993	6827
2656.906	6836
2658.821	6916
2660.733	6870
2662.646	6868
2664.557	6837
2666.47	6940
2668.381	6820
2670.291	6830
2672.201	6760
2674.11	6803
2676.021	6785
2677.929	6884
2679.837	6869
2681.745	6839
2683.652	6863
2685.56	6735
2687.466	6902
2689.371	6769
2691.276	6836
2693.181	6701
2695.085	6809
2696.991	6627
2698.893	6736
2700.796	6857
2702.698	6862
2704.601	6725
2706.502	6798
2708.404	6805
2710.304	6761
2712.203	6794
2714.103	6685
2716.003	6700
2717.902	6784
2719.8	6668
2721.697	6703
2723.594	6692
2725.49	6741
2727.389	6656
2729.283	6684
2731.179	6721
2733.073	6738
2734.968	6709
2736.863	6765
2738.757	6750
2740.649	6652
2742.541	6683
2744.433	6720
2746.324	6690
2748.216	6651
2750.107	6664
2751.997	6660
2753.886	6640
2755.776	6525
2757.666	6637
2759.553	6617
2761.44	6594
2763.327	6673
2765.215	6759
2767.102	6547
2768.988	6565
2770.873	6639
2772.757	6561
2774.641	6648
2776.525	6662
2778.41	6563
2780.292	6521
2782.175	6599
2784.057	6598
2785.938	6523
2787.821	6561
2789.701	6648
2791.581	6533
2793.461	6537
2795.34	6482
2797.219	6608
2799.099	6601
2800.975	6550
2802.853	6635
2804.73	6577
2806.606	6491
2808.484	6622
2810.358	6403
2812.233	6594
2814.108	6560
2815.981	6469
2817.857	6541
2819.73	6518
2821.602	6534
2823.474	6592
2825.346	6505
2827.217	6533
2829.089	6626
2830.959	6464
2832.829	6385
2834.698	6512
2836.567	6488
2838.436	6562
2840.305	6437
2842.172	6577
2844.04	6510
2845.905	6624
2847.772	6464
2849.639	6588
2851.503	6560
2853.369	6699
2855.232	6656
2857.096	6574
2858.961	6579
2860.824	6656
2862.686	6660
2864.547	6657
2866.41	6635
2868.272	6725
2870.132	6703
2871.992	6747
2873.851	6801
2875.711	6921
2877.57	7043
2879.429	6915
2881.287	6963
2883.144	7052
2885.001	6978
2886.857	6966
2888.714	6973
2890.57	6980
2892.425	7072
2894.279	7048
2896.133	7025
2897.987	7008
2899.842	7085
2901.694	7048
2903.547	6989
2905.397	6862
2907.249	7038
2909.101	6980
2910.952	7046
2912.802	7109
2914.652	6929
2916.5	7121
2918.35	7107
2920.198	7154
2922.045	7225
2923.893	7254
2925.74	7319
2927.585	7450
2929.433	7497
2931.279	7463
2933.123	7608
2934.968	7530
2936.811	7709
2938.656	7682
2940.5	7753
2942.342	7713
2944.185	7723
2946.026	7784
2947.87	7855
2949.71	7856
2951.549	7567
2953.39	7724
2955.229	7642
2957.069	7570
2958.908	7496
2960.746	7408
2962.584	7393
2964.421	7400
2966.257	7317
2968.094	7225
2969.931	7265
2971.766	7139
2973.601	7063
2975.435	7223
2977.27	7140
2979.105	6997
2980.938	7063
2982.77	7036
2984.602	7049
2986.434	6974
2988.267	6940
2990.097	6940
2991.927	6799
2993.757	6792
2995.587	6767
2997.417	6686
2999.246	6755
3001.074	6660
3002.902	6497
3004.729	6586
3006.556	6448
3008.384	6525
3010.21	6403
3012.036	6483
3013.861	6358
3015.684	6309
3017.51	6329
3019.334	6277
3021.157	6157
3022.981	6202
3024.802	6145
3026.624	6312
3028.448	6286
3030.267	6119
3032.088	6144
3033.909	6085
3035.728	6078
3037.549	6088
3039.368	6124
3041.186	6145
3043.004	6182
3044.821	5995
3046.64	6110
3048.455	6090
3050.272	6172
3052.087	6087
3053.903	6007
3055.717	5972
3057.534	6076
3059.347	6082
3061.16	5967
3062.974	6059
3064.785	6092
3066.598	6066
3068.411	6044
3070.222	6088
3072.032	6032
3073.844	5988
3075.653	6069
3077.463	5965
3079.272	5984
3081.08	5894
3082.889	5819
3084.697	5952
3086.505	5985
3088.312	6017
3090.118	5896
3091.924	5890
3093.729	5944
3095.535	5973
3097.34	5908
3099.144	5845
3100.947	5826
3102.75	5840
3104.553	5805
3106.357	5773
3108.159	5838
3109.961	5840
3111.762	5814
3113.562	5796
3115.365	5689
3117.164	5681
3118.964	5720
3120.761	5839
3122.56	5823
3124.36	5751
3126.158	5764
3127.954	5790
3129.75	5719
3131.547	5744
3133.343	5689
3135.139	5633
3136.934	5749
3138.729	5769
3140.522	5585
3142.317	5754
3144.11	5697
3145.904	5784
3147.695	5603
3149.488	5651
3151.28	5747
3153.07	5677
3154.863	5674
3156.652	5643
3158.441	5661
3160.231	5664
3162.019	5729
3163.81	5693
3165.597	5599
3167.384	5550
3169.172	5612
3170.958	5598
3172.745	5704
3174.532	5587
3176.317	5651
3178.101	5634
3179.885	5623
3181.67	5596
3183.455	5566
3185.238	5670
3187.02	5675
3188.802	5581
3190.585	5638
3192.368	5561
3194.149	5629
3195.929	5542
3197.709	5563
3199.489	5564
3201.268	5510
3203.048	5568
3204.826	5674
3206.604	5435
3208.382	5566
3210.159	5511
3211.937	5638
3213.713	5566
3215.489	5527
3217.263	5645
3219.038	5419
3220.815	5544
3222.589	5589
3224.363	5575
3226.136	5522
3227.908	5440
3229.681	5561
3231.454	5474
3233.226	5541
3234.996	5548
3236.767	5633
3238.538	5562
3240.308	5515
3242.078	5610
3243.847	5570
3245.615	5543
3247.384	5418
3249.15	5597
3250.92	5551
3252.686	5509
3254.453	5524
3256.218	5546
3257.984	5477
3259.75	5429
3261.515	5481
3263.279	5453
3265.044	5455
3266.806	5464
3268.57	5530
3270.334	5545
3272.095	5536
3273.856	5519
3275.619	5433
3277.379	5547
3279.14	5431
3280.9	5491
3282.661	5469
3284.419	5480
3286.178	5480
3287.937	5604
3289.695	5505
3291.453	5455
3293.21	5557
3294.967	5553
3296.723	5542
3298.48	5499
3300.235	5501
3301.99	5441
3303.744	5521
3305.498	5481
3307.253	5597
3309.006	5585
3310.759	5498
3312.511	5504
3314.263	5544
3316.017	5531
3317.768	5554
3319.519	5485
3321.268	5462
3323.018	5486
3324.767	5482
3326.518	5505
3328.267	5437
3330.014	5400
3331.762	5487
3333.509	5414
3335.258	5498
3337.003	5506
3338.75	5547
3340.496	5511
3342.24	5393
3343.987	5335
3345.732	5493
3347.475	5518
3349.219	5374
3350.961	5410
3352.705	5446
3354.448	5392
3356.19	5441
3357.931	5444
3359.672	5408
3361.412	5443
3363.155	5310
3364.894	5352
3366.633	5318
3368.372	5327
3370.11	5355
3371.849	5331
3373.588	5356
3375.325	5317
3377.061	5271
3378.799	5240
3380.534	5384
3382.271	5289
3384.006	5216
3385.741	5240
3387.475	5298
3389.209	5247
3390.944	5304
3392.677	5338
3394.409	5247
3396.143	5354
3397.874	5275
3399.606	5228
3401.338	5299
3403.069	5275
3404.799	5286
3406.528	5218
3408.258	5203
3409.988	5230
3411.717	5166
3413.445	5231
3415.173	5235
3416.899	5156
3418.626	5269
3420.354	5271
3422.08	5278
3423.806	5273
3425.531	5024
3427.255	5094
3428.981	5203
3430.705	5210
3432.429	5125
3434.151	5192
3435.875	5236
3437.599	5174
3439.321	5104
3441.042	5101
3442.763	5180
3444.483	5014
3446.204	5124
3447.926	5109
3449.645	5095
3451.364	5063
3453.082	5110
3454.801	5031
3456.52	5064
3458.238	4988
3459.954	4973
3461.671	5004
3463.387	5111
3465.104	5059
3466.82	4936
3468.534	5038
3470.25	5013
3471.963	4964
3473.676	5018
3475.392	5059
3477.104	4967
3478.817	5016
3480.528	5008
3482.241	4861
3483.954	4917
3485.664	4929
3487.374	4899
3489.084	4977
3490.795	4938
3492.504	4894
3494.214	4917
3495.922	5013
3497.63	4899
3499.338	4878
3501.045	4889
3502.753	4925
3504.459	4848
3506.166	4824
3507.871	4881
3509.576	4802
3511.283	4955
3512.987	4826
3514.691	4782
3516.395	4777
3518.098	4820
3519.8	4873
3521.504	4817
3523.206	4849
3524.908	4791
3526.609	4839
3528.309	4863
3530.011	4720
3531.711	4835
3533.411	4840
3535.109	4683
3536.808	4762
3538.507	4812
3540.206	4793
3541.904	4711
3543.601	4695
3545.297	4756
3546.994	4818
3548.69	4737
3550.387	4723
3552.081	4677
3553.776	4669
3555.47	4640
3557.166	4753
3558.859	4707
3560.553	4672
3562.245	4729
3563.938	4685
3565.629	4625
3567.322	4718
3569.014	4649
3570.704	4697
3572.394	4723
3574.084	4652
3575.775	4615
3577.464	4618
3579.152	4587
3580.842	4554
3582.529	4675
3584.216	4658
3585.905	4626
3587.591	4612
3589.279	4683
3590.964	4567
3592.649	4564
3594.336	4498
3596.021	4518
3597.705	4497
3599.388	4553
3601.072	4500
3602.757	4448
3604.439	4449
3606.122	4567
3607.803	4509
3609.485	4574
3611.167	4505
3612.849	4464
3614.529	4540
3616.208	4447
3617.888	4443
3619.567	4442
3621.247	4400
3622.926	4499
3624.603	4443
3626.281	4463
3627.958	4422
3629.635	4431
3631.312	4411
3632.989	4373
3634.665	4453
3636.339	4374
3638.014	4349
3639.691	4401
3641.364	4378
3643.038	4327
3644.71	4391
3646.384	4389
3648.058	4361
3649.729	4350
3651.402	4287
3653.073	4371
3654.744	4336
3656.414	4267
3658.085	4487
3659.755	4247
3661.424	4275
3663.094	4312
3664.762	4216
3666.431	4228
3668.099	4369
3669.766	4151
3671.433	4263
3673.099	4276
3674.768	4288
3676.433	4265
3678.098	4316
3679.763	4278
3681.428	4299
3683.093	4216
3684.757	4324
3686.421	4256
3688.083	4198
3689.746	4257
3691.408	4315
3693.071	4208
3694.733	4156
3696.394	4168
3698.054	4248
3699.715	4191
3701.375	4340
3703.036	4180
3704.695	4231
3706.354	4182
3708.012	4159
3709.67	4253
3711.329	4143
3712.987	4211
3714.644	4262
3716.299	4220
3717.955	4193
3719.613	4121
3721.268	4189
3722.923	4092
3724.577	4178
3726.231	4161
3727.885	4212
3729.539	4112
3731.192	4224
3732.845	4195
3734.497	4182
3736.149	4145
3737.802	4156
3739.453	4129
3741.104	4183
3742.753	4050
3744.404	4110
3746.052	4166
3747.704	3997
3749.352	4168
3751	4128
3752.648	4167
3754.296	4027
3755.944	4069
3757.59	4081
3759.238	4095
3760.883	4182
3762.528	4100
3764.176	4069
3765.82	4097
3767.464	4042
3769.109	3975
3770.753	3990
3772.396	4028
3774.04	3976
3775.683	4124
3777.325	4047
3778.967	3988
3780.608	3951
3782.25	4001
3783.89	4048
3785.531	4014
3787.17	3987
3788.81	3991
3790.45	3953
3792.09	4009
3793.729	4011
3795.366	3995
3797.003	3892
3798.64	4007
3800.278	4029
3801.915	3965
3803.551	3952
3805.187	4037
3806.822	3988
3808.458	4002
3810.093	3941
3811.726	3896
3813.36	3934
3814.994	4023
3816.627	3920
3818.262	3939
3819.893	3965
3821.525	3931
3823.157	3883
3824.787	3889
3826.42	3857
3828.051	3934
3829.68	3880
3831.31	3942
3832.938	3888
3834.569	3875
3836.198	3879
3837.825	3888
3839.454	3870
3841.08	3864
3842.708	3858
3844.335	3793
3845.962	3922
3847.587	3848
3849.212	3812
3850.838	3832
3852.463	3852
3854.089	3876
3855.712	3889
3857.335	3785
3858.959	3712
3860.582	3791
3862.205	3802
3863.827	3690
3865.449	3863
3867.07	3749
3868.691	3753
3870.312	3731
3871.933	3865
3873.553	3864
3875.173	3676
3876.792	3831
3878.411	3780
3880.03	3865
3881.647	3787
3883.265	3796
3884.882	3797
3886.499	3811
3888.116	3726
3889.732	3753
3891.348	3860
3892.964	3778
3894.579	3744
3896.195	3803
3897.809	3753
3899.423	3775
3901.036	3712
3902.648	3726
3904.261	3700
3905.875	3673
3907.487	3770
3909.099	3735
3910.709	3741
3912.321	3700
3913.933	3703
3915.542	3736
3917.152	3697
3918.762	3777
3920.37	3721
3921.98	3723
3923.589	3695
3925.196	3659
3926.804	3663
3928.41	3730
3930.018	3696
3931.626	3758
3933.231	3714
3934.838	3759
3936.442	3733
3938.046	3668
3939.653	3624
3941.257	3622
3942.861	3626
3944.464	3676
3946.068	3680
3947.67	3733
3949.273	3662
3950.876	3707
3952.477	3642
3954.078	3651
3955.678	3640
3957.281	3676
3958.881	3587
3960.48	3647
3962.079	3663
3963.678	3636
3965.279	3687
3966.877	3562
3968.475	3609
3970.072	3579
3971.669	3572
3973.266	3586
3974.864	3601
3976.459	3608
3978.055	3629
3979.65	3604
3981.245	3479
3982.841	3549
3984.436	3606
3986.03	3624
3987.623	3567
3989.216	3572
3990.809	3569
3992.403	3486
3993.995	3489
3995.586	3570
3997.177	3546
3998.768	3445
4000.361	3518
4001.951	3556
4003.54	3505
4005.13	3478
4006.719	3504
4008.31	3486
4009.897	3466
4011.485	3451
4013.073	3492
4014.66	3512
4016.247	3462
4017.834	3455
4019.421	3484
4021.006	3440
4022.592	3466
4024.178	3453
4025.763	3505
4027.348	3398
4028.932	3479
4030.515	3393
4032.099	3457
4033.682	3418
4035.266	3408
4036.847	3403
4038.429	3474
4040.011	3432
4041.592	3425
4043.173	3380
4044.755	3375
4046.334	3387
4047.913	3485
4049.494	3387
4051.074	3301
4052.652	3343
4054.23	3373
4055.807	3349
4057.385	3299
4058.963	3333
4060.541	3339
4062.117	3332
4063.693	3308
4065.269	3278
4066.844	3406
4068.42	3301
4069.995	3273
4071.569	3307
4073.143	3387
4074.716	3268
4076.291	3340
4077.864	3250
4079.436	3340
4081.009	3317
4082.58	3259
4084.152	3315
4085.723	3348
4087.294	3244
4088.865	3300
4090.435	3316
4092.005	3275
4093.574	3280
4095.143	3218
4096.712	3294
4098.279	3277
4099.848	3282
4101.416	3299
4102.984	3309
4104.55	3349
4106.117	3225
4107.682	3266
4109.248	3267
4110.815	3251
4112.379	3303
4113.945	3296
4115.508	3306
4117.073	3258
4118.637	3276
4120.201	3206
4121.763	3336
4123.325	3207
4124.888	3177
4126.449	3189
4128.013	3208
4129.573	3185
4131.133	3236
4132.694	3189
4134.254	3215
4135.814	3189
4137.374	3150
4138.933	3141
4140.491	3189
4142.049	3161
4143.607	3193
4145.167	3188
4146.724	3110
4148.28	3164
4149.836	3130
4151.392	3155
4152.949	3166
4154.504	3087
4156.059	3147
4157.614	3148
4159.168	3069
4160.723	3174
4162.277	3133
4163.83	3147
4165.383	3047
4166.936	3143
4168.488	3156
4170.041	3092
4171.593	3115
4173.144	3064
4174.695	3141
4176.246	2976
4177.796	3157
4179.346	3098
4180.896	2992
4182.445	3085
4183.994	3075
4185.542	3069
4187.091	3078
4188.639	3078
4190.185	3008
4191.732	3065
4193.279	3008
4194.826	3007
4196.373	3016
4197.918	3051
4199.463	3089
4201.008	2978
4202.553	2996
4204.098	3046
4205.641	3025
4207.185	2968
4208.728	3015
4210.271	3015
4211.814	3059
4213.357	3027
4214.898	2947
4216.439	3003
4217.98	3031
4219.522	3029
4221.062	3011
4222.603	3011
4224.142	2943
4225.681	2962
4227.222	3023
4228.76	2939
4230.298	2963
4231.835	2941
4233.373	2914
4234.911	2957
4236.449	3029
4237.985	2912
4239.521	2972
4241.057	2925
4242.592	2912
4244.128	2913
4245.663	2898
4247.197	2897
4248.731	2971
4250.265	2954
4251.798	2973
4253.333	2966
4254.865	2904
4256.397	2949
4257.93	2954
4259.461	2898
4260.994	2861
4262.525	2979
4264.056	2898
4265.586	2862
4267.115	2900
4268.646	2928
4270.176	2943
4271.705	2892
4273.232	2964
4274.761	2856
4276.289	2887
4277.818	2863
4279.345	2843
4280.872	2813
4282.399	2807
4283.924	2883
4285.452	2884
4286.976	2886
4288.502	2880
4290.026	2894
4291.551	2897
4293.074	2871
4294.6	2810
4296.123	2885
4297.646	2823
4299.168	2852
4300.691	2841
4302.214	2828
4303.736	2810
4305.257	2795
4306.778	2853
4308.299	2800
4309.82	2894
4311.34	2871
4312.86	2837
4314.379	2886
