400.0745	4065
402.597	4100
405.1208	4138
407.6419	4058
410.1623	4123
412.6819	4078
415.201	4194
417.7172	4280
420.2369	4297
422.7538	4280
425.2701	4304
427.7856	4279
430.3005	4490
432.8147	4368
435.3282	4448
437.841	4383
440.3511	4467
442.8625	4420
445.3753	4271
447.8854	4442
450.3927	4413
452.9014	4385
455.4073	4381
457.9146	4370
460.4233	4298
462.9272	4332
465.4325	4283
467.935	4480
470.4389	4375
472.9421	4239
475.4446	4309
477.9444	4329
480.4456	4246
482.944	4350
485.4417	4488
487.9429	4381
490.4393	4438
492.935	4352
495.4321	4394
497.9264	4466
500.4221	4364
502.9171	4441
505.4094	4460
507.9011	4595
510.392	4513
512.8864	4447
515.3759	4418
517.8649	4473
520.3531	4429
522.8406	4519
525.3275	4429
527.8178	4503
530.3033	4458
532.7881	4535
535.2723	4550
537.7558	4522
540.2407	4479
542.7228	4517
545.2043	4502
547.6851	4567
550.1652	4592
552.6467	4628
555.1255	4538
557.6016	4607
560.079	4460
562.5557	4626
565.0318	4586
567.5092	4628
569.984	4654
572.456	4654
574.9294	4709
577.4022	4639
579.8762	4696
582.3456	4771
584.8163	4703
587.2863	4694
589.7557	4790
592.2224	4720
594.6924	4810
597.1578	4783
599.6245	4737
602.0905	4704
604.5538	4749
607.0206	4700
609.4825	4702
611.9459	4708
614.4066	4718
616.8686	4683
619.33	4700
621.7906	4668
624.2487	4692
626.708	4574
629.1647	4636
631.6207	4645
634.0801	4615
636.5348	4596
638.9888	4626
641.4442	4725
643.8969	4689
646.3509	4605
648.8022	4621
651.255	4602
653.705	4719
656.1544	4743
658.6031	4719
661.0532	4670
663.5026	4745
665.9493	4735
668.3954	4699
670.8409	4695
673.2877	4809
675.7318	4748
678.1752	4765
680.618	4783
683.0601	4786
685.5035	4784
687.9444	4701
690.3845	4798
692.824	4851
695.2628	4822
697.701	4851
700.1406	4757
702.5774	4801
705.0116	4887
707.4472	4828
709.8821	4842
712.3183	4877
714.7519	4869
717.1829	4967
719.6151	4983
722.0468	5021
724.4777	4899
726.908	4969
729.3377	5007
731.7667	4979
734.1931	5015
736.6208	4940
739.0498	5019
741.4742	5048
743.9	4969
746.3231	5093
748.7476	5102
751.1713	5092
753.5945	5150
756.015	5134
758.4368	5163
760.856	5134
763.2766	5074
765.6965	5134
768.1157	5066
770.5323	5119
772.9483	5200
775.3656	5143
777.7822	5177
780.1963	5165
782.6116	5238
785.0244	5140
787.4365	5181
789.8499	5239
792.2626	5086
794.6728	5269
797.0823	5169
799.4911	5207
801.8994	5170
804.3109	5240
806.7178	5223
809.124	5215
811.5297	5190
813.9347	5298
816.341	5348
818.7447	5191
821.1478	5273
823.5502	5217
825.952	5132
828.3531	5213
830.7556	5258
833.1554	5251
835.5546	5292
837.9532	5378
840.3511	5260
842.7504	5299
845.1451	5299
847.5411	5314
849.9365	5398
852.3312	5420
854.7272	5417
857.1187	5483
859.5115	5472
861.9037	5396
864.2952	5343
866.6842	5444
869.0764	5428
871.4661	5353
873.8531	5344
876.2415	5454
878.6272	5443
881.0162	5442
883.4026	5504
885.7866	5424
888.1717	5407
890.5543	5325
892.9382	5371
895.3215	5409
897.7041	5372
900.0842	5345
902.4655	5357
904.8443	5425
907.2244	5485
909.6039	5501
911.9808	5485
914.357	5539
916.7346	5630
919.1115	5656
921.4859	5752
923.8616	5785
926.2347	5694
928.6071	5827
930.979	5773
933.3541	5633
935.7247	5840
938.0946	5705
940.4639	5863
942.8326	5929
945.2026	5983
947.5701	6266
949.9369	6242
952.305	6610
954.6705	6765
957.0355	7111
959.4017	7401
961.7654	7541
964.1284	7614
966.4908	7103
968.8527	6982
971.2138	6622
973.5743	6272
975.9343	5984
978.2936	5932
980.6522	5743
983.0122	5636
985.3696	5690
987.7245	5476
990.0807	5476
992.4362	5453
994.7911	5490
997.1474	5525
999.4991	5633
1001.852	5673
1004.205	5594
1006.555	5549
1008.908	5742
1011.258	5579
1013.606	5628
1015.956	5625
1018.302	5562
1020.652	5633
1022.998	5655
1025.345	5632
1027.691	5619
1030.035	5740
1032.378	5764
1034.724	5765
1037.066	5705
1039.409	5647
1041.75	5652
1044.092	5558
1046.433	5669
1048.771	5698
1051.112	5592
1053.449	5666
1055.786	5721
1058.124	5673
1060.462	5785
1062.797	5797
1065.131	5832
1067.467	5760
1069.8	5924
1072.135	5886
1074.467	5856
1076.798	5767
1079.129	5993
1081.459	5796
1083.792	5813
1086.121	5728
1088.449	5712
1090.777	5657
1093.104	5782
1095.431	5692
1097.759	5678
1100.084	5693
1102.408	5650
1104.732	5624
1107.056	5715
1109.379	5832
1111.701	5646
1114.022	5690
1116.343	5787
1118.664	5706
1120.983	5646
1123.303	5672
1125.621	5630
1127.939	5880
1130.256	5618
1132.573	5693
1134.889	5682
1137.205	5700
1139.52	5741
1141.832	5635
1144.146	5601
1146.461	5639
1148.771	5634
1151.083	5575
1153.392	5652
1155.703	5695
1158.011	5588
1160.323	5655
1162.629	5742
1164.938	5699
1167.243	5740
1169.55	5640
1171.857	5656
1174.163	5722
1176.466	5676
1178.769	5671
1181.073	5586
1183.374	5605
1185.677	5641
1187.979	5706
1190.279	5635
1192.578	5667
1194.878	5700
1197.178	5594
1199.476	5713
1201.772	5695
1204.068	5677
1206.366	5645
1208.663	5671
1210.957	5744
1213.251	5629
1215.544	5678
1217.836	5618
1220.128	5735
1222.421	5686
1224.712	5746
1227.002	5830
1229.292	5778
1231.581	5868
1233.871	5828
1236.159	5871
1238.446	5857
1240.732	5944
1243.018	5984
1245.304	5920
1247.59	5941
1249.874	5959
1252.156	6032
1254.439	5973
1256.721	6029
1259.005	5979
1261.286	5968
1263.565	6108
1265.845	5942
1268.125	5925
1270.403	6046
1272.682	5943
1274.959	5990
1277.234	6000
1279.511	5886
1281.787	5862
1284.062	5862
1286.337	5994
1288.609	5797
1290.882	5918
1293.153	5701
1295.428	5738
1297.698	5837
1299.969	5859
1302.237	5826
1304.507	5732
1306.777	5804
1309.044	5688
1311.312	5837
1313.578	5782
1315.844	5892
1318.109	5753
1320.375	5856
1322.638	5853
1324.903	5822
1327.165	5803
1329.427	5907
1331.69	5913
1333.952	5780
1336.212	5851
1338.471	5850
1340.73	5798
1342.988	5791
1345.248	5828
1347.505	5874
1349.763	5799
1352.019	5743
1354.274	5732
1356.53	5814
1358.784	5766
1361.038	5817
1363.291	5741
1365.543	5737
1367.797	5797
1370.048	5828
1372.296	5882
1374.546	5823
1376.796	5988
1379.045	5894
1381.295	5872
1383.542	5934
1385.787	5930
1388.034	5966
1390.28	5964
1392.527	5931
1394.772	5974
1397.014	6068
1399.258	6010
1401.501	5938
1403.741	6003
1405.985	6004
1408.226	5925
1410.465	6028
1412.705	5944
1414.943	6001
1417.184	5955
1419.42	6054
1421.658	6012
1423.894	5979
1426.13	6010
1428.366	5979
1430.602	5982
1432.835	6083
1435.069	6036
1437.301	6112
1439.535	6239
1441.767	6200
1443.997	6202
1446.229	6157
1448.458	6215
1450.687	6137
1452.916	6238
1455.146	6220
1457.372	6146
1459.599	6329
1461.824	6264
1464.051	6063
1466.277	6131
1468.501	6237
1470.725	6104
1472.948	6115
1475.17	6023
1477.393	5999
1479.614	5960
1481.837	5932
1484.057	5857
1486.276	5835
1488.497	5823
1490.715	5843
1492.932	5719
1495.148	5923
1497.364	5754
1499.58	5809
1501.798	5796
1504.012	5792
1506.227	5794
1508.44	5790
1510.653	5710
1512.866	5688
1515.078	5721
1517.289	5819
1519.5	5697
1521.711	5668
1523.92	5748
1526.13	5696
1528.338	5708
1530.544	5694
1532.752	5726
1534.959	5793
1537.165	5807
1539.371	5866
1541.574	5700
1543.779	5795
1545.983	5765
1548.187	5844
1550.39	5758
1552.59	5857
1554.792	6019
1556.991	5848
1559.19	5766
1561.392	5880
1563.59	5891
1565.789	5876
1567.986	5907
1570.182	5925
1572.381	5763
1574.576	5894
1576.771	5949
1578.966	5877
1581.16	5852
1583.354	5856
1585.546	5890
1587.74	5940
1589.931	5948
1592.121	5847
1594.311	5997
1596.502	5911
1598.693	5934
1600.881	5933
1603.069	5956
1605.256	6080
1607.445	5988
1609.631	6121
1611.816	5967
1614.001	6040
1616.186	5979
1618.37	6015
1620.555	5957
1622.737	6011
1624.919	6097
1627.101	6018
1629.282	6138
1631.463	6086
1633.643	6046
1635.822	6127
1638.001	6083
1640.179	6050
1642.359	6114
1644.534	6144
1646.711	6055
1648.887	6061
1651.062	6068
1653.235	6078
1655.412	6052
1657.586	6083
1659.757	6132
1661.93	6157
1664.1	6212
1666.274	6133
1668.445	6271
1670.614	6287
1672.784	6171
1674.951	6115
1677.12	6003
1679.289	6303
1681.457	6048
1683.622	6158
1685.789	6128
1687.953	6098
1690.121	6012
1692.284	6076
1694.447	6113
1696.611	6102
1698.772	6108
1700.935	5995
1703.098	5962
1705.258	5956
1707.417	5865
1709.576	5950
1711.736	5845
1713.896	5935
1716.053	5964
1718.21	5784
1720.366	5863
1722.522	5864
1724.68	5845
1726.835	5915
1728.989	5820
1731.142	5819
1733.295	5839
1735.449	5925
1737.601	5896
1739.753	5865
1741.903	5903
1744.054	5877
1746.203	5949
1748.354	5836
1750.503	5865
1752.651	5855
1754.798	5914
1756.944	5909
1759.092	5851
1761.238	5934
1763.383	5898
1765.528	5933
1767.672	5907
1769.814	5852
1771.959	5913
1774.102	5864
1776.242	5868
1778.384	5832
1780.525	5934
1782.665	5914
1784.805	5831
1786.945	5957
1789.082	5989
1791.22	6069
1793.36	5934
1795.495	6023
1797.632	6000
1799.766	5979
1801.902	6024
1804.035	5871
1806.172	5893
1808.304	5898
1810.436	5888
1812.569	5897
1814.699	6007
1816.833	5941
1818.963	6020
1821.092	5846
1823.222	5883
1825.35	6006
1827.478	5947
1829.608	5898
1831.734	5916
1833.86	5949
1835.986	5923
1838.11	5925
1840.238	5864
1842.362	5880
1844.485	5822
1846.608	5914
1848.73	5877
1850.853	5831
1852.974	5850
1855.097	5851
1857.217	5877
1859.336	5960
1861.455	5803
1863.576	5803
1865.693	5930
1867.811	5744
1869.926	5875
1872.042	5953
1874.16	5862
1876.275	5858
1878.39	5809
1880.504	5894
1882.618	5920
1884.731	5839
1886.843	5944
1888.956	5941
1891.067	5806
1893.178	5824
1895.287	5865
1897.399	5890
1899.508	5846
1901.617	5887
1903.724	5897
1905.832	5832
1907.941	5963
1910.046	5998
1912.152	5842
1914.256	5988
1916.361	5891
1918.464	5872
1920.57	5886
1922.672	5887
1924.775	5983
1926.876	5951
1928.978	5949
1931.08	5870
1933.181	6010
1935.28	5973
1937.38	5907
1939.478	5935
1941.577	5954
1943.675	6075
1945.771	5868
1947.867	6026
1949.964	5890
1952.058	5860
1954.154	5898
1956.248	5996
1958.343	5913
1960.435	5976
1962.527	6020
1964.62	5948
1966.711	5948
1968.802	5942
1970.892	5912
1972.983	5994
1975.072	5886
1977.162	5927
1979.25	5904
1981.337	5900
1983.424	5812
1985.51	5843
1987.598	5995
1989.683	5942
1991.768	5846
1993.852	5909
1995.934	5966
1998.019	5846
2000.102	5977
2002.184	5976
2004.266	5867
2006.347	5945
2008.427	5792
2010.508	6007
2012.587	5988
2014.666	5831
2016.745	5919
2018.821	5853
2020.9	5783
2022.977	5866
2025.052	5937
2027.128	5925
2029.204	5862
2031.277	5728
2033.353	5812
2035.425	5873
2037.499	5854
2039.57	5975
2041.642	5889
2043.714	5906
2045.786	5841
2047.855	5849
2049.925	5939
2051.993	5820
2054.064	5870
2056.132	5984
2058.2	5993
2060.266	5914
2062.332	5963
2064.398	5937
2066.465	5753
2068.529	5869
2070.592	5918
2072.657	5894
2074.719	5860
2076.783	5870
2078.845	5900
2080.907	5860
2082.968	5891
2085.028	5849
2087.087	5816
2089.148	5774
2091.207	5892
2093.264	5872
2095.322	5904
2097.379	5881
2099.439	5819
2101.495	5844
2103.55	5917
2105.605	5807
2107.658	5802
2109.713	5876
2111.767	5938
2113.82	5915
2115.872	5817
2117.924	5841
2119.975	5872
2122.028	5864
2124.078	5907
2126.126	5956
2128.176	5950
2130.225	5846
2132.275	5809
2134.321	5897
2136.368	5848
2138.415	5904
2140.461	5879
2142.505	5983
2144.552	5892
2146.597	5828
2148.64	5874
2150.684	5779
2152.725	5884
2154.77	5878
2156.811	5852
2158.852	5839
2160.894	5924
2162.933	5927
2164.973	5813
2167.013	5903
2169.051	5734
2171.089	5780
2173.126	5878
2175.164	5809
2177.201	5882
2179.236	5789
2181.273	5766
2183.307	5792
2185.341	5841
2187.377	5756
2189.41	5829
2191.442	5883
2193.473	5845
2195.506	5693
2197.539	5701
2199.569	5762
2201.598	5679
2203.628	5734
2205.656	5717
2207.686	5681
2209.716	5785
2211.743	5699
2213.769	5762
2215.796	5675
2217.821	5647
2219.848	5772
2221.873	5694
2223.897	5634
2225.921	5754
2227.944	5733
2229.967	5730
2231.991	5678
2234.011	5655
2236.032	5699
2238.053	5718
2240.073	5677
2242.094	5700
2244.114	5721
2246.131	5650
2248.149	5653
2250.167	5715
2252.186	5771
2254.201	5675
2256.218	5742
2258.233	5602
2260.247	5704
2262.262	5703
2264.278	5650
2266.29	5673
2268.303	5728
2270.315	5771
2272.327	5710
2274.341	5721
2276.35	5766
2278.361	5669
2280.37	5691
2282.38	5708
2284.388	5761
2286.397	5642
2288.405	5683
2290.412	5645
2292.419	5626
2294.425	5727
2296.431	5612
2298.437	5589
2300.441	5719
2302.445	5724
2304.449	5615
2306.453	5756
2308.455	5731
2310.457	5700
2312.459	5688
2314.46	5753
2316.46	5649
2318.461	5608
2320.46	5731
2322.458	5673
2324.458	5715
2326.456	5607
2328.455	5593
2330.451	5604
2332.447	5708
2334.443	5638
2336.438	5678
2338.433	5670
2340.429	5524
2342.422	5588
2344.416	5662
2346.408	5703
2348.399	5658
2350.393	5570
2352.384	5608
2354.375	5688
2356.365	5543
2358.355	5600
2360.344	5462
2362.333	5637
2364.322	5544
2366.309	5510
2368.295	5575
2370.282	5549
2372.27	5498
2374.256	5527
2376.24	5629
2378.225	5555
2380.208	5655
2382.194	5464
2384.177	5467
2386.159	5550
2388.142	5412
2390.122	5505
2392.105	5507
2394.085	5524
2396.066	5497
2398.044	5531
2400.024	5482
2402.002	5408
2403.982	5462
2405.959	5506
2407.935	5498
2409.913	5534
2411.888	5530
2413.865	5459
2415.84	5548
2417.814	5530
2419.788	5545
2421.762	5578
2423.735	5461
2425.708	5456
2427.68	5556
2429.651	5534
2431.623	5416
2433.593	5502
2435.564	5389
2437.533	5545
2439.502	5451
2441.47	5483
2443.438	5560
2445.406	5543
2447.373	5452
2449.34	5508
2451.305	5382
2453.271	5460
2455.235	5404
2457.201	5557
2459.165	5440
2461.129	5418
2463.092	5483
2465.054	5365
2467.018	5372
2468.978	5439
2470.939	5425
2472.899	5366
2474.86	5442
2476.819	5421
2478.778	5499
2480.737	5366
2482.695	5426
2484.653	5482
2486.609	5403
2488.567	5338
2490.524	5417
2492.478	5354
2494.433	5476
2496.387	5420
2498.343	5361
2500.297	5341
2502.249	5394
2504.202	5464
2506.153	5461
2508.105	5434
2510.057	5370
2512.008	5448
2513.957	5304
2515.906	5366
2517.855	5322
2519.805	5350
2521.754	5375
2523.7	5339
2525.647	5394
2527.594	5379
2529.54	5399
2531.486	5424
2533.431	5386
2535.376	5291
2537.32	5277
2539.263	5216
2541.207	5362
2543.151	5332
2545.093	5287
2547.034	5351
2548.975	5392
2550.917	5278
2552.856	5277
2554.796	5269
2556.735	5305
2558.673	5365
2560.611	5383
2562.55	5336
2564.487	5408
2566.424	5430
2568.36	5439
2570.296	5335
2572.232	5288
2574.167	5312
2576.101	5384
2578.035	5351
2579.969	5327
2581.902	5356
2583.834	5438
2585.766	5408
2587.698	5397
2589.628	5341
2591.557	5302
2593.489	5378
2595.419	5369
2597.348	5314
2599.275	5430
2601.204	5448
2603.131	5201
2605.059	5336
2606.986	5498
2608.911	5292
2610.837	5355
2612.76	5371
2614.687	5373
2616.61	5365
2618.534	5386
2620.457	5367
2622.38	5371
2624.302	5397
2626.225	5377
2628.145	5393
2630.067	5384
2631.986	5342
2633.906	5352
2635.827	5435
2637.745	5349
2639.662	5266
2641.581	5327
2643.498	5371
2645.415	5339
2647.331	5339
2649.248	5418
2651.163	5313
2653.077	5299
2654.993	5433
2656.906	5345
2658.821	5314
2660.733	5316
2662.646	5302
2664.557	5341
2666.47	5332
2668.381	5275
2670.291	5384
2672.201	5309
2674.11	5273
2676.021	5280
2677.929	5328
2679.837	5414
2681.745	5257
2683.652	5368
2685.56	5377
2687.466	5239
2689.371	5288
2691.276	5301
2693.181	5319
2695.085	5306
2696.991	5366
2698.893	5334
2700.796	5255
2702.698	5171
2704.601	5295
2706.502	5224
2708.404	5242
2710.304	5217
2712.203	5324
2714.103	5292
2716.003	5255
2717.902	5285
2719.8	5341
2721.697	5261
2723.594	5227
2725.49	5241
2727.389	5171
2729.283	5185
2731.179	5188
2733.073	5463
2734.968	5271
2736.863	5222
2738.757	5307
2740.649	5216
2742.541	5227
2744.433	5214
2746.324	5306
2748.216	5230
2750.107	5293
2751.997	5181
2753.886	5180
2755.776	5308
2757.666	5185
2759.553	5215
2761.44	5216
2763.327	5289
2765.215	5210
2767.102	5183
2768.988	5204
2770.873	5171
2772.757	5165
2774.641	5215
2776.525	5254
2778.41	5170
2780.292	5179
2782.175	5189
2784.057	5167
2785.938	5122
2787.821	5242
2789.701	5142
2791.581	5244
2793.461	5095
2795.34	5083
2797.219	5215
2799.099	5210
2800.975	5167
2802.853	5188
2804.73	5082
2806.606	5199
2808.484	5111
2810.358	5135
2812.233	5071
2814.108	5111
2815.981	5168
2817.857	5159
2819.73	5283
2821.602	5134
2823.474	5157
2825.346	5098
2827.217	5184
2829.089	5157
2830.959	5120
2832.829	5213
2834.698	5140
2836.567	5221
2838.436	5180
2840.305	5164
2842.172	5231
2844.04	5278
2845.905	5312
2847.772	5214
2849.639	5266
2851.503	5301
2853.369	5243
2855.232	5302
2857.096	5278
2858.961	5322
2860.824	5308
2862.686	5344
2864.547	5441
2866.41	5492
2868.272	5581
2870.132	5633
2871.992	5697
2873.851	5702
2875.711	5656
2877.57	5798
2879.429	5896
2881.287	5932
2883.144	5873
2885.001	5936
2886.857	6006
2888.714	5985
2890.57	6063
2892.425	6033
2894.279	5940
2896.133	5920
2897.987	6033
2899.842	6080
2901.694	5903
2903.547	5991
2905.397	5945
2907.249	5898
2909.101	6041
2910.952	5914
2912.802	6066
2914.652	6095
2916.5	6145
2918.35	6176
2920.198	6147
2922.045	6261
2923.893	6345
2925.74	6539
2927.585	6392
2929.433	6561
2931.279	6562
2933.123	6776
2934.968	6747
2936.811	6733
2938.656	6843
2940.5	6966
2942.342	7096
2944.185	7081
2946.026	7044
2947.87	7111
2949.71	7063
2951.549	7051
2953.39	6998
2955.229	6768
2957.069	6738
2958.908	6692
2960.746	6689
2962.584	6634
2964.421	6626
2966.257	6563
2968.094	6544
2969.931	6409
2971.766	6303
2973.601	6299
2975.435	6228
2977.27	6188
2979.105	6169
2980.938	6180
2982.77	6077
2984.602	5943
2986.434	6053
2988.267	5927
2990.097	5856
2991.927	5925
2993.757	5849
2995.587	5704
2997.417	5749
2999.246	5731
3001.074	5672
3002.902	5563
3004.729	5579
3006.556	5402
3008.384	5413
3010.21	5275
3012.036	5259
3013.861	5180
3015.684	5240
3017.51	5144
3019.334	5036
3021.157	5007
3022.981	5133
3024.802	4962
3026.624	4884
3028.448	5032
3030.267	5005
3032.088	4969
3033.909	5021
3035.728	4980
3037.549	4942
3039.368	4899
3041.186	4969
3043.004	4939
3044.821	5001
3046.64	4837
3048.455	4888
3050.272	4802
3052.087	4792
3053.903	4915
3055.717	4826
3057.534	4892
3059.347	4800
3061.16	4922
3062.974	4902
3064.785	4906
3066.598	4912
3068.411	4963
3070.222	4827
3072.032	4788
3073.844	4944
3075.653	4903
3077.463	4794
3079.272	4790
3081.08	4813
3082.889	4766
3084.697	4722
3086.505	4744
3088.312	4701
3090.118	4823
3091.924	4663
3093.729	4750
3095.535	4673
3097.34	4733
3099.144	4887
3100.947	4665
3102.75	4581
3104.553	4665
3106.357	4773
3108.159	4714
3109.961	4649
3111.762	4597
3113.562	4690
3115.365	4640
3117.164	4682
3118.964	4731
3120.761	4762
3122.56	4641
3124.36	4634
3126.158	4669
3127.954	4659
3129.75	4660
3131.547	4661
3133.343	4661
3135.139	4588
3136.934	4581
3138.729	4611
3140.522	4636
3142.317	4545
3144.11	4598
3145.904	4688
3147.695	4465
3149.488	4603
3151.28	4587
3153.07	4569
3154.863	4582
3156.652	4595
3158.441	4595
3160.231	4582
3162.019	4588
3163.81	4635
3165.597	4564
3167.384	4504
3169.172	4561
3170.958	4560
3172.745	4582
3174.532	4599
3176.317	4648
3178.101	4637
3179.885	4487
3181.67	4601
3183.455	4604
3185.238	4628
3187.02	4552
3188.802	4588
3190.585	4544
3192.368	4491
3194.149	4572
3195.929	4532
3197.709	4646
3199.489	4653
3201.268	4647
3203.048	4680
3204.826	4616
3206.604	4532
3208.382	4565
3210.159	4574
3211.937	4575
3213.713	4593
3215.489	4610
3217.263	4523
3219.038	4562
3220.815	4533
3222.589	4493
3224.363	4616
3226.136	4452
3227.908	4615
3229.681	4590
3231.454	4505
3233.226	4464
3234.996	4475
3236.767	4592
3238.538	4600
3240.308	4549
3242.078	4489
3243.847	4534
3245.615	4585
3247.384	4515
3249.15	4585
3250.92	4618
3252.686	4538
3254.453	4553
3256.218	4429
3257.984	4504
3259.75	4596
3261.515	4574
3263.279	4515
3265.044	4493
3266.806	4540
3268.57	4630
3270.334	4500
3272.095	4575
3273.856	4520
3275.619	4540
3277.379	4629
3279.14	4540
3280.9	4605
3282.661	4520
3284.419	4602
3286.178	4531
3287.937	4663
3289.695	4513
3291.453	4574
3293.21	4593
3294.967	4587
3296.723	4555
3298.48	4701
3300.235	4635
3301.99	4584
3303.744	4585
3305.498	4544
3307.253	4517
3309.006	4566
3310.759	4645
3312.511	4600
3314.263	4520
3316.017	4559
3317.768	4564
3319.519	4647
3321.268	4520
3323.018	4524
3324.767	4498
3326.518	4556
3328.267	4574
3330.014	4601
3331.762	4582
3333.509	4558
3335.258	4602
3337.003	4577
3338.75	4564
3340.496	4545
3342.24	4471
3343.987	4567
3345.732	4646
3347.475	4564
3349.219	4452
3350.961	4539
3352.705	4460
3354.448	4467
3356.19	4504
3357.931	4516
3359.672	4482
3361.412	4563
3363.155	4447
3364.894	4518
3366.633	4497
3368.372	4445
3370.11	4487
3371.849	4361
3373.588	4479
3375.325	4375
3377.061	4450
3378.799	4533
3380.534	4392
3382.271	4409
3384.006	4511
3385.741	4322
3387.475	4452
3389.209	4416
3390.944	4466
3392.677	4460
3394.409	4383
3396.143	4428
3397.874	4358
3399.606	4365
3401.338	4340
3403.069	4402
3404.799	4375
3406.528	4369
3408.258	4312
3409.988	4412
3411.717	4348
3413.445	4340
3415.173	4409
3416.899	4310
3418.626	4363
3420.354	4336
3422.08	4337
3423.806	4241
3425.531	4340
3427.255	4427
3428.981	4343
3430.705	4339
3432.429	4404
3434.151	4362
3435.875	4342
3437.599	4341
3439.321	4381
3441.042	4274
3442.763	4304
3444.483	4274
3446.204	4332
3447.926	4271
3449.645	4190
3451.364	4268
3453.082	4237
3454.801	4245
3456.52	4218
3458.238	4256
3459.954	4203
3461.671	4198
3463.387	4167
3465.104	4223
3466.82	4232
3468.534	4177
3470.25	4168
3471.963	4166
3473.676	4109
3475.392	4172
3477.104	4161
3478.817	4148
3480.528	4179
3482.241	4087
3483.954	4094
3485.664	4218
3487.374	4113
3489.084	4153
3490.795	4133
3492.504	4111
3494.214	4070
3495.922	4003
3497.63	4006
3499.338	4048
3501.045	4072
3502.753	4025
3504.459	4040
3506.166	4081
3507.871	4105
3509.576	4077
3511.283	4055
3512.987	4010
3514.691	4067
3516.395	3953
3518.098	4062
3519.8	3986
3521.504	3940
3523.206	4003
3524.908	3947
3526.609	3974
3528.309	3949
3530.011	3933
3531.711	3963
3533.411	3971
3535.109	3923
3536.808	3970
3538.507	3888
3540.206	4001
3541.904	3954
3543.601	3843
3545.297	3923
3546.994	3820
3548.69	3955
3550.387	3908
3552.081	3945
3553.776	3847
3555.47	3823
3557.166	3854
3558.859	3960
3560.553	3833
3562.245	3863
3563.938	3957
3565.629	3899
3567.322	3884
3569.014	3839
3570.704	3835
3572.394	3819
3574.084	3795
3575.775	3879
3577.464	3837
3579.152	3875
3580.842	3866
3582.529	3791
3584.216	3772
3585.905	3741
3587.591	3795
3589.279	3807
3590.964	3815
3592.649	3702
3594.336	3714
3596.021	3727
3597.705	3735
3599.388	3703
3601.072	3794
3602.757	3679
3604.439	3703
3606.122	3720
3607.803	3772
3609.485	3670
3611.167	3653
3612.849	3674
3614.529	3687
3616.208	3650
3617.888	3684
3619.567	3613
3621.247	3678
3622.926	3629
3624.603	3568
3626.281	3564
3627.958	3609
3629.635	3534
3631.312	3631
3632.989	3602
3634.665	3573
3636.339	3652
3638.014	3558
3639.691	3572
3641.364	3631
3643.038	3654
3644.71	3528
3646.384	3555
3648.058	3611
3649.729	3556
3651.402	3475
3653.073	3539
3654.744	3539
3656.414	3494
3658.085	3496
3659.755	3450
3661.424	3503
3663.094	3548
3664.762	3470
3666.431	3559
3668.099	3575
3669.766	3517
3671.433	3463
3673.099	3567
3674.768	3506
3676.433	3442
3678.098	3469
3679.763	3397
3681.428	3566
3683.093	3437
3684.757	3530
3686.421	3519
3688.083	3472
3689.746	3499
3691.408	3419
3693.071	3415
3694.733	3444
3696.394	3504
3698.054	3423
3699.715	3411
3701.375	3389
3703.036	3376
3704.695	3446
3706.354	3475
3708.012	3404
3709.67	3451
3711.329	3447
3712.987	3393
3714.644	3389
3716.299	3347
3717.955	3429
3719.613	3464
3721.268	3363
3722.923	3373
3724.577	3361
3726.231	3422
3727.885	3453
3729.539	3351
3731.192	3446
3732.845	3426
3734.497	3383
3736.149	3302
3737.802	3377
3739.453	3410
3741.104	3270
3742.753	3367
3744.404	3391
3746.052	3402
3747.704	3316
3749.352	3341
3751	3381
3752.648	3365
3754.296	3316
3755.944	3352
3757.59	3396
3759.238	3328
3760.883	3401
3762.528	3300
3764.176	3307
3765.82	3312
3767.464	3301
3769.109	3301
3770.753	3317
3772.396	3316
3774.04	3323
3775.683	3326
3777.325	3317
3778.967	3344
3780.608	3200
3782.25	3259
3783.89	3280
3785.531	3269
3787.17	3303
3788.81	3242
3790.45	3269
3792.09	3221
3793.729	3202
3795.366	3290
3797.003	3215
3798.64	3253
3800.278	3241
3801.915	3115
3803.551	3302
3805.187	3306
3806.822	3191
3808.458	3182
3810.093	3198
3811.726	3243
3813.36	3239
3814.994	3174
3816.627	3209
3818.262	3214
3819.893	3237
3821.525	3175
3823.157	3207
3824.787	3216
3826.42	3215
3828.051	3283
3829.68	3178
3831.31	3108
3832.938	3177
3834.569	3172
3836.198	3194
3837.825	3202
3839.454	3145
3841.08	3207
3842.708	3088
3844.335	3103
3845.962	3220
3847.587	3102
3849.212	3181
3850.838	3127
3852.463	3156
3854.089	3156
3855.712	3085
3857.335	3171
3858.959	3106
3860.582	3158
3862.205	3115
3863.827	3098
3865.449	3087
3867.07	3122
3868.691	3102
3870.312	3090
3871.933	3183
3873.553	3161
3875.173	3073
3876.792	3128
3878.411	3096
3880.03	3054
3881.647	3093
3883.265	3103
3884.882	3115
3886.499	3130
3888.116	3061
3889.732	3043
3891.348	3100
3892.964	3051
3894.579	3062
3896.195	3126
3897.809	2999
3899.423	3029
3901.036	3052
3902.648	3050
3904.261	3161
3905.875	3119
3907.487	3095
3909.099	3061
3910.709	3031
3912.321	3019
3913.933	3052
3915.542	3080
3917.152	3123
3918.762	3034
3920.37	3030
3921.98	3082
3923.589	3026
3925.196	3046
3926.804	3066
3928.41	3002
3930.018	3030
3931.626	2990
3933.231	3018
3934.838	3051
3936.442	3009
3938.046	3006
3939.653	2919
3941.257	2999
3942.861	3026
3944.464	3051
3946.068	3013
3947.67	2983
3949.273	2959
3950.876	3102
3952.477	2998
3954.078	3056
3955.678	2954
3957.281	3024
3958.881	2970
3960.48	2974
3962.079	2982
3963.678	2949
3965.279	2994
3966.877	2966
3968.475	2970
3970.072	2917
3971.669	2954
3973.266	2968
3974.864	2950
3976.459	2919
3978.055	2966
3979.65	2994
3981.245	2986
3982.841	2936
3984.436	2939
3986.03	2935
3987.623	2890
3989.216	2918
3990.809	2899
3992.403	2936
3993.995	2873
3995.586	2890
3997.177	2902
3998.768	2873
4000.361	2843
4001.951	2918
4003.54	2879
4005.13	2877
4006.719	2869
4008.31	2821
4009.897	2899
4011.485	2860
4013.073	2902
4014.66	2906
4016.247	2915
4017.834	2849
4019.421	2868
4021.006	2860
4022.592	2839
4024.178	2825
4025.763	2821
4027.348	2843
4028.932	2746
4030.515	2872
4032.099	2775
4033.682	2745
4035.266	2823
4036.847	2829
4038.429	2871
4040.011	2856
4041.592	2854
4043.173	2816
4044.755	2830
4046.334	2817
4047.913	2817
4049.494	2759
4051.074	2811
4052.652	2742
4054.23	2764
4055.807	2756
4057.385	2796
4058.963	2725
4060.541	2780
4062.117	2787
4063.693	2838
4065.269	2692
4066.844	2814
4068.42	2756
4069.995	2869
4071.569	2688
4073.143	2699
4074.716	2799
4076.291	2761
4077.864	2670
4079.436	2778
4081.009	2767
4082.58	2770
4084.152	2776
4085.723	2732
4087.294	2775
4088.865	2757
4090.435	2708
4092.005	2696
4093.574	2777
4095.143	2781
4096.712	2713
4098.279	2682
4099.848	2687
4101.416	2789
4102.984	2696
4104.55	2753
4106.117	2747
4107.682	2721
4109.248	2699
4110.815	2702
4112.379	2641
4113.945	2658
4115.508	2691
4117.073	2621
4118.637	2709
4120.201	2706
4121.763	2720
4123.325	2770
4124.888	2694
4126.449	2663
4128.013	2605
4129.573	2665
4131.133	2726
4132.694	2606
4134.254	2578
4135.814	2667
4137.374	2635
4138.933	2607
4140.491	2635
4142.049	2608
4143.607	2655
4145.167	2683
4146.724	2608
4148.28	2614
4149.836	2623
4151.392	2584
4152.949	2578
4154.504	2544
4156.059	2618
4157.614	2596
4159.168	2651
4160.723	2550
4162.277	2585
4163.83	2547
4165.383	2587
4166.936	2566
4168.488	2573
4170.041	2577
4171.593	2538
4173.144	2522
4174.695	2571
4176.246	2550
4177.796	2589
4179.346	2550
4180.896	2539
4182.445	2530
4183.994	2574
4185.542	2474
4187.091	2504
4188.639	2549
4190.185	2521
4191.732	2534
4193.279	2571
4194.826	2539
4196.373	2534
4197.918	2528
4199.463	2555
4201.008	2582
4202.553	2527
4204.098	2527
4205.641	2546
4207.185	2509
4208.728	2517
4210.271	2530
4211.814	2518
4213.357	2548
4214.898	2477
4216.439	2467
4217.98	2505
4219.522	2409
4221.062	2494
4222.603	2463
4224.142	2560
4225.681	2477
4227.222	2526
4228.76	2437
4230.298	2494
4231.835	2500
4233.373	2468
4234.911	2505
4236.449	2433
4237.985	2470
4239.521	2520
4241.057	2461
4242.592	2469
4244.128	2436
4245.663	2445
4247.197	2513
4248.731	2440
4250.265	2457
4251.798	2456
4253.333	2457
4254.865	2466
4256.397	2454
4257.93	2447
4259.461	2434
4260.994	2432
4262.525	2442
4264.056	2459
4265.586	2496
4267.115	2445
4268.646	2457
4270.176	2433
4271.705	2429
4273.232	2420
4274.761	2391
4276.289	2432
4277.818	2329
4279.345	2416
4280.872	2335
4282.399	2401
4283.924	2435
4285.452	2419
4286.976	2429
4288.502	2448
4290.026	2400
4291.551	2433
4293.074	2444
4294.6	2384
4296.123	2377
4297.646	2377
4299.168	2393
4300.691	2375
4302.214	2297
4303.736	2320
4305.257	2384
4306.778	2328
4308.299	2353
4309.82	2366
4311.34	2380
4312.86	2301
4314.379	2320
