400.0745	4313
402.597	4410
405.1208	4376
407.6419	4319
410.1623	4457
412.6819	4361
415.201	4422
417.7172	4493
420.2369	4567
422.7538	4531
425.2701	4524
427.7856	4553
430.3005	4621
432.8147	4600
435.3282	4642
437.841	4551
440.3511	4649
442.8625	4586
445.3753	4763
447.8854	4570
450.3927	4718
452.9014	4714
455.4073	4721
457.9146	4642
460.4233	4716
462.9272	4659
465.4325	4695
467.935	4659
470.4389	4700
472.9421	4659
475.4446	4664
477.9444	4696
480.4456	4717
482.944	4704
485.4417	4775
487.9429	4770
490.4393	4780
492.935	4753
495.4321	4750
497.9264	4786
500.4221	4821
502.9171	4754
505.4094	4822
507.9011	4777
510.392	4836
512.8864	4857
515.3759	4862
517.8649	4889
520.3531	4813
522.8406	4744
525.3275	4801
527.8178	4840
530.3033	4869
532.7881	4802
535.2723	4789
537.7558	4924
540.2407	4873
542.7228	4881
545.2043	4828
547.6851	4867
550.1652	4879
552.6467	4852
555.1255	4890
557.6016	4886
560.079	4859
562.5557	4997
565.0318	5013
567.5092	4928
569.984	4993
572.456	4970
574.9294	5008
577.4022	5037
579.8762	5031
582.3456	4987
584.8163	5033
587.2863	5100
589.7557	5104
592.2224	5035
594.6924	5101
597.1578	5012
599.6245	4992
602.0905	5055
604.5538	5057
607.0206	4979
609.4825	5112
611.9459	4988
614.4066	5075
616.8686	4990
619.33	4959
621.7906	5081
624.2487	5008
626.708	5095
629.1647	5048
631.6207	5053
634.0801	4987
636.5348	5080
638.9888	5049
641.4442	4989
643.8969	5101
646.3509	5136
648.8022	5136
651.255	5183
653.705	5089
656.1544	5054
658.6031	5152
661.0532	5100
663.5026	5188
665.9493	5136
668.3954	5175
670.8409	5217
673.2877	5185
675.7318	5224
678.1752	5180
680.618	5171
683.0601	5254
685.5035	5216
687.9444	5177
690.3845	5270
692.824	5242
695.2628	5207
697.701	5298
700.1406	5245
702.5774	5251
705.0116	5249
707.4472	5264
709.8821	5223
712.3183	5384
714.7519	5325
717.1829	5326
719.6151	5393
722.0468	5354
724.4777	5438
726.908	5425
729.3377	5549
731.7667	5355
734.1931	5375
736.6208	5438
739.0498	5492
741.4742	5520
743.9	5578
746.3231	5502
748.7476	5459
751.1713	5466
753.5945	5470
756.015	5527
758.4368	5604
760.856	5575
763.2766	5599
765.6965	5566
768.1157	5670
770.5323	5547
772.9483	5606
775.3656	5569
777.7822	5579
780.1963	5632
782.6116	5609
785.0244	5587
787.4365	5573
789.8499	5632
792.2626	5592
794.6728	5620
797.0823	5561
799.4911	5750
801.8994	5704
804.3109	5715
806.7178	5669
809.124	5607
811.5297	5561
813.9347	5649
816.341	5688
818.7447	5601
821.1478	5790
823.5502	5725
825.952	5648
828.3531	5697
830.7556	5632
833.1554	5756
835.5546	5674
837.9532	5784
840.3511	5709
842.7504	5725
845.1451	5764
847.5411	5745
849.9365	5764
852.3312	5820
854.7272	5881
857.1187	5778
859.5115	5889
861.9037	5720
864.2952	5706
866.6842	5767
869.0764	5712
871.4661	5837
873.8531	5717
876.2415	5860
878.6272	5712
881.0162	5669
883.4026	5771
885.7866	5830
888.1717	5787
890.5543	5818
892.9382	5813
895.3215	5798
897.7041	5765
900.0842	5778
902.4655	5759
904.8443	5730
907.2244	5695
909.6039	5850
911.9808	5846
914.357	5727
916.7346	5975
919.1115	5923
921.4859	5848
923.8616	5873
926.2347	5948
928.6071	5984
930.979	5901
933.3541	5994
935.7247	6048
938.0946	6029
940.4639	6084
942.8326	6029
945.2026	6156
947.5701	6162
949.9369	6332
952.305	6459
954.6705	6678
957.0355	6696
959.4017	6936
961.7654	6853
964.1284	6985
966.4908	6901
968.8527	6698
971.2138	6593
973.5743	6319
975.9343	6176
978.2936	6049
980.6522	6027
983.0122	5899
985.3696	6061
987.7245	5953
990.0807	6051
992.4362	5924
994.7911	5900
997.1474	5906
999.4991	5993
1001.852	5993
1004.205	6051
1006.555	5939
1008.908	6115
1011.258	5997
1013.606	6013
1015.956	5952
1018.302	6036
1020.652	6006
1022.998	5950
1025.345	6030
1027.691	6128
1030.035	6018
1032.378	6013
1034.724	6043
1037.066	6135
1039.409	6070
1041.75	6088
1044.092	6143
1046.433	6111
1048.771	6082
1051.112	6100
1053.449	6135
1055.786	6211
1058.124	6061
1060.462	6238
1062.797	6110
1065.131	6158
1067.467	6136
1069.8	6149
1072.135	6302
1074.467	6196
1076.798	6228
1079.129	6215
1081.459	6147
1083.792	6189
1086.121	6141
1088.449	6037
1090.777	6081
1093.104	6044
1095.431	6104
1097.759	6133
1100.084	6090
1102.408	6141
1104.732	6060
1107.056	6193
1109.379	6142
1111.701	6076
1114.022	6260
1116.343	6179
1118.664	6088
1120.983	6248
1123.303	6078
1125.621	6234
1127.939	6259
1130.256	6278
1132.573	6163
1134.889	6213
1137.205	6183
1139.52	6091
1141.832	6120
1144.146	6095
1146.461	6138
1148.771	6036
1151.083	6172
1153.392	6096
1155.703	6185
1158.011	6209
1160.323	6252
1162.629	6244
1164.938	6003
1167.243	6177
1169.55	6139
1171.857	6179
1174.163	6115
1176.466	6198
1178.769	6121
1181.073	6185
1183.374	6134
1185.677	6125
1187.979	6175
1190.279	6129
1192.578	6147
1194.878	6181
1197.178	6195
1199.476	6210
1201.772	6213
1204.068	6234
1206.366	6144
1208.663	6277
1210.957	6205
1213.251	6266
1215.544	6138
1217.836	6205
1220.128	6303
1222.421	6192
1224.712	6189
1227.002	6356
1229.292	6321
1231.581	6182
1233.871	6186
1236.159	6357
1238.446	6298
1240.732	6312
1243.018	6313
1245.304	6301
1247.59	6276
1249.874	6283
1252.156	6443
1254.439	6365
1256.721	6334
1259.005	6323
1261.286	6365
1263.565	6340
1265.845	6349
1268.125	6371
1270.403	6340
1272.682	6453
1274.959	6488
1277.234	6381
1279.511	6377
1281.787	6214
1284.062	6393
1286.337	6306
1288.609	6386
1290.882	6276
1293.153	6349
1295.428	6306
1297.698	6290
1299.969	6172
1302.237	6258
1304.507	6242
1306.777	6444
1309.044	6289
1311.312	6384
1313.578	6342
1315.844	6290
1318.109	6353
1320.375	6206
1322.638	6159
1324.903	6368
1327.165	6298
1329.427	6312
1331.69	6328
1333.952	6246
1336.212	6235
1338.471	6292
1340.73	6348
1342.988	6243
1345.248	6305
1347.505	6365
1349.763	6326
1352.019	6341
1354.274	6290
1356.53	6314
1358.784	6203
1361.038	6448
1363.291	6359
1365.543	6266
1367.797	6341
1370.048	6309
1372.296	6278
1374.546	6267
1376.796	6436
1379.045	6337
1381.295	6338
1383.542	6426
1385.787	6340
1388.034	6431
1390.28	6421
1392.527	6286
1394.772	6430
1397.014	6318
1399.258	6392
1401.501	6349
1403.741	6426
1405.985	6364
1408.226	6407
1410.465	6441
1412.705	6352
1414.943	6425
1417.184	6422
1419.42	6364
1421.658	6415
1423.894	6414
1426.13	6447
1428.366	6532
1430.602	6434
1432.835	6475
1435.069	6404
1437.301	6554
1439.535	6520
1441.767	6538
1443.997	6598
1446.229	6578
1448.458	6465
1450.687	6611
1452.916	6520
1455.146	6537
1457.372	6526
1459.599	6600
1461.824	6558
1464.051	6605
1466.277	6505
1468.501	6465
1470.725	6504
1472.948	6486
1475.17	6413
1477.393	6440
1479.614	6444
1481.837	6471
1484.057	6446
1486.276	6387
1488.497	6335
1490.715	6443
1492.932	6450
1495.148	6443
1497.364	6390
1499.58	6363
1501.798	6305
1504.012	6424
1506.227	6292
1508.44	6339
1510.653	6253
1512.866	6169
1515.078	6382
1517.289	6300
1519.5	6386
1521.711	6332
1523.92	6296
1526.13	6240
1528.338	6326
1530.544	6362
1532.752	6324
1534.959	6327
1537.165	6303
1539.371	6348
1541.574	6327
1543.779	6325
1545.983	6395
1548.187	6416
1550.39	6366
1552.59	6462
1554.792	6396
1556.991	6333
1559.19	6374
1561.392	6256
1563.59	6413
1565.789	6349
1567.986	6306
1570.182	6362
1572.381	6377
1574.576	6491
1576.771	6455
1578.966	6440
1581.16	6418
1583.354	6505
1585.546	6513
1587.74	6491
1589.931	6451
1592.121	6534
1594.311	6282
1596.502	6522
1598.693	6485
1600.881	6605
1603.069	6594
1605.256	6593
1607.445	6544
1609.631	6523
1611.816	6458
1614.001	6485
1616.186	6497
1618.37	6715
1620.555	6476
1622.737	6546
1624.919	6546
1627.101	6544
1629.282	6557
1631.463	6557
1633.643	6630
1635.822	6711
1638.001	6542
1640.179	6619
1642.359	6539
1644.534	6579
1646.711	6560
1648.887	6585
1651.062	6698
1653.235	6525
1655.412	6614
1657.586	6612
1659.757	6757
1661.93	6624
1664.1	6712
1666.274	6532
1668.445	6610
1670.614	6607
1672.784	6644
1674.951	6659
1677.12	6681
1679.289	6509
1681.457	6489
1683.622	6745
1685.789	6521
1687.953	6622
1690.121	6611
1692.284	6633
1694.447	6499
1696.611	6589
1698.772	6542
1700.935	6446
1703.098	6534
1705.258	6502
1707.417	6564
1709.576	6525
1711.736	6446
1713.896	6531
1716.053	6457
1718.21	6493
1720.366	6534
1722.522	6378
1724.68	6505
1726.835	6445
1728.989	6482
1731.142	6581
1733.295	6498
1735.449	6459
1737.601	6507
1739.753	6498
1741.903	6555
1744.054	6514
1746.203	6499
1748.354	6467
1750.503	6721
1752.651	6543
1754.798	6524
1756.944	6410
1759.092	6396
1761.238	6549
1763.383	6678
1765.528	6490
1767.672	6485
1769.814	6595
1771.959	6554
1774.102	6538
1776.242	6555
1778.384	6574
1780.525	6498
1782.665	6569
1784.805	6559
1786.945	6642
1789.082	6584
1791.22	6535
1793.36	6581
1795.495	6605
1797.632	6471
1799.766	6658
1801.902	6578
1804.035	6584
1806.172	6643
1808.304	6605
1810.436	6578
1812.569	6497
1814.699	6553
1816.833	6503
1818.963	6626
1821.092	6555
1823.222	6504
1825.35	6589
1827.478	6523
1829.608	6523
1831.734	6515
1833.86	6466
1835.986	6530
1838.11	6576
1840.238	6518
1842.362	6519
1844.485	6450
1846.608	6647
1848.73	6448
1850.853	6474
1852.974	6473
1855.097	6476
1857.217	6518
1859.336	6505
1861.455	6452
1863.576	6384
1865.693	6595
1867.811	6472
1869.926	6503
1872.042	6471
1874.16	6606
1876.275	6392
1878.39	6410
1880.504	6541
1882.618	6494
1884.731	6503
1886.843	6554
1888.956	6519
1891.067	6431
1893.178	6580
1895.287	6492
1897.399	6601
1899.508	6546
1901.617	6580
1903.724	6634
1905.832	6569
1907.941	6496
1910.046	6577
1912.152	6539
1914.256	6553
1916.361	6611
1918.464	6544
1920.57	6711
1922.672	6600
1924.775	6565
1926.876	6653
1928.978	6621
1931.08	6587
1933.181	6622
1935.28	6548
1937.38	6593
1939.478	6665
1941.577	6654
1943.675	6739
1945.771	6592
1947.867	6582
1949.964	6714
1952.058	6791
1954.154	6697
1956.248	6714
1958.343	6627
1960.435	6561
1962.527	6579
1964.62	6626
1966.711	6613
1968.802	6618
1970.892	6499
1972.983	6681
1975.072	6555
1977.162	6622
1979.25	6583
1981.337	6574
1983.424	6589
1985.51	6623
1987.598	6521
1989.683	6486
1991.768	6563
1993.852	6591
1995.934	6496
1998.019	6488
2000.102	6633
2002.184	6548
2004.266	6594
2006.347	6555
2008.427	6572
2010.508	6623
2012.587	6548
2014.666	6559
2016.745	6554
2018.821	6615
2020.9	6550
2022.977	6525
2025.052	6487
2027.128	6549
2029.204	6599
2031.277	6568
2033.353	6479
2035.425	6589
2037.499	6548
2039.57	6531
2041.642	6604
2043.714	6613
2045.786	6570
2047.855	6588
2049.925	6475
2051.993	6547
2054.064	6585
2056.132	6554
2058.2	6583
2060.266	6648
2062.332	6511
2064.398	6607
2066.465	6591
2068.529	6527
2070.592	6669
2072.657	6517
2074.719	6635
2076.783	6694
2078.845	6538
2080.907	6498
2082.968	6635
2085.028	6593
2087.087	6481
2089.148	6505
2091.207	6518
2093.264	6531
2095.322	6658
2097.379	6636
2099.439	6566
2101.495	6611
2103.55	6638
2105.605	6626
2107.658	6550
2109.713	6611
2111.767	6520
2113.82	6480
2115.872	6577
2117.924	6589
2119.975	6516
2122.028	6540
2124.078	6518
2126.126	6468
2128.176	6635
2130.225	6659
2132.275	6593
2134.321	6631
2136.368	6483
2138.415	6532
2140.461	6491
2142.505	6560
2144.552	6566
2146.597	6539
2148.64	6573
2150.684	6518
2152.725	6492
2154.77	6476
2156.811	6585
2158.852	6449
2160.894	6469
2162.933	6553
2164.973	6461
2167.013	6516
2169.051	6561
2171.089	6637
2173.126	6521
2175.164	6465
2177.201	6546
2179.236	6468
2181.273	6519
2183.307	6431
2185.341	6509
2187.377	6519
2189.41	6480
2191.442	6460
2193.473	6413
2195.506	6309
2197.539	6544
2199.569	6466
2201.598	6324
2203.628	6291
2205.656	6443
2207.686	6484
2209.716	6408
2211.743	6410
2213.769	6341
2215.796	6358
2217.821	6404
2219.848	6397
2221.873	6462
2223.897	6363
2225.921	6507
2227.944	6354
2229.967	6224
2231.991	6398
2234.011	6362
2236.032	6346
2238.053	6266
2240.073	6372
2242.094	6379
2244.114	6264
2246.131	6458
2248.149	6344
2250.167	6424
2252.186	6396
2254.201	6299
2256.218	6451
2258.233	6362
2260.247	6214
2262.262	6296
2264.278	6439
2266.29	6450
2268.303	6399
2270.315	6379
2272.327	6251
2274.341	6228
2276.35	6391
2278.361	6445
2280.37	6359
2282.38	6416
2284.388	6336
2286.397	6302
2288.405	6325
2290.412	6363
2292.419	6247
2294.425	6459
2296.431	6277
2298.437	6283
2300.441	6327
2302.445	6277
2304.449	6368
2306.453	6347
2308.455	6315
2310.457	6276
2312.459	6273
2314.46	6344
2316.46	6384
2318.461	6215
2320.46	6199
2322.458	6392
2324.458	6296
2326.456	6349
2328.455	6320
2330.451	6296
2332.447	6267
2334.443	6362
2336.438	6355
2338.433	6260
2340.429	6256
2342.422	6263
2344.416	6157
2346.408	6350
2348.399	6138
2350.393	6168
2352.384	6170
2354.375	6299
2356.365	6212
2358.355	6197
2360.344	6228
2362.333	6287
2364.322	6217
2366.309	6255
2368.295	6148
2370.282	6143
2372.27	6274
2374.256	6113
2376.24	6210
2378.225	6254
2380.208	6146
2382.194	6194
2384.177	6120
2386.159	6120
2388.142	6122
2390.122	6035
2392.105	6124
2394.085	6047
2396.066	6059
2398.044	6092
2400.024	6192
2402.002	6130
2403.982	6146
2405.959	6039
2407.935	6108
2409.913	6077
2411.888	6052
2413.865	6059
2415.84	6070
2417.814	6060
2419.788	6163
2421.762	6106
2423.735	6160
2425.708	6089
2427.68	6052
2429.651	6054
2431.623	6128
2433.593	6103
2435.564	6001
2437.533	6049
2439.502	5958
2441.47	6041
2443.438	6146
2445.406	6184
2447.373	6090
2449.34	6106
2451.305	6090
2453.271	6066
2455.235	6083
2457.201	6063
2459.165	6052
2461.129	6137
2463.092	6068
2465.054	5997
2467.018	6066
2468.978	6054
2470.939	5920
2472.899	5932
2474.86	6009
2476.819	6061
2478.778	5946
2480.737	6104
2482.695	6041
2484.653	6068
2486.609	6059
2488.567	6038
2490.524	5991
2492.478	6024
2494.433	6029
2496.387	5988
2498.343	6040
2500.297	6004
2502.249	6033
2504.202	5916
2506.153	5926
2508.105	5986
2510.057	5847
2512.008	5993
2513.957	5856
2515.906	5985
2517.855	5926
2519.805	5973
2521.754	6030
2523.7	5976
2525.647	6039
2527.594	5928
2529.54	6023
2531.486	5919
2533.431	5936
2535.376	5933
2537.32	5935
2539.263	6010
2541.207	5863
2543.151	5917
2545.093	5920
2547.034	5926
2548.975	5888
2550.917	5878
2552.856	5832
2554.796	5858
2556.735	5896
2558.673	5867
2560.611	5926
2562.55	5767
2564.487	5985
2566.424	6028
2568.36	5945
2570.296	6000
2572.232	5900
2574.167	5945
2576.101	5869
2578.035	5904
2579.969	5966
2581.902	5860
2583.834	5969
2585.766	5833
2587.698	5929
2589.628	5874
2591.557	5896
2593.489	5917
2595.419	5890
2597.348	5952
2599.275	5961
2601.204	5806
2603.131	5790
2605.059	5918
2606.986	5825
2608.911	5889
2610.837	5946
2612.76	5924
2614.687	5912
2616.61	5964
2618.534	5944
2620.457	5923
2622.38	5889
2624.302	5880
2626.225	5938
2628.145	5918
2630.067	5944
2631.986	6014
2633.906	5912
2635.827	5932
2637.745	5832
2639.662	5964
2641.581	5940
2643.498	5966
2645.415	5935
2647.331	5787
2649.248	5832
2651.163	5953
2653.077	5871
2654.993	5824
2656.906	5915
2658.821	5886
2660.733	5945
2662.646	5906
2664.557	5852
2666.47	5940
2668.381	5999
2670.291	5892
2672.201	5921
2674.11	5967
2676.021	5898
2677.929	5933
2679.837	5778
2681.745	5859
2683.652	5883
2685.56	5740
2687.466	5829
2689.371	5867
2691.276	5923
2693.181	5850
2695.085	5817
2696.991	5895
2698.893	5799
2700.796	5828
2702.698	5797
2704.601	5850
2706.502	5878
2708.404	5831
2710.304	5807
2712.203	5777
2714.103	5689
2716.003	5821
2717.902	5803
2719.8	5784
2721.697	5759
2723.594	5695
2725.49	5875
2727.389	5803
2729.283	5784
2731.179	5749
2733.073	5764
2734.968	5828
2736.863	5839
2738.757	5816
2740.649	5822
2742.541	5826
2744.433	5692
2746.324	5721
2748.216	5696
2750.107	5715
2751.997	5747
2753.886	5699
2755.776	5816
2757.666	5811
2759.553	5735
2761.44	5759
2763.327	5791
2765.215	5689
2767.102	5787
2768.988	5683
2770.873	5650
2772.757	5615
2774.641	5674
2776.525	5743
2778.41	5668
2780.292	5754
2782.175	5619
2784.057	5722
2785.938	5633
2787.821	5678
2789.701	5713
2791.581	5665
2793.461	5590
2795.34	5648
2797.219	5672
2799.099	5660
2800.975	5631
2802.853	5754
2804.73	5633
2806.606	5618
2808.484	5710
2810.358	5563
2812.233	5604
2814.108	5590
2815.981	5789
2817.857	5562
2819.73	5644
2821.602	5666
2823.474	5624
2825.346	5541
2827.217	5645
2829.089	5590
2830.959	5610
2832.829	5602
2834.698	5654
2836.567	5574
2838.436	5699
2840.305	5620
2842.172	5635
2844.04	5714
2845.905	5571
2847.772	5653
2849.639	5770
2851.503	5656
2853.369	5688
2855.232	5554
2857.096	5756
2858.961	5646
2860.824	5669
2862.686	5807
2864.547	5715
2866.41	5697
2868.272	5759
2870.132	5776
2871.992	5759
2873.851	5811
2875.711	5757
2877.57	5913
2879.429	5845
2881.287	5966
2883.144	5923
2885.001	6007
2886.857	5901
2888.714	5869
2890.57	5958
2892.425	5927
2894.279	5830
2896.133	5939
2897.987	5849
2899.842	5841
2901.694	5927
2903.547	5903
2905.397	5851
2907.249	5907
2909.101	5917
2910.952	5991
2912.802	5985
2914.652	5920
2916.5	6025
2918.35	5958
2920.198	6029
2922.045	6025
2923.893	6071
2925.74	6149
2927.585	6216
2929.433	6290
2931.279	6162
2933.123	6201
2934.968	6265
2936.811	6246
2938.656	6415
2940.5	6423
2942.342	6419
2944.185	6516
2946.026	6426
2947.87	6335
2949.71	6527
2951.549	6412
2953.39	6383
2955.229	6222
2957.069	6295
2958.908	6213
2960.746	6197
2962.584	6118
2964.421	6028
2966.257	6139
2968.094	6016
2969.931	5933
2971.766	6024
2973.601	6033
2975.435	6047
2977.27	5984
2979.105	5919
2980.938	5921
2982.77	5819
2984.602	5955
2986.434	5900
2988.267	5854
2990.097	5729
2991.927	5741
2993.757	5785
2995.587	5733
2997.417	5781
2999.246	5821
3001.074	5719
3002.902	5709
3004.729	5559
3006.556	5536
3008.384	5594
3010.21	5462
3012.036	5510
3013.861	5441
3015.684	5495
3017.51	5505
3019.334	5442
3021.157	5343
3022.981	5421
3024.802	5364
3026.624	5348
3028.448	5357
3030.267	5294
3032.088	5227
3033.909	5390
3035.728	5261
3037.549	5237
3039.368	5203
3041.186	5268
3043.004	5297
3044.821	5338
3046.64	5243
3048.455	5317
3050.272	5225
3052.087	5223
3053.903	5332
3055.717	5247
3057.534	5308
3059.347	5362
3061.16	5217
3062.974	5179
3064.785	5254
3066.598	5192
3068.411	5269
3070.222	5341
3072.032	5219
3073.844	5355
3075.653	5178
3077.463	5130
3079.272	5182
3081.08	5196
3082.889	5179
3084.697	5068
3086.505	5243
3088.312	5217
3090.118	5166
3091.924	5141
3093.729	5065
3095.535	5045
3097.34	5133
3099.144	5049
3100.947	5077
3102.75	5185
3104.553	5119
3106.357	5026
3108.159	5094
3109.961	5105
3111.762	5000
3113.562	5047
3115.365	4987
3117.164	5084
3118.964	4904
3120.761	5064
3122.56	5091
3124.36	5092
3126.158	5011
3127.954	5062
3129.75	4954
3131.547	5041
3133.343	5022
3135.139	4983
3136.934	4984
3138.729	5170
3140.522	4965
3142.317	4990
3144.11	5043
3145.904	5059
3147.695	5017
3149.488	4910
3151.28	4970
3153.07	5035
3154.863	4889
3156.652	4881
3158.441	4936
3160.231	4844
3162.019	4996
3163.81	4967
3165.597	4869
3167.384	4934
3169.172	4990
3170.958	4940
3172.745	4907
3174.532	4869
3176.317	4862
3178.101	4835
3179.885	4918
3181.67	4998
3183.455	4880
3185.238	4807
3187.02	4889
3188.802	4871
3190.585	4830
3192.368	5000
3194.149	4814
3195.929	4951
3197.709	4928
3199.489	4913
3201.268	4902
3203.048	4921
3204.826	4854
3206.604	4866
3208.382	4892
3210.159	4835
3211.937	4941
3213.713	4886
3215.489	4792
3217.263	4832
3219.038	4845
3220.815	4880
3222.589	4877
3224.363	4838
3226.136	4803
3227.908	4780
3229.681	4794
3231.454	4874
3233.226	4866
3234.996	4806
3236.767	4794
3238.538	4838
3240.308	4732
3242.078	4843
3243.847	4735
3245.615	4922
3247.384	4781
3249.15	4853
3250.92	4805
3252.686	4801
3254.453	4792
3256.218	4826
3257.984	4770
3259.75	4813
3261.515	4786
3263.279	4816
3265.044	4928
3266.806	4821
3268.57	4948
3270.334	4877
3272.095	4810
3273.856	4815
3275.619	4799
3277.379	4828
3279.14	4768
3280.9	4916
3282.661	4765
3284.419	4899
3286.178	4783
3287.937	4818
3289.695	4779
3291.453	4758
3293.21	4839
3294.967	4802
3296.723	4849
3298.48	4896
3300.235	4848
3301.99	4902
3303.744	4833
3305.498	4832
3307.253	4786
3309.006	4721
3310.759	4825
3312.511	4885
3314.263	4774
3316.017	4810
3317.768	4768
3319.519	4764
3321.268	4782
3323.018	4737
3324.767	4815
3326.518	4772
3328.267	4777
3330.014	4846
3331.762	4793
3333.509	4659
3335.258	4845
3337.003	4765
3338.75	4818
3340.496	4708
3342.24	4757
3343.987	4772
3345.732	4890
3347.475	4732
3349.219	4776
3350.961	4740
3352.705	4715
3354.448	4855
3356.19	4732
3357.931	4721
3359.672	4703
3361.412	4810
3363.155	4699
3364.894	4714
3366.633	4704
3368.372	4665
3370.11	4661
3371.849	4683
3373.588	4754
3375.325	4670
3377.061	4692
3378.799	4605
3380.534	4632
3382.271	4653
3384.006	4618
3385.741	4663
3387.475	4674
3389.209	4656
3390.944	4715
3392.677	4712
3394.409	4614
3396.143	4540
3397.874	4655
3399.606	4598
3401.338	4657
3403.069	4654
3404.799	4676
3406.528	4587
3408.258	4711
3409.988	4603
3411.717	4573
3413.445	4673
3415.173	4550
3416.899	4578
3418.626	4570
3420.354	4623
3422.08	4534
3423.806	4539
3425.531	4596
3427.255	4600
3428.981	4514
3430.705	4474
3432.429	4555
3434.151	4518
3435.875	4608
3437.599	4538
3439.321	4544
3441.042	4516
3442.763	4568
3444.483	4533
3446.204	4602
3447.926	4559
3449.645	4539
3451.364	4463
3453.082	4443
3454.801	4505
3456.52	4517
3458.238	4400
3459.954	4483
3461.671	4417
3463.387	4543
3465.104	4385
3466.82	4539
3468.534	4469
3470.25	4407
3471.963	4395
3473.676	4421
3475.392	4404
3477.104	4456
3478.817	4444
3480.528	4339
3482.241	4361
3483.954	4342
3485.664	4404
3487.374	4360
3489.084	4419
3490.795	4331
3492.504	4352
3494.214	4324
3495.922	4414
3497.63	4388
3499.338	4418
3501.045	4363
3502.753	4423
3504.459	4385
3506.166	4324
3507.871	4354
3509.576	4337
3511.283	4394
3512.987	4209
3514.691	4234
3516.395	4310
3518.098	4226
3519.8	4205
3521.504	4255
3523.206	4198
3524.908	4271
3526.609	4250
3528.309	4235
3530.011	4281
3531.711	4244
3533.411	4198
3535.109	4195
3536.808	4229
3538.507	4199
3540.206	4290
3541.904	4299
3543.601	4250
3545.297	4171
3546.994	4213
3548.69	4189
3550.387	4204
3552.081	4199
3553.776	4197
3555.47	4160
3557.166	4273
3558.859	4209
3560.553	4076
3562.245	4239
3563.938	4155
3565.629	4155
3567.322	4154
3569.014	4164
3570.704	4183
3572.394	4165
3574.084	4155
3575.775	4148
3577.464	4111
3579.152	4153
3580.842	4112
3582.529	4109
3584.216	4084
3585.905	4168
3587.591	4151
3589.279	4105
3590.964	4139
3592.649	4039
3594.336	4175
3596.021	4118
3597.705	4081
3599.388	4123
3601.072	4024
3602.757	4132
3604.439	4073
3606.122	4035
3607.803	4056
3609.485	4024
3611.167	4126
3612.849	4077
3614.529	4055
3616.208	3980
3617.888	4023
3619.567	3984
3621.247	3925
3622.926	3955
3624.603	3928
3626.281	4032
3627.958	3994
3629.635	4026
3631.312	4034
3632.989	4009
3634.665	3955
3636.339	3907
3638.014	3940
3639.691	3995
3641.364	3880
3643.038	3961
3644.71	3912
3646.384	4038
3648.058	3934
3649.729	3952
3651.402	3913
3653.073	3872
3654.744	3891
3656.414	3822
3658.085	3934
3659.755	3896
3661.424	3881
3663.094	3900
3664.762	3906
3666.431	3870
3668.099	3922
3669.766	3921
3671.433	3908
3673.099	3833
3674.768	3910
3676.433	3890
3678.098	3881
3679.763	3852
3681.428	3814
3683.093	3852
3684.757	3912
3686.421	3791
3688.083	3852
3689.746	3792
3691.408	3917
3693.071	3774
3694.733	3813
3696.394	3764
3698.054	3813
3699.715	3852
3701.375	3805
3703.036	3789
3704.695	3781
3706.354	3818
3708.012	3897
3709.67	3716
3711.329	3776
3712.987	3735
3714.644	3834
3716.299	3775
3717.955	3720
3719.613	3728
3721.268	3872
3722.923	3751
3724.577	3750
3726.231	3773
3727.885	3724
3729.539	3893
3731.192	3751
3732.845	3710
3734.497	3783
3736.149	3699
3737.802	3771
3739.453	3726
3741.104	3802
3742.753	3684
3744.404	3794
3746.052	3733
3747.704	3736
3749.352	3759
3751	3772
3752.648	3732
3754.296	3666
3755.944	3670
3757.59	3633
3759.238	3703
3760.883	3733
3762.528	3687
3764.176	3719
3765.82	3742
3767.464	3722
3769.109	3677
3770.753	3686
3772.396	3615
3774.04	3613
3775.683	3761
3777.325	3639
3778.967	3702
3780.608	3691
3782.25	3656
3783.89	3695
3785.531	3679
3787.17	3668
3788.81	3711
3790.45	3567
3792.09	3622
3793.729	3623
3795.366	3591
3797.003	3652
3798.64	3582
3800.278	3542
3801.915	3549
3803.551	3510
3805.187	3597
3806.822	3613
3808.458	3668
3810.093	3594
3811.726	3581
3813.36	3576
3814.994	3558
3816.627	3614
3818.262	3582
3819.893	3651
3821.525	3547
3823.157	3494
3824.787	3565
3826.42	3533
3828.051	3524
3829.68	3568
3831.31	3571
3832.938	3508
3834.569	3471
3836.198	3588
3837.825	3479
3839.454	3506
3841.08	3502
3842.708	3475
3844.335	3440
3845.962	3498
3847.587	3441
3849.212	3478
3850.838	3499
3852.463	3471
3854.089	3356
3855.712	3469
3857.335	3465
3858.959	3497
3860.582	3510
3862.205	3480
3863.827	3449
3865.449	3419
3867.07	3440
3868.691	3426
3870.312	3473
3871.933	3494
3873.553	3424
3875.173	3510
3876.792	3446
3878.411	3413
3880.03	3513
3881.647	3435
3883.265	3417
3884.882	3520
3886.499	3386
3888.116	3432
3889.732	3334
3891.348	3431
3892.964	3392
3894.579	3414
3896.195	3419
3897.809	3425
3899.423	3491
3901.036	3384
3902.648	3444
3904.261	3445
3905.875	3371
3907.487	3332
3909.099	3439
3910.709	3343
3912.321	3393
3913.933	3413
3915.542	3401
3917.152	3388
3918.762	3384
3920.37	3306
3921.98	3415
3923.589	3390
3925.196	3340
3926.804	3394
3928.41	3390
3930.018	3446
3931.626	3399
3933.231	3306
3934.838	3313
3936.442	3354
3938.046	3341
3939.653	3387
3941.257	3316
3942.861	3432
3944.464	3333
3946.068	3330
3947.67	3373
3949.273	3365
3950.876	3365
3952.477	3330
3954.078	3385
3955.678	3326
3957.281	3271
3958.881	3307
3960.48	3334
3962.079	3259
3963.678	3321
3965.279	3311
3966.877	3248
3968.475	3250
3970.072	3277
3971.669	3313
3973.266	3284
3974.864	3241
3976.459	3232
3978.055	3242
3979.65	3330
3981.245	3294
3982.841	3360
3984.436	3255
3986.03	3335
3987.623	3246
3989.216	3141
3990.809	3258
3992.403	3157
3993.995	3247
3995.586	3185
3997.177	3256
3998.768	3216
4000.361	3219
4001.951	3199
4003.54	3279
4005.13	3249
4006.719	3186
4008.31	3156
4009.897	3115
4011.485	3208
4013.073	3200
4014.66	3169
4016.247	3161
4017.834	3182
4019.421	3161
4021.006	3117
4022.592	3141
4024.178	3109
4025.763	3118
4027.348	3113
4028.932	3135
4030.515	3142
4032.099	3139
4033.682	3147
4035.266	3059
4036.847	3065
4038.429	3152
4040.011	3078
4041.592	3062
4043.173	3101
4044.755	3142
4046.334	3104
4047.913	3155
4049.494	3101
4051.074	3103
4052.652	3151
4054.23	3050
4055.807	3041
4057.385	3057
4058.963	3089
4060.541	3118
4062.117	3076
4063.693	3047
4065.269	3094
4066.844	3041
4068.42	3044
4069.995	2988
4071.569	2992
4073.143	3081
4074.716	3113
4076.291	3111
4077.864	3106
4079.436	3095
4081.009	2959
4082.58	2993
4084.152	2982
4085.723	2949
4087.294	3038
4088.865	2992
4090.435	2977
4092.005	3052
4093.574	3056
4095.143	3111
4096.712	2958
4098.279	2983
4099.848	2956
4101.416	2972
4102.984	3015
4104.55	2991
4106.117	2982
4107.682	3050
4109.248	3070
4110.815	2988
4112.379	3018
4113.945	2935
4115.508	2964
4117.073	3010
4118.637	2965
4120.201	2998
4121.763	2917
4123.325	3021
4124.888	2965
4126.449	2894
4128.013	2953
4129.573	2924
4131.133	2874
4132.694	2967
4134.254	2899
4135.814	2968
4137.374	2927
4138.933	2896
4140.491	2969
4142.049	2930
4143.607	2933
4145.167	2950
4146.724	2934
4148.28	2851
4149.836	2845
4151.392	2932
4152.949	2915
4154.504	2859
4156.059	2830
4157.614	2888
4159.168	2861
4160.723	2865
4162.277	2809
4163.83	2794
4165.383	2870
4166.936	2786
4168.488	2848
4170.041	2868
4171.593	2834
4173.144	2785
4174.695	2793
4176.246	2779
4177.796	2833
4179.346	2836
4180.896	2817
4182.445	2811
4183.994	2825
4185.542	2807
4187.091	2829
4188.639	2737
4190.185	2791
4191.732	2785
4193.279	2809
4194.826	2872
4196.373	2852
4197.918	2763
4199.463	2812
4201.008	2702
4202.553	2750
4204.098	2730
4205.641	2807
4207.185	2759
4208.728	2776
4210.271	2814
4211.814	2774
4213.357	2788
4214.898	2707
4216.439	2694
4217.98	2799
4219.522	2800
4221.062	2678
4222.603	2780
4224.142	2717
4225.681	2715
4227.222	2755
4228.76	2769
4230.298	2762
4231.835	2690
4233.373	2707
4234.911	2711
4236.449	2767
4237.985	2739
4239.521	2729
4241.057	2702
4242.592	2709
4244.128	2769
4245.663	2714
4247.197	2690
4248.731	2694
4250.265	2678
4251.798	2758
4253.333	2691
4254.865	2742
4256.397	2713
4257.93	2712
4259.461	2695
4260.994	2694
4262.525	2679
4264.056	2739
4265.586	2709
4267.115	2736
4268.646	2719
4270.176	2719
4271.705	2746
4273.232	2673
4274.761	2622
4276.289	2656
4277.818	2620
4279.345	2724
4280.872	2688
4282.399	2596
4283.924	2647
4285.452	2657
4286.976	2615
4288.502	2639
4290.026	2678
4291.551	2636
4293.074	2589
4294.6	2640
4296.123	2640
4297.646	2618
4299.168	2604
4300.691	2678
4302.214	2570
4303.736	2591
4305.257	2669
4306.778	2583
4308.299	2557
4309.82	2598
4311.34	2637
4312.86	2573
4314.379	2630
