400.0745	4798
402.597	4807
405.1208	4756
407.6419	4783
410.1623	4843
412.6819	4741
415.201	4916
417.7172	4856
420.2369	5023
422.7538	4988
425.2701	5030
427.7856	5095
430.3005	5102
432.8147	5069
435.3282	5046
437.841	5116
440.3511	5138
442.8625	5204
445.3753	5059
447.8854	5056
450.3927	5197
452.9014	5141
455.4073	5169
457.9146	5071
460.4233	5133
462.9272	5174
465.4325	5141
467.935	5208
470.4389	5114
472.9421	5207
475.4446	5098
477.9444	5121
480.4456	5195
482.944	5146
485.4417	5304
487.9429	5229
490.4393	5282
492.935	5221
495.4321	5236
497.9264	5196
500.4221	5335
502.9171	5330
505.4094	5295
507.9011	5346
510.392	5350
512.8864	5394
515.3759	5292
517.8649	5319
520.3531	5412
522.8406	5292
525.3275	5439
527.8178	5330
530.3033	5462
532.7881	5400
535.2723	5459
537.7558	5379
540.2407	5378
542.7228	5355
545.2043	5386
547.6851	5377
550.1652	5387
552.6467	5417
555.1255	5329
557.6016	5465
560.079	5505
562.5557	5521
565.0318	5402
567.5092	5487
569.984	5415
572.456	5489
574.9294	5487
577.4022	5562
579.8762	5554
582.3456	5604
584.8163	5649
587.2863	5651
589.7557	5628
592.2224	5727
594.6924	5550
597.1578	5603
599.6245	5630
602.0905	5511
604.5538	5513
607.0206	5491
609.4825	5607
611.9459	5521
614.4066	5639
616.8686	5715
619.33	5532
621.7906	5469
624.2487	5520
626.708	5565
629.1647	5507
631.6207	5547
634.0801	5565
636.5348	5483
638.9888	5647
641.4442	5602
643.8969	5591
646.3509	5525
648.8022	5713
651.255	5670
653.705	5592
656.1544	5606
658.6031	5581
661.0532	5638
663.5026	5678
665.9493	5652
668.3954	5666
670.8409	5672
673.2877	5637
675.7318	5675
678.1752	5718
680.618	5810
683.0601	5684
685.5035	5772
687.9444	5751
690.3845	5749
692.824	5714
695.2628	5823
697.701	5917
700.1406	5795
702.5774	5771
705.0116	5719
707.4472	5816
709.8821	5932
712.3183	5833
714.7519	5875
717.1829	5847
719.6151	5877
722.0468	5865
724.4777	5913
726.908	6018
729.3377	5906
731.7667	5850
734.1931	6025
736.6208	5971
739.0498	5997
741.4742	5993
743.9	6042
746.3231	6049
748.7476	6022
751.1713	6141
753.5945	6097
756.015	6090
758.4368	6128
760.856	6101
763.2766	6210
765.6965	6186
768.1157	6203
770.5323	6124
772.9483	6252
775.3656	6090
777.7822	6050
780.1963	6250
782.6116	6212
785.0244	6146
787.4365	6130
789.8499	6205
792.2626	6295
794.6728	6199
797.0823	6343
799.4911	6175
801.8994	6273
804.3109	6190
806.7178	6210
809.124	6202
811.5297	6316
813.9347	6351
816.341	6426
818.7447	6279
821.1478	6455
823.5502	6305
825.952	6393
828.3531	6281
830.7556	6309
833.1554	6286
835.5546	6258
837.9532	6408
840.3511	6329
842.7504	6384
845.1451	6329
847.5411	6407
849.9365	6436
852.3312	6583
854.7272	6523
857.1187	6453
859.5115	6405
861.9037	6487
864.2952	6369
866.6842	6393
869.0764	6373
871.4661	6327
873.8531	6283
876.2415	6423
878.6272	6322
881.0162	6400
883.4026	6373
885.7866	6326
888.1717	6431
890.5543	6384
892.9382	6411
895.3215	6269
897.7041	6361
900.0842	6306
902.4655	6444
904.8443	6406
907.2244	6573
909.6039	6520
911.9808	6368
914.357	6452
916.7346	6531
919.1115	6546
921.4859	6655
923.8616	6603
926.2347	6673
928.6071	6771
930.979	6730
933.3541	6797
935.7247	6724
938.0946	6829
940.4639	6731
942.8326	6791
945.2026	6835
947.5701	6944
949.9369	6988
952.305	7159
954.6705	7273
957.0355	7471
959.4017	7655
961.7654	7813
964.1284	7745
966.4908	7654
968.8527	7561
971.2138	7237
973.5743	7112
975.9343	6805
978.2936	6878
980.6522	6828
983.0122	6683
985.3696	6679
987.7245	6762
990.0807	6524
992.4362	6508
994.7911	6626
997.1474	6663
999.4991	6677
1001.852	6674
1004.205	6587
1006.555	6570
1008.908	6647
1011.258	6602
1013.606	6642
1015.956	6714
1018.302	6581
1020.652	6629
1022.998	6712
1025.345	6677
1027.691	6802
1030.035	6683
1032.378	6660
1034.724	6805
1037.066	6635
1039.409	6739
1041.75	6696
1044.092	6725
1046.433	6809
1048.771	6693
1051.112	6910
1053.449	6729
1055.786	6692
1058.124	6839
1060.462	6825
1062.797	6747
1065.131	6759
1067.467	6883
1069.8	6826
1072.135	6952
1074.467	6844
1076.798	6907
1079.129	6779
1081.459	6855
1083.792	6827
1086.121	6902
1088.449	6804
1090.777	6728
1093.104	6750
1095.431	6672
1097.759	6743
1100.084	6768
1102.408	6721
1104.732	6805
1107.056	6759
1109.379	6795
1111.701	6727
1114.022	6907
1116.343	6854
1118.664	6664
1120.983	6744
1123.303	6880
1125.621	6872
1127.939	6857
1130.256	6883
1132.573	6843
1134.889	6845
1137.205	6787
1139.52	6825
1141.832	6859
1144.146	6787
1146.461	6653
1148.771	6791
1151.083	6802
1153.392	6776
1155.703	6769
1158.011	6815
1160.323	6788
1162.629	6760
1164.938	6838
1167.243	6803
1169.55	6854
1171.857	6738
1174.163	6867
1176.466	6774
1178.769	6850
1181.073	6862
1183.374	6895
1185.677	6818
1187.979	6755
1190.279	6873
1192.578	6995
1194.878	6941
1197.178	6776
1199.476	6850
1201.772	6829
1204.068	6809
1206.366	6914
1208.663	6770
1210.957	6798
1213.251	6897
1215.544	6916
1217.836	6787
1220.128	6862
1222.421	6872
1224.712	6989
1227.002	6847
1229.292	6880
1231.581	6922
1233.871	6864
1236.159	6939
1238.446	6951
1240.732	7080
1243.018	7114
1245.304	7099
1247.59	7044
1249.874	7219
1252.156	7049
1254.439	6990
1256.721	7164
1259.005	6972
1261.286	6994
1263.565	7062
1265.845	7023
1268.125	7088
1270.403	6910
1272.682	7135
1274.959	7182
1277.234	7049
1279.511	7039
1281.787	7104
1284.062	6991
1286.337	7066
1288.609	7070
1290.882	6888
1293.153	6993
1295.428	6977
1297.698	6967
1299.969	6996
1302.237	7054
1304.507	6984
1306.777	6904
1309.044	6971
1311.312	6970
1313.578	6918
1315.844	6910
1318.109	6975
1320.375	6937
1322.638	6870
1324.903	6976
1327.165	7005
1329.427	6933
1331.69	6956
1333.952	6950
1336.212	6924
1338.471	6899
1340.73	7016
1342.988	6882
1345.248	7002
1347.505	6929
1349.763	6906
1352.019	6989
1354.274	6988
1356.53	6982
1358.784	6981
1361.038	7019
1363.291	6943
1365.543	7017
1367.797	6988
1370.048	7068
1372.296	7040
1374.546	6966
1376.796	7110
1379.045	7059
1381.295	7004
1383.542	7072
1385.787	6933
1388.034	7040
1390.28	6992
1392.527	7035
1394.772	7014
1397.014	7143
1399.258	7130
1401.501	7066
1403.741	7125
1405.985	7235
1408.226	7083
1410.465	7128
1412.705	7106
1414.943	7097
1417.184	7170
1419.42	7174
1421.658	7138
1423.894	7145
1426.13	7194
1428.366	7183
1430.602	7150
1432.835	7327
1435.069	7251
1437.301	7252
1439.535	7242
1441.767	7256
1443.997	7348
1446.229	7347
1448.458	7340
1450.687	7276
1452.916	7290
1455.146	7269
1457.372	7387
1459.599	7376
1461.824	7224
1464.051	7271
1466.277	7321
1468.501	7271
1470.725	7254
1472.948	7232
1475.17	7131
1477.393	7141
1479.614	7095
1481.837	7069
1484.057	7004
1486.276	7016
1488.497	7016
1490.715	6910
1492.932	7017
1495.148	7028
1497.364	7037
1499.58	6953
1501.798	6922
1504.012	6962
1506.227	6971
1508.44	6826
1510.653	6900
1512.866	6990
1515.078	7014
1517.289	6906
1519.5	6882
1521.711	6951
1523.92	6998
1526.13	7018
1528.338	6994
1530.544	6944
1532.752	6943
1534.959	6932
1537.165	6986
1539.371	6959
1541.574	6948
1543.779	6890
1545.983	7012
1548.187	6982
1550.39	7017
1552.59	7031
1554.792	7002
1556.991	7003
1559.19	7088
1561.392	7040
1563.59	6923
1565.789	6996
1567.986	6968
1570.182	7182
1572.381	7148
1574.576	7135
1576.771	7154
1578.966	7074
1581.16	7012
1583.354	7228
1585.546	7149
1587.74	7119
1589.931	7171
1592.121	7095
1594.311	7081
1596.502	7111
1598.693	7343
1600.881	7050
1603.069	7131
1605.256	7112
1607.445	7169
1609.631	7283
1611.816	7105
1614.001	7206
1616.186	7136
1618.37	7177
1620.555	7140
1622.737	7263
1624.919	7205
1627.101	7137
1629.282	7217
1631.463	7230
1633.643	7266
1635.822	7082
1638.001	7360
1640.179	7160
1642.359	7209
1644.534	7255
1646.711	7295
1648.887	7300
1651.062	7262
1653.235	7293
1655.412	7402
1657.586	7331
1659.757	7396
1661.93	7125
1664.1	7289
1666.274	7237
1668.445	7285
1670.614	7316
1672.784	7279
1674.951	7270
1677.12	7383
1679.289	7284
1681.457	7338
1683.622	7233
1685.789	7257
1687.953	7293
1690.121	7358
1692.284	7186
1694.447	7263
1696.611	7310
1698.772	7105
1700.935	7163
1703.098	7078
1705.258	7002
1707.417	7170
1709.576	7257
1711.736	7009
1713.896	7155
1716.053	7174
1718.21	7115
1720.366	7070
1722.522	7150
1724.68	7141
1726.835	7136
1728.989	7075
1731.142	7132
1733.295	7115
1735.449	7082
1737.601	7053
1739.753	7187
1741.903	7143
1744.054	7068
1746.203	7252
1748.354	7084
1750.503	7121
1752.651	7058
1754.798	7083
1756.944	7198
1759.092	7180
1761.238	7007
1763.383	7249
1765.528	7091
1767.672	7089
1769.814	7135
1771.959	7187
1774.102	7062
1776.242	7299
1778.384	7111
1780.525	7110
1782.665	7174
1784.805	7259
1786.945	7123
1789.082	7052
1791.22	7147
1793.36	7043
1795.495	7237
1797.632	7058
1799.766	7166
1801.902	7274
1804.035	7242
1806.172	7094
1808.304	7255
1810.436	7160
1812.569	7195
1814.699	7134
1816.833	7146
1818.963	7123
1821.092	7205
1823.222	7113
1825.35	7202
1827.478	7184
1829.608	7122
1831.734	7184
1833.86	7192
1835.986	7143
1838.11	7052
1840.238	7155
1842.362	7184
1844.485	7229
1846.608	7112
1848.73	7103
1850.853	7033
1852.974	7034
1855.097	6945
1857.217	7194
1859.336	7083
1861.455	7013
1863.576	7125
1865.693	7009
1867.811	7069
1869.926	7017
1872.042	7072
1874.16	7159
1876.275	7109
1878.39	7078
1880.504	7015
1882.618	7086
1884.731	7079
1886.843	7065
1888.956	7154
1891.067	7129
1893.178	7061
1895.287	7036
1897.399	7116
1899.508	7219
1901.617	7153
1903.724	7072
1905.832	7153
1907.941	7162
1910.046	7118
1912.152	7224
1914.256	7250
1916.361	7233
1918.464	7146
1920.57	7154
1922.672	7075
1924.775	7178
1926.876	7097
1928.978	7206
1931.08	7141
1933.181	7158
1935.28	7173
1937.38	7094
1939.478	7153
1941.577	7222
1943.675	7191
1945.771	7281
1947.867	7079
1949.964	7228
1952.058	7212
1954.154	7058
1956.248	7153
1958.343	7170
1960.435	7170
1962.527	7250
1964.62	7177
1966.711	7227
1968.802	7210
1970.892	7130
1972.983	7222
1975.072	7213
1977.162	7240
1979.25	7113
1981.337	7082
1983.424	7288
1985.51	7204
1987.598	7213
1989.683	7104
1991.768	7164
1993.852	7200
1995.934	7068
1998.019	7028
2000.102	7040
2002.184	7144
2004.266	7081
2006.347	7193
2008.427	7045
2010.508	7045
2012.587	7094
2014.666	6948
2016.745	7047
2018.821	7032
2020.9	7067
2022.977	7111
2025.052	7060
2027.128	7121
2029.204	7019
2031.277	7146
2033.353	7143
2035.425	7056
2037.499	7065
2039.57	7121
2041.642	7074
2043.714	7106
2045.786	7010
2047.855	7035
2049.925	7143
2051.993	7082
2054.064	7064
2056.132	7117
2058.2	7261
2060.266	7017
2062.332	7178
2064.398	7154
2066.465	7067
2068.529	7058
2070.592	7049
2072.657	7086
2074.719	7131
2076.783	7210
2078.845	7053
2080.907	7182
2082.968	6989
2085.028	7177
2087.087	7015
2089.148	7122
2091.207	7123
2093.264	7116
2095.322	7119
2097.379	7095
2099.439	7161
2101.495	7128
2103.55	7042
2105.605	7031
2107.658	7080
2109.713	7004
2111.767	7129
2113.82	7087
2115.872	7147
2117.924	7060
2119.975	7092
2122.028	7084
2124.078	7092
2126.126	7132
2128.176	7087
2130.225	6990
2132.275	7013
2134.321	7025
2136.368	7101
2138.415	7108
2140.461	7012
2142.505	7106
2144.552	7009
2146.597	6986
2148.64	7005
2150.684	6961
2152.725	6927
2154.77	7013
2156.811	7071
2158.852	6939
2160.894	6967
2162.933	6908
2164.973	6978
2167.013	7082
2169.051	7029
2171.089	6962
2173.126	7071
2175.164	7025
2177.201	6930
2179.236	7001
2181.273	6971
2183.307	6933
2185.341	6963
2187.377	6998
2189.41	6951
2191.442	7011
2193.473	6785
2195.506	6848
2197.539	6915
2199.569	6853
2201.598	6855
2203.628	6836
2205.656	6807
2207.686	6862
2209.716	7060
2211.743	6924
2213.769	6927
2215.796	6894
2217.821	6839
2219.848	6929
2221.873	6823
2223.897	6932
2225.921	6777
2227.944	6874
2229.967	6892
2231.991	6932
2234.011	6982
2236.032	6881
2238.053	6755
2240.073	6824
2242.094	6825
2244.114	6860
2246.131	6847
2248.149	6806
2250.167	6764
2252.186	6908
2254.201	6872
2256.218	6838
2258.233	6786
2260.247	6770
2262.262	6758
2264.278	6778
2266.29	6779
2268.303	6804
2270.315	6826
2272.327	6815
2274.341	6856
2276.35	6837
2278.361	6866
2280.37	6749
2282.38	6871
2284.388	6916
2286.397	6762
2288.405	6927
2290.412	6864
2292.419	6794
2294.425	6836
2296.431	6722
2298.437	6880
2300.441	6806
2302.445	6816
2304.449	6734
2306.453	6778
2308.455	6777
2310.457	6762
2312.459	6731
2314.46	6759
2316.46	6824
2318.461	6799
2320.46	6811
2322.458	6840
2324.458	6725
2326.456	6727
2328.455	6740
2330.451	6731
2332.447	6652
2334.443	6742
2336.438	6769
2338.433	6765
2340.429	6777
2342.422	6706
2344.416	6684
2346.408	6610
2348.399	6629
2350.393	6625
2352.384	6689
2354.375	6713
2356.365	6617
2358.355	6679
2360.344	6565
2362.333	6672
2364.322	6649
2366.309	6682
2368.295	6676
2370.282	6715
2372.27	6614
2374.256	6521
2376.24	6735
2378.225	6528
2380.208	6594
2382.194	6656
2384.177	6682
2386.159	6626
2388.142	6510
2390.122	6573
2392.105	6510
2394.085	6521
2396.066	6521
2398.044	6659
2400.024	6599
2402.002	6569
2403.982	6513
2405.959	6655
2407.935	6547
2409.913	6570
2411.888	6644
2413.865	6565
2415.84	6412
2417.814	6448
2419.788	6522
2421.762	6568
2423.735	6454
2425.708	6516
2427.68	6578
2429.651	6633
2431.623	6568
2433.593	6534
2435.564	6584
2437.533	6436
2439.502	6548
2441.47	6564
2443.438	6657
2445.406	6650
2447.373	6547
2449.34	6526
2451.305	6451
2453.271	6568
2455.235	6350
2457.201	6494
2459.165	6472
2461.129	6547
2463.092	6486
2465.054	6421
2467.018	6473
2468.978	6544
2470.939	6506
2472.899	6396
2474.86	6496
2476.819	6477
2478.778	6543
2480.737	6491
2482.695	6516
2484.653	6420
2486.609	6378
2488.567	6424
2490.524	6512
2492.478	6422
2494.433	6416
2496.387	6427
2498.343	6408
2500.297	6313
2502.249	6509
2504.202	6440
2506.153	6412
2508.105	6479
2510.057	6492
2512.008	6418
2513.957	6485
2515.906	6372
2517.855	6387
2519.805	6419
2521.754	6532
2523.7	6465
2525.647	6449
2527.594	6344
2529.54	6445
2531.486	6560
2533.431	6447
2535.376	6334
2537.32	6408
2539.263	6416
2541.207	6497
2543.151	6297
2545.093	6397
2547.034	6377
2548.975	6287
2550.917	6349
2552.856	6453
2554.796	6480
2556.735	6451
2558.673	6436
2560.611	6363
2562.55	6325
2564.487	6421
2566.424	6380
2568.36	6342
2570.296	6414
2572.232	6333
2574.167	6452
2576.101	6279
2578.035	6366
2579.969	6365
2581.902	6350
2583.834	6329
2585.766	6369
2587.698	6328
2589.628	6429
2591.557	6345
2593.489	6400
2595.419	6390
2597.348	6329
2599.275	6514
2601.204	6404
2603.131	6360
2605.059	6366
2606.986	6368
2608.911	6392
2610.837	6481
2612.76	6286
2614.687	6382
2616.61	6306
2618.534	6405
2620.457	6360
2622.38	6401
2624.302	6404
2626.225	6320
2628.145	6335
2630.067	6319
2631.986	6378
2633.906	6439
2635.827	6517
2637.745	6349
2639.662	6435
2641.581	6288
2643.498	6404
2645.415	6355
2647.331	6384
2649.248	6342
2651.163	6276
2653.077	6370
2654.993	6320
2656.906	6363
2658.821	6404
2660.733	6310
2662.646	6466
2664.557	6247
2666.47	6260
2668.381	6489
2670.291	6340
2672.201	6388
2674.11	6370
2676.021	6398
2677.929	6334
2679.837	6316
2681.745	6304
2683.652	6254
2685.56	6311
2687.466	6242
2689.371	6308
2691.276	6302
2693.181	6246
2695.085	6284
2696.991	6154
2698.893	6248
2700.796	6283
2702.698	6299
2704.601	6212
2706.502	6267
2708.404	6196
2710.304	6120
2712.203	6195
2714.103	6293
2716.003	6199
2717.902	6192
2719.8	6269
2721.697	6182
2723.594	6251
2725.49	6094
2727.389	6203
2729.283	6235
2731.179	6270
2733.073	6219
2734.968	6289
2736.863	6215
2738.757	6120
2740.649	6227
2742.541	6249
2744.433	6240
2746.324	6126
2748.216	6247
2750.107	6168
2751.997	6247
2753.886	6128
2755.776	6197
2757.666	6085
2759.553	6284
2761.44	6182
2763.327	6205
2765.215	6084
2767.102	6102
2768.988	6148
2770.873	6143
2772.757	6126
2774.641	6068
2776.525	6187
2778.41	6086
2780.292	6080
2782.175	6137
2784.057	6198
2785.938	6088
2787.821	6183
2789.701	6142
2791.581	6129
2793.461	6060
2795.34	6140
2797.219	6118
2799.099	6150
2800.975	6047
2802.853	6058
2804.73	6019
2806.606	6096
2808.484	6077
2810.358	5955
2812.233	6122
2814.108	6046
2815.981	6109
2817.857	6137
2819.73	5958
2821.602	6084
2823.474	5974
2825.346	6143
2827.217	6019
2829.089	6081
2830.959	6117
2832.829	6116
2834.698	6148
2836.567	6089
2838.436	6004
2840.305	6028
2842.172	6202
2844.04	6058
2845.905	6175
2847.772	6100
2849.639	6199
2851.503	6107
2853.369	6143
2855.232	6173
2857.096	6145
2858.961	6178
2860.824	6165
2862.686	6246
2864.547	6319
2866.41	6255
2868.272	6240
2870.132	6196
2871.992	6223
2873.851	6372
2875.711	6466
2877.57	6463
2879.429	6465
2881.287	6584
2883.144	6395
2885.001	6454
2886.857	6508
2888.714	6503
2890.57	6602
2892.425	6549
2894.279	6537
2896.133	6426
2897.987	6541
2899.842	6476
2901.694	6557
2903.547	6533
2905.397	6521
2907.249	6461
2909.101	6619
2910.952	6394
2912.802	6636
2914.652	6611
2916.5	6715
2918.35	6666
2920.198	6694
2922.045	6721
2923.893	6777
2925.74	6883
2927.585	6931
2929.433	6959
2931.279	6981
2933.123	6994
2934.968	7030
2936.811	7033
2938.656	7213
2940.5	7078
2942.342	7124
2944.185	7234
2946.026	7232
2947.87	7265
2949.71	7233
2951.549	7100
2953.39	7194
2955.229	7128
2957.069	7112
2958.908	6985
2960.746	6982
2962.584	6989
2964.421	6865
2966.257	6826
2968.094	6771
2969.931	6739
2971.766	6603
2973.601	6725
2975.435	6575
2977.27	6667
2979.105	6577
2980.938	6531
2982.77	6571
2984.602	6538
2986.434	6546
2988.267	6469
2990.097	6568
2991.927	6389
2993.757	6376
2995.587	6326
2997.417	6250
2999.246	6264
3001.074	6220
3002.902	6234
3004.729	6161
3006.556	6069
3008.384	6150
3010.21	5925
3012.036	5874
3013.861	5900
3015.684	5865
3017.51	6031
3019.334	5916
3021.157	5885
3022.981	5813
3024.802	5812
3026.624	5818
3028.448	5729
3030.267	5806
3032.088	5724
3033.909	5798
3035.728	5785
3037.549	5731
3039.368	5702
3041.186	5744
3043.004	5730
3044.821	5747
3046.64	5707
3048.455	5727
3050.272	5678
3052.087	5676
3053.903	5709
3055.717	5688
3057.534	5712
3059.347	5646
3061.16	5711
3062.974	5714
3064.785	5666
3066.598	5655
3068.411	5788
3070.222	5607
3072.032	5694
3073.844	5669
3075.653	5772
3077.463	5625
3079.272	5626
3081.08	5680
3082.889	5589
3084.697	5490
3086.505	5511
3088.312	5532
3090.118	5620
3091.924	5434
3093.729	5589
3095.535	5598
3097.34	5529
3099.144	5473
3100.947	5384
3102.75	5574
3104.553	5501
3106.357	5565
3108.159	5417
3109.961	5501
3111.762	5451
3113.562	5478
3115.365	5445
3117.164	5528
3118.964	5483
3120.761	5343
3122.56	5450
3124.36	5469
3126.158	5387
3127.954	5411
3129.75	5365
3131.547	5569
3133.343	5324
3135.139	5523
3136.934	5440
3138.729	5383
3140.522	5465
3142.317	5343
3144.11	5414
3145.904	5485
3147.695	5386
3149.488	5390
3151.28	5391
3153.07	5346
3154.863	5318
3156.652	5396
3158.441	5438
3160.231	5329
3162.019	5365
3163.81	5378
3165.597	5383
3167.384	5283
3169.172	5309
3170.958	5361
3172.745	5292
3174.532	5383
3176.317	5316
3178.101	5396
3179.885	5254
3181.67	5298
3183.455	5319
3185.238	5372
3187.02	5243
3188.802	5275
3190.585	5294
3192.368	5237
3194.149	5285
3195.929	5335
3197.709	5267
3199.489	5312
3201.268	5265
3203.048	5313
3204.826	5357
3206.604	5229
3208.382	5349
3210.159	5267
3211.937	5278
3213.713	5210
3215.489	5288
3217.263	5363
3219.038	5340
3220.815	5296
3222.589	5307
3224.363	5216
3226.136	5279
3227.908	5270
3229.681	5317
3231.454	5280
3233.226	5177
3234.996	5326
3236.767	5294
3238.538	5321
3240.308	5217
3242.078	5274
3243.847	5340
3245.615	5244
3247.384	5274
3249.15	5271
3250.92	5221
3252.686	5231
3254.453	5255
3256.218	5268
3257.984	5241
3259.75	5175
3261.515	5252
3263.279	5229
3265.044	5335
3266.806	5236
3268.57	5288
3270.334	5245
3272.095	5309
3273.856	5320
3275.619	5390
3277.379	5343
3279.14	5204
3280.9	5275
3282.661	5252
3284.419	5304
3286.178	5296
3287.937	5131
3289.695	5222
3291.453	5347
3293.21	5186
3294.967	5181
3296.723	5202
3298.48	5234
3300.235	5251
3301.99	5313
3303.744	5228
3305.498	5350
3307.253	5205
3309.006	5316
3310.759	5227
3312.511	5333
3314.263	5265
3316.017	5295
3317.768	5253
3319.519	5260
3321.268	5268
3323.018	5161
3324.767	5249
3326.518	5181
3328.267	5202
3330.014	5342
3331.762	5247
3333.509	5184
3335.258	5217
3337.003	5207
3338.75	5264
3340.496	5348
3342.24	5177
3343.987	5287
3345.732	5177
3347.475	5136
3349.219	5104
3350.961	5171
3352.705	5065
3354.448	5252
3356.19	5213
3357.931	5133
3359.672	5180
3361.412	5115
3363.155	5170
3364.894	5259
3366.633	5044
3368.372	5143
3370.11	5046
3371.849	4996
3373.588	5041
3375.325	5113
3377.061	5172
3378.799	5077
3380.534	5122
3382.271	5092
3384.006	5129
3385.741	5059
3387.475	5063
3389.209	5030
3390.944	5110
3392.677	5190
3394.409	5030
3396.143	5078
3397.874	5019
3399.606	5014
3401.338	5071
3403.069	5061
3404.799	5026
3406.528	5094
3408.258	4916
3409.988	5120
3411.717	5001
3413.445	5110
3415.173	4996
3416.899	4959
3418.626	5052
3420.354	4941
3422.08	4987
3423.806	4977
3425.531	4948
3427.255	5005
3428.981	4981
3430.705	4942
3432.429	4960
3434.151	5072
3435.875	5039
3437.599	5012
3439.321	4958
3441.042	5036
3442.763	4993
3444.483	4902
3446.204	4960
3447.926	4977
3449.645	4862
3451.364	4971
3453.082	4865
3454.801	5011
3456.52	4828
3458.238	4947
3459.954	4873
3461.671	4895
3463.387	4836
3465.104	4877
3466.82	4824
3468.534	4744
3470.25	4818
3471.963	4808
3473.676	4804
3475.392	4816
3477.104	4844
3478.817	4815
3480.528	4792
3482.241	4833
3483.954	4784
3485.664	4822
3487.374	4830
3489.084	4764
3490.795	4751
3492.504	4821
3494.214	4760
3495.922	4696
3497.63	4698
3499.338	4603
3501.045	4704
3502.753	4737
3504.459	4588
3506.166	4744
3507.871	4734
3509.576	4625
3511.283	4645
3512.987	4653
3514.691	4790
3516.395	4705
3518.098	4721
3519.8	4753
3521.504	4676
3523.206	4708
3524.908	4641
3526.609	4666
3528.309	4626
3530.011	4752
3531.711	4597
3533.411	4640
3535.109	4678
3536.808	4580
3538.507	4723
3540.206	4576
3541.904	4630
3543.601	4664
3545.297	4660
3546.994	4598
3548.69	4556
3550.387	4623
3552.081	4644
3553.776	4619
3555.47	4617
3557.166	4522
3558.859	4721
3560.553	4566
3562.245	4660
3563.938	4558
3565.629	4584
3567.322	4476
3569.014	4586
3570.704	4543
3572.394	4533
3574.084	4507
3575.775	4589
3577.464	4467
3579.152	4516
3580.842	4543
3582.529	4595
3584.216	4534
3585.905	4514
3587.591	4520
3589.279	4460
3590.964	4509
3592.649	4505
3594.336	4435
3596.021	4365
3597.705	4480
3599.388	4436
3601.072	4431
3602.757	4395
3604.439	4380
3606.122	4426
3607.803	4354
3609.485	4425
3611.167	4486
3612.849	4421
3614.529	4354
3616.208	4477
3617.888	4396
3619.567	4360
3621.247	4440
3622.926	4380
3624.603	4338
3626.281	4277
3627.958	4342
3629.635	4296
3631.312	4351
3632.989	4343
3634.665	4335
3636.339	4289
3638.014	4362
3639.691	4351
3641.364	4334
3643.038	4402
3644.71	4254
3646.384	4324
3648.058	4273
3649.729	4247
3651.402	4292
3653.073	4322
3654.744	4262
3656.414	4317
3658.085	4181
3659.755	4166
3661.424	4327
3663.094	4276
3664.762	4264
3666.431	4294
3668.099	4223
3669.766	4276
3671.433	4333
3673.099	4212
3674.768	4305
3676.433	4271
3678.098	4198
3679.763	4253
3681.428	4262
3683.093	4225
3684.757	4227
3686.421	4304
3688.083	4196
3689.746	4182
3691.408	4183
3693.071	4212
3694.733	4189
3696.394	4275
3698.054	4225
3699.715	4218
3701.375	4176
3703.036	4222
3704.695	4159
3706.354	4224
3708.012	4189
3709.67	4269
3711.329	4158
3712.987	4185
3714.644	4262
3716.299	4182
3717.955	4134
3719.613	4059
3721.268	4173
3722.923	4136
3724.577	4096
3726.231	4116
3727.885	4191
3729.539	4127
3731.192	4224
3732.845	4100
3734.497	4192
3736.149	4129
3737.802	4180
3739.453	4135
3741.104	4193
3742.753	4108
3744.404	4111
3746.052	4106
3747.704	4069
3749.352	4145
3751	4048
3752.648	4114
3754.296	4104
3755.944	4202
3757.59	4075
3759.238	4076
3760.883	4123
3762.528	4063
3764.176	4051
3765.82	4007
3767.464	4051
3769.109	4185
3770.753	4057
3772.396	4082
3774.04	4018
3775.683	4088
3777.325	4107
3778.967	4109
3780.608	4075
3782.25	4056
3783.89	4123
3785.531	4067
3787.17	4058
3788.81	4023
3790.45	4092
3792.09	3995
3793.729	4004
3795.366	4036
3797.003	4036
3798.64	4048
3800.278	3983
3801.915	4054
3803.551	3900
3805.187	4026
3806.822	3997
3808.458	4037
3810.093	4013
3811.726	3972
3813.36	3994
3814.994	4009
3816.627	3956
3818.262	4006
3819.893	3921
3821.525	4009
3823.157	4040
3824.787	3962
3826.42	3997
3828.051	3915
3829.68	3993
3831.31	3934
3832.938	3946
3834.569	4028
3836.198	4034
3837.825	3938
3839.454	3943
3841.08	3927
3842.708	3956
3844.335	3962
3845.962	3910
3847.587	3975
3849.212	3915
3850.838	3949
3852.463	3970
3854.089	3872
3855.712	3973
3857.335	3993
3858.959	3917
3860.582	3872
3862.205	3864
3863.827	3842
3865.449	3900
3867.07	3869
3868.691	3908
3870.312	3883
3871.933	3958
3873.553	3810
3875.173	3900
3876.792	3847
3878.411	3896
3880.03	3919
3881.647	3846
3883.265	3922
3884.882	3842
3886.499	3849
3888.116	3895
3889.732	3794
3891.348	3880
3892.964	3854
3894.579	3848
3896.195	3858
3897.809	3888
3899.423	3968
3901.036	3879
3902.648	3878
3904.261	3796
3905.875	3768
3907.487	3861
3909.099	3808
3910.709	3871
3912.321	3846
3913.933	3814
3915.542	3851
3917.152	3815
3918.762	3760
3920.37	3795
3921.98	3794
3923.589	3776
3925.196	3863
3926.804	3864
3928.41	3794
3930.018	3832
3931.626	3837
3933.231	3782
3934.838	3790
3936.442	3782
3938.046	3744
3939.653	3754
3941.257	3786
3942.861	3771
3944.464	3806
3946.068	3795
3947.67	3852
3949.273	3766
3950.876	3800
3952.477	3702
3954.078	3821
3955.678	3729
3957.281	3718
3958.881	3735
3960.48	3755
3962.079	3732
3963.678	3823
3965.279	3778
3966.877	3735
3968.475	3755
3970.072	3731
3971.669	3746
3973.266	3758
3974.864	3766
3976.459	3690
3978.055	3782
3979.65	3697
3981.245	3778
3982.841	3712
3984.436	3680
3986.03	3743
3987.623	3689
3989.216	3790
3990.809	3776
3992.403	3693
3993.995	3703
3995.586	3662
3997.177	3697
3998.768	3713
4000.361	3675
4001.951	3633
4003.54	3648
4005.13	3704
4006.719	3583
4008.31	3661
4009.897	3619
4011.485	3675
4013.073	3647
4014.66	3635
4016.247	3681
4017.834	3695
4019.421	3739
4021.006	3618
4022.592	3651
4024.178	3698
4025.763	3490
4027.348	3655
4028.932	3558
4030.515	3633
4032.099	3599
4033.682	3572
4035.266	3625
4036.847	3586
4038.429	3569
4040.011	3562
4041.592	3592
4043.173	3553
4044.755	3499
4046.334	3586
4047.913	3645
4049.494	3531
4051.074	3564
4052.652	3483
4054.23	3520
4055.807	3579
4057.385	3541
4058.963	3533
4060.541	3622
4062.117	3587
4063.693	3525
4065.269	3490
4066.844	3545
4068.42	3445
4069.995	3466
4071.569	3527
4073.143	3528
4074.716	3454
4076.291	3533
4077.864	3523
4079.436	3532
4081.009	3427
4082.58	3568
4084.152	3531
4085.723	3446
4087.294	3492
4088.865	3491
4090.435	3453
4092.005	3503
4093.574	3476
4095.143	3432
4096.712	3517
4098.279	3518
4099.848	3492
4101.416	3538
4102.984	3531
4104.55	3527
4106.117	3491
4107.682	3490
4109.248	3502
4110.815	3503
4112.379	3432
4113.945	3475
4115.508	3471
4117.073	3476
4118.637	3491
4120.201	3486
4121.763	3508
4123.325	3524
4124.888	3368
4126.449	3431
4128.013	3458
4129.573	3442
4131.133	3460
4132.694	3356
4134.254	3411
4135.814	3490
4137.374	3445
4138.933	3337
4140.491	3475
4142.049	3428
4143.607	3443
4145.167	3399
4146.724	3336
4148.28	3376
4149.836	3382
4151.392	3338
4152.949	3388
4154.504	3411
4156.059	3516
4157.614	3397
4159.168	3424
4160.723	3392
4162.277	3310
4163.83	3354
4165.383	3309
4166.936	3323
4168.488	3305
4170.041	3305
4171.593	3317
4173.144	3405
4174.695	3389
4176.246	3385
4177.796	3318
4179.346	3316
4180.896	3281
4182.445	3319
4183.994	3296
4185.542	3268
4187.091	3384
4188.639	3289
4190.185	3246
4191.732	3213
4193.279	3329
4194.826	3268
4196.373	3290
4197.918	3249
4199.463	3310
4201.008	3319
4202.553	3288
4204.098	3298
4205.641	3333
4207.185	3320
4208.728	3277
4210.271	3235
4211.814	3304
4213.357	3254
4214.898	3308
4216.439	3243
4217.98	3221
4219.522	3283
4221.062	3300
4222.603	3219
4224.142	3253
4225.681	3229
4227.222	3260
4228.76	3243
4230.298	3322
4231.835	3197
4233.373	3299
4234.911	3200
4236.449	3277
4237.985	3238
4239.521	3155
4241.057	3245
4242.592	3239
4244.128	3291
4245.663	3218
4247.197	3341
4248.731	3234
4250.265	3188
4251.798	3262
4253.333	3212
4254.865	3215
4256.397	3162
4257.93	3259
4259.461	3272
4260.994	3192
4262.525	3186
4264.056	3198
4265.586	3244
4267.115	3219
4268.646	3232
4270.176	3255
4271.705	3249
4273.232	3211
4274.761	3192
4276.289	3187
4277.818	3184
4279.345	3222
4280.872	3176
4282.399	3220
4283.924	3175
4285.452	3224
4286.976	3194
4288.502	3194
4290.026	3299
4291.551	3186
4293.074	3146
4294.6	3179
4296.123	3180
4297.646	3153
4299.168	3087
4300.691	3251
4302.214	3114
4303.736	3222
4305.257	3168
4306.778	3156
4308.299	3141
4309.82	3139
4311.34	3161
4312.86	3111
4314.379	3140
