400.0745	3822
402.597	3805
405.1208	3773
407.6419	3754
410.1623	3876
412.6819	3894
415.201	3959
417.7172	3877
420.2369	3985
422.7538	4029
425.2701	3938
427.7856	4073
430.3005	4070
432.8147	4128
435.3282	4173
437.841	4061
440.3511	4124
442.8625	4065
445.3753	4105
447.8854	4166
450.3927	4098
452.9014	4029
455.4073	4049
457.9146	4073
460.4233	4144
462.9272	3998
465.4325	4107
467.935	4093
470.4389	4004
472.9421	4018
475.4446	4085
477.9444	4095
480.4456	4117
482.944	4086
485.4417	4161
487.9429	4065
490.4393	4169
492.935	4047
495.4321	4146
497.9264	4170
500.4221	4201
502.9171	4139
505.4094	4192
507.9011	4177
510.392	4068
512.8864	4202
515.3759	4266
517.8649	4109
520.3531	4213
522.8406	4221
525.3275	4283
527.8178	4194
530.3033	4236
532.7881	4251
535.2723	4214
537.7558	4201
540.2407	4256
542.7228	4221
545.2043	4330
547.6851	4151
550.1652	4195
552.6467	4264
555.1255	4357
557.6016	4250
560.079	4314
562.5557	4354
565.0318	4185
567.5092	4290
569.984	4355
572.456	4277
574.9294	4317
577.4022	4356
579.8762	4378
582.3456	4442
584.8163	4336
587.2863	4488
589.7557	4391
592.2224	4423
594.6924	4381
597.1578	4403
599.6245	4436
602.0905	4360
604.5538	4440
607.0206	4390
609.4825	4393
611.9459	4409
614.4066	4414
616.8686	4370
619.33	4375
621.7906	4413
624.2487	4356
626.708	4346
629.1647	4328
631.6207	4415
634.0801	4325
636.5348	4418
638.9888	4377
641.4442	4459
643.8969	4430
646.3509	4420
648.8022	4470
651.255	4401
653.705	4383
656.1544	4464
658.6031	4473
661.0532	4396
663.5026	4483
665.9493	4401
668.3954	4545
670.8409	4374
673.2877	4402
675.7318	4367
678.1752	4484
680.618	4516
683.0601	4477
685.5035	4556
687.9444	4607
690.3845	4601
692.824	4522
695.2628	4511
697.701	4603
700.1406	4458
702.5774	4520
705.0116	4584
707.4472	4544
709.8821	4573
712.3183	4625
714.7519	4628
717.1829	4561
719.6151	4722
722.0468	4663
724.4777	4665
726.908	4598
729.3377	4653
731.7667	4648
734.1931	4751
736.6208	4724
739.0498	4669
741.4742	4672
743.9	4667
746.3231	4798
748.7476	4728
751.1713	4814
753.5945	4800
756.015	4871
758.4368	4853
760.856	4836
763.2766	4806
765.6965	4794
768.1157	4840
770.5323	4869
772.9483	4823
775.3656	4796
777.7822	4850
780.1963	4909
782.6116	4724
785.0244	4799
787.4365	4860
789.8499	4835
792.2626	4785
794.6728	4859
797.0823	4857
799.4911	4859
801.8994	5001
804.3109	4856
806.7178	4917
809.124	4891
811.5297	4902
813.9347	4971
816.341	4845
818.7447	5012
821.1478	4917
823.5502	4907
825.952	4947
828.3531	4921
830.7556	4985
833.1554	4879
835.5546	5038
837.9532	4966
840.3511	4928
842.7504	4938
845.1451	4939
847.5411	5033
849.9365	4989
852.3312	5181
854.7272	5115
857.1187	5004
859.5115	5102
861.9037	4990
864.2952	5090
866.6842	5101
869.0764	4996
871.4661	5024
873.8531	5042
876.2415	5116
878.6272	5017
881.0162	4969
883.4026	4930
885.7866	5024
888.1717	4978
890.5543	4978
892.9382	4963
895.3215	5038
897.7041	4938
900.0842	5030
902.4655	5032
904.8443	5005
907.2244	5050
909.6039	5137
911.9808	5124
914.357	5064
916.7346	5256
919.1115	5280
921.4859	5332
923.8616	5199
926.2347	5240
928.6071	5404
930.979	5227
933.3541	5309
935.7247	5240
938.0946	5250
940.4639	5291
942.8326	5316
945.2026	5338
947.5701	5376
949.9369	5430
952.305	5706
954.6705	5671
957.0355	5946
959.4017	6027
961.7654	6129
964.1284	6120
966.4908	6057
968.8527	5829
971.2138	5659
973.5743	5489
975.9343	5378
978.2936	5346
980.6522	5289
983.0122	5263
985.3696	5292
987.7245	5116
990.0807	5184
992.4362	5213
994.7911	5112
997.1474	5252
999.4991	5264
1001.852	5245
1004.205	5253
1006.555	5210
1008.908	5142
1011.258	5302
1013.606	5189
1015.956	5228
1018.302	5213
1020.652	5240
1022.998	5269
1025.345	5222
1027.691	5252
1030.035	5157
1032.378	5354
1034.724	5344
1037.066	5293
1039.409	5219
1041.75	5273
1044.092	5446
1046.433	5326
1048.771	5279
1051.112	5277
1053.449	5233
1055.786	5250
1058.124	5354
1060.462	5309
1062.797	5305
1065.131	5336
1067.467	5283
1069.8	5268
1072.135	5432
1074.467	5339
1076.798	5356
1079.129	5418
1081.459	5348
1083.792	5355
1086.121	5433
1088.449	5313
1090.777	5255
1093.104	5254
1095.431	5289
1097.759	5318
1100.084	5278
1102.408	5307
1104.732	5318
1107.056	5348
1109.379	5286
1111.701	5307
1114.022	5269
1116.343	5339
1118.664	5213
1120.983	5392
1123.303	5282
1125.621	5410
1127.939	5419
1130.256	5423
1132.573	5410
1134.889	5327
1137.205	5296
1139.52	5325
1141.832	5327
1144.146	5288
1146.461	5360
1148.771	5338
1151.083	5304
1153.392	5354
1155.703	5246
1158.011	5258
1160.323	5366
1162.629	5368
1164.938	5248
1167.243	5353
1169.55	5315
1171.857	5288
1174.163	5351
1176.466	5310
1178.769	5340
1181.073	5382
1183.374	5286
1185.677	5321
1187.979	5327
1190.279	5403
1192.578	5371
1194.878	5242
1197.178	5341
1199.476	5308
1201.772	5325
1204.068	5393
1206.366	5304
1208.663	5362
1210.957	5427
1213.251	5331
1215.544	5334
1217.836	5361
1220.128	5259
1222.421	5391
1224.712	5380
1227.002	5421
1229.292	5576
1231.581	5483
1233.871	5531
1236.159	5475
1238.446	5513
1240.732	5604
1243.018	5707
1245.304	5604
1247.59	5711
1249.874	5580
1252.156	5561
1254.439	5623
1256.721	5589
1259.005	5534
1261.286	5583
1263.565	5615
1265.845	5497
1268.125	5577
1270.403	5583
1272.682	5547
1274.959	5549
1277.234	5600
1279.511	5517
1281.787	5453
1284.062	5635
1286.337	5582
1288.609	5529
1290.882	5548
1293.153	5512
1295.428	5425
1297.698	5396
1299.969	5453
1302.237	5499
1304.507	5413
1306.777	5481
1309.044	5428
1311.312	5464
1313.578	5435
1315.844	5429
1318.109	5486
1320.375	5517
1322.638	5457
1324.903	5489
1327.165	5472
1329.427	5402
1331.69	5456
1333.952	5460
1336.212	5379
1338.471	5535
1340.73	5549
1342.988	5513
1345.248	5545
1347.505	5519
1349.763	5466
1352.019	5396
1354.274	5320
1356.53	5403
1358.784	5318
1361.038	5463
1363.291	5489
1365.543	5473
1367.797	5523
1370.048	5486
1372.296	5472
1374.546	5476
1376.796	5527
1379.045	5505
1381.295	5491
1383.542	5435
1385.787	5479
1388.034	5478
1390.28	5591
1392.527	5554
1394.772	5662
1397.014	5647
1399.258	5590
1401.501	5608
1403.741	5694
1405.985	5722
1408.226	5530
1410.465	5550
1412.705	5644
1414.943	5609
1417.184	5698
1419.42	5608
1421.658	5613
1423.894	5594
1426.13	5710
1428.366	5665
1430.602	5570
1432.835	5684
1435.069	5816
1437.301	5636
1439.535	5606
1441.767	5757
1443.997	5620
1446.229	5758
1448.458	5730
1450.687	5786
1452.916	5784
1455.146	5789
1457.372	5747
1459.599	5887
1461.824	5793
1464.051	5698
1466.277	5782
1468.501	5728
1470.725	5663
1472.948	5674
1475.17	5563
1477.393	5605
1479.614	5620
1481.837	5475
1484.057	5585
1486.276	5513
1488.497	5362
1490.715	5470
1492.932	5442
1495.148	5557
1497.364	5421
1499.58	5447
1501.798	5466
1504.012	5401
1506.227	5476
1508.44	5316
1510.653	5401
1512.866	5420
1515.078	5401
1517.289	5406
1519.5	5474
1521.711	5525
1523.92	5390
1526.13	5418
1528.338	5314
1530.544	5472
1532.752	5367
1534.959	5378
1537.165	5500
1539.371	5503
1541.574	5438
1543.779	5498
1545.983	5406
1548.187	5435
1550.39	5447
1552.59	5491
1554.792	5509
1556.991	5506
1559.19	5397
1561.392	5413
1563.59	5526
1565.789	5401
1567.986	5480
1570.182	5626
1572.381	5485
1574.576	5481
1576.771	5435
1578.966	5471
1581.16	5472
1583.354	5461
1585.546	5523
1587.74	5575
1589.931	5542
1592.121	5654
1594.311	5648
1596.502	5584
1598.693	5630
1600.881	5582
1603.069	5651
1605.256	5642
1607.445	5650
1609.631	5575
1611.816	5594
1614.001	5535
1616.186	5638
1618.37	5544
1620.555	5619
1622.737	5624
1624.919	5564
1627.101	5524
1629.282	5746
1631.463	5598
1633.643	5635
1635.822	5678
1638.001	5650
1640.179	5648
1642.359	5669
1644.534	5699
1646.711	5757
1648.887	5598
1651.062	5760
1653.235	5797
1655.412	5760
1657.586	5680
1659.757	5698
1661.93	5751
1664.1	5777
1666.274	5736
1668.445	5860
1670.614	5750
1672.784	5711
1674.951	5769
1677.12	5820
1679.289	5780
1681.457	5707
1683.622	5745
1685.789	5603
1687.953	5700
1690.121	5738
1692.284	5725
1694.447	5772
1696.611	5646
1698.772	5728
1700.935	5471
1703.098	5651
1705.258	5664
1707.417	5602
1709.576	5491
1711.736	5666
1713.896	5591
1716.053	5509
1718.21	5468
1720.366	5526
1722.522	5521
1724.68	5536
1726.835	5453
1728.989	5547
1731.142	5617
1733.295	5483
1735.449	5640
1737.601	5586
1739.753	5556
1741.903	5444
1744.054	5619
1746.203	5404
1748.354	5541
1750.503	5669
1752.651	5601
1754.798	5634
1756.944	5564
1759.092	5524
1761.238	5634
1763.383	5606
1765.528	5544
1767.672	5545
1769.814	5543
1771.959	5518
1774.102	5713
1776.242	5577
1778.384	5576
1780.525	5623
1782.665	5620
1784.805	5665
1786.945	5573
1789.082	5641
1791.22	5717
1793.36	5662
1795.495	5575
1797.632	5625
1799.766	5548
1801.902	5668
1804.035	5526
1806.172	5616
1808.304	5636
1810.436	5560
1812.569	5527
1814.699	5567
1816.833	5599
1818.963	5564
1821.092	5596
1823.222	5543
1825.35	5643
1827.478	5547
1829.608	5672
1831.734	5631
1833.86	5584
1835.986	5654
1838.11	5520
1840.238	5547
1842.362	5492
1844.485	5473
1846.608	5540
1848.73	5584
1850.853	5457
1852.974	5575
1855.097	5601
1857.217	5502
1859.336	5532
1861.455	5423
1863.576	5504
1865.693	5502
1867.811	5593
1869.926	5436
1872.042	5547
1874.16	5505
1876.275	5484
1878.39	5460
1880.504	5462
1882.618	5661
1884.731	5530
1886.843	5470
1888.956	5488
1891.067	5484
1893.178	5517
1895.287	5448
1897.399	5581
1899.508	5559
1901.617	5572
1903.724	5708
1905.832	5628
1907.941	5580
1910.046	5517
1912.152	5559
1914.256	5673
1916.361	5622
1918.464	5667
1920.57	5532
1922.672	5646
1924.775	5634
1926.876	5629
1928.978	5691
1931.08	5731
1933.181	5626
1935.28	5744
1937.38	5511
1939.478	5592
1941.577	5678
1943.675	5664
1945.771	5551
1947.867	5631
1949.964	5584
1952.058	5600
1954.154	5600
1956.248	5652
1958.343	5572
1960.435	5676
1962.527	5567
1964.62	5629
1966.711	5688
1968.802	5606
1970.892	5542
1972.983	5578
1975.072	5550
1977.162	5563
1979.25	5680
1981.337	5577
1983.424	5613
1985.51	5540
1987.598	5564
1989.683	5531
1991.768	5562
1993.852	5603
1995.934	5639
1998.019	5518
2000.102	5575
2002.184	5514
2004.266	5660
2006.347	5540
2008.427	5490
2010.508	5473
2012.587	5552
2014.666	5552
2016.745	5483
2018.821	5534
2020.9	5603
2022.977	5479
2025.052	5588
2027.128	5618
2029.204	5571
2031.277	5462
2033.353	5536
2035.425	5549
2037.499	5552
2039.57	5530
2041.642	5598
2043.714	5576
2045.786	5562
2047.855	5659
2049.925	5549
2051.993	5589
2054.064	5588
2056.132	5524
2058.2	5581
2060.266	5470
2062.332	5685
2064.398	5493
2066.465	5452
2068.529	5416
2070.592	5546
2072.657	5576
2074.719	5541
2076.783	5503
2078.845	5469
2080.907	5483
2082.968	5515
2085.028	5594
2087.087	5628
2089.148	5546
2091.207	5575
2093.264	5580
2095.322	5531
2097.379	5542
2099.439	5552
2101.495	5508
2103.55	5558
2105.605	5467
2107.658	5611
2109.713	5550
2111.767	5584
2113.82	5529
2115.872	5579
2117.924	5555
2119.975	5461
2122.028	5482
2124.078	5545
2126.126	5505
2128.176	5462
2130.225	5496
2132.275	5510
2134.321	5450
2136.368	5475
2138.415	5541
2140.461	5439
2142.505	5513
2144.552	5436
2146.597	5433
2148.64	5565
2150.684	5457
2152.725	5477
2154.77	5399
2156.811	5423
2158.852	5353
2160.894	5435
2162.933	5461
2164.973	5439
2167.013	5461
2169.051	5427
2171.089	5486
2173.126	5523
2175.164	5379
2177.201	5481
2179.236	5422
2181.273	5453
2183.307	5393
2185.341	5395
2187.377	5417
2189.41	5342
2191.442	5451
2193.473	5365
2195.506	5370
2197.539	5409
2199.569	5293
2201.598	5451
2203.628	5356
2205.656	5371
2207.686	5359
2209.716	5457
2211.743	5362
2213.769	5375
2215.796	5292
2217.821	5434
2219.848	5355
2221.873	5303
2223.897	5351
2225.921	5326
2227.944	5443
2229.967	5327
2231.991	5237
2234.011	5434
2236.032	5286
2238.053	5395
2240.073	5443
2242.094	5353
2244.114	5358
2246.131	5398
2248.149	5371
2250.167	5442
2252.186	5256
2254.201	5272
2256.218	5414
2258.233	5278
2260.247	5307
2262.262	5340
2264.278	5310
2266.29	5330
2268.303	5325
2270.315	5366
2272.327	5316
2274.341	5371
2276.35	5316
2278.361	5408
2280.37	5328
2282.38	5301
2284.388	5299
2286.397	5300
2288.405	5372
2290.412	5288
2292.419	5370
2294.425	5401
2296.431	5328
2298.437	5271
2300.441	5336
2302.445	5326
2304.449	5380
2306.453	5355
2308.455	5300
2310.457	5404
2312.459	5340
2314.46	5283
2316.46	5380
2318.461	5313
2320.46	5345
2322.458	5274
2324.458	5340
2326.456	5197
2328.455	5298
2330.451	5369
2332.447	5307
2334.443	5212
2336.438	5302
2338.433	5367
2340.429	5258
2342.422	5251
2344.416	5300
2346.408	5308
2348.399	5224
2350.393	5347
2352.384	5257
2354.375	5243
2356.365	5309
2358.355	5224
2360.344	5210
2362.333	5227
2364.322	5139
2366.309	5171
2368.295	5231
2370.282	5200
2372.27	5255
2374.256	5169
2376.24	5250
2378.225	5255
2380.208	5253
2382.194	5191
2384.177	5157
2386.159	5211
2388.142	5161
2390.122	5105
2392.105	5204
2394.085	5098
2396.066	5209
2398.044	5150
2400.024	5196
2402.002	5197
2403.982	5144
2405.959	5093
2407.935	5126
2409.913	5118
2411.888	5088
2413.865	5112
2415.84	5216
2417.814	5137
2419.788	5224
2421.762	5132
2423.735	5153
2425.708	5161
2427.68	5148
2429.651	5275
2431.623	5175
2433.593	5197
2435.564	5127
2437.533	5162
2439.502	5062
2441.47	5101
2443.438	5177
2445.406	5079
2447.373	5112
2449.34	5159
2451.305	5087
2453.271	5069
2455.235	5188
2457.201	5110
2459.165	5066
2461.129	5144
2463.092	5089
2465.054	5034
2467.018	5083
2468.978	5127
2470.939	4943
2472.899	5148
2474.86	5074
2476.819	5046
2478.778	5097
2480.737	5024
2482.695	5020
2484.653	5040
2486.609	5123
2488.567	5141
2490.524	5160
2492.478	4975
2494.433	5020
2496.387	4998
2498.343	5033
2500.297	4972
2502.249	5022
2504.202	5053
2506.153	5089
2508.105	5085
2510.057	5068
2512.008	5061
2513.957	5068
2515.906	5116
2517.855	4989
2519.805	4999
2521.754	5048
2523.7	5008
2525.647	5033
2527.594	5088
2529.54	5013
2531.486	5042
2533.431	5099
2535.376	5008
2537.32	4968
2539.263	5007
2541.207	5122
2543.151	5002
2545.093	4914
2547.034	5011
2548.975	5065
2550.917	5033
2552.856	5052
2554.796	5019
2556.735	4986
2558.673	4930
2560.611	4930
2562.55	4983
2564.487	5015
2566.424	4997
2568.36	4986
2570.296	5025
2572.232	5000
2574.167	5005
2576.101	5008
2578.035	4986
2579.969	4963
2581.902	5059
2583.834	5089
2585.766	5002
2587.698	5002
2589.628	5019
2591.557	5039
2593.489	5020
2595.419	5005
2597.348	4975
2599.275	5106
2601.204	5059
2603.131	4972
2605.059	5040
2606.986	5135
2608.911	4973
2610.837	5006
2612.76	4927
2614.687	5040
2616.61	4993
2618.534	4984
2620.457	5061
2622.38	5080
2624.302	5018
2626.225	5025
2628.145	4974
2630.067	5108
2631.986	5066
2633.906	5046
2635.827	5011
2637.745	4991
2639.662	5061
2641.581	4994
2643.498	5062
2645.415	4930
2647.331	5030
2649.248	5077
2651.163	5036
2653.077	4996
2654.993	4936
2656.906	4979
2658.821	5003
2660.733	5036
2662.646	4952
2664.557	4961
2666.47	4969
2668.381	4928
2670.291	4983
2672.201	5034
2674.11	5064
2676.021	5038
2677.929	4966
2679.837	4962
2681.745	4983
2683.652	4972
2685.56	4943
2687.466	5059
2689.371	4929
2691.276	5025
2693.181	4925
2695.085	5042
2696.991	4982
2698.893	4854
2700.796	4861
2702.698	4941
2704.601	5018
2706.502	5039
2708.404	5033
2710.304	4950
2712.203	5006
2714.103	4997
2716.003	4977
2717.902	4945
2719.8	4846
2721.697	4874
2723.594	4929
2725.49	4924
2727.389	4934
2729.283	4810
2731.179	4907
2733.073	4937
2734.968	4962
2736.863	4944
2738.757	4849
2740.649	4936
2742.541	4909
2744.433	4928
2746.324	4872
2748.216	4856
2750.107	4902
2751.997	4876
2753.886	4842
2755.776	4897
2757.666	4934
2759.553	4816
2761.44	4873
2763.327	4770
2765.215	4754
2767.102	4871
2768.988	4809
2770.873	4762
2772.757	4871
2774.641	4848
2776.525	4763
2778.41	4738
2780.292	4873
2782.175	4812
2784.057	4768
2785.938	4845
2787.821	4914
2789.701	4805
2791.581	4880
2793.461	4863
2795.34	4775
2797.219	4810
2799.099	4797
2800.975	4834
2802.853	4783
2804.73	4835
2806.606	4768
2808.484	4791
2810.358	4722
2812.233	4744
2814.108	4791
2815.981	4823
2817.857	4749
2819.73	4850
2821.602	4878
2823.474	4715
2825.346	4850
2827.217	4939
2829.089	4753
2830.959	4854
2832.829	4793
2834.698	4788
2836.567	4906
2838.436	4872
2840.305	4794
2842.172	4776
2844.04	4921
2845.905	4846
2847.772	4918
2849.639	4889
2851.503	4930
2853.369	4897
2855.232	4975
2857.096	4892
2858.961	4929
2860.824	4936
2862.686	4953
2864.547	5059
2866.41	4986
2868.272	5119
2870.132	5090
2871.992	5129
2873.851	5122
2875.711	5204
2877.57	5239
2879.429	5318
2881.287	5340
2883.144	5287
2885.001	5357
2886.857	5392
2888.714	5367
2890.57	5398
2892.425	5313
2894.279	5320
2896.133	5384
2897.987	5345
2899.842	5385
2901.694	5341
2903.547	5368
2905.397	5373
2907.249	5429
2909.101	5361
2910.952	5363
2912.802	5404
2914.652	5408
2916.5	5318
2918.35	5624
2920.198	5551
2922.045	5594
2923.893	5594
2925.74	5646
2927.585	5834
2929.433	5858
2931.279	5840
2933.123	5810
2934.968	5732
2936.811	5978
2938.656	5996
2940.5	5826
2942.342	6031
2944.185	6098
2946.026	6035
2947.87	6088
2949.71	6082
2951.549	6073
2953.39	6011
2955.229	5989
2957.069	5872
2958.908	5872
2960.746	5840
2962.584	5744
2964.421	5784
2966.257	5642
2968.094	5720
2969.931	5591
2971.766	5496
2973.601	5550
2975.435	5554
2977.27	5438
2979.105	5506
2980.938	5441
2982.77	5425
2984.602	5378
2986.434	5387
2988.267	5422
2990.097	5234
2991.927	5227
2993.757	5093
2995.587	5140
2997.417	5128
2999.246	5116
3001.074	4996
3002.902	5006
3004.729	5020
3006.556	4899
3008.384	4818
3010.21	4870
3012.036	4855
3013.861	4786
3015.684	4827
3017.51	4768
3019.334	4687
3021.157	4675
3022.981	4609
3024.802	4654
3026.624	4629
3028.448	4588
3030.267	4617
3032.088	4523
3033.909	4461
3035.728	4588
3037.549	4524
3039.368	4580
3041.186	4538
3043.004	4432
3044.821	4519
3046.64	4395
3048.455	4430
3050.272	4463
3052.087	4578
3053.903	4560
3055.717	4440
3057.534	4474
3059.347	4537
3061.16	4502
3062.974	4468
3064.785	4463
3066.598	4541
3068.411	4491
3070.222	4563
3072.032	4370
3073.844	4389
3075.653	4419
3077.463	4523
3079.272	4458
3081.08	4409
3082.889	4425
3084.697	4494
3086.505	4449
3088.312	4384
3090.118	4455
3091.924	4392
3093.729	4401
3095.535	4369
3097.34	4369
3099.144	4290
3100.947	4335
3102.75	4309
3104.553	4411
3106.357	4353
3108.159	4299
3109.961	4311
3111.762	4287
3113.562	4399
3115.365	4251
3117.164	4352
3118.964	4259
3120.761	4336
3122.56	4290
3124.36	4297
3126.158	4343
3127.954	4308
3129.75	4218
3131.547	4370
3133.343	4160
3135.139	4302
3136.934	4275
3138.729	4310
3140.522	4167
3142.317	4219
3144.11	4255
3145.904	4272
3147.695	4220
3149.488	4230
3151.28	4204
3153.07	4213
3154.863	4180
3156.652	4268
3158.441	4245
3160.231	4315
3162.019	4142
3163.81	4130
3165.597	4153
3167.384	4205
3169.172	4168
3170.958	4266
3172.745	4165
3174.532	4265
3176.317	4205
3178.101	4205
3179.885	4190
3181.67	4130
3183.455	4187
3185.238	4220
3187.02	4223
3188.802	4123
3190.585	4252
3192.368	4233
3194.149	4177
3195.929	4198
3197.709	4154
3199.489	4221
3201.268	4173
3203.048	4160
3204.826	4143
3206.604	4230
3208.382	4194
3210.159	4105
3211.937	4135
3213.713	4120
3215.489	4166
3217.263	4195
3219.038	4180
3220.815	4172
3222.589	4212
3224.363	4204
3226.136	4142
3227.908	4062
3229.681	4193
3231.454	4194
3233.226	4085
3234.996	4104
3236.767	4131
3238.538	4153
3240.308	4075
3242.078	4117
3243.847	4107
3245.615	4134
3247.384	4067
3249.15	4172
3250.92	4204
3252.686	4100
3254.453	4156
3256.218	4165
3257.984	4054
3259.75	4127
3261.515	4165
3263.279	4033
3265.044	4139
3266.806	4208
3268.57	4118
3270.334	4100
3272.095	4158
3273.856	4155
3275.619	4168
3277.379	4152
3279.14	4241
3280.9	4153
3282.661	4098
3284.419	4143
3286.178	4181
3287.937	4096
3289.695	4050
3291.453	4206
3293.21	4066
3294.967	4087
3296.723	4122
3298.48	4120
3300.235	4130
3301.99	4174
3303.744	4050
3305.498	4110
3307.253	4256
3309.006	4065
3310.759	4166
3312.511	4178
3314.263	4202
3316.017	4125
3317.768	4147
3319.519	3989
3321.268	4172
3323.018	4165
3324.767	4161
3326.518	4155
3328.267	4117
3330.014	4143
3331.762	4100
3333.509	4128
3335.258	4115
3337.003	4055
3338.75	4172
3340.496	4211
3342.24	4062
3343.987	4070
3345.732	4051
3347.475	4062
3349.219	4121
3350.961	4084
3352.705	4032
3354.448	4146
3356.19	4038
3357.931	4097
3359.672	4030
3361.412	4036
3363.155	4053
3364.894	4077
3366.633	4008
3368.372	4073
3370.11	4103
3371.849	4027
3373.588	4074
3375.325	3948
3377.061	4007
3378.799	4019
3380.534	4055
3382.271	4037
3384.006	3925
3385.741	4001
3387.475	3996
3389.209	4035
3390.944	3972
3392.677	4091
3394.409	3976
3396.143	3955
3397.874	3996
3399.606	3916
3401.338	4022
3403.069	3953
3404.799	3958
3406.528	3915
3408.258	3966
3409.988	3964
3411.717	4035
3413.445	3899
3415.173	3910
3416.899	3904
3418.626	3891
3420.354	3948
3422.08	3858
3423.806	3889
3425.531	3983
3427.255	3971
3428.981	3855
3430.705	3962
3432.429	3850
3434.151	3958
3435.875	3851
3437.599	3920
3439.321	3778
3441.042	3903
3442.763	3883
3444.483	3836
3446.204	3908
3447.926	3854
3449.645	3803
3451.364	3771
3453.082	3836
3454.801	3783
3456.52	3792
3458.238	3851
3459.954	3727
3461.671	3766
3463.387	3844
3465.104	3824
3466.82	3758
3468.534	3738
3470.25	3802
3471.963	3796
3473.676	3722
3475.392	3764
3477.104	3718
3478.817	3734
3480.528	3701
3482.241	3671
3483.954	3756
3485.664	3786
3487.374	3674
3489.084	3666
3490.795	3749
3492.504	3724
3494.214	3723
3495.922	3621
3497.63	3661
3499.338	3602
3501.045	3667
3502.753	3741
3504.459	3699
3506.166	3724
3507.871	3649
3509.576	3670
3511.283	3706
3512.987	3647
3514.691	3624
3516.395	3677
3518.098	3747
3519.8	3711
3521.504	3580
3523.206	3594
3524.908	3627
3526.609	3579
3528.309	3550
3530.011	3653
3531.711	3625
3533.411	3630
3535.109	3558
3536.808	3556
3538.507	3482
3540.206	3529
3541.904	3533
3543.601	3489
3545.297	3531
3546.994	3641
3548.69	3534
3550.387	3537
3552.081	3591
3553.776	3494
3555.47	3525
3557.166	3560
3558.859	3617
3560.553	3478
3562.245	3513
3563.938	3471
3565.629	3548
3567.322	3522
3569.014	3561
3570.704	3568
3572.394	3512
3574.084	3452
3575.775	3588
3577.464	3525
3579.152	3514
3580.842	3480
3582.529	3470
3584.216	3463
3585.905	3508
3587.591	3460
3589.279	3444
3590.964	3476
3592.649	3437
3594.336	3464
3596.021	3451
3597.705	3404
3599.388	3398
3601.072	3374
3602.757	3364
3604.439	3386
3606.122	3495
3607.803	3429
3609.485	3379
3611.167	3382
3612.849	3416
3614.529	3356
3616.208	3421
3617.888	3394
3619.567	3342
3621.247	3357
3622.926	3259
3624.603	3336
3626.281	3298
3627.958	3366
3629.635	3374
3631.312	3323
3632.989	3245
3634.665	3303
3636.339	3299
3638.014	3366
3639.691	3349
3641.364	3311
3643.038	3212
3644.71	3298
3646.384	3326
3648.058	3339
3649.729	3199
3651.402	3326
3653.073	3289
3654.744	3284
3656.414	3299
3658.085	3236
3659.755	3236
3661.424	3237
3663.094	3251
3664.762	3250
3666.431	3261
3668.099	3274
3669.766	3307
3671.433	3309
3673.099	3192
3674.768	3252
3676.433	3197
3678.098	3284
3679.763	3169
3681.428	3281
3683.093	3222
3684.757	3223
3686.421	3149
3688.083	3200
3689.746	3206
3691.408	3170
3693.071	3248
3694.733	3220
3696.394	3204
3698.054	3213
3699.715	3207
3701.375	3244
3703.036	3266
3704.695	3257
3706.354	3237
3708.012	3154
3709.67	3137
3711.329	3183
3712.987	3222
3714.644	3123
3716.299	3140
3717.955	3197
3719.613	3194
3721.268	3165
3722.923	3181
3724.577	3153
3726.231	3148
3727.885	3164
3729.539	3126
3731.192	3181
3732.845	3118
3734.497	3139
3736.149	3141
3737.802	3195
3739.453	3156
3741.104	3073
3742.753	3100
3744.404	3132
3746.052	3100
3747.704	3091
3749.352	3102
3751	3145
3752.648	2955
3754.296	3128
3755.944	3088
3757.59	3090
3759.238	3130
3760.883	3092
3762.528	3081
3764.176	3087
3765.82	3117
3767.464	3091
3769.109	3077
3770.753	3108
3772.396	3024
3774.04	3076
3775.683	3065
3777.325	3063
3778.967	3131
3780.608	3045
3782.25	3099
3783.89	3085
3785.531	3014
3787.17	3053
3788.81	3064
3790.45	3057
3792.09	2980
3793.729	3003
3795.366	3037
3797.003	3071
3798.64	3022
3800.278	3039
3801.915	3036
3803.551	2985
3805.187	3039
3806.822	2959
3808.458	2971
3810.093	2943
3811.726	3052
3813.36	2973
3814.994	2984
3816.627	3035
3818.262	3071
3819.893	3029
3821.525	2990
3823.157	2967
3824.787	2963
3826.42	2939
3828.051	2920
3829.68	2997
3831.31	2974
3832.938	2905
3834.569	2969
3836.198	2981
3837.825	2974
3839.454	2895
3841.08	2979
3842.708	2921
3844.335	2887
3845.962	2935
3847.587	2866
3849.212	2934
3850.838	2916
3852.463	2874
3854.089	2968
3855.712	2917
3857.335	2869
3858.959	2975
3860.582	2930
3862.205	2972
3863.827	2912
3865.449	2896
3867.07	2892
3868.691	2921
3870.312	2957
3871.933	2874
3873.553	2956
3875.173	2923
3876.792	2899
3878.411	2899
3880.03	2866
3881.647	2867
3883.265	2844
3884.882	2931
3886.499	2897
3888.116	2906
3889.732	2825
3891.348	2939
3892.964	2875
3894.579	2854
3896.195	2872
3897.809	2810
3899.423	2932
3901.036	2841
3902.648	2891
3904.261	2879
3905.875	2850
3907.487	2835
3909.099	2827
3910.709	2812
3912.321	2890
3913.933	2881
3915.542	2872
3917.152	2795
3918.762	2913
3920.37	2784
3921.98	2844
3923.589	2919
3925.196	2848
3926.804	2891
3928.41	2879
3930.018	2825
3931.626	2807
3933.231	2724
3934.838	2834
3936.442	2814
3938.046	2796
3939.653	2822
3941.257	2743
3942.861	2818
3944.464	2837
3946.068	2774
3947.67	2751
3949.273	2857
3950.876	2833
3952.477	2796
3954.078	2858
3955.678	2815
3957.281	2741
3958.881	2809
3960.48	2779
3962.079	2786
3963.678	2792
3965.279	2682
3966.877	2750
3968.475	2739
3970.072	2719
3971.669	2747
3973.266	2738
3974.864	2778
3976.459	2781
3978.055	2674
3979.65	2751
3981.245	2740
3982.841	2782
3984.436	2702
3986.03	2797
3987.623	2766
3989.216	2703
3990.809	2707
3992.403	2704
3993.995	2730
3995.586	2718
3997.177	2737
3998.768	2641
4000.361	2689
4001.951	2635
4003.54	2771
4005.13	2699
4006.719	2785
4008.31	2696
4009.897	2617
4011.485	2622
4013.073	2646
4014.66	2671
4016.247	2605
4017.834	2647
4019.421	2658
4021.006	2649
4022.592	2693
4024.178	2666
4025.763	2612
4027.348	2657
4028.932	2722
4030.515	2684
4032.099	2602
4033.682	2663
4035.266	2619
4036.847	2628
4038.429	2610
4040.011	2623
4041.592	2615
4043.173	2611
4044.755	2633
4046.334	2632
4047.913	2605
4049.494	2573
4051.074	2584
4052.652	2553
4054.23	2603
4055.807	2584
4057.385	2566
4058.963	2627
4060.541	2634
4062.117	2556
4063.693	2587
4065.269	2503
4066.844	2573
4068.42	2497
4069.995	2510
4071.569	2569
4073.143	2552
4074.716	2554
4076.291	2534
4077.864	2651
4079.436	2599
4081.009	2498
4082.58	2549
4084.152	2537
4085.723	2591
4087.294	2603
4088.865	2532
4090.435	2512
4092.005	2575
4093.574	2490
4095.143	2600
4096.712	2445
4098.279	2508
4099.848	2521
4101.416	2518
4102.984	2554
4104.55	2504
4106.117	2541
4107.682	2442
4109.248	2520
4110.815	2541
4112.379	2569
4113.945	2519
4115.508	2479
4117.073	2488
4118.637	2493
4120.201	2475
4121.763	2524
4123.325	2465
4124.888	2511
4126.449	2535
4128.013	2479
4129.573	2481
4131.133	2423
4132.694	2455
4134.254	2437
4135.814	2473
4137.374	2460
4138.933	2429
4140.491	2473
4142.049	2452
4143.607	2437
4145.167	2481
4146.724	2423
4148.28	2408
4149.836	2453
4151.392	2416
4152.949	2454
4154.504	2425
4156.059	2404
4157.614	2403
4159.168	2385
4160.723	2411
4162.277	2409
4163.83	2490
4165.383	2407
4166.936	2382
4168.488	2367
4170.041	2405
4171.593	2408
4173.144	2376
4174.695	2389
4176.246	2362
4177.796	2379
4179.346	2367
4180.896	2349
4182.445	2386
4183.994	2446
4185.542	2304
4187.091	2362
4188.639	2325
4190.185	2417
4191.732	2382
4193.279	2362
4194.826	2452
4196.373	2341
4197.918	2359
4199.463	2416
4201.008	2385
4202.553	2354
4204.098	2352
4205.641	2355
4207.185	2376
4208.728	2335
4210.271	2334
4211.814	2299
4213.357	2347
4214.898	2384
4216.439	2302
4217.98	2352
4219.522	2319
4221.062	2279
4222.603	2345
4224.142	2304
4225.681	2312
4227.222	2327
4228.76	2296
4230.298	2291
4231.835	2336
4233.373	2326
4234.911	2278
4236.449	2274
4237.985	2331
4239.521	2329
4241.057	2262
4242.592	2305
4244.128	2222
4245.663	2281
4247.197	2252
4248.731	2275
4250.265	2327
4251.798	2275
4253.333	2345
4254.865	2293
4256.397	2189
4257.93	2300
4259.461	2263
4260.994	2307
4262.525	2274
4264.056	2298
4265.586	2221
4267.115	2240
4268.646	2282
4270.176	2276
4271.705	2316
4273.232	2261
4274.761	2285
4276.289	2289
4277.818	2251
4279.345	2247
4280.872	2327
4282.399	2245
4283.924	2249
4285.452	2228
4286.976	2211
4288.502	2202
4290.026	2239
4291.551	2255
4293.074	2215
4294.6	2200
4296.123	2186
4297.646	2243
4299.168	2179
4300.691	2246
4302.214	2166
4303.736	2262
4305.257	2221
4306.778	2244
4308.299	2229
4309.82	2190
4311.34	2222
4312.86	2211
4314.379	2199
