400.0745	4770
402.597	4850
405.1208	4905
407.6419	4904
410.1623	4921
412.6819	4915
415.201	4872
417.7172	4912
420.2369	5049
422.7538	5008
425.2701	5138
427.7856	5055
430.3005	5142
432.8147	5181
435.3282	5208
437.841	5243
440.3511	5187
442.8625	5207
445.3753	5167
447.8854	5220
450.3927	5236
452.9014	5233
455.4073	5219
457.9146	5164
460.4233	5198
462.9272	5195
465.4325	5191
467.935	5325
470.4389	5206
472.9421	5280
475.4446	5239
477.9444	5311
480.4456	5237
482.944	5319
485.4417	5313
487.9429	5274
490.4393	5193
492.935	5364
495.4321	5412
497.9264	5404
500.4221	5235
502.9171	5421
505.4094	5492
507.9011	5461
510.392	5365
512.8864	5378
515.3759	5414
517.8649	5449
520.3531	5508
522.8406	5435
525.3275	5454
527.8178	5460
530.3033	5598
532.7881	5463
535.2723	5465
537.7558	5471
540.2407	5404
542.7228	5560
545.2043	5466
547.6851	5485
550.1652	5484
552.6467	5497
555.1255	5462
557.6016	5494
560.079	5620
562.5557	5535
565.0318	5518
567.5092	5574
569.984	5521
572.456	5645
574.9294	5703
577.4022	5717
579.8762	5637
582.3456	5657
584.8163	5656
587.2863	5670
589.7557	5706
592.2224	5768
594.6924	5763
597.1578	5725
599.6245	5738
602.0905	5831
604.5538	5644
607.0206	5720
609.4825	5680
611.9459	5675
614.4066	5789
616.8686	5720
619.33	5658
621.7906	5590
624.2487	5714
626.708	5720
629.1647	5645
631.6207	5723
634.0801	5632
636.5348	5675
638.9888	5800
641.4442	5727
643.8969	5737
646.3509	5652
648.8022	5779
651.255	5757
653.705	5686
656.1544	5793
658.6031	5812
661.0532	5812
663.5026	5852
665.9493	5830
668.3954	5861
670.8409	5912
673.2877	5840
675.7318	5896
678.1752	5832
680.618	5925
683.0601	5888
685.5035	5843
687.9444	5951
690.3845	5995
692.824	5806
695.2628	5879
697.701	5943
700.1406	5892
702.5774	6010
705.0116	5960
707.4472	5986
709.8821	5953
712.3183	6038
714.7519	6021
717.1829	6022
719.6151	6025
722.0468	6050
724.4777	6067
726.908	6029
729.3377	6104
731.7667	6201
734.1931	6212
736.6208	6175
739.0498	6115
741.4742	6177
743.9	6173
746.3231	6310
748.7476	6286
751.1713	6287
753.5945	6245
756.015	6294
758.4368	6345
760.856	6374
763.2766	6243
765.6965	6298
768.1157	6323
770.5323	6310
772.9483	6317
775.3656	6271
777.7822	6366
780.1963	6350
782.6116	6393
785.0244	6414
787.4365	6277
789.8499	6302
792.2626	6425
794.6728	6376
797.0823	6242
799.4911	6346
801.8994	6359
804.3109	6466
806.7178	6446
809.124	6336
811.5297	6402
813.9347	6371
816.341	6508
818.7447	6449
821.1478	6417
823.5502	6564
825.952	6474
828.3531	6429
830.7556	6379
833.1554	6449
835.5546	6496
837.9532	6515
840.3511	6413
842.7504	6452
845.1451	6438
847.5411	6406
849.9365	6523
852.3312	6456
854.7272	6557
857.1187	6514
859.5115	6628
861.9037	6528
864.2952	6605
866.6842	6447
869.0764	6537
871.4661	6377
873.8531	6543
876.2415	6502
878.6272	6574
881.0162	6551
883.4026	6559
885.7866	6473
888.1717	6446
890.5543	6465
892.9382	6534
895.3215	6538
897.7041	6526
900.0842	6502
902.4655	6485
904.8443	6512
907.2244	6601
909.6039	6543
911.9808	6622
914.357	6611
916.7346	6633
919.1115	6664
921.4859	6701
923.8616	6639
926.2347	6738
928.6071	6776
930.979	6795
933.3541	6689
935.7247	6821
938.0946	6739
940.4639	6795
942.8326	6959
945.2026	6912
947.5701	7017
949.9369	7037
952.305	7150
954.6705	7334
957.0355	7567
959.4017	7694
961.7654	7768
964.1284	7812
966.4908	7642
968.8527	7414
971.2138	7256
973.5743	7051
975.9343	7018
978.2936	6890
980.6522	6743
983.0122	6764
985.3696	6807
987.7245	6723
990.0807	6757
992.4362	6748
994.7911	6703
997.1474	6754
999.4991	6752
1001.852	6823
1004.205	6746
1006.555	6841
1008.908	6849
1011.258	6615
1013.606	6809
1015.956	6727
1018.302	6790
1020.652	6881
1022.998	6724
1025.345	6789
1027.691	6737
1030.035	6685
1032.378	6882
1034.724	6954
1037.066	6964
1039.409	6947
1041.75	6858
1044.092	6812
1046.433	6782
1048.771	6817
1051.112	6881
1053.449	6873
1055.786	6931
1058.124	6881
1060.462	6899
1062.797	6942
1065.131	7043
1067.467	6977
1069.8	7013
1072.135	6908
1074.467	7001
1076.798	6930
1079.129	6944
1081.459	6773
1083.792	6883
1086.121	6917
1088.449	6896
1090.777	6754
1093.104	6869
1095.431	6945
1097.759	6904
1100.084	6828
1102.408	6949
1104.732	7049
1107.056	6978
1109.379	6954
1111.701	6867
1114.022	6916
1116.343	6970
1118.664	7057
1120.983	6919
1123.303	7011
1125.621	7004
1127.939	6958
1130.256	6913
1132.573	6909
1134.889	6940
1137.205	6931
1139.52	6950
1141.832	6883
1144.146	6891
1146.461	6950
1148.771	6963
1151.083	7002
1153.392	6957
1155.703	6958
1158.011	6982
1160.323	7029
1162.629	6984
1164.938	6916
1167.243	6912
1169.55	7064
1171.857	6918
1174.163	7090
1176.466	6979
1178.769	7064
1181.073	6842
1183.374	7009
1185.677	6885
1187.979	6945
1190.279	6912
1192.578	7011
1194.878	7008
1197.178	6912
1199.476	6899
1201.772	7050
1204.068	6908
1206.366	7118
1208.663	6980
1210.957	6877
1213.251	7005
1215.544	6977
1217.836	7001
1220.128	7005
1222.421	7010
1224.712	6957
1227.002	7033
1229.292	7091
1231.581	6982
1233.871	7064
1236.159	7126
1238.446	7127
1240.732	7165
1243.018	7079
1245.304	7151
1247.59	7208
1249.874	7235
1252.156	7301
1254.439	7022
1256.721	7126
1259.005	7217
1261.286	7140
1263.565	7146
1265.845	7203
1268.125	7074
1270.403	7221
1272.682	7095
1274.959	7268
1277.234	7164
1279.511	7116
1281.787	7169
1284.062	7194
1286.337	7116
1288.609	7099
1290.882	7057
1293.153	7101
1295.428	7166
1297.698	7159
1299.969	7213
1302.237	7073
1304.507	7044
1306.777	7094
1309.044	7154
1311.312	6961
1313.578	7020
1315.844	7063
1318.109	7089
1320.375	7139
1322.638	7017
1324.903	7208
1327.165	7119
1329.427	7099
1331.69	7071
1333.952	7111
1336.212	7030
1338.471	7122
1340.73	7101
1342.988	7035
1345.248	7216
1347.505	7047
1349.763	7118
1352.019	7064
1354.274	7122
1356.53	7068
1358.784	7093
1361.038	7095
1363.291	7100
1365.543	6956
1367.797	7311
1370.048	7210
1372.296	7046
1374.546	7122
1376.796	7189
1379.045	7066
1381.295	7214
1383.542	7163
1385.787	7278
1388.034	7097
1390.28	7130
1392.527	7125
1394.772	7144
1397.014	7113
1399.258	7244
1401.501	7177
1403.741	7187
1405.985	7224
1408.226	7118
1410.465	7164
1412.705	7302
1414.943	7200
1417.184	7275
1419.42	7278
1421.658	7209
1423.894	7294
1426.13	7126
1428.366	7289
1430.602	7302
1432.835	7384
1435.069	7160
1437.301	7330
1439.535	7346
1441.767	7392
1443.997	7460
1446.229	7334
1448.458	7304
1450.687	7417
1452.916	7345
1455.146	7474
1457.372	7355
1459.599	7288
1461.824	7358
1464.051	7253
1466.277	7380
1468.501	7218
1470.725	7210
1472.948	7313
1475.17	7282
1477.393	7253
1479.614	7164
1481.837	7174
1484.057	7204
1486.276	7293
1488.497	7228
1490.715	7286
1492.932	7102
1495.148	7239
1497.364	7147
1499.58	7177
1501.798	7216
1504.012	7093
1506.227	7179
1508.44	7067
1510.653	7143
1512.866	7025
1515.078	7075
1517.289	7081
1519.5	7249
1521.711	7164
1523.92	7099
1526.13	7184
1528.338	7197
1530.544	7071
1532.752	7217
1534.959	7169
1537.165	7143
1539.371	7213
1541.574	7169
1543.779	7134
1545.983	7237
1548.187	7249
1550.39	7287
1552.59	7245
1554.792	7243
1556.991	7302
1559.19	7174
1561.392	7237
1563.59	7199
1565.789	7261
1567.986	7350
1570.182	7332
1572.381	7263
1574.576	7276
1576.771	7213
1578.966	7285
1581.16	7219
1583.354	7245
1585.546	7329
1587.74	7347
1589.931	7460
1592.121	7305
1594.311	7306
1596.502	7272
1598.693	7181
1600.881	7295
1603.069	7329
1605.256	7365
1607.445	7302
1609.631	7439
1611.816	7249
1614.001	7321
1616.186	7345
1618.37	7385
1620.555	7222
1622.737	7365
1624.919	7368
1627.101	7248
1629.282	7356
1631.463	7320
1633.643	7414
1635.822	7424
1638.001	7389
1640.179	7343
1642.359	7221
1644.534	7423
1646.711	7327
1648.887	7315
1651.062	7329
1653.235	7420
1655.412	7297
1657.586	7354
1659.757	7415
1661.93	7360
1664.1	7382
1666.274	7423
1668.445	7569
1670.614	7487
1672.784	7375
1674.951	7400
1677.12	7546
1679.289	7398
1681.457	7340
1683.622	7447
1685.789	7408
1687.953	7333
1690.121	7338
1692.284	7383
1694.447	7294
1696.611	7351
1698.772	7319
1700.935	7409
1703.098	7414
1705.258	7386
1707.417	7337
1709.576	7266
1711.736	7419
1713.896	7253
1716.053	7314
1718.21	7257
1720.366	7385
1722.522	7227
1724.68	7249
1726.835	7282
1728.989	7302
1731.142	7306
1733.295	7321
1735.449	7355
1737.601	7230
1739.753	7277
1741.903	7239
1744.054	7349
1746.203	7296
1748.354	7326
1750.503	7431
1752.651	7221
1754.798	7367
1756.944	7309
1759.092	7431
1761.238	7378
1763.383	7335
1765.528	7258
1767.672	7430
1769.814	7222
1771.959	7368
1774.102	7410
1776.242	7514
1778.384	7351
1780.525	7241
1782.665	7410
1784.805	7437
1786.945	7300
1789.082	7311
1791.22	7419
1793.36	7359
1795.495	7385
1797.632	7272
1799.766	7398
1801.902	7483
1804.035	7316
1806.172	7351
1808.304	7457
1810.436	7385
1812.569	7399
1814.699	7412
1816.833	7375
1818.963	7440
1821.092	7230
1823.222	7437
1825.35	7415
1827.478	7401
1829.608	7314
1831.734	7436
1833.86	7306
1835.986	7285
1838.11	7323
1840.238	7221
1842.362	7347
1844.485	7310
1846.608	7397
1848.73	7327
1850.853	7320
1852.974	7215
1855.097	7305
1857.217	7281
1859.336	7165
1861.455	7079
1863.576	7320
1865.693	7368
1867.811	7297
1869.926	7293
1872.042	7332
1874.16	7359
1876.275	7261
1878.39	7504
1880.504	7291
1882.618	7214
1884.731	7270
1886.843	7263
1888.956	7256
1891.067	7257
1893.178	7264
1895.287	7338
1897.399	7243
1899.508	7290
1901.617	7270
1903.724	7401
1905.832	7323
1907.941	7275
1910.046	7261
1912.152	7366
1914.256	7432
1916.361	7260
1918.464	7336
1920.57	7318
1922.672	7291
1924.775	7420
1926.876	7413
1928.978	7331
1931.08	7409
1933.181	7410
1935.28	7500
1937.38	7416
1939.478	7432
1941.577	7325
1943.675	7433
1945.771	7278
1947.867	7436
1949.964	7458
1952.058	7304
1954.154	7442
1956.248	7412
1958.343	7367
1960.435	7366
1962.527	7412
1964.62	7400
1966.711	7411
1968.802	7429
1970.892	7358
1972.983	7353
1975.072	7452
1977.162	7315
1979.25	7330
1981.337	7392
1983.424	7287
1985.51	7363
1987.598	7449
1989.683	7354
1991.768	7304
1993.852	7253
1995.934	7262
1998.019	7312
2000.102	7275
2002.184	7253
2004.266	7117
2006.347	7267
2008.427	7104
2010.508	7375
2012.587	7364
2014.666	7239
2016.745	7377
2018.821	7336
2020.9	7296
2022.977	7272
2025.052	7369
2027.128	7257
2029.204	7282
2031.277	7331
2033.353	7251
2035.425	7281
2037.499	7311
2039.57	7270
2041.642	7328
2043.714	7205
2045.786	7172
2047.855	7335
2049.925	7333
2051.993	7140
2054.064	7199
2056.132	7242
2058.2	7292
2060.266	7253
2062.332	7386
2064.398	7196
2066.465	7311
2068.529	7309
2070.592	7267
2072.657	7266
2074.719	7251
2076.783	7316
2078.845	7318
2080.907	7311
2082.968	7287
2085.028	7301
2087.087	7326
2089.148	7253
2091.207	7208
2093.264	7184
2095.322	7349
2097.379	7257
2099.439	7168
2101.495	7209
2103.55	7215
2105.605	7270
2107.658	7401
2109.713	7305
2111.767	7194
2113.82	7252
2115.872	7230
2117.924	7276
2119.975	7270
2122.028	7305
2124.078	7287
2126.126	7318
2128.176	7253
2130.225	7281
2132.275	7156
2134.321	7279
2136.368	7257
2138.415	7193
2140.461	7290
2142.505	7220
2144.552	7109
2146.597	7142
2148.64	7243
2150.684	7210
2152.725	7259
2154.77	7206
2156.811	7297
2158.852	7137
2160.894	7021
2162.933	7221
2164.973	7161
2167.013	7071
2169.051	7118
2171.089	7204
2173.126	7120
2175.164	7121
2177.201	7087
2179.236	7087
2181.273	7228
2183.307	7034
2185.341	7240
2187.377	7226
2189.41	7114
2191.442	7089
2193.473	7202
2195.506	7131
2197.539	7156
2199.569	7067
2201.598	7076
2203.628	7122
2205.656	7010
2207.686	7112
2209.716	7007
2211.743	7069
2213.769	7038
2215.796	7102
2217.821	7091
2219.848	7078
2221.873	7007
2223.897	6980
2225.921	6920
2227.944	6951
2229.967	7031
2231.991	7044
2234.011	7014
2236.032	7039
2238.053	6955
2240.073	6996
2242.094	7081
2244.114	7010
2246.131	7147
2248.149	7000
2250.167	7112
2252.186	6996
2254.201	7053
2256.218	7127
2258.233	7044
2260.247	6934
2262.262	6996
2264.278	7121
2266.29	6965
2268.303	7042
2270.315	7019
2272.327	7171
2274.341	6980
2276.35	7000
2278.361	6982
2280.37	7010
2282.38	7036
2284.388	6938
2286.397	6974
2288.405	6994
2290.412	7004
2292.419	6842
2294.425	6976
2296.431	6951
2298.437	6928
2300.441	6974
2302.445	6925
2304.449	7016
2306.453	7132
2308.455	6885
2310.457	6912
2312.459	7001
2314.46	6916
2316.46	6938
2318.461	7002
2320.46	6897
2322.458	6964
2324.458	6879
2326.456	6897
2328.455	6998
2330.451	6842
2332.447	6798
2334.443	6954
2336.438	6951
2338.433	6850
2340.429	6811
2342.422	6855
2344.416	6828
2346.408	6925
2348.399	6928
2350.393	6786
2352.384	6908
2354.375	6815
2356.365	6786
2358.355	6814
2360.344	6764
2362.333	6844
2364.322	6832
2366.309	6795
2368.295	6721
2370.282	6763
2372.27	6802
2374.256	6760
2376.24	6807
2378.225	6716
2380.208	6797
2382.194	6793
2384.177	6704
2386.159	6822
2388.142	6692
2390.122	6727
2392.105	6786
2394.085	6746
2396.066	6852
2398.044	6697
2400.024	6651
2402.002	6643
2403.982	6656
2405.959	6749
2407.935	6725
2409.913	6618
2411.888	6642
2413.865	6746
2415.84	6691
2417.814	6649
2419.788	6707
2421.762	6705
2423.735	6690
2425.708	6635
2427.68	6651
2429.651	6543
2431.623	6710
2433.593	6667
2435.564	6712
2437.533	6657
2439.502	6631
2441.47	6702
2443.438	6760
2445.406	6631
2447.373	6550
2449.34	6575
2451.305	6575
2453.271	6720
2455.235	6685
2457.201	6738
2459.165	6654
2461.129	6607
2463.092	6676
2465.054	6602
2467.018	6712
2468.978	6493
2470.939	6613
2472.899	6556
2474.86	6704
2476.819	6657
2478.778	6739
2480.737	6673
2482.695	6534
2484.653	6649
2486.609	6476
2488.567	6577
2490.524	6670
2492.478	6500
2494.433	6598
2496.387	6630
2498.343	6527
2500.297	6558
2502.249	6554
2504.202	6539
2506.153	6698
2508.105	6612
2510.057	6499
2512.008	6568
2513.957	6546
2515.906	6542
2517.855	6578
2519.805	6556
2521.754	6458
2523.7	6510
2525.647	6520
2527.594	6541
2529.54	6517
2531.486	6521
2533.431	6599
2535.376	6543
2537.32	6568
2539.263	6438
2541.207	6528
2543.151	6518
2545.093	6582
2547.034	6569
2548.975	6459
2550.917	6587
2552.856	6492
2554.796	6542
2556.735	6435
2558.673	6610
2560.611	6530
2562.55	6391
2564.487	6553
2566.424	6451
2568.36	6376
2570.296	6395
2572.232	6578
2574.167	6480
2576.101	6475
2578.035	6461
2579.969	6514
2581.902	6593
2583.834	6400
2585.766	6459
2587.698	6537
2589.628	6610
2591.557	6471
2593.489	6586
2595.419	6556
2597.348	6505
2599.275	6633
2601.204	6424
2603.131	6566
2605.059	6486
2606.986	6390
2608.911	6479
2610.837	6456
2612.76	6569
2614.687	6573
2616.61	6601
2618.534	6460
2620.457	6586
2622.38	6466
2624.302	6644
2626.225	6464
2628.145	6482
2630.067	6536
2631.986	6531
2633.906	6448
2635.827	6635
2637.745	6474
2639.662	6620
2641.581	6561
2643.498	6485
2645.415	6559
2647.331	6435
2649.248	6469
2651.163	6412
2653.077	6319
2654.993	6500
2656.906	6415
2658.821	6432
2660.733	6486
2662.646	6415
2664.557	6369
2666.47	6466
2668.381	6469
2670.291	6359
2672.201	6407
2674.11	6463
2676.021	6498
2677.929	6317
2679.837	6356
2681.745	6477
2683.652	6520
2685.56	6408
2687.466	6385
2689.371	6324
2691.276	6519
2693.181	6428
2695.085	6276
2696.991	6407
2698.893	6391
2700.796	6316
2702.698	6369
2704.601	6378
2706.502	6378
2708.404	6409
2710.304	6409
2712.203	6362
2714.103	6281
2716.003	6332
2717.902	6322
2719.8	6313
2721.697	6340
2723.594	6376
2725.49	6213
2727.389	6328
2729.283	6224
2731.179	6289
2733.073	6295
2734.968	6271
2736.863	6286
2738.757	6270
2740.649	6250
2742.541	6273
2744.433	6384
2746.324	6202
2748.216	6302
2750.107	6290
2751.997	6336
2753.886	6320
2755.776	6216
2757.666	6366
2759.553	6153
2761.44	6426
2763.327	6115
2765.215	6218
2767.102	6236
2768.988	6292
2770.873	6275
2772.757	6227
2774.641	6198
2776.525	6194
2778.41	6173
2780.292	6214
2782.175	6274
2784.057	6282
2785.938	6243
2787.821	6342
2789.701	6248
2791.581	6197
2793.461	6285
2795.34	6136
2797.219	6185
2799.099	6115
2800.975	6162
2802.853	6291
2804.73	6202
2806.606	6189
2808.484	5999
2810.358	6193
2812.233	6109
2814.108	6174
2815.981	6145
2817.857	6092
2819.73	6157
2821.602	6211
2823.474	6121
2825.346	6217
2827.217	6080
2829.089	6146
2830.959	6087
2832.829	6021
2834.698	6167
2836.567	6039
2838.436	6222
2840.305	6127
2842.172	6141
2844.04	6112
2845.905	6256
2847.772	6034
2849.639	6121
2851.503	6126
2853.369	6149
2855.232	6060
2857.096	6040
2858.961	6165
2860.824	6184
2862.686	6145
2864.547	6220
2866.41	6111
2868.272	6099
2870.132	6282
2871.992	6262
2873.851	6218
2875.711	6223
2877.57	6243
2879.429	6263
2881.287	6360
2883.144	6327
2885.001	6354
2886.857	6271
2888.714	6283
2890.57	6244
2892.425	6427
2894.279	6200
2896.133	6315
2897.987	6282
2899.842	6234
2901.694	6266
2903.547	6244
2905.397	6130
2907.249	6282
2909.101	6311
2910.952	6285
2912.802	6399
2914.652	6255
2916.5	6352
2918.35	6435
2920.198	6286
2922.045	6422
2923.893	6435
2925.74	6439
2927.585	6548
2929.433	6591
2931.279	6517
2933.123	6593
2934.968	6577
2936.811	6600
2938.656	6591
2940.5	6711
2942.342	6591
2944.185	6656
2946.026	6605
2947.87	6564
2949.71	6690
2951.549	6663
2953.39	6591
2955.229	6620
2957.069	6620
2958.908	6430
2960.746	6470
2962.584	6490
2964.421	6491
2966.257	6433
2968.094	6326
2969.931	6382
2971.766	6316
2973.601	6286
2975.435	6292
2977.27	6328
2979.105	6361
2980.938	6427
2982.77	6278
2984.602	6279
2986.434	6283
2988.267	6117
2990.097	6212
2991.927	6031
2993.757	6055
2995.587	6089
2997.417	6142
2999.246	6104
3001.074	6061
3002.902	6047
3004.729	5972
3006.556	5872
3008.384	6036
3010.21	5873
3012.036	5857
3013.861	5790
3015.684	5935
3017.51	5901
3019.334	5851
3021.157	5838
3022.981	5695
3024.802	5770
3026.624	5820
3028.448	5788
3030.267	5787
3032.088	5846
3033.909	5675
3035.728	5791
3037.549	5751
3039.368	5672
3041.186	5685
3043.004	5751
3044.821	5638
3046.64	5646
3048.455	5694
3050.272	5801
3052.087	5733
3053.903	5745
3055.717	5670
3057.534	5819
3059.347	5681
3061.16	5639
3062.974	5633
3064.785	5693
3066.598	5641
3068.411	5659
3070.222	5552
3072.032	5724
3073.844	5605
3075.653	5591
3077.463	5678
3079.272	5563
3081.08	5519
3082.889	5576
3084.697	5617
3086.505	5677
3088.312	5572
3090.118	5577
3091.924	5534
3093.729	5535
3095.535	5449
3097.34	5570
3099.144	5540
3100.947	5398
3102.75	5442
3104.553	5400
3106.357	5489
3108.159	5531
3109.961	5549
3111.762	5437
3113.562	5519
3115.365	5394
3117.164	5443
3118.964	5539
3120.761	5590
3122.56	5446
3124.36	5405
3126.158	5450
3127.954	5445
3129.75	5359
3131.547	5302
3133.343	5268
3135.139	5489
3136.934	5407
3138.729	5432
3140.522	5346
3142.317	5514
3144.11	5369
3145.904	5394
3147.695	5287
3149.488	5384
3151.28	5392
3153.07	5348
3154.863	5248
3156.652	5317
3158.441	5251
3160.231	5329
3162.019	5403
3163.81	5268
3165.597	5340
3167.384	5211
3169.172	5247
3170.958	5357
3172.745	5283
3174.532	5302
3176.317	5339
3178.101	5316
3179.885	5237
3181.67	5295
3183.455	5257
3185.238	5358
3187.02	5185
3188.802	5277
3190.585	5306
3192.368	5186
3194.149	5412
3195.929	5189
3197.709	5283
3199.489	5159
3201.268	5205
3203.048	5227
3204.826	5307
3206.604	5121
3208.382	5231
3210.159	5228
3211.937	5143
3213.713	5275
3215.489	5204
3217.263	5127
3219.038	5212
3220.815	5184
3222.589	5185
3224.363	5155
3226.136	5189
3227.908	5141
3229.681	5170
3231.454	5189
3233.226	5153
3234.996	5160
3236.767	5194
3238.538	5086
3240.308	5159
3242.078	5200
3243.847	5132
3245.615	5128
3247.384	5148
3249.15	5171
3250.92	5141
3252.686	5136
3254.453	5068
3256.218	5154
3257.984	5187
3259.75	5021
3261.515	5022
3263.279	5087
3265.044	5180
3266.806	5161
3268.57	5238
3270.334	5167
3272.095	5157
3273.856	5088
3275.619	5273
3277.379	5074
3279.14	5159
3280.9	5082
3282.661	5070
3284.419	5217
3286.178	5166
3287.937	5080
3289.695	5084
3291.453	5145
3293.21	5025
3294.967	5146
3296.723	5148
3298.48	5128
3300.235	5052
3301.99	5107
3303.744	5002
3305.498	5125
3307.253	5051
3309.006	5014
3310.759	5074
3312.511	5106
3314.263	5224
3316.017	5081
3317.768	5172
3319.519	5195
3321.268	5080
3323.018	5140
3324.767	5111
3326.518	5116
3328.267	5066
3330.014	5083
3331.762	4991
3333.509	5023
3335.258	5147
3337.003	5073
3338.75	5065
3340.496	5056
3342.24	5041
3343.987	5013
3345.732	4974
3347.475	4983
3349.219	5035
3350.961	5027
3352.705	4993
3354.448	5040
3356.19	5056
3357.931	5028
3359.672	4924
3361.412	5012
3363.155	4974
3364.894	5046
3366.633	4981
3368.372	5016
3370.11	4947
3371.849	4886
3373.588	4940
3375.325	4910
3377.061	4880
3378.799	4902
3380.534	4936
3382.271	4918
3384.006	4979
3385.741	4905
3387.475	4974
3389.209	4921
3390.944	4956
3392.677	4913
3394.409	4920
3396.143	4924
3397.874	4894
3399.606	4908
3401.338	4863
3403.069	4886
3404.799	4878
3406.528	4803
3408.258	4833
3409.988	4799
3411.717	4837
3413.445	4817
3415.173	4874
3416.899	4883
3418.626	4918
3420.354	4899
3422.08	4940
3423.806	4877
3425.531	4797
3427.255	4850
3428.981	4864
3430.705	4823
3432.429	4919
3434.151	4833
3435.875	4868
3437.599	4805
3439.321	4825
3441.042	4770
3442.763	4818
3444.483	4840
3446.204	4699
3447.926	4844
3449.645	4733
3451.364	4835
3453.082	4699
3454.801	4738
3456.52	4737
3458.238	4629
3459.954	4766
3461.671	4827
3463.387	4741
3465.104	4689
3466.82	4650
3468.534	4736
3470.25	4750
3471.963	4677
3473.676	4637
3475.392	4700
3477.104	4660
3478.817	4605
3480.528	4638
3482.241	4674
3483.954	4730
3485.664	4617
3487.374	4553
3489.084	4659
3490.795	4590
3492.504	4681
3494.214	4632
3495.922	4630
3497.63	4570
3499.338	4588
3501.045	4646
3502.753	4556
3504.459	4485
3506.166	4570
3507.871	4571
3509.576	4520
3511.283	4576
3512.987	4540
3514.691	4499
3516.395	4514
3518.098	4552
3519.8	4436
3521.504	4417
3523.206	4530
3524.908	4520
3526.609	4526
3528.309	4559
3530.011	4619
3531.711	4517
3533.411	4486
3535.109	4403
3536.808	4462
3538.507	4586
3540.206	4509
3541.904	4513
3543.601	4484
3545.297	4430
3546.994	4543
3548.69	4421
3550.387	4478
3552.081	4447
3553.776	4358
3555.47	4369
3557.166	4433
3558.859	4494
3560.553	4391
3562.245	4627
3563.938	4476
3565.629	4368
3567.322	4445
3569.014	4469
3570.704	4430
3572.394	4384
3574.084	4295
3575.775	4398
3577.464	4392
3579.152	4395
3580.842	4287
3582.529	4371
3584.216	4351
3585.905	4334
3587.591	4379
3589.279	4314
3590.964	4342
3592.649	4377
3594.336	4319
3596.021	4341
3597.705	4300
3599.388	4352
3601.072	4234
3602.757	4308
3604.439	4236
3606.122	4278
3607.803	4234
3609.485	4163
3611.167	4251
3612.849	4274
3614.529	4191
3616.208	4189
3617.888	4293
3619.567	4208
3621.247	4136
3622.926	4322
3624.603	4271
3626.281	4311
3627.958	4243
3629.635	4135
3631.312	4279
3632.989	4188
3634.665	4160
3636.339	4183
3638.014	4160
3639.691	4097
3641.364	4198
3643.038	4175
3644.71	4094
3646.384	4231
3648.058	4134
3649.729	4203
3651.402	4059
3653.073	4176
3654.744	4170
3656.414	4102
3658.085	4062
3659.755	4144
3661.424	4197
3663.094	4139
3664.762	4110
3666.431	4106
3668.099	4074
3669.766	4104
3671.433	4005
3673.099	4079
3674.768	4074
3676.433	4025
3678.098	4021
3679.763	4081
3681.428	4114
3683.093	4025
3684.757	4082
3686.421	4108
3688.083	4060
3689.746	4068
3691.408	4058
3693.071	3996
3694.733	4009
3696.394	3989
3698.054	4041
3699.715	4056
3701.375	4091
3703.036	4018
3704.695	4020
3706.354	4010
3708.012	4029
3709.67	4076
3711.329	3960
3712.987	4056
3714.644	4111
3716.299	4039
3717.955	4074
3719.613	4004
3721.268	4050
3722.923	4025
3724.577	3955
3726.231	3985
3727.885	3932
3729.539	3937
3731.192	3995
3732.845	3971
3734.497	4003
3736.149	4037
3737.802	4010
3739.453	3941
3741.104	3909
3742.753	3893
3744.404	3975
3746.052	3884
3747.704	3881
3749.352	3973
3751	3849
3752.648	3874
3754.296	3928
3755.944	3954
3757.59	3935
3759.238	3918
3760.883	3913
3762.528	3907
3764.176	3857
3765.82	3926
3767.464	3919
3769.109	3873
3770.753	3884
3772.396	3858
3774.04	3939
3775.683	3868
3777.325	3831
3778.967	3841
3780.608	3797
3782.25	3846
3783.89	3682
3785.531	3844
3787.17	3914
3788.81	3864
3790.45	3807
3792.09	3790
3793.729	3796
3795.366	3717
3797.003	3858
3798.64	3789
3800.278	3776
3801.915	3792
3803.551	3807
3805.187	3778
3806.822	3740
3808.458	3792
3810.093	3799
3811.726	3766
3813.36	3824
3814.994	3730
3816.627	3756
3818.262	3786
3819.893	3750
3821.525	3702
3823.157	3696
3824.787	3771
3826.42	3814
3828.051	3665
3829.68	3724
3831.31	3729
3832.938	3723
3834.569	3767
3836.198	3666
3837.825	3696
3839.454	3781
3841.08	3713
3842.708	3758
3844.335	3738
3845.962	3655
3847.587	3748
3849.212	3720
3850.838	3707
3852.463	3704
3854.089	3640
3855.712	3685
3857.335	3565
3858.959	3653
3860.582	3646
3862.205	3706
3863.827	3651
3865.449	3692
3867.07	3602
3868.691	3627
3870.312	3675
3871.933	3593
3873.553	3558
3875.173	3663
3876.792	3727
3878.411	3628
3880.03	3639
3881.647	3627
3883.265	3681
3884.882	3603
3886.499	3586
3888.116	3563
3889.732	3627
3891.348	3619
3892.964	3618
3894.579	3646
3896.195	3513
3897.809	3555
3899.423	3546
3901.036	3600
3902.648	3630
3904.261	3584
3905.875	3523
3907.487	3572
3909.099	3555
3910.709	3530
3912.321	3534
3913.933	3637
3915.542	3567
3917.152	3548
3918.762	3687
3920.37	3555
3921.98	3527
3923.589	3586
3925.196	3558
3926.804	3504
3928.41	3635
3930.018	3528
3931.626	3621
3933.231	3573
3934.838	3581
3936.442	3619
3938.046	3522
3939.653	3507
3941.257	3508
3942.861	3446
3944.464	3542
3946.068	3550
3947.67	3481
3949.273	3488
3950.876	3467
3952.477	3503
3954.078	3521
3955.678	3520
3957.281	3528
3958.881	3500
3960.48	3458
3962.079	3508
3963.678	3477
3965.279	3492
3966.877	3496
3968.475	3467
3970.072	3446
3971.669	3479
3973.266	3411
3974.864	3416
3976.459	3384
3978.055	3456
3979.65	3407
3981.245	3395
3982.841	3379
3984.436	3423
3986.03	3497
3987.623	3444
3989.216	3362
3990.809	3367
3992.403	3405
3993.995	3373
3995.586	3337
3997.177	3364
3998.768	3337
4000.361	3362
4001.951	3406
4003.54	3347
4005.13	3310
4006.719	3346
4008.31	3370
4009.897	3398
4011.485	3329
4013.073	3281
4014.66	3325
4016.247	3287
4017.834	3282
4019.421	3365
4021.006	3366
4022.592	3414
4024.178	3324
4025.763	3278
4027.348	3240
4028.932	3284
4030.515	3286
4032.099	3352
4033.682	3303
4035.266	3221
4036.847	3290
4038.429	3224
4040.011	3296
4041.592	3176
4043.173	3219
4044.755	3165
4046.334	3219
4047.913	3274
4049.494	3214
4051.074	3258
4052.652	3271
4054.23	3174
4055.807	3232
4057.385	3226
4058.963	3168
4060.541	3250
4062.117	3207
4063.693	3142
4065.269	3178
4066.844	3236
4068.42	3212
4069.995	3187
4071.569	3240
4073.143	3155
4074.716	3240
4076.291	3199
4077.864	3191
4079.436	3165
4081.009	3238
4082.58	3146
4084.152	3184
4085.723	3119
4087.294	3113
4088.865	3111
4090.435	3211
4092.005	3186
4093.574	3149
4095.143	3130
4096.712	3156
4098.279	3137
4099.848	3159
4101.416	3183
4102.984	3192
4104.55	3133
4106.117	3115
4107.682	3126
4109.248	3156
4110.815	3147
4112.379	3170
4113.945	3016
4115.508	3008
4117.073	3055
4118.637	3103
4120.201	3051
4121.763	3065
4123.325	3055
4124.888	3074
4126.449	3062
4128.013	3182
4129.573	3086
4131.133	3079
4132.694	3059
4134.254	3072
4135.814	3122
4137.374	3124
4138.933	3079
4140.491	3072
4142.049	3081
4143.607	3075
4145.167	3048
4146.724	3051
4148.28	3096
4149.836	2970
4151.392	3092
4152.949	3003
4154.504	3020
4156.059	3075
4157.614	2939
4159.168	2993
4160.723	2995
4162.277	3028
4163.83	3024
4165.383	3052
4166.936	2962
4168.488	2978
4170.041	2950
4171.593	2993
4173.144	3032
4174.695	2962
4176.246	2916
4177.796	2971
4179.346	2911
4180.896	2978
4182.445	2947
4183.994	2960
4185.542	2847
4187.091	2910
4188.639	2942
4190.185	2933
4191.732	2859
4193.279	2927
4194.826	2902
4196.373	2906
4197.918	2865
4199.463	2906
4201.008	2866
4202.553	2881
4204.098	2868
4205.641	2902
4207.185	2871
4208.728	2913
4210.271	2838
4211.814	2916
4213.357	2879
4214.898	2906
4216.439	2857
4217.98	2897
4219.522	2849
4221.062	2860
4222.603	2876
4224.142	2827
4225.681	2855
4227.222	2889
4228.76	2860
4230.298	2835
4231.835	2873
4233.373	2868
4234.911	2859
4236.449	2794
4237.985	2917
4239.521	2887
4241.057	2790
4242.592	2822
4244.128	2884
4245.663	2734
4247.197	2818
4248.731	2852
4250.265	2845
4251.798	2755
4253.333	2722
4254.865	2824
4256.397	2781
4257.93	2837
4259.461	2834
4260.994	2862
4262.525	2832
4264.056	2840
4265.586	2784
4267.115	2779
4268.646	2753
4270.176	2768
4271.705	2831
4273.232	2837
4274.761	2757
4276.289	2788
4277.818	2779
4279.345	2750
4280.872	2744
4282.399	2796
4283.924	2776
4285.452	2732
4286.976	2817
4288.502	2740
4290.026	2763
4291.551	2709
4293.074	2770
4294.6	2720
4296.123	2792
4297.646	2692
4299.168	2717
4300.691	2715
4302.214	2785
4303.736	2726
4305.257	2710
4306.778	2771
4308.299	2703
4309.82	2707
4311.34	2723
4312.86	2761
4314.379	2589
