400.0745	4088
402.597	4092
405.1208	4136
407.6419	4127
410.1623	4168
412.6819	4088
415.201	4159
417.7172	4188
420.2369	4198
422.7538	4236
425.2701	4207
427.7856	4345
430.3005	4265
432.8147	4329
435.3282	4422
437.841	4389
440.3511	4317
442.8625	4298
445.3753	4372
447.8854	4374
450.3927	4397
452.9014	4407
455.4073	4403
457.9146	4390
460.4233	4367
462.9272	4400
465.4325	4351
467.935	4459
470.4389	4482
472.9421	4398
475.4446	4426
477.9444	4433
480.4456	4404
482.944	4395
485.4417	4467
487.9429	4472
490.4393	4448
492.935	4525
495.4321	4571
497.9264	4543
500.4221	4454
502.9171	4524
505.4094	4458
507.9011	4593
510.392	4558
512.8864	4581
515.3759	4688
517.8649	4595
520.3531	4690
522.8406	4510
525.3275	4607
527.8178	4654
530.3033	4627
532.7881	4689
535.2723	4601
537.7558	4738
540.2407	4616
542.7228	4613
545.2043	4608
547.6851	4625
550.1652	4572
552.6467	4675
555.1255	4609
557.6016	4577
560.079	4596
562.5557	4661
565.0318	4651
567.5092	4681
569.984	4655
572.456	4696
574.9294	4798
577.4022	4789
579.8762	4721
582.3456	4781
584.8163	4683
587.2863	4754
589.7557	4797
592.2224	4811
594.6924	4813
597.1578	4762
599.6245	4676
602.0905	4812
604.5538	4778
607.0206	4714
609.4825	4717
611.9459	4763
614.4066	4696
616.8686	4816
619.33	4794
621.7906	4806
624.2487	4748
626.708	4785
629.1647	4856
631.6207	4696
634.0801	4715
636.5348	4770
638.9888	4762
641.4442	4809
643.8969	4810
646.3509	4845
648.8022	4847
651.255	4867
653.705	4762
656.1544	4771
658.6031	4850
661.0532	4877
663.5026	4916
665.9493	4912
668.3954	4855
670.8409	4868
673.2877	4843
675.7318	4968
678.1752	4956
680.618	4927
683.0601	4940
685.5035	4977
687.9444	4950
690.3845	4956
692.824	4892
695.2628	4986
697.701	5023
700.1406	5011
702.5774	4927
705.0116	5050
707.4472	5074
709.8821	5103
712.3183	4993
714.7519	5023
717.1829	4930
719.6151	5113
722.0468	5068
724.4777	5136
726.908	5141
729.3377	5194
731.7667	5125
734.1931	5128
736.6208	5181
739.0498	5194
741.4742	5161
743.9	5262
746.3231	5195
748.7476	5215
751.1713	5233
753.5945	5236
756.015	5216
758.4368	5276
760.856	5390
763.2766	5321
765.6965	5178
768.1157	5300
770.5323	5286
772.9483	5306
775.3656	5368
777.7822	5301
780.1963	5337
782.6116	5329
785.0244	5259
787.4365	5392
789.8499	5259
792.2626	5303
794.6728	5289
797.0823	5356
799.4911	5405
801.8994	5307
804.3109	5285
806.7178	5401
809.124	5334
811.5297	5425
813.9347	5557
816.341	5455
818.7447	5414
821.1478	5423
823.5502	5462
825.952	5408
828.3531	5396
830.7556	5363
833.1554	5413
835.5546	5396
837.9532	5398
840.3511	5478
842.7504	5442
845.1451	5390
847.5411	5497
849.9365	5523
852.3312	5504
854.7272	5461
857.1187	5283
859.5115	5494
861.9037	5447
864.2952	5523
866.6842	5474
869.0764	5500
871.4661	5483
873.8531	5480
876.2415	5418
878.6272	5521
881.0162	5464
883.4026	5543
885.7866	5462
888.1717	5347
890.5543	5468
892.9382	5417
895.3215	5503
897.7041	5469
900.0842	5440
902.4655	5491
904.8443	5579
907.2244	5450
909.6039	5490
911.9808	5614
914.357	5645
916.7346	5478
919.1115	5625
921.4859	5652
923.8616	5776
926.2347	5727
928.6071	5636
930.979	5647
933.3541	5677
935.7247	5745
938.0946	5675
940.4639	5752
942.8326	5801
945.2026	5823
947.5701	5817
949.9369	5884
952.305	5837
954.6705	5938
957.0355	6006
959.4017	6145
961.7654	6219
964.1284	6150
966.4908	5944
968.8527	5984
971.2138	5912
973.5743	5888
975.9343	5793
978.2936	5655
980.6522	5624
983.0122	5699
985.3696	5701
987.7245	5685
990.0807	5679
992.4362	5683
994.7911	5663
997.1474	5695
999.4991	5627
1001.852	5706
1004.205	5613
1006.555	5621
1008.908	5708
1011.258	5661
1013.606	5717
1015.956	5601
1018.302	5548
1020.652	5718
1022.998	5676
1025.345	5670
1027.691	5677
1030.035	5704
1032.378	5768
1034.724	5713
1037.066	5880
1039.409	5644
1041.75	5704
1044.092	5751
1046.433	5774
1048.771	5791
1051.112	5705
1053.449	5736
1055.786	5678
1058.124	5708
1060.462	5941
1062.797	5748
1065.131	5746
1067.467	5816
1069.8	5823
1072.135	5792
1074.467	5791
1076.798	5879
1079.129	5740
1081.459	5888
1083.792	5747
1086.121	5868
1088.449	5763
1090.777	5943
1093.104	5733
1095.431	5799
1097.759	5799
1100.084	5815
1102.408	5717
1104.732	5942
1107.056	5809
1109.379	5682
1111.701	5843
1114.022	5820
1116.343	5924
1118.664	5822
1120.983	5891
1123.303	5802
1125.621	5909
1127.939	5828
1130.256	5824
1132.573	5865
1134.889	5826
1137.205	5851
1139.52	5921
1141.832	5887
1144.146	5793
1146.461	5904
1148.771	5918
1151.083	5786
1153.392	5746
1155.703	5848
1158.011	5740
1160.323	5887
1162.629	5882
1164.938	5842
1167.243	5742
1169.55	5796
1171.857	5715
1174.163	5887
1176.466	5970
1178.769	5859
1181.073	5852
1183.374	5763
1185.677	5786
1187.979	5902
1190.279	5799
1192.578	5931
1194.878	5852
1197.178	5803
1199.476	5816
1201.772	5815
1204.068	5887
1206.366	5843
1208.663	5889
1210.957	5817
1213.251	5904
1215.544	5893
1217.836	5950
1220.128	5924
1222.421	5909
1224.712	5948
1227.002	5851
1229.292	5768
1231.581	5907
1233.871	5920
1236.159	5999
1238.446	5981
1240.732	5995
1243.018	5937
1245.304	5975
1247.59	5978
1249.874	6138
1252.156	5948
1254.439	5951
1256.721	6010
1259.005	6010
1261.286	6117
1263.565	6080
1265.845	5951
1268.125	6036
1270.403	6110
1272.682	6057
1274.959	5978
1277.234	5999
1279.511	6030
1281.787	6063
1284.062	6039
1286.337	5978
1288.609	5983
1290.882	6066
1293.153	5925
1295.428	6058
1297.698	5937
1299.969	5856
1302.237	6009
1304.507	5958
1306.777	5987
1309.044	5981
1311.312	6054
1313.578	5970
1315.844	5931
1318.109	5901
1320.375	5966
1322.638	6018
1324.903	6010
1327.165	6075
1329.427	5988
1331.69	6062
1333.952	6021
1336.212	5850
1338.471	6050
1340.73	5907
1342.988	6022
1345.248	5900
1347.505	5988
1349.763	6000
1352.019	5918
1354.274	6055
1356.53	6025
1358.784	5953
1361.038	6005
1363.291	6004
1365.543	5822
1367.797	6035
1370.048	6026
1372.296	6066
1374.546	6060
1376.796	5956
1379.045	6027
1381.295	6014
1383.542	6100
1385.787	6054
1388.034	6071
1390.28	6067
1392.527	6177
1394.772	6128
1397.014	6133
1399.258	6148
1401.501	6162
1403.741	6188
1405.985	6152
1408.226	6188
1410.465	6172
1412.705	6134
1414.943	6135
1417.184	6117
1419.42	6123
1421.658	6193
1423.894	6139
1426.13	6048
1428.366	6158
1430.602	6156
1432.835	6223
1435.069	6219
1437.301	6221
1439.535	6283
1441.767	6217
1443.997	6159
1446.229	6277
1448.458	6195
1450.687	6217
1452.916	6417
1455.146	6229
1457.372	6248
1459.599	6243
1461.824	6259
1464.051	6251
1466.277	6187
1468.501	6360
1470.725	6089
1472.948	6142
1475.17	6027
1477.393	6162
1479.614	6082
1481.837	5979
1484.057	6046
1486.276	6057
1488.497	6015
1490.715	6006
1492.932	6057
1495.148	5966
1497.364	5969
1499.58	6055
1501.798	5902
1504.012	6029
1506.227	5938
1508.44	6021
1510.653	5882
1512.866	5927
1515.078	6033
1517.289	5922
1519.5	5973
1521.711	6025
1523.92	5912
1526.13	6000
1528.338	5915
1530.544	5979
1532.752	5909
1534.959	6067
1537.165	5954
1539.371	5959
1541.574	6007
1543.779	6094
1545.983	5988
1548.187	6070
1550.39	6001
1552.59	6023
1554.792	5962
1556.991	6046
1559.19	6067
1561.392	6086
1563.59	6075
1565.789	6010
1567.986	6133
1570.182	6113
1572.381	6012
1574.576	6135
1576.771	6194
1578.966	6110
1581.16	6160
1583.354	6232
1585.546	6125
1587.74	6119
1589.931	6075
1592.121	6157
1594.311	6162
1596.502	6169
1598.693	6174
1600.881	6212
1603.069	6172
1605.256	6248
1607.445	6106
1609.631	6131
1611.816	6171
1614.001	6131
1616.186	6271
1618.37	6135
1620.555	6166
1622.737	6166
1624.919	6101
1627.101	6276
1629.282	6291
1631.463	6194
1633.643	6088
1635.822	6107
1638.001	6227
1640.179	6124
1642.359	6175
1644.534	6236
1646.711	6357
1648.887	6134
1651.062	6160
1653.235	6251
1655.412	6275
1657.586	6152
1659.757	6281
1661.93	6234
1664.1	6252
1666.274	6211
1668.445	6280
1670.614	6292
1672.784	6246
1674.951	6226
1677.12	6220
1679.289	6303
1681.457	6305
1683.622	6238
1685.789	6165
1687.953	6137
1690.121	6328
1692.284	6195
1694.447	6205
1696.611	6262
1698.772	6286
1700.935	6137
1703.098	6315
1705.258	6282
1707.417	6119
1709.576	6123
1711.736	6186
1713.896	6194
1716.053	6123
1718.21	6181
1720.366	6117
1722.522	6182
1724.68	6125
1726.835	6141
1728.989	6094
1731.142	6135
1733.295	5990
1735.449	6084
1737.601	6197
1739.753	6151
1741.903	6235
1744.054	6074
1746.203	6172
1748.354	6169
1750.503	6062
1752.651	6133
1754.798	6203
1756.944	6099
1759.092	6153
1761.238	6225
1763.383	6202
1765.528	6236
1767.672	6111
1769.814	6151
1771.959	6226
1774.102	6198
1776.242	6180
1778.384	6268
1780.525	6197
1782.665	6111
1784.805	6262
1786.945	6186
1789.082	6293
1791.22	6313
1793.36	6214
1795.495	6267
1797.632	6122
1799.766	6090
1801.902	6187
1804.035	6187
1806.172	6229
1808.304	6048
1810.436	6208
1812.569	6201
1814.699	6185
1816.833	6222
1818.963	6179
1821.092	6156
1823.222	6200
1825.35	6180
1827.478	6175
1829.608	6224
1831.734	6192
1833.86	6302
1835.986	6163
1838.11	6266
1840.238	6185
1842.362	6134
1844.485	6132
1846.608	6248
1848.73	6110
1850.853	6021
1852.974	6272
1855.097	6134
1857.217	6059
1859.336	6033
1861.455	6072
1863.576	6194
1865.693	6025
1867.811	6018
1869.926	6118
1872.042	6091
1874.16	6112
1876.275	6119
1878.39	6130
1880.504	6133
1882.618	6160
1884.731	6176
1886.843	6157
1888.956	6140
1891.067	6143
1893.178	6243
1895.287	6142
1897.399	6259
1899.508	6107
1901.617	6215
1903.724	6125
1905.832	6197
1907.941	6218
1910.046	6182
1912.152	6193
1914.256	6198
1916.361	6263
1918.464	6170
1920.57	6195
1922.672	6179
1924.775	6194
1926.876	6296
1928.978	6287
1931.08	6278
1933.181	6225
1935.28	6232
1937.38	6212
1939.478	6291
1941.577	6243
1943.675	6218
1945.771	6289
1947.867	6214
1949.964	6225
1952.058	6189
1954.154	6264
1956.248	6204
1958.343	6227
1960.435	6289
1962.527	6235
1964.62	6184
1966.711	6317
1968.802	6191
1970.892	6270
1972.983	6195
1975.072	6256
1977.162	6202
1979.25	6181
1981.337	6165
1983.424	6152
1985.51	6168
1987.598	6058
1989.683	6162
1991.768	6155
1993.852	6164
1995.934	6211
1998.019	6144
2000.102	6203
2002.184	6178
2004.266	6155
2006.347	6153
2008.427	6245
2010.508	6117
2012.587	6068
2014.666	6110
2016.745	6117
2018.821	6215
2020.9	6068
2022.977	5994
2025.052	6111
2027.128	6076
2029.204	6038
2031.277	6098
2033.353	6119
2035.425	6184
2037.499	6130
2039.57	6221
2041.642	6088
2043.714	6116
2045.786	6118
2047.855	6234
2049.925	6143
2051.993	6147
2054.064	6046
2056.132	6157
2058.2	6081
2060.266	6078
2062.332	6080
2064.398	6188
2066.465	6137
2068.529	6197
2070.592	6148
2072.657	6138
2074.719	6083
2076.783	6088
2078.845	6202
2080.907	6149
2082.968	6094
2085.028	6111
2087.087	6208
2089.148	6266
2091.207	6001
2093.264	6096
2095.322	6167
2097.379	6165
2099.439	6016
2101.495	6013
2103.55	6089
2105.605	6050
2107.658	6078
2109.713	6162
2111.767	6010
2113.82	6142
2115.872	6041
2117.924	6115
2119.975	6272
2122.028	6193
2124.078	6070
2126.126	6135
2128.176	6104
2130.225	6103
2132.275	6135
2134.321	6147
2136.368	6081
2138.415	6102
2140.461	6171
2142.505	6102
2144.552	6164
2146.597	6101
2148.64	6108
2150.684	6086
2152.725	5987
2154.77	6076
2156.811	6163
2158.852	6031
2160.894	5996
2162.933	5963
2164.973	6043
2167.013	5997
2169.051	6015
2171.089	6042
2173.126	6032
2175.164	6088
2177.201	6012
2179.236	5981
2181.273	6022
2183.307	6023
2185.341	5930
2187.377	5960
2189.41	6030
2191.442	5945
2193.473	5946
2195.506	5822
2197.539	5964
2199.569	5930
2201.598	5894
2203.628	6012
2205.656	6048
2207.686	5954
2209.716	6014
2211.743	6009
2213.769	5939
2215.796	5938
2217.821	5914
2219.848	5940
2221.873	5945
2223.897	5888
2225.921	5917
2227.944	5880
2229.967	5971
2231.991	5868
2234.011	5890
2236.032	5913
2238.053	5902
2240.073	5853
2242.094	5850
2244.114	6010
2246.131	5953
2248.149	5896
2250.167	5860
2252.186	5844
2254.201	5856
2256.218	5900
2258.233	5897
2260.247	5876
2262.262	5929
2264.278	5887
2266.29	5892
2268.303	5924
2270.315	5856
2272.327	5892
2274.341	5959
2276.35	5983
2278.361	5910
2280.37	5999
2282.38	5847
2284.388	5877
2286.397	5888
2288.405	5946
2290.412	5847
2292.419	5842
2294.425	5835
2296.431	5826
2298.437	5886
2300.441	5910
2302.445	5861
2304.449	5825
2306.453	5830
2308.455	5779
2310.457	5811
2312.459	5921
2314.46	5858
2316.46	5894
2318.461	5770
2320.46	5837
2322.458	5868
2324.458	5881
2326.456	5824
2328.455	5783
2330.451	5908
2332.447	5834
2334.443	5835
2336.438	5753
2338.433	5818
2340.429	5768
2342.422	5834
2344.416	5632
2346.408	5825
2348.399	5837
2350.393	5843
2352.384	5832
2354.375	5650
2356.365	5723
2358.355	5632
2360.344	5819
2362.333	5758
2364.322	5799
2366.309	5680
2368.295	5681
2370.282	5730
2372.27	5814
2374.256	5753
2376.24	5866
2378.225	5687
2380.208	5750
2382.194	5724
2384.177	5718
2386.159	5679
2388.142	5627
2390.122	5638
2392.105	5714
2394.085	5615
2396.066	5663
2398.044	5604
2400.024	5763
2402.002	5583
2403.982	5779
2405.959	5641
2407.935	5681
2409.913	5591
2411.888	5693
2413.865	5554
2415.84	5666
2417.814	5613
2419.788	5562
2421.762	5639
2423.735	5676
2425.708	5665
2427.68	5523
2429.651	5676
2431.623	5607
2433.593	5650
2435.564	5588
2437.533	5655
2439.502	5675
2441.47	5596
2443.438	5673
2445.406	5624
2447.373	5677
2449.34	5737
2451.305	5525
2453.271	5595
2455.235	5489
2457.201	5636
2459.165	5534
2461.129	5626
2463.092	5608
2465.054	5631
2467.018	5483
2468.978	5636
2470.939	5563
2472.899	5552
2474.86	5605
2476.819	5498
2478.778	5521
2480.737	5595
2482.695	5471
2484.653	5556
2486.609	5623
2488.567	5562
2490.524	5612
2492.478	5567
2494.433	5490
2496.387	5511
2498.343	5483
2500.297	5560
2502.249	5501
2504.202	5403
2506.153	5433
2508.105	5515
2510.057	5511
2512.008	5605
2513.957	5464
2515.906	5574
2517.855	5513
2519.805	5581
2521.754	5527
2523.7	5461
2525.647	5417
2527.594	5555
2529.54	5462
2531.486	5431
2533.431	5536
2535.376	5616
2537.32	5532
2539.263	5479
2541.207	5498
2543.151	5537
2545.093	5486
2547.034	5532
2548.975	5554
2550.917	5481
2552.856	5483
2554.796	5500
2556.735	5492
2558.673	5598
2560.611	5379
2562.55	5455
2564.487	5468
2566.424	5460
2568.36	5449
2570.296	5472
2572.232	5465
2574.167	5520
2576.101	5434
2578.035	5575
2579.969	5497
2581.902	5458
2583.834	5411
2585.766	5561
2587.698	5492
2589.628	5516
2591.557	5422
2593.489	5483
2595.419	5383
2597.348	5521
2599.275	5478
2601.204	5467
2603.131	5511
2605.059	5504
2606.986	5516
2608.911	5349
2610.837	5481
2612.76	5540
2614.687	5415
2616.61	5412
2618.534	5390
2620.457	5481
2622.38	5487
2624.302	5434
2626.225	5352
2628.145	5521
2630.067	5602
2631.986	5452
2633.906	5433
2635.827	5423
2637.745	5515
2639.662	5469
2641.581	5468
2643.498	5463
2645.415	5412
2647.331	5513
2649.248	5422
2651.163	5414
2653.077	5470
2654.993	5451
2656.906	5480
2658.821	5456
2660.733	5487
2662.646	5436
2664.557	5470
2666.47	5440
2668.381	5428
2670.291	5459
2672.201	5375
2674.11	5387
2676.021	5521
2677.929	5480
2679.837	5445
2681.745	5421
2683.652	5457
2685.56	5376
2687.466	5402
2689.371	5416
2691.276	5438
2693.181	5490
2695.085	5329
2696.991	5412
2698.893	5427
2700.796	5451
2702.698	5326
2704.601	5449
2706.502	5368
2708.404	5308
2710.304	5316
2712.203	5387
2714.103	5389
2716.003	5350
2717.902	5348
2719.8	5273
2721.697	5338
2723.594	5288
2725.49	5390
2727.389	5393
2729.283	5330
2731.179	5281
2733.073	5376
2734.968	5381
2736.863	5397
2738.757	5287
2740.649	5245
2742.541	5302
2744.433	5283
2746.324	5327
2748.216	5362
2750.107	5289
2751.997	5295
2753.886	5227
2755.776	5313
2757.666	5293
2759.553	5324
2761.44	5272
2763.327	5154
2765.215	5259
2767.102	5223
2768.988	5251
2770.873	5316
2772.757	5282
2774.641	5312
2776.525	5260
2778.41	5231
2780.292	5269
2782.175	5275
2784.057	5315
2785.938	5306
2787.821	5174
2789.701	5208
2791.581	5257
2793.461	5231
2795.34	5208
2797.219	5291
2799.099	5237
2800.975	5250
2802.853	5338
2804.73	5250
2806.606	5190
2808.484	5327
2810.358	5261
2812.233	5140
2814.108	5232
2815.981	5176
2817.857	5144
2819.73	5321
2821.602	5275
2823.474	5157
2825.346	5210
2827.217	5142
2829.089	5258
2830.959	5230
2832.829	5198
2834.698	5113
2836.567	5132
2838.436	5242
2840.305	5205
2842.172	5204
2844.04	5223
2845.905	5163
2847.772	5253
2849.639	5081
2851.503	5320
2853.369	5270
2855.232	5241
2857.096	5334
2858.961	5271
2860.824	5243
2862.686	5253
2864.547	5250
2866.41	5292
2868.272	5257
2870.132	5361
2871.992	5413
2873.851	5405
2875.711	5384
2877.57	5515
2879.429	5385
2881.287	5504
2883.144	5498
2885.001	5506
2886.857	5492
2888.714	5457
2890.57	5440
2892.425	5497
2894.279	5418
2896.133	5495
2897.987	5455
2899.842	5528
2901.694	5593
2903.547	5531
2905.397	5484
2907.249	5463
2909.101	5418
2910.952	5487
2912.802	5560
2914.652	5442
2916.5	5438
2918.35	5542
2920.198	5587
2922.045	5510
2923.893	5687
2925.74	5622
2927.585	5630
2929.433	5711
2931.279	5750
2933.123	5843
2934.968	5786
2936.811	5827
2938.656	5722
2940.5	5840
2942.342	5895
2944.185	5861
2946.026	5864
2947.87	5988
2949.71	5833
2951.549	5948
2953.39	5868
2955.229	5868
2957.069	5879
2958.908	5801
2960.746	5773
2962.584	5760
2964.421	5464
2966.257	5809
2968.094	5605
2969.931	5704
2971.766	5525
2973.601	5567
2975.435	5480
2977.27	5494
2979.105	5417
2980.938	5504
2982.77	5428
2984.602	5491
2986.434	5344
2988.267	5418
2990.097	5351
2991.927	5425
2993.757	5240
2995.587	5226
2997.417	5254
2999.246	5212
3001.074	5196
3002.902	5136
3004.729	5199
3006.556	5075
3008.384	5135
3010.21	5085
3012.036	5066
3013.861	4934
3015.684	5021
3017.51	4990
3019.334	4997
3021.157	4884
3022.981	4988
3024.802	4881
3026.624	4977
3028.448	4843
3030.267	4843
3032.088	4829
3033.909	4975
3035.728	4886
3037.549	4838
3039.368	4791
3041.186	4839
3043.004	4855
3044.821	4825
3046.64	4878
3048.455	4868
3050.272	4776
3052.087	4840
3053.903	4806
3055.717	4812
3057.534	4874
3059.347	4804
3061.16	4854
3062.974	4860
3064.785	4731
3066.598	4850
3068.411	4780
3070.222	4735
3072.032	4744
3073.844	4691
3075.653	4756
3077.463	4769
3079.272	4804
3081.08	4720
3082.889	4690
3084.697	4698
3086.505	4735
3088.312	4677
3090.118	4753
3091.924	4652
3093.729	4772
3095.535	4728
3097.34	4765
3099.144	4682
3100.947	4622
3102.75	4709
3104.553	4668
3106.357	4691
3108.159	4645
3109.961	4634
3111.762	4727
3113.562	4584
3115.365	4579
3117.164	4593
3118.964	4571
3120.761	4613
3122.56	4576
3124.36	4595
3126.158	4653
3127.954	4560
3129.75	4551
3131.547	4581
3133.343	4530
3135.139	4559
3136.934	4649
3138.729	4610
3140.522	4562
3142.317	4583
3144.11	4654
3145.904	4657
3147.695	4517
3149.488	4496
3151.28	4535
3153.07	4540
3154.863	4517
3156.652	4624
3158.441	4502
3160.231	4567
3162.019	4482
3163.81	4484
3165.597	4427
3167.384	4538
3169.172	4467
3170.958	4501
3172.745	4554
3174.532	4563
3176.317	4399
3178.101	4492
3179.885	4467
3181.67	4515
3183.455	4499
3185.238	4510
3187.02	4462
3188.802	4457
3190.585	4464
3192.368	4529
3194.149	4500
3195.929	4447
3197.709	4431
3199.489	4472
3201.268	4416
3203.048	4458
3204.826	4363
3206.604	4459
3208.382	4401
3210.159	4331
3211.937	4414
3213.713	4417
3215.489	4460
3217.263	4404
3219.038	4367
3220.815	4427
3222.589	4503
3224.363	4370
3226.136	4365
3227.908	4445
3229.681	4429
3231.454	4459
3233.226	4470
3234.996	4408
3236.767	4436
3238.538	4459
3240.308	4338
3242.078	4370
3243.847	4442
3245.615	4319
3247.384	4249
3249.15	4374
3250.92	4322
3252.686	4424
3254.453	4407
3256.218	4395
3257.984	4432
3259.75	4435
3261.515	4429
3263.279	4372
3265.044	4341
3266.806	4353
3268.57	4342
3270.334	4330
3272.095	4374
3273.856	4356
3275.619	4331
3277.379	4379
3279.14	4359
3280.9	4411
3282.661	4437
3284.419	4377
3286.178	4422
3287.937	4364
3289.695	4440
3291.453	4352
3293.21	4375
3294.967	4394
3296.723	4397
3298.48	4344
3300.235	4389
3301.99	4288
3303.744	4302
3305.498	4372
3307.253	4241
3309.006	4331
3310.759	4316
3312.511	4318
3314.263	4325
3316.017	4311
3317.768	4376
3319.519	4315
3321.268	4302
3323.018	4300
3324.767	4335
3326.518	4301
3328.267	4368
3330.014	4395
3331.762	4313
3333.509	4342
3335.258	4293
3337.003	4270
3338.75	4367
3340.496	4392
3342.24	4284
3343.987	4301
3345.732	4359
3347.475	4258
3349.219	4302
3350.961	4334
3352.705	4181
3354.448	4298
3356.19	4318
3357.931	4235
3359.672	4283
3361.412	4186
3363.155	4182
3364.894	4357
3366.633	4229
3368.372	4334
3370.11	4217
3371.849	4322
3373.588	4220
3375.325	4251
3377.061	4205
3378.799	4227
3380.534	4279
3382.271	4177
3384.006	4103
3385.741	4207
3387.475	4143
3389.209	4265
3390.944	4214
3392.677	4179
3394.409	4150
3396.143	4259
3397.874	4180
3399.606	4161
3401.338	4169
3403.069	4191
3404.799	4150
3406.528	4211
3408.258	4154
3409.988	4120
3411.717	4133
3413.445	4204
3415.173	4131
3416.899	4193
3418.626	4117
3420.354	4123
3422.08	4091
3423.806	4125
3425.531	4091
3427.255	4090
3428.981	4025
3430.705	4047
3432.429	4128
3434.151	4084
3435.875	4089
3437.599	4084
3439.321	4004
3441.042	4128
3442.763	4079
3444.483	4126
3446.204	4032
3447.926	3970
3449.645	4018
3451.364	3994
3453.082	4063
3454.801	4102
3456.52	4090
3458.238	4023
3459.954	4073
3461.671	4036
3463.387	4009
3465.104	4081
3466.82	3949
3468.534	4039
3470.25	3993
3471.963	4009
3473.676	4000
3475.392	4023
3477.104	3902
3478.817	3849
3480.528	3863
3482.241	3964
3483.954	3916
3485.664	3934
3487.374	3913
3489.084	3872
3490.795	3901
3492.504	3961
3494.214	3898
3495.922	3897
3497.63	3871
3499.338	3942
3501.045	3860
3502.753	3938
3504.459	3959
3506.166	3901
3507.871	3889
3509.576	3837
3511.283	3903
3512.987	3922
3514.691	3847
3516.395	3824
3518.098	3880
3519.8	3813
3521.504	3763
3523.206	3751
3524.908	3876
3526.609	3856
3528.309	3771
3530.011	3841
3531.711	3832
3533.411	3795
3535.109	3840
3536.808	3833
3538.507	3831
3540.206	3815
3541.904	3806
3543.601	3794
3545.297	3790
3546.994	3798
3548.69	3848
3550.387	3723
3552.081	3846
3553.776	3815
3555.47	3764
3557.166	3797
3558.859	3852
3560.553	3688
3562.245	3716
3563.938	3757
3565.629	3788
3567.322	3753
3569.014	3756
3570.704	3814
3572.394	3727
3574.084	3663
3575.775	3703
3577.464	3769
3579.152	3706
3580.842	3691
3582.529	3708
3584.216	3748
3585.905	3704
3587.591	3668
3589.279	3650
3590.964	3713
3592.649	3732
3594.336	3683
3596.021	3732
3597.705	3703
3599.388	3663
3601.072	3664
3602.757	3673
3604.439	3664
3606.122	3572
3607.803	3634
3609.485	3651
3611.167	3654
3612.849	3652
3614.529	3651
3616.208	3624
3617.888	3549
3619.567	3549
3621.247	3637
3622.926	3593
3624.603	3622
3626.281	3601
3627.958	3550
3629.635	3607
3631.312	3647
3632.989	3583
3634.665	3548
3636.339	3541
3638.014	3594
3639.691	3654
3641.364	3546
3643.038	3510
3644.71	3534
3646.384	3495
3648.058	3652
3649.729	3441
3651.402	3527
3653.073	3613
3654.744	3562
3656.414	3584
3658.085	3424
3659.755	3554
3661.424	3554
3663.094	3542
3664.762	3435
3666.431	3539
3668.099	3520
3669.766	3442
3671.433	3472
3673.099	3435
3674.768	3468
3676.433	3519
3678.098	3518
3679.763	3465
3681.428	3473
3683.093	3391
3684.757	3435
3686.421	3448
3688.083	3496
3689.746	3395
3691.408	3461
3693.071	3511
3694.733	3453
3696.394	3397
3698.054	3416
3699.715	3474
3701.375	3368
3703.036	3509
3704.695	3448
3706.354	3504
3708.012	3424
3709.67	3376
3711.329	3479
3712.987	3401
3714.644	3442
3716.299	3466
3717.955	3407
3719.613	3355
3721.268	3461
3722.923	3405
3724.577	3444
3726.231	3368
3727.885	3357
3729.539	3412
3731.192	3383
3732.845	3378
3734.497	3356
3736.149	3356
3737.802	3365
3739.453	3357
3741.104	3390
3742.753	3361
3744.404	3368
3746.052	3326
3747.704	3317
3749.352	3374
3751	3307
3752.648	3320
3754.296	3289
3755.944	3393
3757.59	3341
3759.238	3353
3760.883	3310
3762.528	3247
3764.176	3341
3765.82	3271
3767.464	3309
3769.109	3263
3770.753	3295
3772.396	3223
3774.04	3268
3775.683	3243
3777.325	3338
3778.967	3299
3780.608	3190
3782.25	3282
3783.89	3215
3785.531	3228
3787.17	3325
3788.81	3273
3790.45	3225
3792.09	3259
3793.729	3204
3795.366	3333
3797.003	3292
3798.64	3194
3800.278	3284
3801.915	3252
3803.551	3264
3805.187	3241
3806.822	3262
3808.458	3256
3810.093	3163
3811.726	3294
3813.36	3182
3814.994	3200
3816.627	3285
3818.262	3237
3819.893	3183
3821.525	3206
3823.157	3200
3824.787	3222
3826.42	3187
3828.051	3130
3829.68	3148
3831.31	3226
3832.938	3240
3834.569	3133
3836.198	3191
3837.825	3143
3839.454	3180
3841.08	3149
3842.708	3169
3844.335	3125
3845.962	3076
3847.587	3130
3849.212	3125
3850.838	3188
3852.463	3170
3854.089	3067
3855.712	3183
3857.335	3113
3858.959	3093
3860.582	3142
3862.205	3145
3863.827	3118
3865.449	3138
3867.07	3139
3868.691	3099
3870.312	3097
3871.933	3155
3873.553	3118
3875.173	3121
3876.792	3168
3878.411	3093
3880.03	3112
3881.647	3035
3883.265	3102
3884.882	3029
3886.499	2980
3888.116	3140
3889.732	3051
3891.348	3125
3892.964	3117
3894.579	3093
3896.195	3061
3897.809	3024
3899.423	3071
3901.036	3081
3902.648	3010
3904.261	3041
3905.875	3076
3907.487	3048
3909.099	3055
3910.709	3079
3912.321	3047
3913.933	3021
3915.542	3037
3917.152	3021
3918.762	3058
3920.37	3061
3921.98	3013
3923.589	3100
3925.196	3081
3926.804	3131
3928.41	3079
3930.018	2978
3931.626	3050
3933.231	2982
3934.838	3019
3936.442	3020
3938.046	2943
3939.653	3043
3941.257	2960
3942.861	3036
3944.464	3024
3946.068	2962
3947.67	3057
3949.273	3035
3950.876	2952
3952.477	2969
3954.078	2938
3955.678	2994
3957.281	3081
3958.881	2933
3960.48	2965
3962.079	2895
3963.678	2955
3965.279	3032
3966.877	3002
3968.475	2997
3970.072	2924
3971.669	2920
3973.266	2954
3974.864	2929
3976.459	2900
3978.055	2989
3979.65	2934
3981.245	2976
3982.841	2929
3984.436	2891
3986.03	2979
3987.623	2949
3989.216	2876
3990.809	2875
3992.403	2846
3993.995	2911
3995.586	2892
3997.177	2904
3998.768	2837
4000.361	2798
4001.951	2856
4003.54	2880
4005.13	2876
4006.719	2839
4008.31	2829
4009.897	2900
4011.485	2833
4013.073	2814
4014.66	2879
4016.247	2944
4017.834	2861
4019.421	2836
4021.006	2850
4022.592	2865
4024.178	2879
4025.763	2818
4027.348	2863
4028.932	2749
4030.515	2916
4032.099	2840
4033.682	2792
4035.266	2812
4036.847	2879
4038.429	2794
4040.011	2825
4041.592	2795
4043.173	2771
4044.755	2758
4046.334	2785
4047.913	2790
4049.494	2713
4051.074	2730
4052.652	2762
4054.23	2765
4055.807	2741
4057.385	2746
4058.963	2748
4060.541	2738
4062.117	2667
4063.693	2777
4065.269	2835
4066.844	2772
4068.42	2724
4069.995	2753
4071.569	2717
4073.143	2716
4074.716	2764
4076.291	2733
4077.864	2699
4079.436	2722
4081.009	2702
4082.58	2711
4084.152	2714
4085.723	2705
4087.294	2722
4088.865	2738
4090.435	2727
4092.005	2754
4093.574	2701
4095.143	2741
4096.712	2696
4098.279	2725
4099.848	2733
4101.416	2711
4102.984	2743
4104.55	2722
4106.117	2729
4107.682	2684
4109.248	2614
4110.815	2682
4112.379	2575
4113.945	2602
4115.508	2711
4117.073	2662
4118.637	2647
4120.201	2622
4121.763	2675
4123.325	2675
4124.888	2675
4126.449	2557
4128.013	2629
4129.573	2587
4131.133	2657
4132.694	2603
4134.254	2559
4135.814	2661
4137.374	2568
4138.933	2611
4140.491	2655
4142.049	2598
4143.607	2581
4145.167	2617
4146.724	2632
4148.28	2529
4149.836	2584
4151.392	2624
4152.949	2588
4154.504	2560
4156.059	2561
4157.614	2556
4159.168	2594
4160.723	2521
4162.277	2567
4163.83	2577
4165.383	2585
4166.936	2593
4168.488	2497
4170.041	2635
4171.593	2537
4173.144	2613
4174.695	2533
4176.246	2644
4177.796	2571
4179.346	2521
4180.896	2506
4182.445	2521
4183.994	2551
4185.542	2499
4187.091	2476
4188.639	2542
4190.185	2491
4191.732	2471
4193.279	2534
4194.826	2522
4196.373	2540
4197.918	2527
4199.463	2549
4201.008	2446
4202.553	2488
4204.098	2436
4205.641	2485
4207.185	2494
4208.728	2550
4210.271	2525
4211.814	2472
4213.357	2529
4214.898	2456
4216.439	2451
4217.98	2455
4219.522	2511
4221.062	2512
4222.603	2424
4224.142	2478
4225.681	2431
4227.222	2451
4228.76	2384
4230.298	2415
4231.835	2401
4233.373	2441
4234.911	2490
4236.449	2467
4237.985	2432
4239.521	2449
4241.057	2417
4242.592	2423
4244.128	2439
4245.663	2398
4247.197	2451
4248.731	2465
4250.265	2467
4251.798	2419
4253.333	2374
4254.865	2394
4256.397	2379
4257.93	2416
4259.461	2388
4260.994	2364
4262.525	2411
4264.056	2447
4265.586	2343
4267.115	2377
4268.646	2396
4270.176	2397
4271.705	2420
4273.232	2396
4274.761	2363
4276.289	2383
4277.818	2437
4279.345	2321
4280.872	2275
4282.399	2355
4283.924	2418
4285.452	2391
4286.976	2359
4288.502	2316
4290.026	2391
4291.551	2362
4293.074	2361
4294.6	2319
4296.123	2312
4297.646	2386
4299.168	2293
4300.691	2352
4302.214	2295
4303.736	2388
4305.257	2312
4306.778	2364
4308.299	2308
4309.82	2371
4311.34	2346
4312.86	2344
4314.379	2316
