400.0745	4094
402.597	4083
405.1208	4082
407.6419	4108
410.1623	4083
412.6819	4141
415.201	4093
417.7172	4095
420.2369	4288
422.7538	4270
425.2701	4209
427.7856	4253
430.3005	4288
432.8147	4336
435.3282	4323
437.841	4277
440.3511	4263
442.8625	4288
445.3753	4325
447.8854	4325
450.3927	4368
452.9014	4336
455.4073	4353
457.9146	4356
460.4233	4363
462.9272	4387
465.4325	4379
467.935	4371
470.4389	4403
472.9421	4452
475.4446	4461
477.9444	4405
480.4456	4311
482.944	4439
485.4417	4499
487.9429	4469
490.4393	4470
492.935	4559
495.4321	4486
497.9264	4414
500.4221	4470
502.9171	4488
505.4094	4470
507.9011	4407
510.392	4440
512.8864	4513
515.3759	4679
517.8649	4567
520.3531	4532
522.8406	4514
525.3275	4528
527.8178	4627
530.3033	4595
532.7881	4544
535.2723	4536
537.7558	4524
540.2407	4506
542.7228	4594
545.2043	4507
547.6851	4565
550.1652	4527
552.6467	4544
555.1255	4531
557.6016	4543
560.079	4592
562.5557	4661
565.0318	4623
567.5092	4615
569.984	4523
572.456	4628
574.9294	4714
577.4022	4652
579.8762	4816
582.3456	4720
584.8163	4781
587.2863	4762
589.7557	4810
592.2224	4798
594.6924	4832
597.1578	4789
599.6245	4741
602.0905	4781
604.5538	4712
607.0206	4814
609.4825	4693
611.9459	4717
614.4066	4744
616.8686	4753
619.33	4659
621.7906	4650
624.2487	4704
626.708	4611
629.1647	4685
631.6207	4724
634.0801	4721
636.5348	4680
638.9888	4712
641.4442	4727
643.8969	4788
646.3509	4894
648.8022	4801
651.255	4814
653.705	4717
656.1544	4846
658.6031	4750
661.0532	4826
663.5026	4822
665.9493	4909
668.3954	4844
670.8409	4873
673.2877	4837
675.7318	4904
678.1752	4912
680.618	4883
683.0601	4905
685.5035	4893
687.9444	4867
690.3845	4842
692.824	4909
695.2628	4921
697.701	4905
700.1406	4960
702.5774	4987
705.0116	4971
707.4472	4951
709.8821	5054
712.3183	5038
714.7519	5027
717.1829	4952
719.6151	5078
722.0468	4977
724.4777	5044
726.908	5159
729.3377	5001
731.7667	5052
734.1931	5169
736.6208	5091
739.0498	5161
741.4742	5182
743.9	5199
746.3231	5185
748.7476	5149
751.1713	5118
753.5945	5069
756.015	5278
758.4368	5213
760.856	5255
763.2766	5243
765.6965	5319
768.1157	5338
770.5323	5354
772.9483	5253
775.3656	5343
777.7822	5255
780.1963	5201
782.6116	5229
785.0244	5221
787.4365	5269
789.8499	5217
792.2626	5304
794.6728	5222
797.0823	5259
799.4911	5362
801.8994	5211
804.3109	5184
806.7178	5267
809.124	5308
811.5297	5307
813.9347	5285
816.341	5340
818.7447	5229
821.1478	5294
823.5502	5335
825.952	5372
828.3531	5312
830.7556	5298
833.1554	5261
835.5546	5251
837.9532	5322
840.3511	5360
842.7504	5354
845.1451	5313
847.5411	5337
849.9365	5450
852.3312	5431
854.7272	5496
857.1187	5442
859.5115	5463
861.9037	5399
864.2952	5394
866.6842	5407
869.0764	5497
871.4661	5412
873.8531	5382
876.2415	5372
878.6272	5384
881.0162	5323
883.4026	5354
885.7866	5336
888.1717	5348
890.5543	5382
892.9382	5390
895.3215	5392
897.7041	5401
900.0842	5319
902.4655	5387
904.8443	5270
907.2244	5388
909.6039	5435
911.9808	5424
914.357	5483
916.7346	5490
919.1115	5488
921.4859	5587
923.8616	5508
926.2347	5567
928.6071	5592
930.979	5501
933.3541	5618
935.7247	5641
938.0946	5577
940.4639	5693
942.8326	5714
945.2026	5777
947.5701	5856
949.9369	5869
952.305	6043
954.6705	6083
957.0355	6268
959.4017	6301
961.7654	6309
964.1284	6353
966.4908	6296
968.8527	6135
971.2138	6040
973.5743	5866
975.9343	5762
978.2936	5643
980.6522	5720
983.0122	5629
985.3696	5593
987.7245	5590
990.0807	5590
992.4362	5557
994.7911	5554
997.1474	5644
999.4991	5607
1001.852	5712
1004.205	5575
1006.555	5703
1008.908	5607
1011.258	5603
1013.606	5673
1015.956	5635
1018.302	5691
1020.652	5612
1022.998	5603
1025.345	5641
1027.691	5676
1030.035	5616
1032.378	5658
1034.724	5745
1037.066	5631
1039.409	5774
1041.75	5654
1044.092	5700
1046.433	5649
1048.771	5747
1051.112	5530
1053.449	5677
1055.786	5653
1058.124	5649
1060.462	5682
1062.797	5674
1065.131	5789
1067.467	5694
1069.8	5839
1072.135	5728
1074.467	5808
1076.798	5772
1079.129	5769
1081.459	5615
1083.792	5817
1086.121	5786
1088.449	5692
1090.777	5709
1093.104	5707
1095.431	5785
1097.759	5702
1100.084	5626
1102.408	5788
1104.732	5741
1107.056	5819
1109.379	5766
1111.701	5618
1114.022	5655
1116.343	5767
1118.664	5783
1120.983	5801
1123.303	5793
1125.621	5764
1127.939	5736
1130.256	5734
1132.573	5708
1134.889	5756
1137.205	5784
1139.52	5723
1141.832	5721
1144.146	5807
1146.461	5789
1148.771	5862
1151.083	5770
1153.392	5805
1155.703	5785
1158.011	5771
1160.323	5814
1162.629	5845
1164.938	5763
1167.243	5710
1169.55	5841
1171.857	5770
1174.163	5754
1176.466	5706
1178.769	5856
1181.073	5904
1183.374	5792
1185.677	5778
1187.979	5727
1190.279	5773
1192.578	5761
1194.878	5731
1197.178	5748
1199.476	5800
1201.772	5770
1204.068	5817
1206.366	5795
1208.663	5791
1210.957	5668
1213.251	5742
1215.544	5726
1217.836	5761
1220.128	5948
1222.421	5765
1224.712	5835
1227.002	5976
1229.292	5856
1231.581	5904
1233.871	5881
1236.159	5922
1238.446	6100
1240.732	5919
1243.018	6025
1245.304	6067
1247.59	6004
1249.874	5974
1252.156	6009
1254.439	6022
1256.721	5937
1259.005	5934
1261.286	5902
1263.565	5984
1265.845	5911
1268.125	5962
1270.403	5963
1272.682	5836
1274.959	5914
1277.234	6005
1279.511	6121
1281.787	5969
1284.062	5892
1286.337	6072
1288.609	5937
1290.882	5913
1293.153	5909
1295.428	5918
1297.698	5852
1299.969	5884
1302.237	5991
1304.507	5821
1306.777	5808
1309.044	5819
1311.312	5971
1313.578	5956
1315.844	5845
1318.109	6007
1320.375	5945
1322.638	5884
1324.903	5973
1327.165	5909
1329.427	5792
1331.69	5915
1333.952	5914
1336.212	5842
1338.471	5839
1340.73	5881
1342.988	5891
1345.248	5901
1347.505	5896
1349.763	5930
1352.019	5910
1354.274	5925
1356.53	5899
1358.784	5960
1361.038	5946
1363.291	5876
1365.543	5861
1367.797	5938
1370.048	6005
1372.296	6044
1374.546	5893
1376.796	5927
1379.045	5961
1381.295	5965
1383.542	5952
1385.787	6013
1388.034	6024
1390.28	5945
1392.527	5878
1394.772	5915
1397.014	5961
1399.258	5957
1401.501	5980
1403.741	6049
1405.985	5999
1408.226	6025
1410.465	5905
1412.705	6000
1414.943	6127
1417.184	6102
1419.42	5996
1421.658	6065
1423.894	6120
1426.13	5997
1428.366	6004
1430.602	6060
1432.835	5986
1435.069	6132
1437.301	6101
1439.535	6208
1441.767	6137
1443.997	6036
1446.229	6131
1448.458	6126
1450.687	6190
1452.916	6162
1455.146	6206
1457.372	6202
1459.599	6201
1461.824	6203
1464.051	6119
1466.277	6185
1468.501	6153
1470.725	5969
1472.948	6132
1475.17	6108
1477.393	6018
1479.614	6003
1481.837	5908
1484.057	6006
1486.276	5973
1488.497	6047
1490.715	5995
1492.932	6110
1495.148	5978
1497.364	5993
1499.58	5929
1501.798	5991
1504.012	6018
1506.227	5951
1508.44	5870
1510.653	5970
1512.866	5863
1515.078	5907
1517.289	5959
1519.5	5918
1521.711	5994
1523.92	5985
1526.13	5932
1528.338	5912
1530.544	5943
1532.752	5888
1534.959	5962
1537.165	5862
1539.371	5929
1541.574	5930
1543.779	5915
1545.983	5972
1548.187	5987
1550.39	5959
1552.59	5954
1554.792	6014
1556.991	5924
1559.19	6100
1561.392	6178
1563.59	6015
1565.789	5999
1567.986	6070
1570.182	6155
1572.381	6097
1574.576	6056
1576.771	6085
1578.966	6071
1581.16	6103
1583.354	6140
1585.546	6093
1587.74	6160
1589.931	6119
1592.121	6089
1594.311	6115
1596.502	6186
1598.693	6145
1600.881	6168
1603.069	6122
1605.256	6301
1607.445	6110
1609.631	6178
1611.816	6196
1614.001	6127
1616.186	6132
1618.37	6169
1620.555	6086
1622.737	6140
1624.919	6120
1627.101	6153
1629.282	6100
1631.463	6230
1633.643	6182
1635.822	6158
1638.001	6163
1640.179	6128
1642.359	6191
1644.534	6215
1646.711	6125
1648.887	6147
1651.062	6246
1653.235	6242
1655.412	6118
1657.586	6226
1659.757	6345
1661.93	6112
1664.1	6210
1666.274	6180
1668.445	6276
1670.614	6301
1672.784	6296
1674.951	6154
1677.12	6258
1679.289	6293
1681.457	6233
1683.622	6146
1685.789	6243
1687.953	6277
1690.121	6222
1692.284	6203
1694.447	6186
1696.611	6173
1698.772	6226
1700.935	6068
1703.098	6121
1705.258	6232
1707.417	6155
1709.576	6189
1711.736	6065
1713.896	6194
1716.053	6173
1718.21	6029
1720.366	6156
1722.522	6133
1724.68	6223
1726.835	6062
1728.989	6016
1731.142	6176
1733.295	6055
1735.449	6052
1737.601	6212
1739.753	6070
1741.903	6104
1744.054	5931
1746.203	6116
1748.354	6131
1750.503	6165
1752.651	6121
1754.798	6065
1756.944	6105
1759.092	6113
1761.238	6090
1763.383	6096
1765.528	6192
1767.672	6097
1769.814	6200
1771.959	6106
1774.102	6156
1776.242	6285
1778.384	6176
1780.525	6141
1782.665	6157
1784.805	6180
1786.945	6260
1789.082	6186
1791.22	6214
1793.36	6295
1795.495	6204
1797.632	6236
1799.766	6207
1801.902	6117
1804.035	6205
1806.172	6191
1808.304	6165
1810.436	6221
1812.569	6178
1814.699	6212
1816.833	6190
1818.963	6219
1821.092	6191
1823.222	6030
1825.35	6158
1827.478	6048
1829.608	6131
1831.734	6186
1833.86	6104
1835.986	6018
1838.11	6196
1840.238	6059
1842.362	6121
1844.485	6201
1846.608	6227
1848.73	6169
1850.853	6089
1852.974	6198
1855.097	5980
1857.217	6153
1859.336	6217
1861.455	6021
1863.576	6146
1865.693	6169
1867.811	6142
1869.926	6213
1872.042	6025
1874.16	6171
1876.275	6199
1878.39	6110
1880.504	6088
1882.618	6213
1884.731	6136
1886.843	6156
1888.956	6215
1891.067	6238
1893.178	6177
1895.287	6096
1897.399	6078
1899.508	6082
1901.617	6267
1903.724	6142
1905.832	6114
1907.941	6227
1910.046	6247
1912.152	6214
1914.256	6206
1916.361	6272
1918.464	6262
1920.57	6311
1922.672	6173
1924.775	6300
1926.876	6171
1928.978	6307
1931.08	6280
1933.181	6275
1935.28	6255
1937.38	6286
1939.478	6381
1941.577	6244
1943.675	6230
1945.771	6268
1947.867	6289
1949.964	6248
1952.058	6235
1954.154	6188
1956.248	6212
1958.343	6299
1960.435	6244
1962.527	6175
1964.62	6255
1966.711	6346
1968.802	6224
1970.892	6240
1972.983	6238
1975.072	6273
1977.162	6157
1979.25	6179
1981.337	6301
1983.424	6232
1985.51	6244
1987.598	6118
1989.683	6296
1991.768	6194
1993.852	6239
1995.934	6211
1998.019	6281
2000.102	6381
2002.184	6280
2004.266	6298
2006.347	6200
2008.427	6229
2010.508	6141
2012.587	6166
2014.666	6196
2016.745	6222
2018.821	6147
2020.9	6290
2022.977	6190
2025.052	6156
2027.128	6184
2029.204	6186
2031.277	6122
2033.353	6218
2035.425	6244
2037.499	6267
2039.57	6345
2041.642	6217
2043.714	6166
2045.786	6203
2047.855	6245
2049.925	6225
2051.993	6147
2054.064	6271
2056.132	6281
2058.2	6350
2060.266	6233
2062.332	6264
2064.398	6289
2066.465	6375
2068.529	6278
2070.592	6220
2072.657	6181
2074.719	6244
2076.783	6278
2078.845	6190
2080.907	6220
2082.968	6329
2085.028	6226
2087.087	6294
2089.148	6323
2091.207	6241
2093.264	6262
2095.322	6342
2097.379	6277
2099.439	6289
2101.495	6319
2103.55	6265
2105.605	6327
2107.658	6230
2109.713	6252
2111.767	6265
2113.82	6359
2115.872	6354
2117.924	6270
2119.975	6362
2122.028	6324
2124.078	6304
2126.126	6208
2128.176	6218
2130.225	6295
2132.275	6221
2134.321	6241
2136.368	6269
2138.415	6232
2140.461	6273
2142.505	6229
2144.552	6269
2146.597	6287
2148.64	6363
2150.684	6278
2152.725	6290
2154.77	6308
2156.811	6242
2158.852	6239
2160.894	6128
2162.933	6254
2164.973	6227
2167.013	6321
2169.051	6286
2171.089	6149
2173.126	6149
2175.164	6243
2177.201	6291
2179.236	6255
2181.273	6262
2183.307	6082
2185.341	6237
2187.377	6091
2189.41	6089
2191.442	6166
2193.473	6160
2195.506	6186
2197.539	6217
2199.569	6087
2201.598	6091
2203.628	6093
2205.656	6125
2207.686	6138
2209.716	6099
2211.743	6218
2213.769	6187
2215.796	6121
2217.821	6037
2219.848	6091
2221.873	6159
2223.897	6211
2225.921	6176
2227.944	6126
2229.967	6172
2231.991	6105
2234.011	6033
2236.032	6090
2238.053	6124
2240.073	6148
2242.094	6145
2244.114	6232
2246.131	6150
2248.149	6157
2250.167	6045
2252.186	6071
2254.201	6102
2256.218	6331
2258.233	6099
2260.247	6063
2262.262	6238
2264.278	6105
2266.29	6130
2268.303	6170
2270.315	6152
2272.327	6076
2274.341	6181
2276.35	6058
2278.361	6150
2280.37	6114
2282.38	6103
2284.388	6118
2286.397	6120
2288.405	6168
2290.412	6105
2292.419	6151
2294.425	6082
2296.431	6199
2298.437	6096
2300.441	6039
2302.445	6135
2304.449	6186
2306.453	6104
2308.455	6022
2310.457	6123
2312.459	6106
2314.46	6062
2316.46	6087
2318.461	6049
2320.46	6142
2322.458	6054
2324.458	6015
2326.456	6053
2328.455	6116
2330.451	6066
2332.447	6087
2334.443	6073
2336.438	6006
2338.433	6051
2340.429	6084
2342.422	6103
2344.416	6033
2346.408	5993
2348.399	5997
2350.393	5897
2352.384	6032
2354.375	6055
2356.365	5950
2358.355	5933
2360.344	5958
2362.333	5886
2364.322	5947
2366.309	5981
2368.295	6040
2370.282	5941
2372.27	5992
2374.256	5908
2376.24	5965
2378.225	5922
2380.208	6014
2382.194	6055
2384.177	5945
2386.159	5971
2388.142	5949
2390.122	5903
2392.105	5894
2394.085	5995
2396.066	5973
2398.044	5924
2400.024	5864
2402.002	5915
2403.982	5782
2405.959	5915
2407.935	5900
2409.913	5848
2411.888	5926
2413.865	5965
2415.84	5802
2417.814	5863
2419.788	5852
2421.762	5926
2423.735	5984
2425.708	5909
2427.68	5899
2429.651	5895
2431.623	5894
2433.593	5820
2435.564	5930
2437.533	5994
2439.502	5925
2441.47	5861
2443.438	5978
2445.406	5891
2447.373	5813
2449.34	5878
2451.305	5760
2453.271	5785
2455.235	5829
2457.201	5774
2459.165	5792
2461.129	6027
2463.092	5858
2465.054	5763
2467.018	5778
2468.978	5916
2470.939	5691
2472.899	5774
2474.86	5878
2476.819	5790
2478.778	5775
2480.737	5881
2482.695	5753
2484.653	5860
2486.609	5914
2488.567	5864
2490.524	5881
2492.478	5787
2494.433	5787
2496.387	5800
2498.343	5814
2500.297	5863
2502.249	5707
2504.202	5740
2506.153	5886
2508.105	5817
2510.057	5639
2512.008	5718
2513.957	5658
2515.906	5760
2517.855	5788
2519.805	5705
2521.754	5780
2523.7	5766
2525.647	5702
2527.594	5800
2529.54	5716
2531.486	5846
2533.431	5773
2535.376	5778
2537.32	5811
2539.263	5734
2541.207	5870
2543.151	5807
2545.093	5678
2547.034	5699
2548.975	5643
2550.917	5874
2552.856	5689
2554.796	5802
2556.735	5768
2558.673	5777
2560.611	5751
2562.55	5707
2564.487	5706
2566.424	5747
2568.36	5744
2570.296	5751
2572.232	5770
2574.167	5792
2576.101	5621
2578.035	5774
2579.969	5717
2581.902	5709
2583.834	5700
2585.766	5689
2587.698	5649
2589.628	5771
2591.557	5724
2593.489	5676
2595.419	5723
2597.348	5710
2599.275	5794
2601.204	5661
2603.131	5693
2605.059	5690
2606.986	5747
2608.911	5756
2610.837	5758
2612.76	5740
2614.687	5846
2616.61	5746
2618.534	5647
2620.457	5781
2622.38	5833
2624.302	5699
2626.225	5730
2628.145	5799
2630.067	5777
2631.986	5711
2633.906	5764
2635.827	5707
2637.745	5725
2639.662	5650
2641.581	5704
2643.498	5692
2645.415	5672
2647.331	5661
2649.248	5670
2651.163	5687
2653.077	5746
2654.993	5576
2656.906	5668
2658.821	5724
2660.733	5660
2662.646	5615
2664.557	5573
2666.47	5633
2668.381	5698
2670.291	5714
2672.201	5689
2674.11	5692
2676.021	5785
2677.929	5572
2679.837	5764
2681.745	5615
2683.652	5647
2685.56	5707
2687.466	5704
2689.371	5617
2691.276	5724
2693.181	5644
2695.085	5565
2696.991	5654
2698.893	5682
2700.796	5631
2702.698	5544
2704.601	5573
2706.502	5612
2708.404	5493
2710.304	5556
2712.203	5568
2714.103	5472
2716.003	5521
2717.902	5557
2719.8	5714
2721.697	5535
2723.594	5543
2725.49	5530
2727.389	5582
2729.283	5478
2731.179	5688
2733.073	5588
2734.968	5512
2736.863	5559
2738.757	5524
2740.649	5635
2742.541	5541
2744.433	5552
2746.324	5582
2748.216	5654
2750.107	5574
2751.997	5593
2753.886	5436
2755.776	5631
2757.666	5616
2759.553	5659
2761.44	5571
2763.327	5427
2765.215	5511
2767.102	5406
2768.988	5519
2770.873	5443
2772.757	5529
2774.641	5547
2776.525	5514
2778.41	5535
2780.292	5519
2782.175	5482
2784.057	5501
2785.938	5476
2787.821	5459
2789.701	5589
2791.581	5538
2793.461	5469
2795.34	5388
2797.219	5430
2799.099	5556
2800.975	5519
2802.853	5461
2804.73	5509
2806.606	5503
2808.484	5486
2810.358	5572
2812.233	5367
2814.108	5478
2815.981	5480
2817.857	5468
2819.73	5422
2821.602	5520
2823.474	5348
2825.346	5402
2827.217	5437
2829.089	5411
2830.959	5454
2832.829	5413
2834.698	5484
2836.567	5431
2838.436	5392
2840.305	5435
2842.172	5367
2844.04	5405
2845.905	5404
2847.772	5424
2849.639	5533
2851.503	5497
2853.369	5579
2855.232	5423
2857.096	5411
2858.961	5492
2860.824	5416
2862.686	5529
2864.547	5607
2866.41	5527
2868.272	5515
2870.132	5531
2871.992	5646
2873.851	5480
2875.711	5486
2877.57	5620
2879.429	5709
2881.287	5794
2883.144	5739
2885.001	5791
2886.857	5644
2888.714	5628
2890.57	5770
2892.425	5646
2894.279	5611
2896.133	5675
2897.987	5796
2899.842	5728
2901.694	5607
2903.547	5732
2905.397	5758
2907.249	5637
2909.101	5686
2910.952	5688
2912.802	5666
2914.652	5725
2916.5	5742
2918.35	5783
2920.198	5779
2922.045	5755
2923.893	5808
2925.74	5736
2927.585	5822
2929.433	5910
2931.279	5985
2933.123	5921
2934.968	5963
2936.811	5998
2938.656	5906
2940.5	6113
2942.342	6253
2944.185	6095
2946.026	6023
2947.87	5995
2949.71	6022
2951.549	6014
2953.39	6095
2955.229	5884
2957.069	5873
2958.908	5962
2960.746	5943
2962.584	5887
2964.421	5861
2966.257	5711
2968.094	5782
2969.931	5769
2971.766	5755
2973.601	5675
2975.435	5755
2977.27	5757
2979.105	5697
2980.938	5694
2982.77	5567
2984.602	5751
2986.434	5622
2988.267	5609
2990.097	5444
2991.927	5548
2993.757	5502
2995.587	5509
2997.417	5351
2999.246	5443
3001.074	5502
3002.902	5368
3004.729	5325
3006.556	5375
3008.384	5277
3010.21	5407
3012.036	5241
3013.861	5251
3015.684	5245
3017.51	5213
3019.334	5266
3021.157	5207
3022.981	5191
3024.802	5153
3026.624	5132
3028.448	5081
3030.267	5143
3032.088	5118
3033.909	5056
3035.728	5138
3037.549	5015
3039.368	5042
3041.186	5126
3043.004	5145
3044.821	5148
3046.64	5000
3048.455	5141
3050.272	5161
3052.087	5155
3053.903	5053
3055.717	5022
3057.534	5035
3059.347	5043
3061.16	5028
3062.974	4987
3064.785	5087
3066.598	4991
3068.411	5069
3070.222	5044
3072.032	5033
3073.844	4969
3075.653	4978
3077.463	4963
3079.272	4985
3081.08	5005
3082.889	5047
3084.697	4910
3086.505	4955
3088.312	4931
3090.118	4936
3091.924	4904
3093.729	4874
3095.535	4901
3097.34	4944
3099.144	4915
3100.947	4921
3102.75	4975
3104.553	4972
3106.357	4914
3108.159	4880
3109.961	4897
3111.762	4826
3113.562	4871
3115.365	4874
3117.164	4757
3118.964	4755
3120.761	4813
3122.56	4838
3124.36	4871
3126.158	4769
3127.954	4903
3129.75	4898
3131.547	4781
3133.343	4673
3135.139	4746
3136.934	4786
3138.729	4753
3140.522	4763
3142.317	4851
3144.11	4806
3145.904	4699
3147.695	4798
3149.488	4814
3151.28	4819
3153.07	4764
3154.863	4732
3156.652	4788
3158.441	4805
3160.231	4856
3162.019	4725
3163.81	4711
3165.597	4723
3167.384	4750
3169.172	4679
3170.958	4728
3172.745	4655
3174.532	4685
3176.317	4688
3178.101	4718
3179.885	4593
3181.67	4605
3183.455	4652
3185.238	4669
3187.02	4643
3188.802	4765
3190.585	4636
3192.368	4720
3194.149	4700
3195.929	4646
3197.709	4609
3199.489	4680
3201.268	4661
3203.048	4735
3204.826	4631
3206.604	4639
3208.382	4714
3210.159	4600
3211.937	4648
3213.713	4683
3215.489	4634
3217.263	4621
3219.038	4582
3220.815	4688
3222.589	4552
3224.363	4474
3226.136	4675
3227.908	4634
3229.681	4583
3231.454	4624
3233.226	4629
3234.996	4592
3236.767	4742
3238.538	4620
3240.308	4588
3242.078	4599
3243.847	4669
3245.615	4544
3247.384	4576
3249.15	4664
3250.92	4578
3252.686	4608
3254.453	4588
3256.218	4591
3257.984	4587
3259.75	4655
3261.515	4627
3263.279	4610
3265.044	4566
3266.806	4652
3268.57	4568
3270.334	4573
3272.095	4617
3273.856	4589
3275.619	4675
3277.379	4647
3279.14	4581
3280.9	4627
3282.661	4554
3284.419	4542
3286.178	4547
3287.937	4557
3289.695	4644
3291.453	4556
3293.21	4605
3294.967	4646
3296.723	4564
3298.48	4541
3300.235	4644
3301.99	4572
3303.744	4612
3305.498	4551
3307.253	4453
3309.006	4527
3310.759	4537
3312.511	4565
3314.263	4684
3316.017	4502
3317.768	4470
3319.519	4538
3321.268	4547
3323.018	4530
3324.767	4539
3326.518	4542
3328.267	4561
3330.014	4497
3331.762	4541
3333.509	4613
3335.258	4542
3337.003	4520
3338.75	4553
3340.496	4534
3342.24	4478
3343.987	4533
3345.732	4538
3347.475	4592
3349.219	4478
3350.961	4539
3352.705	4554
3354.448	4565
3356.19	4547
3357.931	4468
3359.672	4577
3361.412	4520
3363.155	4469
3364.894	4520
3366.633	4441
3368.372	4507
3370.11	4560
3371.849	4431
3373.588	4426
3375.325	4465
3377.061	4440
3378.799	4492
3380.534	4443
3382.271	4441
3384.006	4504
3385.741	4433
3387.475	4349
3389.209	4409
3390.944	4377
3392.677	4417
3394.409	4389
3396.143	4461
3397.874	4531
3399.606	4438
3401.338	4385
3403.069	4481
3404.799	4402
3406.528	4423
3408.258	4320
3409.988	4454
3411.717	4410
3413.445	4439
3415.173	4426
3416.899	4294
3418.626	4405
3420.354	4443
3422.08	4329
3423.806	4360
3425.531	4362
3427.255	4394
3428.981	4386
3430.705	4349
3432.429	4363
3434.151	4338
3435.875	4343
3437.599	4326
3439.321	4246
3441.042	4346
3442.763	4339
3444.483	4326
3446.204	4307
3447.926	4338
3449.645	4349
3451.364	4300
3453.082	4366
3454.801	4286
3456.52	4348
3458.238	4244
3459.954	4190
3461.671	4304
3463.387	4306
3465.104	4309
3466.82	4218
3468.534	4243
3470.25	4179
3471.963	4280
3473.676	4167
3475.392	4232
3477.104	4207
3478.817	4179
3480.528	4221
3482.241	4240
3483.954	4198
3485.664	4208
3487.374	4089
3489.084	4219
3490.795	4195
3492.504	4291
3494.214	4191
3495.922	4226
3497.63	4159
3499.338	4276
3501.045	4169
3502.753	4173
3504.459	4184
3506.166	4136
3507.871	4156
3509.576	4195
3511.283	4162
3512.987	4082
3514.691	4232
3516.395	4123
3518.098	4237
3519.8	4136
3521.504	4196
3523.206	4126
3524.908	4117
3526.609	4116
3528.309	4069
3530.011	4125
3531.711	4088
3533.411	4135
3535.109	4040
3536.808	4157
3538.507	4123
3540.206	4062
3541.904	4073
3543.601	4038
3545.297	4051
3546.994	4034
3548.69	4060
3550.387	3999
3552.081	4110
3553.776	4018
3555.47	3990
3557.166	4028
3558.859	4092
3560.553	4012
3562.245	4060
3563.938	4000
3565.629	4042
3567.322	4040
3569.014	4091
3570.704	4049
3572.394	4019
3574.084	4008
3575.775	4002
3577.464	4033
3579.152	4103
3580.842	3991
3582.529	4022
3584.216	3988
3585.905	3991
3587.591	3980
3589.279	3948
3590.964	3977
3592.649	3930
3594.336	3967
3596.021	3997
3597.705	3824
3599.388	3936
3601.072	4000
3602.757	3947
3604.439	3892
3606.122	3908
3607.803	3961
3609.485	3896
3611.167	3988
3612.849	3947
3614.529	3946
3616.208	3896
3617.888	3865
3619.567	3815
3621.247	3897
3622.926	3909
3624.603	3838
3626.281	3884
3627.958	3830
3629.635	3841
3631.312	3882
3632.989	3786
3634.665	3778
3636.339	3735
3638.014	3797
3639.691	3845
3641.364	3817
3643.038	3768
3644.71	3781
3646.384	3787
3648.058	3769
3649.729	3805
3651.402	3829
3653.073	3752
3654.744	3796
3656.414	3692
3658.085	3744
3659.755	3809
3661.424	3773
3663.094	3828
3664.762	3807
3666.431	3691
3668.099	3745
3669.766	3767
3671.433	3759
3673.099	3664
3674.768	3744
3676.433	3776
3678.098	3789
3679.763	3745
3681.428	3760
3683.093	3722
3684.757	3736
3686.421	3727
3688.083	3736
3689.746	3691
3691.408	3720
3693.071	3733
3694.733	3720
3696.394	3727
3698.054	3718
3699.715	3716
3701.375	3712
3703.036	3765
3704.695	3682
3706.354	3664
3708.012	3773
3709.67	3655
3711.329	3612
3712.987	3680
3714.644	3680
3716.299	3726
3717.955	3616
3719.613	3643
3721.268	3676
3722.923	3704
3724.577	3674
3726.231	3711
3727.885	3681
3729.539	3716
3731.192	3585
3732.845	3610
3734.497	3582
3736.149	3673
3737.802	3631
3739.453	3684
3741.104	3629
3742.753	3612
3744.404	3617
3746.052	3566
3747.704	3583
3749.352	3592
3751	3644
3752.648	3602
3754.296	3626
3755.944	3545
3757.59	3583
3759.238	3591
3760.883	3544
3762.528	3570
3764.176	3511
3765.82	3529
3767.464	3584
3769.109	3567
3770.753	3545
3772.396	3594
3774.04	3659
3775.683	3613
3777.325	3569
3778.967	3562
3780.608	3541
3782.25	3606
3783.89	3529
3785.531	3567
3787.17	3582
3788.81	3555
3790.45	3529
3792.09	3498
3793.729	3447
3795.366	3469
3797.003	3483
3798.64	3582
3800.278	3479
3801.915	3505
3803.551	3532
3805.187	3468
3806.822	3509
3808.458	3446
3810.093	3481
3811.726	3410
3813.36	3514
3814.994	3496
3816.627	3443
3818.262	3511
3819.893	3430
3821.525	3543
3823.157	3454
3824.787	3507
3826.42	3463
3828.051	3401
3829.68	3440
3831.31	3445
3832.938	3458
3834.569	3440
3836.198	3473
3837.825	3435
3839.454	3426
3841.08	3442
3842.708	3415
3844.335	3415
3845.962	3459
3847.587	3446
3849.212	3457
3850.838	3452
3852.463	3456
3854.089	3432
3855.712	3385
3857.335	3395
3858.959	3392
3860.582	3403
3862.205	3413
3863.827	3420
3865.449	3396
3867.07	3378
3868.691	3327
3870.312	3328
3871.933	3392
3873.553	3358
3875.173	3419
3876.792	3280
3878.411	3401
3880.03	3409
3881.647	3335
3883.265	3304
3884.882	3450
3886.499	3337
3888.116	3380
3889.732	3340
3891.348	3432
3892.964	3322
3894.579	3335
3896.195	3296
3897.809	3325
3899.423	3303
3901.036	3313
3902.648	3309
3904.261	3332
3905.875	3343
3907.487	3304
3909.099	3334
3910.709	3279
3912.321	3324
3913.933	3266
3915.542	3237
3917.152	3323
3918.762	3277
3920.37	3328
3921.98	3230
3923.589	3348
3925.196	3303
3926.804	3227
3928.41	3248
3930.018	3288
3931.626	3282
3933.231	3271
3934.838	3292
3936.442	3291
3938.046	3230
3939.653	3349
3941.257	3255
3942.861	3277
3944.464	3173
3946.068	3180
3947.67	3279
3949.273	3257
3950.876	3317
3952.477	3284
3954.078	3292
3955.678	3244
3957.281	3233
3958.881	3220
3960.48	3201
3962.079	3180
3963.678	3143
3965.279	3209
3966.877	3261
3968.475	3199
3970.072	3148
3971.669	3194
3973.266	3153
3974.864	3239
3976.459	3189
3978.055	3119
3979.65	3208
3981.245	3208
3982.841	3188
3984.436	3203
3986.03	3132
3987.623	3181
3989.216	3180
3990.809	3152
3992.403	3093
3993.995	3162
3995.586	3108
3997.177	3107
3998.768	3106
4000.361	3108
4001.951	3113
4003.54	3083
4005.13	3105
4006.719	3080
4008.31	3087
4009.897	3113
4011.485	3150
4013.073	3148
4014.66	3098
4016.247	3074
4017.834	3114
4019.421	3054
4021.006	3091
4022.592	3143
4024.178	3083
4025.763	3123
4027.348	2990
4028.932	3019
4030.515	3081
4032.099	3076
4033.682	3000
4035.266	2970
4036.847	3047
4038.429	3013
4040.011	3021
4041.592	3036
4043.173	3124
4044.755	3058
4046.334	3070
4047.913	3021
4049.494	3000
4051.074	3066
4052.652	3045
4054.23	3049
4055.807	3039
4057.385	3009
4058.963	2999
4060.541	2976
4062.117	2999
4063.693	2960
4065.269	2967
4066.844	3045
4068.42	3011
4069.995	2933
4071.569	2932
4073.143	2976
4074.716	2974
4076.291	2923
4077.864	2988
4079.436	2984
4081.009	2992
4082.58	2983
4084.152	2968
4085.723	2879
4087.294	2872
4088.865	2891
4090.435	2983
4092.005	3027
4093.574	2915
4095.143	2970
4096.712	2943
4098.279	2956
4099.848	2883
4101.416	2929
4102.984	2956
4104.55	2906
4106.117	2857
4107.682	2942
4109.248	2911
4110.815	2908
4112.379	2957
4113.945	2904
4115.508	2871
4117.073	2886
4118.637	2930
4120.201	2841
4121.763	2908
4123.325	2860
4124.888	2914
4126.449	2898
4128.013	2932
4129.573	2841
4131.133	2923
4132.694	2872
4134.254	2802
4135.814	2890
4137.374	2776
4138.933	2875
4140.491	2813
4142.049	2793
4143.607	2876
4145.167	2873
4146.724	2842
4148.28	2760
4149.836	2789
4151.392	2843
4152.949	2776
4154.504	2854
4156.059	2821
4157.614	2809
4159.168	2800
4160.723	2756
4162.277	2816
4163.83	2828
4165.383	2821
4166.936	2828
4168.488	2809
4170.041	2767
4171.593	2767
4173.144	2787
4174.695	2798
4176.246	2731
4177.796	2751
4179.346	2765
4180.896	2735
4182.445	2728
4183.994	2704
4185.542	2801
4187.091	2723
4188.639	2742
4190.185	2786
4191.732	2751
4193.279	2698
4194.826	2711
4196.373	2695
4197.918	2730
4199.463	2712
4201.008	2741
4202.553	2756
4204.098	2671
4205.641	2704
4207.185	2708
4208.728	2594
4210.271	2653
4211.814	2761
4213.357	2675
4214.898	2682
4216.439	2626
4217.98	2745
4219.522	2717
4221.062	2693
4222.603	2684
4224.142	2630
4225.681	2566
4227.222	2763
4228.76	2643
4230.298	2758
4231.835	2608
4233.373	2633
4234.911	2675
4236.449	2741
4237.985	2701
4239.521	2717
4241.057	2678
4242.592	2669
4244.128	2656
4245.663	2642
4247.197	2631
4248.731	2687
4250.265	2613
4251.798	2667
4253.333	2667
4254.865	2743
4256.397	2665
4257.93	2706
4259.461	2598
4260.994	2598
4262.525	2640
4264.056	2638
4265.586	2672
4267.115	2600
4268.646	2648
4270.176	2645
4271.705	2601
4273.232	2632
4274.761	2611
4276.289	2618
4277.818	2699
4279.345	2563
4280.872	2551
4282.399	2595
4283.924	2587
4285.452	2599
4286.976	2590
4288.502	2610
4290.026	2642
4291.551	2554
4293.074	2607
4294.6	2602
4296.123	2608
4297.646	2592
4299.168	2507
4300.691	2648
4302.214	2519
4303.736	2494
4305.257	2653
4306.778	2519
4308.299	2519
4309.82	2540
4311.34	2584
4312.86	2534
4314.379	2545
