400.0745	4540
402.597	4521
405.1208	4661
407.6419	4584
410.1623	4734
412.6819	4568
415.201	4705
417.7172	4696
420.2369	4904
422.7538	4881
425.2701	4902
427.7856	4934
430.3005	4940
432.8147	4967
435.3282	4956
437.841	4902
440.3511	5016
442.8625	4992
445.3753	4956
447.8854	4987
450.3927	4930
452.9014	5063
455.4073	4939
457.9146	4932
460.4233	4905
462.9272	4877
465.4325	4811
467.935	4865
470.4389	4978
472.9421	4976
475.4446	4959
477.9444	4983
480.4456	4873
482.944	4930
485.4417	4913
487.9429	4995
490.4393	5072
492.935	5072
495.4321	4992
497.9264	4903
500.4221	5072
502.9171	4986
505.4094	5073
507.9011	5075
510.392	5091
512.8864	5072
515.3759	5033
517.8649	5205
520.3531	5086
522.8406	5080
525.3275	5043
527.8178	5158
530.3033	5092
532.7881	5088
535.2723	5099
537.7558	5146
540.2407	5050
542.7228	5084
545.2043	5015
547.6851	5143
550.1652	5133
552.6467	5084
555.1255	5093
557.6016	5127
560.079	5169
562.5557	5133
565.0318	5259
567.5092	5238
569.984	5183
572.456	5238
574.9294	5351
577.4022	5332
579.8762	5270
582.3456	5363
584.8163	5368
587.2863	5421
589.7557	5411
592.2224	5448
594.6924	5459
597.1578	5385
599.6245	5299
602.0905	5241
604.5538	5249
607.0206	5424
609.4825	5339
611.9459	5350
614.4066	5299
616.8686	5369
619.33	5245
621.7906	5321
624.2487	5257
626.708	5319
629.1647	5252
631.6207	5275
634.0801	5216
636.5348	5235
638.9888	5304
641.4442	5278
643.8969	5267
646.3509	5284
648.8022	5234
651.255	5336
653.705	5234
656.1544	5323
658.6031	5369
661.0532	5248
663.5026	5478
665.9493	5358
668.3954	5333
670.8409	5417
673.2877	5458
675.7318	5379
678.1752	5365
680.618	5523
683.0601	5412
685.5035	5462
687.9444	5432
690.3845	5445
692.824	5557
695.2628	5498
697.701	5543
700.1406	5530
702.5774	5436
705.0116	5505
707.4472	5459
709.8821	5513
712.3183	5516
714.7519	5445
717.1829	5584
719.6151	5561
722.0468	5573
724.4777	5640
726.908	5676
729.3377	5570
731.7667	5688
734.1931	5601
736.6208	5565
739.0498	5743
741.4742	5686
743.9	5758
746.3231	5742
748.7476	5932
751.1713	5849
753.5945	5835
756.015	5854
758.4368	5814
760.856	5834
763.2766	5878
765.6965	5839
768.1157	5783
770.5323	5791
772.9483	5820
775.3656	5975
777.7822	5850
780.1963	5939
782.6116	5908
785.0244	5860
787.4365	5843
789.8499	5833
792.2626	5889
794.6728	5905
797.0823	5861
799.4911	5830
801.8994	5844
804.3109	5876
806.7178	6029
809.124	5875
811.5297	5871
813.9347	5940
816.341	5955
818.7447	5920
821.1478	5980
823.5502	6116
825.952	5882
828.3531	5943
830.7556	5983
833.1554	5878
835.5546	6040
837.9532	5926
840.3511	5966
842.7504	6082
845.1451	6083
847.5411	6096
849.9365	6145
852.3312	6186
854.7272	6094
857.1187	6172
859.5115	6139
861.9037	6080
864.2952	6044
866.6842	6068
869.0764	6198
871.4661	5998
873.8531	6145
876.2415	6068
878.6272	6011
881.0162	6084
883.4026	6078
885.7866	6039
888.1717	6147
890.5543	6177
892.9382	6212
895.3215	5981
897.7041	6030
900.0842	6157
902.4655	6121
904.8443	6041
907.2244	6209
909.6039	6107
911.9808	6176
914.357	6196
916.7346	6272
919.1115	6460
921.4859	6310
923.8616	6373
926.2347	6374
928.6071	6325
930.979	6335
933.3541	6400
935.7247	6479
938.0946	6580
940.4639	6628
942.8326	6637
945.2026	6821
947.5701	6989
949.9369	7114
952.305	7335
954.6705	7750
957.0355	8078
959.4017	8448
961.7654	8527
964.1284	8405
966.4908	8065
968.8527	7682
971.2138	7336
973.5743	7052
975.9343	6726
978.2936	6610
980.6522	6423
983.0122	6414
985.3696	6319
987.7245	6374
990.0807	6419
992.4362	6305
994.7911	6227
997.1474	6328
999.4991	6329
1001.852	6361
1004.205	6358
1006.555	6324
1008.908	6396
1011.258	6380
1013.606	6395
1015.956	6391
1018.302	6307
1020.652	6321
1022.998	6359
1025.345	6315
1027.691	6412
1030.035	6434
1032.378	6514
1034.724	6484
1037.066	6532
1039.409	6540
1041.75	6469
1044.092	6553
1046.433	6452
1048.771	6413
1051.112	6396
1053.449	6575
1055.786	6482
1058.124	6477
1060.462	6548
1062.797	6608
1065.131	6557
1067.467	6559
1069.8	6546
1072.135	6722
1074.467	6804
1076.798	6727
1079.129	6682
1081.459	6618
1083.792	6627
1086.121	6641
1088.449	6466
1090.777	6569
1093.104	6472
1095.431	6414
1097.759	6441
1100.084	6493
1102.408	6385
1104.732	6518
1107.056	6516
1109.379	6526
1111.701	6492
1114.022	6522
1116.343	6421
1118.664	6501
1120.983	6419
1123.303	6378
1125.621	6448
1127.939	6521
1130.256	6511
1132.573	6372
1134.889	6400
1137.205	6428
1139.52	6514
1141.832	6568
1144.146	6522
1146.461	6476
1148.771	6476
1151.083	6408
1153.392	6485
1155.703	6354
1158.011	6579
1160.323	6374
1162.629	6503
1164.938	6427
1167.243	6531
1169.55	6481
1171.857	6484
1174.163	6423
1176.466	6525
1178.769	6488
1181.073	6484
1183.374	6356
1185.677	6338
1187.979	6416
1190.279	6588
1192.578	6434
1194.878	6420
1197.178	6370
1199.476	6491
1201.772	6460
1204.068	6365
1206.366	6451
1208.663	6457
1210.957	6576
1213.251	6472
1215.544	6530
1217.836	6463
1220.128	6543
1222.421	6524
1224.712	6536
1227.002	6727
1229.292	6613
1231.581	6500
1233.871	6665
1236.159	6731
1238.446	6870
1240.732	6767
1243.018	6670
1245.304	6787
1247.59	6908
1249.874	6798
1252.156	6732
1254.439	6741
1256.721	6700
1259.005	6817
1261.286	6800
1263.565	6778
1265.845	6785
1268.125	6787
1270.403	6818
1272.682	6761
1274.959	6795
1277.234	6695
1279.511	6712
1281.787	6678
1284.062	6725
1286.337	6746
1288.609	6687
1290.882	6478
1293.153	6646
1295.428	6735
1297.698	6685
1299.969	6649
1302.237	6669
1304.507	6696
1306.777	6660
1309.044	6594
1311.312	6625
1313.578	6692
1315.844	6600
1318.109	6674
1320.375	6659
1322.638	6492
1324.903	6593
1327.165	6548
1329.427	6576
1331.69	6632
1333.952	6586
1336.212	6623
1338.471	6620
1340.73	6675
1342.988	6572
1345.248	6659
1347.505	6528
1349.763	6512
1352.019	6669
1354.274	6585
1356.53	6615
1358.784	6558
1361.038	6594
1363.291	6480
1365.543	6683
1367.797	6576
1370.048	6548
1372.296	6683
1374.546	6619
1376.796	6665
1379.045	6666
1381.295	6625
1383.542	6716
1385.787	6695
1388.034	6581
1390.28	6742
1392.527	6656
1394.772	6735
1397.014	6802
1399.258	6712
1401.501	6734
1403.741	6676
1405.985	6597
1408.226	6772
1410.465	6724
1412.705	6658
1414.943	6712
1417.184	6767
1419.42	6776
1421.658	6775
1423.894	6776
1426.13	6813
1428.366	6917
1430.602	6724
1432.835	6888
1435.069	6864
1437.301	6743
1439.535	6803
1441.767	7051
1443.997	6875
1446.229	6917
1448.458	7029
1450.687	7031
1452.916	6900
1455.146	7043
1457.372	6953
1459.599	7043
1461.824	7062
1464.051	7016
1466.277	6954
1468.501	6837
1470.725	6938
1472.948	6845
1475.17	6705
1477.393	6855
1479.614	6805
1481.837	6682
1484.057	6765
1486.276	6635
1488.497	6721
1490.715	6663
1492.932	6596
1495.148	6568
1497.364	6637
1499.58	6678
1501.798	6522
1504.012	6583
1506.227	6588
1508.44	6626
1510.653	6584
1512.866	6622
1515.078	6571
1517.289	6628
1519.5	6512
1521.711	6545
1523.92	6576
1526.13	6502
1528.338	6612
1530.544	6543
1532.752	6604
1534.959	6616
1537.165	6588
1539.371	6588
1541.574	6511
1543.779	6642
1545.983	6642
1548.187	6604
1550.39	6665
1552.59	6651
1554.792	6670
1556.991	6656
1559.19	6667
1561.392	6719
1563.59	6749
1565.789	6671
1567.986	6738
1570.182	6737
1572.381	6723
1574.576	6663
1576.771	6751
1578.966	6742
1581.16	6855
1583.354	6714
1585.546	6817
1587.74	6601
1589.931	6813
1592.121	6791
1594.311	6716
1596.502	6872
1598.693	6776
1600.881	6714
1603.069	6702
1605.256	6803
1607.445	6846
1609.631	6724
1611.816	6854
1614.001	6886
1616.186	6746
1618.37	6959
1620.555	6817
1622.737	6910
1624.919	6906
1627.101	6975
1629.282	6802
1631.463	6841
1633.643	6874
1635.822	6888
1638.001	7000
1640.179	6863
1642.359	6908
1644.534	6961
1646.711	6929
1648.887	6805
1651.062	6924
1653.235	6895
1655.412	7004
1657.586	6952
1659.757	7023
1661.93	6886
1664.1	6941
1666.274	7014
1668.445	7124
1670.614	7037
1672.784	6879
1674.951	6938
1677.12	6990
1679.289	6962
1681.457	6978
1683.622	6997
1685.789	7023
1687.953	7047
1690.121	6901
1692.284	6842
1694.447	6945
1696.611	6881
1698.772	6801
1700.935	6745
1703.098	6889
1705.258	6871
1707.417	6792
1709.576	6764
1711.736	6744
1713.896	6702
1716.053	6819
1718.21	6700
1720.366	6751
1722.522	6625
1724.68	6750
1726.835	6784
1728.989	6725
1731.142	6766
1733.295	6740
1735.449	6742
1737.601	6814
1739.753	6815
1741.903	6689
1744.054	6723
1746.203	6643
1748.354	6830
1750.503	6741
1752.651	6796
1754.798	6616
1756.944	6762
1759.092	6719
1761.238	6741
1763.383	6743
1765.528	6822
1767.672	6792
1769.814	6760
1771.959	6889
1774.102	6733
1776.242	6740
1778.384	6811
1780.525	6820
1782.665	6677
1784.805	6844
1786.945	6891
1789.082	6774
1791.22	6930
1793.36	6833
1795.495	6886
1797.632	6787
1799.766	6877
1801.902	6665
1804.035	6832
1806.172	6765
1808.304	6847
1810.436	6692
1812.569	6931
1814.699	6810
1816.833	6710
1818.963	6802
1821.092	6736
1823.222	6825
1825.35	6861
1827.478	6715
1829.608	6687
1831.734	6794
1833.86	6837
1835.986	6841
1838.11	6826
1840.238	6755
1842.362	6804
1844.485	6770
1846.608	6744
1848.73	6701
1850.853	6682
1852.974	6737
1855.097	6702
1857.217	6757
1859.336	6825
1861.455	6621
1863.576	6746
1865.693	6828
1867.811	6796
1869.926	6622
1872.042	6692
1874.16	6791
1876.275	6664
1878.39	6665
1880.504	6800
1882.618	6770
1884.731	6711
1886.843	6869
1888.956	6752
1891.067	6748
1893.178	6794
1895.287	6691
1897.399	6710
1899.508	6809
1901.617	6837
1903.724	6793
1905.832	6776
1907.941	6731
1910.046	6752
1912.152	6753
1914.256	6825
1916.361	6813
1918.464	6711
1920.57	6822
1922.672	6896
1924.775	6889
1926.876	6839
1928.978	6933
1931.08	6757
1933.181	6736
1935.28	6941
1937.38	6737
1939.478	6812
1941.577	6912
1943.675	6759
1945.771	6857
1947.867	6823
1949.964	6840
1952.058	6865
1954.154	6819
1956.248	6817
1958.343	6797
1960.435	6782
1962.527	6844
1964.62	6789
1966.711	6803
1968.802	6880
1970.892	6649
1972.983	6759
1975.072	6804
1977.162	6797
1979.25	6783
1981.337	6907
1983.424	6760
1985.51	6895
1987.598	6735
1989.683	6780
1991.768	6767
1993.852	6756
1995.934	6804
1998.019	6744
2000.102	6790
2002.184	6774
2004.266	6692
2006.347	6738
2008.427	6688
2010.508	6777
2012.587	6808
2014.666	6835
2016.745	6722
2018.821	6798
2020.9	6743
2022.977	6817
2025.052	6782
2027.128	6761
2029.204	6747
2031.277	6754
2033.353	6733
2035.425	6681
2037.499	6772
2039.57	6697
2041.642	6872
2043.714	6823
2045.786	6721
2047.855	6669
2049.925	6765
2051.993	6688
2054.064	6635
2056.132	6676
2058.2	6812
2060.266	6663
2062.332	6685
2064.398	6719
2066.465	6807
2068.529	6742
2070.592	6741
2072.657	6733
2074.719	6706
2076.783	6675
2078.845	6828
2080.907	6722
2082.968	6726
2085.028	6752
2087.087	6744
2089.148	6683
2091.207	6707
2093.264	6700
2095.322	6769
2097.379	6815
2099.439	6734
2101.495	6696
2103.55	6819
2105.605	6801
2107.658	6743
2109.713	6645
2111.767	6751
2113.82	6760
2115.872	6742
2117.924	6748
2119.975	6739
2122.028	6631
2124.078	6740
2126.126	6697
2128.176	6740
2130.225	6690
2132.275	6804
2134.321	6803
2136.368	6768
2138.415	6731
2140.461	6616
2142.505	6813
2144.552	6693
2146.597	6741
2148.64	6727
2150.684	6704
2152.725	6793
2154.77	6742
2156.811	6664
2158.852	6742
2160.894	6516
2162.933	6605
2164.973	6641
2167.013	6730
2169.051	6574
2171.089	6699
2173.126	6665
2175.164	6553
2177.201	6659
2179.236	6621
2181.273	6691
2183.307	6573
2185.341	6632
2187.377	6547
2189.41	6670
2191.442	6713
2193.473	6589
2195.506	6696
2197.539	6643
2199.569	6574
2201.598	6599
2203.628	6649
2205.656	6640
2207.686	6556
2209.716	6592
2211.743	6566
2213.769	6578
2215.796	6639
2217.821	6572
2219.848	6548
2221.873	6529
2223.897	6402
2225.921	6499
2227.944	6679
2229.967	6483
2231.991	6466
2234.011	6628
2236.032	6612
2238.053	6474
2240.073	6519
2242.094	6539
2244.114	6640
2246.131	6587
2248.149	6478
2250.167	6570
2252.186	6466
2254.201	6618
2256.218	6569
2258.233	6566
2260.247	6538
2262.262	6582
2264.278	6486
2266.29	6522
2268.303	6632
2270.315	6576
2272.327	6519
2274.341	6642
2276.35	6496
2278.361	6567
2280.37	6539
2282.38	6586
2284.388	6635
2286.397	6471
2288.405	6551
2290.412	6507
2292.419	6540
2294.425	6502
2296.431	6601
2298.437	6565
2300.441	6617
2302.445	6555
2304.449	6626
2306.453	6558
2308.455	6472
2310.457	6515
2312.459	6622
2314.46	6532
2316.46	6470
2318.461	6442
2320.46	6471
2322.458	6459
2324.458	6472
2326.456	6487
2328.455	6509
2330.451	6515
2332.447	6434
2334.443	6474
2336.438	6504
2338.433	6471
2340.429	6533
2342.422	6435
2344.416	6513
2346.408	6385
2348.399	6455
2350.393	6492
2352.384	6403
2354.375	6326
2356.365	6487
2358.355	6450
2360.344	6426
2362.333	6351
2364.322	6457
2366.309	6402
2368.295	6407
2370.282	6323
2372.27	6419
2374.256	6426
2376.24	6422
2378.225	6469
2380.208	6322
2382.194	6405
2384.177	6407
2386.159	6392
2388.142	6358
2390.122	6373
2392.105	6334
2394.085	6381
2396.066	6359
2398.044	6317
2400.024	6371
2402.002	6225
2403.982	6414
2405.959	6322
2407.935	6319
2409.913	6344
2411.888	6373
2413.865	6331
2415.84	6277
2417.814	6360
2419.788	6309
2421.762	6293
2423.735	6277
2425.708	6451
2427.68	6250
2429.651	6363
2431.623	6443
2433.593	6214
2435.564	6242
2437.533	6273
2439.502	6257
2441.47	6312
2443.438	6324
2445.406	6266
2447.373	6290
2449.34	6335
2451.305	6296
2453.271	6245
2455.235	6301
2457.201	6283
2459.165	6239
2461.129	6278
2463.092	6196
2465.054	6260
2467.018	6289
2468.978	6280
2470.939	6231
2472.899	6309
2474.86	6193
2476.819	6287
2478.778	6222
2480.737	6288
2482.695	6233
2484.653	6133
2486.609	6231
2488.567	6186
2490.524	6274
2492.478	6148
2494.433	6198
2496.387	6218
2498.343	6279
2500.297	6190
2502.249	6166
2504.202	6143
2506.153	6186
2508.105	6230
2510.057	6115
2512.008	6211
2513.957	6180
2515.906	6053
2517.855	6187
2519.805	6228
2521.754	6148
2523.7	6073
2525.647	6206
2527.594	6195
2529.54	6137
2531.486	6110
2533.431	6275
2535.376	6125
2537.32	6278
2539.263	6122
2541.207	6159
2543.151	6196
2545.093	6214
2547.034	6089
2548.975	6231
2550.917	6040
2552.856	6175
2554.796	6190
2556.735	6116
2558.673	6131
2560.611	6135
2562.55	6141
2564.487	6096
2566.424	6070
2568.36	6203
2570.296	6257
2572.232	6113
2574.167	6025
2576.101	6041
2578.035	6085
2579.969	6174
2581.902	6018
2583.834	6066
2585.766	6136
2587.698	6134
2589.628	6089
2591.557	6070
2593.489	6061
2595.419	6152
2597.348	6159
2599.275	6052
2601.204	6159
2603.131	6131
2605.059	6178
2606.986	6135
2608.911	6081
2610.837	6035
2612.76	6136
2614.687	6112
2616.61	6101
2618.534	6234
2620.457	6221
2622.38	6163
2624.302	6094
2626.225	6114
2628.145	6107
2630.067	6160
2631.986	6143
2633.906	6104
2635.827	6117
2637.745	6090
2639.662	6204
2641.581	6134
2643.498	6184
2645.415	6010
2647.331	6098
2649.248	6120
2651.163	6146
2653.077	6181
2654.993	6113
2656.906	6183
2658.821	6116
2660.733	6048
2662.646	6142
2664.557	6144
2666.47	6043
2668.381	6136
2670.291	6050
2672.201	6086
2674.11	6093
2676.021	6083
2677.929	6100
2679.837	6083
2681.745	6025
2683.652	6129
2685.56	6099
2687.466	6094
2689.371	6121
2691.276	6135
2693.181	6056
2695.085	5993
2696.991	5997
2698.893	6012
2700.796	6175
2702.698	5959
2704.601	6074
2706.502	5956
2708.404	5999
2710.304	6061
2712.203	6115
2714.103	5963
2716.003	5968
2717.902	6010
2719.8	6002
2721.697	5947
2723.594	6015
2725.49	5912
2727.389	6019
2729.283	5904
2731.179	5980
2733.073	6005
2734.968	5988
2736.863	5981
2738.757	6019
2740.649	6009
2742.541	5897
2744.433	6015
2746.324	5949
2748.216	6038
2750.107	5897
2751.997	5990
2753.886	5987
2755.776	5936
2757.666	5939
2759.553	5820
2761.44	5872
2763.327	5875
2765.215	5979
2767.102	6023
2768.988	5943
2770.873	5760
2772.757	5887
2774.641	5822
2776.525	5902
2778.41	5898
2780.292	5877
2782.175	5933
2784.057	5973
2785.938	5920
2787.821	5936
2789.701	5920
2791.581	5919
2793.461	5876
2795.34	5845
2797.219	5810
2799.099	5896
2800.975	5791
2802.853	5845
2804.73	5888
2806.606	6020
2808.484	5903
2810.358	5806
2812.233	5865
2814.108	5825
2815.981	5834
2817.857	5831
2819.73	5867
2821.602	5792
2823.474	5681
2825.346	5854
2827.217	5747
2829.089	5882
2830.959	5786
2832.829	5921
2834.698	5913
2836.567	5833
2838.436	5872
2840.305	5836
2842.172	5870
2844.04	5847
2845.905	5923
2847.772	5852
2849.639	5833
2851.503	5903
2853.369	5942
2855.232	5804
2857.096	5869
2858.961	5834
2860.824	5939
2862.686	5994
2864.547	6067
2866.41	5896
2868.272	6023
2870.132	6114
2871.992	6053
2873.851	6182
2875.711	6164
2877.57	6221
2879.429	6397
2881.287	6360
2883.144	6346
2885.001	6447
2886.857	6273
2888.714	6373
2890.57	6489
2892.425	6424
2894.279	6401
2896.133	6400
2897.987	6333
2899.842	6351
2901.694	6250
2903.547	6348
2905.397	6323
2907.249	6381
2909.101	6292
2910.952	6414
2912.802	6468
2914.652	6540
2916.5	6446
2918.35	6554
2920.198	6600
2922.045	6656
2923.893	6681
2925.74	6838
2927.585	6812
2929.433	6929
2931.279	6944
2933.123	7063
2934.968	7082
2936.811	7163
2938.656	7211
2940.5	7214
2942.342	7295
2944.185	7266
2946.026	7219
2947.87	7235
2949.71	7286
2951.549	7178
2953.39	7174
2955.229	6963
2957.069	7001
2958.908	7001
2960.746	6956
2962.584	6766
2964.421	6719
2966.257	6749
2968.094	6656
2969.931	6634
2971.766	6563
2973.601	6511
2975.435	6490
2977.27	6485
2979.105	6465
2980.938	6540
2982.77	6484
2984.602	6443
2986.434	6264
2988.267	6420
2990.097	6419
2991.927	6295
2993.757	6262
2995.587	6250
2997.417	6132
2999.246	6195
3001.074	6090
3002.902	6038
3004.729	5960
3006.556	5964
3008.384	5910
3010.21	5864
3012.036	5819
3013.861	5758
3015.684	5760
3017.51	5745
3019.334	5604
3021.157	5742
3022.981	5679
3024.802	5666
3026.624	5669
3028.448	5595
3030.267	5686
3032.088	5574
3033.909	5570
3035.728	5486
3037.549	5664
3039.368	5508
3041.186	5635
3043.004	5525
3044.821	5567
3046.64	5606
3048.455	5462
3050.272	5410
3052.087	5544
3053.903	5477
3055.717	5448
3057.534	5517
3059.347	5469
3061.16	5547
3062.974	5466
3064.785	5491
3066.598	5432
3068.411	5536
3070.222	5500
3072.032	5372
3073.844	5417
3075.653	5573
3077.463	5540
3079.272	5407
3081.08	5332
3082.889	5376
3084.697	5349
3086.505	5393
3088.312	5366
3090.118	5430
3091.924	5273
3093.729	5360
3095.535	5265
3097.34	5390
3099.144	5324
3100.947	5320
3102.75	5224
3104.553	5351
3106.357	5260
3108.159	5298
3109.961	5269
3111.762	5239
3113.562	5211
3115.365	5203
3117.164	5221
3118.964	5219
3120.761	5255
3122.56	5236
3124.36	5307
3126.158	5283
3127.954	5173
3129.75	5288
3131.547	5166
3133.343	5162
3135.139	5178
3136.934	5268
3138.729	5160
3140.522	5184
3142.317	5166
3144.11	5199
3145.904	5201
3147.695	5192
3149.488	5186
3151.28	5225
3153.07	5152
3154.863	5092
3156.652	5159
3158.441	5170
3160.231	5194
3162.019	5086
3163.81	5063
3165.597	5017
3167.384	5223
3169.172	5113
3170.958	5164
3172.745	5185
3174.532	5189
3176.317	5088
3178.101	5197
3179.885	5082
3181.67	5059
3183.455	5044
3185.238	5127
3187.02	5062
3188.802	5186
3190.585	5130
3192.368	5137
3194.149	5236
3195.929	5055
3197.709	5037
3199.489	5214
3201.268	5073
3203.048	5144
3204.826	5071
3206.604	5002
3208.382	5087
3210.159	5131
3211.937	5038
3213.713	5225
3215.489	5043
3217.263	5029
3219.038	5037
3220.815	5015
3222.589	5066
3224.363	5104
3226.136	5139
3227.908	5076
3229.681	4987
3231.454	5133
3233.226	5028
3234.996	5061
3236.767	5033
3238.538	5047
3240.308	4965
3242.078	5063
3243.847	5052
3245.615	5047
3247.384	5136
3249.15	5092
3250.92	5028
3252.686	5019
3254.453	4989
3256.218	5052
3257.984	5132
3259.75	5145
3261.515	4951
3263.279	5089
3265.044	5093
3266.806	5048
3268.57	5022
3270.334	5014
3272.095	5076
3273.856	5054
3275.619	5008
3277.379	5013
3279.14	5044
3280.9	5021
3282.661	5111
3284.419	5130
3286.178	5152
3287.937	5016
3289.695	5056
3291.453	5230
3293.21	5089
3294.967	4909
3296.723	4973
3298.48	5106
3300.235	5029
3301.99	5044
3303.744	5163
3305.498	5039
3307.253	5042
3309.006	5064
3310.759	5104
3312.511	5048
3314.263	5038
3316.017	4991
3317.768	5057
3319.519	5070
3321.268	5110
3323.018	5075
3324.767	5068
3326.518	5064
3328.267	5021
3330.014	5096
3331.762	5012
3333.509	5006
3335.258	5065
3337.003	5084
3338.75	4960
3340.496	5085
3342.24	4958
3343.987	5044
3345.732	5023
3347.475	5017
3349.219	5045
3350.961	4980
3352.705	4945
3354.448	4980
3356.19	4931
3357.931	4964
3359.672	4959
3361.412	5034
3363.155	5029
3364.894	4991
3366.633	5023
3368.372	4976
3370.11	5022
3371.849	4918
3373.588	4968
3375.325	4846
3377.061	4901
3378.799	4991
3380.534	4981
3382.271	4909
3384.006	4864
3385.741	4832
3387.475	4860
3389.209	4886
3390.944	4873
3392.677	4827
3394.409	4727
3396.143	4991
3397.874	4841
3399.606	4868
3401.338	4943
3403.069	4845
3404.799	4953
3406.528	4863
3408.258	4785
3409.988	4891
3411.717	4822
3413.445	4808
3415.173	4796
3416.899	4883
3418.626	4823
3420.354	4873
3422.08	4742
3423.806	4789
3425.531	4781
3427.255	4831
3428.981	4787
3430.705	4856
3432.429	4767
3434.151	4839
3435.875	4708
3437.599	4685
3439.321	4814
3441.042	4726
3442.763	4730
3444.483	4653
3446.204	4700
3447.926	4804
3449.645	4732
3451.364	4724
3453.082	4674
3454.801	4716
3456.52	4627
3458.238	4682
3459.954	4708
3461.671	4723
3463.387	4635
3465.104	4597
3466.82	4522
3468.534	4686
3470.25	4562
3471.963	4681
3473.676	4618
3475.392	4570
3477.104	4594
3478.817	4588
3480.528	4628
3482.241	4552
3483.954	4537
3485.664	4620
3487.374	4519
3489.084	4606
3490.795	4538
3492.504	4508
3494.214	4468
3495.922	4499
3497.63	4570
3499.338	4452
3501.045	4516
3502.753	4509
3504.459	4464
3506.166	4493
3507.871	4532
3509.576	4527
3511.283	4505
3512.987	4511
3514.691	4547
3516.395	4338
3518.098	4529
3519.8	4471
3521.504	4417
3523.206	4433
3524.908	4468
3526.609	4501
3528.309	4385
3530.011	4400
3531.711	4398
3533.411	4384
3535.109	4415
3536.808	4343
3538.507	4331
3540.206	4439
3541.904	4358
3543.601	4342
3545.297	4347
3546.994	4393
3548.69	4308
3550.387	4311
3552.081	4381
3553.776	4396
3555.47	4321
3557.166	4393
3558.859	4307
3560.553	4311
3562.245	4319
3563.938	4336
3565.629	4334
3567.322	4312
3569.014	4357
3570.704	4293
3572.394	4226
3574.084	4300
3575.775	4287
3577.464	4313
3579.152	4256
3580.842	4318
3582.529	4236
3584.216	4182
3585.905	4329
3587.591	4321
3589.279	4188
3590.964	4266
3592.649	4206
3594.336	4208
3596.021	4190
3597.705	4130
3599.388	4234
3601.072	4224
3602.757	4228
3604.439	4172
3606.122	4163
3607.803	4159
3609.485	4111
3611.167	4159
3612.849	4190
3614.529	4187
3616.208	4157
3617.888	4122
3619.567	4151
3621.247	4128
3622.926	4201
3624.603	4023
3626.281	4078
3627.958	4109
3629.635	4067
3631.312	4050
3632.989	4005
3634.665	4131
3636.339	4080
3638.014	4012
3639.691	4140
3641.364	4028
3643.038	4061
3644.71	4005
3646.384	4059
3648.058	3994
3649.729	3991
3651.402	4010
3653.073	4027
3654.744	3923
3656.414	4058
3658.085	3910
3659.755	3953
3661.424	3938
3663.094	3946
3664.762	4031
3666.431	3978
3668.099	3947
3669.766	3988
3671.433	3852
3673.099	3917
3674.768	3906
3676.433	3981
3678.098	3987
3679.763	3970
3681.428	3966
3683.093	3951
3684.757	3954
3686.421	3944
3688.083	3906
3689.746	3908
3691.408	3955
3693.071	3935
3694.733	3959
3696.394	3924
3698.054	3955
3699.715	3904
3701.375	3821
3703.036	3953
3704.695	3923
3706.354	3920
3708.012	3864
3709.67	3772
3711.329	3833
3712.987	3846
3714.644	3912
3716.299	3883
3717.955	3904
3719.613	3900
3721.268	3855
3722.923	3839
3724.577	3821
3726.231	3864
3727.885	3854
3729.539	3848
3731.192	3732
3732.845	3836
3734.497	3901
3736.149	3926
3737.802	3875
3739.453	3838
3741.104	3757
3742.753	3845
3744.404	3796
3746.052	3822
3747.704	3833
3749.352	3793
3751	3812
3752.648	3797
3754.296	3831
3755.944	3835
3757.59	3749
3759.238	3786
3760.883	3773
3762.528	3690
3764.176	3727
3765.82	3791
3767.464	3732
3769.109	3794
3770.753	3836
3772.396	3705
3774.04	3723
3775.683	3676
3777.325	3748
3778.967	3764
3780.608	3801
3782.25	3774
3783.89	3666
3785.531	3714
3787.17	3581
3788.81	3727
3790.45	3711
3792.09	3694
3793.729	3656
3795.366	3676
3797.003	3700
3798.64	3716
3800.278	3619
3801.915	3643
3803.551	3707
3805.187	3611
3806.822	3576
3808.458	3702
3810.093	3620
3811.726	3613
3813.36	3675
3814.994	3550
3816.627	3734
3818.262	3642
3819.893	3651
3821.525	3537
3823.157	3630
3824.787	3564
3826.42	3588
3828.051	3608
3829.68	3601
3831.31	3621
3832.938	3623
3834.569	3542
3836.198	3623
3837.825	3534
3839.454	3650
3841.08	3553
3842.708	3528
3844.335	3536
3845.962	3606
3847.587	3553
3849.212	3548
3850.838	3597
3852.463	3508
3854.089	3537
3855.712	3551
3857.335	3506
3858.959	3558
3860.582	3570
3862.205	3519
3863.827	3580
3865.449	3455
3867.07	3590
3868.691	3607
3870.312	3459
3871.933	3564
3873.553	3563
3875.173	3612
3876.792	3502
3878.411	3531
3880.03	3458
3881.647	3528
3883.265	3565
3884.882	3520
3886.499	3460
3888.116	3491
3889.732	3466
3891.348	3490
3892.964	3503
3894.579	3473
3896.195	3446
3897.809	3450
3899.423	3545
3901.036	3448
3902.648	3509
3904.261	3450
3905.875	3510
3907.487	3487
3909.099	3450
3910.709	3382
3912.321	3443
3913.933	3460
3915.542	3482
3917.152	3448
3918.762	3445
3920.37	3413
3921.98	3377
3923.589	3513
3925.196	3426
3926.804	3478
3928.41	3450
3930.018	3385
3931.626	3428
3933.231	3444
3934.838	3398
3936.442	3317
3938.046	3458
3939.653	3435
3941.257	3392
3942.861	3471
3944.464	3365
3946.068	3404
3947.67	3251
3949.273	3409
3950.876	3359
3952.477	3408
3954.078	3500
3955.678	3318
3957.281	3405
3958.881	3384
3960.48	3426
3962.079	3382
3963.678	3409
3965.279	3359
3966.877	3341
3968.475	3396
3970.072	3292
3971.669	3269
3973.266	3365
3974.864	3428
3976.459	3383
3978.055	3311
3979.65	3308
3981.245	3238
3982.841	3340
3984.436	3339
3986.03	3362
3987.623	3331
3989.216	3291
3990.809	3334
3992.403	3284
3993.995	3301
3995.586	3283
3997.177	3297
3998.768	3262
4000.361	3242
4001.951	3284
4003.54	3243
4005.13	3245
4006.719	3225
4008.31	3265
4009.897	3323
4011.485	3306
4013.073	3201
4014.66	3176
4016.247	3142
4017.834	3177
4019.421	3232
4021.006	3277
4022.592	3264
4024.178	3197
4025.763	3200
4027.348	3184
4028.932	3215
4030.515	3141
4032.099	3175
4033.682	3228
4035.266	3148
4036.847	3225
4038.429	3113
4040.011	3106
4041.592	3171
4043.173	3107
4044.755	3157
4046.334	3154
4047.913	3171
4049.494	3143
4051.074	3206
4052.652	3114
4054.23	3139
4055.807	3178
4057.385	3087
4058.963	3206
4060.541	3114
4062.117	3126
4063.693	3105
4065.269	3127
4066.844	3142
4068.42	3095
4069.995	3053
4071.569	3123
4073.143	3110
4074.716	3071
4076.291	3046
4077.864	3092
4079.436	3089
4081.009	3100
4082.58	3119
4084.152	3146
4085.723	3054
4087.294	3037
4088.865	3048
4090.435	3158
4092.005	3048
4093.574	3145
4095.143	3055
4096.712	2987
4098.279	3034
4099.848	3123
4101.416	3028
4102.984	3091
4104.55	3095
4106.117	3079
4107.682	3109
4109.248	3034
4110.815	3098
4112.379	3093
4113.945	3054
4115.508	2996
4117.073	3022
4118.637	3007
4120.201	3020
4121.763	2962
4123.325	3023
4124.888	3057
4126.449	2980
4128.013	3041
4129.573	3008
4131.133	2969
4132.694	2972
4134.254	3104
4135.814	2995
4137.374	2918
4138.933	2983
4140.491	2985
4142.049	3002
4143.607	2965
4145.167	2874
4146.724	2945
4148.28	3028
4149.836	2975
4151.392	2937
4152.949	2924
4154.504	2974
4156.059	2935
4157.614	2869
4159.168	2870
4160.723	2945
4162.277	2930
4163.83	2907
4165.383	2816
4166.936	2900
4168.488	2895
4170.041	2924
4171.593	2830
4173.144	2900
4174.695	2910
4176.246	2871
4177.796	2856
4179.346	2843
4180.896	2845
4182.445	2854
4183.994	2884
4185.542	2810
4187.091	2883
4188.639	2904
4190.185	2897
4191.732	2866
4193.279	2829
4194.826	2921
4196.373	2861
4197.918	2840
4199.463	2847
4201.008	2833
4202.553	2848
4204.098	2822
4205.641	2821
4207.185	2813
4208.728	2835
4210.271	2777
4211.814	2782
4213.357	2718
4214.898	2787
4216.439	2934
4217.98	2803
4219.522	2785
4221.062	2784
4222.603	2745
4224.142	2716
4225.681	2761
4227.222	2746
4228.76	2749
4230.298	2775
4231.835	2850
4233.373	2764
4234.911	2756
4236.449	2890
4237.985	2705
4239.521	2792
4241.057	2795
4242.592	2847
4244.128	2810
4245.663	2786
4247.197	2749
4248.731	2769
4250.265	2745
4251.798	2718
4253.333	2769
4254.865	2837
4256.397	2745
4257.93	2697
4259.461	2750
4260.994	2761
4262.525	2743
4264.056	2776
4265.586	2709
4267.115	2786
4268.646	2785
4270.176	2733
4271.705	2728
4273.232	2763
4274.761	2686
4276.289	2668
4277.818	2780
4279.345	2697
4280.872	2638
4282.399	2721
4283.924	2773
4285.452	2699
4286.976	2710
4288.502	2693
4290.026	2681
4291.551	2689
4293.074	2642
4294.6	2659
4296.123	2720
4297.646	2652
4299.168	2621
4300.691	2667
4302.214	2721
4303.736	2697
4305.257	2712
4306.778	2723
4308.299	2653
4309.82	2709
4311.34	2613
4312.86	2640
4314.379	2667
