400.0745	5299
402.597	5354
405.1208	5393
407.6419	5385
410.1623	5408
412.6819	5440
415.201	5433
417.7172	5438
420.2369	5522
422.7538	5526
425.2701	5528
427.7856	5626
430.3005	5509
432.8147	5595
435.3282	5730
437.841	5602
440.3511	5763
442.8625	5596
445.3753	5744
447.8854	5729
450.3927	5695
452.9014	5722
455.4073	5726
457.9146	5726
460.4233	5736
462.9272	5734
465.4325	5825
467.935	5758
470.4389	5771
472.9421	5817
475.4446	5810
477.9444	5891
480.4456	5888
482.944	5895
485.4417	5940
487.9429	5874
490.4393	5838
492.935	5896
495.4321	5911
497.9264	5870
500.4221	5984
502.9171	5987
505.4094	5958
507.9011	6002
510.392	6004
512.8864	6057
515.3759	6108
517.8649	6090
520.3531	6051
522.8406	6126
525.3275	6021
527.8178	6038
530.3033	6065
532.7881	6046
535.2723	6053
537.7558	5986
540.2407	6006
542.7228	6004
545.2043	6019
547.6851	6027
550.1652	6148
552.6467	6137
555.1255	6254
557.6016	6159
560.079	6087
562.5557	6234
565.0318	6233
567.5092	6306
569.984	6116
572.456	6312
574.9294	6083
577.4022	6216
579.8762	6242
582.3456	6276
584.8163	6247
587.2863	6256
589.7557	6327
592.2224	6208
594.6924	6292
597.1578	6360
599.6245	6197
602.0905	6288
604.5538	6256
607.0206	6204
609.4825	6259
611.9459	6320
614.4066	6205
616.8686	6283
619.33	6270
621.7906	6316
624.2487	6290
626.708	6247
629.1647	6293
631.6207	6174
634.0801	6253
636.5348	6281
638.9888	6334
641.4442	6211
643.8969	6390
646.3509	6363
648.8022	6417
651.255	6394
653.705	6250
656.1544	6473
658.6031	6424
661.0532	6419
663.5026	6405
665.9493	6477
668.3954	6473
670.8409	6552
673.2877	6487
675.7318	6515
678.1752	6583
680.618	6533
683.0601	6642
685.5035	6421
687.9444	6586
690.3845	6510
692.824	6407
695.2628	6514
697.701	6475
700.1406	6683
702.5774	6595
705.0116	6624
707.4472	6572
709.8821	6668
712.3183	6656
714.7519	6573
717.1829	6589
719.6151	6622
722.0468	6591
724.4777	6715
726.908	6631
729.3377	6784
731.7667	6838
734.1931	6779
736.6208	6885
739.0498	6868
741.4742	6893
743.9	6853
746.3231	6905
748.7476	6961
751.1713	6945
753.5945	6957
756.015	6935
758.4368	6926
760.856	6880
763.2766	7012
765.6965	7146
768.1157	7036
770.5323	6971
772.9483	7016
775.3656	6937
777.7822	7129
780.1963	7121
782.6116	7040
785.0244	6961
787.4365	7079
789.8499	7114
792.2626	7072
794.6728	7026
797.0823	7096
799.4911	7047
801.8994	6996
804.3109	7165
806.7178	7077
809.124	7028
811.5297	7138
813.9347	7136
816.341	7234
818.7447	7066
821.1478	7258
823.5502	7238
825.952	7108
828.3531	7046
830.7556	7205
833.1554	7153
835.5546	7092
837.9532	7194
840.3511	7202
842.7504	7224
845.1451	7216
847.5411	7257
849.9365	7184
852.3312	7324
854.7272	7197
857.1187	7239
859.5115	7296
861.9037	7161
864.2952	7227
866.6842	7281
869.0764	7125
871.4661	7292
873.8531	7210
876.2415	7251
878.6272	7195
881.0162	7132
883.4026	7131
885.7866	7132
888.1717	7208
890.5543	7259
892.9382	7169
895.3215	7253
897.7041	7260
900.0842	7043
902.4655	7271
904.8443	7261
907.2244	7241
909.6039	7249
911.9808	7168
914.357	7400
916.7346	7358
919.1115	7370
921.4859	7437
923.8616	7424
926.2347	7274
928.6071	7419
930.979	7427
933.3541	7456
935.7247	7367
938.0946	7250
940.4639	7454
942.8326	7552
945.2026	7492
947.5701	7605
949.9369	7601
952.305	7689
954.6705	7657
957.0355	7922
959.4017	7968
961.7654	8142
964.1284	7951
966.4908	7941
968.8527	7868
971.2138	7811
973.5743	7632
975.9343	7646
978.2936	7601
980.6522	7575
983.0122	7519
985.3696	7444
987.7245	7366
990.0807	7455
992.4362	7526
994.7911	7274
997.1474	7381
999.4991	7430
1001.852	7512
1004.205	7469
1006.555	7426
1008.908	7518
1011.258	7402
1013.606	7416
1015.956	7443
1018.302	7416
1020.652	7460
1022.998	7588
1025.345	7540
1027.691	7437
1030.035	7495
1032.378	7561
1034.724	7647
1037.066	7607
1039.409	7518
1041.75	7512
1044.092	7579
1046.433	7633
1048.771	7657
1051.112	7513
1053.449	7436
1055.786	7689
1058.124	7587
1060.462	7542
1062.797	7580
1065.131	7652
1067.467	7641
1069.8	7666
1072.135	7628
1074.467	7622
1076.798	7571
1079.129	7609
1081.459	7621
1083.792	7636
1086.121	7656
1088.449	7609
1090.777	7663
1093.104	7641
1095.431	7568
1097.759	7601
1100.084	7528
1102.408	7663
1104.732	7726
1107.056	7693
1109.379	7673
1111.701	7620
1114.022	7619
1116.343	7661
1118.664	7782
1120.983	7793
1123.303	7683
1125.621	7696
1127.939	7681
1130.256	7722
1132.573	7726
1134.889	7680
1137.205	7768
1139.52	7777
1141.832	7776
1144.146	7739
1146.461	7705
1148.771	7674
1151.083	7803
1153.392	7836
1155.703	7701
1158.011	7751
1160.323	7646
1162.629	7663
1164.938	7721
1167.243	7717
1169.55	7726
1171.857	7726
1174.163	7734
1176.466	7721
1178.769	7880
1181.073	7845
1183.374	7717
1185.677	7593
1187.979	7769
1190.279	7652
1192.578	7704
1194.878	7720
1197.178	7724
1199.476	7730
1201.772	7810
1204.068	7710
1206.366	7683
1208.663	7741
1210.957	7778
1213.251	7776
1215.544	7801
1217.836	7760
1220.128	7769
1222.421	7716
1224.712	7836
1227.002	7801
1229.292	7767
1231.581	7790
1233.871	7768
1236.159	7833
1238.446	7855
1240.732	7929
1243.018	8081
1245.304	7757
1247.59	7832
1249.874	8005
1252.156	7923
1254.439	7952
1256.721	7956
1259.005	7855
1261.286	7982
1263.565	7873
1265.845	7935
1268.125	7935
1270.403	7925
1272.682	7909
1274.959	7935
1277.234	7912
1279.511	7941
1281.787	7831
1284.062	7952
1286.337	7951
1288.609	7983
1290.882	7758
1293.153	7840
1295.428	7829
1297.698	7991
1299.969	7846
1302.237	7837
1304.507	7948
1306.777	7937
1309.044	7828
1311.312	7943
1313.578	7832
1315.844	7768
1318.109	7799
1320.375	7990
1322.638	7916
1324.903	7947
1327.165	7775
1329.427	7983
1331.69	7757
1333.952	7829
1336.212	7904
1338.471	7893
1340.73	7919
1342.988	7904
1345.248	7940
1347.505	7910
1349.763	7855
1352.019	7904
1354.274	7792
1356.53	7926
1358.784	8037
1361.038	7876
1363.291	7911
1365.543	7863
1367.797	8020
1370.048	7793
1372.296	7905
1374.546	7786
1376.796	7916
1379.045	7927
1381.295	7913
1383.542	7968
1385.787	8051
1388.034	7910
1390.28	7871
1392.527	7940
1394.772	7955
1397.014	7833
1399.258	7874
1401.501	7901
1403.741	7985
1405.985	7987
1408.226	8016
1410.465	7991
1412.705	7991
1414.943	7993
1417.184	7974
1419.42	8006
1421.658	8046
1423.894	8059
1426.13	8028
1428.366	8150
1430.602	8061
1432.835	8146
1435.069	8075
1437.301	8179
1439.535	8138
1441.767	8127
1443.997	8113
1446.229	8107
1448.458	7977
1450.687	8144
1452.916	8107
1455.146	8109
1457.372	8139
1459.599	7989
1461.824	8213
1464.051	8083
1466.277	8015
1468.501	8167
1470.725	8053
1472.948	8087
1475.17	8023
1477.393	7991
1479.614	8024
1481.837	7981
1484.057	8001
1486.276	7875
1488.497	8001
1490.715	7995
1492.932	7950
1495.148	7945
1497.364	7915
1499.58	7927
1501.798	7807
1504.012	7953
1506.227	7927
1508.44	7894
1510.653	8027
1512.866	7924
1515.078	7910
1517.289	8037
1519.5	7881
1521.711	7849
1523.92	7917
1526.13	7768
1528.338	7971
1530.544	7914
1532.752	7964
1534.959	8007
1537.165	7855
1539.371	8055
1541.574	7924
1543.779	7883
1545.983	7943
1548.187	7921
1550.39	7941
1552.59	8066
1554.792	8042
1556.991	7989
1559.19	8209
1561.392	8002
1563.59	8074
1565.789	8076
1567.986	8195
1570.182	8101
1572.381	8057
1574.576	8188
1576.771	7964
1578.966	8167
1581.16	8066
1583.354	7990
1585.546	8244
1587.74	8025
1589.931	8256
1592.121	8072
1594.311	8095
1596.502	8149
1598.693	8182
1600.881	8233
1603.069	8200
1605.256	8230
1607.445	8094
1609.631	8207
1611.816	8139
1614.001	8188
1616.186	8108
1618.37	8126
1620.555	8217
1622.737	8125
1624.919	8281
1627.101	8005
1629.282	8260
1631.463	8329
1633.643	8206
1635.822	8232
1638.001	8275
1640.179	8156
1642.359	8194
1644.534	8248
1646.711	8264
1648.887	8018
1651.062	8143
1653.235	8198
1655.412	8238
1657.586	8125
1659.757	8272
1661.93	8222
1664.1	8040
1666.274	8210
1668.445	8256
1670.614	8154
1672.784	8171
1674.951	8316
1677.12	8248
1679.289	8249
1681.457	8254
1683.622	8140
1685.789	8351
1687.953	8147
1690.121	8323
1692.284	8081
1694.447	8253
1696.611	8234
1698.772	8235
1700.935	8156
1703.098	8073
1705.258	7996
1707.417	8274
1709.576	8212
1711.736	8162
1713.896	8246
1716.053	8152
1718.21	8137
1720.366	8152
1722.522	8140
1724.68	8075
1726.835	8245
1728.989	8075
1731.142	8171
1733.295	8221
1735.449	8108
1737.601	8080
1739.753	8114
1741.903	8161
1744.054	8175
1746.203	8170
1748.354	8118
1750.503	8162
1752.651	8213
1754.798	8143
1756.944	8256
1759.092	8084
1761.238	8151
1763.383	8136
1765.528	8200
1767.672	8185
1769.814	8156
1771.959	8358
1774.102	8154
1776.242	8144
1778.384	8269
1780.525	8176
1782.665	8274
1784.805	8264
1786.945	8205
1789.082	8083
1791.22	8149
1793.36	8305
1795.495	8164
1797.632	8164
1799.766	8264
1801.902	8287
1804.035	8314
1806.172	8234
1808.304	8201
1810.436	8195
1812.569	8188
1814.699	8424
1816.833	8292
1818.963	8198
1821.092	8227
1823.222	8246
1825.35	8244
1827.478	8071
1829.608	8232
1831.734	8152
1833.86	8161
1835.986	8110
1838.11	8211
1840.238	8208
1842.362	8104
1844.485	8086
1846.608	8261
1848.73	8036
1850.853	8103
1852.974	8102
1855.097	8074
1857.217	8153
1859.336	8122
1861.455	8127
1863.576	8228
1865.693	8030
1867.811	8126
1869.926	8137
1872.042	8063
1874.16	8135
1876.275	8212
1878.39	8217
1880.504	8166
1882.618	8205
1884.731	8122
1886.843	8163
1888.956	8194
1891.067	8107
1893.178	8115
1895.287	8072
1897.399	8209
1899.508	8159
1901.617	8238
1903.724	8240
1905.832	8286
1907.941	8082
1910.046	8268
1912.152	8258
1914.256	8279
1916.361	8358
1918.464	8140
1920.57	8306
1922.672	8055
1924.775	8247
1926.876	8367
1928.978	8321
1931.08	8321
1933.181	8411
1935.28	8321
1937.38	8133
1939.478	8306
1941.577	8259
1943.675	8285
1945.771	8296
1947.867	8234
1949.964	8229
1952.058	8323
1954.154	8281
1956.248	8251
1958.343	8106
1960.435	8215
1962.527	8137
1964.62	8221
1966.711	8122
1968.802	8271
1970.892	8233
1972.983	8239
1975.072	8285
1977.162	8259
1979.25	8045
1981.337	8266
1983.424	8218
1985.51	8075
1987.598	8278
1989.683	8258
1991.768	8164
1993.852	8112
1995.934	8202
1998.019	8160
2000.102	8216
2002.184	8139
2004.266	8257
2006.347	8246
2008.427	8152
2010.508	8047
2012.587	8153
2014.666	8151
2016.745	8119
2018.821	8155
2020.9	8124
2022.977	8267
2025.052	8105
2027.128	8139
2029.204	8150
2031.277	8074
2033.353	8067
2035.425	8207
2037.499	8009
2039.57	8134
2041.642	8186
2043.714	8152
2045.786	8164
2047.855	8156
2049.925	8147
2051.993	8097
2054.064	8187
2056.132	8201
2058.2	8133
2060.266	8163
2062.332	8115
2064.398	8225
2066.465	8069
2068.529	8216
2070.592	8199
2072.657	8168
2074.719	8241
2076.783	8117
2078.845	8015
2080.907	8107
2082.968	8036
2085.028	8055
2087.087	8105
2089.148	8200
2091.207	8078
2093.264	8212
2095.322	8180
2097.379	8155
2099.439	8150
2101.495	8077
2103.55	8099
2105.605	8088
2107.658	8236
2109.713	8225
2111.767	8052
2113.82	8204
2115.872	8126
2117.924	8110
2119.975	8294
2122.028	8046
2124.078	8101
2126.126	8057
2128.176	8099
2130.225	8086
2132.275	8080
2134.321	8111
2136.368	8210
2138.415	8019
2140.461	8136
2142.505	8059
2144.552	8065
2146.597	8032
2148.64	8033
2150.684	8064
2152.725	8025
2154.77	8080
2156.811	8064
2158.852	8205
2160.894	8063
2162.933	7964
2164.973	8028
2167.013	8171
2169.051	8033
2171.089	7979
2173.126	8020
2175.164	8002
2177.201	7965
2179.236	8009
2181.273	7954
2183.307	8013
2185.341	7928
2187.377	7763
2189.41	7988
2191.442	7977
2193.473	7970
2195.506	8030
2197.539	7902
2199.569	8029
2201.598	7947
2203.628	7994
2205.656	8034
2207.686	7920
2209.716	7901
2211.743	7890
2213.769	8070
2215.796	7896
2217.821	7927
2219.848	7907
2221.873	7906
2223.897	7957
2225.921	7820
2227.944	7823
2229.967	7842
2231.991	7939
2234.011	7875
2236.032	7932
2238.053	7939
2240.073	7871
2242.094	7823
2244.114	7883
2246.131	7899
2248.149	7666
2250.167	8014
2252.186	7863
2254.201	7845
2256.218	7913
2258.233	8023
2260.247	7839
2262.262	7964
2264.278	7873
2266.29	7964
2268.303	7939
2270.315	7731
2272.327	7948
2274.341	7924
2276.35	7895
2278.361	7932
2280.37	7882
2282.38	7901
2284.388	7694
2286.397	7809
2288.405	7947
2290.412	7927
2292.419	7852
2294.425	7811
2296.431	7744
2298.437	7855
2300.441	7904
2302.445	7770
2304.449	7792
2306.453	7853
2308.455	7767
2310.457	7801
2312.459	7793
2314.46	7825
2316.46	7919
2318.461	7825
2320.46	7887
2322.458	7665
2324.458	7749
2326.456	7754
2328.455	7828
2330.451	7681
2332.447	7821
2334.443	7861
2336.438	7674
2338.433	7716
2340.429	7753
2342.422	7749
2344.416	7727
2346.408	7701
2348.399	7689
2350.393	7638
2352.384	7684
2354.375	7750
2356.365	7676
2358.355	7469
2360.344	7716
2362.333	7678
2364.322	7640
2366.309	7638
2368.295	7660
2370.282	7713
2372.27	7667
2374.256	7579
2376.24	7702
2378.225	7655
2380.208	7753
2382.194	7794
2384.177	7558
2386.159	7529
2388.142	7593
2390.122	7566
2392.105	7579
2394.085	7619
2396.066	7381
2398.044	7477
2400.024	7602
2402.002	7448
2403.982	7635
2405.959	7618
2407.935	7512
2409.913	7379
2411.888	7480
2413.865	7585
2415.84	7575
2417.814	7617
2419.788	7477
2421.762	7435
2423.735	7561
2425.708	7625
2427.68	7571
2429.651	7627
2431.623	7610
2433.593	7575
2435.564	7564
2437.533	7534
2439.502	7582
2441.47	7467
2443.438	7596
2445.406	7467
2447.373	7547
2449.34	7451
2451.305	7420
2453.271	7586
2455.235	7388
2457.201	7514
2459.165	7493
2461.129	7443
2463.092	7500
2465.054	7475
2467.018	7540
2468.978	7523
2470.939	7321
2472.899	7487
2474.86	7363
2476.819	7351
2478.778	7429
2480.737	7383
2482.695	7540
2484.653	7424
2486.609	7468
2488.567	7446
2490.524	7428
2492.478	7294
2494.433	7376
2496.387	7438
2498.343	7462
2500.297	7326
2502.249	7304
2504.202	7263
2506.153	7463
2508.105	7291
2510.057	7353
2512.008	7270
2513.957	7303
2515.906	7284
2517.855	7407
2519.805	7396
2521.754	7362
2523.7	7409
2525.647	7338
2527.594	7313
2529.54	7346
2531.486	7393
2533.431	7287
2535.376	7356
2537.32	7232
2539.263	7308
2541.207	7294
2543.151	7294
2545.093	7342
2547.034	7394
2548.975	7376
2550.917	7355
2552.856	7260
2554.796	7323
2556.735	7346
2558.673	7357
2560.611	7315
2562.55	7272
2564.487	7294
2566.424	7305
2568.36	7277
2570.296	7285
2572.232	7240
2574.167	7267
2576.101	7173
2578.035	7283
2579.969	7264
2581.902	7359
2583.834	7359
2585.766	7317
2587.698	7255
2589.628	7419
2591.557	7258
2593.489	7372
2595.419	7275
2597.348	7244
2599.275	7260
2601.204	7134
2603.131	7309
2605.059	7327
2606.986	7361
2608.911	7238
2610.837	7336
2612.76	7324
2614.687	7322
2616.61	7241
2618.534	7372
2620.457	7406
2622.38	7246
2624.302	7367
2626.225	7285
2628.145	7274
2630.067	7269
2631.986	7331
2633.906	7344
2635.827	7314
2637.745	7294
2639.662	7358
2641.581	7369
2643.498	7273
2645.415	7298
2647.331	7286
2649.248	7230
2651.163	7292
2653.077	7246
2654.993	7498
2656.906	7320
2658.821	7357
2660.733	7234
2662.646	7218
2664.557	7227
2666.47	7195
2668.381	7309
2670.291	7309
2672.201	7347
2674.11	7217
2676.021	7317
2677.929	7325
2679.837	7235
2681.745	7220
2683.652	7200
2685.56	7216
2687.466	7193
2689.371	7261
2691.276	7177
2693.181	7183
2695.085	7142
2696.991	7116
2698.893	7151
2700.796	7240
2702.698	7111
2704.601	7100
2706.502	7150
2708.404	7098
2710.304	7191
2712.203	7184
2714.103	6932
2716.003	7165
2717.902	7057
2719.8	7130
2721.697	7158
2723.594	7003
2725.49	7093
2727.389	7121
2729.283	6997
2731.179	7048
2733.073	7128
2734.968	7020
2736.863	7090
2738.757	7045
2740.649	7090
2742.541	7090
2744.433	6944
2746.324	7097
2748.216	7171
2750.107	7084
2751.997	7038
2753.886	6990
2755.776	6988
2757.666	7074
2759.553	6998
2761.44	7123
2763.327	7032
2765.215	6886
2767.102	7058
2768.988	6972
2770.873	7128
2772.757	6934
2774.641	6966
2776.525	7035
2778.41	6924
2780.292	7042
2782.175	6920
2784.057	7066
2785.938	6956
2787.821	6965
2789.701	7064
2791.581	6994
2793.461	6829
2795.34	6924
2797.219	6903
2799.099	6882
2800.975	6850
2802.853	6968
2804.73	7065
2806.606	6920
2808.484	6778
2810.358	6929
2812.233	6944
2814.108	7015
2815.981	6910
2817.857	6965
2819.73	6913
2821.602	6944
2823.474	6847
2825.346	6891
2827.217	6879
2829.089	6898
2830.959	6917
2832.829	6869
2834.698	6917
2836.567	6872
2838.436	6917
2840.305	6806
2842.172	6923
2844.04	6840
2845.905	6881
2847.772	6791
2849.639	7024
2851.503	6855
2853.369	6904
2855.232	6889
2857.096	6886
2858.961	6901
2860.824	6890
2862.686	6941
2864.547	6911
2866.41	6828
2868.272	6858
2870.132	6899
2871.992	6889
2873.851	6851
2875.711	6837
2877.57	6898
2879.429	7055
2881.287	6972
2883.144	6874
2885.001	7055
2886.857	6990
2888.714	6931
2890.57	6969
2892.425	6915
2894.279	6968
2896.133	6974
2897.987	6904
2899.842	6920
2901.694	6942
2903.547	6895
2905.397	6996
2907.249	6951
2909.101	6913
2910.952	6970
2912.802	6878
2914.652	6943
2916.5	6934
2918.35	6915
2920.198	6980
2922.045	7000
2923.893	7050
2925.74	6968
2927.585	6981
2929.433	7001
2931.279	7029
2933.123	7121
2934.968	7048
2936.811	7187
2938.656	7066
2940.5	7164
2942.342	7222
2944.185	7176
2946.026	7143
2947.87	7219
2949.71	7240
2951.549	7213
2953.39	7273
2955.229	7130
2957.069	7088
2958.908	6994
2960.746	6927
2962.584	6963
2964.421	6922
2966.257	6925
2968.094	6917
2969.931	6997
2971.766	6912
2973.601	6848
2975.435	6874
2977.27	6896
2979.105	6876
2980.938	6784
2982.77	6814
2984.602	6816
2986.434	6838
2988.267	6851
2990.097	6837
2991.927	6777
2993.757	6689
2995.587	6637
2997.417	6690
2999.246	6728
3001.074	6631
3002.902	6538
3004.729	6630
3006.556	6657
3008.384	6642
3010.21	6501
3012.036	6664
3013.861	6500
3015.684	6483
3017.51	6480
3019.334	6522
3021.157	6564
3022.981	6367
3024.802	6383
3026.624	6391
3028.448	6502
3030.267	6489
3032.088	6352
3033.909	6408
3035.728	6429
3037.549	6415
3039.368	6409
3041.186	6463
3043.004	6416
3044.821	6357
3046.64	6274
3048.455	6433
3050.272	6401
3052.087	6441
3053.903	6354
3055.717	6331
3057.534	6356
3059.347	6331
3061.16	6379
3062.974	6323
3064.785	6326
3066.598	6339
3068.411	6325
3070.222	6225
3072.032	6389
3073.844	6233
3075.653	6055
3077.463	6234
3079.272	6395
3081.08	6192
3082.889	6266
3084.697	6191
3086.505	6221
3088.312	6219
3090.118	6211
3091.924	6250
3093.729	6224
3095.535	6259
3097.34	6040
3099.144	6149
3100.947	6157
3102.75	6254
3104.553	6134
3106.357	6231
3108.159	6088
3109.961	6106
3111.762	6115
3113.562	6086
3115.365	6136
3117.164	6124
3118.964	6053
3120.761	6060
3122.56	6146
3124.36	6032
3126.158	6040
3127.954	6049
3129.75	6065
3131.547	6106
3133.343	6062
3135.139	5921
3136.934	6053
3138.729	6044
3140.522	5965
3142.317	5999
3144.11	5921
3145.904	6023
3147.695	6009
3149.488	5950
3151.28	6026
3153.07	5980
3154.863	5887
3156.652	5975
3158.441	6064
3160.231	5943
3162.019	5966
3163.81	5876
3165.597	5970
3167.384	5923
3169.172	5952
3170.958	5949
3172.745	5948
3174.532	5912
3176.317	5840
3178.101	5927
3179.885	5857
3181.67	5977
3183.455	5822
3185.238	5878
3187.02	5930
3188.802	5815
3190.585	5856
3192.368	5818
3194.149	5904
3195.929	5853
3197.709	5848
3199.489	5778
3201.268	5870
3203.048	5746
3204.826	5836
3206.604	5727
3208.382	5828
3210.159	5789
3211.937	5803
3213.713	5792
3215.489	5806
3217.263	5768
3219.038	5648
3220.815	5818
3222.589	5622
3224.363	5739
3226.136	5687
3227.908	5696
3229.681	5872
3231.454	5739
3233.226	5751
3234.996	5780
3236.767	5820
3238.538	5698
3240.308	5746
3242.078	5703
3243.847	5747
3245.615	5691
3247.384	5719
3249.15	5906
3250.92	5732
3252.686	5736
3254.453	5772
3256.218	5752
3257.984	5608
3259.75	5747
3261.515	5759
3263.279	5651
3265.044	5710
3266.806	5675
3268.57	5668
3270.334	5849
3272.095	5693
3273.856	5630
3275.619	5639
3277.379	5761
3279.14	5677
3280.9	5629
3282.661	5695
3284.419	5756
3286.178	5635
3287.937	5705
3289.695	5550
3291.453	5674
3293.21	5714
3294.967	5569
3296.723	5625
3298.48	5677
3300.235	5678
3301.99	5703
3303.744	5631
3305.498	5694
3307.253	5736
3309.006	5696
3310.759	5550
3312.511	5627
3314.263	5565
3316.017	5678
3317.768	5523
3319.519	5549
3321.268	5749
3323.018	5628
3324.767	5624
3326.518	5587
3328.267	5617
3330.014	5689
3331.762	5540
3333.509	5568
3335.258	5595
3337.003	5616
3338.75	5562
3340.496	5536
3342.24	5589
3343.987	5624
3345.732	5523
3347.475	5537
3349.219	5511
3350.961	5472
3352.705	5499
3354.448	5541
3356.19	5461
3357.931	5501
3359.672	5530
3361.412	5477
3363.155	5459
3364.894	5601
3366.633	5478
3368.372	5467
3370.11	5529
3371.849	5536
3373.588	5577
3375.325	5474
3377.061	5477
3378.799	5416
3380.534	5489
3382.271	5437
3384.006	5444
3385.741	5430
3387.475	5392
3389.209	5467
3390.944	5481
3392.677	5511
3394.409	5515
3396.143	5481
3397.874	5477
3399.606	5477
3401.338	5325
3403.069	5494
3404.799	5340
3406.528	5412
3408.258	5431
3409.988	5456
3411.717	5451
3413.445	5388
3415.173	5458
3416.899	5390
3418.626	5393
3420.354	5366
3422.08	5258
3423.806	5397
3425.531	5371
3427.255	5413
3428.981	5246
3430.705	5426
3432.429	5336
3434.151	5273
3435.875	5349
3437.599	5221
3439.321	5265
3441.042	5365
3442.763	5336
3444.483	5274
3446.204	5248
3447.926	5321
3449.645	5268
3451.364	5295
3453.082	5339
3454.801	5253
3456.52	5204
3458.238	5216
3459.954	5198
3461.671	5320
3463.387	5237
3465.104	5249
3466.82	5098
3468.534	5155
3470.25	5244
3471.963	5142
3473.676	5244
3475.392	5178
3477.104	5217
3478.817	5255
3480.528	5078
3482.241	5078
3483.954	5128
3485.664	5175
3487.374	5079
3489.084	5132
3490.795	5162
3492.504	5070
3494.214	5109
3495.922	5032
3497.63	5100
3499.338	5122
3501.045	5076
3502.753	5153
3504.459	5079
3506.166	5103
3507.871	5141
3509.576	5055
3511.283	5065
3512.987	5046
3514.691	5010
3516.395	5074
3518.098	5004
3519.8	5107
3521.504	5003
3523.206	5061
3524.908	4987
3526.609	4997
3528.309	5018
3530.011	5018
3531.711	5040
3533.411	5062
3535.109	4956
3536.808	5017
3538.507	4944
3540.206	5016
3541.904	5038
3543.601	5046
3545.297	5005
3546.994	4873
3548.69	5052
3550.387	4920
3552.081	4964
3553.776	5012
3555.47	4953
3557.166	4963
3558.859	4993
3560.553	5007
3562.245	4970
3563.938	4917
3565.629	4949
3567.322	4964
3569.014	4910
3570.704	4855
3572.394	4886
3574.084	4905
3575.775	4912
3577.464	4964
3579.152	4925
3580.842	4969
3582.529	4950
3584.216	4882
3585.905	4813
3587.591	4959
3589.279	4853
3590.964	4781
3592.649	4884
3594.336	4755
3596.021	4900
3597.705	4776
3599.388	4898
3601.072	4796
3602.757	4744
3604.439	4723
3606.122	4834
3607.803	4855
3609.485	4815
3611.167	4827
3612.849	4828
3614.529	4729
3616.208	4646
3617.888	4731
3619.567	4779
3621.247	4682
3622.926	4877
3624.603	4799
3626.281	4644
3627.958	4751
3629.635	4776
3631.312	4739
3632.989	4659
3634.665	4840
3636.339	4679
3638.014	4757
3639.691	4701
3641.364	4709
3643.038	4670
3644.71	4722
3646.384	4629
3648.058	4678
3649.729	4590
3651.402	4650
3653.073	4572
3654.744	4682
3656.414	4576
3658.085	4608
3659.755	4637
3661.424	4611
3663.094	4631
3664.762	4590
3666.431	4613
3668.099	4645
3669.766	4641
3671.433	4652
3673.099	4686
3674.768	4585
3676.433	4686
3678.098	4506
3679.763	4639
3681.428	4499
3683.093	4514
3684.757	4631
3686.421	4534
3688.083	4458
3689.746	4571
3691.408	4561
3693.071	4545
3694.733	4579
3696.394	4545
3698.054	4554
3699.715	4603
3701.375	4533
3703.036	4569
3704.695	4563
3706.354	4503
3708.012	4598
3709.67	4491
3711.329	4484
3712.987	4500
3714.644	4493
3716.299	4488
3717.955	4569
3719.613	4475
3721.268	4535
3722.923	4506
3724.577	4465
3726.231	4526
3727.885	4418
3729.539	4551
3731.192	4560
3732.845	4421
3734.497	4532
3736.149	4537
3737.802	4489
3739.453	4435
3741.104	4456
3742.753	4435
3744.404	4546
3746.052	4395
3747.704	4380
3749.352	4536
3751	4398
3752.648	4423
3754.296	4485
3755.944	4393
3757.59	4430
3759.238	4464
3760.883	4385
3762.528	4339
3764.176	4415
3765.82	4441
3767.464	4333
3769.109	4433
3770.753	4357
3772.396	4320
3774.04	4433
3775.683	4422
3777.325	4430
3778.967	4435
3780.608	4376
3782.25	4316
3783.89	4373
3785.531	4354
3787.17	4345
3788.81	4318
3790.45	4256
3792.09	4312
3793.729	4225
3795.366	4204
3797.003	4343
3798.64	4291
3800.278	4213
3801.915	4319
3803.551	4284
3805.187	4369
3806.822	4350
3808.458	4245
3810.093	4225
3811.726	4228
3813.36	4293
3814.994	4245
3816.627	4167
3818.262	4174
3819.893	4286
3821.525	4224
3823.157	4244
3824.787	4241
3826.42	4314
3828.051	4194
3829.68	4208
3831.31	4204
3832.938	4291
3834.569	4210
3836.198	4241
3837.825	4132
3839.454	4192
3841.08	4173
3842.708	4168
3844.335	4167
3845.962	4267
3847.587	4158
3849.212	4107
3850.838	4125
3852.463	4233
3854.089	4165
3855.712	4129
3857.335	4109
3858.959	4105
3860.582	4180
3862.205	4142
3863.827	4121
3865.449	4126
3867.07	4128
3868.691	4088
3870.312	4111
3871.933	4142
3873.553	4055
3875.173	4046
3876.792	4076
3878.411	4122
3880.03	4099
3881.647	4078
3883.265	4179
3884.882	4055
3886.499	4066
3888.116	4100
3889.732	4045
3891.348	4066
3892.964	4036
3894.579	4083
3896.195	4116
3897.809	3987
3899.423	4039
3901.036	4141
3902.648	4138
3904.261	4090
3905.875	4111
3907.487	4005
3909.099	4044
3910.709	4061
3912.321	4077
3913.933	4035
3915.542	4078
3917.152	4134
3918.762	4032
3920.37	4057
3921.98	3940
3923.589	4041
3925.196	3979
3926.804	4109
3928.41	3998
3930.018	4084
3931.626	4036
3933.231	4032
3934.838	4019
3936.442	3999
3938.046	3989
3939.653	4061
3941.257	3988
3942.861	4007
3944.464	3993
3946.068	4089
3947.67	3939
3949.273	3964
3950.876	3991
3952.477	3946
3954.078	3985
3955.678	3957
3957.281	3975
3958.881	3925
3960.48	3896
3962.079	3996
3963.678	3914
3965.279	3910
3966.877	3940
3968.475	3897
3970.072	3841
3971.669	3896
3973.266	3917
3974.864	3929
3976.459	3869
3978.055	3843
3979.65	3911
3981.245	3742
3982.841	3890
3984.436	3808
3986.03	3885
3987.623	3899
3989.216	3889
3990.809	3852
3992.403	3798
3993.995	3820
3995.586	3849
3997.177	3824
3998.768	3722
4000.361	3814
4001.951	3861
4003.54	3831
4005.13	3768
4006.719	3756
4008.31	3814
4009.897	3769
4011.485	3732
4013.073	3693
4014.66	3762
4016.247	3760
4017.834	3730
4019.421	3765
4021.006	3763
4022.592	3738
4024.178	3703
4025.763	3708
4027.348	3722
4028.932	3805
4030.515	3681
4032.099	3723
4033.682	3753
4035.266	3712
4036.847	3723
4038.429	3719
4040.011	3706
4041.592	3642
4043.173	3699
4044.755	3678
4046.334	3650
4047.913	3636
4049.494	3714
4051.074	3637
4052.652	3644
4054.23	3607
4055.807	3676
4057.385	3616
4058.963	3662
4060.541	3646
4062.117	3669
4063.693	3643
4065.269	3579
4066.844	3608
4068.42	3540
4069.995	3609
4071.569	3647
4073.143	3658
4074.716	3596
4076.291	3579
4077.864	3569
4079.436	3646
4081.009	3611
4082.58	3609
4084.152	3579
4085.723	3590
4087.294	3556
4088.865	3515
4090.435	3640
4092.005	3556
4093.574	3536
4095.143	3557
4096.712	3578
4098.279	3522
4099.848	3598
4101.416	3533
4102.984	3565
4104.55	3608
4106.117	3528
4107.682	3514
4109.248	3611
4110.815	3467
4112.379	3532
4113.945	3483
4115.508	3528
4117.073	3487
4118.637	3554
4120.201	3559
4121.763	3445
4123.325	3499
4124.888	3521
4126.449	3456
4128.013	3490
4129.573	3404
4131.133	3408
4132.694	3378
4134.254	3446
4135.814	3445
4137.374	3446
4138.933	3439
4140.491	3477
4142.049	3383
4143.607	3483
4145.167	3466
4146.724	3425
4148.28	3418
4149.836	3438
4151.392	3412
4152.949	3368
4154.504	3484
4156.059	3387
4157.614	3314
4159.168	3412
4160.723	3357
4162.277	3361
4163.83	3319
4165.383	3453
4166.936	3295
4168.488	3327
4170.041	3341
4171.593	3381
4173.144	3383
4174.695	3312
4176.246	3355
4177.796	3342
4179.346	3283
4180.896	3408
4182.445	3323
4183.994	3360
4185.542	3308
4187.091	3288
4188.639	3289
4190.185	3257
4191.732	3266
4193.279	3288
4194.826	3271
4196.373	3297
4197.918	3326
4199.463	3290
4201.008	3353
4202.553	3238
4204.098	3285
4205.641	3236
4207.185	3301
4208.728	3241
4210.271	3255
4211.814	3235
4213.357	3252
4214.898	3299
4216.439	3357
4217.98	3207
4219.522	3277
4221.062	3241
4222.603	3251
4224.142	3336
4225.681	3209
4227.222	3202
4228.76	3229
4230.298	3257
4231.835	3211
4233.373	3196
4234.911	3186
4236.449	3201
4237.985	3195
4239.521	3156
4241.057	3215
4242.592	3278
4244.128	3216
4245.663	3180
4247.197	3201
4248.731	3124
4250.265	3160
4251.798	3184
4253.333	3176
4254.865	3275
4256.397	3219
4257.93	3173
4259.461	3152
4260.994	3181
4262.525	3185
4264.056	3193
4265.586	3076
4267.115	3140
4268.646	3029
4270.176	3077
4271.705	3084
4273.232	3217
4274.761	3146
4276.289	3066
4277.818	3118
4279.345	3104
4280.872	3187
4282.399	3116
4283.924	3042
4285.452	3087
4286.976	3116
4288.502	3098
4290.026	3057
4291.551	3104
4293.074	3085
4294.6	3142
4296.123	3097
4297.646	3052
4299.168	3063
4300.691	3117
4302.214	3050
4303.736	3097
4305.257	3109
4306.778	3110
4308.299	3043
4309.82	3080
4311.34	3051
4312.86	3032
4314.379	3096
