400.0745	8071
402.597	8015
405.1208	8122
407.6419	8111
410.1623	8027
412.6819	8209
415.201	8203
417.7172	8286
420.2369	8351
422.7538	8344
425.2701	8420
427.7856	8554
430.3005	8492
432.8147	8614
435.3282	8597
437.841	8616
440.3511	8552
442.8625	8459
445.3753	8612
447.8854	8682
450.3927	8640
452.9014	8568
455.4073	8712
457.9146	8682
460.4233	8675
462.9272	8763
465.4325	8557
467.935	8670
470.4389	8749
472.9421	8778
475.4446	8746
477.9444	8820
480.4456	8741
482.944	8840
485.4417	8828
487.9429	8848
490.4393	8900
492.935	8846
495.4321	8832
497.9264	9032
500.4221	8932
502.9171	9008
505.4094	8966
507.9011	8957
510.392	9097
512.8864	9109
515.3759	9108
517.8649	9061
520.3531	9244
522.8406	9107
525.3275	9125
527.8178	9061
530.3033	8998
532.7881	9156
535.2723	9136
537.7558	9202
540.2407	8941
542.7228	9039
545.2043	9089
547.6851	9156
550.1652	9126
552.6467	9163
555.1255	9136
557.6016	9063
560.079	9306
562.5557	9270
565.0318	9244
567.5092	9244
569.984	9248
572.456	9195
574.9294	9390
577.4022	9400
579.8762	9491
582.3456	9330
584.8163	9510
587.2863	9442
589.7557	9629
592.2224	9367
594.6924	9410
597.1578	9493
599.6245	9398
602.0905	9344
604.5538	9441
607.0206	9401
609.4825	9589
611.9459	9481
614.4066	9430
616.8686	9346
619.33	9263
621.7906	9397
624.2487	9345
626.708	9382
629.1647	9510
631.6207	9474
634.0801	9544
636.5348	9364
638.9888	9486
641.4442	9420
643.8969	9633
646.3509	9550
648.8022	9468
651.255	9545
653.705	9515
656.1544	9535
658.6031	9654
661.0532	9556
663.5026	9665
665.9493	9655
668.3954	9753
670.8409	9710
673.2877	9615
675.7318	9642
678.1752	9687
680.618	9675
683.0601	9787
685.5035	9938
687.9444	9696
690.3845	9767
692.824	9768
695.2628	9835
697.701	9838
700.1406	9832
702.5774	9784
705.0116	9831
707.4472	9941
709.8821	9911
712.3183	9809
714.7519	9862
717.1829	9873
719.6151	10057
722.0468	9868
724.4777	10038
726.908	10257
729.3377	9956
731.7667	10034
734.1931	10169
736.6208	10104
739.0498	10153
741.4742	10182
743.9	10243
746.3231	10303
748.7476	10270
751.1713	10317
753.5945	10471
756.015	10222
758.4368	10567
760.856	10403
763.2766	10450
765.6965	10355
768.1157	10421
770.5323	10594
772.9483	10633
775.3656	10574
777.7822	10527
780.1963	10407
782.6116	10362
785.0244	10467
787.4365	10614
789.8499	10601
792.2626	10467
794.6728	10414
797.0823	10594
799.4911	10664
801.8994	10538
804.3109	10577
806.7178	10576
809.124	10621
811.5297	10601
813.9347	10526
816.341	10579
818.7447	10611
821.1478	10765
823.5502	10662
825.952	10654
828.3531	10819
830.7556	10695
833.1554	10748
835.5546	10743
837.9532	10691
840.3511	10720
842.7504	10757
845.1451	10813
847.5411	10816
849.9365	10862
852.3312	10871
854.7272	10972
857.1187	10766
859.5115	10965
861.9037	10944
864.2952	10803
866.6842	10808
869.0764	10705
871.4661	10713
873.8531	10828
876.2415	10761
878.6272	10777
881.0162	10650
883.4026	10792
885.7866	10875
888.1717	10853
890.5543	10738
892.9382	10651
895.3215	10739
897.7041	10826
900.0842	10922
902.4655	10807
904.8443	10949
907.2244	10798
909.6039	10740
911.9808	10810
914.357	11014
916.7346	11086
919.1115	10942
921.4859	10954
923.8616	11088
926.2347	11062
928.6071	11080
930.979	11208
933.3541	11203
935.7247	11291
938.0946	11258
940.4639	11314
942.8326	11498
945.2026	11621
947.5701	11615
949.9369	11852
952.305	12072
954.6705	12408
957.0355	12714
959.4017	12962
961.7654	12935
964.1284	12949
966.4908	12819
968.8527	12423
971.2138	12280
973.5743	11975
975.9343	11351
978.2936	11427
980.6522	11338
983.0122	11148
985.3696	11094
987.7245	11102
990.0807	10823
992.4362	11212
994.7911	11094
997.1474	11251
999.4991	11122
1001.852	11113
1004.205	11241
1006.555	11216
1008.908	11216
1011.258	11079
1013.606	11090
1015.956	11219
1018.302	11174
1020.652	11257
1022.998	11274
1025.345	11251
1027.691	11199
1030.035	11200
1032.378	11380
1034.724	11366
1037.066	11431
1039.409	11416
1041.75	11329
1044.092	11295
1046.433	11300
1048.771	11413
1051.112	11431
1053.449	11309
1055.786	11436
1058.124	11434
1060.462	11372
1062.797	11560
1065.131	11550
1067.467	11376
1069.8	11564
1072.135	11676
1074.467	11523
1076.798	11396
1079.129	11405
1081.459	11341
1083.792	11487
1086.121	11457
1088.449	11603
1090.777	11492
1093.104	11248
1095.431	11606
1097.759	11477
1100.084	11407
1102.408	11470
1104.732	11378
1107.056	11296
1109.379	11507
1111.701	11495
1114.022	11298
1116.343	11380
1118.664	11490
1120.983	11498
1123.303	11602
1125.621	11413
1127.939	11565
1130.256	11473
1132.573	11448
1134.889	11565
1137.205	11483
1139.52	11367
1141.832	11547
1144.146	11542
1146.461	11568
1148.771	11568
1151.083	11487
1153.392	11386
1155.703	11710
1158.011	11482
1160.323	11529
1162.629	11550
1164.938	11520
1167.243	11502
1169.55	11403
1171.857	11348
1174.163	11521
1176.466	11456
1178.769	11419
1181.073	11351
1183.374	11395
1185.677	11593
1187.979	11481
1190.279	11568
1192.578	11373
1194.878	11579
1197.178	11278
1199.476	11463
1201.772	11530
1204.068	11438
1206.366	11535
1208.663	11383
1210.957	11643
1213.251	11652
1215.544	11427
1217.836	11296
1220.128	11638
1222.421	11486
1224.712	11488
1227.002	11591
1229.292	11670
1231.581	11688
1233.871	11622
1236.159	11783
1238.446	11909
1240.732	11787
1243.018	11750
1245.304	11864
1247.59	12003
1249.874	11879
1252.156	11726
1254.439	11696
1256.721	11835
1259.005	11824
1261.286	11834
1263.565	11805
1265.845	11936
1268.125	11727
1270.403	11975
1272.682	11836
1274.959	11826
1277.234	11795
1279.511	11810
1281.787	11770
1284.062	11811
1286.337	11867
1288.609	11763
1290.882	11689
1293.153	11642
1295.428	11894
1297.698	11850
1299.969	11671
1302.237	11746
1304.507	11671
1306.777	11761
1309.044	11624
1311.312	11681
1313.578	11569
1315.844	11787
1318.109	11640
1320.375	11648
1322.638	11632
1324.903	11641
1327.165	11684
1329.427	11549
1331.69	11739
1333.952	11727
1336.212	11462
1338.471	11651
1340.73	11648
1342.988	11654
1345.248	11818
1347.505	11637
1349.763	11829
1352.019	11568
1354.274	11759
1356.53	11593
1358.784	11634
1361.038	11625
1363.291	11620
1365.543	11668
1367.797	11746
1370.048	11587
1372.296	11929
1374.546	11735
1376.796	11717
1379.045	11759
1381.295	11771
1383.542	11934
1385.787	11770
1388.034	11835
1390.28	11881
1392.527	11841
1394.772	11752
1397.014	11769
1399.258	11882
1401.501	11714
1403.741	11946
1405.985	11876
1408.226	11898
1410.465	11853
1412.705	11912
1414.943	11879
1417.184	11970
1419.42	11717
1421.658	11756
1423.894	11897
1426.13	11929
1428.366	12095
1430.602	11964
1432.835	11935
1435.069	11963
1437.301	12076
1439.535	12148
1441.767	12139
1443.997	12136
1446.229	12242
1448.458	12189
1450.687	12117
1452.916	12068
1455.146	12352
1457.372	12265
1459.599	12276
1461.824	12172
1464.051	12142
1466.277	12155
1468.501	12146
1470.725	12054
1472.948	11961
1475.17	11949
1477.393	11934
1479.614	11927
1481.837	12103
1484.057	11706
1486.276	11904
1488.497	11790
1490.715	11908
1492.932	11871
1495.148	11882
1497.364	11718
1499.58	11888
1501.798	11824
1504.012	11623
1506.227	11587
1508.44	11735
1510.653	11681
1512.866	11665
1515.078	11782
1517.289	11703
1519.5	11769
1521.711	11599
1523.92	11713
1526.13	11629
1528.338	11676
1530.544	11817
1532.752	11603
1534.959	11733
1537.165	11739
1539.371	11708
1541.574	11729
1543.779	11787
1545.983	11840
1548.187	11829
1550.39	11779
1552.59	11839
1554.792	11873
1556.991	11890
1559.19	11789
1561.392	11872
1563.59	11825
1565.789	11897
1567.986	11974
1570.182	11944
1572.381	11893
1574.576	11953
1576.771	11949
1578.966	12173
1581.16	11968
1583.354	12032
1585.546	12158
1587.74	12057
1589.931	12170
1592.121	12099
1594.311	12037
1596.502	12144
1598.693	12041
1600.881	12088
1603.069	11930
1605.256	11983
1607.445	12126
1609.631	12078
1611.816	12236
1614.001	12092
1616.186	12068
1618.37	12087
1620.555	12058
1622.737	12116
1624.919	12101
1627.101	12098
1629.282	12236
1631.463	12036
1633.643	12124
1635.822	12177
1638.001	12151
1640.179	12236
1642.359	12212
1644.534	12296
1646.711	12193
1648.887	12245
1651.062	12350
1653.235	12134
1655.412	12062
1657.586	12109
1659.757	12200
1661.93	12186
1664.1	12332
1666.274	12136
1668.445	12325
1670.614	12181
1672.784	12336
1674.951	12288
1677.12	12380
1679.289	12323
1681.457	12155
1683.622	12103
1685.789	12321
1687.953	12059
1690.121	12156
1692.284	12148
1694.447	12168
1696.611	12186
1698.772	12265
1700.935	12091
1703.098	12150
1705.258	12063
1707.417	12096
1709.576	12068
1711.736	11987
1713.896	11951
1716.053	12027
1718.21	12067
1720.366	11940
1722.522	11893
1724.68	12024
1726.835	11924
1728.989	12013
1731.142	11985
1733.295	11987
1735.449	11974
1737.601	12027
1739.753	11963
1741.903	11899
1744.054	11969
1746.203	12028
1748.354	11917
1750.503	11978
1752.651	12095
1754.798	11894
1756.944	12126
1759.092	12091
1761.238	11798
1763.383	12254
1765.528	12107
1767.672	12092
1769.814	11925
1771.959	12051
1774.102	12114
1776.242	12083
1778.384	12138
1780.525	12100
1782.665	12157
1784.805	11969
1786.945	12142
1789.082	12130
1791.22	12230
1793.36	12249
1795.495	12070
1797.632	12115
1799.766	12084
1801.902	12077
1804.035	12165
1806.172	12114
1808.304	12347
1810.436	12027
1812.569	12257
1814.699	12138
1816.833	12126
1818.963	12121
1821.092	12104
1823.222	11894
1825.35	12078
1827.478	11939
1829.608	11991
1831.734	12134
1833.86	12014
1835.986	12119
1838.11	12056
1840.238	12147
1842.362	12048
1844.485	11940
1846.608	12013
1848.73	12017
1850.853	11972
1852.974	11947
1855.097	11991
1857.217	11926
1859.336	12055
1861.455	12060
1863.576	11908
1865.693	11941
1867.811	12012
1869.926	11948
1872.042	11842
1874.16	11948
1876.275	11898
1878.39	11887
1880.504	12060
1882.618	12125
1884.731	11986
1886.843	11980
1888.956	11789
1891.067	12103
1893.178	12107
1895.287	12028
1897.399	12091
1899.508	12041
1901.617	12068
1903.724	12072
1905.832	12070
1907.941	11955
1910.046	11961
1912.152	12125
1914.256	12211
1916.361	12032
1918.464	12176
1920.57	12231
1922.672	12120
1924.775	12248
1926.876	12070
1928.978	12172
1931.08	12184
1933.181	12072
1935.28	12075
1937.38	12249
1939.478	11993
1941.577	12198
1943.675	12145
1945.771	12281
1947.867	12191
1949.964	12275
1952.058	12072
1954.154	12182
1956.248	12146
1958.343	12222
1960.435	12126
1962.527	12249
1964.62	11975
1966.711	12154
1968.802	12133
1970.892	12087
1972.983	12167
1975.072	12127
1977.162	12232
1979.25	12000
1981.337	12138
1983.424	12006
1985.51	12103
1987.598	12020
1989.683	12002
1991.768	11938
1993.852	11999
1995.934	12026
1998.019	11978
2000.102	11986
2002.184	11806
2004.266	11976
2006.347	12056
2008.427	12062
2010.508	12023
2012.587	12103
2014.666	12007
2016.745	11983
2018.821	11855
2020.9	11932
2022.977	12006
2025.052	11832
2027.128	11858
2029.204	11985
2031.277	11829
2033.353	11914
2035.425	11994
2037.499	11945
2039.57	11919
2041.642	11888
2043.714	11962
2045.786	11870
2047.855	11986
2049.925	12055
2051.993	12015
2054.064	11899
2056.132	11878
2058.2	11869
2060.266	11956
2062.332	12238
2064.398	11861
2066.465	11807
2068.529	11827
2070.592	11955
2072.657	12054
2074.719	12127
2076.783	12047
2078.845	12095
2080.907	11978
2082.968	12007
2085.028	11956
2087.087	11951
2089.148	11925
2091.207	11924
2093.264	11835
2095.322	12032
2097.379	11926
2099.439	11993
2101.495	11969
2103.55	11969
2105.605	11932
2107.658	11906
2109.713	11851
2111.767	11904
2113.82	11827
2115.872	11953
2117.924	11911
2119.975	12028
2122.028	11830
2124.078	11892
2126.126	11903
2128.176	11824
2130.225	11746
2132.275	11893
2134.321	11771
2136.368	12041
2138.415	11984
2140.461	11957
2142.505	11901
2144.552	11789
2146.597	11781
2148.64	11944
2150.684	11809
2152.725	11753
2154.77	11649
2156.811	11765
2158.852	11870
2160.894	11753
2162.933	11888
2164.973	11876
2167.013	11750
2169.051	11712
2171.089	11909
2173.126	11747
2175.164	11731
2177.201	11678
2179.236	11722
2181.273	11833
2183.307	11746
2185.341	11824
2187.377	11528
2189.41	11761
2191.442	11620
2193.473	11774
2195.506	11654
2197.539	11638
2199.569	11572
2201.598	11555
2203.628	11606
2205.656	11647
2207.686	11577
2209.716	11483
2211.743	11678
2213.769	11617
2215.796	11684
2217.821	11596
2219.848	11411
2221.873	11585
2223.897	11546
2225.921	11521
2227.944	11535
2229.967	11691
2231.991	11545
2234.011	11530
2236.032	11650
2238.053	11484
2240.073	11397
2242.094	11512
2244.114	11572
2246.131	11556
2248.149	11395
2250.167	11529
2252.186	11559
2254.201	11549
2256.218	11507
2258.233	11556
2260.247	11308
2262.262	11513
2264.278	11548
2266.29	11476
2268.303	11524
2270.315	11487
2272.327	11687
2274.341	11457
2276.35	11593
2278.361	11539
2280.37	11353
2282.38	11441
2284.388	11453
2286.397	11455
2288.405	11605
2290.412	11683
2292.419	11522
2294.425	11382
2296.431	11391
2298.437	11467
2300.441	11522
2302.445	11536
2304.449	11515
2306.453	11505
2308.455	11483
2310.457	11326
2312.459	11544
2314.46	11416
2316.46	11417
2318.461	11471
2320.46	11485
2322.458	11419
2324.458	11245
2326.456	11379
2328.455	11306
2330.451	11410
2332.447	11440
2334.443	11445
2336.438	11284
2338.433	11403
2340.429	11467
2342.422	11243
2344.416	11111
2346.408	11409
2348.399	11232
2350.393	11265
2352.384	11432
2354.375	11254
2356.365	11207
2358.355	11281
2360.344	11274
2362.333	11373
2364.322	11113
2366.309	11274
2368.295	11224
2370.282	11138
2372.27	11124
2374.256	11157
2376.24	11181
2378.225	11074
2380.208	11268
2382.194	11290
2384.177	11131
2386.159	11081
2388.142	11126
2390.122	10905
2392.105	11131
2394.085	11111
2396.066	11003
2398.044	10930
2400.024	11007
2402.002	11016
2403.982	11190
2405.959	11116
2407.935	11146
2409.913	11032
2411.888	11012
2413.865	10924
2415.84	10891
2417.814	11042
2419.788	10955
2421.762	10911
2423.735	10922
2425.708	10999
2427.68	11073
2429.651	11027
2431.623	11124
2433.593	10896
2435.564	10996
2437.533	10956
2439.502	10926
2441.47	11156
2443.438	11050
2445.406	10916
2447.373	10858
2449.34	11112
2451.305	10947
2453.271	10950
2455.235	10858
2457.201	10964
2459.165	11039
2461.129	11042
2463.092	11018
2465.054	10812
2467.018	10991
2468.978	10932
2470.939	10861
2472.899	10656
2474.86	11008
2476.819	10913
2478.778	10849
2480.737	10801
2482.695	10815
2484.653	10795
2486.609	10739
2488.567	10967
2490.524	10793
2492.478	10916
2494.433	10944
2496.387	10707
2498.343	10825
2500.297	10838
2502.249	10753
2504.202	10723
2506.153	10649
2508.105	10845
2510.057	10754
2512.008	10767
2513.957	10698
2515.906	10788
2517.855	10686
2519.805	10655
2521.754	10708
2523.7	10722
2525.647	10757
2527.594	10726
2529.54	10693
2531.486	10763
2533.431	10755
2535.376	10761
2537.32	10661
2539.263	10698
2541.207	10740
2543.151	10799
2545.093	10723
2547.034	10876
2548.975	10590
2550.917	10647
2552.856	10759
2554.796	10750
2556.735	10684
2558.673	10703
2560.611	10596
2562.55	10597
2564.487	10742
2566.424	10861
2568.36	10625
2570.296	10757
2572.232	10570
2574.167	10746
2576.101	10703
2578.035	10647
2579.969	10582
2581.902	10717
2583.834	10758
2585.766	10694
2587.698	10433
2589.628	10810
2591.557	10679
2593.489	10922
2595.419	10788
2597.348	10586
2599.275	10835
2601.204	10608
2603.131	10685
2605.059	10561
2606.986	10830
2608.911	10591
2610.837	10736
2612.76	10658
2614.687	10586
2616.61	10626
2618.534	10839
2620.457	10624
2622.38	10671
2624.302	10648
2626.225	10672
2628.145	10687
2630.067	10486
2631.986	10638
2633.906	10784
2635.827	10689
2637.745	10668
2639.662	10691
2641.581	10772
2643.498	10605
2645.415	10614
2647.331	10591
2649.248	10649
2651.163	10665
2653.077	10702
2654.993	10415
2656.906	10669
2658.821	10711
2660.733	10682
2662.646	10600
2664.557	10694
2666.47	10707
2668.381	10606
2670.291	10485
2672.201	10586
2674.11	10552
2676.021	10669
2677.929	10471
2679.837	10618
2681.745	10537
2683.652	10421
2685.56	10551
2687.466	10532
2689.371	10617
2691.276	10476
2693.181	10607
2695.085	10302
2696.991	10506
2698.893	10471
2700.796	10411
2702.698	10292
2704.601	10434
2706.502	10397
2708.404	10279
2710.304	10405
2712.203	10469
2714.103	10235
2716.003	10479
2717.902	10430
2719.8	10394
2721.697	10390
2723.594	10325
2725.49	10463
2727.389	10336
2729.283	10412
2731.179	10345
2733.073	10459
2734.968	10310
2736.863	10353
2738.757	10340
2740.649	10421
2742.541	10272
2744.433	10261
2746.324	10449
2748.216	10311
2750.107	10521
2751.997	10357
2753.886	10340
2755.776	10251
2757.666	10281
2759.553	10264
2761.44	10119
2763.327	10357
2765.215	10336
2767.102	10283
2768.988	10296
2770.873	10308
2772.757	10169
2774.641	10193
2776.525	10371
2778.41	10263
2780.292	10236
2782.175	10172
2784.057	10126
2785.938	10182
2787.821	10314
2789.701	10193
2791.581	10219
2793.461	10142
2795.34	10197
2797.219	10063
2799.099	10224
2800.975	10154
2802.853	10218
2804.73	10056
2806.606	10352
2808.484	10186
2810.358	10197
2812.233	10082
2814.108	10007
2815.981	10154
2817.857	10072
2819.73	10014
2821.602	10190
2823.474	10076
2825.346	10070
2827.217	9923
2829.089	10127
2830.959	10158
2832.829	10109
2834.698	9954
2836.567	10072
2838.436	10196
2840.305	9983
2842.172	10082
2844.04	9941
2845.905	10205
2847.772	10117
2849.639	9983
2851.503	10074
2853.369	10051
2855.232	10065
2857.096	10201
2858.961	10186
2860.824	10127
2862.686	10186
2864.547	10222
2866.41	10196
2868.272	10157
2870.132	10313
2871.992	10430
2873.851	10424
2875.711	10511
2877.57	10455
2879.429	10306
2881.287	10475
2883.144	10458
2885.001	10498
2886.857	10589
2888.714	10410
2890.57	10498
2892.425	10584
2894.279	10496
2896.133	10421
2897.987	10353
2899.842	10666
2901.694	10380
2903.547	10407
2905.397	10423
2907.249	10438
2909.101	10416
2910.952	10470
2912.802	10581
2914.652	10628
2916.5	10582
2918.35	10665
2920.198	10928
2922.045	10810
2923.893	10792
2925.74	10861
2927.585	10952
2929.433	11045
2931.279	11112
2933.123	11239
2934.968	11189
2936.811	11346
2938.656	11190
2940.5	11212
2942.342	11565
2944.185	11375
2946.026	11291
2947.87	11327
2949.71	11209
2951.549	11184
2953.39	11253
2955.229	11109
2957.069	11040
2958.908	10976
2960.746	10969
2962.584	10840
2964.421	10843
2966.257	10756
2968.094	10624
2969.931	10662
2971.766	10544
2973.601	10541
2975.435	10560
2977.27	10592
2979.105	10468
2980.938	10714
2982.77	10504
2984.602	10425
2986.434	10503
2988.267	10408
2990.097	10310
2991.927	10285
2993.757	10359
2995.587	10235
2997.417	10196
2999.246	10230
3001.074	10134
3002.902	10051
3004.729	9992
3006.556	9839
3008.384	9849
3010.21	9741
3012.036	9812
3013.861	9684
3015.684	9676
3017.51	9686
3019.334	9523
3021.157	9522
3022.981	9610
3024.802	9519
3026.624	9485
3028.448	9483
3030.267	9569
3032.088	9449
3033.909	9392
3035.728	9341
3037.549	9315
3039.368	9360
3041.186	9345
3043.004	9370
3044.821	9236
3046.64	9436
3048.455	9347
3050.272	9375
3052.087	9321
3053.903	9311
3055.717	9275
3057.534	9471
3059.347	9330
3061.16	9209
3062.974	9324
3064.785	9324
3066.598	9110
3068.411	9371
3070.222	9226
3072.032	9370
3073.844	9296
3075.653	9253
3077.463	9217
3079.272	9248
3081.08	9174
3082.889	9354
3084.697	9064
3086.505	9164
3088.312	9182
3090.118	9195
3091.924	8984
3093.729	9137
3095.535	8962
3097.34	9093
3099.144	9033
3100.947	9147
3102.75	8961
3104.553	9083
3106.357	8948
3108.159	9076
3109.961	9108
3111.762	8914
3113.562	8866
3115.365	8913
3117.164	9018
3118.964	8936
3120.761	9008
3122.56	8950
3124.36	8926
3126.158	9020
3127.954	8781
3129.75	8869
3131.547	8953
3133.343	8867
3135.139	8945
3136.934	8800
3138.729	8902
3140.522	8908
3142.317	8838
3144.11	8708
3145.904	8865
3147.695	8906
3149.488	8813
3151.28	8809
3153.07	8803
3154.863	8797
3156.652	8627
3158.441	8764
3160.231	8880
3162.019	8665
3163.81	8771
3165.597	8672
3167.384	8727
3169.172	8720
3170.958	8617
3172.745	8753
3174.532	8847
3176.317	8567
3178.101	8667
3179.885	8582
3181.67	8667
3183.455	8730
3185.238	8530
3187.02	8711
3188.802	8646
3190.585	8744
3192.368	8648
3194.149	8520
3195.929	8696
3197.709	8670
3199.489	8539
3201.268	8644
3203.048	8669
3204.826	8735
3206.604	8517
3208.382	8677
3210.159	8706
3211.937	8618
3213.713	8691
3215.489	8504
3217.263	8561
3219.038	8648
3220.815	8535
3222.589	8528
3224.363	8476
3226.136	8537
3227.908	8486
3229.681	8493
3231.454	8544
3233.226	8505
3234.996	8442
3236.767	8592
3238.538	8527
3240.308	8315
3242.078	8553
3243.847	8548
3245.615	8537
3247.384	8448
3249.15	8619
3250.92	8288
3252.686	8430
3254.453	8489
3256.218	8542
3257.984	8473
3259.75	8422
3261.515	8464
3263.279	8618
3265.044	8504
3266.806	8531
3268.57	8489
3270.334	8516
3272.095	8512
3273.856	8344
3275.619	8429
3277.379	8607
3279.14	8464
3280.9	8383
3282.661	8495
3284.419	8503
3286.178	8582
3287.937	8475
3289.695	8441
3291.453	8578
3293.21	8474
3294.967	8518
3296.723	8522
3298.48	8421
3300.235	8590
3301.99	8408
3303.744	8458
3305.498	8357
3307.253	8456
3309.006	8366
3310.759	8454
3312.511	8517
3314.263	8394
3316.017	8368
3317.768	8555
3319.519	8474
3321.268	8371
3323.018	8540
3324.767	8529
3326.518	8457
3328.267	8493
3330.014	8399
3331.762	8486
3333.509	8355
3335.258	8438
3337.003	8304
3338.75	8312
3340.496	8306
3342.24	8245
3343.987	8411
3345.732	8350
3347.475	8263
3349.219	8202
3350.961	8190
3352.705	8261
3354.448	8302
3356.19	8229
3357.931	8174
3359.672	8322
3361.412	8242
3363.155	8185
3364.894	8277
3366.633	8270
3368.372	8156
3370.11	8192
3371.849	8206
3373.588	8187
3375.325	8067
3377.061	8282
3378.799	8196
3380.534	8048
3382.271	8169
3384.006	8125
3385.741	8131
3387.475	8261
3389.209	8080
3390.944	8137
3392.677	8081
3394.409	8127
3396.143	8015
3397.874	8085
3399.606	8048
3401.338	8060
3403.069	8037
3404.799	7962
3406.528	8005
3408.258	8019
3409.988	8141
3411.717	8090
3413.445	7960
3415.173	8096
3416.899	8160
3418.626	8027
3420.354	7940
3422.08	7942
3423.806	8125
3425.531	8025
3427.255	8086
3428.981	7906
3430.705	7873
3432.429	8031
3434.151	7978
3435.875	7936
3437.599	7899
3439.321	7829
3441.042	7988
3442.763	7870
3444.483	7783
3446.204	7961
3447.926	7995
3449.645	7815
3451.364	7776
3453.082	7789
3454.801	7683
3456.52	7877
3458.238	7801
3459.954	7697
3461.671	7698
3463.387	7800
3465.104	7746
3466.82	7649
3468.534	7730
3470.25	7757
3471.963	7775
3473.676	7799
3475.392	7694
3477.104	7787
3478.817	7678
3480.528	7705
3482.241	7681
3483.954	7781
3485.664	7700
3487.374	7523
3489.084	7608
3490.795	7533
3492.504	7571
3494.214	7500
3495.922	7589
3497.63	7526
3499.338	7497
3501.045	7615
3502.753	7608
3504.459	7598
3506.166	7441
3507.871	7499
3509.576	7445
3511.283	7502
3512.987	7519
3514.691	7510
3516.395	7488
3518.098	7532
3519.8	7584
3521.504	7439
3523.206	7534
3524.908	7422
3526.609	7444
3528.309	7407
3530.011	7469
3531.711	7456
3533.411	7335
3535.109	7331
3536.808	7297
3538.507	7372
3540.206	7496
3541.904	7378
3543.601	7360
3545.297	7392
3546.994	7318
3548.69	7378
3550.387	7220
3552.081	7315
3553.776	7279
3555.47	7242
3557.166	7348
3558.859	7413
3560.553	7190
3562.245	7323
3563.938	7270
3565.629	7223
3567.322	7193
3569.014	7240
3570.704	7200
3572.394	7249
3574.084	7271
3575.775	7276
3577.464	7270
3579.152	7218
3580.842	7298
3582.529	7279
3584.216	7198
3585.905	7145
3587.591	7313
3589.279	7198
3590.964	7075
3592.649	7143
3594.336	7091
3596.021	7181
3597.705	7036
3599.388	7157
3601.072	7015
3602.757	6986
3604.439	7067
3606.122	7061
3607.803	7048
3609.485	7088
3611.167	6993
3612.849	6996
3614.529	7005
3616.208	6874
3617.888	6932
3619.567	7086
3621.247	6892
3622.926	6888
3624.603	6929
3626.281	7010
3627.958	6912
3629.635	6933
3631.312	6930
3632.989	6930
3634.665	6960
3636.339	6854
3638.014	6858
3639.691	6856
3641.364	6916
3643.038	6865
3644.71	6839
3646.384	6826
3648.058	6915
3649.729	6776
3651.402	6729
3653.073	6840
3654.744	6754
3656.414	6781
3658.085	6763
3659.755	6770
3661.424	6861
3663.094	6745
3664.762	6677
3666.431	6633
3668.099	6673
3669.766	6689
3671.433	6740
3673.099	6782
3674.768	6654
3676.433	6669
3678.098	6715
3679.763	6525
3681.428	6602
3683.093	6790
3684.757	6649
3686.421	6644
3688.083	6727
3689.746	6643
3691.408	6643
3693.071	6718
3694.733	6679
3696.394	6617
3698.054	6715
3699.715	6691
3701.375	6671
3703.036	6573
3704.695	6642
3706.354	6739
3708.012	6674
3709.67	6518
3711.329	6616
3712.987	6602
3714.644	6611
3716.299	6657
3717.955	6572
3719.613	6638
3721.268	6450
3722.923	6664
3724.577	6526
3726.231	6557
3727.885	6616
3729.539	6638
3731.192	6646
3732.845	6515
3734.497	6395
3736.149	6495
3737.802	6607
3739.453	6519
3741.104	6524
3742.753	6448
3744.404	6418
3746.052	6541
3747.704	6460
3749.352	6488
3751	6507
3752.648	6348
3754.296	6560
3755.944	6432
3757.59	6375
3759.238	6404
3760.883	6382
3762.528	6377
3764.176	6477
3765.82	6206
3767.464	6377
3769.109	6381
3770.753	6438
3772.396	6276
3774.04	6305
3775.683	6314
3777.325	6368
3778.967	6192
3780.608	6272
3782.25	6296
3783.89	6316
3785.531	6353
3787.17	6264
3788.81	6250
3790.45	6204
3792.09	6244
3793.729	6284
3795.366	6280
3797.003	6290
3798.64	6221
3800.278	6302
3801.915	6187
3803.551	6180
3805.187	6252
3806.822	6137
3808.458	6255
3810.093	6130
3811.726	6112
3813.36	6130
3814.994	6185
3816.627	6006
3818.262	6196
3819.893	6148
3821.525	6232
3823.157	6121
3824.787	6100
3826.42	6119
3828.051	6073
3829.68	6109
3831.31	6154
3832.938	6063
3834.569	6132
3836.198	6000
3837.825	6133
3839.454	6099
3841.08	6035
3842.708	6166
3844.335	6152
3845.962	6061
3847.587	6048
3849.212	6111
3850.838	6064
3852.463	6067
3854.089	6016
3855.712	6020
3857.335	6082
3858.959	5966
3860.582	6020
3862.205	6019
3863.827	5940
3865.449	5934
3867.07	6017
3868.691	5903
3870.312	5883
3871.933	5978
3873.553	5930
3875.173	5916
3876.792	5991
3878.411	5928
3880.03	5986
3881.647	5847
3883.265	5905
3884.882	5879
3886.499	5848
3888.116	5917
3889.732	5933
3891.348	5989
3892.964	5816
3894.579	5841
3896.195	5959
3897.809	5884
3899.423	5759
3901.036	5850
3902.648	5894
3904.261	5905
3905.875	5879
3907.487	5846
3909.099	5843
3910.709	5799
3912.321	5860
3913.933	5953
3915.542	5788
3917.152	5832
3918.762	5794
3920.37	5829
3921.98	5848
3923.589	5787
3925.196	5865
3926.804	5809
3928.41	5807
3930.018	5721
3931.626	5822
3933.231	5835
3934.838	5740
3936.442	5796
3938.046	5763
3939.653	5754
3941.257	5771
3942.861	5696
3944.464	5782
3946.068	5742
3947.67	5721
3949.273	5812
3950.876	5678
3952.477	5649
3954.078	5701
3955.678	5761
3957.281	5571
3958.881	5695
3960.48	5715
3962.079	5546
3963.678	5702
3965.279	5659
3966.877	5730
3968.475	5737
3970.072	5658
3971.669	5668
3973.266	5653
3974.864	5730
3976.459	5578
3978.055	5591
3979.65	5527
3981.245	5555
3982.841	5608
3984.436	5598
3986.03	5498
3987.623	5612
3989.216	5536
3990.809	5627
3992.403	5549
3993.995	5526
3995.586	5571
3997.177	5449
3998.768	5527
4000.361	5514
4001.951	5521
4003.54	5445
4005.13	5386
4006.719	5437
4008.31	5477
4009.897	5443
4011.485	5378
4013.073	5414
4014.66	5406
4016.247	5402
4017.834	5413
4019.421	5339
4021.006	5340
4022.592	5459
4024.178	5325
4025.763	5319
4027.348	5316
4028.932	5357
4030.515	5440
4032.099	5305
4033.682	5273
4035.266	5337
4036.847	5282
4038.429	5269
4040.011	5283
4041.592	5206
4043.173	5317
4044.755	5333
4046.334	5218
4047.913	5246
4049.494	5331
4051.074	5207
4052.652	5064
4054.23	5340
4055.807	5254
4057.385	5292
4058.963	5249
4060.541	5334
4062.117	5188
4063.693	5208
4065.269	5210
4066.844	5243
4068.42	5135
4069.995	5229
4071.569	5135
4073.143	5106
4074.716	5234
4076.291	5214
4077.864	5178
4079.436	5171
4081.009	5190
4082.58	5142
4084.152	5251
4085.723	5125
4087.294	5210
4088.865	5200
4090.435	5210
4092.005	5258
4093.574	5190
4095.143	5112
4096.712	5055
4098.279	5128
4099.848	5191
4101.416	5235
4102.984	5006
4104.55	5114
4106.117	5090
4107.682	5172
4109.248	5042
4110.815	5163
4112.379	5061
4113.945	5072
4115.508	5092
4117.073	5034
4118.637	5021
4120.201	5108
4121.763	5095
4123.325	4963
4124.888	5110
4126.449	5055
4128.013	4983
4129.573	4946
4131.133	5049
4132.694	5014
4134.254	4930
4135.814	5036
4137.374	4894
4138.933	4914
4140.491	4970
4142.049	4959
4143.607	4923
4145.167	4888
4146.724	4856
4148.28	4906
4149.836	4862
4151.392	4926
4152.949	4926
4154.504	4961
4156.059	4897
4157.614	4915
4159.168	4830
4160.723	4855
4162.277	4898
4163.83	4914
4165.383	4955
4166.936	4824
4168.488	4844
4170.041	4916
4171.593	4806
4173.144	4762
4174.695	4740
4176.246	4841
4177.796	4856
4179.346	4884
4180.896	4790
4182.445	4739
4183.994	4728
4185.542	4797
4187.091	4668
4188.639	4765
4190.185	4687
4191.732	4824
4193.279	4728
4194.826	4695
4196.373	4631
4197.918	4718
4199.463	4621
4201.008	4758
4202.553	4701
4204.098	4753
4205.641	4789
4207.185	4715
4208.728	4713
4210.271	4674
4211.814	4655
4213.357	4615
4214.898	4587
4216.439	4681
4217.98	4613
4219.522	4533
4221.062	4705
4222.603	4619
4224.142	4691
4225.681	4704
4227.222	4589
4228.76	4659
4230.298	4666
4231.835	4637
4233.373	4629
4234.911	4622
4236.449	4610
4237.985	4502
4239.521	4664
4241.057	4668
4242.592	4672
4244.128	4596
4245.663	4618
4247.197	4600
4248.731	4666
4250.265	4575
4251.798	4540
4253.333	4546
4254.865	4589
4256.397	4548
4257.93	4582
4259.461	4574
4260.994	4522
4262.525	4492
4264.056	4436
4265.586	4527
4267.115	4506
4268.646	4534
4270.176	4633
4271.705	4509
4273.232	4482
4274.761	4458
4276.289	4538
4277.818	4584
4279.345	4490
4280.872	4541
4282.399	4401
4283.924	4512
4285.452	4413
4286.976	4387
4288.502	4474
4290.026	4536
4291.551	4399
4293.074	4402
4294.6	4412
4296.123	4467
4297.646	4461
4299.168	4434
4300.691	4333
4302.214	4455
4303.736	4406
4305.257	4376
4306.778	4293
4308.299	4319
4309.82	4345
4311.34	4394
4312.86	4390
4314.379	4380
