400.0745	4231
402.597	4311
405.1208	4270
407.6419	4313
410.1623	4327
412.6819	4354
415.201	4340
417.7172	4356
420.2369	4421
422.7538	4420
425.2701	4551
427.7856	4640
430.3005	4687
432.8147	4570
435.3282	4513
437.841	4606
440.3511	4574
442.8625	4698
445.3753	4639
447.8854	4598
450.3927	4582
452.9014	4670
455.4073	4614
457.9146	4589
460.4233	4504
462.9272	4521
465.4325	4549
467.935	4518
470.4389	4563
472.9421	4651
475.4446	4550
477.9444	4621
480.4456	4566
482.944	4614
485.4417	4629
487.9429	4720
490.4393	4689
492.935	4685
495.4321	4560
497.9264	4670
500.4221	4641
502.9171	4624
505.4094	4772
507.9011	4761
510.392	4714
512.8864	4653
515.3759	4704
517.8649	4728
520.3531	4700
522.8406	4744
525.3275	4751
527.8178	4765
530.3033	4819
532.7881	4826
535.2723	4789
537.7558	4825
540.2407	4654
542.7228	4717
545.2043	4748
547.6851	4792
550.1652	4744
552.6467	4736
555.1255	4881
557.6016	4828
560.079	4747
562.5557	4752
565.0318	4789
567.5092	4828
569.984	4929
572.456	4917
574.9294	4954
577.4022	4983
579.8762	4994
582.3456	5052
584.8163	5045
587.2863	5087
589.7557	5027
592.2224	5022
594.6924	4995
597.1578	5025
599.6245	4940
602.0905	4967
604.5538	5003
607.0206	4918
609.4825	5018
611.9459	4945
614.4066	4948
616.8686	4925
619.33	4970
621.7906	4874
624.2487	4958
626.708	4862
629.1647	4841
631.6207	4916
634.0801	4833
636.5348	4914
638.9888	4859
641.4442	4908
643.8969	4942
646.3509	4881
648.8022	4955
651.255	4895
653.705	4851
656.1544	4956
658.6031	5029
661.0532	5002
663.5026	4962
665.9493	4965
668.3954	5043
670.8409	4882
673.2877	4979
675.7318	4935
678.1752	5024
680.618	5057
683.0601	5103
685.5035	5039
687.9444	5118
690.3845	4983
692.824	5030
695.2628	5105
697.701	5091
700.1406	5151
702.5774	5111
705.0116	5085
707.4472	5203
709.8821	5041
712.3183	5177
714.7519	5195
717.1829	5154
719.6151	5157
722.0468	5207
724.4777	5159
726.908	5217
729.3377	5286
731.7667	5257
734.1931	5253
736.6208	5266
739.0498	5234
741.4742	5300
743.9	5336
746.3231	5285
748.7476	5390
751.1713	5330
753.5945	5470
756.015	5419
758.4368	5340
760.856	5369
763.2766	5402
765.6965	5439
768.1157	5440
770.5323	5462
772.9483	5437
775.3656	5508
777.7822	5504
780.1963	5471
782.6116	5463
785.0244	5424
787.4365	5457
789.8499	5403
792.2626	5418
794.6728	5423
797.0823	5486
799.4911	5501
801.8994	5448
804.3109	5462
806.7178	5547
809.124	5461
811.5297	5415
813.9347	5554
816.341	5594
818.7447	5487
821.1478	5490
823.5502	5488
825.952	5565
828.3531	5554
830.7556	5457
833.1554	5645
835.5546	5598
837.9532	5496
840.3511	5651
842.7504	5537
845.1451	5670
847.5411	5535
849.9365	5641
852.3312	5751
854.7272	5775
857.1187	5728
859.5115	5708
861.9037	5643
864.2952	5714
866.6842	5684
869.0764	5753
871.4661	5657
873.8531	5655
876.2415	5710
878.6272	5575
881.0162	5648
883.4026	5679
885.7866	5641
888.1717	5625
890.5543	5639
892.9382	5686
895.3215	5592
897.7041	5703
900.0842	5588
902.4655	5631
904.8443	5619
907.2244	5719
909.6039	5680
911.9808	5741
914.357	5854
916.7346	5814
919.1115	5805
921.4859	5909
923.8616	6016
926.2347	5964
928.6071	6006
930.979	6001
933.3541	5989
935.7247	6047
938.0946	6151
940.4639	6119
942.8326	6098
945.2026	6263
947.5701	6481
949.9369	6619
952.305	6807
954.6705	7104
957.0355	7495
959.4017	7709
961.7654	7775
964.1284	7723
966.4908	7458
968.8527	7254
971.2138	6775
973.5743	6557
975.9343	6274
978.2936	6122
980.6522	5896
983.0122	5996
985.3696	5877
987.7245	5801
990.0807	5774
992.4362	5777
994.7911	5943
997.1474	5869
999.4991	5916
1001.852	5900
1004.205	6006
1006.555	5918
1008.908	5844
1011.258	5893
1013.606	5827
1015.956	5947
1018.302	5774
1020.652	5911
1022.998	5833
1025.345	5972
1027.691	5956
1030.035	6068
1032.378	5984
1034.724	5963
1037.066	5972
1039.409	6037
1041.75	6081
1044.092	6064
1046.433	6096
1048.771	6043
1051.112	5908
1053.449	5933
1055.786	6115
1058.124	6075
1060.462	5943
1062.797	6109
1065.131	6138
1067.467	6183
1069.8	6028
1072.135	6168
1074.467	6160
1076.798	6106
1079.129	6019
1081.459	6093
1083.792	6136
1086.121	6101
1088.449	6125
1090.777	6124
1093.104	6001
1095.431	6056
1097.759	6016
1100.084	5893
1102.408	6070
1104.732	6054
1107.056	6014
1109.379	6040
1111.701	5920
1114.022	5929
1116.343	5961
1118.664	5986
1120.983	6025
1123.303	5973
1125.621	5891
1127.939	5980
1130.256	6005
1132.573	5922
1134.889	5917
1137.205	6000
1139.52	5968
1141.832	5964
1144.146	5995
1146.461	5969
1148.771	5896
1151.083	6067
1153.392	6034
1155.703	6032
1158.011	5940
1160.323	6022
1162.629	5963
1164.938	5902
1167.243	5904
1169.55	5967
1171.857	5919
1174.163	6033
1176.466	6006
1178.769	5936
1181.073	5978
1183.374	5967
1185.677	5879
1187.979	5983
1190.279	5937
1192.578	5865
1194.878	5963
1197.178	6048
1199.476	5951
1201.772	6020
1204.068	5990
1206.366	6009
1208.663	6049
1210.957	5937
1213.251	6067
1215.544	6039
1217.836	5946
1220.128	6038
1222.421	6018
1224.712	5989
1227.002	5923
1229.292	6081
1231.581	6255
1233.871	6159
1236.159	6171
1238.446	6244
1240.732	6200
1243.018	6251
1245.304	6272
1247.59	6242
1249.874	6256
1252.156	6113
1254.439	6239
1256.721	6298
1259.005	6225
1261.286	6261
1263.565	6197
1265.845	6153
1268.125	6238
1270.403	6127
1272.682	6194
1274.959	6247
1277.234	6210
1279.511	6227
1281.787	6172
1284.062	6294
1286.337	6254
1288.609	6214
1290.882	6196
1293.153	6139
1295.428	6050
1297.698	6245
1299.969	6152
1302.237	6091
1304.507	6101
1306.777	6141
1309.044	6209
1311.312	6094
1313.578	6005
1315.844	6171
1318.109	6073
1320.375	6077
1322.638	6148
1324.903	6101
1327.165	6092
1329.427	6139
1331.69	6103
1333.952	6173
1336.212	6115
1338.471	6211
1340.73	6152
1342.988	6109
1345.248	6150
1347.505	6097
1349.763	6115
1352.019	6183
1354.274	6087
1356.53	6113
1358.784	6034
1361.038	6110
1363.291	6028
1365.543	6029
1367.797	6200
1370.048	6185
1372.296	6173
1374.546	6006
1376.796	6242
1379.045	6099
1381.295	6184
1383.542	6197
1385.787	6143
1388.034	6145
1390.28	6229
1392.527	6227
1394.772	6272
1397.014	6135
1399.258	6204
1401.501	6170
1403.741	6299
1405.985	6150
1408.226	6380
1410.465	6297
1412.705	6377
1414.943	6344
1417.184	6249
1419.42	6254
1421.658	6233
1423.894	6327
1426.13	6223
1428.366	6302
1430.602	6246
1432.835	6303
1435.069	6320
1437.301	6398
1439.535	6489
1441.767	6355
1443.997	6334
1446.229	6449
1448.458	6439
1450.687	6423
1452.916	6477
1455.146	6512
1457.372	6480
1459.599	6389
1461.824	6446
1464.051	6513
1466.277	6381
1468.501	6385
1470.725	6382
1472.948	6256
1475.17	6187
1477.393	6236
1479.614	6228
1481.837	6212
1484.057	6248
1486.276	6042
1488.497	6173
1490.715	6098
1492.932	6073
1495.148	6096
1497.364	6177
1499.58	6121
1501.798	6139
1504.012	6075
1506.227	6132
1508.44	6114
1510.653	6126
1512.866	5978
1515.078	6041
1517.289	6049
1519.5	6100
1521.711	6101
1523.92	6035
1526.13	6069
1528.338	6054
1530.544	6106
1532.752	6029
1534.959	6095
1537.165	5980
1539.371	6065
1541.574	6038
1543.779	6109
1545.983	6082
1548.187	6108
1550.39	6259
1552.59	6118
1554.792	6222
1556.991	6072
1559.19	6186
1561.392	6233
1563.59	6147
1565.789	6121
1567.986	6150
1570.182	6185
1572.381	6217
1574.576	6155
1576.771	6168
1578.966	6220
1581.16	6230
1583.354	6410
1585.546	6179
1587.74	6159
1589.931	6272
1592.121	6248
1594.311	6271
1596.502	6184
1598.693	6344
1600.881	6319
1603.069	6281
1605.256	6234
1607.445	6206
1609.631	6256
1611.816	6252
1614.001	6303
1616.186	6228
1618.37	6304
1620.555	6308
1622.737	6347
1624.919	6292
1627.101	6306
1629.282	6314
1631.463	6397
1633.643	6341
1635.822	6332
1638.001	6446
1640.179	6510
1642.359	6375
1644.534	6479
1646.711	6396
1648.887	6353
1651.062	6492
1653.235	6402
1655.412	6463
1657.586	6464
1659.757	6515
1661.93	6378
1664.1	6516
1666.274	6417
1668.445	6467
1670.614	6453
1672.784	6498
1674.951	6568
1677.12	6517
1679.289	6452
1681.457	6506
1683.622	6520
1685.789	6414
1687.953	6531
1690.121	6336
1692.284	6355
1694.447	6368
1696.611	6362
1698.772	6280
1700.935	6289
1703.098	6362
1705.258	6202
1707.417	6283
1709.576	6216
1711.736	6123
1713.896	6238
1716.053	6220
1718.21	6125
1720.366	6218
1722.522	6375
1724.68	6212
1726.835	6320
1728.989	6160
1731.142	6249
1733.295	6249
1735.449	6252
1737.601	6272
1739.753	6324
1741.903	6275
1744.054	6278
1746.203	6183
1748.354	6170
1750.503	6236
1752.651	6218
1754.798	6285
1756.944	6323
1759.092	6341
1761.238	6327
1763.383	6210
1765.528	6225
1767.672	6245
1769.814	6288
1771.959	6308
1774.102	6234
1776.242	6307
1778.384	6245
1780.525	6363
1782.665	6214
1784.805	6212
1786.945	6182
1789.082	6144
1791.22	6298
1793.36	6266
1795.495	6299
1797.632	6350
1799.766	6375
1801.902	6273
1804.035	6360
1806.172	6384
1808.304	6412
1810.436	6240
1812.569	6252
1814.699	6268
1816.833	6225
1818.963	6366
1821.092	6209
1823.222	6380
1825.35	6306
1827.478	6254
1829.608	6303
1831.734	6332
1833.86	6244
1835.986	6204
1838.11	6250
1840.238	6233
1842.362	6310
1844.485	6313
1846.608	6176
1848.73	6204
1850.853	6207
1852.974	6183
1855.097	6300
1857.217	6175
1859.336	6161
1861.455	6251
1863.576	6239
1865.693	6184
1867.811	6217
1869.926	6289
1872.042	6263
1874.16	6185
1876.275	6309
1878.39	6231
1880.504	6214
1882.618	6324
1884.731	6174
1886.843	6305
1888.956	6272
1891.067	6203
1893.178	6199
1895.287	6320
1897.399	6247
1899.508	6304
1901.617	6231
1903.724	6180
1905.832	6274
1907.941	6285
1910.046	6269
1912.152	6334
1914.256	6334
1916.361	6295
1918.464	6379
1920.57	6345
1922.672	6327
1924.775	6282
1926.876	6335
1928.978	6255
1931.08	6312
1933.181	6377
1935.28	6245
1937.38	6353
1939.478	6262
1941.577	6298
1943.675	6311
1945.771	6277
1947.867	6296
1949.964	6237
1952.058	6312
1954.154	6298
1956.248	6249
1958.343	6320
1960.435	6247
1962.527	6317
1964.62	6195
1966.711	6453
1968.802	6393
1970.892	6371
1972.983	6311
1975.072	6375
1977.162	6266
1979.25	6308
1981.337	6232
1983.424	6175
1985.51	6239
1987.598	6276
1989.683	6249
1991.768	6293
1993.852	6311
1995.934	6271
1998.019	6228
2000.102	6215
2002.184	6175
2004.266	6261
2006.347	6208
2008.427	6226
2010.508	6177
2012.587	6229
2014.666	6241
2016.745	6216
2018.821	6187
2020.9	6292
2022.977	6216
2025.052	6192
2027.128	6180
2029.204	6179
2031.277	6153
2033.353	6178
2035.425	6205
2037.499	6201
2039.57	6284
2041.642	6358
2043.714	6242
2045.786	6221
2047.855	6163
2049.925	6188
2051.993	6191
2054.064	6347
2056.132	6186
2058.2	6203
2060.266	6250
2062.332	6214
2064.398	6189
2066.465	6252
2068.529	6191
2070.592	6205
2072.657	6132
2074.719	6207
2076.783	6129
2078.845	6245
2080.907	6262
2082.968	6272
2085.028	6268
2087.087	6278
2089.148	6264
2091.207	6265
2093.264	6155
2095.322	6207
2097.379	6344
2099.439	6267
2101.495	6190
2103.55	6329
2105.605	6110
2107.658	6202
2109.713	6208
2111.767	6257
2113.82	6266
2115.872	6356
2117.924	6374
2119.975	6229
2122.028	6114
2124.078	6274
2126.126	6204
2128.176	6279
2130.225	6240
2132.275	6262
2134.321	6283
2136.368	6073
2138.415	6164
2140.461	6220
2142.505	6176
2144.552	6203
2146.597	6198
2148.64	6224
2150.684	6148
2152.725	6255
2154.77	6191
2156.811	6071
2158.852	6125
2160.894	6158
2162.933	6147
2164.973	6237
2167.013	6226
2169.051	6213
2171.089	6169
2173.126	6141
2175.164	6165
2177.201	6056
2179.236	6117
2181.273	6063
2183.307	5967
2185.341	6126
2187.377	6031
2189.41	6147
2191.442	6172
2193.473	6047
2195.506	6114
2197.539	6254
2199.569	6103
2201.598	6025
2203.628	6081
2205.656	6095
2207.686	6025
2209.716	6022
2211.743	5914
2213.769	5959
2215.796	5912
2217.821	6020
2219.848	6120
2221.873	6076
2223.897	5996
2225.921	5986
2227.944	6128
2229.967	6098
2231.991	5974
2234.011	6067
2236.032	6159
2238.053	5973
2240.073	5961
2242.094	6132
2244.114	6052
2246.131	5898
2248.149	6050
2250.167	5942
2252.186	6002
2254.201	5994
2256.218	6011
2258.233	6095
2260.247	5968
2262.262	6007
2264.278	6104
2266.29	6074
2268.303	6066
2270.315	6044
2272.327	6088
2274.341	6018
2276.35	6122
2278.361	5973
2280.37	5977
2282.38	6028
2284.388	6112
2286.397	6086
2288.405	6072
2290.412	6006
2292.419	6003
2294.425	5968
2296.431	5975
2298.437	5957
2300.441	5935
2302.445	6027
2304.449	5963
2306.453	6049
2308.455	5977
2310.457	5936
2312.459	6014
2314.46	5901
2316.46	5946
2318.461	6047
2320.46	6018
2322.458	5941
2324.458	5904
2326.456	5898
2328.455	5954
2330.451	5945
2332.447	5891
2334.443	5866
2336.438	5912
2338.433	5882
2340.429	5937
2342.422	5944
2344.416	5916
2346.408	5897
2348.399	5857
2350.393	5811
2352.384	5906
2354.375	5935
2356.365	5939
2358.355	5918
2360.344	5923
2362.333	5851
2364.322	5869
2366.309	5841
2368.295	5864
2370.282	5772
2372.27	5944
2374.256	5908
2376.24	5865
2378.225	5834
2380.208	5946
2382.194	5957
2384.177	5886
2386.159	5840
2388.142	5913
2390.122	5697
2392.105	5904
2394.085	5853
2396.066	5801
2398.044	5690
2400.024	5848
2402.002	5752
2403.982	5666
2405.959	5860
2407.935	5859
2409.913	5782
2411.888	5713
2413.865	5699
2415.84	5769
2417.814	5878
2419.788	5785
2421.762	5830
2423.735	5724
2425.708	5759
2427.68	5856
2429.651	5755
2431.623	5807
2433.593	5774
2435.564	5811
2437.533	5782
2439.502	5875
2441.47	5794
2443.438	5820
2445.406	5804
2447.373	5805
2449.34	5829
2451.305	5818
2453.271	5811
2455.235	5726
2457.201	5771
2459.165	5773
2461.129	5732
2463.092	5710
2465.054	5761
2467.018	5673
2468.978	5791
2470.939	5739
2472.899	5721
2474.86	5801
2476.819	5714
2478.778	5774
2480.737	5758
2482.695	5758
2484.653	5762
2486.609	5682
2488.567	5757
2490.524	5655
2492.478	5585
2494.433	5845
2496.387	5701
2498.343	5787
2500.297	5730
2502.249	5677
2504.202	5626
2506.153	5602
2508.105	5580
2510.057	5598
2512.008	5746
2513.957	5622
2515.906	5702
2517.855	5704
2519.805	5697
2521.754	5646
2523.7	5665
2525.647	5692
2527.594	5644
2529.54	5617
2531.486	5682
2533.431	5598
2535.376	5760
2537.32	5631
2539.263	5638
2541.207	5624
2543.151	5675
2545.093	5648
2547.034	5742
2548.975	5643
2550.917	5681
2552.856	5708
2554.796	5633
2556.735	5638
2558.673	5750
2560.611	5646
2562.55	5614
2564.487	5624
2566.424	5697
2568.36	5625
2570.296	5630
2572.232	5603
2574.167	5706
2576.101	5570
2578.035	5630
2579.969	5760
2581.902	5664
2583.834	5687
2585.766	5711
2587.698	5673
2589.628	5673
2591.557	5664
2593.489	5685
2595.419	5653
2597.348	5596
2599.275	5691
2601.204	5625
2603.131	5620
2605.059	5672
2606.986	5714
2608.911	5589
2610.837	5579
2612.76	5687
2614.687	5607
2616.61	5674
2618.534	5663
2620.457	5645
2622.38	5662
2624.302	5732
2626.225	5607
2628.145	5734
2630.067	5641
2631.986	5565
2633.906	5669
2635.827	5566
2637.745	5588
2639.662	5622
2641.581	5738
2643.498	5614
2645.415	5711
2647.331	5609
2649.248	5709
2651.163	5660
2653.077	5675
2654.993	5638
2656.906	5538
2658.821	5703
2660.733	5568
2662.646	5631
2664.557	5568
2666.47	5665
2668.381	5641
2670.291	5670
2672.201	5582
2674.11	5634
2676.021	5733
2677.929	5570
2679.837	5577
2681.745	5614
2683.652	5619
2685.56	5610
2687.466	5597
2689.371	5581
2691.276	5599
2693.181	5587
2695.085	5490
2696.991	5707
2698.893	5552
2700.796	5585
2702.698	5615
2704.601	5586
2706.502	5600
2708.404	5544
2710.304	5553
2712.203	5556
2714.103	5625
2716.003	5587
2717.902	5513
2719.8	5496
2721.697	5531
2723.594	5516
2725.49	5496
2727.389	5477
2729.283	5473
2731.179	5506
2733.073	5513
2734.968	5560
2736.863	5620
2738.757	5452
2740.649	5651
2742.541	5394
2744.433	5461
2746.324	5525
2748.216	5501
2750.107	5502
2751.997	5405
2753.886	5521
2755.776	5522
2757.666	5456
2759.553	5492
2761.44	5460
2763.327	5441
2765.215	5552
2767.102	5407
2768.988	5425
2770.873	5541
2772.757	5446
2774.641	5519
2776.525	5532
2778.41	5505
2780.292	5425
2782.175	5505
2784.057	5515
2785.938	5353
2787.821	5373
2789.701	5451
2791.581	5528
2793.461	5428
2795.34	5449
2797.219	5429
2799.099	5429
2800.975	5393
2802.853	5439
2804.73	5436
2806.606	5398
2808.484	5396
2810.358	5428
2812.233	5429
2814.108	5412
2815.981	5451
2817.857	5369
2819.73	5430
2821.602	5508
2823.474	5343
2825.346	5412
2827.217	5467
2829.089	5492
2830.959	5416
2832.829	5405
2834.698	5337
2836.567	5462
2838.436	5395
2840.305	5370
2842.172	5461
2844.04	5402
2845.905	5482
2847.772	5437
2849.639	5391
2851.503	5483
2853.369	5470
2855.232	5498
2857.096	5531
2858.961	5457
2860.824	5593
2862.686	5535
2864.547	5644
2866.41	5607
2868.272	5637
2870.132	5713
2871.992	5710
2873.851	5773
2875.711	5922
2877.57	5918
2879.429	5947
2881.287	6057
2883.144	5956
2885.001	6034
2886.857	6063
2888.714	5990
2890.57	6011
2892.425	5953
2894.279	5993
2896.133	6001
2897.987	5993
2899.842	5978
2901.694	5895
2903.547	5956
2905.397	5937
2907.249	5956
2909.101	6092
2910.952	6058
2912.802	6041
2914.652	6068
2916.5	6181
2918.35	6123
2920.198	6288
2922.045	6220
2923.893	6484
2925.74	6448
2927.585	6419
2929.433	6573
2931.279	6653
2933.123	6769
2934.968	6697
2936.811	6841
2938.656	6932
2940.5	6878
2942.342	7069
2944.185	6935
2946.026	7028
2947.87	6957
2949.71	7034
2951.549	6912
2953.39	6850
2955.229	6781
2957.069	6744
2958.908	6618
2960.746	6606
2962.584	6393
2964.421	6415
2966.257	6462
2968.094	6267
2969.931	6388
2971.766	6294
2973.601	6294
2975.435	6182
2977.27	6171
2979.105	6165
2980.938	6153
2982.77	6050
2984.602	6029
2986.434	6004
2988.267	6087
2990.097	5897
2991.927	6037
2993.757	5916
2995.587	5907
2997.417	5897
2999.246	5830
3001.074	5718
3002.902	5656
3004.729	5604
3006.556	5711
3008.384	5474
3010.21	5404
3012.036	5504
3013.861	5415
3015.684	5416
3017.51	5333
3019.334	5250
3021.157	5264
3022.981	5399
3024.802	5355
3026.624	5145
3028.448	5138
3030.267	5212
3032.088	5171
3033.909	5123
3035.728	5158
3037.549	5101
3039.368	5209
3041.186	5289
3043.004	5132
3044.821	5188
3046.64	5167
3048.455	5192
3050.272	5113
3052.087	5175
3053.903	5175
3055.717	5167
3057.534	5103
3059.347	5153
3061.16	5083
3062.974	5070
3064.785	5101
3066.598	5080
3068.411	5136
3070.222	5125
3072.032	5058
3073.844	5013
3075.653	5026
3077.463	4985
3079.272	4970
3081.08	5013
3082.889	5064
3084.697	5036
3086.505	5083
3088.312	4956
3090.118	4951
3091.924	5031
3093.729	4953
3095.535	4951
3097.34	4955
3099.144	4933
3100.947	4931
3102.75	4947
3104.553	4907
3106.357	4946
3108.159	4845
3109.961	4972
3111.762	4937
3113.562	4884
3115.365	4911
3117.164	4906
3118.964	4980
3120.761	4875
3122.56	4932
3124.36	4904
3126.158	4802
3127.954	4813
3129.75	4824
3131.547	4867
3133.343	4846
3135.139	4813
3136.934	4878
3138.729	4859
3140.522	4800
3142.317	4842
3144.11	4815
3145.904	4825
3147.695	4839
3149.488	4888
3151.28	4823
3153.07	4849
3154.863	4827
3156.652	4749
3158.441	4833
3160.231	4854
3162.019	4814
3163.81	4775
3165.597	4727
3167.384	4776
3169.172	4781
3170.958	4732
3172.745	4808
3174.532	4744
3176.317	4714
3178.101	4692
3179.885	4838
3181.67	4802
3183.455	4810
3185.238	4734
3187.02	4665
3188.802	4727
3190.585	4856
3192.368	4782
3194.149	4713
3195.929	4854
3197.709	4671
3199.489	4716
3201.268	4670
3203.048	4679
3204.826	4665
3206.604	4722
3208.382	4781
3210.159	4742
3211.937	4773
3213.713	4742
3215.489	4858
3217.263	4773
3219.038	4739
3220.815	4766
3222.589	4661
3224.363	4696
3226.136	4715
3227.908	4731
3229.681	4754
3231.454	4726
3233.226	4776
3234.996	4750
3236.767	4804
3238.538	4678
3240.308	4744
3242.078	4689
3243.847	4686
3245.615	4742
3247.384	4712
3249.15	4704
3250.92	4730
3252.686	4793
3254.453	4719
3256.218	4832
3257.984	4685
3259.75	4746
3261.515	4718
3263.279	4661
3265.044	4715
3266.806	4767
3268.57	4749
3270.334	4743
3272.095	4771
3273.856	4709
3275.619	4765
3277.379	4775
3279.14	4845
3280.9	4734
3282.661	4738
3284.419	4762
3286.178	4854
3287.937	4748
3289.695	4722
3291.453	4760
3293.21	4838
3294.967	4741
3296.723	4705
3298.48	4717
3300.235	4757
3301.99	4727
3303.744	4772
3305.498	4724
3307.253	4778
3309.006	4779
3310.759	4761
3312.511	4789
3314.263	4767
3316.017	4663
3317.768	4719
3319.519	4807
3321.268	4758
3323.018	4762
3324.767	4793
3326.518	4731
3328.267	4696
3330.014	4835
3331.762	4683
3333.509	4796
3335.258	4735
3337.003	4716
3338.75	4673
3340.496	4680
3342.24	4770
3343.987	4731
3345.732	4672
3347.475	4657
3349.219	4765
3350.961	4690
3352.705	4706
3354.448	4718
3356.19	4601
3357.931	4614
3359.672	4659
3361.412	4627
3363.155	4647
3364.894	4628
3366.633	4635
3368.372	4699
3370.11	4666
3371.849	4568
3373.588	4565
3375.325	4655
3377.061	4549
3378.799	4695
3380.534	4577
3382.271	4636
3384.006	4476
3385.741	4544
3387.475	4530
3389.209	4701
3390.944	4633
3392.677	4564
3394.409	4564
3396.143	4496
3397.874	4569
3399.606	4553
3401.338	4552
3403.069	4545
3404.799	4580
3406.528	4509
3408.258	4547
3409.988	4573
3411.717	4577
3413.445	4504
3415.173	4596
3416.899	4495
3418.626	4518
3420.354	4507
3422.08	4607
3423.806	4370
3425.531	4554
3427.255	4480
3428.981	4402
3430.705	4539
3432.429	4474
3434.151	4528
3435.875	4375
3437.599	4519
3439.321	4479
3441.042	4413
3442.763	4446
3444.483	4463
3446.204	4333
3447.926	4507
3449.645	4328
3451.364	4390
3453.082	4309
3454.801	4414
3456.52	4460
3458.238	4434
3459.954	4463
3461.671	4336
3463.387	4331
3465.104	4384
3466.82	4329
3468.534	4375
3470.25	4375
3471.963	4371
3473.676	4292
3475.392	4339
3477.104	4313
3478.817	4291
3480.528	4311
3482.241	4227
3483.954	4318
3485.664	4314
3487.374	4291
3489.084	4238
3490.795	4249
3492.504	4255
3494.214	4283
3495.922	4204
3497.63	4326
3499.338	4207
3501.045	4220
3502.753	4185
3504.459	4289
3506.166	4211
3507.871	4115
3509.576	4039
3511.283	4156
3512.987	4280
3514.691	4218
3516.395	4191
3518.098	4159
3519.8	4168
3521.504	4194
3523.206	4155
3524.908	4214
3526.609	4170
3528.309	4177
3530.011	4097
3531.711	4096
3533.411	4060
3535.109	4105
3536.808	4114
3538.507	4113
3540.206	4175
3541.904	4102
3543.601	4161
3545.297	4092
3546.994	4055
3548.69	4077
3550.387	4100
3552.081	4093
3553.776	4058
3555.47	4000
3557.166	4115
3558.859	4005
3560.553	4052
3562.245	4063
3563.938	4000
3565.629	4002
3567.322	4099
3569.014	4028
3570.704	3951
3572.394	3970
3574.084	3965
3575.775	3990
3577.464	4040
3579.152	3966
3580.842	3945
3582.529	4040
3584.216	4004
3585.905	4051
3587.591	3962
3589.279	3949
3590.964	3952
3592.649	3877
3594.336	3977
3596.021	3984
3597.705	3953
3599.388	3944
3601.072	3863
3602.757	3913
3604.439	3847
3606.122	3907
3607.803	3872
3609.485	3846
3611.167	3794
3612.849	3834
3614.529	3863
3616.208	3840
3617.888	3767
3619.567	3851
3621.247	3838
3622.926	3872
3624.603	3828
3626.281	3854
3627.958	3837
3629.635	3823
3631.312	3837
3632.989	3820
3634.665	3864
3636.339	3724
3638.014	3692
3639.691	3747
3641.364	3833
3643.038	3759
3644.71	3774
3646.384	3752
3648.058	3740
3649.729	3798
3651.402	3728
3653.073	3672
3654.744	3726
3656.414	3772
3658.085	3675
3659.755	3775
3661.424	3753
3663.094	3730
3664.762	3726
3666.431	3737
3668.099	3715
3669.766	3652
3671.433	3686
3673.099	3622
3674.768	3742
3676.433	3735
3678.098	3635
3679.763	3630
3681.428	3624
3683.093	3651
3684.757	3613
3686.421	3711
3688.083	3557
3689.746	3567
3691.408	3660
3693.071	3623
3694.733	3612
3696.394	3677
3698.054	3661
3699.715	3699
3701.375	3600
3703.036	3618
3704.695	3582
3706.354	3714
3708.012	3634
3709.67	3607
3711.329	3590
3712.987	3550
3714.644	3609
3716.299	3564
3717.955	3623
3719.613	3616
3721.268	3566
3722.923	3570
3724.577	3646
3726.231	3613
3727.885	3649
3729.539	3560
3731.192	3514
3732.845	3550
3734.497	3573
3736.149	3561
3737.802	3557
3739.453	3574
3741.104	3599
3742.753	3568
3744.404	3551
3746.052	3555
3747.704	3564
3749.352	3510
3751	3587
3752.648	3486
3754.296	3538
3755.944	3564
3757.59	3503
3759.238	3453
3760.883	3544
3762.528	3473
3764.176	3562
3765.82	3541
3767.464	3544
3769.109	3469
3770.753	3519
3772.396	3446
3774.04	3469
3775.683	3384
3777.325	3531
3778.967	3456
3780.608	3458
3782.25	3432
3783.89	3494
3785.531	3464
3787.17	3405
3788.81	3416
3790.45	3482
3792.09	3432
3793.729	3362
3795.366	3476
3797.003	3463
3798.64	3428
3800.278	3454
3801.915	3450
3803.551	3408
3805.187	3354
3806.822	3360
3808.458	3467
3810.093	3409
3811.726	3395
3813.36	3482
3814.994	3307
3816.627	3433
3818.262	3446
3819.893	3371
3821.525	3335
3823.157	3425
3824.787	3319
3826.42	3326
3828.051	3373
3829.68	3369
3831.31	3341
3832.938	3359
3834.569	3343
3836.198	3379
3837.825	3365
3839.454	3392
3841.08	3356
3842.708	3342
3844.335	3370
3845.962	3347
3847.587	3319
3849.212	3257
3850.838	3283
3852.463	3281
3854.089	3329
3855.712	3269
3857.335	3225
3858.959	3323
3860.582	3277
3862.205	3228
3863.827	3306
3865.449	3261
3867.07	3344
3868.691	3244
3870.312	3239
3871.933	3323
3873.553	3268
3875.173	3212
3876.792	3247
3878.411	3326
3880.03	3344
3881.647	3238
3883.265	3236
3884.882	3256
3886.499	3214
3888.116	3372
3889.732	3207
3891.348	3163
3892.964	3258
3894.579	3327
3896.195	3219
3897.809	3210
3899.423	3258
3901.036	3242
3902.648	3310
3904.261	3224
3905.875	3225
3907.487	3234
3909.099	3272
3910.709	3132
3912.321	3156
3913.933	3310
3915.542	3239
3917.152	3208
3918.762	3217
3920.37	3275
3921.98	3256
3923.589	3274
3925.196	3153
3926.804	3246
3928.41	3206
3930.018	3200
3931.626	3198
3933.231	3124
3934.838	3170
3936.442	3199
3938.046	3202
3939.653	3247
3941.257	3148
3942.861	3175
3944.464	3136
3946.068	3165
3947.67	3147
3949.273	3075
3950.876	3221
3952.477	3110
3954.078	3155
3955.678	3237
3957.281	3193
3958.881	3106
3960.48	3154
3962.079	3129
3963.678	3068
3965.279	3089
3966.877	3145
3968.475	3193
3970.072	3086
3971.669	3092
3973.266	3110
3974.864	3134
3976.459	3159
3978.055	3100
3979.65	3129
3981.245	3093
3982.841	3073
3984.436	3067
3986.03	3101
3987.623	3134
3989.216	3136
3990.809	3034
3992.403	3022
3993.995	3049
3995.586	3074
3997.177	3053
3998.768	3101
4000.361	3037
4001.951	3024
4003.54	3019
4005.13	3067
4006.719	2983
4008.31	3067
4009.897	3072
4011.485	3003
4013.073	2975
4014.66	3005
4016.247	3008
4017.834	2956
4019.421	3053
4021.006	3066
4022.592	3024
4024.178	3020
4025.763	2976
4027.348	3009
4028.932	2970
4030.515	2938
4032.099	3028
4033.682	2967
4035.266	3003
4036.847	2920
4038.429	2937
4040.011	2970
4041.592	2835
4043.173	3004
4044.755	2931
4046.334	2926
4047.913	2925
4049.494	2944
4051.074	2945
4052.652	2952
4054.23	2925
4055.807	2915
4057.385	2903
4058.963	2896
4060.541	2891
4062.117	2929
4063.693	2953
4065.269	2893
4066.844	2924
4068.42	2899
4069.995	2961
4071.569	2907
4073.143	2920
4074.716	2896
4076.291	2843
4077.864	2863
4079.436	2854
4081.009	2878
4082.58	2910
4084.152	2896
4085.723	2861
4087.294	2817
4088.865	2871
4090.435	2819
4092.005	2870
4093.574	2823
4095.143	2868
4096.712	2921
4098.279	2812
4099.848	2922
4101.416	2913
4102.984	2909
4104.55	2854
4106.117	2842
4107.682	2839
4109.248	2776
4110.815	2873
4112.379	2818
4113.945	2829
4115.508	2858
4117.073	2795
4118.637	2866
4120.201	2831
4121.763	2805
4123.325	2817
4124.888	2804
4126.449	2789
4128.013	2803
4129.573	2869
4131.133	2782
4132.694	2818
4134.254	2782
4135.814	2782
4137.374	2763
4138.933	2763
4140.491	2823
4142.049	2812
4143.607	2763
4145.167	2750
4146.724	2810
4148.28	2769
4149.836	2726
4151.392	2783
4152.949	2718
4154.504	2753
4156.059	2766
4157.614	2751
4159.168	2728
4160.723	2690
4162.277	2733
4163.83	2755
4165.383	2736
4166.936	2703
4168.488	2683
4170.041	2721
4171.593	2716
4173.144	2618
4174.695	2745
4176.246	2706
4177.796	2684
4179.346	2648
4180.896	2689
4182.445	2684
4183.994	2744
4185.542	2694
4187.091	2675
4188.639	2701
4190.185	2689
4191.732	2668
4193.279	2665
4194.826	2713
4196.373	2613
4197.918	2656
4199.463	2591
4201.008	2695
4202.553	2608
4204.098	2640
4205.641	2683
4207.185	2647
4208.728	2652
4210.271	2702
4211.814	2630
4213.357	2614
4214.898	2655
4216.439	2618
4217.98	2584
4219.522	2543
4221.062	2687
4222.603	2629
4224.142	2602
4225.681	2638
4227.222	2624
4228.76	2574
4230.298	2638
4231.835	2625
4233.373	2624
4234.911	2587
4236.449	2644
4237.985	2579
4239.521	2580
4241.057	2585
4242.592	2641
4244.128	2570
4245.663	2563
4247.197	2549
4248.731	2545
4250.265	2575
4251.798	2641
4253.333	2624
4254.865	2585
4256.397	2620
4257.93	2577
4259.461	2506
4260.994	2443
4262.525	2524
4264.056	2520
4265.586	2561
4267.115	2525
4268.646	2585
4270.176	2560
4271.705	2541
4273.232	2568
4274.761	2493
4276.289	2546
4277.818	2553
4279.345	2558
4280.872	2549
4282.399	2520
4283.924	2467
4285.452	2570
4286.976	2484
4288.502	2465
4290.026	2564
4291.551	2530
4293.074	2538
4294.6	2563
4296.123	2485
4297.646	2469
4299.168	2490
4300.691	2468
4302.214	2489
4303.736	2588
4305.257	2511
4306.778	2519
4308.299	2429
4309.82	2515
4311.34	2474
4312.86	2538
4314.379	2517
