400.0745	3801
402.597	3892
405.1208	3880
407.6419	3853
410.1623	3844
412.6819	3924
415.201	3953
417.7172	3976
420.2369	3837
422.7538	4030
425.2701	3934
427.7856	4055
430.3005	4064
432.8147	4101
435.3282	4101
437.841	4122
440.3511	4036
442.8625	4092
445.3753	4114
447.8854	4069
450.3927	4064
452.9014	4112
455.4073	4020
457.9146	4117
460.4233	4204
462.9272	4095
465.4325	4095
467.935	4085
470.4389	4089
472.9421	4086
475.4446	4136
477.9444	4098
480.4456	4100
482.944	4179
485.4417	4142
487.9429	4183
490.4393	4160
492.935	4208
495.4321	4248
497.9264	4216
500.4221	4241
502.9171	4232
505.4094	4334
507.9011	4343
510.392	4224
512.8864	4322
515.3759	4226
517.8649	4420
520.3531	4285
522.8406	4307
525.3275	4283
527.8178	4259
530.3033	4246
532.7881	4221
535.2723	4311
537.7558	4197
540.2407	4229
542.7228	4317
545.2043	4310
547.6851	4321
550.1652	4409
552.6467	4276
555.1255	4299
557.6016	4329
560.079	4404
562.5557	4336
565.0318	4416
567.5092	4410
569.984	4303
572.456	4367
574.9294	4516
577.4022	4431
579.8762	4417
582.3456	4444
584.8163	4407
587.2863	4508
589.7557	4410
592.2224	4512
594.6924	4458
597.1578	4530
599.6245	4433
602.0905	4438
604.5538	4451
607.0206	4397
609.4825	4441
611.9459	4498
614.4066	4499
616.8686	4404
619.33	4441
621.7906	4358
624.2487	4412
626.708	4467
629.1647	4395
631.6207	4463
634.0801	4510
636.5348	4421
638.9888	4464
641.4442	4493
643.8969	4375
646.3509	4406
648.8022	4499
651.255	4438
653.705	4463
656.1544	4493
658.6031	4450
661.0532	4498
663.5026	4582
665.9493	4572
668.3954	4504
670.8409	4608
673.2877	4633
675.7318	4660
678.1752	4562
680.618	4565
683.0601	4539
685.5035	4674
687.9444	4662
690.3845	4559
692.824	4670
695.2628	4638
697.701	4632
700.1406	4653
702.5774	4595
705.0116	4559
707.4472	4677
709.8821	4644
712.3183	4629
714.7519	4707
717.1829	4607
719.6151	4654
722.0468	4782
724.4777	4743
726.908	4731
729.3377	4786
731.7667	4715
734.1931	4722
736.6208	4828
739.0498	4860
741.4742	4796
743.9	4816
746.3231	4777
748.7476	4887
751.1713	4850
753.5945	4874
756.015	4897
758.4368	4913
760.856	4870
763.2766	4813
765.6965	4953
768.1157	4979
770.5323	4849
772.9483	4960
775.3656	4981
777.7822	4875
780.1963	4919
782.6116	4994
785.0244	4918
787.4365	4955
789.8499	5007
792.2626	4917
794.6728	4985
797.0823	4987
799.4911	4907
801.8994	4983
804.3109	5019
806.7178	5110
809.124	4874
811.5297	5019
813.9347	4977
816.341	5149
818.7447	4977
821.1478	5071
823.5502	5072
825.952	4995
828.3531	5048
830.7556	5095
833.1554	5073
835.5546	5060
837.9532	5019
840.3511	5082
842.7504	5032
845.1451	5034
847.5411	5100
849.9365	5111
852.3312	5151
854.7272	5115
857.1187	5145
859.5115	5162
861.9037	5015
864.2952	5043
866.6842	5128
869.0764	5010
871.4661	5114
873.8531	5034
876.2415	5193
878.6272	5032
881.0162	5128
883.4026	5086
885.7866	5194
888.1717	5077
890.5543	5088
892.9382	5027
895.3215	5099
897.7041	5117
900.0842	5025
902.4655	5198
904.8443	5012
907.2244	5148
909.6039	5145
911.9808	5221
914.357	5274
916.7346	5274
919.1115	5231
921.4859	5321
923.8616	5225
926.2347	5317
928.6071	5324
930.979	5237
933.3541	5282
935.7247	5458
938.0946	5260
940.4639	5397
942.8326	5487
945.2026	5614
947.5701	5478
949.9369	5638
952.305	5874
954.6705	5843
957.0355	6081
959.4017	6178
961.7654	6309
964.1284	6228
966.4908	6111
968.8527	5979
971.2138	5783
973.5743	5670
975.9343	5525
978.2936	5412
980.6522	5447
983.0122	5392
985.3696	5279
987.7245	5277
990.0807	5294
992.4362	5210
994.7911	5240
997.1474	5203
999.4991	5341
1001.852	5275
1004.205	5376
1006.555	5287
1008.908	5296
1011.258	5271
1013.606	5315
1015.956	5308
1018.302	5271
1020.652	5223
1022.998	5412
1025.345	5336
1027.691	5324
1030.035	5325
1032.378	5304
1034.724	5369
1037.066	5314
1039.409	5441
1041.75	5402
1044.092	5316
1046.433	5359
1048.771	5417
1051.112	5379
1053.449	5381
1055.786	5385
1058.124	5403
1060.462	5526
1062.797	5494
1065.131	5353
1067.467	5430
1069.8	5446
1072.135	5508
1074.467	5424
1076.798	5410
1079.129	5496
1081.459	5356
1083.792	5419
1086.121	5520
1088.449	5291
1090.777	5398
1093.104	5469
1095.431	5382
1097.759	5368
1100.084	5388
1102.408	5442
1104.732	5393
1107.056	5487
1109.379	5340
1111.701	5505
1114.022	5382
1116.343	5425
1118.664	5449
1120.983	5464
1123.303	5439
1125.621	5279
1127.939	5436
1130.256	5390
1132.573	5474
1134.889	5520
1137.205	5474
1139.52	5396
1141.832	5418
1144.146	5398
1146.461	5315
1148.771	5346
1151.083	5368
1153.392	5425
1155.703	5395
1158.011	5505
1160.323	5374
1162.629	5603
1164.938	5418
1167.243	5399
1169.55	5456
1171.857	5462
1174.163	5421
1176.466	5552
1178.769	5480
1181.073	5409
1183.374	5441
1185.677	5452
1187.979	5463
1190.279	5345
1192.578	5407
1194.878	5368
1197.178	5441
1199.476	5477
1201.772	5420
1204.068	5465
1206.366	5366
1208.663	5486
1210.957	5473
1213.251	5450
1215.544	5471
1217.836	5329
1220.128	5530
1222.421	5429
1224.712	5526
1227.002	5504
1229.292	5572
1231.581	5494
1233.871	5607
1236.159	5525
1238.446	5616
1240.732	5612
1243.018	5585
1245.304	5569
1247.59	5654
1249.874	5668
1252.156	5693
1254.439	5584
1256.721	5574
1259.005	5741
1261.286	5669
1263.565	5539
1265.845	5621
1268.125	5553
1270.403	5684
1272.682	5639
1274.959	5563
1277.234	5699
1279.511	5529
1281.787	5557
1284.062	5484
1286.337	5536
1288.609	5473
1290.882	5504
1293.153	5651
1295.428	5555
1297.698	5622
1299.969	5564
1302.237	5563
1304.507	5535
1306.777	5488
1309.044	5505
1311.312	5521
1313.578	5588
1315.844	5598
1318.109	5579
1320.375	5603
1322.638	5526
1324.903	5506
1327.165	5559
1329.427	5529
1331.69	5546
1333.952	5516
1336.212	5518
1338.471	5639
1340.73	5595
1342.988	5482
1345.248	5468
1347.505	5506
1349.763	5606
1352.019	5523
1354.274	5476
1356.53	5641
1358.784	5603
1361.038	5475
1363.291	5498
1365.543	5590
1367.797	5511
1370.048	5522
1372.296	5542
1374.546	5611
1376.796	5524
1379.045	5556
1381.295	5554
1383.542	5584
1385.787	5746
1388.034	5512
1390.28	5643
1392.527	5642
1394.772	5654
1397.014	5600
1399.258	5551
1401.501	5757
1403.741	5599
1405.985	5577
1408.226	5704
1410.465	5607
1412.705	5617
1414.943	5594
1417.184	5647
1419.42	5757
1421.658	5789
1423.894	5709
1426.13	5666
1428.366	5691
1430.602	5639
1432.835	5733
1435.069	5682
1437.301	5769
1439.535	5766
1441.767	5788
1443.997	5716
1446.229	5742
1448.458	5816
1450.687	5813
1452.916	5783
1455.146	5785
1457.372	5773
1459.599	5769
1461.824	5766
1464.051	5766
1466.277	5730
1468.501	5740
1470.725	5631
1472.948	5715
1475.17	5686
1477.393	5669
1479.614	5628
1481.837	5655
1484.057	5582
1486.276	5690
1488.497	5669
1490.715	5586
1492.932	5534
1495.148	5533
1497.364	5432
1499.58	5531
1501.798	5585
1504.012	5600
1506.227	5557
1508.44	5532
1510.653	5499
1512.866	5541
1515.078	5584
1517.289	5523
1519.5	5409
1521.711	5506
1523.92	5568
1526.13	5500
1528.338	5600
1530.544	5517
1532.752	5607
1534.959	5451
1537.165	5428
1539.371	5575
1541.574	5606
1543.779	5591
1545.983	5567
1548.187	5624
1550.39	5521
1552.59	5612
1554.792	5629
1556.991	5650
1559.19	5583
1561.392	5693
1563.59	5589
1565.789	5598
1567.986	5701
1570.182	5641
1572.381	5741
1574.576	5743
1576.771	5694
1578.966	5634
1581.16	5651
1583.354	5646
1585.546	5715
1587.74	5721
1589.931	5746
1592.121	5817
1594.311	5666
1596.502	5794
1598.693	5706
1600.881	5703
1603.069	5808
1605.256	5632
1607.445	5747
1609.631	5618
1611.816	5735
1614.001	5614
1616.186	5752
1618.37	5702
1620.555	5707
1622.737	5646
1624.919	5775
1627.101	5706
1629.282	5780
1631.463	5746
1633.643	5689
1635.822	5797
1638.001	5815
1640.179	5918
1642.359	5818
1644.534	5757
1646.711	5743
1648.887	5850
1651.062	5849
1653.235	5796
1655.412	5789
1657.586	5821
1659.757	5894
1661.93	5726
1664.1	5829
1666.274	5849
1668.445	5872
1670.614	5876
1672.784	5774
1674.951	5827
1677.12	5835
1679.289	5840
1681.457	5903
1683.622	5736
1685.789	5787
1687.953	5789
1690.121	5830
1692.284	5789
1694.447	5672
1696.611	5794
1698.772	5846
1700.935	5811
1703.098	5787
1705.258	5665
1707.417	5840
1709.576	5636
1711.736	5734
1713.896	5749
1716.053	5699
1718.21	5741
1720.366	5681
1722.522	5683
1724.68	5706
1726.835	5710
1728.989	5592
1731.142	5696
1733.295	5659
1735.449	5775
1737.601	5672
1739.753	5648
1741.903	5759
1744.054	5738
1746.203	5777
1748.354	5681
1750.503	5747
1752.651	5680
1754.798	5741
1756.944	5782
1759.092	5681
1761.238	5632
1763.383	5753
1765.528	5696
1767.672	5816
1769.814	5789
1771.959	5648
1774.102	5801
1776.242	5748
1778.384	5778
1780.525	5664
1782.665	5848
1784.805	5685
1786.945	5766
1789.082	5705
1791.22	5669
1793.36	5854
1795.495	5723
1797.632	5799
1799.766	5706
1801.902	5747
1804.035	5744
1806.172	5663
1808.304	5806
1810.436	5785
1812.569	5638
1814.699	5809
1816.833	5698
1818.963	5743
1821.092	5714
1823.222	5699
1825.35	5811
1827.478	5725
1829.608	5742
1831.734	5766
1833.86	5619
1835.986	5652
1838.11	5728
1840.238	5778
1842.362	5706
1844.485	5772
1846.608	5730
1848.73	5765
1850.853	5706
1852.974	5693
1855.097	5623
1857.217	5670
1859.336	5718
1861.455	5690
1863.576	5779
1865.693	5640
1867.811	5756
1869.926	5605
1872.042	5675
1874.16	5563
1876.275	5632
1878.39	5693
1880.504	5781
1882.618	5714
1884.731	5734
1886.843	5689
1888.956	5615
1891.067	5668
1893.178	5663
1895.287	5665
1897.399	5758
1899.508	5721
1901.617	5702
1903.724	5626
1905.832	5739
1907.941	5583
1910.046	5767
1912.152	5679
1914.256	5692
1916.361	5737
1918.464	5750
1920.57	5742
1922.672	5787
1924.775	5757
1926.876	5788
1928.978	5786
1931.08	5769
1933.181	5794
1935.28	5883
1937.38	5855
1939.478	5740
1941.577	5833
1943.675	5771
1945.771	5758
1947.867	5707
1949.964	5862
1952.058	5796
1954.154	5779
1956.248	5745
1958.343	5850
1960.435	5760
1962.527	5764
1964.62	5739
1966.711	5828
1968.802	5753
1970.892	5804
1972.983	5632
1975.072	5727
1977.162	5828
1979.25	5752
1981.337	5792
1983.424	5724
1985.51	5743
1987.598	5670
1989.683	5713
1991.768	5747
1993.852	5657
1995.934	5713
1998.019	5718
2000.102	5644
2002.184	5633
2004.266	5815
2006.347	5665
2008.427	5699
2010.508	5593
2012.587	5773
2014.666	5655
2016.745	5816
2018.821	5684
2020.9	5725
2022.977	5650
2025.052	5748
2027.128	5667
2029.204	5599
2031.277	5719
2033.353	5659
2035.425	5688
2037.499	5668
2039.57	5688
2041.642	5648
2043.714	5707
2045.786	5714
2047.855	5784
2049.925	5727
2051.993	5727
2054.064	5853
2056.132	5711
2058.2	5720
2060.266	5703
2062.332	5699
2064.398	5614
2066.465	5667
2068.529	5722
2070.592	5617
2072.657	5696
2074.719	5792
2076.783	5707
2078.845	5703
2080.907	5772
2082.968	5686
2085.028	5799
2087.087	5627
2089.148	5635
2091.207	5667
2093.264	5730
2095.322	5768
2097.379	5688
2099.439	5729
2101.495	5646
2103.55	5609
2105.605	5765
2107.658	5672
2109.713	5651
2111.767	5729
2113.82	5756
2115.872	5707
2117.924	5729
2119.975	5705
2122.028	5697
2124.078	5750
2126.126	5698
2128.176	5600
2130.225	5607
2132.275	5697
2134.321	5770
2136.368	5724
2138.415	5743
2140.461	5694
2142.505	5642
2144.552	5748
2146.597	5644
2148.64	5722
2150.684	5680
2152.725	5650
2154.77	5601
2156.811	5621
2158.852	5620
2160.894	5644
2162.933	5722
2164.973	5697
2167.013	5633
2169.051	5685
2171.089	5627
2173.126	5657
2175.164	5523
2177.201	5566
2179.236	5666
2181.273	5601
2183.307	5517
2185.341	5632
2187.377	5565
2189.41	5550
2191.442	5626
2193.473	5698
2195.506	5507
2197.539	5548
2199.569	5556
2201.598	5478
2203.628	5589
2205.656	5674
2207.686	5490
2209.716	5600
2211.743	5498
2213.769	5514
2215.796	5644
2217.821	5509
2219.848	5526
2221.873	5475
2223.897	5539
2225.921	5561
2227.944	5561
2229.967	5590
2231.991	5501
2234.011	5492
2236.032	5569
2238.053	5470
2240.073	5489
2242.094	5544
2244.114	5593
2246.131	5498
2248.149	5537
2250.167	5536
2252.186	5450
2254.201	5625
2256.218	5580
2258.233	5498
2260.247	5474
2262.262	5525
2264.278	5486
2266.29	5448
2268.303	5499
2270.315	5501
2272.327	5387
2274.341	5421
2276.35	5427
2278.361	5510
2280.37	5431
2282.38	5537
2284.388	5496
2286.397	5547
2288.405	5594
2290.412	5509
2292.419	5472
2294.425	5506
2296.431	5514
2298.437	5531
2300.441	5470
2302.445	5516
2304.449	5489
2306.453	5590
2308.455	5500
2310.457	5353
2312.459	5445
2314.46	5417
2316.46	5464
2318.461	5499
2320.46	5410
2322.458	5505
2324.458	5476
2326.456	5334
2328.455	5477
2330.451	5426
2332.447	5424
2334.443	5400
2336.438	5456
2338.433	5381
2340.429	5428
2342.422	5475
2344.416	5404
2346.408	5392
2348.399	5350
2350.393	5521
2352.384	5435
2354.375	5330
2356.365	5392
2358.355	5290
2360.344	5489
2362.333	5400
2364.322	5311
2366.309	5374
2368.295	5362
2370.282	5277
2372.27	5434
2374.256	5373
2376.24	5461
2378.225	5340
2380.208	5366
2382.194	5389
2384.177	5283
2386.159	5370
2388.142	5350
2390.122	5324
2392.105	5367
2394.085	5271
2396.066	5352
2398.044	5361
2400.024	5324
2402.002	5310
2403.982	5311
2405.959	5317
2407.935	5412
2409.913	5400
2411.888	5296
2413.865	5218
2415.84	5257
2417.814	5256
2419.788	5366
2421.762	5310
2423.735	5323
2425.708	5303
2427.68	5326
2429.651	5215
2431.623	5242
2433.593	5314
2435.564	5365
2437.533	5266
2439.502	5228
2441.47	5321
2443.438	5294
2445.406	5242
2447.373	5232
2449.34	5318
2451.305	5209
2453.271	5267
2455.235	5296
2457.201	5307
2459.165	5269
2461.129	5213
2463.092	5251
2465.054	5149
2467.018	5212
2468.978	5289
2470.939	5217
2472.899	5254
2474.86	5245
2476.819	5134
2478.778	5187
2480.737	5277
2482.695	5253
2484.653	5243
2486.609	5183
2488.567	5327
2490.524	5210
2492.478	5274
2494.433	5238
2496.387	5185
2498.343	5114
2500.297	5269
2502.249	5248
2504.202	5135
2506.153	5187
2508.105	5100
2510.057	5245
2512.008	5125
2513.957	5168
2515.906	5219
2517.855	5310
2519.805	5235
2521.754	5150
2523.7	5093
2525.647	5209
2527.594	5206
2529.54	5264
2531.486	5159
2533.431	5275
2535.376	5132
2537.32	5222
2539.263	5210
2541.207	5203
2543.151	5148
2545.093	5186
2547.034	5179
2548.975	5148
2550.917	5110
2552.856	5156
2554.796	5097
2556.735	5094
2558.673	5124
2560.611	5201
2562.55	5092
2564.487	5161
2566.424	5191
2568.36	5112
2570.296	5093
2572.232	5211
2574.167	5244
2576.101	5110
2578.035	5168
2579.969	5193
2581.902	5162
2583.834	5188
2585.766	5232
2587.698	5128
2589.628	5207
2591.557	5089
2593.489	5169
2595.419	5102
2597.348	5223
2599.275	5157
2601.204	5232
2603.131	5093
2605.059	5216
2606.986	5239
2608.911	5196
2610.837	5180
2612.76	5200
2614.687	5168
2616.61	5111
2618.534	5129
2620.457	5128
2622.38	5217
2624.302	5136
2626.225	5107
2628.145	5223
2630.067	5123
2631.986	5149
2633.906	5136
2635.827	5197
2637.745	5212
2639.662	5195
2641.581	5088
2643.498	5172
2645.415	5145
2647.331	5113
2649.248	5260
2651.163	5181
2653.077	5146
2654.993	5205
2656.906	5145
2658.821	5282
2660.733	5121
2662.646	5134
2664.557	5213
2666.47	5197
2668.381	5102
2670.291	5063
2672.201	5066
2674.11	5108
2676.021	5091
2677.929	5119
2679.837	5003
2681.745	5170
2683.652	5058
2685.56	5090
2687.466	5052
2689.371	5108
2691.276	5138
2693.181	5051
2695.085	5074
2696.991	5021
2698.893	5035
2700.796	5016
2702.698	4976
2704.601	4986
2706.502	5025
2708.404	5050
2710.304	4925
2712.203	5123
2714.103	4898
2716.003	5083
2717.902	4963
2719.8	4974
2721.697	5082
2723.594	5014
2725.49	5142
2727.389	5030
2729.283	5080
2731.179	5078
2733.073	5020
2734.968	5096
2736.863	5007
2738.757	5087
2740.649	4968
2742.541	5054
2744.433	5094
2746.324	4964
2748.216	4997
2750.107	5033
2751.997	4967
2753.886	4926
2755.776	4988
2757.666	4915
2759.553	4982
2761.44	4913
2763.327	5105
2765.215	4988
2767.102	4954
2768.988	4974
2770.873	4887
2772.757	4929
2774.641	5003
2776.525	5009
2778.41	4987
2780.292	4902
2782.175	5006
2784.057	5006
2785.938	4954
2787.821	4950
2789.701	4908
2791.581	4923
2793.461	4952
2795.34	4965
2797.219	4909
2799.099	4902
2800.975	4910
2802.853	5035
2804.73	4927
2806.606	4967
2808.484	5005
2810.358	4975
2812.233	4861
2814.108	4832
2815.981	4909
2817.857	4841
2819.73	4903
2821.602	4941
2823.474	4830
2825.346	4843
2827.217	4883
2829.089	4900
2830.959	4961
2832.829	4895
2834.698	4983
2836.567	4936
2838.436	4969
2840.305	4946
2842.172	4883
2844.04	4864
2845.905	4887
2847.772	4892
2849.639	4952
2851.503	4967
2853.369	4814
2855.232	4851
2857.096	4968
2858.961	4926
2860.824	4968
2862.686	4972
2864.547	5045
2866.41	4942
2868.272	5019
2870.132	5002
2871.992	4992
2873.851	4978
2875.711	5188
2877.57	5127
2879.429	5162
2881.287	5074
2883.144	5099
2885.001	5054
2886.857	5113
2888.714	5238
2890.57	5177
2892.425	5099
2894.279	5150
2896.133	5092
2897.987	5104
2899.842	5228
2901.694	5117
2903.547	5183
2905.397	5136
2907.249	5007
2909.101	5161
2910.952	5121
2912.802	5126
2914.652	5135
2916.5	5111
2918.35	5236
2920.198	5301
2922.045	5267
2923.893	5315
2925.74	5316
2927.585	5348
2929.433	5362
2931.279	5524
2933.123	5421
2934.968	5427
2936.811	5512
2938.656	5498
2940.5	5453
2942.342	5572
2944.185	5556
2946.026	5586
2947.87	5506
2949.71	5562
2951.549	5532
2953.39	5561
2955.229	5415
2957.069	5523
2958.908	5362
2960.746	5390
2962.584	5255
2964.421	5333
2966.257	5239
2968.094	5177
2969.931	5281
2971.766	5209
2973.601	5163
2975.435	5216
2977.27	5221
2979.105	5161
2980.938	5096
2982.77	5119
2984.602	5065
2986.434	5161
2988.267	5179
2990.097	5070
2991.927	5043
2993.757	5011
2995.587	5039
2997.417	4967
2999.246	5013
3001.074	4954
3002.902	4956
3004.729	4822
3006.556	4898
3008.384	4744
3010.21	4750
3012.036	4748
3013.861	4853
3015.684	4736
3017.51	4732
3019.334	4590
3021.157	4767
3022.981	4701
3024.802	4656
3026.624	4656
3028.448	4661
3030.267	4609
3032.088	4578
3033.909	4664
3035.728	4621
3037.549	4624
3039.368	4534
3041.186	4585
3043.004	4656
3044.821	4650
3046.64	4649
3048.455	4524
3050.272	4619
3052.087	4500
3053.903	4571
3055.717	4492
3057.534	4600
3059.347	4516
3061.16	4624
3062.974	4640
3064.785	4513
3066.598	4533
3068.411	4637
3070.222	4601
3072.032	4505
3073.844	4540
3075.653	4447
3077.463	4536
3079.272	4533
3081.08	4510
3082.889	4524
3084.697	4485
3086.505	4501
3088.312	4412
3090.118	4490
3091.924	4547
3093.729	4510
3095.535	4438
3097.34	4385
3099.144	4463
3100.947	4368
3102.75	4450
3104.553	4395
3106.357	4400
3108.159	4397
3109.961	4371
3111.762	4368
3113.562	4421
3115.365	4369
3117.164	4419
3118.964	4466
3120.761	4348
3122.56	4382
3124.36	4376
3126.158	4384
3127.954	4313
3129.75	4264
3131.547	4370
3133.343	4330
3135.139	4492
3136.934	4337
3138.729	4284
3140.522	4303
3142.317	4330
3144.11	4327
3145.904	4400
3147.695	4425
3149.488	4387
3151.28	4247
3153.07	4343
3154.863	4338
3156.652	4294
3158.441	4355
3160.231	4314
3162.019	4222
3163.81	4275
3165.597	4311
3167.384	4392
3169.172	4335
3170.958	4251
3172.745	4284
3174.532	4277
3176.317	4258
3178.101	4296
3179.885	4209
3181.67	4286
3183.455	4189
3185.238	4265
3187.02	4262
3188.802	4272
3190.585	4234
3192.368	4243
3194.149	4185
3195.929	4187
3197.709	4291
3199.489	4156
3201.268	4224
3203.048	4158
3204.826	4171
3206.604	4209
3208.382	4233
3210.159	4201
3211.937	4196
3213.713	4173
3215.489	4216
3217.263	4302
3219.038	4212
3220.815	4242
3222.589	4204
3224.363	4225
3226.136	4198
3227.908	4260
3229.681	4231
3231.454	4246
3233.226	4161
3234.996	4144
3236.767	4264
3238.538	4183
3240.308	4293
3242.078	4234
3243.847	4196
3245.615	4178
3247.384	4180
3249.15	4260
3250.92	4092
3252.686	4156
3254.453	4205
3256.218	4229
3257.984	4139
3259.75	4188
3261.515	4193
3263.279	4151
3265.044	4275
3266.806	4116
3268.57	4223
3270.334	4204
3272.095	4197
3273.856	4197
3275.619	4121
3277.379	4209
3279.14	4181
3280.9	4200
3282.661	4172
3284.419	4228
3286.178	4234
3287.937	4118
3289.695	4191
3291.453	4163
3293.21	4096
3294.967	4195
3296.723	4189
3298.48	4235
3300.235	4225
3301.99	4158
3303.744	4109
3305.498	4242
3307.253	4113
3309.006	4053
3310.759	4181
3312.511	4125
3314.263	4110
3316.017	4095
3317.768	4052
3319.519	4093
3321.268	4135
3323.018	4188
3324.767	4150
3326.518	4094
3328.267	4145
3330.014	4162
3331.762	4096
3333.509	4077
3335.258	4092
3337.003	4109
3338.75	4228
3340.496	4115
3342.24	4136
3343.987	4139
3345.732	4121
3347.475	4010
3349.219	4027
3350.961	4071
3352.705	4091
3354.448	4039
3356.19	4119
3357.931	4112
3359.672	4098
3361.412	4079
3363.155	4154
3364.894	4101
3366.633	4046
3368.372	3991
3370.11	4075
3371.849	4008
3373.588	4110
3375.325	4006
3377.061	4021
3378.799	4140
3380.534	4083
3382.271	4023
3384.006	4090
3385.741	4073
3387.475	3998
3389.209	3967
3390.944	4016
3392.677	3939
3394.409	3898
3396.143	4022
3397.874	4102
3399.606	4071
3401.338	3981
3403.069	4016
3404.799	4017
3406.528	4015
3408.258	3942
3409.988	3988
3411.717	3981
3413.445	4015
3415.173	3938
3416.899	3886
3418.626	3971
3420.354	3959
3422.08	3971
3423.806	3938
3425.531	3962
3427.255	3858
3428.981	3877
3430.705	3905
3432.429	3878
3434.151	3930
3435.875	3993
3437.599	3913
3439.321	3911
3441.042	3867
3442.763	3925
3444.483	3903
3446.204	3951
3447.926	3936
3449.645	3835
3451.364	3828
3453.082	3910
3454.801	3796
3456.52	3869
3458.238	3771
3459.954	3928
3461.671	3880
3463.387	3908
3465.104	3808
3466.82	3803
3468.534	3816
3470.25	3828
3471.963	3845
3473.676	3775
3475.392	3821
3477.104	3724
3478.817	3822
3480.528	3795
3482.241	3771
3483.954	3788
3485.664	3794
3487.374	3845
3489.084	3842
3490.795	3644
3492.504	3736
3494.214	3750
3495.922	3770
3497.63	3767
3499.338	3707
3501.045	3770
3502.753	3718
3504.459	3761
3506.166	3670
3507.871	3707
3509.576	3741
3511.283	3726
3512.987	3740
3514.691	3710
3516.395	3795
3518.098	3613
3519.8	3710
3521.504	3636
3523.206	3766
3524.908	3674
3526.609	3691
3528.309	3699
3530.011	3719
3531.711	3757
3533.411	3699
3535.109	3602
3536.808	3595
3538.507	3716
3540.206	3613
3541.904	3625
3543.601	3629
3545.297	3731
3546.994	3619
3548.69	3653
3550.387	3615
3552.081	3660
3553.776	3656
3555.47	3687
3557.166	3661
3558.859	3550
3560.553	3566
3562.245	3570
3563.938	3598
3565.629	3570
3567.322	3624
3569.014	3523
3570.704	3698
3572.394	3616
3574.084	3598
3575.775	3624
3577.464	3599
3579.152	3599
3580.842	3594
3582.529	3591
3584.216	3514
3585.905	3574
3587.591	3548
3589.279	3559
3590.964	3477
3592.649	3568
3594.336	3557
3596.021	3616
3597.705	3527
3599.388	3496
3601.072	3552
3602.757	3546
3604.439	3501
3606.122	3524
3607.803	3411
3609.485	3487
3611.167	3475
3612.849	3372
3614.529	3426
3616.208	3489
3617.888	3490
3619.567	3474
3621.247	3457
3622.926	3376
3624.603	3404
3626.281	3420
3627.958	3424
3629.635	3392
3631.312	3390
3632.989	3381
3634.665	3425
3636.339	3355
3638.014	3366
3639.691	3362
3641.364	3444
3643.038	3517
3644.71	3420
3646.384	3395
3648.058	3394
3649.729	3373
3651.402	3381
3653.073	3344
3654.744	3377
3656.414	3325
3658.085	3346
3659.755	3417
3661.424	3274
3663.094	3368
3664.762	3313
3666.431	3376
3668.099	3338
3669.766	3377
3671.433	3359
3673.099	3368
3674.768	3405
3676.433	3326
3678.098	3334
3679.763	3316
3681.428	3289
3683.093	3300
3684.757	3292
3686.421	3354
3688.083	3277
3689.746	3323
3691.408	3331
3693.071	3267
3694.733	3305
3696.394	3341
3698.054	3264
3699.715	3252
3701.375	3240
3703.036	3298
3704.695	3285
3706.354	3312
3708.012	3305
3709.67	3302
3711.329	3212
3712.987	3294
3714.644	3242
3716.299	3266
3717.955	3303
3719.613	3191
3721.268	3273
3722.923	3246
3724.577	3241
3726.231	3264
3727.885	3202
3729.539	3246
3731.192	3269
3732.845	3239
3734.497	3212
3736.149	3265
3737.802	3213
3739.453	3232
3741.104	3217
3742.753	3223
3744.404	3273
3746.052	3209
3747.704	3250
3749.352	3260
3751	3254
3752.648	3137
3754.296	3225
3755.944	3269
3757.59	3206
3759.238	3210
3760.883	3206
3762.528	3208
3764.176	3256
3765.82	3160
3767.464	3118
3769.109	3205
3770.753	3177
3772.396	3166
3774.04	3094
3775.683	3123
3777.325	3096
3778.967	3099
3780.608	3149
3782.25	3177
3783.89	3143
3785.531	3150
3787.17	3099
3788.81	3095
3790.45	3081
3792.09	3058
3793.729	3075
3795.366	3144
3797.003	3121
3798.64	3079
3800.278	3124
3801.915	3137
3803.551	3080
3805.187	3096
3806.822	3182
3808.458	3100
3810.093	3069
3811.726	3116
3813.36	3082
3814.994	3062
3816.627	3046
3818.262	3107
3819.893	3114
3821.525	3090
3823.157	3134
3824.787	3054
3826.42	3113
3828.051	3022
3829.68	3065
3831.31	3014
3832.938	3037
3834.569	3040
3836.198	3090
3837.825	3020
3839.454	3070
3841.08	3113
3842.708	3045
3844.335	3046
3845.962	3010
3847.587	3010
3849.212	3080
3850.838	3024
3852.463	2999
3854.089	3055
3855.712	2968
3857.335	2980
3858.959	3018
3860.582	2963
3862.205	2996
3863.827	3026
3865.449	3027
3867.07	3005
3868.691	3004
3870.312	3014
3871.933	3007
3873.553	2975
3875.173	2943
3876.792	2925
3878.411	2982
3880.03	2984
3881.647	2929
3883.265	2921
3884.882	2948
3886.499	2923
3888.116	2995
3889.732	2927
3891.348	3011
3892.964	2970
3894.579	2971
3896.195	2978
3897.809	2926
3899.423	2950
3901.036	2989
3902.648	2949
3904.261	2871
3905.875	2961
3907.487	2940
3909.099	2938
3910.709	2945
3912.321	2963
3913.933	2916
3915.542	2923
3917.152	2927
3918.762	2945
3920.37	2882
3921.98	2915
3923.589	2983
3925.196	2868
3926.804	2929
3928.41	2924
3930.018	2991
3931.626	2927
3933.231	2891
3934.838	2988
3936.442	2887
3938.046	2910
3939.653	2939
3941.257	2824
3942.861	2894
3944.464	2955
3946.068	2976
3947.67	2896
3949.273	2924
3950.876	2873
3952.477	2845
3954.078	2873
3955.678	2829
3957.281	2823
3958.881	2784
3960.48	2774
3962.079	2836
3963.678	2889
3965.279	2896
3966.877	2857
3968.475	2880
3970.072	2848
3971.669	2854
3973.266	2841
3974.864	2830
3976.459	2814
3978.055	2850
3979.65	2790
3981.245	2825
3982.841	2808
3984.436	2735
3986.03	2838
3987.623	2819
3989.216	2834
3990.809	2780
3992.403	2812
3993.995	2819
3995.586	2771
3997.177	2796
3998.768	2707
4000.361	2758
4001.951	2818
4003.54	2731
4005.13	2732
4006.719	2762
4008.31	2800
4009.897	2673
4011.485	2754
4013.073	2834
4014.66	2700
4016.247	2741
4017.834	2726
4019.421	2758
4021.006	2665
4022.592	2743
4024.178	2688
4025.763	2665
4027.348	2656
4028.932	2762
4030.515	2700
4032.099	2682
4033.682	2711
4035.266	2651
4036.847	2724
4038.429	2673
4040.011	2696
4041.592	2684
4043.173	2650
4044.755	2748
4046.334	2699
4047.913	2680
4049.494	2682
4051.074	2713
4052.652	2581
4054.23	2661
4055.807	2681
4057.385	2636
4058.963	2694
4060.541	2615
4062.117	2706
4063.693	2692
4065.269	2592
4066.844	2669
4068.42	2698
4069.995	2611
4071.569	2614
4073.143	2590
4074.716	2633
4076.291	2614
4077.864	2600
4079.436	2658
4081.009	2618
4082.58	2636
4084.152	2640
4085.723	2613
4087.294	2612
4088.865	2663
4090.435	2591
4092.005	2565
4093.574	2600
4095.143	2643
4096.712	2595
4098.279	2590
4099.848	2610
4101.416	2601
4102.984	2627
4104.55	2580
4106.117	2623
4107.682	2601
4109.248	2586
4110.815	2492
4112.379	2613
4113.945	2582
4115.508	2589
4117.073	2552
4118.637	2454
4120.201	2495
4121.763	2522
4123.325	2596
4124.888	2493
4126.449	2545
4128.013	2513
4129.573	2548
4131.133	2543
4132.694	2533
4134.254	2542
4135.814	2499
4137.374	2492
4138.933	2486
4140.491	2510
4142.049	2520
4143.607	2527
4145.167	2507
4146.724	2553
4148.28	2482
4149.836	2476
4151.392	2519
4152.949	2539
4154.504	2469
4156.059	2477
4157.614	2453
4159.168	2453
4160.723	2440
4162.277	2510
4163.83	2478
4165.383	2535
4166.936	2419
4168.488	2458
4170.041	2411
4171.593	2508
4173.144	2471
4174.695	2485
4176.246	2414
4177.796	2542
4179.346	2402
4180.896	2490
4182.445	2445
4183.994	2503
4185.542	2399
4187.091	2487
4188.639	2409
4190.185	2419
4191.732	2461
4193.279	2424
4194.826	2392
4196.373	2453
4197.918	2371
4199.463	2480
4201.008	2390
4202.553	2466
4204.098	2409
4205.641	2428
4207.185	2458
4208.728	2399
4210.271	2375
4211.814	2393
4213.357	2425
4214.898	2395
4216.439	2373
4217.98	2366
4219.522	2403
4221.062	2437
4222.603	2369
4224.142	2344
4225.681	2379
4227.222	2356
4228.76	2378
4230.298	2386
4231.835	2361
4233.373	2317
4234.911	2382
4236.449	2397
4237.985	2345
4239.521	2338
4241.057	2310
4242.592	2394
4244.128	2385
4245.663	2336
4247.197	2324
4248.731	2353
4250.265	2316
4251.798	2364
4253.333	2342
4254.865	2323
4256.397	2334
4257.93	2343
4259.461	2356
4260.994	2322
4262.525	2369
4264.056	2283
4265.586	2359
4267.115	2329
4268.646	2334
4270.176	2263
4271.705	2288
4273.232	2331
4274.761	2310
4276.289	2308
4277.818	2259
4279.345	2277
4280.872	2294
4282.399	2297
4283.924	2315
4285.452	2302
4286.976	2312
4288.502	2268
4290.026	2372
4291.551	2251
4293.074	2296
4294.6	2340
4296.123	2287
4297.646	2319
4299.168	2246
4300.691	2272
4302.214	2273
4303.736	2296
4305.257	2278
4306.778	2226
4308.299	2191
4309.82	2274
4311.34	2261
4312.86	2212
4314.379	2232
