400.0745	4882
402.597	4888
405.1208	4874
407.6419	4891
410.1623	4879
412.6819	4988
415.201	4938
417.7172	4931
420.2369	5020
422.7538	5009
425.2701	5147
427.7856	5046
430.3005	5081
432.8147	5141
435.3282	5159
437.841	5284
440.3511	5210
442.8625	5271
445.3753	5118
447.8854	5227
450.3927	5211
452.9014	5240
455.4073	5154
457.9146	5185
460.4233	5156
462.9272	5277
465.4325	5109
467.935	5254
470.4389	5236
472.9421	5282
475.4446	5257
477.9444	5273
480.4456	5226
482.944	5369
485.4417	5348
487.9429	5419
490.4393	5254
492.935	5287
495.4321	5263
497.9264	5359
500.4221	5442
502.9171	5448
505.4094	5439
507.9011	5373
510.392	5503
512.8864	5445
515.3759	5456
517.8649	5442
520.3531	5404
522.8406	5459
525.3275	5471
527.8178	5444
530.3033	5528
532.7881	5467
535.2723	5434
537.7558	5544
540.2407	5421
542.7228	5496
545.2043	5532
547.6851	5488
550.1652	5515
552.6467	5450
555.1255	5468
557.6016	5560
560.079	5528
562.5557	5610
565.0318	5439
567.5092	5528
569.984	5429
572.456	5612
574.9294	5620
577.4022	5603
579.8762	5650
582.3456	5761
584.8163	5719
587.2863	5766
589.7557	5737
592.2224	5803
594.6924	5648
597.1578	5675
599.6245	5748
602.0905	5563
604.5538	5706
607.0206	5698
609.4825	5639
611.9459	5738
614.4066	5709
616.8686	5734
619.33	5665
621.7906	5697
624.2487	5712
626.708	5680
629.1647	5498
631.6207	5633
634.0801	5699
636.5348	5581
638.9888	5650
641.4442	5740
643.8969	5617
646.3509	5827
648.8022	5786
651.255	5815
653.705	5868
656.1544	5765
658.6031	5844
661.0532	5776
663.5026	5826
665.9493	5884
668.3954	5903
670.8409	5788
673.2877	5860
675.7318	5829
678.1752	5814
680.618	5944
683.0601	5807
685.5035	5913
687.9444	5935
690.3845	5923
692.824	5852
695.2628	5930
697.701	5899
700.1406	5807
702.5774	5825
705.0116	6014
707.4472	6091
709.8821	6016
712.3183	6051
714.7519	6037
717.1829	5911
719.6151	6129
722.0468	5914
724.4777	6084
726.908	6057
729.3377	6086
731.7667	6154
734.1931	6162
736.6208	6163
739.0498	6141
741.4742	6183
743.9	6156
746.3231	6172
748.7476	6082
751.1713	6256
753.5945	6272
756.015	6291
758.4368	6303
760.856	6343
763.2766	6352
765.6965	6321
768.1157	6304
770.5323	6356
772.9483	6276
775.3656	6271
777.7822	6307
780.1963	6247
782.6116	6321
785.0244	6348
787.4365	6437
789.8499	6312
792.2626	6292
794.6728	6315
797.0823	6367
799.4911	6410
801.8994	6362
804.3109	6326
806.7178	6239
809.124	6333
811.5297	6376
813.9347	6477
816.341	6443
818.7447	6338
821.1478	6411
823.5502	6433
825.952	6413
828.3531	6479
830.7556	6445
833.1554	6293
835.5546	6559
837.9532	6495
840.3511	6457
842.7504	6444
845.1451	6465
847.5411	6471
849.9365	6404
852.3312	6573
854.7272	6486
857.1187	6514
859.5115	6590
861.9037	6435
864.2952	6392
866.6842	6472
869.0764	6397
871.4661	6420
873.8531	6542
876.2415	6443
878.6272	6425
881.0162	6528
883.4026	6578
885.7866	6454
888.1717	6437
890.5543	6389
892.9382	6442
895.3215	6482
897.7041	6608
900.0842	6472
902.4655	6444
904.8443	6477
907.2244	6559
909.6039	6469
911.9808	6508
914.357	6618
916.7346	6682
919.1115	6723
921.4859	6737
923.8616	6812
926.2347	6765
928.6071	6732
930.979	6717
933.3541	6719
935.7247	6744
938.0946	6638
940.4639	6940
942.8326	6873
945.2026	6787
947.5701	6891
949.9369	7078
952.305	7035
954.6705	7234
957.0355	7276
959.4017	7455
961.7654	7411
964.1284	7495
966.4908	7458
968.8527	7184
971.2138	7139
973.5743	7134
975.9343	6952
978.2936	6882
980.6522	6787
983.0122	6761
985.3696	6688
987.7245	6629
990.0807	6765
992.4362	6615
994.7911	6772
997.1474	6778
999.4991	6712
1001.852	6720
1004.205	6753
1006.555	6735
1008.908	6840
1011.258	6818
1013.606	6661
1015.956	6779
1018.302	6611
1020.652	6623
1022.998	6724
1025.345	6881
1027.691	6755
1030.035	6770
1032.378	6752
1034.724	6805
1037.066	6823
1039.409	6817
1041.75	6744
1044.092	6848
1046.433	6844
1048.771	6839
1051.112	6871
1053.449	6914
1055.786	6870
1058.124	6754
1060.462	6796
1062.797	6854
1065.131	6936
1067.467	6960
1069.8	6905
1072.135	6866
1074.467	6847
1076.798	6959
1079.129	6929
1081.459	6846
1083.792	6988
1086.121	7026
1088.449	6838
1090.777	6938
1093.104	6825
1095.431	6986
1097.759	6835
1100.084	6896
1102.408	6876
1104.732	6973
1107.056	6961
1109.379	7028
1111.701	6960
1114.022	7000
1116.343	7002
1118.664	6934
1120.983	7048
1123.303	6988
1125.621	6967
1127.939	6976
1130.256	6951
1132.573	6937
1134.889	6747
1137.205	6975
1139.52	7008
1141.832	7046
1144.146	6909
1146.461	6966
1148.771	7025
1151.083	6952
1153.392	7037
1155.703	7008
1158.011	6910
1160.323	7096
1162.629	7028
1164.938	6860
1167.243	6992
1169.55	7022
1171.857	7016
1174.163	6886
1176.466	6962
1178.769	6862
1181.073	6915
1183.374	6946
1185.677	7015
1187.979	6962
1190.279	6946
1192.578	6936
1194.878	7056
1197.178	6987
1199.476	7012
1201.772	7020
1204.068	6891
1206.366	7023
1208.663	6971
1210.957	7061
1213.251	6915
1215.544	7014
1217.836	6990
1220.128	7007
1222.421	7039
1224.712	6921
1227.002	7099
1229.292	6885
1231.581	6999
1233.871	7088
1236.159	7074
1238.446	7050
1240.732	7176
1243.018	7196
1245.304	7069
1247.59	7168
1249.874	7243
1252.156	7158
1254.439	7259
1256.721	7198
1259.005	7106
1261.286	7222
1263.565	7248
1265.845	7230
1268.125	7156
1270.403	7130
1272.682	7156
1274.959	7185
1277.234	7176
1279.511	7178
1281.787	7147
1284.062	7062
1286.337	7146
1288.609	7163
1290.882	7037
1293.153	7164
1295.428	7015
1297.698	7197
1299.969	7032
1302.237	7032
1304.507	7113
1306.777	7048
1309.044	7225
1311.312	6973
1313.578	7085
1315.844	7306
1318.109	7152
1320.375	7157
1322.638	7111
1324.903	7174
1327.165	7047
1329.427	7035
1331.69	7099
1333.952	7117
1336.212	7084
1338.471	7173
1340.73	7170
1342.988	7085
1345.248	7124
1347.505	7077
1349.763	7204
1352.019	7173
1354.274	7113
1356.53	7140
1358.784	7081
1361.038	7126
1363.291	7233
1365.543	7008
1367.797	7190
1370.048	7116
1372.296	7126
1374.546	7070
1376.796	7113
1379.045	7112
1381.295	7060
1383.542	7276
1385.787	7283
1388.034	7249
1390.28	7266
1392.527	7192
1394.772	7164
1397.014	7372
1399.258	7269
1401.501	7282
1403.741	7250
1405.985	7322
1408.226	7243
1410.465	7302
1412.705	7271
1414.943	7301
1417.184	7207
1419.42	7256
1421.658	7448
1423.894	7255
1426.13	7355
1428.366	7366
1430.602	7318
1432.835	7301
1435.069	7406
1437.301	7270
1439.535	7354
1441.767	7452
1443.997	7291
1446.229	7298
1448.458	7462
1450.687	7457
1452.916	7443
1455.146	7481
1457.372	7435
1459.599	7319
1461.824	7367
1464.051	7239
1466.277	7400
1468.501	7246
1470.725	7286
1472.948	7349
1475.17	7320
1477.393	7363
1479.614	7239
1481.837	7269
1484.057	7222
1486.276	7308
1488.497	7173
1490.715	7217
1492.932	7318
1495.148	7197
1497.364	7124
1499.58	7083
1501.798	7081
1504.012	7016
1506.227	7124
1508.44	7071
1510.653	7108
1512.866	7067
1515.078	7192
1517.289	7185
1519.5	7044
1521.711	6979
1523.92	7218
1526.13	6998
1528.338	7008
1530.544	7178
1532.752	7121
1534.959	7208
1537.165	7148
1539.371	7121
1541.574	7133
1543.779	7109
1545.983	7195
1548.187	7144
1550.39	7153
1552.59	7216
1554.792	7235
1556.991	7124
1559.19	7179
1561.392	7216
1563.59	7219
1565.789	7241
1567.986	7286
1570.182	7376
1572.381	7353
1574.576	7259
1576.771	7298
1578.966	7287
1581.16	7373
1583.354	7333
1585.546	7249
1587.74	7363
1589.931	7286
1592.121	7191
1594.311	7280
1596.502	7306
1598.693	7206
1600.881	7268
1603.069	7271
1605.256	7352
1607.445	7338
1609.631	7308
1611.816	7435
1614.001	7256
1616.186	7388
1618.37	7401
1620.555	7323
1622.737	7389
1624.919	7435
1627.101	7301
1629.282	7373
1631.463	7434
1633.643	7412
1635.822	7357
1638.001	7329
1640.179	7321
1642.359	7415
1644.534	7392
1646.711	7394
1648.887	7410
1651.062	7347
1653.235	7350
1655.412	7345
1657.586	7368
1659.757	7462
1661.93	7442
1664.1	7513
1666.274	7368
1668.445	7464
1670.614	7456
1672.784	7429
1674.951	7516
1677.12	7394
1679.289	7373
1681.457	7372
1683.622	7428
1685.789	7414
1687.953	7446
1690.121	7416
1692.284	7414
1694.447	7391
1696.611	7299
1698.772	7438
1700.935	7267
1703.098	7369
1705.258	7303
1707.417	7345
1709.576	7231
1711.736	7369
1713.896	7264
1716.053	7326
1718.21	7265
1720.366	7168
1722.522	7305
1724.68	7314
1726.835	7264
1728.989	7283
1731.142	7368
1733.295	7352
1735.449	7488
1737.601	7172
1739.753	7406
1741.903	7384
1744.054	7277
1746.203	7263
1748.354	7238
1750.503	7247
1752.651	7349
1754.798	7277
1756.944	7297
1759.092	7303
1761.238	7331
1763.383	7341
1765.528	7357
1767.672	7353
1769.814	7305
1771.959	7356
1774.102	7356
1776.242	7385
1778.384	7369
1780.525	7375
1782.665	7201
1784.805	7262
1786.945	7435
1789.082	7317
1791.22	7453
1793.36	7242
1795.495	7382
1797.632	7391
1799.766	7382
1801.902	7506
1804.035	7381
1806.172	7369
1808.304	7322
1810.436	7402
1812.569	7363
1814.699	7410
1816.833	7366
1818.963	7324
1821.092	7326
1823.222	7210
1825.35	7432
1827.478	7292
1829.608	7361
1831.734	7302
1833.86	7266
1835.986	7335
1838.11	7296
1840.238	7458
1842.362	7199
1844.485	7237
1846.608	7415
1848.73	7335
1850.853	7317
1852.974	7248
1855.097	7227
1857.217	7256
1859.336	7325
1861.455	7353
1863.576	7333
1865.693	7181
1867.811	7281
1869.926	7276
1872.042	7277
1874.16	7223
1876.275	7277
1878.39	7353
1880.504	7293
1882.618	7304
1884.731	7301
1886.843	7365
1888.956	7135
1891.067	7255
1893.178	7220
1895.287	7336
1897.399	7227
1899.508	7231
1901.617	7489
1903.724	7281
1905.832	7408
1907.941	7345
1910.046	7302
1912.152	7442
1914.256	7402
1916.361	7385
1918.464	7350
1920.57	7364
1922.672	7367
1924.775	7416
1926.876	7336
1928.978	7401
1931.08	7382
1933.181	7359
1935.28	7327
1937.38	7308
1939.478	7279
1941.577	7449
1943.675	7372
1945.771	7187
1947.867	7568
1949.964	7307
1952.058	7305
1954.154	7393
1956.248	7491
1958.343	7320
1960.435	7391
1962.527	7324
1964.62	7300
1966.711	7395
1968.802	7311
1970.892	7366
1972.983	7389
1975.072	7378
1977.162	7362
1979.25	7261
1981.337	7302
1983.424	7402
1985.51	7351
1987.598	7256
1989.683	7240
1991.768	7230
1993.852	7283
1995.934	7343
1998.019	7221
2000.102	7233
2002.184	7239
2004.266	7393
2006.347	7243
2008.427	7031
2010.508	7306
2012.587	7265
2014.666	7055
2016.745	7241
2018.821	7155
2020.9	7281
2022.977	7224
2025.052	7176
2027.128	7314
2029.204	7281
2031.277	7364
2033.353	7306
2035.425	7381
2037.499	7248
2039.57	7266
2041.642	7236
2043.714	7242
2045.786	7223
2047.855	7193
2049.925	7277
2051.993	7276
2054.064	7132
2056.132	7285
2058.2	7294
2060.266	7260
2062.332	7295
2064.398	7228
2066.465	7243
2068.529	7320
2070.592	7344
2072.657	7267
2074.719	7376
2076.783	7341
2078.845	7208
2080.907	7240
2082.968	7177
2085.028	7261
2087.087	7230
2089.148	7291
2091.207	7250
2093.264	7332
2095.322	7347
2097.379	7162
2099.439	7327
2101.495	7326
2103.55	7235
2105.605	7255
2107.658	7240
2109.713	7256
2111.767	7270
2113.82	7282
2115.872	7182
2117.924	7274
2119.975	7243
2122.028	7249
2124.078	7353
2126.126	7136
2128.176	7183
2130.225	7100
2132.275	7206
2134.321	7235
2136.368	7235
2138.415	7264
2140.461	7284
2142.505	7178
2144.552	7262
2146.597	7118
2148.64	7170
2150.684	7162
2152.725	7267
2154.77	7190
2156.811	7282
2158.852	7147
2160.894	7207
2162.933	7199
2164.973	7224
2167.013	7186
2169.051	7126
2171.089	7205
2173.126	7186
2175.164	7200
2177.201	7191
2179.236	7217
2181.273	7131
2183.307	7129
2185.341	7108
2187.377	7036
2189.41	7009
2191.442	7061
2193.473	7158
2195.506	6942
2197.539	7153
2199.569	6994
2201.598	6940
2203.628	7025
2205.656	6930
2207.686	7102
2209.716	7032
2211.743	7061
2213.769	6987
2215.796	6953
2217.821	7175
2219.848	7039
2221.873	7082
2223.897	6987
2225.921	7091
2227.944	7112
2229.967	7019
2231.991	6836
2234.011	7113
2236.032	6957
2238.053	7013
2240.073	6983
2242.094	7117
2244.114	7065
2246.131	6932
2248.149	6974
2250.167	7002
2252.186	7064
2254.201	6982
2256.218	6939
2258.233	7079
2260.247	7090
2262.262	7055
2264.278	7064
2266.29	6921
2268.303	6997
2270.315	6994
2272.327	7112
2274.341	6964
2276.35	7018
2278.361	6963
2280.37	6944
2282.38	7111
2284.388	7088
2286.397	6932
2288.405	7042
2290.412	6957
2292.419	7036
2294.425	6974
2296.431	6896
2298.437	7030
2300.441	7020
2302.445	6997
2304.449	6952
2306.453	6969
2308.455	6812
2310.457	6981
2312.459	6875
2314.46	6902
2316.46	7028
2318.461	6955
2320.46	6857
2322.458	7052
2324.458	6969
2326.456	7027
2328.455	6853
2330.451	6908
2332.447	6931
2334.443	6961
2336.438	6860
2338.433	6798
2340.429	6877
2342.422	6869
2344.416	6843
2346.408	7015
2348.399	6941
2350.393	6892
2352.384	6891
2354.375	6832
2356.365	6892
2358.355	6830
2360.344	6870
2362.333	6876
2364.322	6926
2366.309	6825
2368.295	6874
2370.282	6834
2372.27	6796
2374.256	6744
2376.24	6892
2378.225	6934
2380.208	6784
2382.194	6836
2384.177	6776
2386.159	6788
2388.142	6827
2390.122	6674
2392.105	6780
2394.085	6676
2396.066	6731
2398.044	6654
2400.024	6749
2402.002	6779
2403.982	6754
2405.959	6695
2407.935	6715
2409.913	6721
2411.888	6806
2413.865	6732
2415.84	6744
2417.814	6687
2419.788	6685
2421.762	6671
2423.735	6746
2425.708	6754
2427.68	6733
2429.651	6627
2431.623	6740
2433.593	6564
2435.564	6724
2437.533	6716
2439.502	6659
2441.47	6621
2443.438	6769
2445.406	6686
2447.373	6697
2449.34	6778
2451.305	6682
2453.271	6701
2455.235	6669
2457.201	6618
2459.165	6621
2461.129	6721
2463.092	6686
2465.054	6525
2467.018	6678
2468.978	6619
2470.939	6596
2472.899	6634
2474.86	6739
2476.819	6591
2478.778	6763
2480.737	6645
2482.695	6637
2484.653	6557
2486.609	6484
2488.567	6558
2490.524	6578
2492.478	6616
2494.433	6582
2496.387	6595
2498.343	6629
2500.297	6683
2502.249	6537
2504.202	6620
2506.153	6574
2508.105	6598
2510.057	6544
2512.008	6500
2513.957	6596
2515.906	6510
2517.855	6673
2519.805	6514
2521.754	6593
2523.7	6669
2525.647	6603
2527.594	6574
2529.54	6654
2531.486	6503
2533.431	6468
2535.376	6575
2537.32	6483
2539.263	6547
2541.207	6551
2543.151	6541
2545.093	6632
2547.034	6550
2548.975	6517
2550.917	6638
2552.856	6566
2554.796	6555
2556.735	6460
2558.673	6461
2560.611	6439
2562.55	6427
2564.487	6466
2566.424	6427
2568.36	6596
2570.296	6506
2572.232	6530
2574.167	6604
2576.101	6535
2578.035	6459
2579.969	6530
2581.902	6611
2583.834	6547
2585.766	6515
2587.698	6490
2589.628	6527
2591.557	6556
2593.489	6583
2595.419	6461
2597.348	6483
2599.275	6544
2601.204	6556
2603.131	6474
2605.059	6480
2606.986	6439
2608.911	6384
2610.837	6453
2612.76	6630
2614.687	6482
2616.61	6541
2618.534	6515
2620.457	6559
2622.38	6545
2624.302	6608
2626.225	6415
2628.145	6580
2630.067	6379
2631.986	6565
2633.906	6603
2635.827	6437
2637.745	6587
2639.662	6525
2641.581	6524
2643.498	6452
2645.415	6542
2647.331	6595
2649.248	6503
2651.163	6501
2653.077	6470
2654.993	6373
2656.906	6431
2658.821	6520
2660.733	6433
2662.646	6564
2664.557	6346
2666.47	6553
2668.381	6476
2670.291	6349
2672.201	6565
2674.11	6484
2676.021	6563
2677.929	6530
2679.837	6438
2681.745	6398
2683.652	6498
2685.56	6479
2687.466	6442
2689.371	6363
2691.276	6435
2693.181	6423
2695.085	6400
2696.991	6326
2698.893	6367
2700.796	6344
2702.698	6516
2704.601	6413
2706.502	6401
2708.404	6406
2710.304	6325
2712.203	6386
2714.103	6282
2716.003	6363
2717.902	6376
2719.8	6295
2721.697	6405
2723.594	6378
2725.49	6448
2727.389	6385
2729.283	6321
2731.179	6350
2733.073	6327
2734.968	6464
2736.863	6223
2738.757	6300
2740.649	6349
2742.541	6332
2744.433	6264
2746.324	6325
2748.216	6243
2750.107	6235
2751.997	6263
2753.886	6259
2755.776	6303
2757.666	6271
2759.553	6266
2761.44	6268
2763.327	6274
2765.215	6271
2767.102	6213
2768.988	6232
2770.873	6261
2772.757	6160
2774.641	6173
2776.525	6241
2778.41	6298
2780.292	6317
2782.175	6395
2784.057	6249
2785.938	6251
2787.821	6322
2789.701	6188
2791.581	6218
2793.461	6123
2795.34	6202
2797.219	6096
2799.099	6092
2800.975	6283
2802.853	6223
2804.73	6245
2806.606	6118
2808.484	6163
2810.358	6299
2812.233	6210
2814.108	6063
2815.981	6153
2817.857	6239
2819.73	6035
2821.602	6202
2823.474	6235
2825.346	6141
2827.217	6131
2829.089	6083
2830.959	6145
2832.829	6148
2834.698	6103
2836.567	6121
2838.436	6167
2840.305	6095
2842.172	6245
2844.04	6052
2845.905	6233
2847.772	6274
2849.639	6311
2851.503	6218
2853.369	6207
2855.232	6123
2857.096	6203
2858.961	6208
2860.824	6292
2862.686	6393
2864.547	6240
2866.41	6293
2868.272	6269
2870.132	6436
2871.992	6310
2873.851	6371
2875.711	6391
2877.57	6349
2879.429	6362
2881.287	6468
2883.144	6472
2885.001	6554
2886.857	6487
2888.714	6551
2890.57	6350
2892.425	6481
2894.279	6497
2896.133	6529
2897.987	6541
2899.842	6519
2901.694	6511
2903.547	6566
2905.397	6469
2907.249	6492
2909.101	6460
2910.952	6453
2912.802	6479
2914.652	6467
2916.5	6569
2918.35	6578
2920.198	6504
2922.045	6658
2923.893	6613
2925.74	6745
2927.585	6737
2929.433	6721
2931.279	6627
2933.123	6720
2934.968	6726
2936.811	6774
2938.656	6768
2940.5	6880
2942.342	6851
2944.185	6811
2946.026	6931
2947.87	6937
2949.71	6925
2951.549	6884
2953.39	6921
2955.229	6841
2957.069	6749
2958.908	6808
2960.746	6831
2962.584	6690
2964.421	6708
2966.257	6764
2968.094	6735
2969.931	6501
2971.766	6637
2973.601	6512
2975.435	6518
2977.27	6527
2979.105	6465
2980.938	6452
2982.77	6449
2984.602	6320
2986.434	6213
2988.267	6341
2990.097	6332
2991.927	6275
2993.757	6092
2995.587	6208
2997.417	6133
2999.246	6200
3001.074	6152
3002.902	6092
3004.729	6159
3006.556	6020
3008.384	6060
3010.21	5947
3012.036	6020
3013.861	6046
3015.684	6022
3017.51	5810
3019.334	5899
3021.157	5885
3022.981	5875
3024.802	5825
3026.624	5845
3028.448	5725
3030.267	5875
3032.088	5873
3033.909	5766
3035.728	5744
3037.549	5699
3039.368	5752
3041.186	5713
3043.004	5657
3044.821	5796
3046.64	5755
3048.455	5714
3050.272	5718
3052.087	5789
3053.903	5799
3055.717	5681
3057.534	5738
3059.347	5743
3061.16	5686
3062.974	5703
3064.785	5659
3066.598	5604
3068.411	5737
3070.222	5755
3072.032	5652
3073.844	5691
3075.653	5727
3077.463	5685
3079.272	5663
3081.08	5636
3082.889	5540
3084.697	5673
3086.505	5566
3088.312	5555
3090.118	5552
3091.924	5507
3093.729	5634
3095.535	5611
3097.34	5629
3099.144	5559
3100.947	5630
3102.75	5564
3104.553	5483
3106.357	5518
3108.159	5523
3109.961	5397
3111.762	5473
3113.562	5547
3115.365	5451
3117.164	5475
3118.964	5470
3120.761	5493
3122.56	5566
3124.36	5519
3126.158	5576
3127.954	5424
3129.75	5358
3131.547	5496
3133.343	5394
3135.139	5527
3136.934	5398
3138.729	5380
3140.522	5372
3142.317	5495
3144.11	5336
3145.904	5387
3147.695	5288
3149.488	5368
3151.28	5410
3153.07	5367
3154.863	5342
3156.652	5343
3158.441	5395
3160.231	5365
3162.019	5342
3163.81	5409
3165.597	5411
3167.384	5343
3169.172	5384
3170.958	5246
3172.745	5337
3174.532	5337
3176.317	5343
3178.101	5273
3179.885	5337
3181.67	5257
3183.455	5296
3185.238	5339
3187.02	5219
3188.802	5280
3190.585	5341
3192.368	5266
3194.149	5223
3195.929	5265
3197.709	5239
3199.489	5263
3201.268	5272
3203.048	5337
3204.826	5233
3206.604	5244
3208.382	5190
3210.159	5261
3211.937	5268
3213.713	5157
3215.489	5247
3217.263	5155
3219.038	5151
3220.815	5204
3222.589	5252
3224.363	5386
3226.136	5201
3227.908	5207
3229.681	5122
3231.454	5123
3233.226	5246
3234.996	5089
3236.767	5224
3238.538	5312
3240.308	5236
3242.078	5241
3243.847	5197
3245.615	5210
3247.384	5231
3249.15	5229
3250.92	5172
3252.686	5175
3254.453	5222
3256.218	5271
3257.984	5138
3259.75	5197
3261.515	5143
3263.279	5136
3265.044	5099
3266.806	5135
3268.57	5225
3270.334	5221
3272.095	5149
3273.856	5129
3275.619	5195
3277.379	5118
3279.14	5211
3280.9	5147
3282.661	5134
3284.419	5142
3286.178	5198
3287.937	5173
3289.695	5259
3291.453	5121
3293.21	5134
3294.967	5224
3296.723	5207
3298.48	5136
3300.235	5108
3301.99	5054
3303.744	5084
3305.498	5150
3307.253	5111
3309.006	5107
3310.759	4971
3312.511	5142
3314.263	5171
3316.017	5093
3317.768	5087
3319.519	5083
3321.268	5187
3323.018	5102
3324.767	5077
3326.518	5006
3328.267	5129
3330.014	5118
3331.762	5143
3333.509	5059
3335.258	5157
3337.003	5070
3338.75	5053
3340.496	5004
3342.24	5102
3343.987	5065
3345.732	4983
3347.475	5004
3349.219	5088
3350.961	4979
3352.705	5064
3354.448	5012
3356.19	5145
3357.931	5050
3359.672	4979
3361.412	5048
3363.155	5007
3364.894	5013
3366.633	5067
3368.372	5065
3370.11	4944
3371.849	5018
3373.588	5050
3375.325	4955
3377.061	4919
3378.799	4981
3380.534	4999
3382.271	5010
3384.006	5030
3385.741	4949
3387.475	4922
3389.209	5022
3390.944	5010
3392.677	4967
3394.409	5018
3396.143	4933
3397.874	4919
3399.606	4954
3401.338	4920
3403.069	4936
3404.799	4946
3406.528	4875
3408.258	4878
3409.988	4953
3411.717	4927
3413.445	4919
3415.173	4928
3416.899	4912
3418.626	4932
3420.354	4861
3422.08	4895
3423.806	4955
3425.531	4930
3427.255	4868
3428.981	4841
3430.705	4880
3432.429	4787
3434.151	4791
3435.875	4930
3437.599	4699
3439.321	4864
3441.042	4879
3442.763	4828
3444.483	4788
3446.204	4869
3447.926	4827
3449.645	4741
3451.364	4787
3453.082	4768
3454.801	4702
3456.52	4801
3458.238	4837
3459.954	4743
3461.671	4706
3463.387	4749
3465.104	4755
3466.82	4721
3468.534	4672
3470.25	4696
3471.963	4729
3473.676	4659
3475.392	4769
3477.104	4705
3478.817	4679
3480.528	4713
3482.241	4737
3483.954	4667
3485.664	4661
3487.374	4678
3489.084	4734
3490.795	4628
3492.504	4692
3494.214	4583
3495.922	4725
3497.63	4558
3499.338	4611
3501.045	4654
3502.753	4597
3504.459	4553
3506.166	4464
3507.871	4570
3509.576	4686
3511.283	4560
3512.987	4554
3514.691	4545
3516.395	4523
3518.098	4558
3519.8	4543
3521.504	4528
3523.206	4489
3524.908	4584
3526.609	4447
3528.309	4441
3530.011	4584
3531.711	4626
3533.411	4475
3535.109	4482
3536.808	4480
3538.507	4523
3540.206	4462
3541.904	4506
3543.601	4477
3545.297	4453
3546.994	4512
3548.69	4467
3550.387	4519
3552.081	4512
3553.776	4482
3555.47	4472
3557.166	4498
3558.859	4444
3560.553	4476
3562.245	4477
3563.938	4533
3565.629	4496
3567.322	4381
3569.014	4516
3570.704	4497
3572.394	4403
3574.084	4447
3575.775	4400
3577.464	4546
3579.152	4321
3580.842	4374
3582.529	4360
3584.216	4313
3585.905	4323
3587.591	4332
3589.279	4370
3590.964	4297
3592.649	4419
3594.336	4386
3596.021	4374
3597.705	4237
3599.388	4307
3601.072	4358
3602.757	4316
3604.439	4231
3606.122	4359
3607.803	4247
3609.485	4318
3611.167	4232
3612.849	4299
3614.529	4252
3616.208	4300
3617.888	4277
3619.567	4226
3621.247	4290
3622.926	4231
3624.603	4297
3626.281	4235
3627.958	4273
3629.635	4195
3631.312	4209
3632.989	4205
3634.665	4230
3636.339	4183
3638.014	4224
3639.691	4188
3641.364	4136
3643.038	4232
3644.71	4127
3646.384	4261
3648.058	4144
3649.729	4204
3651.402	4146
3653.073	4160
3654.744	4226
3656.414	4100
3658.085	4221
3659.755	4148
3661.424	4144
3663.094	4136
3664.762	4145
3666.431	4155
3668.099	4156
3669.766	4085
3671.433	4269
3673.099	4112
3674.768	4095
3676.433	4122
3678.098	4155
3679.763	4086
3681.428	4117
3683.093	4126
3684.757	4175
3686.421	4141
3688.083	4119
3689.746	4021
3691.408	4108
3693.071	4059
3694.733	4085
3696.394	4076
3698.054	4111
3699.715	4126
3701.375	4089
3703.036	4072
3704.695	4139
3706.354	4075
3708.012	4033
3709.67	4039
3711.329	4004
3712.987	4102
3714.644	4072
3716.299	4019
3717.955	4122
3719.613	4044
3721.268	4108
3722.923	4013
3724.577	4078
3726.231	4076
3727.885	4025
3729.539	3981
3731.192	4030
3732.845	4031
3734.497	3996
3736.149	4013
3737.802	3976
3739.453	3933
3741.104	3899
3742.753	3853
3744.404	4049
3746.052	3977
3747.704	4039
3749.352	3975
3751	3941
3752.648	3941
3754.296	3978
3755.944	3967
3757.59	3961
3759.238	3947
3760.883	4004
3762.528	3897
3764.176	3923
3765.82	3959
3767.464	3930
3769.109	3889
3770.753	3939
3772.396	3846
3774.04	3916
3775.683	3895
3777.325	3938
3778.967	3828
3780.608	3853
3782.25	3870
3783.89	3863
3785.531	3882
3787.17	3959
3788.81	3887
3790.45	3944
3792.09	3915
3793.729	3827
3795.366	3817
3797.003	3812
3798.64	3874
3800.278	3790
3801.915	3863
3803.551	3772
3805.187	3823
3806.822	3909
3808.458	3776
3810.093	3730
3811.726	3887
3813.36	3795
3814.994	3850
3816.627	3695
3818.262	3811
3819.893	3766
3821.525	3677
3823.157	3839
3824.787	3827
3826.42	3748
3828.051	3758
3829.68	3736
3831.31	3686
3832.938	3809
3834.569	3801
3836.198	3798
3837.825	3657
3839.454	3819
3841.08	3771
3842.708	3767
3844.335	3718
3845.962	3763
3847.587	3717
3849.212	3787
3850.838	3770
3852.463	3680
3854.089	3752
3855.712	3705
3857.335	3678
3858.959	3698
3860.582	3738
3862.205	3750
3863.827	3611
3865.449	3688
3867.07	3664
3868.691	3669
3870.312	3739
3871.933	3777
3873.553	3589
3875.173	3621
3876.792	3791
3878.411	3641
3880.03	3601
3881.647	3623
3883.265	3625
3884.882	3686
3886.499	3720
3888.116	3586
3889.732	3646
3891.348	3708
3892.964	3697
3894.579	3596
3896.195	3626
3897.809	3659
3899.423	3686
3901.036	3703
3902.648	3579
3904.261	3599
3905.875	3613
3907.487	3628
3909.099	3665
3910.709	3581
3912.321	3628
3913.933	3616
3915.542	3607
3917.152	3556
3918.762	3659
3920.37	3674
3921.98	3513
3923.589	3582
3925.196	3610
3926.804	3628
3928.41	3552
3930.018	3552
3931.626	3578
3933.231	3528
3934.838	3575
3936.442	3517
3938.046	3539
3939.653	3529
3941.257	3547
3942.861	3566
3944.464	3654
3946.068	3548
3947.67	3585
3949.273	3599
3950.876	3593
3952.477	3589
3954.078	3570
3955.678	3454
3957.281	3520
3958.881	3538
3960.48	3498
3962.079	3538
3963.678	3452
3965.279	3493
3966.877	3552
3968.475	3597
3970.072	3515
3971.669	3460
3973.266	3416
3974.864	3524
3976.459	3497
3978.055	3486
3979.65	3485
3981.245	3409
3982.841	3536
3984.436	3524
3986.03	3436
3987.623	3476
3989.216	3421
3990.809	3458
3992.403	3476
3993.995	3488
3995.586	3446
3997.177	3409
3998.768	3410
4000.361	3478
4001.951	3394
4003.54	3417
4005.13	3431
4006.719	3345
4008.31	3427
4009.897	3451
4011.485	3319
4013.073	3314
4014.66	3328
4016.247	3297
4017.834	3346
4019.421	3326
4021.006	3350
4022.592	3344
4024.178	3363
4025.763	3238
4027.348	3389
4028.932	3291
4030.515	3404
4032.099	3303
4033.682	3318
4035.266	3300
4036.847	3320
4038.429	3274
4040.011	3284
4041.592	3229
4043.173	3272
4044.755	3342
4046.334	3214
4047.913	3324
4049.494	3212
4051.074	3245
4052.652	3260
4054.23	3327
4055.807	3243
4057.385	3238
4058.963	3296
4060.541	3269
4062.117	3174
4063.693	3219
4065.269	3178
4066.844	3269
4068.42	3154
4069.995	3287
4071.569	3337
4073.143	3194
4074.716	3248
4076.291	3191
4077.864	3245
4079.436	3246
4081.009	3233
4082.58	3271
4084.152	3223
4085.723	3254
4087.294	3230
4088.865	3176
4090.435	3146
4092.005	3218
4093.574	3105
4095.143	3177
4096.712	3190
4098.279	3134
4099.848	3180
4101.416	3214
4102.984	3179
4104.55	3123
4106.117	3138
4107.682	3163
4109.248	3131
4110.815	3134
4112.379	3232
4113.945	3165
4115.508	3132
4117.073	3173
4118.637	3155
4120.201	3120
4121.763	3096
4123.325	3147
4124.888	3092
4126.449	3111
4128.013	3160
4129.573	3106
4131.133	3143
4132.694	3114
4134.254	3063
4135.814	3142
4137.374	3125
4138.933	3048
4140.491	3068
4142.049	3102
4143.607	3100
4145.167	3080
4146.724	3092
4148.28	3068
4149.836	3073
4151.392	3024
4152.949	3148
4154.504	3023
4156.059	3044
4157.614	2963
4159.168	3075
4160.723	3105
4162.277	2985
4163.83	3039
4165.383	3046
4166.936	3071
4168.488	2978
4170.041	3055
4171.593	3015
4173.144	3039
4174.695	2946
4176.246	2995
4177.796	2983
4179.346	2981
4180.896	2980
4182.445	3006
4183.994	2969
4185.542	2992
4187.091	2991
4188.639	2915
4190.185	2929
4191.732	2978
4193.279	2932
4194.826	2970
4196.373	2985
4197.918	3002
4199.463	2918
4201.008	2959
4202.553	2949
4204.098	3012
4205.641	2958
4207.185	2926
4208.728	2981
4210.271	2962
4211.814	2912
4213.357	2893
4214.898	2891
4216.439	2907
4217.98	2903
4219.522	2921
4221.062	2941
4222.603	2942
4224.142	2870
4225.681	2966
4227.222	2921
4228.76	2894
4230.298	2925
4231.835	2910
4233.373	2898
4234.911	2898
4236.449	2886
4237.985	2857
4239.521	2944
4241.057	2909
4242.592	2928
4244.128	2917
4245.663	2866
4247.197	2870
4248.731	2888
4250.265	2823
4251.798	2906
4253.333	2807
4254.865	2843
4256.397	2859
4257.93	2886
4259.461	2886
4260.994	2814
4262.525	2820
4264.056	2827
4265.586	2877
4267.115	2815
4268.646	2869
4270.176	2823
4271.705	2823
4273.232	2820
4274.761	2895
4276.289	2786
4277.818	2844
4279.345	2750
4280.872	2832
4282.399	2793
4283.924	2836
4285.452	2827
4286.976	2795
4288.502	2773
4290.026	2762
4291.551	2835
4293.074	2812
4294.6	2778
4296.123	2804
4297.646	2791
4299.168	2820
4300.691	2747
4302.214	2771
4303.736	2758
4305.257	2844
4306.778	2760
4308.299	2795
4309.82	2730
4311.34	2699
4312.86	2760
4314.379	2631
