400.0745	3779
402.597	3742
405.1208	3796
407.6419	3736
410.1623	3854
412.6819	3789
415.201	3892
417.7172	3843
420.2369	4005
422.7538	3896
425.2701	3983
427.7856	3851
430.3005	4001
432.8147	3969
435.3282	3975
437.841	4043
440.3511	3971
442.8625	4077
445.3753	3956
447.8854	4029
450.3927	3943
452.9014	4018
455.4073	4029
457.9146	3992
460.4233	4042
462.9272	3994
465.4325	4026
467.935	4035
470.4389	4148
472.9421	4081
475.4446	4082
477.9444	4062
480.4456	4090
482.944	4119
485.4417	4087
487.9429	4066
490.4393	4155
492.935	4165
495.4321	4119
497.9264	4122
500.4221	4230
502.9171	4194
505.4094	4210
507.9011	4229
510.392	4217
512.8864	4332
515.3759	4210
517.8649	4186
520.3531	4243
522.8406	4211
525.3275	4228
527.8178	4243
530.3033	4234
532.7881	4205
535.2723	4264
537.7558	4271
540.2407	4214
542.7228	4209
545.2043	4253
547.6851	4233
550.1652	4293
552.6467	4343
555.1255	4287
557.6016	4274
560.079	4267
562.5557	4277
565.0318	4298
567.5092	4307
569.984	4371
572.456	4326
574.9294	4311
577.4022	4372
579.8762	4381
582.3456	4305
584.8163	4420
587.2863	4287
589.7557	4327
592.2224	4498
594.6924	4411
597.1578	4364
599.6245	4299
602.0905	4315
604.5538	4409
607.0206	4397
609.4825	4381
611.9459	4330
614.4066	4369
616.8686	4479
619.33	4314
621.7906	4382
624.2487	4411
626.708	4318
629.1647	4395
631.6207	4379
634.0801	4458
636.5348	4466
638.9888	4413
641.4442	4393
643.8969	4396
646.3509	4486
648.8022	4388
651.255	4408
653.705	4398
656.1544	4484
658.6031	4495
661.0532	4547
663.5026	4492
665.9493	4490
668.3954	4516
670.8409	4471
673.2877	4469
675.7318	4474
678.1752	4511
680.618	4581
683.0601	4492
685.5035	4522
687.9444	4652
690.3845	4649
692.824	4544
695.2628	4617
697.701	4600
700.1406	4546
702.5774	4619
705.0116	4554
707.4472	4612
709.8821	4534
712.3183	4639
714.7519	4625
717.1829	4583
719.6151	4712
722.0468	4671
724.4777	4596
726.908	4666
729.3377	4813
731.7667	4647
734.1931	4753
736.6208	4717
739.0498	4717
741.4742	4802
743.9	4759
746.3231	4856
748.7476	4823
751.1713	4835
753.5945	4761
756.015	4781
758.4368	4804
760.856	4856
763.2766	4838
765.6965	4936
768.1157	4859
770.5323	4891
772.9483	4925
775.3656	4901
777.7822	4872
780.1963	4941
782.6116	4930
785.0244	4941
787.4365	4876
789.8499	4915
792.2626	4891
794.6728	4981
797.0823	4970
799.4911	5003
801.8994	4926
804.3109	4862
806.7178	4971
809.124	4990
811.5297	4894
813.9347	5032
816.341	4944
818.7447	5111
821.1478	4860
823.5502	4965
825.952	5004
828.3531	5048
830.7556	5013
833.1554	4918
835.5546	5028
837.9532	5049
840.3511	5023
842.7504	5051
845.1451	5085
847.5411	5051
849.9365	5193
852.3312	5073
854.7272	5110
857.1187	5085
859.5115	5054
861.9037	5075
864.2952	5085
866.6842	5024
869.0764	5050
871.4661	5079
873.8531	5096
876.2415	5073
878.6272	5044
881.0162	5144
883.4026	5115
885.7866	5140
888.1717	5090
890.5543	5104
892.9382	5148
895.3215	5146
897.7041	5072
900.0842	5101
902.4655	5078
904.8443	5135
907.2244	5088
909.6039	5162
911.9808	5208
914.357	5112
916.7346	5185
919.1115	5221
921.4859	5361
923.8616	5417
926.2347	5330
928.6071	5315
930.979	5275
933.3541	5244
935.7247	5403
938.0946	5248
940.4639	5428
942.8326	5384
945.2026	5491
947.5701	5401
949.9369	5510
952.305	5636
954.6705	5571
957.0355	5804
959.4017	5982
961.7654	5865
964.1284	5850
966.4908	5922
968.8527	5754
971.2138	5672
973.5743	5514
975.9343	5466
978.2936	5381
980.6522	5309
983.0122	5227
985.3696	5354
987.7245	5284
990.0807	5219
992.4362	5282
994.7911	5347
997.1474	5269
999.4991	5409
1001.852	5418
1004.205	5429
1006.555	5373
1008.908	5356
1011.258	5283
1013.606	5236
1015.956	5440
1018.302	5357
1020.652	5367
1022.998	5401
1025.345	5333
1027.691	5376
1030.035	5400
1032.378	5428
1034.724	5444
1037.066	5390
1039.409	5470
1041.75	5469
1044.092	5452
1046.433	5374
1048.771	5491
1051.112	5414
1053.449	5353
1055.786	5451
1058.124	5356
1060.462	5474
1062.797	5553
1065.131	5487
1067.467	5517
1069.8	5473
1072.135	5470
1074.467	5545
1076.798	5518
1079.129	5495
1081.459	5495
1083.792	5485
1086.121	5553
1088.449	5435
1090.777	5551
1093.104	5511
1095.431	5562
1097.759	5556
1100.084	5601
1102.408	5524
1104.732	5620
1107.056	5551
1109.379	5621
1111.701	5539
1114.022	5548
1116.343	5583
1118.664	5466
1120.983	5555
1123.303	5514
1125.621	5594
1127.939	5583
1130.256	5488
1132.573	5589
1134.889	5556
1137.205	5575
1139.52	5492
1141.832	5761
1144.146	5515
1146.461	5574
1148.771	5571
1151.083	5465
1153.392	5550
1155.703	5473
1158.011	5589
1160.323	5647
1162.629	5563
1164.938	5561
1167.243	5644
1169.55	5619
1171.857	5649
1174.163	5639
1176.466	5549
1178.769	5608
1181.073	5586
1183.374	5572
1185.677	5536
1187.979	5579
1190.279	5546
1192.578	5604
1194.878	5713
1197.178	5614
1199.476	5518
1201.772	5653
1204.068	5599
1206.366	5628
1208.663	5643
1210.957	5694
1213.251	5795
1215.544	5619
1217.836	5665
1220.128	5721
1222.421	5615
1224.712	5713
1227.002	5752
1229.292	5692
1231.581	5768
1233.871	5719
1236.159	5729
1238.446	5823
1240.732	5695
1243.018	5800
1245.304	5814
1247.59	5843
1249.874	5867
1252.156	5752
1254.439	5800
1256.721	5903
1259.005	5810
1261.286	5778
1263.565	5782
1265.845	5819
1268.125	5929
1270.403	5915
1272.682	5937
1274.959	5941
1277.234	5818
1279.511	5846
1281.787	5869
1284.062	5786
1286.337	5873
1288.609	5849
1290.882	5723
1293.153	5707
1295.428	5801
1297.698	5790
1299.969	5748
1302.237	5648
1304.507	5764
1306.777	5848
1309.044	5723
1311.312	5816
1313.578	5712
1315.844	5755
1318.109	5805
1320.375	5733
1322.638	5673
1324.903	5783
1327.165	5790
1329.427	5785
1331.69	5725
1333.952	5811
1336.212	5822
1338.471	5798
1340.73	5779
1342.988	5774
1345.248	5804
1347.505	5755
1349.763	5857
1352.019	5837
1354.274	5819
1356.53	5834
1358.784	5753
1361.038	5816
1363.291	5898
1365.543	5799
1367.797	5795
1370.048	5762
1372.296	5914
1374.546	5807
1376.796	5787
1379.045	5824
1381.295	5849
1383.542	5904
1385.787	5835
1388.034	5893
1390.28	5802
1392.527	5792
1394.772	5786
1397.014	5771
1399.258	5870
1401.501	5840
1403.741	5931
1405.985	5877
1408.226	5824
1410.465	5951
1412.705	5919
1414.943	6076
1417.184	6021
1419.42	6069
1421.658	5890
1423.894	5919
1426.13	5922
1428.366	6001
1430.602	6041
1432.835	5961
1435.069	6020
1437.301	5999
1439.535	6026
1441.767	6102
1443.997	6015
1446.229	6051
1448.458	6163
1450.687	6063
1452.916	6025
1455.146	6045
1457.372	6251
1459.599	6078
1461.824	6048
1464.051	6082
1466.277	6121
1468.501	6058
1470.725	5985
1472.948	6002
1475.17	5949
1477.393	5973
1479.614	6006
1481.837	5841
1484.057	5824
1486.276	5812
1488.497	5801
1490.715	5902
1492.932	5878
1495.148	5872
1497.364	5854
1499.58	5748
1501.798	5809
1504.012	5812
1506.227	5747
1508.44	5710
1510.653	5826
1512.866	5761
1515.078	5763
1517.289	5819
1519.5	5832
1521.711	5847
1523.92	5865
1526.13	5765
1528.338	5772
1530.544	5765
1532.752	5735
1534.959	5830
1537.165	5860
1539.371	5838
1541.574	5742
1543.779	5765
1545.983	5825
1548.187	5818
1550.39	5895
1552.59	5775
1554.792	5780
1556.991	5854
1559.19	5962
1561.392	5893
1563.59	5916
1565.789	5820
1567.986	5945
1570.182	5964
1572.381	5867
1574.576	6064
1576.771	5819
1578.966	6020
1581.16	5985
1583.354	5982
1585.546	5911
1587.74	5963
1589.931	5952
1592.121	6008
1594.311	6008
1596.502	5998
1598.693	5953
1600.881	6049
1603.069	5896
1605.256	6020
1607.445	6013
1609.631	5997
1611.816	5994
1614.001	6004
1616.186	6040
1618.37	5969
1620.555	5998
1622.737	5962
1624.919	5986
1627.101	6045
1629.282	5995
1631.463	5932
1633.643	5976
1635.822	6000
1638.001	6094
1640.179	6122
1642.359	5981
1644.534	6008
1646.711	5979
1648.887	5812
1651.062	6191
1653.235	6061
1655.412	6074
1657.586	6063
1659.757	6123
1661.93	6055
1664.1	6060
1666.274	6041
1668.445	6136
1670.614	6029
1672.784	6021
1674.951	6098
1677.12	6145
1679.289	6118
1681.457	5949
1683.622	5951
1685.789	6042
1687.953	6031
1690.121	5940
1692.284	6016
1694.447	5905
1696.611	6011
1698.772	5920
1700.935	5956
1703.098	6039
1705.258	5910
1707.417	6017
1709.576	6057
1711.736	5873
1713.896	5954
1716.053	6080
1718.21	5811
1720.366	5836
1722.522	5782
1724.68	6036
1726.835	5973
1728.989	5931
1731.142	5940
1733.295	5898
1735.449	5850
1737.601	5859
1739.753	5803
1741.903	5962
1744.054	5919
1746.203	5916
1748.354	5857
1750.503	5962
1752.651	5918
1754.798	5786
1756.944	6000
1759.092	6019
1761.238	5928
1763.383	5938
1765.528	5893
1767.672	5978
1769.814	5959
1771.959	5856
1774.102	5785
1776.242	5972
1778.384	5870
1780.525	5798
1782.665	5843
1784.805	5984
1786.945	5904
1789.082	6059
1791.22	5865
1793.36	5898
1795.495	5905
1797.632	5951
1799.766	5986
1801.902	5851
1804.035	5817
1806.172	5929
1808.304	5933
1810.436	5898
1812.569	5812
1814.699	5947
1816.833	5924
1818.963	5912
1821.092	5811
1823.222	5861
1825.35	5940
1827.478	5971
1829.608	5834
1831.734	5824
1833.86	5910
1835.986	5869
1838.11	5829
1840.238	5891
1842.362	5837
1844.485	5866
1846.608	5790
1848.73	5776
1850.853	5905
1852.974	5883
1855.097	5912
1857.217	5900
1859.336	5888
1861.455	5857
1863.576	5848
1865.693	5825
1867.811	5917
1869.926	5833
1872.042	5799
1874.16	5845
1876.275	5816
1878.39	5761
1880.504	5825
1882.618	5807
1884.731	5933
1886.843	5936
1888.956	5968
1891.067	5883
1893.178	5925
1895.287	5772
1897.399	5923
1899.508	5875
1901.617	5893
1903.724	5885
1905.832	5878
1907.941	5851
1910.046	5975
1912.152	5887
1914.256	5844
1916.361	5805
1918.464	5998
1920.57	5985
1922.672	5894
1924.775	5832
1926.876	5984
1928.978	5879
1931.08	5927
1933.181	5843
1935.28	5933
1937.38	5866
1939.478	5903
1941.577	5887
1943.675	5922
1945.771	5836
1947.867	5843
1949.964	5887
1952.058	5863
1954.154	5952
1956.248	6048
1958.343	5935
1960.435	5967
1962.527	5856
1964.62	5878
1966.711	5874
1968.802	5929
1970.892	5810
1972.983	5922
1975.072	5851
1977.162	5873
1979.25	5734
1981.337	5917
1983.424	5745
1985.51	5955
1987.598	5804
1989.683	5737
1991.768	5906
1993.852	5897
1995.934	5821
1998.019	5746
2000.102	5869
2002.184	5790
2004.266	5869
2006.347	5699
2008.427	5761
2010.508	5725
2012.587	5823
2014.666	5780
2016.745	5807
2018.821	5826
2020.9	5747
2022.977	5921
2025.052	5751
2027.128	5862
2029.204	5804
2031.277	5850
2033.353	5829
2035.425	5765
2037.499	5845
2039.57	5849
2041.642	5836
2043.714	5878
2045.786	5820
2047.855	5830
2049.925	5827
2051.993	5766
2054.064	5796
2056.132	5792
2058.2	5743
2060.266	5921
2062.332	5772
2064.398	5834
2066.465	5806
2068.529	5811
2070.592	5820
2072.657	5810
2074.719	5885
2076.783	5818
2078.845	5898
2080.907	5839
2082.968	5858
2085.028	5834
2087.087	5928
2089.148	5836
2091.207	5846
2093.264	5818
2095.322	5838
2097.379	5861
2099.439	5788
2101.495	5800
2103.55	5769
2105.605	5862
2107.658	5811
2109.713	5822
2111.767	5765
2113.82	5952
2115.872	5898
2117.924	5865
2119.975	5837
2122.028	5799
2124.078	5887
2126.126	5789
2128.176	5800
2130.225	5898
2132.275	5807
2134.321	5985
2136.368	5821
2138.415	5886
2140.461	5820
2142.505	5783
2144.552	5751
2146.597	5782
2148.64	5912
2150.684	5808
2152.725	5816
2154.77	5831
2156.811	5826
2158.852	5781
2160.894	5702
2162.933	5734
2164.973	5753
2167.013	5850
2169.051	5680
2171.089	5845
2173.126	5804
2175.164	5847
2177.201	5748
2179.236	5752
2181.273	5761
2183.307	5795
2185.341	5753
2187.377	5643
2189.41	5724
2191.442	5623
2193.473	5722
2195.506	5822
2197.539	5852
2199.569	5661
2201.598	5665
2203.628	5798
2205.656	5613
2207.686	5687
2209.716	5741
2211.743	5735
2213.769	5673
2215.796	5814
2217.821	5690
2219.848	5698
2221.873	5712
2223.897	5751
2225.921	5729
2227.944	5687
2229.967	5674
2231.991	5762
2234.011	5810
2236.032	5731
2238.053	5707
2240.073	5680
2242.094	5666
2244.114	5679
2246.131	5692
2248.149	5754
2250.167	5668
2252.186	5740
2254.201	5759
2256.218	5767
2258.233	5804
2260.247	5694
2262.262	5601
2264.278	5690
2266.29	5763
2268.303	5809
2270.315	5737
2272.327	5699
2274.341	5667
2276.35	5757
2278.361	5666
2280.37	5687
2282.38	5656
2284.388	5678
2286.397	5672
2288.405	5798
2290.412	5653
2292.419	5756
2294.425	5718
2296.431	5734
2298.437	5649
2300.441	5754
2302.445	5610
2304.449	5655
2306.453	5698
2308.455	5650
2310.457	5709
2312.459	5745
2314.46	5610
2316.46	5687
2318.461	5687
2320.46	5622
2322.458	5705
2324.458	5624
2326.456	5658
2328.455	5574
2330.451	5784
2332.447	5660
2334.443	5584
2336.438	5612
2338.433	5674
2340.429	5643
2342.422	5645
2344.416	5613
2346.408	5595
2348.399	5505
2350.393	5546
2352.384	5649
2354.375	5699
2356.365	5555
2358.355	5553
2360.344	5682
2362.333	5552
2364.322	5546
2366.309	5542
2368.295	5668
2370.282	5556
2372.27	5617
2374.256	5517
2376.24	5634
2378.225	5504
2380.208	5567
2382.194	5698
2384.177	5620
2386.159	5697
2388.142	5635
2390.122	5443
2392.105	5604
2394.085	5553
2396.066	5453
2398.044	5518
2400.024	5457
2402.002	5584
2403.982	5612
2405.959	5533
2407.935	5506
2409.913	5531
2411.888	5469
2413.865	5473
2415.84	5547
2417.814	5521
2419.788	5603
2421.762	5552
2423.735	5599
2425.708	5565
2427.68	5514
2429.651	5580
2431.623	5543
2433.593	5480
2435.564	5489
2437.533	5505
2439.502	5531
2441.47	5533
2443.438	5558
2445.406	5528
2447.373	5441
2449.34	5491
2451.305	5528
2453.271	5418
2455.235	5453
2457.201	5549
2459.165	5448
2461.129	5538
2463.092	5578
2465.054	5518
2467.018	5520
2468.978	5557
2470.939	5586
2472.899	5472
2474.86	5455
2476.819	5412
2478.778	5460
2480.737	5473
2482.695	5453
2484.653	5449
2486.609	5382
2488.567	5513
2490.524	5467
2492.478	5548
2494.433	5460
2496.387	5445
2498.343	5316
2500.297	5400
2502.249	5408
2504.202	5389
2506.153	5426
2508.105	5391
2510.057	5340
2512.008	5556
2513.957	5425
2515.906	5415
2517.855	5418
2519.805	5475
2521.754	5335
2523.7	5453
2525.647	5468
2527.594	5383
2529.54	5512
2531.486	5439
2533.431	5416
2535.376	5519
2537.32	5508
2539.263	5341
2541.207	5347
2543.151	5454
2545.093	5387
2547.034	5481
2548.975	5383
2550.917	5494
2552.856	5317
2554.796	5428
2556.735	5372
2558.673	5392
2560.611	5413
2562.55	5422
2564.487	5368
2566.424	5313
2568.36	5421
2570.296	5461
2572.232	5344
2574.167	5409
2576.101	5526
2578.035	5414
2579.969	5434
2581.902	5500
2583.834	5505
2585.766	5488
2587.698	5439
2589.628	5427
2591.557	5401
2593.489	5490
2595.419	5344
2597.348	5452
2599.275	5315
2601.204	5363
2603.131	5362
2605.059	5381
2606.986	5515
2608.911	5454
2610.837	5440
2612.76	5452
2614.687	5389
2616.61	5428
2618.534	5439
2620.457	5444
2622.38	5438
2624.302	5465
2626.225	5441
2628.145	5564
2630.067	5455
2631.986	5400
2633.906	5332
2635.827	5445
2637.745	5449
2639.662	5497
2641.581	5517
2643.498	5453
2645.415	5406
2647.331	5371
2649.248	5436
2651.163	5505
2653.077	5468
2654.993	5437
2656.906	5445
2658.821	5427
2660.733	5429
2662.646	5422
2664.557	5436
2666.47	5455
2668.381	5319
2670.291	5369
2672.201	5503
2674.11	5362
2676.021	5397
2677.929	5359
2679.837	5274
2681.745	5434
2683.652	5437
2685.56	5318
2687.466	5350
2689.371	5356
2691.276	5345
2693.181	5401
2695.085	5396
2696.991	5332
2698.893	5440
2700.796	5359
2702.698	5293
2704.601	5314
2706.502	5339
2708.404	5313
2710.304	5355
2712.203	5394
2714.103	5361
2716.003	5310
2717.902	5326
2719.8	5317
2721.697	5285
2723.594	5289
2725.49	5303
2727.389	5358
2729.283	5323
2731.179	5345
2733.073	5312
2734.968	5338
2736.863	5347
2738.757	5304
2740.649	5337
2742.541	5292
2744.433	5260
2746.324	5190
2748.216	5244
2750.107	5323
2751.997	5267
2753.886	5330
2755.776	5299
2757.666	5282
2759.553	5301
2761.44	5205
2763.327	5274
2765.215	5256
2767.102	5202
2768.988	5270
2770.873	5279
2772.757	5231
2774.641	5257
2776.525	5249
2778.41	5259
2780.292	5265
2782.175	5307
2784.057	5246
2785.938	5254
2787.821	5161
2789.701	5333
2791.581	5256
2793.461	5410
2795.34	5292
2797.219	5343
2799.099	5171
2800.975	5172
2802.853	5231
2804.73	5249
2806.606	5161
2808.484	5132
2810.358	5144
2812.233	5239
2814.108	5133
2815.981	5126
2817.857	5210
2819.73	5175
2821.602	5187
2823.474	5046
2825.346	5216
2827.217	5136
2829.089	5176
2830.959	5239
2832.829	5178
2834.698	5211
2836.567	5200
2838.436	5335
2840.305	5229
2842.172	5257
2844.04	5293
2845.905	5252
2847.772	5263
2849.639	5407
2851.503	5369
2853.369	5338
2855.232	5402
2857.096	5333
2858.961	5303
2860.824	5412
2862.686	5269
2864.547	5368
2866.41	5357
2868.272	5372
2870.132	5301
2871.992	5541
2873.851	5473
2875.711	5447
2877.57	5467
2879.429	5461
2881.287	5581
2883.144	5703
2885.001	5628
2886.857	5456
2888.714	5695
2890.57	5566
2892.425	5615
2894.279	5505
2896.133	5604
2897.987	5445
2899.842	5495
2901.694	5581
2903.547	5508
2905.397	5510
2907.249	5486
2909.101	5571
2910.952	5535
2912.802	5544
2914.652	5528
2916.5	5644
2918.35	5603
2920.198	5663
2922.045	5639
2923.893	5701
2925.74	5723
2927.585	5770
2929.433	5722
2931.279	5845
2933.123	5887
2934.968	5816
2936.811	5924
2938.656	6004
2940.5	6028
2942.342	5904
2944.185	5945
2946.026	5911
2947.87	5991
2949.71	5997
2951.549	5881
2953.39	5797
2955.229	5851
2957.069	5694
2958.908	5755
2960.746	5761
2962.584	5661
2964.421	5634
2966.257	5698
2968.094	5562
2969.931	5562
2971.766	5498
2973.601	5476
2975.435	5446
2977.27	5488
2979.105	5493
2980.938	5442
2982.77	5528
2984.602	5279
2986.434	5310
2988.267	5306
2990.097	5350
2991.927	5408
2993.757	5307
2995.587	5362
2997.417	5321
2999.246	5275
3001.074	5208
3002.902	5235
3004.729	5120
3006.556	5073
3008.384	5033
3010.21	5162
3012.036	5031
3013.861	4989
3015.684	5042
3017.51	4973
3019.334	4901
3021.157	4893
3022.981	4902
3024.802	4844
3026.624	4956
3028.448	4825
3030.267	4921
3032.088	4976
3033.909	4816
3035.728	4862
3037.549	4897
3039.368	4676
3041.186	4866
3043.004	4824
3044.821	4914
3046.64	4832
3048.455	4863
3050.272	4793
3052.087	4776
3053.903	4883
3055.717	4796
3057.534	4818
3059.347	4783
3061.16	4841
3062.974	4773
3064.785	4799
3066.598	4744
3068.411	4796
3070.222	4784
3072.032	4695
3073.844	4771
3075.653	4725
3077.463	4717
3079.272	4705
3081.08	4755
3082.889	4719
3084.697	4723
3086.505	4683
3088.312	4729
3090.118	4656
3091.924	4691
3093.729	4659
3095.535	4667
3097.34	4698
3099.144	4744
3100.947	4735
3102.75	4673
3104.553	4680
3106.357	4590
3108.159	4541
3109.961	4683
3111.762	4683
3113.562	4660
3115.365	4558
3117.164	4541
3118.964	4543
3120.761	4656
3122.56	4614
3124.36	4599
3126.158	4648
3127.954	4584
3129.75	4588
3131.547	4476
3133.343	4528
3135.139	4636
3136.934	4502
3138.729	4567
3140.522	4541
3142.317	4545
3144.11	4559
3145.904	4576
3147.695	4528
3149.488	4626
3151.28	4456
3153.07	4461
3154.863	4517
3156.652	4460
3158.441	4499
3160.231	4473
3162.019	4536
3163.81	4402
3165.597	4448
3167.384	4437
3169.172	4502
3170.958	4514
3172.745	4422
3174.532	4525
3176.317	4432
3178.101	4451
3179.885	4442
3181.67	4448
3183.455	4464
3185.238	4416
3187.02	4397
3188.802	4544
3190.585	4402
3192.368	4392
3194.149	4486
3195.929	4409
3197.709	4380
3199.489	4532
3201.268	4410
3203.048	4486
3204.826	4312
3206.604	4351
3208.382	4429
3210.159	4460
3211.937	4435
3213.713	4474
3215.489	4366
3217.263	4413
3219.038	4454
3220.815	4406
3222.589	4374
3224.363	4402
3226.136	4406
3227.908	4451
3229.681	4413
3231.454	4414
3233.226	4365
3234.996	4437
3236.767	4423
3238.538	4391
3240.308	4359
3242.078	4376
3243.847	4416
3245.615	4464
3247.384	4354
3249.15	4365
3250.92	4319
3252.686	4291
3254.453	4409
3256.218	4294
3257.984	4419
3259.75	4363
3261.515	4407
3263.279	4360
3265.044	4378
3266.806	4402
3268.57	4425
3270.334	4361
3272.095	4362
3273.856	4380
3275.619	4393
3277.379	4392
3279.14	4322
3280.9	4314
3282.661	4410
3284.419	4380
3286.178	4445
3287.937	4378
3289.695	4390
3291.453	4368
3293.21	4348
3294.967	4312
3296.723	4367
3298.48	4300
3300.235	4353
3301.99	4331
3303.744	4362
3305.498	4410
3307.253	4394
3309.006	4386
3310.759	4244
3312.511	4415
3314.263	4221
3316.017	4352
3317.768	4329
3319.519	4347
3321.268	4308
3323.018	4351
3324.767	4293
3326.518	4288
3328.267	4285
3330.014	4292
3331.762	4365
3333.509	4265
3335.258	4309
3337.003	4294
3338.75	4312
3340.496	4281
3342.24	4324
3343.987	4406
3345.732	4249
3347.475	4239
3349.219	4259
3350.961	4329
3352.705	4297
3354.448	4351
3356.19	4183
3357.931	4272
3359.672	4202
3361.412	4176
3363.155	4298
3364.894	4291
3366.633	4261
3368.372	4316
3370.11	4273
3371.849	4242
3373.588	4275
3375.325	4243
3377.061	4222
3378.799	4238
3380.534	4247
3382.271	4260
3384.006	4245
3385.741	4115
3387.475	4167
3389.209	4226
3390.944	4216
3392.677	4164
3394.409	4166
3396.143	4249
3397.874	4255
3399.606	4190
3401.338	4296
3403.069	4188
3404.799	4199
3406.528	4213
3408.258	4176
3409.988	4193
3411.717	4240
3413.445	4218
3415.173	4225
3416.899	4190
3418.626	4163
3420.354	4172
3422.08	4031
3423.806	4112
3425.531	4190
3427.255	4103
3428.981	4058
3430.705	4182
3432.429	4150
3434.151	4144
3435.875	4152
3437.599	4037
3439.321	4084
3441.042	4188
3442.763	4139
3444.483	4060
3446.204	4202
3447.926	4119
3449.645	4115
3451.364	4173
3453.082	4089
3454.801	4123
3456.52	3975
3458.238	4104
3459.954	4122
3461.671	4121
3463.387	4078
3465.104	4044
3466.82	4086
3468.534	4082
3470.25	4024
3471.963	4034
3473.676	3973
3475.392	4027
3477.104	3974
3478.817	3928
3480.528	4016
3482.241	4019
3483.954	4008
3485.664	4027
3487.374	4033
3489.084	3908
3490.795	3907
3492.504	3961
3494.214	3967
3495.922	3943
3497.63	3907
3499.338	3900
3501.045	3939
3502.753	3931
3504.459	3924
3506.166	3950
3507.871	3974
3509.576	3934
3511.283	3979
3512.987	3890
3514.691	3924
3516.395	3989
3518.098	3909
3519.8	3913
3521.504	3854
3523.206	3910
3524.908	3919
3526.609	3922
3528.309	3866
3530.011	3889
3531.711	3955
3533.411	3930
3535.109	3871
3536.808	3893
3538.507	3945
3540.206	3916
3541.904	3880
3543.601	3893
3545.297	3821
3546.994	3933
3548.69	3961
3550.387	3865
3552.081	3889
3553.776	3800
3555.47	3867
3557.166	3859
3558.859	3867
3560.553	3762
3562.245	3784
3563.938	3814
3565.629	3864
3567.322	3825
3569.014	3836
3570.704	3867
3572.394	3788
3574.084	3760
3575.775	3720
3577.464	3867
3579.152	3771
3580.842	3805
3582.529	3760
3584.216	3754
3585.905	3787
3587.591	3702
3589.279	3740
3590.964	3695
3592.649	3734
3594.336	3744
3596.021	3784
3597.705	3815
3599.388	3728
3601.072	3729
3602.757	3765
3604.439	3676
3606.122	3666
3607.803	3632
3609.485	3654
3611.167	3745
3612.849	3627
3614.529	3689
3616.208	3626
3617.888	3700
3619.567	3721
3621.247	3726
3622.926	3621
3624.603	3673
3626.281	3658
3627.958	3624
3629.635	3737
3631.312	3658
3632.989	3657
3634.665	3605
3636.339	3606
3638.014	3560
3639.691	3639
3641.364	3625
3643.038	3604
3644.71	3555
3646.384	3649
3648.058	3618
3649.729	3690
3651.402	3619
3653.073	3604
3654.744	3631
3656.414	3618
3658.085	3528
3659.755	3542
3661.424	3681
3663.094	3593
3664.762	3494
3666.431	3608
3668.099	3573
3669.766	3603
3671.433	3576
3673.099	3518
3674.768	3536
3676.433	3513
3678.098	3583
3679.763	3556
3681.428	3547
3683.093	3552
3684.757	3532
3686.421	3509
3688.083	3440
3689.746	3529
3691.408	3498
3693.071	3513
3694.733	3534
3696.394	3455
3698.054	3615
3699.715	3568
3701.375	3486
3703.036	3551
3704.695	3423
3706.354	3420
3708.012	3500
3709.67	3543
3711.329	3571
3712.987	3534
3714.644	3572
3716.299	3476
3717.955	3425
3719.613	3497
3721.268	3476
3722.923	3531
3724.577	3496
3726.231	3571
3727.885	3422
3729.539	3494
3731.192	3496
3732.845	3639
3734.497	3447
3736.149	3384
3737.802	3427
3739.453	3469
3741.104	3402
3742.753	3467
3744.404	3505
3746.052	3447
3747.704	3436
3749.352	3458
3751	3465
3752.648	3429
3754.296	3387
3755.944	3449
3757.59	3424
3759.238	3324
3760.883	3447
3762.528	3445
3764.176	3422
3765.82	3410
3767.464	3381
3769.109	3341
3770.753	3369
3772.396	3352
3774.04	3330
3775.683	3328
3777.325	3331
3778.967	3400
3780.608	3340
3782.25	3347
3783.89	3359
3785.531	3413
3787.17	3377
3788.81	3363
3790.45	3399
3792.09	3319
3793.729	3317
3795.366	3295
3797.003	3273
3798.64	3320
3800.278	3343
3801.915	3355
3803.551	3289
3805.187	3288
3806.822	3397
3808.458	3320
3810.093	3205
3811.726	3332
3813.36	3322
3814.994	3349
3816.627	3312
3818.262	3333
3819.893	3329
3821.525	3301
3823.157	3277
3824.787	3268
3826.42	3214
3828.051	3338
3829.68	3315
3831.31	3270
3832.938	3290
3834.569	3259
3836.198	3218
3837.825	3215
3839.454	3221
3841.08	3256
3842.708	3297
3844.335	3228
3845.962	3222
3847.587	3280
3849.212	3268
3850.838	3214
3852.463	3298
3854.089	3237
3855.712	3226
3857.335	3264
3858.959	3237
3860.582	3151
3862.205	3200
3863.827	3169
3865.449	3229
3867.07	3233
3868.691	3194
3870.312	3208
3871.933	3199
3873.553	3234
3875.173	3180
3876.792	3227
3878.411	3142
3880.03	3087
3881.647	3149
3883.265	3203
3884.882	3063
3886.499	3094
3888.116	3224
3889.732	3160
3891.348	3177
3892.964	3143
3894.579	3275
3896.195	3197
3897.809	3172
3899.423	3242
3901.036	3200
3902.648	3161
3904.261	3176
3905.875	3125
3907.487	3140
3909.099	3110
3910.709	3157
3912.321	3163
3913.933	3068
3915.542	3218
3917.152	3137
3918.762	3131
3920.37	3137
3921.98	3121
3923.589	3132
3925.196	3115
3926.804	3115
3928.41	3128
3930.018	3062
3931.626	3121
3933.231	3143
3934.838	3075
3936.442	3108
3938.046	3129
3939.653	3096
3941.257	3171
3942.861	3181
3944.464	3139
3946.068	3146
3947.67	3080
3949.273	3143
3950.876	3128
3952.477	3078
3954.078	3064
3955.678	3086
3957.281	3084
3958.881	3120
3960.48	3089
3962.079	2999
3963.678	3030
3965.279	3000
3966.877	3074
3968.475	3025
3970.072	3094
3971.669	3116
3973.266	3080
3974.864	3033
3976.459	2980
3978.055	3039
3979.65	3088
3981.245	3025
3982.841	3021
3984.436	3038
3986.03	3025
3987.623	3039
3989.216	3022
3990.809	3020
3992.403	2953
3993.995	3031
3995.586	3024
3997.177	3011
3998.768	2954
4000.361	2959
4001.951	2961
4003.54	2927
4005.13	2925
4006.719	3002
4008.31	2977
4009.897	2938
4011.485	2922
4013.073	2981
4014.66	2953
4016.247	2967
4017.834	2994
4019.421	2952
4021.006	2928
4022.592	2917
4024.178	2887
4025.763	2983
4027.348	2910
4028.932	2954
4030.515	2989
4032.099	2925
4033.682	2902
4035.266	2915
4036.847	2915
4038.429	2900
4040.011	2911
4041.592	2874
4043.173	2916
4044.755	2855
4046.334	2852
4047.913	2898
4049.494	2851
4051.074	2848
4052.652	2862
4054.23	2905
4055.807	2903
4057.385	2860
4058.963	2885
4060.541	2857
4062.117	2870
4063.693	2832
4065.269	2908
4066.844	2847
4068.42	2787
4069.995	2948
4071.569	2801
4073.143	2833
4074.716	2890
4076.291	2788
4077.864	2828
4079.436	2870
4081.009	2812
4082.58	2849
4084.152	2903
4085.723	2806
4087.294	2877
4088.865	2894
4090.435	2802
4092.005	2847
4093.574	2778
4095.143	2811
4096.712	2810
4098.279	2790
4099.848	2769
4101.416	2758
4102.984	2790
4104.55	2779
4106.117	2782
4107.682	2843
4109.248	2756
4110.815	2772
4112.379	2782
4113.945	2762
4115.508	2824
4117.073	2698
4118.637	2736
4120.201	2760
4121.763	2778
4123.325	2732
4124.888	2729
4126.449	2706
4128.013	2821
4129.573	2775
4131.133	2821
4132.694	2734
4134.254	2645
4135.814	2725
4137.374	2758
4138.933	2693
4140.491	2759
4142.049	2700
4143.607	2742
4145.167	2688
4146.724	2797
4148.28	2733
4149.836	2696
4151.392	2630
4152.949	2712
4154.504	2654
4156.059	2711
4157.614	2699
4159.168	2706
4160.723	2684
4162.277	2636
4163.83	2626
4165.383	2659
4166.936	2700
4168.488	2743
4170.041	2702
4171.593	2604
4173.144	2665
4174.695	2665
4176.246	2642
4177.796	2663
4179.346	2590
4180.896	2667
4182.445	2669
4183.994	2605
4185.542	2707
4187.091	2621
4188.639	2678
4190.185	2579
4191.732	2729
4193.279	2633
4194.826	2565
4196.373	2629
4197.918	2582
4199.463	2632
4201.008	2610
4202.553	2603
4204.098	2503
4205.641	2650
4207.185	2598
4208.728	2627
4210.271	2577
4211.814	2612
4213.357	2611
4214.898	2602
4216.439	2596
4217.98	2537
4219.522	2519
4221.062	2575
4222.603	2573
4224.142	2625
4225.681	2583
4227.222	2581
4228.76	2559
4230.298	2524
4231.835	2591
4233.373	2534
4234.911	2578
4236.449	2517
4237.985	2592
4239.521	2630
4241.057	2461
4242.592	2523
4244.128	2622
4245.663	2567
4247.197	2558
4248.731	2534
4250.265	2520
4251.798	2582
4253.333	2591
4254.865	2555
4256.397	2553
4257.93	2541
4259.461	2503
4260.994	2491
4262.525	2511
4264.056	2593
4265.586	2485
4267.115	2488
4268.646	2522
4270.176	2472
4271.705	2550
4273.232	2452
4274.761	2547
4276.289	2495
4277.818	2481
4279.345	2503
4280.872	2518
4282.399	2460
4283.924	2483
4285.452	2528
4286.976	2440
4288.502	2495
4290.026	2496
4291.551	2516
4293.074	2468
4294.6	2514
4296.123	2532
4297.646	2506
4299.168	2477
4300.691	2527
4302.214	2420
4303.736	2425
4305.257	2413
4306.778	2544
4308.299	2429
4309.82	2441
4311.34	2479
4312.86	2472
4314.379	2500
