400.0745	4012
402.597	4061
405.1208	4089
407.6419	4080
410.1623	4021
412.6819	4002
415.201	4154
417.7172	4115
420.2369	4181
422.7538	4209
425.2701	4239
427.7856	4195
430.3005	4328
432.8147	4280
435.3282	4297
437.841	4372
440.3511	4336
442.8625	4312
445.3753	4355
447.8854	4267
450.3927	4382
452.9014	4422
455.4073	4344
457.9146	4366
460.4233	4308
462.9272	4255
465.4325	4267
467.935	4308
470.4389	4391
472.9421	4362
475.4446	4323
477.9444	4348
480.4456	4239
482.944	4449
485.4417	4364
487.9429	4269
490.4393	4367
492.935	4422
495.4321	4373
497.9264	4394
500.4221	4446
502.9171	4457
505.4094	4492
507.9011	4412
510.392	4439
512.8864	4480
515.3759	4550
517.8649	4491
520.3531	4460
522.8406	4463
525.3275	4485
527.8178	4515
530.3033	4487
532.7881	4491
535.2723	4486
537.7558	4449
540.2407	4538
542.7228	4574
545.2043	4421
547.6851	4618
550.1652	4550
552.6467	4530
555.1255	4473
557.6016	4503
560.079	4645
562.5557	4536
565.0318	4598
567.5092	4578
569.984	4592
572.456	4605
574.9294	4631
577.4022	4641
579.8762	4721
582.3456	4754
584.8163	4722
587.2863	4706
589.7557	4745
592.2224	4706
594.6924	4716
597.1578	4686
599.6245	4625
602.0905	4639
604.5538	4638
607.0206	4662
609.4825	4620
611.9459	4691
614.4066	4701
616.8686	4631
619.33	4603
621.7906	4719
624.2487	4668
626.708	4674
629.1647	4570
631.6207	4599
634.0801	4710
636.5348	4525
638.9888	4617
641.4442	4657
643.8969	4701
646.3509	4658
648.8022	4723
651.255	4612
653.705	4760
656.1544	4754
658.6031	4619
661.0532	4771
663.5026	4781
665.9493	4785
668.3954	4658
670.8409	4702
673.2877	4872
675.7318	4816
678.1752	4779
680.618	4750
683.0601	4786
685.5035	4683
687.9444	4861
690.3845	4840
692.824	4787
695.2628	4831
697.701	4909
700.1406	4759
702.5774	4840
705.0116	4827
707.4472	4835
709.8821	4789
712.3183	4815
714.7519	4829
717.1829	4943
719.6151	4987
722.0468	4934
724.4777	4849
726.908	4949
729.3377	4923
731.7667	4923
734.1931	4902
736.6208	4983
739.0498	5124
741.4742	5000
743.9	5037
746.3231	5066
748.7476	5066
751.1713	5071
753.5945	5170
756.015	5061
758.4368	5133
760.856	5201
763.2766	5087
765.6965	5219
768.1157	5206
770.5323	5116
772.9483	5214
775.3656	5107
777.7822	5210
780.1963	5175
782.6116	5215
785.0244	5193
787.4365	5231
789.8499	5194
792.2626	5150
794.6728	5191
797.0823	5218
799.4911	5156
801.8994	5113
804.3109	5155
806.7178	5251
809.124	5203
811.5297	5308
813.9347	5281
816.341	5229
818.7447	5295
821.1478	5315
823.5502	5276
825.952	5205
828.3531	5280
830.7556	5140
833.1554	5329
835.5546	5319
837.9532	5207
840.3511	5223
842.7504	5292
845.1451	5263
847.5411	5413
849.9365	5280
852.3312	5329
854.7272	5390
857.1187	5301
859.5115	5362
861.9037	5380
864.2952	5324
866.6842	5349
869.0764	5333
871.4661	5362
873.8531	5384
876.2415	5279
878.6272	5437
881.0162	5326
883.4026	5401
885.7866	5304
888.1717	5368
890.5543	5361
892.9382	5307
895.3215	5299
897.7041	5451
900.0842	5251
902.4655	5413
904.8443	5394
907.2244	5352
909.6039	5338
911.9808	5469
914.357	5402
916.7346	5471
919.1115	5491
921.4859	5607
923.8616	5664
926.2347	5652
928.6071	5561
930.979	5724
933.3541	5572
935.7247	5626
938.0946	5602
940.4639	5765
942.8326	5759
945.2026	5897
947.5701	5902
949.9369	6139
952.305	6259
954.6705	6448
957.0355	6885
959.4017	6904
961.7654	7142
964.1284	7185
966.4908	6880
968.8527	6555
971.2138	6433
973.5743	6200
975.9343	5865
978.2936	5706
980.6522	5703
983.0122	5578
985.3696	5584
987.7245	5440
990.0807	5589
992.4362	5500
994.7911	5626
997.1474	5465
999.4991	5590
1001.852	5578
1004.205	5508
1006.555	5640
1008.908	5635
1011.258	5496
1013.606	5592
1015.956	5581
1018.302	5585
1020.652	5587
1022.998	5594
1025.345	5624
1027.691	5667
1030.035	5631
1032.378	5726
1034.724	5637
1037.066	5650
1039.409	5598
1041.75	5603
1044.092	5673
1046.433	5677
1048.771	5761
1051.112	5694
1053.449	5669
1055.786	5685
1058.124	5666
1060.462	5679
1062.797	5634
1065.131	5824
1067.467	5791
1069.8	5854
1072.135	5761
1074.467	5852
1076.798	5763
1079.129	5735
1081.459	5793
1083.792	5727
1086.121	5747
1088.449	5660
1090.777	5663
1093.104	5600
1095.431	5691
1097.759	5692
1100.084	5689
1102.408	5656
1104.732	5619
1107.056	5721
1109.379	5723
1111.701	5620
1114.022	5638
1116.343	5660
1118.664	5708
1120.983	5658
1123.303	5643
1125.621	5640
1127.939	5696
1130.256	5649
1132.573	5609
1134.889	5668
1137.205	5677
1139.52	5551
1141.832	5618
1144.146	5731
1146.461	5704
1148.771	5584
1151.083	5621
1153.392	5596
1155.703	5673
1158.011	5726
1160.323	5581
1162.629	5736
1164.938	5677
1167.243	5771
1169.55	5644
1171.857	5655
1174.163	5721
1176.466	5712
1178.769	5694
1181.073	5711
1183.374	5739
1185.677	5681
1187.979	5623
1190.279	5621
1192.578	5681
1194.878	5684
1197.178	5656
1199.476	5795
1201.772	5630
1204.068	5647
1206.366	5762
1208.663	5704
1210.957	5716
1213.251	5700
1215.544	5635
1217.836	5776
1220.128	5766
1222.421	5665
1224.712	5678
1227.002	5702
1229.292	5738
1231.581	5752
1233.871	5827
1236.159	5857
1238.446	5828
1240.732	5786
1243.018	5977
1245.304	5994
1247.59	5917
1249.874	5921
1252.156	6014
1254.439	5937
1256.721	5923
1259.005	5957
1261.286	6030
1263.565	5887
1265.845	5892
1268.125	5891
1270.403	5908
1272.682	5963
1274.959	5911
1277.234	5905
1279.511	5888
1281.787	5875
1284.062	5860
1286.337	5766
1288.609	5815
1290.882	5859
1293.153	5835
1295.428	5753
1297.698	5907
1299.969	5778
1302.237	5795
1304.507	5843
1306.777	5800
1309.044	5802
1311.312	5715
1313.578	5692
1315.844	5759
1318.109	5710
1320.375	5814
1322.638	5761
1324.903	5807
1327.165	5797
1329.427	5799
1331.69	5827
1333.952	5925
1336.212	5732
1338.471	5805
1340.73	5792
1342.988	5795
1345.248	5800
1347.505	5695
1349.763	5888
1352.019	5732
1354.274	5747
1356.53	5713
1358.784	5754
1361.038	5934
1363.291	5782
1365.543	5744
1367.797	5812
1370.048	5923
1372.296	5749
1374.546	5807
1376.796	5842
1379.045	5871
1381.295	5877
1383.542	5843
1385.787	5766
1388.034	5901
1390.28	5940
1392.527	6039
1394.772	5868
1397.014	5886
1399.258	5927
1401.501	5921
1403.741	5941
1405.985	5967
1408.226	5882
1410.465	5933
1412.705	5947
1414.943	5933
1417.184	5998
1419.42	5981
1421.658	6018
1423.894	6069
1426.13	6017
1428.366	5937
1430.602	5962
1432.835	5927
1435.069	5958
1437.301	5960
1439.535	6076
1441.767	5975
1443.997	5985
1446.229	6098
1448.458	6264
1450.687	6148
1452.916	6046
1455.146	6205
1457.372	6174
1459.599	6149
1461.824	6155
1464.051	6182
1466.277	6047
1468.501	6052
1470.725	5929
1472.948	5876
1475.17	6047
1477.393	5925
1479.614	5968
1481.837	5906
1484.057	5859
1486.276	5779
1488.497	5768
1490.715	5814
1492.932	5919
1495.148	5849
1497.364	5783
1499.58	5737
1501.798	5823
1504.012	5852
1506.227	5794
1508.44	5678
1510.653	5763
1512.866	5744
1515.078	5715
1517.289	5774
1519.5	5718
1521.711	5733
1523.92	5883
1526.13	5796
1528.338	5713
1530.544	5794
1532.752	5762
1534.959	5775
1537.165	5790
1539.371	5782
1541.574	5743
1543.779	5803
1545.983	5905
1548.187	5792
1550.39	5768
1552.59	5823
1554.792	5827
1556.991	5760
1559.19	5817
1561.392	5873
1563.59	5854
1565.789	5857
1567.986	5831
1570.182	5814
1572.381	5969
1574.576	5825
1576.771	5873
1578.966	5971
1581.16	5971
1583.354	5969
1585.546	5914
1587.74	5921
1589.931	5887
1592.121	5958
1594.311	5906
1596.502	5855
1598.693	5987
1600.881	5899
1603.069	6055
1605.256	5977
1607.445	6014
1609.631	5962
1611.816	6004
1614.001	5911
1616.186	5872
1618.37	5971
1620.555	5912
1622.737	5943
1624.919	6022
1627.101	5962
1629.282	5918
1631.463	6082
1633.643	6090
1635.822	6094
1638.001	6023
1640.179	6147
1642.359	6128
1644.534	6066
1646.711	6057
1648.887	6080
1651.062	6181
1653.235	6093
1655.412	6138
1657.586	6170
1659.757	6037
1661.93	6143
1664.1	6094
1666.274	6187
1668.445	6168
1670.614	6120
1672.784	6006
1674.951	6081
1677.12	6182
1679.289	6063
1681.457	6068
1683.622	6094
1685.789	6081
1687.953	6081
1690.121	6100
1692.284	6089
1694.447	6100
1696.611	5955
1698.772	6054
1700.935	5914
1703.098	6022
1705.258	5988
1707.417	5866
1709.576	5945
1711.736	5884
1713.896	5938
1716.053	5964
1718.21	5984
1720.366	5820
1722.522	5822
1724.68	5791
1726.835	5896
1728.989	5889
1731.142	5871
1733.295	5813
1735.449	5863
1737.601	5981
1739.753	5842
1741.903	5983
1744.054	5804
1746.203	5976
1748.354	5904
1750.503	5877
1752.651	5919
1754.798	5951
1756.944	6032
1759.092	5959
1761.238	5937
1763.383	5895
1765.528	5922
1767.672	6041
1769.814	6018
1771.959	6079
1774.102	5927
1776.242	5962
1778.384	5951
1780.525	5962
1782.665	5899
1784.805	5981
1786.945	5973
1789.082	5893
1791.22	5995
1793.36	5982
1795.495	5912
1797.632	5879
1799.766	6041
1801.902	5899
1804.035	5997
1806.172	6008
1808.304	5887
1810.436	5940
1812.569	5922
1814.699	6075
1816.833	5980
1818.963	5912
1821.092	6005
1823.222	5910
1825.35	5940
1827.478	5866
1829.608	5992
1831.734	5943
1833.86	5980
1835.986	5958
1838.11	5924
1840.238	5926
1842.362	5906
1844.485	5888
1846.608	5932
1848.73	5875
1850.853	5881
1852.974	5821
1855.097	5823
1857.217	5948
1859.336	5897
1861.455	5946
1863.576	5897
1865.693	5945
1867.811	5971
1869.926	5938
1872.042	5864
1874.16	5925
1876.275	5849
1878.39	5940
1880.504	5853
1882.618	5883
1884.731	5895
1886.843	5894
1888.956	5913
1891.067	5929
1893.178	5935
1895.287	6029
1897.399	5977
1899.508	5922
1901.617	5977
1903.724	5983
1905.832	5891
1907.941	6061
1910.046	6031
1912.152	5912
1914.256	5960
1916.361	5986
1918.464	5979
1920.57	5921
1922.672	5987
1924.775	6024
1926.876	5936
1928.978	6056
1931.08	5944
1933.181	5979
1935.28	5974
1937.38	6033
1939.478	6096
1941.577	6025
1943.675	5973
1945.771	6024
1947.867	5999
1949.964	5940
1952.058	5873
1954.154	6032
1956.248	6036
1958.343	5973
1960.435	6023
1962.527	5972
1964.62	5994
1966.711	5904
1968.802	5879
1970.892	5916
1972.983	5933
1975.072	6004
1977.162	5996
1979.25	5877
1981.337	5923
1983.424	5937
1985.51	5913
1987.598	6021
1989.683	5880
1991.768	5982
1993.852	5852
1995.934	5859
1998.019	6020
2000.102	5966
2002.184	5913
2004.266	5978
2006.347	5961
2008.427	5988
2010.508	5908
2012.587	5873
2014.666	5870
2016.745	5872
2018.821	5857
2020.9	5942
2022.977	5937
2025.052	5809
2027.128	5888
2029.204	5895
2031.277	5933
2033.353	6034
2035.425	5885
2037.499	5901
2039.57	5833
2041.642	5913
2043.714	5835
2045.786	5846
2047.855	5863
2049.925	5910
2051.993	5871
2054.064	5861
2056.132	5863
2058.2	5928
2060.266	5954
2062.332	5870
2064.398	5855
2066.465	5848
2068.529	5938
2070.592	5961
2072.657	5942
2074.719	5807
2076.783	5920
2078.845	5873
2080.907	5921
2082.968	5940
2085.028	5868
2087.087	5941
2089.148	5863
2091.207	5949
2093.264	5924
2095.322	5988
2097.379	5885
2099.439	5973
2101.495	5943
2103.55	5962
2105.605	6001
2107.658	5867
2109.713	6014
2111.767	5821
2113.82	5931
2115.872	5894
2117.924	5896
2119.975	5915
2122.028	5851
2124.078	5850
2126.126	5841
2128.176	5871
2130.225	5935
2132.275	5797
2134.321	5914
2136.368	5864
2138.415	5925
2140.461	5808
2142.505	5869
2144.552	5882
2146.597	5791
2148.64	5897
2150.684	5945
2152.725	5890
2154.77	5859
2156.811	5910
2158.852	5854
2160.894	5809
2162.933	5817
2164.973	5843
2167.013	5834
2169.051	5802
2171.089	5913
2173.126	5875
2175.164	5891
2177.201	5803
2179.236	5752
2181.273	5825
2183.307	5663
2185.341	5795
2187.377	5723
2189.41	5851
2191.442	5816
2193.473	5812
2195.506	5741
2197.539	5800
2199.569	5798
2201.598	5747
2203.628	5679
2205.656	5739
2207.686	5777
2209.716	5659
2211.743	5698
2213.769	5704
2215.796	5721
2217.821	5721
2219.848	5729
2221.873	5858
2223.897	5702
2225.921	5745
2227.944	5743
2229.967	5765
2231.991	5741
2234.011	5779
2236.032	5721
2238.053	5655
2240.073	5719
2242.094	5717
2244.114	5720
2246.131	5791
2248.149	5789
2250.167	5745
2252.186	5664
2254.201	5762
2256.218	5807
2258.233	5745
2260.247	5712
2262.262	5649
2264.278	5810
2266.29	5669
2268.303	5649
2270.315	5753
2272.327	5731
2274.341	5807
2276.35	5677
2278.361	5727
2280.37	5696
2282.38	5771
2284.388	5695
2286.397	5743
2288.405	5730
2290.412	5677
2292.419	5714
2294.425	5744
2296.431	5729
2298.437	5760
2300.441	5714
2302.445	5691
2304.449	5795
2306.453	5539
2308.455	5669
2310.457	5635
2312.459	5624
2314.46	5659
2316.46	5655
2318.461	5682
2320.46	5680
2322.458	5678
2324.458	5683
2326.456	5621
2328.455	5771
2330.451	5619
2332.447	5485
2334.443	5683
2336.438	5538
2338.433	5637
2340.429	5679
2342.422	5514
2344.416	5575
2346.408	5572
2348.399	5586
2350.393	5626
2352.384	5653
2354.375	5562
2356.365	5599
2358.355	5547
2360.344	5559
2362.333	5682
2364.322	5519
2366.309	5541
2368.295	5605
2370.282	5609
2372.27	5548
2374.256	5381
2376.24	5586
2378.225	5590
2380.208	5583
2382.194	5559
2384.177	5405
2386.159	5397
2388.142	5467
2390.122	5418
2392.105	5621
2394.085	5492
2396.066	5463
2398.044	5499
2400.024	5573
2402.002	5515
2403.982	5504
2405.959	5466
2407.935	5510
2409.913	5548
2411.888	5491
2413.865	5455
2415.84	5601
2417.814	5526
2419.788	5510
2421.762	5631
2423.735	5421
2425.708	5431
2427.68	5510
2429.651	5590
2431.623	5453
2433.593	5479
2435.564	5449
2437.533	5476
2439.502	5470
2441.47	5436
2443.438	5488
2445.406	5386
2447.373	5394
2449.34	5448
2451.305	5451
2453.271	5555
2455.235	5519
2457.201	5431
2459.165	5426
2461.129	5468
2463.092	5438
2465.054	5421
2467.018	5453
2468.978	5433
2470.939	5315
2472.899	5490
2474.86	5523
2476.819	5463
2478.778	5319
2480.737	5433
2482.695	5410
2484.653	5450
2486.609	5358
2488.567	5369
2490.524	5412
2492.478	5370
2494.433	5469
2496.387	5466
2498.343	5410
2500.297	5463
2502.249	5456
2504.202	5385
2506.153	5349
2508.105	5448
2510.057	5385
2512.008	5433
2513.957	5401
2515.906	5294
2517.855	5428
2519.805	5380
2521.754	5335
2523.7	5316
2525.647	5382
2527.594	5418
2529.54	5247
2531.486	5380
2533.431	5481
2535.376	5418
2537.32	5365
2539.263	5368
2541.207	5382
2543.151	5383
2545.093	5357
2547.034	5490
2548.975	5399
2550.917	5315
2552.856	5360
2554.796	5342
2556.735	5342
2558.673	5372
2560.611	5496
2562.55	5300
2564.487	5453
2566.424	5386
2568.36	5312
2570.296	5259
2572.232	5320
2574.167	5479
2576.101	5401
2578.035	5235
2579.969	5413
2581.902	5422
2583.834	5409
2585.766	5388
2587.698	5340
2589.628	5169
2591.557	5299
2593.489	5310
2595.419	5393
2597.348	5309
2599.275	5431
2601.204	5300
2603.131	5316
2605.059	5392
2606.986	5328
2608.911	5340
2610.837	5320
2612.76	5290
2614.687	5403
2616.61	5355
2618.534	5315
2620.457	5329
2622.38	5373
2624.302	5377
2626.225	5347
2628.145	5328
2630.067	5330
2631.986	5422
2633.906	5436
2635.827	5375
2637.745	5296
2639.662	5280
2641.581	5464
2643.498	5427
2645.415	5383
2647.331	5333
2649.248	5414
2651.163	5439
2653.077	5358
2654.993	5286
2656.906	5337
2658.821	5329
2660.733	5292
2662.646	5303
2664.557	5220
2666.47	5333
2668.381	5328
2670.291	5290
2672.201	5362
2674.11	5302
2676.021	5288
2677.929	5247
2679.837	5298
2681.745	5245
2683.652	5294
2685.56	5259
2687.466	5256
2689.371	5295
2691.276	5291
2693.181	5315
2695.085	5302
2696.991	5213
2698.893	5392
2700.796	5255
2702.698	5257
2704.601	5323
2706.502	5343
2708.404	5199
2710.304	5325
2712.203	5274
2714.103	5218
2716.003	5342
2717.902	5300
2719.8	5263
2721.697	5288
2723.594	5281
2725.49	5277
2727.389	5272
2729.283	5232
2731.179	5257
2733.073	5281
2734.968	5201
2736.863	5203
2738.757	5208
2740.649	5213
2742.541	5194
2744.433	5259
2746.324	5213
2748.216	5217
2750.107	5155
2751.997	5176
2753.886	5105
2755.776	5167
2757.666	5235
2759.553	5305
2761.44	5214
2763.327	5238
2765.215	5209
2767.102	5221
2768.988	5097
2770.873	5199
2772.757	5288
2774.641	5057
2776.525	5220
2778.41	5217
2780.292	5116
2782.175	5193
2784.057	5284
2785.938	5218
2787.821	5226
2789.701	5203
2791.581	5084
2793.461	5175
2795.34	5093
2797.219	5085
2799.099	5130
2800.975	5140
2802.853	5029
2804.73	5121
2806.606	5081
2808.484	5138
2810.358	5077
2812.233	5140
2814.108	5071
2815.981	5134
2817.857	5117
2819.73	5124
2821.602	5149
2823.474	5106
2825.346	5110
2827.217	4993
2829.089	5178
2830.959	5148
2832.829	5177
2834.698	5166
2836.567	5149
2838.436	5220
2840.305	5188
2842.172	5244
2844.04	5146
2845.905	5158
2847.772	5173
2849.639	5133
2851.503	5244
2853.369	5201
2855.232	5167
2857.096	5244
2858.961	5272
2860.824	5286
2862.686	5249
2864.547	5328
2866.41	5296
2868.272	5304
2870.132	5332
2871.992	5525
2873.851	5463
2875.711	5492
2877.57	5457
2879.429	5498
2881.287	5685
2883.144	5666
2885.001	5717
2886.857	5654
2888.714	5584
2890.57	5681
2892.425	5631
2894.279	5757
2896.133	5674
2897.987	5629
2899.842	5733
2901.694	5614
2903.547	5659
2905.397	5566
2907.249	5643
2909.101	5540
2910.952	5590
2912.802	5508
2914.652	5776
2916.5	5737
2918.35	5764
2920.198	5848
2922.045	5817
2923.893	6098
2925.74	6047
2927.585	6068
2929.433	6173
2931.279	6163
2933.123	6140
2934.968	6179
2936.811	6309
2938.656	6465
2940.5	6431
2942.342	6336
2944.185	6480
2946.026	6311
2947.87	6441
2949.71	6443
2951.549	6358
2953.39	6263
2955.229	6191
2957.069	6266
2958.908	6114
2960.746	6098
2962.584	6025
2964.421	6047
2966.257	6054
2968.094	5857
2969.931	5942
2971.766	5923
2973.601	5748
2975.435	5900
2977.27	5705
2979.105	5729
2980.938	5767
2982.77	5592
2984.602	5580
2986.434	5620
2988.267	5682
2990.097	5688
2991.927	5465
2993.757	5481
2995.587	5519
2997.417	5419
2999.246	5433
3001.074	5341
3002.902	5359
3004.729	5346
3006.556	5180
3008.384	5197
3010.21	5158
3012.036	5120
3013.861	5145
3015.684	5160
3017.51	4956
3019.334	5068
3021.157	4973
3022.981	4962
3024.802	4896
3026.624	5007
3028.448	4995
3030.267	4952
3032.088	4866
3033.909	4812
3035.728	4924
3037.549	4873
3039.368	4882
3041.186	4853
3043.004	4874
3044.821	4845
3046.64	4893
3048.455	4782
3050.272	4756
3052.087	4787
3053.903	4845
3055.717	4712
3057.534	4876
3059.347	4757
3061.16	4876
3062.974	4777
3064.785	4833
3066.598	4788
3068.411	4797
3070.222	4741
3072.032	4832
3073.844	4817
3075.653	4730
3077.463	4763
3079.272	4826
3081.08	4768
3082.889	4694
3084.697	4759
3086.505	4678
3088.312	4683
3090.118	4696
3091.924	4728
3093.729	4686
3095.535	4680
3097.34	4705
3099.144	4666
3100.947	4623
3102.75	4581
3104.553	4625
3106.357	4704
3108.159	4667
3109.961	4687
3111.762	4618
3113.562	4683
3115.365	4578
3117.164	4663
3118.964	4628
3120.761	4567
3122.56	4627
3124.36	4540
3126.158	4621
3127.954	4442
3129.75	4582
3131.547	4600
3133.343	4501
3135.139	4575
3136.934	4479
3138.729	4578
3140.522	4536
3142.317	4577
3144.11	4542
3145.904	4491
3147.695	4418
3149.488	4583
3151.28	4592
3153.07	4485
3154.863	4511
3156.652	4520
3158.441	4510
3160.231	4544
3162.019	4463
3163.81	4568
3165.597	4507
3167.384	4368
3169.172	4557
3170.958	4451
3172.745	4514
3174.532	4512
3176.317	4414
3178.101	4528
3179.885	4446
3181.67	4478
3183.455	4444
3185.238	4555
3187.02	4526
3188.802	4411
3190.585	4477
3192.368	4442
3194.149	4489
3195.929	4557
3197.709	4452
3199.489	4444
3201.268	4426
3203.048	4537
3204.826	4576
3206.604	4469
3208.382	4517
3210.159	4490
3211.937	4437
3213.713	4440
3215.489	4506
3217.263	4439
3219.038	4474
3220.815	4470
3222.589	4479
3224.363	4536
3226.136	4402
3227.908	4488
3229.681	4474
3231.454	4451
3233.226	4468
3234.996	4439
3236.767	4476
3238.538	4479
3240.308	4509
3242.078	4390
3243.847	4449
3245.615	4510
3247.384	4433
3249.15	4533
3250.92	4520
3252.686	4394
3254.453	4421
3256.218	4420
3257.984	4401
3259.75	4416
3261.515	4482
3263.279	4469
3265.044	4479
3266.806	4460
3268.57	4445
3270.334	4456
3272.095	4379
3273.856	4532
3275.619	4515
3277.379	4382
3279.14	4394
3280.9	4497
3282.661	4399
3284.419	4418
3286.178	4482
3287.937	4417
3289.695	4464
3291.453	4453
3293.21	4535
3294.967	4499
3296.723	4461
3298.48	4465
3300.235	4436
3301.99	4427
3303.744	4423
3305.498	4423
3307.253	4439
3309.006	4429
3310.759	4521
3312.511	4459
3314.263	4504
3316.017	4499
3317.768	4496
3319.519	4475
3321.268	4487
3323.018	4474
3324.767	4505
3326.518	4499
3328.267	4476
3330.014	4504
3331.762	4540
3333.509	4430
3335.258	4407
3337.003	4380
3338.75	4401
3340.496	4416
3342.24	4360
3343.987	4521
3345.732	4465
3347.475	4367
3349.219	4403
3350.961	4385
3352.705	4432
3354.448	4368
3356.19	4328
3357.931	4388
3359.672	4310
3361.412	4383
3363.155	4383
3364.894	4334
3366.633	4361
3368.372	4343
3370.11	4396
3371.849	4359
3373.588	4434
3375.325	4316
3377.061	4339
3378.799	4275
3380.534	4336
3382.271	4348
3384.006	4359
3385.741	4399
3387.475	4270
3389.209	4357
3390.944	4275
3392.677	4362
3394.409	4186
3396.143	4331
3397.874	4304
3399.606	4301
3401.338	4291
3403.069	4213
3404.799	4235
3406.528	4281
3408.258	4238
3409.988	4277
3411.717	4308
3413.445	4209
3415.173	4239
3416.899	4285
3418.626	4330
3420.354	4213
3422.08	4151
3423.806	4208
3425.531	4182
3427.255	4216
3428.981	4245
3430.705	4199
3432.429	4132
3434.151	4060
3435.875	4154
3437.599	4153
3439.321	4201
3441.042	4190
3442.763	4172
3444.483	4210
3446.204	4125
3447.926	4190
3449.645	4048
3451.364	4116
3453.082	4125
3454.801	4170
3456.52	4100
3458.238	4154
3459.954	4167
3461.671	4084
3463.387	4129
3465.104	4117
3466.82	4091
3468.534	4102
3470.25	4039
3471.963	4126
3473.676	4046
3475.392	4095
3477.104	4072
3478.817	4082
3480.528	4074
3482.241	4155
3483.954	4072
3485.664	4047
3487.374	3965
3489.084	4012
3490.795	3968
3492.504	3970
3494.214	3962
3495.922	3972
3497.63	3982
3499.338	4015
3501.045	3984
3502.753	3986
3504.459	3973
3506.166	3881
3507.871	3964
3509.576	3883
3511.283	3972
3512.987	3909
3514.691	3955
3516.395	3890
3518.098	3919
3519.8	3909
3521.504	3834
3523.206	3905
3524.908	3930
3526.609	3823
3528.309	3883
3530.011	3876
3531.711	3911
3533.411	3831
3535.109	3807
3536.808	3911
3538.507	3910
3540.206	3843
3541.904	3799
3543.601	3880
3545.297	3801
3546.994	3901
3548.69	3947
3550.387	3807
3552.081	3864
3553.776	3801
3555.47	3862
3557.166	3844
3558.859	3845
3560.553	3778
3562.245	3820
3563.938	3761
3565.629	3696
3567.322	3800
3569.014	3831
3570.704	3794
3572.394	3757
3574.084	3787
3575.775	3787
3577.464	3756
3579.152	3845
3580.842	3747
3582.529	3782
3584.216	3713
3585.905	3759
3587.591	3755
3589.279	3692
3590.964	3692
3592.649	3682
3594.336	3703
3596.021	3707
3597.705	3737
3599.388	3632
3601.072	3744
3602.757	3675
3604.439	3715
3606.122	3655
3607.803	3695
3609.485	3689
3611.167	3655
3612.849	3549
3614.529	3599
3616.208	3648
3617.888	3592
3619.567	3567
3621.247	3688
3622.926	3632
3624.603	3590
3626.281	3657
3627.958	3570
3629.635	3486
3631.312	3577
3632.989	3518
3634.665	3551
3636.339	3561
3638.014	3527
3639.691	3614
3641.364	3587
3643.038	3501
3644.71	3608
3646.384	3468
3648.058	3578
3649.729	3570
3651.402	3421
3653.073	3510
3654.744	3528
3656.414	3505
3658.085	3495
3659.755	3478
3661.424	3486
3663.094	3518
3664.762	3447
3666.431	3464
3668.099	3481
3669.766	3498
3671.433	3413
3673.099	3541
3674.768	3486
3676.433	3505
3678.098	3528
3679.763	3539
3681.428	3484
3683.093	3465
3684.757	3444
3686.421	3452
3688.083	3420
3689.746	3437
3691.408	3484
3693.071	3429
3694.733	3418
3696.394	3387
3698.054	3560
3699.715	3405
3701.375	3417
3703.036	3465
3704.695	3398
3706.354	3451
3708.012	3356
3709.67	3393
3711.329	3405
3712.987	3442
3714.644	3404
3716.299	3427
3717.955	3415
3719.613	3371
3721.268	3341
3722.923	3330
3724.577	3340
3726.231	3411
3727.885	3372
3729.539	3387
3731.192	3353
3732.845	3353
3734.497	3353
3736.149	3316
3737.802	3364
3739.453	3365
3741.104	3312
3742.753	3352
3744.404	3352
3746.052	3336
3747.704	3398
3749.352	3355
3751	3347
3752.648	3349
3754.296	3410
3755.944	3328
3757.59	3331
3759.238	3236
3760.883	3376
3762.528	3379
3764.176	3349
3765.82	3278
3767.464	3340
3769.109	3312
3770.753	3293
3772.396	3216
3774.04	3294
3775.683	3302
3777.325	3258
3778.967	3240
3780.608	3299
3782.25	3312
3783.89	3269
3785.531	3288
3787.17	3279
3788.81	3269
3790.45	3228
3792.09	3245
3793.729	3258
3795.366	3223
3797.003	3183
3798.64	3275
3800.278	3178
3801.915	3210
3803.551	3194
3805.187	3257
3806.822	3281
3808.458	3216
3810.093	3183
3811.726	3234
3813.36	3228
3814.994	3150
3816.627	3259
3818.262	3228
3819.893	3241
3821.525	3202
3823.157	3226
3824.787	3166
3826.42	3213
3828.051	3172
3829.68	3193
3831.31	3144
3832.938	3190
3834.569	3186
3836.198	3204
3837.825	3136
3839.454	3140
3841.08	3131
3842.708	3115
3844.335	3157
3845.962	3114
3847.587	3214
3849.212	3136
3850.838	3133
3852.463	3176
3854.089	3066
3855.712	3135
3857.335	3164
3858.959	3179
3860.582	3108
3862.205	3086
3863.827	3095
3865.449	3065
3867.07	3089
3868.691	3115
3870.312	3136
3871.933	3054
3873.553	3166
3875.173	3128
3876.792	3222
3878.411	3073
3880.03	3079
3881.647	3076
3883.265	3103
3884.882	3110
3886.499	3037
3888.116	3023
3889.732	3057
3891.348	3073
3892.964	3104
3894.579	3043
3896.195	3047
3897.809	3041
3899.423	3017
3901.036	3019
3902.648	3028
3904.261	3071
3905.875	3051
3907.487	3079
3909.099	3101
3910.709	2994
3912.321	3035
3913.933	3101
3915.542	3081
3917.152	3010
3918.762	3037
3920.37	3111
3921.98	2987
3923.589	3056
3925.196	3051
3926.804	3012
3928.41	3039
3930.018	3031
3931.626	2988
3933.231	3016
3934.838	3045
3936.442	2945
3938.046	3042
3939.653	3041
3941.257	3067
3942.861	2961
3944.464	2998
3946.068	3020
3947.67	3002
3949.273	2997
3950.876	2952
3952.477	2992
3954.078	2960
3955.678	3003
3957.281	2963
3958.881	2975
3960.48	2990
3962.079	2926
3963.678	2980
3965.279	3046
3966.877	2960
3968.475	2945
3970.072	2910
3971.669	2974
3973.266	2972
3974.864	2972
3976.459	2879
3978.055	2998
3979.65	2925
3981.245	2881
3982.841	2936
3984.436	2953
3986.03	2962
3987.623	2872
3989.216	2969
3990.809	2923
3992.403	2881
3993.995	2903
3995.586	2852
3997.177	2848
3998.768	2820
4000.361	2854
4001.951	2920
4003.54	2892
4005.13	2902
4006.719	2887
4008.31	2884
4009.897	2849
4011.485	2852
4013.073	2827
4014.66	2822
4016.247	2809
4017.834	2788
4019.421	2828
4021.006	2838
4022.592	2870
4024.178	2860
4025.763	2809
4027.348	2846
4028.932	2862
4030.515	2797
4032.099	2749
4033.682	2753
4035.266	2778
4036.847	2780
4038.429	2755
4040.011	2730
4041.592	2723
4043.173	2820
4044.755	2765
4046.334	2816
4047.913	2796
4049.494	2770
4051.074	2791
4052.652	2752
4054.23	2770
4055.807	2757
4057.385	2786
4058.963	2690
4060.541	2756
4062.117	2755
4063.693	2724
4065.269	2691
4066.844	2753
4068.42	2727
4069.995	2709
4071.569	2719
4073.143	2653
4074.716	2723
4076.291	2721
4077.864	2726
4079.436	2732
4081.009	2694
4082.58	2805
4084.152	2708
4085.723	2733
4087.294	2721
4088.865	2761
4090.435	2696
4092.005	2707
4093.574	2726
4095.143	2738
4096.712	2662
4098.279	2699
4099.848	2673
4101.416	2679
4102.984	2643
4104.55	2650
4106.117	2694
4107.682	2723
4109.248	2672
4110.815	2644
4112.379	2660
4113.945	2703
4115.508	2640
4117.073	2746
4118.637	2654
4120.201	2630
4121.763	2630
4123.325	2701
4124.888	2692
4126.449	2654
4128.013	2673
4129.573	2639
4131.133	2603
4132.694	2623
4134.254	2660
4135.814	2642
4137.374	2654
4138.933	2582
4140.491	2621
4142.049	2603
4143.607	2592
4145.167	2672
4146.724	2605
4148.28	2577
4149.836	2593
4151.392	2550
4152.949	2621
4154.504	2528
4156.059	2610
4157.614	2584
4159.168	2592
4160.723	2560
4162.277	2573
4163.83	2602
4165.383	2584
4166.936	2529
4168.488	2556
4170.041	2552
4171.593	2483
4173.144	2566
4174.695	2505
4176.246	2590
4177.796	2514
4179.346	2503
4180.896	2579
4182.445	2476
4183.994	2571
4185.542	2541
4187.091	2519
4188.639	2519
4190.185	2506
4191.732	2455
4193.279	2513
4194.826	2530
4196.373	2533
4197.918	2514
4199.463	2488
4201.008	2479
4202.553	2543
4204.098	2498
4205.641	2494
4207.185	2529
4208.728	2457
4210.271	2530
4211.814	2493
4213.357	2485
4214.898	2430
4216.439	2462
4217.98	2504
4219.522	2455
4221.062	2476
4222.603	2465
4224.142	2439
4225.681	2424
4227.222	2423
4228.76	2462
4230.298	2394
4231.835	2418
4233.373	2439
4234.911	2454
4236.449	2500
4237.985	2526
4239.521	2426
4241.057	2415
4242.592	2448
4244.128	2416
4245.663	2379
4247.197	2434
4248.731	2453
4250.265	2463
4251.798	2462
4253.333	2481
4254.865	2436
4256.397	2378
4257.93	2394
4259.461	2425
4260.994	2413
4262.525	2481
4264.056	2407
4265.586	2385
4267.115	2354
4268.646	2455
4270.176	2477
4271.705	2404
4273.232	2429
4274.761	2434
4276.289	2400
4277.818	2407
4279.345	2391
4280.872	2412
4282.399	2423
4283.924	2341
4285.452	2430
4286.976	2366
4288.502	2441
4290.026	2395
4291.551	2392
4293.074	2352
4294.6	2345
4296.123	2316
4297.646	2315
4299.168	2352
4300.691	2369
4302.214	2342
4303.736	2391
4305.257	2330
4306.778	2413
4308.299	2389
4309.82	2337
4311.34	2318
4312.86	2394
4314.379	2338
