400.0745	4055
402.597	4105
405.1208	4156
407.6419	4118
410.1623	4165
412.6819	4194
415.201	4207
417.7172	4312
420.2369	4355
422.7538	4439
425.2701	4483
427.7856	4566
430.3005	4540
432.8147	4584
435.3282	4621
437.841	4585
440.3511	4502
442.8625	4524
445.3753	4516
447.8854	4602
450.3927	4645
452.9014	4507
455.4073	4558
457.9146	4379
460.4233	4416
462.9272	4491
465.4325	4463
467.935	4357
470.4389	4404
472.9421	4516
475.4446	4362
477.9444	4286
480.4456	4379
482.944	4402
485.4417	4443
487.9429	4493
490.4393	4480
492.935	4474
495.4321	4474
497.9264	4578
500.4221	4493
502.9171	4469
505.4094	4406
507.9011	4515
510.392	4502
512.8864	4441
515.3759	4545
517.8649	4402
520.3531	4508
522.8406	4470
525.3275	4531
527.8178	4573
530.3033	4554
532.7881	4536
535.2723	4467
537.7558	4654
540.2407	4541
542.7228	4626
545.2043	4573
547.6851	4587
550.1652	4596
552.6467	4647
555.1255	4651
557.6016	4541
560.079	4578
562.5557	4689
565.0318	4628
567.5092	4765
569.984	4778
572.456	4696
574.9294	4729
577.4022	4775
579.8762	4891
582.3456	4903
584.8163	4866
587.2863	4847
589.7557	4963
592.2224	4823
594.6924	4927
597.1578	4901
599.6245	4897
602.0905	4750
604.5538	4780
607.0206	4795
609.4825	4716
611.9459	4749
614.4066	4762
616.8686	4783
619.33	4816
621.7906	4744
624.2487	4694
626.708	4763
629.1647	4680
631.6207	4672
634.0801	4664
636.5348	4675
638.9888	4622
641.4442	4694
643.8969	4676
646.3509	4675
648.8022	4784
651.255	4618
653.705	4665
656.1544	4778
658.6031	4752
661.0532	4810
663.5026	4823
665.9493	4718
668.3954	4721
670.8409	4773
673.2877	4806
675.7318	4744
678.1752	4772
680.618	4748
683.0601	4855
685.5035	4815
687.9444	4850
690.3845	4840
692.824	4854
695.2628	4782
697.701	4844
700.1406	4811
702.5774	4884
705.0116	4913
707.4472	4963
709.8821	4903
712.3183	4970
714.7519	4991
717.1829	4908
719.6151	4808
722.0468	4938
724.4777	5028
726.908	4991
729.3377	4908
731.7667	4888
734.1931	5006
736.6208	5030
739.0498	4989
741.4742	5061
743.9	5099
746.3231	5000
748.7476	5074
751.1713	5146
753.5945	5093
756.015	5136
758.4368	5120
760.856	5116
763.2766	5042
765.6965	5148
768.1157	5165
770.5323	5215
772.9483	5154
775.3656	5092
777.7822	5208
780.1963	5229
782.6116	5170
785.0244	5111
787.4365	5138
789.8499	5190
792.2626	5175
794.6728	5004
797.0823	5223
799.4911	5201
801.8994	5061
804.3109	5221
806.7178	5264
809.124	5097
811.5297	5269
813.9347	5331
816.341	5327
818.7447	5260
821.1478	5267
823.5502	5221
825.952	5232
828.3531	5323
830.7556	5160
833.1554	5183
835.5546	5240
837.9532	5283
840.3511	5273
842.7504	5342
845.1451	5443
847.5411	5300
849.9365	5398
852.3312	5423
854.7272	5438
857.1187	5530
859.5115	5483
861.9037	5298
864.2952	5449
866.6842	5387
869.0764	5399
871.4661	5395
873.8531	5399
876.2415	5295
878.6272	5399
881.0162	5333
883.4026	5456
885.7866	5395
888.1717	5412
890.5543	5457
892.9382	5367
895.3215	5379
897.7041	5422
900.0842	5304
902.4655	5334
904.8443	5473
907.2244	5433
909.6039	5454
911.9808	5487
914.357	5513
916.7346	5657
919.1115	5594
921.4859	5815
923.8616	5780
926.2347	5804
928.6071	5750
930.979	5903
933.3541	5854
935.7247	5863
938.0946	5998
940.4639	5969
942.8326	6181
945.2026	6211
947.5701	6339
949.9369	6614
952.305	6991
954.6705	7393
957.0355	7776
959.4017	8337
961.7654	8569
964.1284	8736
966.4908	8294
968.8527	7980
971.2138	7152
973.5743	6848
975.9343	6335
978.2936	6215
980.6522	5989
983.0122	5832
985.3696	5779
987.7245	5653
990.0807	5670
992.4362	5686
994.7911	5702
997.1474	5628
999.4991	5683
1001.852	5707
1004.205	5731
1006.555	5630
1008.908	5578
1011.258	5665
1013.606	5660
1015.956	5699
1018.302	5772
1020.652	5755
1022.998	5721
1025.345	5845
1027.691	5704
1030.035	5840
1032.378	5868
1034.724	5796
1037.066	5855
1039.409	5840
1041.75	5705
1044.092	5825
1046.433	5824
1048.771	5819
1051.112	5944
1053.449	5801
1055.786	5894
1058.124	5893
1060.462	5911
1062.797	5814
1065.131	5976
1067.467	6114
1069.8	6061
1072.135	6103
1074.467	5999
1076.798	6120
1079.129	6012
1081.459	6098
1083.792	5885
1086.121	5891
1088.449	5885
1090.777	5955
1093.104	5705
1095.431	5800
1097.759	5738
1100.084	5751
1102.408	5745
1104.732	5778
1107.056	5739
1109.379	5711
1111.701	5688
1114.022	5824
1116.343	5756
1118.664	5725
1120.983	5685
1123.303	5725
1125.621	5694
1127.939	5709
1130.256	5659
1132.573	5659
1134.889	5675
1137.205	5706
1139.52	5666
1141.832	5812
1144.146	5714
1146.461	5671
1148.771	5707
1151.083	5645
1153.392	5720
1155.703	5705
1158.011	5599
1160.323	5641
1162.629	5556
1164.938	5719
1167.243	5602
1169.55	5715
1171.857	5632
1174.163	5654
1176.466	5552
1178.769	5680
1181.073	5759
1183.374	5709
1185.677	5633
1187.979	5715
1190.279	5606
1192.578	5621
1194.878	5671
1197.178	5552
1199.476	5701
1201.772	5764
1204.068	5650
1206.366	5693
1208.663	5696
1210.957	5675
1213.251	5709
1215.544	5779
1217.836	5799
1220.128	5729
1222.421	5650
1224.712	5768
1227.002	5811
1229.292	5804
1231.581	5854
1233.871	5890
1236.159	5875
1238.446	5901
1240.732	5888
1243.018	5822
1245.304	5974
1247.59	5951
1249.874	5978
1252.156	5971
1254.439	5980
1256.721	5951
1259.005	5991
1261.286	5954
1263.565	6010
1265.845	6029
1268.125	5982
1270.403	6033
1272.682	5894
1274.959	5886
1277.234	6004
1279.511	5933
1281.787	5878
1284.062	5869
1286.337	5907
1288.609	5853
1290.882	5856
1293.153	5909
1295.428	5840
1297.698	5875
1299.969	5865
1302.237	5787
1304.507	5810
1306.777	5824
1309.044	5805
1311.312	5766
1313.578	5875
1315.844	5792
1318.109	5911
1320.375	5708
1322.638	5778
1324.903	5702
1327.165	5879
1329.427	5822
1331.69	5913
1333.952	5851
1336.212	5923
1338.471	5870
1340.73	5871
1342.988	5780
1345.248	5838
1347.505	5798
1349.763	5858
1352.019	5716
1354.274	5767
1356.53	5878
1358.784	5763
1361.038	5834
1363.291	5695
1365.543	5791
1367.797	5706
1370.048	5835
1372.296	5900
1374.546	5808
1376.796	5907
1379.045	5870
1381.295	5746
1383.542	5870
1385.787	5869
1388.034	5832
1390.28	5965
1392.527	5916
1394.772	6020
1397.014	6154
1399.258	6041
1401.501	6116
1403.741	6146
1405.985	6032
1408.226	5984
1410.465	6045
1412.705	6065
1414.943	6012
1417.184	6102
1419.42	6080
1421.658	6093
1423.894	6101
1426.13	5999
1428.366	6038
1430.602	6133
1432.835	6146
1435.069	6017
1437.301	6041
1439.535	6048
1441.767	6233
1443.997	6191
1446.229	6174
1448.458	6195
1450.687	6222
1452.916	6065
1455.146	6197
1457.372	6294
1459.599	6240
1461.824	6234
1464.051	6304
1466.277	6253
1468.501	6243
1470.725	6117
1472.948	6073
1475.17	6012
1477.393	5959
1479.614	5945
1481.837	5898
1484.057	5780
1486.276	5816
1488.497	5753
1490.715	5842
1492.932	5729
1495.148	5733
1497.364	5865
1499.58	5904
1501.798	5842
1504.012	5789
1506.227	5826
1508.44	5756
1510.653	5728
1512.866	5750
1515.078	5683
1517.289	5863
1519.5	5738
1521.711	5712
1523.92	5764
1526.13	5702
1528.338	5827
1530.544	5735
1532.752	5769
1534.959	5781
1537.165	5734
1539.371	5744
1541.574	5763
1543.779	5738
1545.983	5820
1548.187	5808
1550.39	5781
1552.59	5851
1554.792	5744
1556.991	5762
1559.19	5921
1561.392	5851
1563.59	5854
1565.789	5899
1567.986	5865
1570.182	5923
1572.381	5870
1574.576	5887
1576.771	5895
1578.966	5858
1581.16	5959
1583.354	6020
1585.546	5888
1587.74	5946
1589.931	5974
1592.121	5958
1594.311	5937
1596.502	5918
1598.693	5919
1600.881	5981
1603.069	6092
1605.256	5986
1607.445	5968
1609.631	6007
1611.816	5975
1614.001	6003
1616.186	5915
1618.37	6035
1620.555	6083
1622.737	5937
1624.919	5973
1627.101	5904
1629.282	5971
1631.463	5992
1633.643	6174
1635.822	6145
1638.001	6131
1640.179	6086
1642.359	6076
1644.534	6082
1646.711	6107
1648.887	6037
1651.062	6033
1653.235	6049
1655.412	6143
1657.586	6206
1659.757	6219
1661.93	6065
1664.1	6148
1666.274	6219
1668.445	6084
1670.614	6229
1672.784	6264
1674.951	6215
1677.12	6085
1679.289	6156
1681.457	6025
1683.622	6115
1685.789	6144
1687.953	6054
1690.121	6079
1692.284	6085
1694.447	6081
1696.611	6113
1698.772	5944
1700.935	6069
1703.098	5951
1705.258	5999
1707.417	5944
1709.576	5928
1711.736	5869
1713.896	5964
1716.053	5936
1718.21	5981
1720.366	5881
1722.522	5935
1724.68	5991
1726.835	5937
1728.989	5828
1731.142	5930
1733.295	5879
1735.449	5878
1737.601	5970
1739.753	5873
1741.903	5902
1744.054	5937
1746.203	5933
1748.354	5864
1750.503	5832
1752.651	5848
1754.798	5931
1756.944	5826
1759.092	5823
1761.238	6007
1763.383	5933
1765.528	5870
1767.672	5910
1769.814	5976
1771.959	5928
1774.102	5896
1776.242	5909
1778.384	5945
1780.525	5943
1782.665	5852
1784.805	5919
1786.945	5929
1789.082	5811
1791.22	5899
1793.36	5886
1795.495	5930
1797.632	5922
1799.766	5969
1801.902	5914
1804.035	6015
1806.172	5862
1808.304	6074
1810.436	5929
1812.569	5822
1814.699	5865
1816.833	5861
1818.963	5882
1821.092	5841
1823.222	5900
1825.35	5842
1827.478	5988
1829.608	5886
1831.734	5865
1833.86	5882
1835.986	5896
1838.11	5932
1840.238	5782
1842.362	5854
1844.485	5967
1846.608	5945
1848.73	5865
1850.853	5830
1852.974	5954
1855.097	5845
1857.217	5802
1859.336	5881
1861.455	5905
1863.576	5868
1865.693	5872
1867.811	5919
1869.926	5785
1872.042	5817
1874.16	5804
1876.275	5797
1878.39	5850
1880.504	5899
1882.618	5908
1884.731	5758
1886.843	5953
1888.956	5855
1891.067	5799
1893.178	5854
1895.287	5884
1897.399	6032
1899.508	5858
1901.617	5939
1903.724	5907
1905.832	5936
1907.941	5889
1910.046	5950
1912.152	5911
1914.256	5918
1916.361	6006
1918.464	5936
1920.57	5904
1922.672	6009
1924.775	5949
1926.876	5959
1928.978	5917
1931.08	6009
1933.181	5940
1935.28	5894
1937.38	5918
1939.478	5937
1941.577	5867
1943.675	5989
1945.771	5916
1947.867	5866
1949.964	6012
1952.058	5916
1954.154	5949
1956.248	5984
1958.343	5871
1960.435	5949
1962.527	5925
1964.62	5871
1966.711	5905
1968.802	5837
1970.892	5829
1972.983	5970
1975.072	5895
1977.162	5896
1979.25	5913
1981.337	5988
1983.424	5925
1985.51	5807
1987.598	5854
1989.683	5847
1991.768	5827
1993.852	5847
1995.934	5897
1998.019	5884
2000.102	5833
2002.184	5996
2004.266	5963
2006.347	5905
2008.427	5860
2010.508	5802
2012.587	5837
2014.666	5792
2016.745	5824
2018.821	5821
2020.9	5844
2022.977	5895
2025.052	5910
2027.128	5924
2029.204	5956
2031.277	5788
2033.353	5791
2035.425	5789
2037.499	5931
2039.57	5907
2041.642	5869
2043.714	5905
2045.786	5951
2047.855	5861
2049.925	5915
2051.993	5931
2054.064	5882
2056.132	5868
2058.2	5913
2060.266	5927
2062.332	5785
2064.398	5940
2066.465	5919
2068.529	5954
2070.592	5895
2072.657	5729
2074.719	5893
2076.783	5821
2078.845	5804
2080.907	5867
2082.968	5821
2085.028	5895
2087.087	5966
2089.148	5862
2091.207	5854
2093.264	5849
2095.322	5939
2097.379	5837
2099.439	5962
2101.495	5931
2103.55	5844
2105.605	5979
2107.658	5871
2109.713	5869
2111.767	5811
2113.82	5876
2115.872	5903
2117.924	5962
2119.975	5855
2122.028	5853
2124.078	5921
2126.126	5885
2128.176	5767
2130.225	5791
2132.275	5889
2134.321	5895
2136.368	5826
2138.415	5929
2140.461	5905
2142.505	5851
2144.552	5784
2146.597	5833
2148.64	5725
2150.684	5905
2152.725	5899
2154.77	5860
2156.811	5771
2158.852	5851
2160.894	5846
2162.933	5788
2164.973	5796
2167.013	5906
2169.051	5822
2171.089	5929
2173.126	5749
2175.164	5769
2177.201	5656
2179.236	5808
2181.273	5778
2183.307	5740
2185.341	5755
2187.377	5776
2189.41	5796
2191.442	5773
2193.473	5708
2195.506	5735
2197.539	5673
2199.569	5791
2201.598	5752
2203.628	5769
2205.656	5758
2207.686	5743
2209.716	5732
2211.743	5650
2213.769	5710
2215.796	5787
2217.821	5694
2219.848	5716
2221.873	5710
2223.897	5641
2225.921	5697
2227.944	5781
2229.967	5559
2231.991	5655
2234.011	5675
2236.032	5705
2238.053	5645
2240.073	5650
2242.094	5604
2244.114	5716
2246.131	5734
2248.149	5644
2250.167	5770
2252.186	5632
2254.201	5718
2256.218	5722
2258.233	5716
2260.247	5687
2262.262	5694
2264.278	5570
2266.29	5649
2268.303	5679
2270.315	5599
2272.327	5648
2274.341	5737
2276.35	5686
2278.361	5680
2280.37	5732
2282.38	5647
2284.388	5644
2286.397	5629
2288.405	5776
2290.412	5641
2292.419	5802
2294.425	5757
2296.431	5676
2298.437	5722
2300.441	5735
2302.445	5586
2304.449	5637
2306.453	5629
2308.455	5610
2310.457	5697
2312.459	5673
2314.46	5589
2316.46	5631
2318.461	5553
2320.46	5697
2322.458	5679
2324.458	5654
2326.456	5587
2328.455	5562
2330.451	5691
2332.447	5589
2334.443	5665
2336.438	5623
2338.433	5582
2340.429	5551
2342.422	5605
2344.416	5637
2346.408	5693
2348.399	5461
2350.393	5565
2352.384	5632
2354.375	5600
2356.365	5547
2358.355	5569
2360.344	5626
2362.333	5658
2364.322	5558
2366.309	5556
2368.295	5510
2370.282	5545
2372.27	5577
2374.256	5471
2376.24	5625
2378.225	5584
2380.208	5518
2382.194	5589
2384.177	5501
2386.159	5526
2388.142	5485
2390.122	5517
2392.105	5489
2394.085	5507
2396.066	5466
2398.044	5426
2400.024	5434
2402.002	5429
2403.982	5432
2405.959	5468
2407.935	5533
2409.913	5438
2411.888	5419
2413.865	5381
2415.84	5450
2417.814	5370
2419.788	5448
2421.762	5408
2423.735	5531
2425.708	5457
2427.68	5496
2429.651	5471
2431.623	5429
2433.593	5462
2435.564	5430
2437.533	5419
2439.502	5399
2441.47	5417
2443.438	5505
2445.406	5457
2447.373	5373
2449.34	5412
2451.305	5380
2453.271	5327
2455.235	5371
2457.201	5519
2459.165	5508
2461.129	5439
2463.092	5476
2465.054	5403
2467.018	5407
2468.978	5426
2470.939	5421
2472.899	5400
2474.86	5407
2476.819	5422
2478.778	5499
2480.737	5324
2482.695	5303
2484.653	5414
2486.609	5375
2488.567	5418
2490.524	5349
2492.478	5426
2494.433	5372
2496.387	5378
2498.343	5436
2500.297	5451
2502.249	5340
2504.202	5332
2506.153	5361
2508.105	5327
2510.057	5398
2512.008	5451
2513.957	5314
2515.906	5359
2517.855	5348
2519.805	5374
2521.754	5314
2523.7	5369
2525.647	5334
2527.594	5289
2529.54	5403
2531.486	5298
2533.431	5482
2535.376	5321
2537.32	5429
2539.263	5416
2541.207	5405
2543.151	5418
2545.093	5370
2547.034	5408
2548.975	5343
2550.917	5307
2552.856	5167
2554.796	5295
2556.735	5356
2558.673	5280
2560.611	5432
2562.55	5275
2564.487	5345
2566.424	5341
2568.36	5274
2570.296	5370
2572.232	5421
2574.167	5340
2576.101	5329
2578.035	5367
2579.969	5350
2581.902	5389
2583.834	5295
2585.766	5338
2587.698	5306
2589.628	5418
2591.557	5340
2593.489	5355
2595.419	5302
2597.348	5341
2599.275	5349
2601.204	5305
2603.131	5347
2605.059	5232
2606.986	5321
2608.911	5281
2610.837	5267
2612.76	5312
2614.687	5388
2616.61	5381
2618.534	5467
2620.457	5334
2622.38	5298
2624.302	5328
2626.225	5358
2628.145	5364
2630.067	5294
2631.986	5323
2633.906	5400
2635.827	5318
2637.745	5340
2639.662	5350
2641.581	5326
2643.498	5374
2645.415	5358
2647.331	5326
2649.248	5399
2651.163	5341
2653.077	5342
2654.993	5360
2656.906	5372
2658.821	5347
2660.733	5313
2662.646	5314
2664.557	5253
2666.47	5428
2668.381	5280
2670.291	5356
2672.201	5309
2674.11	5334
2676.021	5352
2677.929	5309
2679.837	5317
2681.745	5288
2683.652	5271
2685.56	5178
2687.466	5355
2689.371	5319
2691.276	5330
2693.181	5237
2695.085	5241
2696.991	5230
2698.893	5464
2700.796	5259
2702.698	5275
2704.601	5177
2706.502	5151
2708.404	5268
2710.304	5313
2712.203	5198
2714.103	5265
2716.003	5248
2717.902	5296
2719.8	5310
2721.697	5240
2723.594	5312
2725.49	5205
2727.389	5294
2729.283	5215
2731.179	5197
2733.073	5282
2734.968	5256
2736.863	5144
2738.757	5289
2740.649	5186
2742.541	5266
2744.433	5228
2746.324	5323
2748.216	5161
2750.107	5157
2751.997	5156
2753.886	5199
2755.776	5267
2757.666	5221
2759.553	5131
2761.44	5164
2763.327	5184
2765.215	5215
2767.102	5203
2768.988	5237
2770.873	5186
2772.757	5241
2774.641	5217
2776.525	5218
2778.41	5159
2780.292	5112
2782.175	5137
2784.057	5208
2785.938	5132
2787.821	5238
2789.701	5184
2791.581	5145
2793.461	5129
2795.34	5116
2797.219	5160
2799.099	5103
2800.975	5132
2802.853	5226
2804.73	5097
2806.606	5124
2808.484	5207
2810.358	5153
2812.233	5129
2814.108	5135
2815.981	5116
2817.857	5098
2819.73	5197
2821.602	5259
2823.474	5072
2825.346	5215
2827.217	5121
2829.089	5286
2830.959	5068
2832.829	5134
2834.698	5197
2836.567	5157
2838.436	5208
2840.305	5155
2842.172	5204
2844.04	5216
2845.905	5321
2847.772	5274
2849.639	5289
2851.503	5319
2853.369	5216
2855.232	5295
2857.096	5373
2858.961	5375
2860.824	5446
2862.686	5445
2864.547	5566
2866.41	5433
2868.272	5450
2870.132	5507
2871.992	5796
2873.851	5672
2875.711	5675
2877.57	5843
2879.429	5799
2881.287	5822
2883.144	5925
2885.001	5962
2886.857	6019
2888.714	5966
2890.57	5990
2892.425	6040
2894.279	5963
2896.133	6050
2897.987	6091
2899.842	5993
2901.694	5922
2903.547	6125
2905.397	5971
2907.249	5967
2909.101	5921
2910.952	5950
2912.802	6112
2914.652	6093
2916.5	6000
2918.35	6323
2920.198	6316
2922.045	6276
2923.893	6251
2925.74	6487
2927.585	6494
2929.433	6608
2931.279	6516
2933.123	6541
2934.968	6707
2936.811	6765
2938.656	6735
2940.5	6750
2942.342	6896
2944.185	6970
2946.026	6993
2947.87	7036
2949.71	7048
2951.549	7161
2953.39	7144
2955.229	7075
2957.069	6891
2958.908	6854
2960.746	6741
2962.584	6757
2964.421	6801
2966.257	6634
2968.094	6551
2969.931	6412
2971.766	6510
2973.601	6386
2975.435	6241
2977.27	6126
2979.105	6152
2980.938	6160
2982.77	6174
2984.602	6111
2986.434	6037
2988.267	5984
2990.097	5860
2991.927	5833
2993.757	5788
2995.587	5726
2997.417	5733
2999.246	5646
3001.074	5574
3002.902	5511
3004.729	5409
3006.556	5392
3008.384	5399
3010.21	5373
3012.036	5302
3013.861	5248
3015.684	5168
3017.51	5138
3019.334	5236
3021.157	5222
3022.981	5076
3024.802	5051
3026.624	5045
3028.448	5016
3030.267	4939
3032.088	5061
3033.909	5021
3035.728	5007
3037.549	5003
3039.368	4848
3041.186	5077
3043.004	4921
3044.821	4931
3046.64	4861
3048.455	5000
3050.272	4898
3052.087	4907
3053.903	4947
3055.717	4940
3057.534	4907
3059.347	4913
3061.16	4980
3062.974	4929
3064.785	4914
3066.598	4880
3068.411	4909
3070.222	5001
3072.032	4871
3073.844	4835
3075.653	4869
3077.463	4885
3079.272	4893
3081.08	4925
3082.889	4805
3084.697	4646
3086.505	4762
3088.312	4756
3090.118	4777
3091.924	4740
3093.729	4896
3095.535	4807
3097.34	4822
3099.144	4727
3100.947	4766
3102.75	4741
3104.553	4723
3106.357	4808
3108.159	4776
3109.961	4715
3111.762	4743
3113.562	4820
3115.365	4675
3117.164	4692
3118.964	4669
3120.761	4646
3122.56	4654
3124.36	4722
3126.158	4724
3127.954	4687
3129.75	4645
3131.547	4695
3133.343	4637
3135.139	4724
3136.934	4717
3138.729	4642
3140.522	4630
3142.317	4742
3144.11	4586
3145.904	4671
3147.695	4606
3149.488	4651
3151.28	4630
3153.07	4542
3154.863	4560
3156.652	4681
3158.441	4594
3160.231	4582
3162.019	4611
3163.81	4703
3165.597	4491
3167.384	4594
3169.172	4573
3170.958	4599
3172.745	4655
3174.532	4652
3176.317	4594
3178.101	4584
3179.885	4641
3181.67	4574
3183.455	4546
3185.238	4605
3187.02	4554
3188.802	4673
3190.585	4675
3192.368	4557
3194.149	4612
3195.929	4646
3197.709	4578
3199.489	4640
3201.268	4605
3203.048	4631
3204.826	4539
3206.604	4603
3208.382	4695
3210.159	4577
3211.937	4481
3213.713	4536
3215.489	4517
3217.263	4541
3219.038	4708
3220.815	4599
3222.589	4540
3224.363	4574
3226.136	4492
3227.908	4662
3229.681	4620
3231.454	4596
3233.226	4616
3234.996	4625
3236.767	4571
3238.538	4679
3240.308	4582
3242.078	4606
3243.847	4563
3245.615	4470
3247.384	4666
3249.15	4631
3250.92	4612
3252.686	4579
3254.453	4673
3256.218	4628
3257.984	4599
3259.75	4627
3261.515	4552
3263.279	4610
3265.044	4590
3266.806	4597
3268.57	4575
3270.334	4609
3272.095	4657
3273.856	4552
3275.619	4629
3277.379	4546
3279.14	4641
3280.9	4572
3282.661	4640
3284.419	4768
3286.178	4662
3287.937	4551
3289.695	4552
3291.453	4667
3293.21	4674
3294.967	4535
3296.723	4629
3298.48	4598
3300.235	4546
3301.99	4519
3303.744	4595
3305.498	4648
3307.253	4669
3309.006	4553
3310.759	4602
3312.511	4560
3314.263	4601
3316.017	4691
3317.768	4593
3319.519	4632
3321.268	4563
3323.018	4591
3324.767	4590
3326.518	4690
3328.267	4570
3330.014	4695
3331.762	4604
3333.509	4575
3335.258	4597
3337.003	4623
3338.75	4557
3340.496	4550
3342.24	4598
3343.987	4564
3345.732	4639
3347.475	4561
3349.219	4626
3350.961	4555
3352.705	4509
3354.448	4611
3356.19	4515
3357.931	4583
3359.672	4511
3361.412	4590
3363.155	4568
3364.894	4487
3366.633	4480
3368.372	4504
3370.11	4464
3371.849	4588
3373.588	4436
3375.325	4460
3377.061	4505
3378.799	4444
3380.534	4446
3382.271	4503
3384.006	4418
3385.741	4428
3387.475	4440
3389.209	4405
3390.944	4408
3392.677	4450
3394.409	4446
3396.143	4428
3397.874	4402
3399.606	4404
3401.338	4485
3403.069	4441
3404.799	4506
3406.528	4475
3408.258	4406
3409.988	4448
3411.717	4430
3413.445	4435
3415.173	4386
3416.899	4349
3418.626	4358
3420.354	4385
3422.08	4408
3423.806	4349
3425.531	4308
3427.255	4322
3428.981	4370
3430.705	4369
3432.429	4320
3434.151	4315
3435.875	4268
3437.599	4379
3439.321	4314
3441.042	4402
3442.763	4330
3444.483	4262
3446.204	4374
3447.926	4287
3449.645	4247
3451.364	4216
3453.082	4280
3454.801	4195
3456.52	4231
3458.238	4182
3459.954	4282
3461.671	4283
3463.387	4259
3465.104	4268
3466.82	4185
3468.534	4189
3470.25	4201
3471.963	4225
3473.676	4115
3475.392	4150
3477.104	4117
3478.817	4192
3480.528	4205
3482.241	4150
3483.954	4125
3485.664	4126
3487.374	4139
3489.084	4160
3490.795	4044
3492.504	4097
3494.214	4067
3495.922	4125
3497.63	4104
3499.338	4101
3501.045	4136
3502.753	4096
3504.459	4099
3506.166	4045
3507.871	4070
3509.576	4010
3511.283	4049
3512.987	4000
3514.691	4004
3516.395	3991
3518.098	4033
3519.8	3944
3521.504	4072
3523.206	4088
3524.908	4010
3526.609	4063
3528.309	3985
3530.011	3999
3531.711	4117
3533.411	4020
3535.109	3983
3536.808	3952
3538.507	3914
3540.206	3930
3541.904	3982
3543.601	3880
3545.297	3877
3546.994	3939
3548.69	3931
3550.387	3932
3552.081	3947
3553.776	3897
3555.47	3939
3557.166	3857
3558.859	3888
3560.553	3963
3562.245	3888
3563.938	3963
3565.629	3888
3567.322	3925
3569.014	3894
3570.704	3805
3572.394	3826
3574.084	3876
3575.775	3872
3577.464	3870
3579.152	3914
3580.842	3851
3582.529	3790
3584.216	3796
3585.905	3830
3587.591	3828
3589.279	3837
3590.964	3843
3592.649	3748
3594.336	3756
3596.021	3756
3597.705	3732
3599.388	3741
3601.072	3760
3602.757	3738
3604.439	3703
3606.122	3663
3607.803	3699
3609.485	3679
3611.167	3596
3612.849	3687
3614.529	3667
3616.208	3728
3617.888	3683
3619.567	3581
3621.247	3599
3622.926	3624
3624.603	3637
3626.281	3590
3627.958	3634
3629.635	3592
3631.312	3542
3632.989	3619
3634.665	3510
3636.339	3576
3638.014	3603
3639.691	3521
3641.364	3544
3643.038	3579
3644.71	3550
3646.384	3513
3648.058	3544
3649.729	3596
3651.402	3522
3653.073	3529
3654.744	3602
3656.414	3465
3658.085	3512
3659.755	3475
3661.424	3486
3663.094	3542
3664.762	3493
3666.431	3414
3668.099	3520
3669.766	3460
3671.433	3471
3673.099	3496
3674.768	3433
3676.433	3475
3678.098	3428
3679.763	3488
3681.428	3464
3683.093	3507
3684.757	3424
3686.421	3406
3688.083	3421
3689.746	3434
3691.408	3413
3693.071	3437
3694.733	3450
3696.394	3376
3698.054	3440
3699.715	3413
3701.375	3405
3703.036	3396
3704.695	3421
3706.354	3459
3708.012	3369
3709.67	3356
3711.329	3322
3712.987	3339
3714.644	3423
3716.299	3358
3717.955	3357
3719.613	3402
3721.268	3384
3722.923	3367
3724.577	3379
3726.231	3364
3727.885	3320
3729.539	3381
3731.192	3369
3732.845	3437
3734.497	3342
3736.149	3382
3737.802	3377
3739.453	3288
3741.104	3283
3742.753	3342
3744.404	3386
3746.052	3440
3747.704	3338
3749.352	3313
3751	3239
3752.648	3253
3754.296	3316
3755.944	3312
3757.59	3238
3759.238	3250
3760.883	3359
3762.528	3271
3764.176	3267
3765.82	3239
3767.464	3240
3769.109	3239
3770.753	3265
3772.396	3185
3774.04	3268
3775.683	3206
3777.325	3252
3778.967	3242
3780.608	3244
3782.25	3308
3783.89	3269
3785.531	3202
3787.17	3242
3788.81	3195
3790.45	3198
3792.09	3203
3793.729	3229
3795.366	3290
3797.003	3125
3798.64	3279
3800.278	3255
3801.915	3225
3803.551	3261
3805.187	3165
3806.822	3154
3808.458	3174
3810.093	3103
3811.726	3166
3813.36	3249
3814.994	3204
3816.627	3180
3818.262	3191
3819.893	3225
3821.525	3200
3823.157	3151
3824.787	3145
3826.42	3212
3828.051	3222
3829.68	3203
3831.31	3155
3832.938	3173
3834.569	3127
3836.198	3159
3837.825	3156
3839.454	3154
3841.08	3108
3842.708	3073
3844.335	3210
3845.962	3051
3847.587	3168
3849.212	3115
3850.838	3101
3852.463	3076
3854.089	3088
3855.712	3062
3857.335	3147
3858.959	3114
3860.582	3098
3862.205	3122
3863.827	3064
3865.449	3111
3867.07	3021
3868.691	3146
3870.312	3011
3871.933	3103
3873.553	3073
3875.173	3028
3876.792	3105
3878.411	3034
3880.03	3032
3881.647	3077
3883.265	3022
3884.882	3054
3886.499	3108
3888.116	3052
3889.732	3013
3891.348	3090
3892.964	3084
3894.579	3106
3896.195	3039
3897.809	3095
3899.423	3065
3901.036	3082
3902.648	3057
3904.261	3063
3905.875	3046
3907.487	3097
3909.099	3035
3910.709	2943
3912.321	3018
3913.933	3016
3915.542	3026
3917.152	3052
3918.762	2981
3920.37	3104
3921.98	3054
3923.589	2975
3925.196	3038
3926.804	3030
3928.41	3024
3930.018	3017
3931.626	3005
3933.231	3033
3934.838	3008
3936.442	3019
3938.046	2915
3939.653	3066
3941.257	2909
3942.861	3018
3944.464	3021
3946.068	3006
3947.67	2924
3949.273	3026
3950.876	3016
3952.477	2931
3954.078	2937
3955.678	2930
3957.281	2954
3958.881	3049
3960.48	2974
3962.079	2960
3963.678	2906
3965.279	3017
3966.877	2964
3968.475	2953
3970.072	2910
3971.669	2879
3973.266	2932
3974.864	2932
3976.459	2908
3978.055	2853
3979.65	2950
3981.245	2966
3982.841	2899
3984.436	2908
3986.03	2974
3987.623	2924
3989.216	2889
3990.809	2937
3992.403	2925
3993.995	2881
3995.586	2931
3997.177	2896
3998.768	2823
4000.361	2828
4001.951	2814
4003.54	2818
4005.13	2816
4006.719	2833
4008.31	2906
4009.897	2857
4011.485	2864
4013.073	2832
4014.66	2804
4016.247	2871
4017.834	2821
4019.421	2851
4021.006	2783
4022.592	2837
4024.178	2773
4025.763	2793
4027.348	2811
4028.932	2788
4030.515	2795
4032.099	2793
4033.682	2774
4035.266	2821
4036.847	2743
4038.429	2757
4040.011	2777
4041.592	2718
4043.173	2736
4044.755	2753
4046.334	2760
4047.913	2737
4049.494	2778
4051.074	2784
4052.652	2780
4054.23	2685
4055.807	2723
4057.385	2723
4058.963	2676
4060.541	2717
4062.117	2758
4063.693	2810
4065.269	2696
4066.844	2749
4068.42	2749
4069.995	2750
4071.569	2723
4073.143	2744
4074.716	2764
4076.291	2732
4077.864	2692
4079.436	2721
4081.009	2771
4082.58	2763
4084.152	2633
4085.723	2757
4087.294	2685
4088.865	2684
4090.435	2725
4092.005	2634
4093.574	2697
4095.143	2628
4096.712	2664
4098.279	2676
4099.848	2673
4101.416	2691
4102.984	2674
4104.55	2673
4106.117	2672
4107.682	2680
4109.248	2615
4110.815	2589
4112.379	2696
4113.945	2691
4115.508	2631
4117.073	2630
4118.637	2625
4120.201	2652
4121.763	2631
4123.325	2653
4124.888	2593
4126.449	2601
4128.013	2641
4129.573	2623
4131.133	2626
4132.694	2653
4134.254	2658
4135.814	2568
4137.374	2658
4138.933	2600
4140.491	2592
4142.049	2632
4143.607	2629
4145.167	2570
4146.724	2579
4148.28	2592
4149.836	2551
4151.392	2586
4152.949	2602
4154.504	2583
4156.059	2583
4157.614	2540
4159.168	2568
4160.723	2544
4162.277	2521
4163.83	2516
4165.383	2571
4166.936	2565
4168.488	2558
4170.041	2595
4171.593	2537
4173.144	2561
4174.695	2576
4176.246	2540
4177.796	2494
4179.346	2548
4180.896	2504
4182.445	2522
4183.994	2481
4185.542	2567
4187.091	2478
4188.639	2474
4190.185	2477
4191.732	2495
4193.279	2515
4194.826	2474
4196.373	2442
4197.918	2471
4199.463	2435
4201.008	2499
4202.553	2463
4204.098	2458
4205.641	2454
4207.185	2453
4208.728	2474
4210.271	2532
4211.814	2509
4213.357	2428
4214.898	2480
4216.439	2574
4217.98	2477
4219.522	2451
4221.062	2414
4222.603	2450
4224.142	2537
4225.681	2449
4227.222	2391
4228.76	2426
4230.298	2413
4231.835	2411
4233.373	2482
4234.911	2489
4236.449	2478
4237.985	2396
4239.521	2390
4241.057	2465
4242.592	2480
4244.128	2453
4245.663	2407
4247.197	2364
4248.731	2425
4250.265	2380
4251.798	2429
4253.333	2439
4254.865	2417
4256.397	2412
4257.93	2436
4259.461	2361
4260.994	2470
4262.525	2415
4264.056	2386
4265.586	2432
4267.115	2384
4268.646	2434
4270.176	2418
4271.705	2369
4273.232	2418
4274.761	2426
4276.289	2365
4277.818	2357
4279.345	2396
4280.872	2401
4282.399	2388
4283.924	2327
4285.452	2420
4286.976	2391
4288.502	2420
4290.026	2332
4291.551	2356
4293.074	2319
4294.6	2319
4296.123	2372
4297.646	2345
4299.168	2313
4300.691	2378
4302.214	2301
4303.736	2370
4305.257	2366
4306.778	2275
4308.299	2341
4309.82	2357
4311.34	2322
4312.86	2304
4314.379	2314
