400.0745	3783
402.597	3963
405.1208	3879
407.6419	3887
410.1623	3869
412.6819	3912
415.201	3910
417.7172	3997
420.2369	3961
422.7538	3985
425.2701	4017
427.7856	4012
430.3005	4047
432.8147	4021
435.3282	4117
437.841	4070
440.3511	4073
442.8625	4083
445.3753	4184
447.8854	4075
450.3927	4024
452.9014	4035
455.4073	4169
457.9146	4045
460.4233	4082
462.9272	4115
465.4325	4114
467.935	4140
470.4389	4173
472.9421	4088
475.4446	4121
477.9444	4138
480.4456	4229
482.944	4140
485.4417	4348
487.9429	4251
490.4393	4316
492.935	4243
495.4321	4176
497.9264	4242
500.4221	4260
502.9171	4346
505.4094	4230
507.9011	4251
510.392	4250
512.8864	4313
515.3759	4215
517.8649	4318
520.3531	4282
522.8406	4349
525.3275	4367
527.8178	4383
530.3033	4333
532.7881	4297
535.2723	4329
537.7558	4304
540.2407	4330
542.7228	4320
545.2043	4248
547.6851	4291
550.1652	4366
552.6467	4358
555.1255	4299
557.6016	4362
560.079	4324
562.5557	4419
565.0318	4361
567.5092	4403
569.984	4391
572.456	4431
574.9294	4411
577.4022	4411
579.8762	4460
582.3456	4405
584.8163	4507
587.2863	4441
589.7557	4504
592.2224	4414
594.6924	4435
597.1578	4509
599.6245	4474
602.0905	4436
604.5538	4420
607.0206	4390
609.4825	4347
611.9459	4480
614.4066	4457
616.8686	4512
619.33	4520
621.7906	4420
624.2487	4434
626.708	4487
629.1647	4461
631.6207	4474
634.0801	4355
636.5348	4371
638.9888	4441
641.4442	4520
643.8969	4521
646.3509	4472
648.8022	4498
651.255	4548
653.705	4508
656.1544	4454
658.6031	4552
661.0532	4507
663.5026	4500
665.9493	4608
668.3954	4571
670.8409	4584
673.2877	4589
675.7318	4601
678.1752	4600
680.618	4628
683.0601	4521
685.5035	4528
687.9444	4666
690.3845	4585
692.824	4598
695.2628	4636
697.701	4593
700.1406	4621
702.5774	4666
705.0116	4724
707.4472	4650
709.8821	4660
712.3183	4732
714.7519	4718
717.1829	4743
719.6151	4744
722.0468	4714
724.4777	4822
726.908	4786
729.3377	4804
731.7667	4805
734.1931	4818
736.6208	4824
739.0498	4773
741.4742	4868
743.9	4869
746.3231	4852
748.7476	4865
751.1713	4896
753.5945	4886
756.015	4851
758.4368	4928
760.856	4881
763.2766	4983
765.6965	4937
768.1157	4944
770.5323	4928
772.9483	4957
775.3656	4880
777.7822	4911
780.1963	4920
782.6116	4942
785.0244	5031
787.4365	4924
789.8499	5021
792.2626	4972
794.6728	4953
797.0823	5101
799.4911	5000
801.8994	4980
804.3109	4945
806.7178	5026
809.124	4982
811.5297	4985
813.9347	5015
816.341	4961
818.7447	5022
821.1478	4960
823.5502	5014
825.952	5009
828.3531	5056
830.7556	4982
833.1554	5022
835.5546	5042
837.9532	5043
840.3511	5144
842.7504	5109
845.1451	5062
847.5411	5146
849.9365	5148
852.3312	5143
854.7272	5111
857.1187	5163
859.5115	5152
861.9037	5166
864.2952	5105
866.6842	5064
869.0764	5049
871.4661	5034
873.8531	5133
876.2415	5092
878.6272	5008
881.0162	5114
883.4026	5105
885.7866	5080
888.1717	5147
890.5543	5009
892.9382	5156
895.3215	5090
897.7041	5123
900.0842	5058
902.4655	5055
904.8443	5136
907.2244	5088
909.6039	5238
911.9808	5205
914.357	5296
916.7346	5273
919.1115	5195
921.4859	5422
923.8616	5348
926.2347	5409
928.6071	5381
930.979	5308
933.3541	5416
935.7247	5285
938.0946	5423
940.4639	5409
942.8326	5393
945.2026	5445
947.5701	5323
949.9369	5476
952.305	5446
954.6705	5539
957.0355	5496
959.4017	5737
961.7654	5703
964.1284	5673
966.4908	5637
968.8527	5636
971.2138	5543
973.5743	5427
975.9343	5312
978.2936	5278
980.6522	5252
983.0122	5237
985.3696	5327
987.7245	5223
990.0807	5315
992.4362	5180
994.7911	5216
997.1474	5222
999.4991	5300
1001.852	5339
1004.205	5337
1006.555	5328
1008.908	5358
1011.258	5252
1013.606	5259
1015.956	5334
1018.302	5205
1020.652	5313
1022.998	5308
1025.345	5319
1027.691	5239
1030.035	5304
1032.378	5376
1034.724	5286
1037.066	5253
1039.409	5378
1041.75	5235
1044.092	5443
1046.433	5300
1048.771	5362
1051.112	5348
1053.449	5428
1055.786	5410
1058.124	5433
1060.462	5288
1062.797	5382
1065.131	5401
1067.467	5333
1069.8	5433
1072.135	5525
1074.467	5323
1076.798	5356
1079.129	5394
1081.459	5364
1083.792	5467
1086.121	5342
1088.449	5436
1090.777	5275
1093.104	5286
1095.431	5347
1097.759	5432
1100.084	5358
1102.408	5402
1104.732	5398
1107.056	5475
1109.379	5503
1111.701	5537
1114.022	5414
1116.343	5553
1118.664	5389
1120.983	5440
1123.303	5405
1125.621	5450
1127.939	5579
1130.256	5591
1132.573	5408
1134.889	5435
1137.205	5418
1139.52	5433
1141.832	5420
1144.146	5373
1146.461	5436
1148.771	5383
1151.083	5480
1153.392	5458
1155.703	5544
1158.011	5399
1160.323	5517
1162.629	5443
1164.938	5478
1167.243	5410
1169.55	5384
1171.857	5452
1174.163	5331
1176.466	5413
1178.769	5527
1181.073	5445
1183.374	5482
1185.677	5454
1187.979	5485
1190.279	5444
1192.578	5409
1194.878	5460
1197.178	5435
1199.476	5413
1201.772	5409
1204.068	5438
1206.366	5561
1208.663	5446
1210.957	5429
1213.251	5484
1215.544	5445
1217.836	5436
1220.128	5523
1222.421	5412
1224.712	5623
1227.002	5546
1229.292	5512
1231.581	5648
1233.871	5543
1236.159	5599
1238.446	5629
1240.732	5560
1243.018	5687
1245.304	5621
1247.59	5597
1249.874	5666
1252.156	5690
1254.439	5747
1256.721	5714
1259.005	5656
1261.286	5683
1263.565	5649
1265.845	5579
1268.125	5769
1270.403	5635
1272.682	5698
1274.959	5626
1277.234	5741
1279.511	5751
1281.787	5655
1284.062	5595
1286.337	5716
1288.609	5702
1290.882	5451
1293.153	5628
1295.428	5652
1297.698	5556
1299.969	5537
1302.237	5457
1304.507	5529
1306.777	5594
1309.044	5572
1311.312	5569
1313.578	5499
1315.844	5571
1318.109	5578
1320.375	5602
1322.638	5578
1324.903	5605
1327.165	5589
1329.427	5660
1331.69	5679
1333.952	5624
1336.212	5580
1338.471	5610
1340.73	5697
1342.988	5501
1345.248	5636
1347.505	5580
1349.763	5588
1352.019	5611
1354.274	5422
1356.53	5623
1358.784	5661
1361.038	5643
1363.291	5527
1365.543	5644
1367.797	5583
1370.048	5600
1372.296	5708
1374.546	5596
1376.796	5541
1379.045	5634
1381.295	5608
1383.542	5603
1385.787	5609
1388.034	5651
1390.28	5748
1392.527	5745
1394.772	5783
1397.014	5778
1399.258	5750
1401.501	5816
1403.741	5887
1405.985	5821
1408.226	5798
1410.465	5830
1412.705	5710
1414.943	5747
1417.184	5786
1419.42	5662
1421.658	5828
1423.894	5777
1426.13	5805
1428.366	5762
1430.602	5715
1432.835	5821
1435.069	5740
1437.301	5874
1439.535	5770
1441.767	5861
1443.997	5888
1446.229	5849
1448.458	5905
1450.687	5873
1452.916	5897
1455.146	5953
1457.372	5917
1459.599	5930
1461.824	5887
1464.051	5854
1466.277	5976
1468.501	5778
1470.725	5776
1472.948	5747
1475.17	5804
1477.393	5771
1479.614	5791
1481.837	5718
1484.057	5719
1486.276	5680
1488.497	5673
1490.715	5689
1492.932	5609
1495.148	5741
1497.364	5573
1499.58	5666
1501.798	5713
1504.012	5655
1506.227	5589
1508.44	5424
1510.653	5554
1512.866	5539
1515.078	5588
1517.289	5562
1519.5	5595
1521.711	5588
1523.92	5679
1526.13	5666
1528.338	5439
1530.544	5569
1532.752	5537
1534.959	5647
1537.165	5580
1539.371	5622
1541.574	5594
1543.779	5715
1545.983	5619
1548.187	5700
1550.39	5697
1552.59	5657
1554.792	5710
1556.991	5585
1559.19	5713
1561.392	5684
1563.59	5623
1565.789	5632
1567.986	5599
1570.182	5777
1572.381	5693
1574.576	5786
1576.771	5768
1578.966	5694
1581.16	5744
1583.354	5697
1585.546	5741
1587.74	5711
1589.931	5708
1592.121	5781
1594.311	5817
1596.502	5677
1598.693	5762
1600.881	5751
1603.069	5755
1605.256	5810
1607.445	5867
1609.631	5804
1611.816	5752
1614.001	5798
1616.186	5797
1618.37	5834
1620.555	5764
1622.737	5783
1624.919	5875
1627.101	5716
1629.282	5849
1631.463	5891
1633.643	5842
1635.822	5821
1638.001	5777
1640.179	5820
1642.359	5800
1644.534	5887
1646.711	5886
1648.887	5936
1651.062	5883
1653.235	5876
1655.412	5865
1657.586	5861
1659.757	5986
1661.93	5875
1664.1	5927
1666.274	5962
1668.445	5895
1670.614	5931
1672.784	5863
1674.951	5989
1677.12	5910
1679.289	5852
1681.457	5920
1683.622	5868
1685.789	5914
1687.953	5822
1690.121	5818
1692.284	5869
1694.447	5795
1696.611	5812
1698.772	5821
1700.935	5929
1703.098	5809
1705.258	5832
1707.417	5772
1709.576	5790
1711.736	5699
1713.896	5711
1716.053	5956
1718.21	5810
1720.366	5860
1722.522	5762
1724.68	5741
1726.835	5720
1728.989	5805
1731.142	5814
1733.295	5765
1735.449	5777
1737.601	5757
1739.753	5782
1741.903	5863
1744.054	5840
1746.203	5698
1748.354	5704
1750.503	5789
1752.651	5760
1754.798	5809
1756.944	5770
1759.092	5924
1761.238	5764
1763.383	5880
1765.528	5912
1767.672	5727
1769.814	5802
1771.959	5774
1774.102	5804
1776.242	5846
1778.384	5856
1780.525	5820
1782.665	5837
1784.805	5883
1786.945	5764
1789.082	5846
1791.22	5916
1793.36	5859
1795.495	5845
1797.632	5878
1799.766	5774
1801.902	5759
1804.035	5748
1806.172	5802
1808.304	5904
1810.436	5908
1812.569	5900
1814.699	5998
1816.833	5786
1818.963	5845
1821.092	5826
1823.222	5837
1825.35	5970
1827.478	5895
1829.608	5904
1831.734	5714
1833.86	5894
1835.986	5871
1838.11	5893
1840.238	5805
1842.362	5850
1844.485	5898
1846.608	5851
1848.73	5848
1850.853	5785
1852.974	5794
1855.097	5870
1857.217	5748
1859.336	5801
1861.455	5800
1863.576	5843
1865.693	5805
1867.811	5829
1869.926	5825
1872.042	5910
1874.16	5785
1876.275	5813
1878.39	5836
1880.504	5864
1882.618	5791
1884.731	5769
1886.843	5814
1888.956	5866
1891.067	5915
1893.178	5889
1895.287	5864
1897.399	5823
1899.508	5943
1901.617	5803
1903.724	5896
1905.832	5903
1907.941	5960
1910.046	5861
1912.152	5967
1914.256	5995
1916.361	5904
1918.464	5992
1920.57	5862
1922.672	5915
1924.775	5938
1926.876	5962
1928.978	6019
1931.08	5960
1933.181	6001
1935.28	5970
1937.38	5992
1939.478	5988
1941.577	5971
1943.675	5986
1945.771	5877
1947.867	5909
1949.964	5906
1952.058	5971
1954.154	6008
1956.248	5967
1958.343	5900
1960.435	5904
1962.527	5854
1964.62	5966
1966.711	5929
1968.802	5955
1970.892	5837
1972.983	5998
1975.072	5980
1977.162	5938
1979.25	5885
1981.337	6029
1983.424	5914
1985.51	5859
1987.598	5955
1989.683	5931
1991.768	5998
1993.852	6050
1995.934	5978
1998.019	5920
2000.102	5823
2002.184	6013
2004.266	5974
2006.347	5980
2008.427	5915
2010.508	5956
2012.587	5903
2014.666	5846
2016.745	5909
2018.821	5862
2020.9	5835
2022.977	5951
2025.052	5879
2027.128	5871
2029.204	5993
2031.277	5926
2033.353	5857
2035.425	5933
2037.499	5887
2039.57	5952
2041.642	6044
2043.714	5897
2045.786	6027
2047.855	5937
2049.925	5898
2051.993	6122
2054.064	5867
2056.132	5966
2058.2	5990
2060.266	5891
2062.332	6013
2064.398	5973
2066.465	5969
2068.529	6009
2070.592	5840
2072.657	6055
2074.719	5953
2076.783	5952
2078.845	6069
2080.907	5894
2082.968	5984
2085.028	5986
2087.087	5837
2089.148	5986
2091.207	5999
2093.264	5879
2095.322	6025
2097.379	5940
2099.439	5944
2101.495	6049
2103.55	5979
2105.605	5875
2107.658	5984
2109.713	5903
2111.767	5875
2113.82	5918
2115.872	5993
2117.924	5965
2119.975	5965
2122.028	6054
2124.078	6063
2126.126	6020
2128.176	5964
2130.225	5946
2132.275	6059
2134.321	6067
2136.368	6060
2138.415	6001
2140.461	6128
2142.505	5941
2144.552	6000
2146.597	5926
2148.64	5967
2150.684	5923
2152.725	6053
2154.77	6064
2156.811	6067
2158.852	6001
2160.894	5938
2162.933	5999
2164.973	5908
2167.013	6045
2169.051	5936
2171.089	5919
2173.126	5932
2175.164	5926
2177.201	5958
2179.236	5979
2181.273	5981
2183.307	5966
2185.341	5894
2187.377	5895
2189.41	5956
2191.442	5953
2193.473	5812
2195.506	5929
2197.539	5933
2199.569	5803
2201.598	5940
2203.628	5985
2205.656	5903
2207.686	5937
2209.716	5967
2211.743	6004
2213.769	5926
2215.796	5947
2217.821	5885
2219.848	5898
2221.873	5841
2223.897	5911
2225.921	5876
2227.944	5952
2229.967	5910
2231.991	5805
2234.011	5935
2236.032	5873
2238.053	5901
2240.073	5943
2242.094	5868
2244.114	5853
2246.131	5835
2248.149	5994
2250.167	5897
2252.186	5928
2254.201	6032
2256.218	6018
2258.233	6072
2260.247	5879
2262.262	5981
2264.278	5887
2266.29	5879
2268.303	5928
2270.315	5996
2272.327	5878
2274.341	5961
2276.35	6059
2278.361	5929
2280.37	5999
2282.38	5925
2284.388	5958
2286.397	5934
2288.405	5941
2290.412	5949
2292.419	5863
2294.425	5931
2296.431	5927
2298.437	5938
2300.441	5909
2302.445	6039
2304.449	5920
2306.453	6002
2308.455	6013
2310.457	5820
2312.459	5858
2314.46	5885
2316.46	5976
2318.461	5885
2320.46	6043
2322.458	5929
2324.458	5994
2326.456	5907
2328.455	5961
2330.451	5858
2332.447	5806
2334.443	5869
2336.438	5939
2338.433	5895
2340.429	5910
2342.422	5785
2344.416	5928
2346.408	5933
2348.399	5865
2350.393	5797
2352.384	5776
2354.375	5821
2356.365	5845
2358.355	5915
2360.344	5850
2362.333	5936
2364.322	5885
2366.309	5871
2368.295	5918
2370.282	5830
2372.27	5911
2374.256	5900
2376.24	5968
2378.225	5925
2380.208	5875
2382.194	5793
2384.177	5798
2386.159	5900
2388.142	5772
2390.122	5862
2392.105	5907
2394.085	5774
2396.066	5759
2398.044	5855
2400.024	5824
2402.002	5930
2403.982	5826
2405.959	5787
2407.935	5917
2409.913	5854
2411.888	5783
2413.865	5862
2415.84	5868
2417.814	5760
2419.788	5901
2421.762	5818
2423.735	5871
2425.708	5834
2427.68	5861
2429.651	5795
2431.623	5786
2433.593	5909
2435.564	5864
2437.533	5820
2439.502	5904
2441.47	5893
2443.438	5948
2445.406	5849
2447.373	5803
2449.34	5822
2451.305	5899
2453.271	5800
2455.235	5790
2457.201	5817
2459.165	5749
2461.129	5836
2463.092	5921
2465.054	5818
2467.018	5800
2468.978	5828
2470.939	5864
2472.899	5777
2474.86	5862
2476.819	5806
2478.778	5840
2480.737	5850
2482.695	5677
2484.653	5789
2486.609	5782
2488.567	5903
2490.524	5740
2492.478	5785
2494.433	5847
2496.387	5677
2498.343	5759
2500.297	5884
2502.249	5796
2504.202	5734
2506.153	5918
2508.105	5895
2510.057	5816
2512.008	5734
2513.957	5756
2515.906	5863
2517.855	5828
2519.805	5836
2521.754	5776
2523.7	5820
2525.647	5736
2527.594	5764
2529.54	5795
2531.486	5719
2533.431	5781
2535.376	5872
2537.32	5835
2539.263	5790
2541.207	5859
2543.151	5871
2545.093	5862
2547.034	5905
2548.975	5787
2550.917	5750
2552.856	5933
2554.796	5744
2556.735	5759
2558.673	5884
2560.611	5803
2562.55	5763
2564.487	5812
2566.424	5827
2568.36	5798
2570.296	5865
2572.232	5776
2574.167	5906
2576.101	5836
2578.035	5714
2579.969	5703
2581.902	5796
2583.834	5917
2585.766	5825
2587.698	5847
2589.628	5880
2591.557	5924
2593.489	5812
2595.419	5790
2597.348	5814
2599.275	5766
2601.204	5785
2603.131	5896
2605.059	5846
2606.986	5860
2608.911	5890
2610.837	5898
2612.76	5788
2614.687	5838
2616.61	5903
2618.534	5902
2620.457	5903
2622.38	5878
2624.302	5880
2626.225	5853
2628.145	5867
2630.067	5892
2631.986	5904
2633.906	5928
2635.827	5889
2637.745	6048
2639.662	5851
2641.581	5784
2643.498	5870
2645.415	6007
2647.331	5881
2649.248	5852
2651.163	5881
2653.077	5911
2654.993	5877
2656.906	5854
2658.821	5907
2660.733	5776
2662.646	5950
2664.557	5793
2666.47	5904
2668.381	5911
2670.291	5889
2672.201	5891
2674.11	5983
2676.021	5892
2677.929	5769
2679.837	5808
2681.745	5838
2683.652	5873
2685.56	5844
2687.466	5778
2689.371	5845
2691.276	5829
2693.181	5800
2695.085	5870
2696.991	5872
2698.893	5836
2700.796	5939
2702.698	5759
2704.601	5840
2706.502	5837
2708.404	5892
2710.304	5821
2712.203	5878
2714.103	5837
2716.003	5951
2717.902	5771
2719.8	5865
2721.697	5784
2723.594	5744
2725.49	5856
2727.389	5821
2729.283	5790
2731.179	5774
2733.073	5744
2734.968	5920
2736.863	5832
2738.757	5820
2740.649	5789
2742.541	5811
2744.433	5848
2746.324	5833
2748.216	5765
2750.107	5855
2751.997	5836
2753.886	5829
2755.776	5861
2757.666	5924
2759.553	5801
2761.44	5813
2763.327	5844
2765.215	5916
2767.102	5811
2768.988	5768
2770.873	5740
2772.757	5841
2774.641	5848
2776.525	5801
2778.41	5792
2780.292	5736
2782.175	5907
2784.057	5870
2785.938	5827
2787.821	5857
2789.701	5795
2791.581	5894
2793.461	5792
2795.34	5794
2797.219	6019
2799.099	5857
2800.975	5752
2802.853	5844
2804.73	5746
2806.606	5802
2808.484	5761
2810.358	5749
2812.233	5773
2814.108	5817
2815.981	5815
2817.857	5758
2819.73	5833
2821.602	5807
2823.474	5698
2825.346	5788
2827.217	5770
2829.089	5816
2830.959	5883
2832.829	5793
2834.698	5878
2836.567	5898
2838.436	5802
2840.305	5867
2842.172	5904
2844.04	5844
2845.905	5841
2847.772	5817
2849.639	5991
2851.503	5917
2853.369	6023
2855.232	6000
2857.096	5945
2858.961	5959
2860.824	5996
2862.686	6005
2864.547	6030
2866.41	6010
2868.272	6088
2870.132	6203
2871.992	6180
2873.851	6136
2875.711	6157
2877.57	6214
2879.429	6296
2881.287	6275
2883.144	6327
2885.001	6374
2886.857	6400
2888.714	6239
2890.57	6403
2892.425	6479
2894.279	6381
2896.133	6393
2897.987	6457
2899.842	6567
2901.694	6370
2903.547	6452
2905.397	6357
2907.249	6435
2909.101	6372
2910.952	6372
2912.802	6493
2914.652	6425
2916.5	6498
2918.35	6708
2920.198	6571
2922.045	6671
2923.893	6602
2925.74	6762
2927.585	6735
2929.433	6714
2931.279	6709
2933.123	6799
2934.968	6830
2936.811	7003
2938.656	6900
2940.5	6916
2942.342	7035
2944.185	6972
2946.026	6933
2947.87	7074
2949.71	7169
2951.549	7097
2953.39	7080
2955.229	7059
2957.069	7106
2958.908	6942
2960.746	7011
2962.584	6865
2964.421	6902
2966.257	6891
2968.094	6820
2969.931	6753
2971.766	6661
2973.601	6685
2975.435	6576
2977.27	6619
2979.105	6659
2980.938	6539
2982.77	6504
2984.602	6420
2986.434	6442
2988.267	6403
2990.097	6340
2991.927	6378
2993.757	6350
2995.587	6302
2997.417	6287
2999.246	6106
3001.074	6165
3002.902	6119
3004.729	6052
3006.556	6129
3008.384	6075
3010.21	5985
3012.036	6041
3013.861	5928
3015.684	6039
3017.51	5896
3019.334	6010
3021.157	5841
3022.981	5873
3024.802	5871
3026.624	5864
3028.448	5989
3030.267	5840
3032.088	5862
3033.909	5838
3035.728	5747
3037.549	5831
3039.368	5889
3041.186	5805
3043.004	5760
3044.821	5795
3046.64	5733
3048.455	5720
3050.272	5738
3052.087	5922
3053.903	5735
3055.717	5805
3057.534	5736
3059.347	5856
3061.16	5815
3062.974	5697
3064.785	5839
3066.598	5872
3068.411	5784
3070.222	5940
3072.032	5687
3073.844	5858
3075.653	5850
3077.463	5801
3079.272	5767
3081.08	5815
3082.889	5776
3084.697	5682
3086.505	5741
3088.312	5818
3090.118	5797
3091.924	5699
3093.729	5739
3095.535	5782
3097.34	5812
3099.144	5793
3100.947	5676
3102.75	5712
3104.553	5848
3106.357	5796
3108.159	5780
3109.961	5849
3111.762	5662
3113.562	5834
3115.365	5630
3117.164	5760
3118.964	5693
3120.761	5728
3122.56	5584
3124.36	5671
3126.158	5662
3127.954	5637
3129.75	5716
3131.547	5773
3133.343	5694
3135.139	5680
3136.934	5776
3138.729	5694
3140.522	5739
3142.317	5733
3144.11	5666
3145.904	5737
3147.695	5727
3149.488	5794
3151.28	5692
3153.07	5648
3154.863	5678
3156.652	5854
3158.441	5735
3160.231	5801
3162.019	5691
3163.81	5617
3165.597	5601
3167.384	5676
3169.172	5705
3170.958	5656
3172.745	5643
3174.532	5724
3176.317	5686
3178.101	5737
3179.885	5613
3181.67	5695
3183.455	5655
3185.238	5635
3187.02	5659
3188.802	5702
3190.585	5759
3192.368	5661
3194.149	5607
3195.929	5728
3197.709	5574
3199.489	5685
3201.268	5772
3203.048	5744
3204.826	5697
3206.604	5615
3208.382	5685
3210.159	5671
3211.937	5613
3213.713	5731
3215.489	5636
3217.263	5676
3219.038	5690
3220.815	5741
3222.589	5716
3224.363	5697
3226.136	5724
3227.908	5727
3229.681	5671
3231.454	5651
3233.226	5707
3234.996	5672
3236.767	5745
3238.538	5655
3240.308	5788
3242.078	5773
3243.847	5720
3245.615	5717
3247.384	5721
3249.15	5806
3250.92	5724
3252.686	5769
3254.453	5687
3256.218	5813
3257.984	5776
3259.75	5837
3261.515	5674
3263.279	5751
3265.044	5848
3266.806	5842
3268.57	5693
3270.334	5754
3272.095	5770
3273.856	5855
3275.619	5921
3277.379	5807
3279.14	5795
3280.9	5828
3282.661	5869
3284.419	5843
3286.178	5724
3287.937	5922
3289.695	5844
3291.453	5870
3293.21	5906
3294.967	5718
3296.723	5772
3298.48	5927
3300.235	5918
3301.99	5902
3303.744	5860
3305.498	5978
3307.253	5865
3309.006	5785
3310.759	5846
3312.511	6091
3314.263	5873
3316.017	5922
3317.768	5869
3319.519	5875
3321.268	5924
3323.018	6093
3324.767	5751
3326.518	5891
3328.267	5838
3330.014	6049
3331.762	5949
3333.509	5883
3335.258	5906
3337.003	5928
3338.75	5968
3340.496	5955
3342.24	5858
3343.987	5948
3345.732	5887
3347.475	5921
3349.219	5967
3350.961	5868
3352.705	5882
3354.448	5891
3356.19	5968
3357.931	5891
3359.672	5861
3361.412	5999
3363.155	5930
3364.894	5893
3366.633	5797
3368.372	5904
3370.11	5937
3371.849	5760
3373.588	5906
3375.325	5797
3377.061	5919
3378.799	5896
3380.534	6031
3382.271	6004
3384.006	5836
3385.741	5887
3387.475	5954
3389.209	6045
3390.944	5894
3392.677	5990
3394.409	5961
3396.143	6009
3397.874	5929
3399.606	5922
3401.338	5896
3403.069	5967
3404.799	6044
3406.528	5979
3408.258	5921
3409.988	5990
3411.717	5939
3413.445	5901
3415.173	5894
3416.899	5958
3418.626	5986
3420.354	5993
3422.08	5892
3423.806	5952
3425.531	5935
3427.255	5989
3428.981	5929
3430.705	5799
3432.429	5961
3434.151	5824
3435.875	5962
3437.599	5968
3439.321	5886
3441.042	5944
3442.763	5872
3444.483	5890
3446.204	5924
3447.926	5847
3449.645	5956
3451.364	5932
3453.082	5858
3454.801	5932
3456.52	5852
3458.238	5905
3459.954	5929
3461.671	5960
3463.387	5902
3465.104	5905
3466.82	5872
3468.534	5916
3470.25	5937
3471.963	5857
3473.676	5897
3475.392	5980
3477.104	5864
3478.817	5924
3480.528	5795
3482.241	5878
3483.954	5895
3485.664	5856
3487.374	5891
3489.084	5978
3490.795	5903
3492.504	5884
3494.214	5848
3495.922	5934
3497.63	6061
3499.338	5899
3501.045	5803
3502.753	5943
3504.459	5838
3506.166	5976
3507.871	5930
3509.576	5931
3511.283	5850
3512.987	5888
3514.691	6011
3516.395	5879
3518.098	5841
3519.8	5956
3521.504	6000
3523.206	5993
3524.908	5963
3526.609	5925
3528.309	5930
3530.011	5909
3531.711	5900
3533.411	6030
3535.109	5957
3536.808	5929
3538.507	6036
3540.206	5891
3541.904	5914
3543.601	5947
3545.297	5915
3546.994	5981
3548.69	5986
3550.387	5940
3552.081	5983
3553.776	5989
3555.47	5961
3557.166	5889
3558.859	5998
3560.553	6053
3562.245	5974
3563.938	5937
3565.629	6014
3567.322	6006
3569.014	5950
3570.704	5962
3572.394	5860
3574.084	5901
3575.775	5907
3577.464	6000
3579.152	6017
3580.842	5967
3582.529	5871
3584.216	5995
3585.905	6009
3587.591	5980
3589.279	5977
3590.964	6088
3592.649	5839
3594.336	5888
3596.021	5982
3597.705	5893
3599.388	5991
3601.072	5998
3602.757	5944
3604.439	5915
3606.122	5917
3607.803	6090
3609.485	5965
3611.167	6000
3612.849	5997
3614.529	6009
3616.208	6000
3617.888	5990
3619.567	6022
3621.247	5838
3622.926	6045
3624.603	5994
3626.281	5958
3627.958	5840
3629.635	5970
3631.312	6007
3632.989	5925
3634.665	5938
3636.339	5988
3638.014	5862
3639.691	5954
3641.364	5889
3643.038	5881
3644.71	5917
3646.384	5962
3648.058	6004
3649.729	5906
3651.402	5898
3653.073	6042
3654.744	5936
3656.414	6030
3658.085	6045
3659.755	5913
3661.424	5947
3663.094	5899
3664.762	5825
3666.431	5962
3668.099	5882
3669.766	5990
3671.433	5939
3673.099	5937
3674.768	6013
3676.433	5957
3678.098	5985
3679.763	6028
3681.428	5999
3683.093	5970
3684.757	6041
3686.421	5908
3688.083	5921
3689.746	6050
3691.408	5942
3693.071	6003
3694.733	6045
3696.394	6040
3698.054	6001
3699.715	6081
3701.375	6113
3703.036	6075
3704.695	6044
3706.354	6089
3708.012	6122
3709.67	6026
3711.329	6103
3712.987	5970
3714.644	6109
3716.299	6065
3717.955	6043
3719.613	6059
3721.268	6188
3722.923	6120
3724.577	6130
3726.231	6104
3727.885	6037
3729.539	5962
3731.192	6215
3732.845	6129
3734.497	5968
3736.149	6042
3737.802	6160
3739.453	6006
3741.104	6043
3742.753	6105
3744.404	6157
3746.052	6119
3747.704	6137
3749.352	6081
3751	6018
3752.648	6064
3754.296	6140
3755.944	6279
3757.59	6061
3759.238	6068
3760.883	6141
3762.528	6164
3764.176	6139
3765.82	6169
3767.464	6116
3769.109	6136
3770.753	6221
3772.396	6051
3774.04	6087
3775.683	6164
3777.325	6210
3778.967	6060
3780.608	6102
3782.25	6085
3783.89	6102
3785.531	5985
3787.17	6081
3788.81	6173
3790.45	6178
3792.09	6175
3793.729	6130
3795.366	6192
3797.003	6055
3798.64	6180
3800.278	6197
3801.915	6085
3803.551	6135
3805.187	6185
3806.822	6283
3808.458	6297
3810.093	6126
3811.726	6165
3813.36	6153
3814.994	6243
3816.627	6095
3818.262	6280
3819.893	6144
3821.525	6274
3823.157	6228
3824.787	6074
3826.42	6133
3828.051	6075
3829.68	6286
3831.31	6150
3832.938	6182
3834.569	6227
3836.198	6226
3837.825	6259
3839.454	6152
3841.08	6209
3842.708	6226
3844.335	6242
3845.962	6265
3847.587	6264
3849.212	6283
3850.838	6174
3852.463	6139
3854.089	6216
3855.712	6225
3857.335	6174
3858.959	6171
3860.582	6370
3862.205	6211
3863.827	6194
3865.449	6280
3867.07	6127
3868.691	6261
3870.312	6239
3871.933	6281
3873.553	6178
3875.173	6241
3876.792	6285
3878.411	6167
3880.03	6289
3881.647	6273
3883.265	6353
3884.882	6212
3886.499	6241
3888.116	6193
3889.732	6325
3891.348	6150
3892.964	6270
3894.579	6275
3896.195	6207
3897.809	6228
3899.423	6175
3901.036	6277
3902.648	6196
3904.261	6200
3905.875	6402
3907.487	6300
3909.099	6286
3910.709	6240
3912.321	6263
3913.933	6307
3915.542	6298
3917.152	6360
3918.762	6390
3920.37	6251
3921.98	6293
3923.589	6398
3925.196	6362
3926.804	6336
3928.41	6379
3930.018	6272
3931.626	6406
3933.231	6275
3934.838	6397
3936.442	6309
3938.046	6405
3939.653	6334
3941.257	6369
3942.861	6369
3944.464	6392
3946.068	6417
3947.67	6249
3949.273	6348
3950.876	6331
3952.477	6334
3954.078	6398
3955.678	6315
3957.281	6536
3958.881	6327
3960.48	6310
3962.079	6408
3963.678	6308
3965.279	6422
3966.877	6278
3968.475	6362
3970.072	6370
3971.669	6318
3973.266	6322
3974.864	6342
3976.459	6477
3978.055	6439
3979.65	6461
3981.245	6342
3982.841	6292
3984.436	6342
3986.03	6371
3987.623	6393
3989.216	6415
3990.809	6386
3992.403	6253
3993.995	6355
3995.586	6352
3997.177	6303
3998.768	6333
4000.361	6361
4001.951	6267
4003.54	6424
4005.13	6364
4006.719	6350
4008.31	6427
4009.897	6289
4011.485	6276
4013.073	6377
4014.66	6297
4016.247	6358
4017.834	6410
4019.421	6275
4021.006	6416
4022.592	6351
4024.178	6417
4025.763	6372
4027.348	6327
4028.932	6432
4030.515	6355
4032.099	6239
4033.682	6434
4035.266	6377
4036.847	6337
4038.429	6310
4040.011	6450
4041.592	6376
4043.173	6363
4044.755	6442
4046.334	6333
4047.913	6418
4049.494	6345
4051.074	6323
4052.652	6380
4054.23	6352
4055.807	6329
4057.385	6335
4058.963	6317
4060.541	6356
4062.117	6433
4063.693	6325
4065.269	6300
4066.844	6345
4068.42	6333
4069.995	6365
4071.569	6326
4073.143	6207
4074.716	6400
4076.291	6414
4077.864	6332
4079.436	6374
4081.009	6506
4082.58	6338
4084.152	6352
4085.723	6283
4087.294	6364
4088.865	6346
4090.435	6378
4092.005	6441
4093.574	6432
4095.143	6410
4096.712	6352
4098.279	6437
4099.848	6420
4101.416	6369
4102.984	6322
4104.55	6409
4106.117	6338
4107.682	6469
4109.248	6443
4110.815	6344
4112.379	6374
4113.945	6426
4115.508	6363
4117.073	6504
4118.637	6404
4120.201	6309
4121.763	6532
4123.325	6539
4124.888	6255
4126.449	6304
4128.013	6372
4129.573	6383
4131.133	6430
4132.694	6397
4134.254	6416
4135.814	6411
4137.374	6252
4138.933	6491
4140.491	6465
4142.049	6446
4143.607	6361
4145.167	6421
4146.724	6380
4148.28	6357
4149.836	6438
4151.392	6435
4152.949	6425
4154.504	6368
4156.059	6294
4157.614	6365
4159.168	6331
4160.723	6257
4162.277	6400
4163.83	6434
4165.383	6389
4166.936	6324
4168.488	6449
4170.041	6313
4171.593	6302
4173.144	6288
4174.695	6271
4176.246	6422
4177.796	6394
4179.346	6463
4180.896	6554
4182.445	6400
4183.994	6314
4185.542	6468
4187.091	6450
4188.639	6396
4190.185	6268
4191.732	6428
4193.279	6375
4194.826	6476
4196.373	6321
4197.918	6462
4199.463	6426
4201.008	6379
4202.553	6409
4204.098	6424
4205.641	6541
4207.185	6371
4208.728	6428
4210.271	6453
4211.814	6388
4213.357	6307
4214.898	6468
4216.439	6570
4217.98	6369
4219.522	6338
4221.062	6407
4222.603	6368
4224.142	6443
4225.681	6382
4227.222	6607
4228.76	6453
4230.298	6401
4231.835	6351
4233.373	6423
4234.911	6472
4236.449	6371
4237.985	6485
4239.521	6567
4241.057	6449
4242.592	6258
4244.128	6544
4245.663	6533
4247.197	6591
4248.731	6345
4250.265	6538
4251.798	6503
4253.333	6489
4254.865	6422
4256.397	6416
4257.93	6504
4259.461	6413
4260.994	6408
4262.525	6469
4264.056	6506
4265.586	6392
4267.115	6402
4268.646	6591
4270.176	6441
4271.705	6377
4273.232	6502
4274.761	6612
4276.289	6474
4277.818	6606
4279.345	6510
4280.872	6566
4282.399	6426
4283.924	6530
4285.452	6471
4286.976	6465
4288.502	6542
4290.026	6487
4291.551	6544
4293.074	6568
4294.6	6539
4296.123	6436
4297.646	6595
4299.168	6423
4300.691	6446
4302.214	6516
4303.736	6530
4305.257	6537
4306.778	6420
4308.299	6509
4309.82	6696
4311.34	6543
4312.86	6457
4314.379	6537
