400.0745	4024
402.597	4016
405.1208	4084
407.6419	4091
410.1623	4074
412.6819	4181
415.201	4097
417.7172	4050
420.2369	4151
422.7538	4215
425.2701	4308
427.7856	4358
430.3005	4283
432.8147	4309
435.3282	4318
437.841	4302
440.3511	4366
442.8625	4412
445.3753	4393
447.8854	4353
450.3927	4344
452.9014	4337
455.4073	4380
457.9146	4305
460.4233	4333
462.9272	4216
465.4325	4207
467.935	4205
470.4389	4271
472.9421	4267
475.4446	4351
477.9444	4303
480.4456	4357
482.944	4272
485.4417	4326
487.9429	4355
490.4393	4337
492.935	4208
495.4321	4345
497.9264	4338
500.4221	4371
502.9171	4323
505.4094	4353
507.9011	4400
510.392	4336
512.8864	4389
515.3759	4435
517.8649	4443
520.3531	4434
522.8406	4391
525.3275	4416
527.8178	4357
530.3033	4442
532.7881	4507
535.2723	4520
537.7558	4395
540.2407	4405
542.7228	4498
545.2043	4533
547.6851	4386
550.1652	4452
552.6467	4487
555.1255	4374
557.6016	4381
560.079	4536
562.5557	4502
565.0318	4464
567.5092	4494
569.984	4591
572.456	4538
574.9294	4616
577.4022	4682
579.8762	4652
582.3456	4610
584.8163	4702
587.2863	4675
589.7557	4769
592.2224	4612
594.6924	4670
597.1578	4696
599.6245	4664
602.0905	4722
604.5538	4601
607.0206	4489
609.4825	4648
611.9459	4615
614.4066	4670
616.8686	4621
619.33	4589
621.7906	4666
624.2487	4493
626.708	4564
629.1647	4583
631.6207	4539
634.0801	4523
636.5348	4574
638.9888	4603
641.4442	4633
643.8969	4582
646.3509	4653
648.8022	4511
651.255	4648
653.705	4605
656.1544	4612
658.6031	4653
661.0532	4700
663.5026	4663
665.9493	4547
668.3954	4673
670.8409	4655
673.2877	4630
675.7318	4628
678.1752	4782
680.618	4785
683.0601	4715
685.5035	4713
687.9444	4743
690.3845	4799
692.824	4742
695.2628	4813
697.701	4807
700.1406	4767
702.5774	4769
705.0116	4844
707.4472	4842
709.8821	4771
712.3183	4801
714.7519	4829
717.1829	4759
719.6151	4861
722.0468	4899
724.4777	4920
726.908	4949
729.3377	4802
731.7667	4984
734.1931	5023
736.6208	4855
739.0498	4985
741.4742	4915
743.9	5006
746.3231	4955
748.7476	5035
751.1713	4997
753.5945	5001
756.015	5072
758.4368	5047
760.856	5067
763.2766	4957
765.6965	5046
768.1157	5022
770.5323	5045
772.9483	5060
775.3656	5079
777.7822	4985
780.1963	5037
782.6116	5099
785.0244	5031
787.4365	5024
789.8499	5115
792.2626	5119
794.6728	5084
797.0823	5181
799.4911	5042
801.8994	5083
804.3109	5064
806.7178	5110
809.124	5093
811.5297	5084
813.9347	5023
816.341	5187
818.7447	5118
821.1478	5242
823.5502	5182
825.952	5197
828.3531	5162
830.7556	5166
833.1554	5248
835.5546	5091
837.9532	5275
840.3511	5152
842.7504	5294
845.1451	5250
847.5411	5281
849.9365	5189
852.3312	5348
854.7272	5378
857.1187	5345
859.5115	5472
861.9037	5272
864.2952	5381
866.6842	5362
869.0764	5287
871.4661	5241
873.8531	5253
876.2415	5366
878.6272	5313
881.0162	5247
883.4026	5312
885.7866	5235
888.1717	5281
890.5543	5318
892.9382	5229
895.3215	5284
897.7041	5307
900.0842	5257
902.4655	5239
904.8443	5303
907.2244	5248
909.6039	5369
911.9808	5383
914.357	5481
916.7346	5522
919.1115	5533
921.4859	5629
923.8616	5601
926.2347	5714
928.6071	5710
930.979	5573
933.3541	5669
935.7247	5682
938.0946	5789
940.4639	5728
942.8326	5763
945.2026	5903
947.5701	5989
949.9369	6006
952.305	6276
954.6705	6420
957.0355	6777
959.4017	7123
961.7654	7214
964.1284	7206
966.4908	7015
968.8527	6824
971.2138	6436
973.5743	6245
975.9343	5988
978.2936	5780
980.6522	5786
983.0122	5598
985.3696	5460
987.7245	5500
990.0807	5452
992.4362	5352
994.7911	5499
997.1474	5542
999.4991	5507
1001.852	5439
1004.205	5517
1006.555	5522
1008.908	5513
1011.258	5579
1013.606	5490
1015.956	5473
1018.302	5527
1020.652	5498
1022.998	5548
1025.345	5506
1027.691	5516
1030.035	5621
1032.378	5579
1034.724	5579
1037.066	5689
1039.409	5584
1041.75	5575
1044.092	5553
1046.433	5651
1048.771	5540
1051.112	5671
1053.449	5605
1055.786	5567
1058.124	5660
1060.462	5580
1062.797	5612
1065.131	5695
1067.467	5808
1069.8	5800
1072.135	5693
1074.467	5799
1076.798	5750
1079.129	5687
1081.459	5714
1083.792	5639
1086.121	5710
1088.449	5730
1090.777	5621
1093.104	5635
1095.431	5619
1097.759	5573
1100.084	5645
1102.408	5700
1104.732	5629
1107.056	5675
1109.379	5513
1111.701	5508
1114.022	5573
1116.343	5621
1118.664	5496
1120.983	5696
1123.303	5594
1125.621	5636
1127.939	5654
1130.256	5552
1132.573	5620
1134.889	5530
1137.205	5504
1139.52	5543
1141.832	5556
1144.146	5585
1146.461	5490
1148.771	5487
1151.083	5549
1153.392	5566
1155.703	5518
1158.011	5441
1160.323	5551
1162.629	5659
1164.938	5511
1167.243	5525
1169.55	5493
1171.857	5619
1174.163	5583
1176.466	5629
1178.769	5510
1181.073	5583
1183.374	5626
1185.677	5592
1187.979	5603
1190.279	5561
1192.578	5644
1194.878	5523
1197.178	5651
1199.476	5711
1201.772	5487
1204.068	5546
1206.366	5592
1208.663	5592
1210.957	5611
1213.251	5603
1215.544	5687
1217.836	5530
1220.128	5647
1222.421	5673
1224.712	5689
1227.002	5652
1229.292	5719
1231.581	5770
1233.871	5814
1236.159	5779
1238.446	5799
1240.732	5762
1243.018	5852
1245.304	5866
1247.59	5885
1249.874	5930
1252.156	5931
1254.439	5896
1256.721	6014
1259.005	6015
1261.286	5815
1263.565	5910
1265.845	5900
1268.125	5742
1270.403	5903
1272.682	5883
1274.959	6111
1277.234	5864
1279.511	5860
1281.787	5898
1284.062	5880
1286.337	5799
1288.609	5822
1290.882	5708
1293.153	5825
1295.428	5701
1297.698	5774
1299.969	5682
1302.237	5694
1304.507	5907
1306.777	5769
1309.044	5727
1311.312	5705
1313.578	5758
1315.844	5793
1318.109	5804
1320.375	5732
1322.638	5684
1324.903	5849
1327.165	5782
1329.427	5833
1331.69	5707
1333.952	5635
1336.212	5790
1338.471	5818
1340.73	5730
1342.988	5741
1345.248	5765
1347.505	5777
1349.763	5739
1352.019	5736
1354.274	5674
1356.53	5748
1358.784	5635
1361.038	5643
1363.291	5632
1365.543	5602
1367.797	5645
1370.048	5651
1372.296	5786
1374.546	5828
1376.796	5546
1379.045	5736
1381.295	5741
1383.542	5770
1385.787	5739
1388.034	5831
1390.28	5795
1392.527	5775
1394.772	5956
1397.014	5910
1399.258	5884
1401.501	5923
1403.741	5997
1405.985	6052
1408.226	5860
1410.465	5899
1412.705	5956
1414.943	5929
1417.184	5853
1419.42	5969
1421.658	5918
1423.894	6021
1426.13	5918
1428.366	6029
1430.602	5936
1432.835	6093
1435.069	5898
1437.301	6010
1439.535	6116
1441.767	5987
1443.997	6093
1446.229	6024
1448.458	6154
1450.687	6000
1452.916	6191
1455.146	6131
1457.372	6246
1459.599	6124
1461.824	6047
1464.051	6087
1466.277	6167
1468.501	6172
1470.725	5899
1472.948	6004
1475.17	5816
1477.393	5928
1479.614	5855
1481.837	5756
1484.057	5805
1486.276	5732
1488.497	5730
1490.715	5738
1492.932	5680
1495.148	5677
1497.364	5707
1499.58	5706
1501.798	5699
1504.012	5698
1506.227	5615
1508.44	5677
1510.653	5677
1512.866	5647
1515.078	5592
1517.289	5659
1519.5	5692
1521.711	5616
1523.92	5677
1526.13	5567
1528.338	5635
1530.544	5730
1532.752	5590
1534.959	5621
1537.165	5700
1539.371	5591
1541.574	5677
1543.779	5631
1545.983	5625
1548.187	5711
1550.39	5724
1552.59	5678
1554.792	5646
1556.991	5645
1559.19	5795
1561.392	5746
1563.59	5783
1565.789	5772
1567.986	5862
1570.182	5777
1572.381	5733
1574.576	5800
1576.771	5774
1578.966	5771
1581.16	5681
1583.354	5782
1585.546	5907
1587.74	5701
1589.931	5878
1592.121	5889
1594.311	5861
1596.502	5877
1598.693	5874
1600.881	5878
1603.069	5774
1605.256	5832
1607.445	5880
1609.631	5852
1611.816	5926
1614.001	5848
1616.186	5984
1618.37	5881
1620.555	5835
1622.737	5885
1624.919	5874
1627.101	5837
1629.282	5970
1631.463	5858
1633.643	6035
1635.822	5888
1638.001	6020
1640.179	5947
1642.359	5929
1644.534	6038
1646.711	5936
1648.887	5989
1651.062	5956
1653.235	5915
1655.412	6161
1657.586	6015
1659.757	6018
1661.93	6030
1664.1	6032
1666.274	6187
1668.445	6077
1670.614	6041
1672.784	6199
1674.951	6069
1677.12	6136
1679.289	6141
1681.457	5979
1683.622	6042
1685.789	6118
1687.953	5988
1690.121	5933
1692.284	5996
1694.447	5891
1696.611	6017
1698.772	5931
1700.935	5898
1703.098	5979
1705.258	5923
1707.417	5798
1709.576	5820
1711.736	5804
1713.896	5825
1716.053	5857
1718.21	5792
1720.366	5826
1722.522	5798
1724.68	5792
1726.835	5807
1728.989	5780
1731.142	5705
1733.295	5685
1735.449	5789
1737.601	5852
1739.753	5727
1741.903	5789
1744.054	5776
1746.203	5672
1748.354	5719
1750.503	5751
1752.651	5751
1754.798	5733
1756.944	5911
1759.092	5668
1761.238	5704
1763.383	5677
1765.528	5835
1767.672	5831
1769.814	5872
1771.959	5833
1774.102	5715
1776.242	5738
1778.384	5822
1780.525	5792
1782.665	5781
1784.805	5810
1786.945	5712
1789.082	5929
1791.22	5786
1793.36	5735
1795.495	5845
1797.632	5822
1799.766	5943
1801.902	5904
1804.035	5766
1806.172	5705
1808.304	5758
1810.436	5818
1812.569	5853
1814.699	5903
1816.833	5830
1818.963	5867
1821.092	5913
1823.222	5725
1825.35	5860
1827.478	5679
1829.608	5841
1831.734	5837
1833.86	5829
1835.986	5779
1838.11	5826
1840.238	5627
1842.362	5735
1844.485	5834
1846.608	5823
1848.73	5805
1850.853	5707
1852.974	5707
1855.097	5907
1857.217	5725
1859.336	5756
1861.455	5727
1863.576	5758
1865.693	5739
1867.811	5768
1869.926	5725
1872.042	5643
1874.16	5678
1876.275	5659
1878.39	5691
1880.504	5757
1882.618	5734
1884.731	5716
1886.843	5691
1888.956	5828
1891.067	5856
1893.178	5734
1895.287	5780
1897.399	5847
1899.508	5782
1901.617	5733
1903.724	5737
1905.832	5758
1907.941	5729
1910.046	5798
1912.152	5760
1914.256	5845
1916.361	5885
1918.464	5842
1920.57	5794
1922.672	5726
1924.775	5755
1926.876	5875
1928.978	5809
1931.08	5771
1933.181	5815
1935.28	5881
1937.38	5753
1939.478	5868
1941.577	5813
1943.675	5839
1945.771	5863
1947.867	5782
1949.964	5925
1952.058	5806
1954.154	5855
1956.248	5798
1958.343	5891
1960.435	5856
1962.527	5799
1964.62	5808
1966.711	5859
1968.802	5722
1970.892	5813
1972.983	5766
1975.072	5827
1977.162	5801
1979.25	5792
1981.337	5760
1983.424	5825
1985.51	5820
1987.598	5840
1989.683	5820
1991.768	5736
1993.852	5811
1995.934	5793
1998.019	5788
2000.102	5744
2002.184	5663
2004.266	5751
2006.347	5726
2008.427	5666
2010.508	5747
2012.587	5721
2014.666	5752
2016.745	5712
2018.821	5718
2020.9	5738
2022.977	5776
2025.052	5759
2027.128	5850
2029.204	5687
2031.277	5798
2033.353	5845
2035.425	5639
2037.499	5691
2039.57	5866
2041.642	5665
2043.714	5789
2045.786	5718
2047.855	5780
2049.925	5674
2051.993	5786
2054.064	5782
2056.132	5811
2058.2	5832
2060.266	5750
2062.332	5675
2064.398	5671
2066.465	5814
2068.529	5711
2070.592	5777
2072.657	5797
2074.719	5664
2076.783	5706
2078.845	5785
2080.907	5775
2082.968	5597
2085.028	5679
2087.087	5751
2089.148	5659
2091.207	5703
2093.264	5694
2095.322	5741
2097.379	5728
2099.439	5812
2101.495	5853
2103.55	5819
2105.605	5810
2107.658	5863
2109.713	5845
2111.767	5775
2113.82	5745
2115.872	5768
2117.924	5768
2119.975	5811
2122.028	5751
2124.078	5848
2126.126	5709
2128.176	5773
2130.225	5723
2132.275	5734
2134.321	5803
2136.368	5693
2138.415	5752
2140.461	5734
2142.505	5793
2144.552	5703
2146.597	5751
2148.64	5678
2150.684	5628
2152.725	5707
2154.77	5636
2156.811	5689
2158.852	5648
2160.894	5749
2162.933	5718
2164.973	5743
2167.013	5729
2169.051	5718
2171.089	5856
2173.126	5629
2175.164	5523
2177.201	5684
2179.236	5684
2181.273	5768
2183.307	5657
2185.341	5697
2187.377	5604
2189.41	5556
2191.442	5750
2193.473	5487
2195.506	5627
2197.539	5691
2199.569	5609
2201.598	5576
2203.628	5616
2205.656	5542
2207.686	5613
2209.716	5535
2211.743	5622
2213.769	5533
2215.796	5511
2217.821	5500
2219.848	5725
2221.873	5568
2223.897	5518
2225.921	5534
2227.944	5622
2229.967	5582
2231.991	5600
2234.011	5575
2236.032	5531
2238.053	5548
2240.073	5627
2242.094	5538
2244.114	5667
2246.131	5651
2248.149	5446
2250.167	5510
2252.186	5518
2254.201	5618
2256.218	5629
2258.233	5452
2260.247	5487
2262.262	5640
2264.278	5605
2266.29	5461
2268.303	5561
2270.315	5567
2272.327	5525
2274.341	5552
2276.35	5660
2278.361	5579
2280.37	5552
2282.38	5540
2284.388	5632
2286.397	5558
2288.405	5589
2290.412	5520
2292.419	5557
2294.425	5537
2296.431	5481
2298.437	5596
2300.441	5478
2302.445	5485
2304.449	5581
2306.453	5641
2308.455	5532
2310.457	5444
2312.459	5487
2314.46	5516
2316.46	5562
2318.461	5596
2320.46	5622
2322.458	5576
2324.458	5602
2326.456	5514
2328.455	5500
2330.451	5477
2332.447	5511
2334.443	5563
2336.438	5470
2338.433	5450
2340.429	5425
2342.422	5486
2344.416	5419
2346.408	5527
2348.399	5432
2350.393	5436
2352.384	5482
2354.375	5418
2356.365	5419
2358.355	5454
2360.344	5323
2362.333	5352
2364.322	5386
2366.309	5444
2368.295	5497
2370.282	5451
2372.27	5463
2374.256	5423
2376.24	5424
2378.225	5394
2380.208	5418
2382.194	5377
2384.177	5324
2386.159	5369
2388.142	5314
2390.122	5343
2392.105	5464
2394.085	5461
2396.066	5367
2398.044	5337
2400.024	5332
2402.002	5341
2403.982	5231
2405.959	5406
2407.935	5456
2409.913	5246
2411.888	5343
2413.865	5339
2415.84	5222
2417.814	5259
2419.788	5308
2421.762	5353
2423.735	5261
2425.708	5272
2427.68	5255
2429.651	5393
2431.623	5381
2433.593	5359
2435.564	5389
2437.533	5339
2439.502	5321
2441.47	5285
2443.438	5367
2445.406	5226
2447.373	5211
2449.34	5386
2451.305	5391
2453.271	5391
2455.235	5249
2457.201	5357
2459.165	5377
2461.129	5368
2463.092	5243
2465.054	5346
2467.018	5276
2468.978	5364
2470.939	5323
2472.899	5249
2474.86	5296
2476.819	5339
2478.778	5294
2480.737	5262
2482.695	5300
2484.653	5336
2486.609	5306
2488.567	5269
2490.524	5278
2492.478	5271
2494.433	5257
2496.387	5380
2498.343	5353
2500.297	5348
2502.249	5311
2504.202	5232
2506.153	5304
2508.105	5355
2510.057	5218
2512.008	5162
2513.957	5255
2515.906	5182
2517.855	5317
2519.805	5230
2521.754	5229
2523.7	5217
2525.647	5225
2527.594	5211
2529.54	5199
2531.486	5151
2533.431	5345
2535.376	5135
2537.32	5208
2539.263	5268
2541.207	5266
2543.151	5298
2545.093	5235
2547.034	5243
2548.975	5196
2550.917	5219
2552.856	5146
2554.796	5220
2556.735	5316
2558.673	5186
2560.611	5215
2562.55	5202
2564.487	5257
2566.424	5289
2568.36	5179
2570.296	5180
2572.232	5260
2574.167	5219
2576.101	5247
2578.035	5148
2579.969	5248
2581.902	5177
2583.834	5164
2585.766	5265
2587.698	5185
2589.628	5101
2591.557	5264
2593.489	5224
2595.419	5301
2597.348	5236
2599.275	5192
2601.204	5239
2603.131	5154
2605.059	5254
2606.986	5312
2608.911	5255
2610.837	5206
2612.76	5124
2614.687	5235
2616.61	5254
2618.534	5141
2620.457	5337
2622.38	5299
2624.302	5166
2626.225	5195
2628.145	5194
2630.067	5175
2631.986	5175
2633.906	5192
2635.827	5298
2637.745	5194
2639.662	5295
2641.581	5203
2643.498	5240
2645.415	5284
2647.331	5232
2649.248	5225
2651.163	5207
2653.077	5193
2654.993	5234
2656.906	5236
2658.821	5311
2660.733	5277
2662.646	5159
2664.557	5213
2666.47	5160
2668.381	5280
2670.291	5241
2672.201	5211
2674.11	5191
2676.021	5220
2677.929	5189
2679.837	5218
2681.745	5180
2683.652	5194
2685.56	5089
2687.466	5171
2689.371	5213
2691.276	5172
2693.181	5048
2695.085	5219
2696.991	5113
2698.893	5207
2700.796	5105
2702.698	5100
2704.601	5183
2706.502	5152
2708.404	5109
2710.304	5092
2712.203	5203
2714.103	5066
2716.003	5157
2717.902	5078
2719.8	5139
2721.697	5060
2723.594	5113
2725.49	5158
2727.389	5098
2729.283	5201
2731.179	5131
2733.073	5185
2734.968	5224
2736.863	5074
2738.757	5267
2740.649	5134
2742.541	5145
2744.433	5184
2746.324	5091
2748.216	5157
2750.107	5013
2751.997	5154
2753.886	5117
2755.776	5090
2757.666	5246
2759.553	5126
2761.44	5194
2763.327	5006
2765.215	5114
2767.102	5120
2768.988	5038
2770.873	5071
2772.757	4955
2774.641	5116
2776.525	5008
2778.41	5064
2780.292	5077
2782.175	5069
2784.057	5110
2785.938	4898
2787.821	5151
2789.701	5079
2791.581	5111
2793.461	5054
2795.34	5094
2797.219	5034
2799.099	4996
2800.975	5014
2802.853	4986
2804.73	4933
2806.606	4994
2808.484	5051
2810.358	5049
2812.233	5009
2814.108	5069
2815.981	4985
2817.857	5058
2819.73	5028
2821.602	5091
2823.474	4983
2825.346	5185
2827.217	4974
2829.089	5023
2830.959	5070
2832.829	5062
2834.698	5055
2836.567	5080
2838.436	5115
2840.305	5089
2842.172	5153
2844.04	5143
2845.905	5083
2847.772	5209
2849.639	5234
2851.503	5115
2853.369	5181
2855.232	5296
2857.096	5227
2858.961	5217
2860.824	5328
2862.686	5307
2864.547	5467
2866.41	5470
2868.272	5354
2870.132	5459
2871.992	5454
2873.851	5668
2875.711	5635
2877.57	5689
2879.429	5737
2881.287	5808
2883.144	5879
2885.001	5980
2886.857	5875
2888.714	5932
2890.57	6045
2892.425	5986
2894.279	5958
2896.133	5947
2897.987	6008
2899.842	5950
2901.694	5805
2903.547	5856
2905.397	5777
2907.249	5973
2909.101	5857
2910.952	6025
2912.802	5995
2914.652	5972
2916.5	6105
2918.35	6118
2920.198	6256
2922.045	6212
2923.893	6246
2925.74	6431
2927.585	6454
2929.433	6622
2931.279	6622
2933.123	6665
2934.968	6794
2936.811	6792
2938.656	6839
2940.5	6900
2942.342	6909
2944.185	6950
2946.026	7041
2947.87	7124
2949.71	7091
2951.549	7123
2953.39	7064
2955.229	6874
2957.069	6940
2958.908	6772
2960.746	6781
2962.584	6568
2964.421	6670
2966.257	6638
2968.094	6501
2969.931	6406
2971.766	6401
2973.601	6251
2975.435	6280
2977.27	6286
2979.105	6152
2980.938	6196
2982.77	6001
2984.602	6106
2986.434	6050
2988.267	6029
2990.097	5807
2991.927	5852
2993.757	5750
2995.587	5738
2997.417	5622
2999.246	5705
3001.074	5582
3002.902	5463
3004.729	5469
3006.556	5379
3008.384	5325
3010.21	5274
3012.036	5171
3013.861	5252
3015.684	5024
3017.51	5037
3019.334	5105
3021.157	5001
3022.981	4974
3024.802	4988
3026.624	4979
3028.448	4875
3030.267	4879
3032.088	4906
3033.909	4883
3035.728	4698
3037.549	4727
3039.368	4898
3041.186	4738
3043.004	4803
3044.821	4824
3046.64	4752
3048.455	4791
3050.272	4837
3052.087	4778
3053.903	4822
3055.717	4762
3057.534	4819
3059.347	4819
3061.16	4790
3062.974	4669
3064.785	4777
3066.598	4750
3068.411	4852
3070.222	4831
3072.032	4749
3073.844	4827
3075.653	4778
3077.463	4784
3079.272	4668
3081.08	4711
3082.889	4689
3084.697	4562
3086.505	4604
3088.312	4608
3090.118	4699
3091.924	4623
3093.729	4734
3095.535	4622
3097.34	4536
3099.144	4663
3100.947	4726
3102.75	4576
3104.553	4557
3106.357	4524
3108.159	4596
3109.961	4632
3111.762	4562
3113.562	4621
3115.365	4589
3117.164	4571
3118.964	4585
3120.761	4623
3122.56	4597
3124.36	4571
3126.158	4523
3127.954	4588
3129.75	4553
3131.547	4559
3133.343	4510
3135.139	4504
3136.934	4577
3138.729	4533
3140.522	4514
3142.317	4477
3144.11	4509
3145.904	4582
3147.695	4531
3149.488	4524
3151.28	4450
3153.07	4415
3154.863	4487
3156.652	4481
3158.441	4374
3160.231	4412
3162.019	4434
3163.81	4481
3165.597	4529
3167.384	4539
3169.172	4462
3170.958	4408
3172.745	4523
3174.532	4394
3176.317	4432
3178.101	4514
3179.885	4453
3181.67	4434
3183.455	4387
3185.238	4518
3187.02	4473
3188.802	4435
3190.585	4467
3192.368	4461
3194.149	4476
3195.929	4437
3197.709	4477
3199.489	4430
3201.268	4450
3203.048	4449
3204.826	4438
3206.604	4517
3208.382	4539
3210.159	4465
3211.937	4453
3213.713	4491
3215.489	4506
3217.263	4478
3219.038	4443
3220.815	4418
3222.589	4409
3224.363	4363
3226.136	4460
3227.908	4391
3229.681	4431
3231.454	4494
3233.226	4373
3234.996	4353
3236.767	4446
3238.538	4442
3240.308	4397
3242.078	4454
3243.847	4410
3245.615	4522
3247.384	4407
3249.15	4432
3250.92	4444
3252.686	4563
3254.453	4507
3256.218	4443
3257.984	4384
3259.75	4516
3261.515	4497
3263.279	4498
3265.044	4513
3266.806	4398
3268.57	4418
3270.334	4470
3272.095	4459
3273.856	4470
3275.619	4457
3277.379	4449
3279.14	4487
3280.9	4454
3282.661	4472
3284.419	4470
3286.178	4472
3287.937	4380
3289.695	4488
3291.453	4570
3293.21	4454
3294.967	4471
3296.723	4525
3298.48	4547
3300.235	4505
3301.99	4514
3303.744	4407
3305.498	4431
3307.253	4442
3309.006	4390
3310.759	4458
3312.511	4425
3314.263	4454
3316.017	4537
3317.768	4495
3319.519	4494
3321.268	4393
3323.018	4506
3324.767	4499
3326.518	4524
3328.267	4497
3330.014	4549
3331.762	4405
3333.509	4422
3335.258	4454
3337.003	4485
3338.75	4462
3340.496	4436
3342.24	4499
3343.987	4378
3345.732	4528
3347.475	4447
3349.219	4392
3350.961	4398
3352.705	4410
3354.448	4458
3356.19	4426
3357.931	4497
3359.672	4329
3361.412	4450
3363.155	4390
3364.894	4424
3366.633	4400
3368.372	4394
3370.11	4314
3371.849	4336
3373.588	4319
3375.325	4408
3377.061	4509
3378.799	4273
3380.534	4385
3382.271	4289
3384.006	4244
3385.741	4302
3387.475	4357
3389.209	4362
3390.944	4298
3392.677	4292
3394.409	4279
3396.143	4299
3397.874	4286
3399.606	4231
3401.338	4298
3403.069	4324
3404.799	4258
3406.528	4287
3408.258	4223
3409.988	4291
3411.717	4282
3413.445	4326
3415.173	4215
3416.899	4245
3418.626	4192
3420.354	4179
3422.08	4205
3423.806	4321
3425.531	4155
3427.255	4148
3428.981	4280
3430.705	4307
3432.429	4145
3434.151	4183
3435.875	4192
3437.599	4138
3439.321	4177
3441.042	4139
3442.763	4214
3444.483	4143
3446.204	4147
3447.926	4199
3449.645	4149
3451.364	4189
3453.082	4109
3454.801	4167
3456.52	4074
3458.238	4130
3459.954	4028
3461.671	4032
3463.387	4010
3465.104	4063
3466.82	4098
3468.534	4114
3470.25	4059
3471.963	4101
3473.676	4089
3475.392	4017
3477.104	3973
3478.817	4042
3480.528	4054
3482.241	4043
3483.954	4081
3485.664	3982
3487.374	3932
3489.084	4005
3490.795	3960
3492.504	3982
3494.214	3922
3495.922	3965
3497.63	3991
3499.338	3877
3501.045	3957
3502.753	3966
3504.459	3915
3506.166	3936
3507.871	3987
3509.576	3919
3511.283	3949
3512.987	3864
3514.691	3875
3516.395	3915
3518.098	3889
3519.8	3849
3521.504	4000
3523.206	3939
3524.908	3838
3526.609	3813
3528.309	3881
3530.011	3879
3531.711	3865
3533.411	3846
3535.109	3875
3536.808	3901
3538.507	3878
3540.206	3869
3541.904	3825
3543.601	3802
3545.297	3788
3546.994	3771
3548.69	3775
3550.387	3756
3552.081	3764
3553.776	3841
3555.47	3779
3557.166	3800
3558.859	3757
3560.553	3713
3562.245	3834
3563.938	3745
3565.629	3799
3567.322	3652
3569.014	3780
3570.704	3661
3572.394	3680
3574.084	3703
3575.775	3707
3577.464	3726
3579.152	3729
3580.842	3674
3582.529	3734
3584.216	3692
3585.905	3638
3587.591	3697
3589.279	3579
3590.964	3721
3592.649	3644
3594.336	3664
3596.021	3637
3597.705	3638
3599.388	3646
3601.072	3565
3602.757	3647
3604.439	3689
3606.122	3587
3607.803	3571
3609.485	3524
3611.167	3612
3612.849	3587
3614.529	3522
3616.208	3537
3617.888	3467
3619.567	3510
3621.247	3565
3622.926	3536
3624.603	3562
3626.281	3539
3627.958	3474
3629.635	3535
3631.312	3509
3632.989	3422
3634.665	3493
3636.339	3491
3638.014	3476
3639.691	3499
3641.364	3479
3643.038	3503
3644.71	3456
3646.384	3478
3648.058	3455
3649.729	3491
3651.402	3333
3653.073	3437
3654.744	3474
3656.414	3426
3658.085	3356
3659.755	3437
3661.424	3488
3663.094	3421
3664.762	3417
3666.431	3395
3668.099	3390
3669.766	3432
3671.433	3377
3673.099	3355
3674.768	3337
3676.433	3317
3678.098	3377
3679.763	3284
3681.428	3429
3683.093	3371
3684.757	3372
3686.421	3280
3688.083	3301
3689.746	3361
3691.408	3291
3693.071	3335
3694.733	3267
3696.394	3461
3698.054	3330
3699.715	3390
3701.375	3348
3703.036	3308
3704.695	3329
3706.354	3277
3708.012	3441
3709.67	3300
3711.329	3235
3712.987	3372
3714.644	3379
3716.299	3239
3717.955	3307
3719.613	3317
3721.268	3300
3722.923	3401
3724.577	3254
3726.231	3345
3727.885	3264
3729.539	3269
3731.192	3264
3732.845	3215
3734.497	3342
3736.149	3248
3737.802	3250
3739.453	3290
3741.104	3229
3742.753	3285
3744.404	3260
3746.052	3199
3747.704	3230
3749.352	3234
3751	3231
3752.648	3265
3754.296	3211
3755.944	3195
3757.59	3214
3759.238	3268
3760.883	3283
3762.528	3354
3764.176	3219
3765.82	3222
3767.464	3144
3769.109	3200
3770.753	3228
3772.396	3256
3774.04	3149
3775.683	3140
3777.325	3244
3778.967	3147
3780.608	3209
3782.25	3155
3783.89	3161
3785.531	3151
3787.17	3195
3788.81	3218
3790.45	3170
3792.09	3194
3793.729	3175
3795.366	3165
3797.003	3129
3798.64	3179
3800.278	3116
3801.915	3143
3803.551	3108
3805.187	3132
3806.822	3112
3808.458	3129
3810.093	3123
3811.726	3180
3813.36	3171
3814.994	3094
3816.627	3084
3818.262	3118
3819.893	3041
3821.525	3111
3823.157	3087
3824.787	3116
3826.42	3046
3828.051	3057
3829.68	3070
3831.31	3059
3832.938	3081
3834.569	3057
3836.198	3041
3837.825	3059
3839.454	3022
3841.08	3178
3842.708	3072
3844.335	3027
3845.962	3062
3847.587	3007
3849.212	3069
3850.838	3038
3852.463	3116
3854.089	3022
3855.712	3094
3857.335	3102
3858.959	3030
3860.582	3075
3862.205	3041
3863.827	2988
3865.449	3047
3867.07	3018
3868.691	2992
3870.312	2939
3871.933	3020
3873.553	3007
3875.173	3015
3876.792	3074
3878.411	3031
3880.03	3034
3881.647	3011
3883.265	2976
3884.882	3027
3886.499	2989
3888.116	3052
3889.732	2967
3891.348	3036
3892.964	2987
3894.579	2939
3896.195	3009
3897.809	3028
3899.423	2950
3901.036	3028
3902.648	2965
3904.261	2981
3905.875	3033
3907.487	2994
3909.099	2993
3910.709	2945
3912.321	2991
3913.933	2942
3915.542	2974
3917.152	2967
3918.762	2993
3920.37	3056
3921.98	2958
3923.589	2968
3925.196	2889
3926.804	2959
3928.41	2927
3930.018	2924
3931.626	2916
3933.231	2945
3934.838	2884
3936.442	2926
3938.046	2968
3939.653	2962
3941.257	2907
3942.861	2966
3944.464	2863
3946.068	2939
3947.67	2894
3949.273	2921
3950.876	2910
3952.477	2927
3954.078	2940
3955.678	2913
3957.281	2953
3958.881	2866
3960.48	2814
3962.079	2969
3963.678	2924
3965.279	2895
3966.877	2941
3968.475	2939
3970.072	2876
3971.669	2890
3973.266	2885
3974.864	2934
3976.459	2798
3978.055	2877
3979.65	2901
3981.245	2898
3982.841	2850
3984.436	2813
3986.03	2774
3987.623	2948
3989.216	2851
3990.809	2819
3992.403	2806
3993.995	2847
3995.586	2903
3997.177	2812
3998.768	2798
4000.361	2774
4001.951	2822
4003.54	2774
4005.13	2773
4006.719	2800
4008.31	2757
4009.897	2819
4011.485	2827
4013.073	2847
4014.66	2772
4016.247	2763
4017.834	2751
4019.421	2797
4021.006	2705
4022.592	2748
4024.178	2774
4025.763	2798
4027.348	2723
4028.932	2688
4030.515	2738
4032.099	2755
4033.682	2807
4035.266	2750
4036.847	2778
4038.429	2756
4040.011	2660
4041.592	2743
4043.173	2688
4044.755	2701
4046.334	2677
4047.913	2680
4049.494	2676
4051.074	2727
4052.652	2663
4054.23	2704
4055.807	2753
4057.385	2650
4058.963	2694
4060.541	2703
4062.117	2676
4063.693	2698
4065.269	2663
4066.844	2595
4068.42	2719
4069.995	2677
4071.569	2695
4073.143	2653
4074.716	2597
4076.291	2713
4077.864	2671
4079.436	2633
4081.009	2668
4082.58	2648
4084.152	2602
4085.723	2740
4087.294	2724
4088.865	2671
4090.435	2654
4092.005	2657
4093.574	2571
4095.143	2654
4096.712	2614
4098.279	2685
4099.848	2625
4101.416	2600
4102.984	2656
4104.55	2621
4106.117	2635
4107.682	2607
4109.248	2616
4110.815	2647
4112.379	2562
4113.945	2594
4115.508	2546
4117.073	2658
4118.637	2566
4120.201	2525
4121.763	2561
4123.325	2566
4124.888	2624
4126.449	2563
4128.013	2542
4129.573	2581
4131.133	2523
4132.694	2582
4134.254	2519
4135.814	2556
4137.374	2543
4138.933	2537
4140.491	2593
4142.049	2620
4143.607	2592
4145.167	2560
4146.724	2565
4148.28	2604
4149.836	2502
4151.392	2589
4152.949	2575
4154.504	2570
4156.059	2536
4157.614	2496
4159.168	2485
4160.723	2480
4162.277	2477
4163.83	2519
4165.383	2461
4166.936	2466
4168.488	2571
4170.041	2531
4171.593	2465
4173.144	2499
4174.695	2450
4176.246	2473
4177.796	2446
4179.346	2482
4180.896	2468
4182.445	2459
4183.994	2469
4185.542	2479
4187.091	2418
4188.639	2476
4190.185	2448
4191.732	2488
4193.279	2465
4194.826	2473
4196.373	2447
4197.918	2448
4199.463	2404
4201.008	2408
4202.553	2461
4204.098	2453
4205.641	2428
4207.185	2424
4208.728	2389
4210.271	2461
4211.814	2418
4213.357	2461
4214.898	2401
4216.439	2447
4217.98	2423
4219.522	2416
4221.062	2472
4222.603	2386
4224.142	2325
4225.681	2380
4227.222	2431
4228.76	2370
4230.298	2381
4231.835	2404
4233.373	2340
4234.911	2404
4236.449	2411
4237.985	2460
4239.521	2303
4241.057	2389
4242.592	2389
4244.128	2373
4245.663	2436
4247.197	2383
4248.731	2433
4250.265	2363
4251.798	2392
4253.333	2394
4254.865	2448
4256.397	2355
4257.93	2362
4259.461	2345
4260.994	2371
4262.525	2340
4264.056	2352
4265.586	2369
4267.115	2355
4268.646	2353
4270.176	2408
4271.705	2411
4273.232	2338
4274.761	2369
4276.289	2393
4277.818	2328
4279.345	2316
4280.872	2385
4282.399	2342
4283.924	2348
4285.452	2328
4286.976	2299
4288.502	2330
4290.026	2390
4291.551	2265
4293.074	2309
4294.6	2261
4296.123	2289
4297.646	2247
4299.168	2316
4300.691	2314
4302.214	2274
4303.736	2278
4305.257	2248
4306.778	2298
4308.299	2309
4309.82	2312
4311.34	2296
4312.86	2307
4314.379	2242
