400.0745	4550
402.597	4660
405.1208	4532
407.6419	4681
410.1623	4676
412.6819	4647
415.201	4719
417.7172	4769
420.2369	4763
422.7538	4835
425.2701	4903
427.7856	4905
430.3005	4923
432.8147	4969
435.3282	4914
437.841	4861
440.3511	4931
442.8625	4969
445.3753	4897
447.8854	4974
450.3927	4957
452.9014	4940
455.4073	4946
457.9146	5000
460.4233	4933
462.9272	4869
465.4325	4928
467.935	4918
470.4389	5075
472.9421	4873
475.4446	4929
477.9444	4889
480.4456	4912
482.944	5029
485.4417	5011
487.9429	4978
490.4393	4960
492.935	5025
495.4321	4980
497.9264	5026
500.4221	5114
502.9171	5069
505.4094	5004
507.9011	5109
510.392	5131
512.8864	5168
515.3759	5095
517.8649	5137
520.3531	5045
522.8406	5089
525.3275	5182
527.8178	5157
530.3033	5148
532.7881	5163
535.2723	5097
537.7558	5181
540.2407	5226
542.7228	5121
545.2043	5175
547.6851	5166
550.1652	5175
552.6467	5168
555.1255	5183
557.6016	5260
560.079	5201
562.5557	5315
565.0318	5122
567.5092	5192
569.984	5210
572.456	5324
574.9294	5367
577.4022	5386
579.8762	5315
582.3456	5348
584.8163	5358
587.2863	5386
589.7557	5414
592.2224	5418
594.6924	5401
597.1578	5382
599.6245	5478
602.0905	5334
604.5538	5369
607.0206	5327
609.4825	5320
611.9459	5378
614.4066	5340
616.8686	5340
619.33	5285
621.7906	5169
624.2487	5378
626.708	5317
629.1647	5272
631.6207	5282
634.0801	5248
636.5348	5264
638.9888	5314
641.4442	5357
643.8969	5374
646.3509	5365
648.8022	5359
651.255	5358
653.705	5400
656.1544	5516
658.6031	5392
661.0532	5499
663.5026	5500
665.9493	5381
668.3954	5517
670.8409	5410
673.2877	5374
675.7318	5552
678.1752	5497
680.618	5579
683.0601	5537
685.5035	5532
687.9444	5489
690.3845	5586
692.824	5407
695.2628	5463
697.701	5593
700.1406	5538
702.5774	5475
705.0116	5618
707.4472	5563
709.8821	5563
712.3183	5647
714.7519	5621
717.1829	5593
719.6151	5772
722.0468	5543
724.4777	5616
726.908	5700
729.3377	5750
731.7667	5678
734.1931	5716
736.6208	5807
739.0498	5829
741.4742	5765
743.9	5842
746.3231	5820
748.7476	5848
751.1713	5870
753.5945	5929
756.015	5873
758.4368	5952
760.856	5902
763.2766	6006
765.6965	5958
768.1157	5902
770.5323	5911
772.9483	6004
775.3656	5915
777.7822	5944
780.1963	5886
782.6116	5938
785.0244	5962
787.4365	5871
789.8499	5907
792.2626	5916
794.6728	5868
797.0823	5976
799.4911	5998
801.8994	5864
804.3109	5847
806.7178	6062
809.124	5951
811.5297	6053
813.9347	6061
816.341	6022
818.7447	5984
821.1478	5951
823.5502	5989
825.952	6142
828.3531	6058
830.7556	6002
833.1554	6084
835.5546	6078
837.9532	6053
840.3511	6028
842.7504	6077
845.1451	6045
847.5411	6098
849.9365	6258
852.3312	6295
854.7272	6076
857.1187	6243
859.5115	6255
861.9037	6074
864.2952	6180
866.6842	6121
869.0764	6230
871.4661	6178
873.8531	6127
876.2415	6185
878.6272	6119
881.0162	6024
883.4026	6167
885.7866	6140
888.1717	6150
890.5543	6114
892.9382	6086
895.3215	6107
897.7041	6170
900.0842	6118
902.4655	6107
904.8443	6160
907.2244	6174
909.6039	6261
911.9808	6129
914.357	6198
916.7346	6228
919.1115	6284
921.4859	6312
923.8616	6518
926.2347	6435
928.6071	6463
930.979	6478
933.3541	6385
935.7247	6452
938.0946	6499
940.4639	6451
942.8326	6534
945.2026	6719
947.5701	6632
949.9369	6760
952.305	7021
954.6705	7225
957.0355	7428
959.4017	7735
961.7654	7809
964.1284	7721
966.4908	7484
968.8527	7276
971.2138	7014
973.5743	6916
975.9343	6690
978.2936	6427
980.6522	6462
983.0122	6417
985.3696	6395
987.7245	6489
990.0807	6344
992.4362	6393
994.7911	6367
997.1474	6367
999.4991	6447
1001.852	6420
1004.205	6381
1006.555	6245
1008.908	6461
1011.258	6354
1013.606	6359
1015.956	6419
1018.302	6304
1020.652	6443
1022.998	6428
1025.345	6329
1027.691	6436
1030.035	6566
1032.378	6485
1034.724	6406
1037.066	6493
1039.409	6502
1041.75	6532
1044.092	6619
1046.433	6518
1048.771	6418
1051.112	6587
1053.449	6451
1055.786	6473
1058.124	6536
1060.462	6475
1062.797	6497
1065.131	6484
1067.467	6491
1069.8	6582
1072.135	6600
1074.467	6652
1076.798	6644
1079.129	6460
1081.459	6457
1083.792	6698
1086.121	6478
1088.449	6485
1090.777	6541
1093.104	6414
1095.431	6505
1097.759	6478
1100.084	6527
1102.408	6444
1104.732	6426
1107.056	6523
1109.379	6518
1111.701	6494
1114.022	6485
1116.343	6595
1118.664	6522
1120.983	6434
1123.303	6560
1125.621	6543
1127.939	6620
1130.256	6462
1132.573	6496
1134.889	6478
1137.205	6474
1139.52	6566
1141.832	6560
1144.146	6581
1146.461	6477
1148.771	6427
1151.083	6534
1153.392	6550
1155.703	6554
1158.011	6564
1160.323	6533
1162.629	6409
1164.938	6530
1167.243	6491
1169.55	6573
1171.857	6476
1174.163	6556
1176.466	6478
1178.769	6407
1181.073	6593
1183.374	6563
1185.677	6539
1187.979	6465
1190.279	6511
1192.578	6454
1194.878	6531
1197.178	6577
1199.476	6512
1201.772	6506
1204.068	6464
1206.366	6507
1208.663	6561
1210.957	6647
1213.251	6483
1215.544	6514
1217.836	6525
1220.128	6706
1222.421	6530
1224.712	6622
1227.002	6561
1229.292	6498
1231.581	6661
1233.871	6676
1236.159	6676
1238.446	6842
1240.732	6606
1243.018	6870
1245.304	6759
1247.59	6784
1249.874	6741
1252.156	6705
1254.439	6779
1256.721	6771
1259.005	6823
1261.286	6767
1263.565	6862
1265.845	6810
1268.125	6767
1270.403	6707
1272.682	6844
1274.959	6861
1277.234	6811
1279.511	6839
1281.787	6649
1284.062	6717
1286.337	6761
1288.609	6743
1290.882	6709
1293.153	6789
1295.428	6679
1297.698	6747
1299.969	6639
1302.237	6524
1304.507	6746
1306.777	6659
1309.044	6656
1311.312	6616
1313.578	6701
1315.844	6593
1318.109	6687
1320.375	6612
1322.638	6774
1324.903	6598
1327.165	6626
1329.427	6678
1331.69	6583
1333.952	6796
1336.212	6811
1338.471	6800
1340.73	6544
1342.988	6649
1345.248	6583
1347.505	6697
1349.763	6642
1352.019	6694
1354.274	6651
1356.53	6767
1358.784	6684
1361.038	6713
1363.291	6630
1365.543	6637
1367.797	6612
1370.048	6734
1372.296	6627
1374.546	6688
1376.796	6632
1379.045	6658
1381.295	6741
1383.542	6710
1385.787	6771
1388.034	6735
1390.28	6734
1392.527	6745
1394.772	6828
1397.014	6855
1399.258	6761
1401.501	6893
1403.741	6687
1405.985	6707
1408.226	6814
1410.465	6876
1412.705	6828
1414.943	6664
1417.184	6834
1419.42	6920
1421.658	6799
1423.894	6799
1426.13	6789
1428.366	6981
1430.602	6835
1432.835	6859
1435.069	6852
1437.301	6905
1439.535	6993
1441.767	6922
1443.997	6995
1446.229	6945
1448.458	6987
1450.687	6958
1452.916	6956
1455.146	6915
1457.372	7127
1459.599	7010
1461.824	6957
1464.051	6961
1466.277	6874
1468.501	6989
1470.725	6924
1472.948	6815
1475.17	6903
1477.393	6788
1479.614	6821
1481.837	6785
1484.057	6698
1486.276	6673
1488.497	6868
1490.715	6715
1492.932	6632
1495.148	6657
1497.364	6755
1499.58	6718
1501.798	6692
1504.012	6570
1506.227	6687
1508.44	6644
1510.653	6528
1512.866	6738
1515.078	6608
1517.289	6648
1519.5	6592
1521.711	6620
1523.92	6648
1526.13	6536
1528.338	6628
1530.544	6647
1532.752	6649
1534.959	6660
1537.165	6614
1539.371	6733
1541.574	6593
1543.779	6597
1545.983	6633
1548.187	6675
1550.39	6708
1552.59	6757
1554.792	6714
1556.991	6673
1559.19	6674
1561.392	6727
1563.59	6710
1565.789	6790
1567.986	6733
1570.182	6736
1572.381	6827
1574.576	6775
1576.771	6750
1578.966	6696
1581.16	6887
1583.354	6862
1585.546	6766
1587.74	6794
1589.931	6873
1592.121	6955
1594.311	6761
1596.502	6677
1598.693	6916
1600.881	6893
1603.069	6924
1605.256	6840
1607.445	6824
1609.631	6812
1611.816	6883
1614.001	6818
1616.186	6899
1618.37	6814
1620.555	6938
1622.737	6999
1624.919	6913
1627.101	6863
1629.282	6903
1631.463	6859
1633.643	6992
1635.822	6987
1638.001	6918
1640.179	6907
1642.359	7013
1644.534	6983
1646.711	6982
1648.887	7055
1651.062	6949
1653.235	6870
1655.412	6932
1657.586	6982
1659.757	6974
1661.93	6877
1664.1	6980
1666.274	6954
1668.445	7098
1670.614	7049
1672.784	6912
1674.951	6991
1677.12	6886
1679.289	7091
1681.457	7044
1683.622	6916
1685.789	6996
1687.953	6982
1690.121	6973
1692.284	6909
1694.447	6869
1696.611	6927
1698.772	6953
1700.935	6826
1703.098	6887
1705.258	6785
1707.417	6924
1709.576	6904
1711.736	6751
1713.896	6787
1716.053	6904
1718.21	6827
1720.366	6812
1722.522	6804
1724.68	6785
1726.835	6750
1728.989	6736
1731.142	6859
1733.295	6762
1735.449	6860
1737.601	6700
1739.753	6795
1741.903	6974
1744.054	6903
1746.203	6844
1748.354	6792
1750.503	6815
1752.651	6775
1754.798	6824
1756.944	6767
1759.092	6748
1761.238	6840
1763.383	6895
1765.528	6870
1767.672	6832
1769.814	6887
1771.959	6911
1774.102	6914
1776.242	6839
1778.384	6902
1780.525	6885
1782.665	6862
1784.805	6783
1786.945	6759
1789.082	6920
1791.22	6848
1793.36	6898
1795.495	6918
1797.632	6893
1799.766	6916
1801.902	6776
1804.035	6800
1806.172	6811
1808.304	6899
1810.436	6777
1812.569	6959
1814.699	6854
1816.833	6910
1818.963	6758
1821.092	6800
1823.222	6763
1825.35	6736
1827.478	6772
1829.608	6870
1831.734	6922
1833.86	6905
1835.986	6667
1838.11	6842
1840.238	6922
1842.362	6807
1844.485	6780
1846.608	6840
1848.73	6737
1850.853	6811
1852.974	6819
1855.097	6687
1857.217	6628
1859.336	6811
1861.455	6692
1863.576	6678
1865.693	6633
1867.811	6745
1869.926	6854
1872.042	6830
1874.16	6793
1876.275	6734
1878.39	6723
1880.504	6671
1882.618	6715
1884.731	6810
1886.843	6797
1888.956	6887
1891.067	6906
1893.178	6742
1895.287	6789
1897.399	6905
1899.508	6772
1901.617	6753
1903.724	6862
1905.832	6776
1907.941	6888
1910.046	6871
1912.152	6805
1914.256	6868
1916.361	6753
1918.464	6830
1920.57	6882
1922.672	6680
1924.775	6815
1926.876	6824
1928.978	6866
1931.08	6893
1933.181	6889
1935.28	6951
1937.38	6735
1939.478	6871
1941.577	6774
1943.675	6918
1945.771	6887
1947.867	6878
1949.964	6878
1952.058	6930
1954.154	6913
1956.248	6814
1958.343	6827
1960.435	6897
1962.527	6983
1964.62	6803
1966.711	6909
1968.802	6788
1970.892	6807
1972.983	6872
1975.072	6933
1977.162	6748
1979.25	6852
1981.337	6847
1983.424	6752
1985.51	6857
1987.598	6864
1989.683	6742
1991.768	6881
1993.852	6781
1995.934	6841
1998.019	6792
2000.102	6797
2002.184	6806
2004.266	6771
2006.347	6822
2008.427	6639
2010.508	6857
2012.587	6795
2014.666	6764
2016.745	6759
2018.821	6827
2020.9	6768
2022.977	6894
2025.052	6694
2027.128	6747
2029.204	6684
2031.277	6728
2033.353	6753
2035.425	6833
2037.499	6573
2039.57	6815
2041.642	6750
2043.714	6742
2045.786	6892
2047.855	6827
2049.925	6804
2051.993	6742
2054.064	6763
2056.132	6703
2058.2	6800
2060.266	6832
2062.332	6801
2064.398	6767
2066.465	6802
2068.529	6800
2070.592	6769
2072.657	6785
2074.719	6697
2076.783	6853
2078.845	6809
2080.907	6680
2082.968	6793
2085.028	6735
2087.087	6725
2089.148	6677
2091.207	6755
2093.264	6707
2095.322	6837
2097.379	6814
2099.439	6769
2101.495	6729
2103.55	6708
2105.605	6788
2107.658	6807
2109.713	6747
2111.767	6786
2113.82	6782
2115.872	6705
2117.924	6742
2119.975	6786
2122.028	6716
2124.078	6749
2126.126	6686
2128.176	6762
2130.225	6678
2132.275	6695
2134.321	6643
2136.368	6610
2138.415	6776
2140.461	6837
2142.505	6702
2144.552	6807
2146.597	6684
2148.64	6700
2150.684	6665
2152.725	6773
2154.77	6804
2156.811	6751
2158.852	6611
2160.894	6702
2162.933	6718
2164.973	6645
2167.013	6683
2169.051	6666
2171.089	6623
2173.126	6663
2175.164	6559
2177.201	6563
2179.236	6564
2181.273	6688
2183.307	6611
2185.341	6713
2187.377	6564
2189.41	6582
2191.442	6648
2193.473	6573
2195.506	6626
2197.539	6673
2199.569	6510
2201.598	6556
2203.628	6556
2205.656	6593
2207.686	6582
2209.716	6557
2211.743	6541
2213.769	6539
2215.796	6629
2217.821	6442
2219.848	6653
2221.873	6350
2223.897	6484
2225.921	6474
2227.944	6616
2229.967	6614
2231.991	6530
2234.011	6513
2236.032	6664
2238.053	6608
2240.073	6690
2242.094	6505
2244.114	6534
2246.131	6490
2248.149	6495
2250.167	6549
2252.186	6563
2254.201	6605
2256.218	6539
2258.233	6611
2260.247	6496
2262.262	6581
2264.278	6596
2266.29	6476
2268.303	6529
2270.315	6425
2272.327	6601
2274.341	6572
2276.35	6618
2278.361	6502
2280.37	6523
2282.38	6599
2284.388	6504
2286.397	6420
2288.405	6663
2290.412	6551
2292.419	6554
2294.425	6564
2296.431	6484
2298.437	6396
2300.441	6596
2302.445	6522
2304.449	6526
2306.453	6653
2308.455	6406
2310.457	6589
2312.459	6532
2314.46	6381
2316.46	6559
2318.461	6385
2320.46	6496
2322.458	6516
2324.458	6568
2326.456	6432
2328.455	6451
2330.451	6523
2332.447	6473
2334.443	6478
2336.438	6430
2338.433	6434
2340.429	6349
2342.422	6515
2344.416	6552
2346.408	6421
2348.399	6378
2350.393	6278
2352.384	6440
2354.375	6373
2356.365	6378
2358.355	6334
2360.344	6444
2362.333	6377
2364.322	6339
2366.309	6365
2368.295	6494
2370.282	6384
2372.27	6339
2374.256	6310
2376.24	6401
2378.225	6328
2380.208	6355
2382.194	6385
2384.177	6300
2386.159	6234
2388.142	6285
2390.122	6252
2392.105	6283
2394.085	6280
2396.066	6345
2398.044	6273
2400.024	6394
2402.002	6253
2403.982	6292
2405.959	6272
2407.935	6302
2409.913	6343
2411.888	6348
2413.865	6341
2415.84	6167
2417.814	6275
2419.788	6294
2421.762	6303
2423.735	6284
2425.708	6268
2427.68	6266
2429.651	6228
2431.623	6195
2433.593	6231
2435.564	6307
2437.533	6237
2439.502	6242
2441.47	6219
2443.438	6233
2445.406	6381
2447.373	6177
2449.34	6346
2451.305	6147
2453.271	6290
2455.235	6165
2457.201	6274
2459.165	6228
2461.129	6130
2463.092	6322
2465.054	6347
2467.018	6179
2468.978	6257
2470.939	6118
2472.899	6216
2474.86	6300
2476.819	6184
2478.778	6114
2480.737	6264
2482.695	6210
2484.653	6211
2486.609	6078
2488.567	6179
2490.524	6137
2492.478	6220
2494.433	6094
2496.387	6133
2498.343	6120
2500.297	6160
2502.249	6067
2504.202	6149
2506.153	6138
2508.105	6242
2510.057	6099
2512.008	6115
2513.957	6163
2515.906	6173
2517.855	6140
2519.805	6087
2521.754	6149
2523.7	6185
2525.647	6170
2527.594	6136
2529.54	6078
2531.486	5983
2533.431	6186
2535.376	6142
2537.32	6042
2539.263	6131
2541.207	6083
2543.151	6151
2545.093	6113
2547.034	6107
2548.975	6054
2550.917	6194
2552.856	6124
2554.796	6160
2556.735	6190
2558.673	6143
2560.611	6060
2562.55	6076
2564.487	6008
2566.424	6044
2568.36	6081
2570.296	6163
2572.232	6101
2574.167	6107
2576.101	6006
2578.035	6076
2579.969	6044
2581.902	6115
2583.834	6037
2585.766	6085
2587.698	6063
2589.628	6109
2591.557	6065
2593.489	6095
2595.419	6062
2597.348	6043
2599.275	6143
2601.204	6092
2603.131	6060
2605.059	6211
2606.986	6028
2608.911	5979
2610.837	6046
2612.76	6026
2614.687	6167
2616.61	6115
2618.534	6091
2620.457	6050
2622.38	6131
2624.302	6064
2626.225	6091
2628.145	6001
2630.067	6288
2631.986	6063
2633.906	6133
2635.827	6136
2637.745	6065
2639.662	6067
2641.581	6106
2643.498	6138
2645.415	6100
2647.331	6142
2649.248	6041
2651.163	6173
2653.077	6201
2654.993	6028
2656.906	6030
2658.821	6072
2660.733	6031
2662.646	6181
2664.557	6070
2666.47	6149
2668.381	6007
2670.291	6128
2672.201	6027
2674.11	6047
2676.021	6000
2677.929	5987
2679.837	6090
2681.745	6092
2683.652	5955
2685.56	5868
2687.466	5981
2689.371	5977
2691.276	5990
2693.181	6060
2695.085	6075
2696.991	5976
2698.893	5927
2700.796	5948
2702.698	5903
2704.601	6015
2706.502	6031
2708.404	5875
2710.304	6045
2712.203	6038
2714.103	5977
2716.003	6023
2717.902	5918
2719.8	5948
2721.697	5931
2723.594	5944
2725.49	5974
2727.389	5965
2729.283	5896
2731.179	5871
2733.073	5939
2734.968	6058
2736.863	5896
2738.757	5969
2740.649	5916
2742.541	5829
2744.433	5947
2746.324	6002
2748.216	5889
2750.107	5938
2751.997	5952
2753.886	5947
2755.776	5828
2757.666	5958
2759.553	5976
2761.44	5910
2763.327	5865
2765.215	5918
2767.102	5931
2768.988	5718
2770.873	5833
2772.757	5865
2774.641	5872
2776.525	5883
2778.41	5874
2780.292	5849
2782.175	5837
2784.057	5846
2785.938	5878
2787.821	5773
2789.701	5860
2791.581	5755
2793.461	5909
2795.34	5735
2797.219	5719
2799.099	5819
2800.975	5859
2802.853	5896
2804.73	5875
2806.606	5777
2808.484	5790
2810.358	5705
2812.233	5878
2814.108	5798
2815.981	5832
2817.857	5799
2819.73	5782
2821.602	5803
2823.474	5717
2825.346	5747
2827.217	5825
2829.089	5667
2830.959	5818
2832.829	5819
2834.698	5842
2836.567	5812
2838.436	5831
2840.305	5706
2842.172	5771
2844.04	5864
2845.905	5739
2847.772	5939
2849.639	5832
2851.503	5843
2853.369	5848
2855.232	5796
2857.096	5916
2858.961	5894
2860.824	5856
2862.686	5953
2864.547	5919
2866.41	5958
2868.272	6088
2870.132	6045
2871.992	6106
2873.851	6072
2875.711	6099
2877.57	6198
2879.429	6192
2881.287	6281
2883.144	6305
2885.001	6340
2886.857	6184
2888.714	6327
2890.57	6471
2892.425	6257
2894.279	6257
2896.133	6298
2897.987	6344
2899.842	6325
2901.694	6280
2903.547	6349
2905.397	6274
2907.249	6241
2909.101	6270
2910.952	6271
2912.802	6377
2914.652	6321
2916.5	6353
2918.35	6491
2920.198	6477
2922.045	6397
2923.893	6597
2925.74	6651
2927.585	6665
2929.433	6706
2931.279	6777
2933.123	6735
2934.968	6910
2936.811	6890
2938.656	6946
2940.5	6976
2942.342	7004
2944.185	7155
2946.026	7130
2947.87	7082
2949.71	7084
2951.549	7073
2953.39	6893
2955.229	6912
2957.069	6826
2958.908	6958
2960.746	6817
2962.584	6699
2964.421	6709
2966.257	6583
2968.094	6606
2969.931	6600
2971.766	6459
2973.601	6482
2975.435	6428
2977.27	6442
2979.105	6313
2980.938	6301
2982.77	6371
2984.602	6335
2986.434	6204
2988.267	6289
2990.097	6238
2991.927	6144
2993.757	6165
2995.587	6163
2997.417	5995
2999.246	6055
3001.074	5952
3002.902	5947
3004.729	5823
3006.556	5862
3008.384	5821
3010.21	5722
3012.036	5866
3013.861	5724
3015.684	5692
3017.51	5584
3019.334	5572
3021.157	5672
3022.981	5591
3024.802	5549
3026.624	5622
3028.448	5395
3030.267	5459
3032.088	5546
3033.909	5493
3035.728	5537
3037.549	5418
3039.368	5572
3041.186	5450
3043.004	5388
3044.821	5424
3046.64	5437
3048.455	5455
3050.272	5367
3052.087	5381
3053.903	5306
3055.717	5430
3057.534	5428
3059.347	5450
3061.16	5429
3062.974	5375
3064.785	5415
3066.598	5384
3068.411	5410
3070.222	5368
3072.032	5411
3073.844	5333
3075.653	5366
3077.463	5348
3079.272	5337
3081.08	5422
3082.889	5253
3084.697	5269
3086.505	5330
3088.312	5309
3090.118	5330
3091.924	5264
3093.729	5411
3095.535	5250
3097.34	5323
3099.144	5261
3100.947	5266
3102.75	5175
3104.553	5259
3106.357	5241
3108.159	5207
3109.961	5268
3111.762	5160
3113.562	5222
3115.365	5192
3117.164	5172
3118.964	5193
3120.761	5190
3122.56	5089
3124.36	5192
3126.158	5152
3127.954	5156
3129.75	5107
3131.547	5193
3133.343	5145
3135.139	5245
3136.934	5218
3138.729	5087
3140.522	5087
3142.317	5252
3144.11	5139
3145.904	5056
3147.695	5099
3149.488	5102
3151.28	5085
3153.07	5082
3154.863	5144
3156.652	5134
3158.441	5122
3160.231	5093
3162.019	5124
3163.81	5055
3165.597	5036
3167.384	5070
3169.172	5108
3170.958	5054
3172.745	5002
3174.532	5092
3176.317	5060
3178.101	5097
3179.885	5043
3181.67	5103
3183.455	5032
3185.238	5042
3187.02	5046
3188.802	5093
3190.585	5127
3192.368	5052
3194.149	4992
3195.929	5070
3197.709	5093
3199.489	4982
3201.268	5070
3203.048	5028
3204.826	5032
3206.604	4998
3208.382	5004
3210.159	5018
3211.937	5020
3213.713	5026
3215.489	4974
3217.263	5051
3219.038	5045
3220.815	5040
3222.589	5019
3224.363	5009
3226.136	4929
3227.908	4953
3229.681	5040
3231.454	5013
3233.226	4969
3234.996	4996
3236.767	4932
3238.538	4898
3240.308	4980
3242.078	4882
3243.847	4936
3245.615	5064
3247.384	4864
3249.15	5086
3250.92	4909
3252.686	4917
3254.453	4988
3256.218	5022
3257.984	4949
3259.75	4920
3261.515	4907
3263.279	5117
3265.044	4879
3266.806	4976
3268.57	5015
3270.334	4956
3272.095	4989
3273.856	4956
3275.619	5014
3277.379	5034
3279.14	4991
3280.9	4939
3282.661	4995
3284.419	4896
3286.178	4988
3287.937	5048
3289.695	4971
3291.453	4902
3293.21	4888
3294.967	4965
3296.723	4946
3298.48	4985
3300.235	4997
3301.99	4910
3303.744	4955
3305.498	4995
3307.253	4992
3309.006	4896
3310.759	4961
3312.511	4959
3314.263	4947
3316.017	4863
3317.768	4950
3319.519	4891
3321.268	4974
3323.018	4995
3324.767	4948
3326.518	5028
3328.267	4989
3330.014	4981
3331.762	4879
3333.509	4877
3335.258	4965
3337.003	4955
3338.75	4861
3340.496	5015
3342.24	4915
3343.987	4919
3345.732	4844
3347.475	4845
3349.219	4929
3350.961	4829
3352.705	4942
3354.448	4873
3356.19	4878
3357.931	4801
3359.672	4950
3361.412	4881
3363.155	4832
3364.894	4921
3366.633	4740
3368.372	4816
3370.11	4773
3371.849	4810
3373.588	4748
3375.325	4874
3377.061	4794
3378.799	4707
3380.534	4835
3382.271	4920
3384.006	4788
3385.741	4750
3387.475	4838
3389.209	4816
3390.944	4681
3392.677	4746
3394.409	4775
3396.143	4773
3397.874	4729
3399.606	4760
3401.338	4799
3403.069	4663
3404.799	4730
3406.528	4779
3408.258	4794
3409.988	4708
3411.717	4776
3413.445	4624
3415.173	4735
3416.899	4655
3418.626	4643
3420.354	4730
3422.08	4706
3423.806	4699
3425.531	4833
3427.255	4759
3428.981	4747
3430.705	4715
3432.429	4704
3434.151	4758
3435.875	4621
3437.599	4712
3439.321	4664
3441.042	4702
3442.763	4631
3444.483	4674
3446.204	4603
3447.926	4613
3449.645	4639
3451.364	4546
3453.082	4778
3454.801	4537
3456.52	4658
3458.238	4611
3459.954	4615
3461.671	4446
3463.387	4675
3465.104	4517
3466.82	4598
3468.534	4526
3470.25	4544
3471.963	4519
3473.676	4483
3475.392	4494
3477.104	4521
3478.817	4490
3480.528	4404
3482.241	4493
3483.954	4540
3485.664	4512
3487.374	4447
3489.084	4488
3490.795	4399
3492.504	4480
3494.214	4458
3495.922	4426
3497.63	4308
3499.338	4430
3501.045	4457
3502.753	4447
3504.459	4416
3506.166	4427
3507.871	4435
3509.576	4378
3511.283	4382
3512.987	4345
3514.691	4330
3516.395	4347
3518.098	4352
3519.8	4254
3521.504	4310
3523.206	4397
3524.908	4306
3526.609	4290
3528.309	4340
3530.011	4360
3531.711	4340
3533.411	4315
3535.109	4205
3536.808	4285
3538.507	4384
3540.206	4316
3541.904	4313
3543.601	4377
3545.297	4335
3546.994	4231
3548.69	4345
3550.387	4252
3552.081	4296
3553.776	4216
3555.47	4275
3557.166	4180
3558.859	4182
3560.553	4236
3562.245	4254
3563.938	4283
3565.629	4279
3567.322	4227
3569.014	4217
3570.704	4232
3572.394	4189
3574.084	4203
3575.775	4160
3577.464	4221
3579.152	4178
3580.842	4236
3582.529	4159
3584.216	4265
3585.905	4150
3587.591	4210
3589.279	4136
3590.964	4105
3592.649	4137
3594.336	4138
3596.021	4117
3597.705	4139
3599.388	4110
3601.072	4157
3602.757	4139
3604.439	4153
3606.122	4080
3607.803	4198
3609.485	4077
3611.167	4052
3612.849	4046
3614.529	4076
3616.208	4015
3617.888	4046
3619.567	4013
3621.247	4089
3622.926	4045
3624.603	4003
3626.281	3944
3627.958	3943
3629.635	4039
3631.312	4046
3632.989	3984
3634.665	4116
3636.339	4046
3638.014	3958
3639.691	3961
3641.364	3956
3643.038	4017
3644.71	3914
3646.384	3920
3648.058	3873
3649.729	3946
3651.402	3946
3653.073	3861
3654.744	3925
3656.414	3854
3658.085	3813
3659.755	3801
3661.424	3936
3663.094	3889
3664.762	3880
3666.431	3950
3668.099	3864
3669.766	3872
3671.433	3831
3673.099	3872
3674.768	3886
3676.433	3922
3678.098	3945
3679.763	3848
3681.428	3883
3683.093	3832
3684.757	3891
3686.421	3800
3688.083	3856
3689.746	3832
3691.408	3855
3693.071	3776
3694.733	3824
3696.394	3777
3698.054	3823
3699.715	3873
3701.375	3886
3703.036	3868
3704.695	3733
3706.354	3844
3708.012	3840
3709.67	3708
3711.329	3800
3712.987	3780
3714.644	3746
3716.299	3773
3717.955	3750
3719.613	3759
3721.268	3762
3722.923	3828
3724.577	3812
3726.231	3755
3727.885	3811
3729.539	3626
3731.192	3817
3732.845	3824
3734.497	3695
3736.149	3755
3737.802	3674
3739.453	3653
3741.104	3802
3742.753	3746
3744.404	3743
3746.052	3738
3747.704	3722
3749.352	3756
3751	3740
3752.648	3699
3754.296	3764
3755.944	3732
3757.59	3731
3759.238	3743
3760.883	3726
3762.528	3695
3764.176	3718
3765.82	3694
3767.464	3737
3769.109	3660
3770.753	3628
3772.396	3656
3774.04	3697
3775.683	3677
3777.325	3674
3778.967	3624
3780.608	3662
3782.25	3596
3783.89	3644
3785.531	3680
3787.17	3543
3788.81	3661
3790.45	3543
3792.09	3624
3793.729	3571
3795.366	3605
3797.003	3580
3798.64	3607
3800.278	3683
3801.915	3536
3803.551	3550
3805.187	3539
3806.822	3667
3808.458	3607
3810.093	3580
3811.726	3611
3813.36	3631
3814.994	3641
3816.627	3626
3818.262	3615
3819.893	3538
3821.525	3579
3823.157	3524
3824.787	3571
3826.42	3507
3828.051	3582
3829.68	3516
3831.31	3537
3832.938	3560
3834.569	3531
3836.198	3582
3837.825	3611
3839.454	3566
3841.08	3464
3842.708	3493
3844.335	3536
3845.962	3513
3847.587	3497
3849.212	3454
3850.838	3488
3852.463	3451
3854.089	3471
3855.712	3470
3857.335	3480
3858.959	3471
3860.582	3593
3862.205	3405
3863.827	3436
3865.449	3494
3867.07	3443
3868.691	3427
3870.312	3511
3871.933	3505
3873.553	3495
3875.173	3459
3876.792	3353
3878.411	3381
3880.03	3341
3881.647	3455
3883.265	3351
3884.882	3501
3886.499	3446
3888.116	3413
3889.732	3399
3891.348	3384
3892.964	3404
3894.579	3515
3896.195	3335
3897.809	3447
3899.423	3411
3901.036	3409
3902.648	3411
3904.261	3390
3905.875	3387
3907.487	3383
3909.099	3410
3910.709	3364
3912.321	3470
3913.933	3376
3915.542	3426
3917.152	3342
3918.762	3391
3920.37	3395
3921.98	3417
3923.589	3373
3925.196	3400
3926.804	3372
3928.41	3356
3930.018	3428
3931.626	3326
3933.231	3365
3934.838	3402
3936.442	3316
3938.046	3348
3939.653	3300
3941.257	3248
3942.861	3320
3944.464	3379
3946.068	3292
3947.67	3338
3949.273	3378
3950.876	3348
3952.477	3342
3954.078	3276
3955.678	3355
3957.281	3372
3958.881	3356
3960.48	3331
3962.079	3272
3963.678	3300
3965.279	3277
3966.877	3195
3968.475	3291
3970.072	3242
3971.669	3287
3973.266	3287
3974.864	3257
3976.459	3293
3978.055	3256
3979.65	3242
3981.245	3286
3982.841	3277
3984.436	3195
3986.03	3210
3987.623	3193
3989.216	3238
3990.809	3249
3992.403	3263
3993.995	3222
3995.586	3226
3997.177	3287
3998.768	3252
4000.361	3253
4001.951	3276
4003.54	3213
4005.13	3184
4006.719	3228
4008.31	3142
4009.897	3226
4011.485	3085
4013.073	3123
4014.66	3167
4016.247	3193
4017.834	3159
4019.421	3170
4021.006	3087
4022.592	3147
4024.178	3091
4025.763	3209
4027.348	3047
4028.932	3168
4030.515	3173
4032.099	3106
4033.682	3040
4035.266	3201
4036.847	3092
4038.429	3076
4040.011	3054
4041.592	3080
4043.173	3106
4044.755	3092
4046.334	3068
4047.913	3110
4049.494	3088
4051.074	3077
4052.652	3159
4054.23	3073
4055.807	3032
4057.385	3066
4058.963	3107
4060.541	3040
4062.117	3018
4063.693	3063
4065.269	3062
4066.844	3106
4068.42	3007
4069.995	3038
4071.569	3051
4073.143	2985
4074.716	3004
4076.291	3068
4077.864	2995
4079.436	3090
4081.009	3007
4082.58	3027
4084.152	2986
4085.723	3053
4087.294	3064
4088.865	3076
4090.435	2999
4092.005	2994
4093.574	2931
4095.143	2996
4096.712	2973
4098.279	2961
4099.848	2998
4101.416	2947
4102.984	2993
4104.55	3010
4106.117	3001
4107.682	3000
4109.248	2939
4110.815	2943
4112.379	2897
4113.945	2987
4115.508	3006
4117.073	2961
4118.637	2959
4120.201	2930
4121.763	2982
4123.325	2911
4124.888	2876
4126.449	2915
4128.013	2938
4129.573	2984
4131.133	2992
4132.694	2943
4134.254	2891
4135.814	2864
4137.374	2875
4138.933	2858
4140.491	2903
4142.049	2877
4143.607	2890
4145.167	2961
4146.724	2855
4148.28	2902
4149.836	2833
4151.392	2865
4152.949	2883
4154.504	2836
4156.059	2859
4157.614	2796
4159.168	2864
4160.723	2848
4162.277	2882
4163.83	2765
4165.383	2793
4166.936	2777
4168.488	2822
4170.041	2862
4171.593	2810
4173.144	2761
4174.695	2795
4176.246	2807
4177.796	2869
4179.346	2758
4180.896	2750
4182.445	2712
4183.994	2848
4185.542	2800
4187.091	2797
4188.639	2826
4190.185	2786
4191.732	2802
4193.279	2767
4194.826	2829
4196.373	2727
4197.918	2778
4199.463	2725
4201.008	2778
4202.553	2715
4204.098	2755
4205.641	2828
4207.185	2793
4208.728	2781
4210.271	2745
4211.814	2728
4213.357	2693
4214.898	2729
4216.439	2738
4217.98	2733
4219.522	2731
4221.062	2710
4222.603	2722
4224.142	2816
4225.681	2768
4227.222	2744
4228.76	2812
4230.298	2702
4231.835	2737
4233.373	2713
4234.911	2739
4236.449	2723
4237.985	2728
4239.521	2632
4241.057	2675
4242.592	2709
4244.128	2686
4245.663	2719
4247.197	2752
4248.731	2750
4250.265	2682
4251.798	2638
4253.333	2670
4254.865	2688
4256.397	2653
4257.93	2663
4259.461	2802
4260.994	2743
4262.525	2621
4264.056	2638
4265.586	2658
4267.115	2622
4268.646	2603
4270.176	2688
4271.705	2670
4273.232	2608
4274.761	2681
4276.289	2619
4277.818	2686
4279.345	2651
4280.872	2687
4282.399	2647
4283.924	2678
4285.452	2739
4286.976	2617
4288.502	2571
4290.026	2604
4291.551	2606
4293.074	2664
4294.6	2604
4296.123	2607
4297.646	2600
4299.168	2599
4300.691	2671
4302.214	2557
4303.736	2577
4305.257	2663
4306.778	2556
4308.299	2562
4309.82	2631
4311.34	2666
4312.86	2629
4314.379	2647
