400.0745	4052
402.597	4124
405.1208	4064
407.6419	4090
410.1623	4183
412.6819	4155
415.201	4191
417.7172	4208
420.2369	4370
422.7538	4329
425.2701	4401
427.7856	4412
430.3005	4403
432.8147	4461
435.3282	4469
437.841	4494
440.3511	4461
442.8625	4453
445.3753	4510
447.8854	4427
450.3927	4436
452.9014	4472
455.4073	4379
457.9146	4444
460.4233	4380
462.9272	4405
465.4325	4402
467.935	4472
470.4389	4331
472.9421	4416
475.4446	4443
477.9444	4392
480.4456	4407
482.944	4354
485.4417	4388
487.9429	4463
490.4393	4524
492.935	4490
495.4321	4454
497.9264	4408
500.4221	4580
502.9171	4473
505.4094	4420
507.9011	4441
510.392	4473
512.8864	4417
515.3759	4476
517.8649	4577
520.3531	4570
522.8406	4512
525.3275	4513
527.8178	4593
530.3033	4549
532.7881	4541
535.2723	4545
537.7558	4519
540.2407	4517
542.7228	4526
545.2043	4458
547.6851	4518
550.1652	4524
552.6467	4557
555.1255	4481
557.6016	4554
560.079	4590
562.5557	4642
565.0318	4588
567.5092	4578
569.984	4635
572.456	4627
574.9294	4726
577.4022	4692
579.8762	4753
582.3456	4798
584.8163	4809
587.2863	4825
589.7557	4845
592.2224	4862
594.6924	4841
597.1578	4790
599.6245	4816
602.0905	4710
604.5538	4746
607.0206	4693
609.4825	4733
611.9459	4737
614.4066	4745
616.8686	4716
619.33	4733
621.7906	4661
624.2487	4635
626.708	4636
629.1647	4636
631.6207	4681
634.0801	4572
636.5348	4592
638.9888	4631
641.4442	4721
643.8969	4768
646.3509	4583
648.8022	4679
651.255	4735
653.705	4749
656.1544	4678
658.6031	4681
661.0532	4731
663.5026	4725
665.9493	4791
668.3954	4764
670.8409	4699
673.2877	4728
675.7318	4743
678.1752	4814
680.618	4702
683.0601	4808
685.5035	4786
687.9444	4823
690.3845	4859
692.824	4871
695.2628	4765
697.701	4816
700.1406	4838
702.5774	4857
705.0116	4879
707.4472	4862
709.8821	4862
712.3183	5017
714.7519	4956
717.1829	4740
719.6151	4860
722.0468	4935
724.4777	4983
726.908	4932
729.3377	4930
731.7667	5015
734.1931	4989
736.6208	5052
739.0498	5004
741.4742	5031
743.9	5034
746.3231	5034
748.7476	5026
751.1713	5079
753.5945	5065
756.015	5181
758.4368	5075
760.856	5246
763.2766	5187
765.6965	5105
768.1157	5153
770.5323	5197
772.9483	5213
775.3656	5179
777.7822	5136
780.1963	5077
782.6116	5224
785.0244	5199
787.4365	5106
789.8499	5210
792.2626	5174
794.6728	5249
797.0823	5208
799.4911	5191
801.8994	5209
804.3109	5241
806.7178	5119
809.124	5185
811.5297	5222
813.9347	5294
816.341	5343
818.7447	5171
821.1478	5355
823.5502	5165
825.952	5334
828.3531	5288
830.7556	5334
833.1554	5196
835.5546	5264
837.9532	5227
840.3511	5316
842.7504	5275
845.1451	5375
847.5411	5513
849.9365	5389
852.3312	5431
854.7272	5459
857.1187	5359
859.5115	5462
861.9037	5404
864.2952	5496
866.6842	5427
869.0764	5373
871.4661	5345
873.8531	5426
876.2415	5480
878.6272	5468
881.0162	5375
883.4026	5355
885.7866	5321
888.1717	5388
890.5543	5324
892.9382	5344
895.3215	5378
897.7041	5390
900.0842	5362
902.4655	5419
904.8443	5407
907.2244	5449
909.6039	5412
911.9808	5571
914.357	5573
916.7346	5550
919.1115	5635
921.4859	5674
923.8616	5706
926.2347	5705
928.6071	5703
930.979	5685
933.3541	5794
935.7247	5687
938.0946	5928
940.4639	5924
942.8326	5967
945.2026	6042
947.5701	6067
949.9369	6304
952.305	6665
954.6705	6923
957.0355	7303
959.4017	7674
961.7654	7820
964.1284	7789
966.4908	7618
968.8527	7237
971.2138	6672
973.5743	6471
975.9343	6118
978.2936	5892
980.6522	5798
983.0122	5805
985.3696	5660
987.7245	5533
990.0807	5672
992.4362	5603
994.7911	5568
997.1474	5624
999.4991	5609
1001.852	5739
1004.205	5652
1006.555	5610
1008.908	5768
1011.258	5563
1013.606	5624
1015.956	5550
1018.302	5651
1020.652	5682
1022.998	5663
1025.345	5802
1027.691	5711
1030.035	5684
1032.378	5806
1034.724	5739
1037.066	5759
1039.409	5865
1041.75	5705
1044.092	5748
1046.433	5708
1048.771	5792
1051.112	5724
1053.449	5843
1055.786	5815
1058.124	5757
1060.462	5812
1062.797	5726
1065.131	5872
1067.467	5927
1069.8	5936
1072.135	5851
1074.467	5998
1076.798	5868
1079.129	5812
1081.459	5828
1083.792	5783
1086.121	5837
1088.449	5734
1090.777	5788
1093.104	5728
1095.431	5872
1097.759	5719
1100.084	5683
1102.408	5717
1104.732	5683
1107.056	5673
1109.379	5784
1111.701	5734
1114.022	5628
1116.343	5677
1118.664	5677
1120.983	5648
1123.303	5694
1125.621	5673
1127.939	5733
1130.256	5693
1132.573	5633
1134.889	5721
1137.205	5698
1139.52	5732
1141.832	5674
1144.146	5684
1146.461	5644
1148.771	5603
1151.083	5562
1153.392	5671
1155.703	5687
1158.011	5697
1160.323	5612
1162.629	5646
1164.938	5619
1167.243	5668
1169.55	5770
1171.857	5656
1174.163	5654
1176.466	5693
1178.769	5685
1181.073	5707
1183.374	5699
1185.677	5612
1187.979	5720
1190.279	5635
1192.578	5608
1194.878	5666
1197.178	5649
1199.476	5742
1201.772	5596
1204.068	5763
1206.366	5711
1208.663	5738
1210.957	5749
1213.251	5760
1215.544	5733
1217.836	5665
1220.128	5729
1222.421	5753
1224.712	5793
1227.002	5702
1229.292	5729
1231.581	5908
1233.871	5963
1236.159	6017
1238.446	5921
1240.732	5841
1243.018	5990
1245.304	6032
1247.59	6120
1249.874	5959
1252.156	5950
1254.439	6077
1256.721	6014
1259.005	5993
1261.286	6055
1263.565	6027
1265.845	5971
1268.125	6010
1270.403	5902
1272.682	5983
1274.959	6047
1277.234	5969
1279.511	5934
1281.787	5875
1284.062	5890
1286.337	5919
1288.609	5926
1290.882	5837
1293.153	5858
1295.428	5758
1297.698	5911
1299.969	5800
1302.237	5800
1304.507	5736
1306.777	5775
1309.044	5865
1311.312	5761
1313.578	5802
1315.844	5908
1318.109	5860
1320.375	5931
1322.638	5878
1324.903	5820
1327.165	5903
1329.427	5853
1331.69	5823
1333.952	5858
1336.212	5882
1338.471	5862
1340.73	5756
1342.988	5720
1345.248	5930
1347.505	5773
1349.763	5866
1352.019	5808
1354.274	5792
1356.53	5788
1358.784	5697
1361.038	5741
1363.291	5818
1365.543	5841
1367.797	5855
1370.048	5774
1372.296	5887
1374.546	5839
1376.796	5835
1379.045	5946
1381.295	5795
1383.542	5882
1385.787	5825
1388.034	5872
1390.28	5923
1392.527	5881
1394.772	5988
1397.014	5954
1399.258	5973
1401.501	5921
1403.741	6056
1405.985	5917
1408.226	6015
1410.465	5963
1412.705	5899
1414.943	6012
1417.184	6016
1419.42	6043
1421.658	6067
1423.894	5997
1426.13	6021
1428.366	6074
1430.602	6197
1432.835	6112
1435.069	6130
1437.301	6006
1439.535	6205
1441.767	6095
1443.997	6195
1446.229	6240
1448.458	6244
1450.687	6338
1452.916	6272
1455.146	6321
1457.372	6236
1459.599	6248
1461.824	6175
1464.051	6183
1466.277	6168
1468.501	6040
1470.725	6097
1472.948	6100
1475.17	5910
1477.393	6081
1479.614	6048
1481.837	5898
1484.057	5824
1486.276	5854
1488.497	5811
1490.715	5822
1492.932	5839
1495.148	5697
1497.364	5799
1499.58	5783
1501.798	5755
1504.012	5729
1506.227	5837
1508.44	5775
1510.653	5829
1512.866	5693
1515.078	5764
1517.289	5707
1519.5	5743
1521.711	5640
1523.92	5793
1526.13	5780
1528.338	5682
1530.544	5757
1532.752	5769
1534.959	5705
1537.165	5744
1539.371	5725
1541.574	5733
1543.779	5744
1545.983	5880
1548.187	5707
1550.39	5807
1552.59	5727
1554.792	5808
1556.991	5651
1559.19	5851
1561.392	5799
1563.59	5824
1565.789	5808
1567.986	5783
1570.182	5850
1572.381	5826
1574.576	5869
1576.771	5970
1578.966	5802
1581.16	5829
1583.354	6055
1585.546	5967
1587.74	5945
1589.931	5938
1592.121	5932
1594.311	5976
1596.502	5948
1598.693	5897
1600.881	5895
1603.069	5944
1605.256	6043
1607.445	5931
1609.631	5971
1611.816	5891
1614.001	5941
1616.186	6041
1618.37	6018
1620.555	5993
1622.737	6072
1624.919	6065
1627.101	6045
1629.282	6012
1631.463	6061
1633.643	6121
1635.822	6116
1638.001	6070
1640.179	6149
1642.359	6120
1644.534	6200
1646.711	6163
1648.887	6015
1651.062	6089
1653.235	6017
1655.412	6194
1657.586	6122
1659.757	6324
1661.93	6201
1664.1	6126
1666.274	6291
1668.445	6330
1670.614	6274
1672.784	6230
1674.951	6281
1677.12	6209
1679.289	6250
1681.457	6248
1683.622	6113
1685.789	6061
1687.953	6235
1690.121	6220
1692.284	6126
1694.447	5998
1696.611	6059
1698.772	6029
1700.935	6047
1703.098	6041
1705.258	5975
1707.417	5911
1709.576	5915
1711.736	5926
1713.896	5911
1716.053	5904
1718.21	5817
1720.366	5979
1722.522	5894
1724.68	5898
1726.835	5990
1728.989	5852
1731.142	5874
1733.295	5898
1735.449	5915
1737.601	6012
1739.753	5832
1741.903	5850
1744.054	5945
1746.203	5926
1748.354	5680
1750.503	5788
1752.651	5880
1754.798	5870
1756.944	5857
1759.092	5906
1761.238	5990
1763.383	5899
1765.528	5924
1767.672	5891
1769.814	5909
1771.959	5961
1774.102	5839
1776.242	5924
1778.384	5867
1780.525	5920
1782.665	5788
1784.805	5842
1786.945	5831
1789.082	5869
1791.22	5956
1793.36	5946
1795.495	5912
1797.632	5886
1799.766	5941
1801.902	5810
1804.035	5891
1806.172	5999
1808.304	5981
1810.436	5939
1812.569	5793
1814.699	5893
1816.833	5957
1818.963	5981
1821.092	5950
1823.222	5861
1825.35	5908
1827.478	5813
1829.608	5850
1831.734	5906
1833.86	5972
1835.986	5823
1838.11	5927
1840.238	6015
1842.362	5750
1844.485	5807
1846.608	5889
1848.73	5861
1850.853	5824
1852.974	5756
1855.097	5907
1857.217	5887
1859.336	5949
1861.455	5811
1863.576	5749
1865.693	5762
1867.811	5929
1869.926	5772
1872.042	5752
1874.16	5804
1876.275	5875
1878.39	5832
1880.504	5957
1882.618	5912
1884.731	5730
1886.843	5770
1888.956	5904
1891.067	5810
1893.178	5906
1895.287	5887
1897.399	5936
1899.508	5851
1901.617	5904
1903.724	5927
1905.832	5944
1907.941	5954
1910.046	5981
1912.152	5846
1914.256	5987
1916.361	5832
1918.464	5961
1920.57	5993
1922.672	6027
1924.775	5848
1926.876	5940
1928.978	5986
1931.08	5935
1933.181	5887
1935.28	5968
1937.38	5866
1939.478	6092
1941.577	5844
1943.675	5965
1945.771	5971
1947.867	5953
1949.964	5930
1952.058	5920
1954.154	5975
1956.248	5989
1958.343	5882
1960.435	5807
1962.527	5901
1964.62	5907
1966.711	5920
1968.802	5850
1970.892	5888
1972.983	5991
1975.072	5874
1977.162	5878
1979.25	5787
1981.337	6014
1983.424	5905
1985.51	5841
1987.598	5907
1989.683	5909
1991.768	5915
1993.852	5981
1995.934	5869
1998.019	5954
2000.102	5850
2002.184	5872
2004.266	5954
2006.347	5887
2008.427	5857
2010.508	5867
2012.587	5879
2014.666	5943
2016.745	5911
2018.821	5784
2020.9	5875
2022.977	5862
2025.052	5833
2027.128	5869
2029.204	5901
2031.277	6003
2033.353	5783
2035.425	5928
2037.499	5882
2039.57	5877
2041.642	5856
2043.714	5863
2045.786	5873
2047.855	5917
2049.925	5802
2051.993	5932
2054.064	5928
2056.132	5866
2058.2	5895
2060.266	5921
2062.332	5880
2064.398	5862
2066.465	5941
2068.529	5879
2070.592	5833
2072.657	5836
2074.719	5776
2076.783	5891
2078.845	5837
2080.907	5780
2082.968	5876
2085.028	5887
2087.087	5854
2089.148	5818
2091.207	5930
2093.264	5828
2095.322	5845
2097.379	5905
2099.439	5836
2101.495	5860
2103.55	5824
2105.605	5934
2107.658	5852
2109.713	5912
2111.767	5948
2113.82	5857
2115.872	5858
2117.924	5880
2119.975	5985
2122.028	5790
2124.078	5932
2126.126	5892
2128.176	5889
2130.225	5816
2132.275	5873
2134.321	5874
2136.368	5836
2138.415	5838
2140.461	5749
2142.505	5824
2144.552	5809
2146.597	5829
2148.64	5773
2150.684	5803
2152.725	5772
2154.77	5796
2156.811	5732
2158.852	5855
2160.894	5778
2162.933	5754
2164.973	5752
2167.013	5985
2169.051	5582
2171.089	5721
2173.126	5880
2175.164	5813
2177.201	5774
2179.236	5673
2181.273	5704
2183.307	5778
2185.341	5732
2187.377	5679
2189.41	5780
2191.442	5818
2193.473	5779
2195.506	5765
2197.539	5753
2199.569	5747
2201.598	5733
2203.628	5702
2205.656	5625
2207.686	5733
2209.716	5654
2211.743	5707
2213.769	5627
2215.796	5690
2217.821	5690
2219.848	5743
2221.873	5738
2223.897	5638
2225.921	5607
2227.944	5692
2229.967	5581
2231.991	5615
2234.011	5701
2236.032	5652
2238.053	5676
2240.073	5734
2242.094	5675
2244.114	5710
2246.131	5585
2248.149	5652
2250.167	5660
2252.186	5689
2254.201	5621
2256.218	5710
2258.233	5767
2260.247	5711
2262.262	5635
2264.278	5607
2266.29	5670
2268.303	5675
2270.315	5615
2272.327	5733
2274.341	5794
2276.35	5747
2278.361	5674
2280.37	5556
2282.38	5592
2284.388	5696
2286.397	5710
2288.405	5771
2290.412	5638
2292.419	5716
2294.425	5701
2296.431	5649
2298.437	5651
2300.441	5580
2302.445	5690
2304.449	5605
2306.453	5690
2308.455	5695
2310.457	5684
2312.459	5666
2314.46	5624
2316.46	5607
2318.461	5655
2320.46	5653
2322.458	5611
2324.458	5687
2326.456	5573
2328.455	5722
2330.451	5558
2332.447	5707
2334.443	5620
2336.438	5595
2338.433	5580
2340.429	5632
2342.422	5528
2344.416	5556
2346.408	5644
2348.399	5545
2350.393	5528
2352.384	5492
2354.375	5514
2356.365	5647
2358.355	5523
2360.344	5495
2362.333	5480
2364.322	5582
2366.309	5514
2368.295	5576
2370.282	5483
2372.27	5544
2374.256	5520
2376.24	5599
2378.225	5550
2380.208	5434
2382.194	5572
2384.177	5477
2386.159	5503
2388.142	5503
2390.122	5487
2392.105	5483
2394.085	5483
2396.066	5533
2398.044	5523
2400.024	5625
2402.002	5472
2403.982	5401
2405.959	5511
2407.935	5527
2409.913	5480
2411.888	5531
2413.865	5439
2415.84	5470
2417.814	5512
2419.788	5572
2421.762	5392
2423.735	5457
2425.708	5393
2427.68	5488
2429.651	5480
2431.623	5457
2433.593	5517
2435.564	5449
2437.533	5412
2439.502	5494
2441.47	5498
2443.438	5370
2445.406	5456
2447.373	5468
2449.34	5475
2451.305	5437
2453.271	5406
2455.235	5479
2457.201	5414
2459.165	5387
2461.129	5391
2463.092	5470
2465.054	5443
2467.018	5384
2468.978	5387
2470.939	5415
2472.899	5423
2474.86	5404
2476.819	5390
2478.778	5467
2480.737	5420
2482.695	5361
2484.653	5477
2486.609	5396
2488.567	5418
2490.524	5477
2492.478	5372
2494.433	5327
2496.387	5326
2498.343	5352
2500.297	5402
2502.249	5313
2504.202	5403
2506.153	5390
2508.105	5408
2510.057	5509
2512.008	5410
2513.957	5390
2515.906	5280
2517.855	5440
2519.805	5338
2521.754	5338
2523.7	5291
2525.647	5381
2527.594	5255
2529.54	5342
2531.486	5361
2533.431	5339
2535.376	5327
2537.32	5263
2539.263	5400
2541.207	5373
2543.151	5356
2545.093	5298
2547.034	5316
2548.975	5408
2550.917	5331
2552.856	5231
2554.796	5298
2556.735	5337
2558.673	5289
2560.611	5316
2562.55	5289
2564.487	5364
2566.424	5264
2568.36	5254
2570.296	5322
2572.232	5398
2574.167	5339
2576.101	5358
2578.035	5376
2579.969	5394
2581.902	5447
2583.834	5456
2585.766	5382
2587.698	5314
2589.628	5261
2591.557	5279
2593.489	5321
2595.419	5408
2597.348	5367
2599.275	5319
2601.204	5283
2603.131	5231
2605.059	5344
2606.986	5388
2608.911	5398
2610.837	5309
2612.76	5303
2614.687	5333
2616.61	5255
2618.534	5278
2620.457	5354
2622.38	5292
2624.302	5363
2626.225	5337
2628.145	5352
2630.067	5289
2631.986	5429
2633.906	5337
2635.827	5244
2637.745	5444
2639.662	5352
2641.581	5314
2643.498	5340
2645.415	5322
2647.331	5314
2649.248	5324
2651.163	5359
2653.077	5284
2654.993	5339
2656.906	5333
2658.821	5426
2660.733	5342
2662.646	5351
2664.557	5384
2666.47	5323
2668.381	5252
2670.291	5288
2672.201	5268
2674.11	5301
2676.021	5212
2677.929	5316
2679.837	5295
2681.745	5307
2683.652	5327
2685.56	5230
2687.466	5327
2689.371	5211
2691.276	5222
2693.181	5344
2695.085	5221
2696.991	5169
2698.893	5283
2700.796	5106
2702.698	5166
2704.601	5182
2706.502	5276
2708.404	5206
2710.304	5280
2712.203	5246
2714.103	5325
2716.003	5222
2717.902	5235
2719.8	5225
2721.697	5283
2723.594	5223
2725.49	5270
2727.389	5205
2729.283	5329
2731.179	5272
2733.073	5211
2734.968	5208
2736.863	5201
2738.757	5195
2740.649	5325
2742.541	5188
2744.433	5268
2746.324	5234
2748.216	5196
2750.107	5207
2751.997	5148
2753.886	5195
2755.776	5255
2757.666	5195
2759.553	5154
2761.44	5311
2763.327	5224
2765.215	5134
2767.102	5179
2768.988	5193
2770.873	5280
2772.757	5178
2774.641	5158
2776.525	5244
2778.41	5092
2780.292	5184
2782.175	5106
2784.057	5244
2785.938	5142
2787.821	5197
2789.701	5143
2791.581	5086
2793.461	5099
2795.34	5046
2797.219	5282
2799.099	5096
2800.975	5193
2802.853	5061
2804.73	5201
2806.606	5099
2808.484	5124
2810.358	5160
2812.233	5127
2814.108	5055
2815.981	5187
2817.857	5079
2819.73	5124
2821.602	5174
2823.474	5109
2825.346	5060
2827.217	5131
2829.089	5145
2830.959	5133
2832.829	5182
2834.698	5130
2836.567	5058
2838.436	5183
2840.305	5109
2842.172	5195
2844.04	5197
2845.905	5263
2847.772	5203
2849.639	5278
2851.503	5260
2853.369	5296
2855.232	5430
2857.096	5300
2858.961	5335
2860.824	5438
2862.686	5380
2864.547	5457
2866.41	5524
2868.272	5526
2870.132	5525
2871.992	5531
2873.851	5678
2875.711	5749
2877.57	5766
2879.429	5781
2881.287	5855
2883.144	5860
2885.001	6029
2886.857	6098
2888.714	6023
2890.57	6026
2892.425	6031
2894.279	5974
2896.133	5897
2897.987	5889
2899.842	5956
2901.694	5978
2903.547	5871
2905.397	6011
2907.249	5924
2909.101	6050
2910.952	6091
2912.802	6110
2914.652	6065
2916.5	6284
2918.35	6259
2920.198	6417
2922.045	6379
2923.893	6376
2925.74	6488
2927.585	6573
2929.433	6652
2931.279	6774
2933.123	6818
2934.968	6880
2936.811	6952
2938.656	6971
2940.5	7108
2942.342	7151
2944.185	7251
2946.026	7186
2947.87	7323
2949.71	7188
2951.549	7329
2953.39	7096
2955.229	6995
2957.069	6906
2958.908	6920
2960.746	6722
2962.584	6660
2964.421	6596
2966.257	6576
2968.094	6380
2969.931	6457
2971.766	6331
2973.601	6316
2975.435	6314
2977.27	6253
2979.105	6120
2980.938	6237
2982.77	6136
2984.602	6091
2986.434	6149
2988.267	6170
2990.097	5990
2991.927	5994
2993.757	5896
2995.587	5881
2997.417	5928
2999.246	5816
3001.074	5671
3002.902	5639
3004.729	5448
3006.556	5480
3008.384	5382
3010.21	5422
3012.036	5269
3013.861	5255
3015.684	5232
3017.51	5092
3019.334	5175
3021.157	5170
3022.981	5164
3024.802	5130
3026.624	5119
3028.448	4996
3030.267	5005
3032.088	4885
3033.909	4957
3035.728	4939
3037.549	4919
3039.368	4946
3041.186	4931
3043.004	4928
3044.821	4882
3046.64	4823
3048.455	4834
3050.272	4905
3052.087	4875
3053.903	4889
3055.717	4926
3057.534	4827
3059.347	4943
3061.16	4947
3062.974	4791
3064.785	4916
3066.598	4886
3068.411	4980
3070.222	4844
3072.032	4870
3073.844	4889
3075.653	4845
3077.463	4857
3079.272	4975
3081.08	4779
3082.889	4772
3084.697	4765
3086.505	4833
3088.312	4717
3090.118	4696
3091.924	4759
3093.729	4786
3095.535	4708
3097.34	4746
3099.144	4723
3100.947	4744
3102.75	4653
3104.553	4698
3106.357	4700
3108.159	4628
3109.961	4618
3111.762	4639
3113.562	4623
3115.365	4660
3117.164	4606
3118.964	4611
3120.761	4720
3122.56	4659
3124.36	4624
3126.158	4701
3127.954	4525
3129.75	4610
3131.547	4614
3133.343	4625
3135.139	4679
3136.934	4627
3138.729	4634
3140.522	4616
3142.317	4620
3144.11	4722
3145.904	4632
3147.695	4632
3149.488	4680
3151.28	4673
3153.07	4568
3154.863	4543
3156.652	4543
3158.441	4591
3160.231	4606
3162.019	4586
3163.81	4640
3165.597	4563
3167.384	4613
3169.172	4550
3170.958	4572
3172.745	4545
3174.532	4509
3176.317	4623
3178.101	4639
3179.885	4447
3181.67	4496
3183.455	4538
3185.238	4530
3187.02	4484
3188.802	4533
3190.585	4587
3192.368	4485
3194.149	4614
3195.929	4562
3197.709	4524
3199.489	4502
3201.268	4501
3203.048	4602
3204.826	4590
3206.604	4564
3208.382	4580
3210.159	4546
3211.937	4560
3213.713	4573
3215.489	4508
3217.263	4523
3219.038	4532
3220.815	4548
3222.589	4481
3224.363	4514
3226.136	4445
3227.908	4543
3229.681	4576
3231.454	4477
3233.226	4455
3234.996	4627
3236.767	4483
3238.538	4556
3240.308	4636
3242.078	4578
3243.847	4509
3245.615	4572
3247.384	4519
3249.15	4578
3250.92	4532
3252.686	4602
3254.453	4607
3256.218	4524
3257.984	4553
3259.75	4577
3261.515	4598
3263.279	4611
3265.044	4558
3266.806	4612
3268.57	4542
3270.334	4672
3272.095	4611
3273.856	4540
3275.619	4640
3277.379	4661
3279.14	4585
3280.9	4585
3282.661	4656
3284.419	4590
3286.178	4561
3287.937	4625
3289.695	4584
3291.453	4600
3293.21	4647
3294.967	4577
3296.723	4572
3298.48	4574
3300.235	4565
3301.99	4657
3303.744	4593
3305.498	4545
3307.253	4600
3309.006	4583
3310.759	4572
3312.511	4697
3314.263	4681
3316.017	4710
3317.768	4484
3319.519	4628
3321.268	4591
3323.018	4534
3324.767	4606
3326.518	4573
3328.267	4449
3330.014	4717
3331.762	4649
3333.509	4534
3335.258	4565
3337.003	4555
3338.75	4665
3340.496	4589
3342.24	4576
3343.987	4596
3345.732	4612
3347.475	4520
3349.219	4566
3350.961	4551
3352.705	4602
3354.448	4643
3356.19	4507
3357.931	4591
3359.672	4452
3361.412	4588
3363.155	4472
3364.894	4604
3366.633	4471
3368.372	4535
3370.11	4535
3371.849	4493
3373.588	4543
3375.325	4475
3377.061	4478
3378.799	4493
3380.534	4512
3382.271	4511
3384.006	4429
3385.741	4422
3387.475	4474
3389.209	4457
3390.944	4477
3392.677	4429
3394.409	4402
3396.143	4357
3397.874	4559
3399.606	4343
3401.338	4382
3403.069	4419
3404.799	4376
3406.528	4354
3408.258	4360
3409.988	4484
3411.717	4414
3413.445	4392
3415.173	4424
3416.899	4301
3418.626	4425
3420.354	4326
3422.08	4332
3423.806	4399
3425.531	4182
3427.255	4243
3428.981	4349
3430.705	4299
3432.429	4360
3434.151	4286
3435.875	4322
3437.599	4329
3439.321	4397
3441.042	4422
3442.763	4245
3444.483	4209
3446.204	4249
3447.926	4284
3449.645	4141
3451.364	4326
3453.082	4191
3454.801	4283
3456.52	4131
3458.238	4280
3459.954	4153
3461.671	4184
3463.387	4194
3465.104	4157
3466.82	4170
3468.534	4151
3470.25	4172
3471.963	4166
3473.676	4158
3475.392	4165
3477.104	4195
3478.817	4187
3480.528	4056
3482.241	4160
3483.954	4085
3485.664	4138
3487.374	4063
3489.084	4057
3490.795	4061
3492.504	4052
3494.214	3926
3495.922	4080
3497.63	4048
3499.338	3960
3501.045	4058
3502.753	4049
3504.459	3988
3506.166	4012
3507.871	4030
3509.576	3998
3511.283	4077
3512.987	3942
3514.691	4088
3516.395	3938
3518.098	4000
3519.8	3995
3521.504	4012
3523.206	3978
3524.908	4011
3526.609	3955
3528.309	3878
3530.011	3972
3531.711	3899
3533.411	3947
3535.109	3905
3536.808	3964
3538.507	3961
3540.206	3972
3541.904	3896
3543.601	3769
3545.297	3931
3546.994	3894
3548.69	3930
3550.387	3873
3552.081	3895
3553.776	3853
3555.47	3868
3557.166	3767
3558.859	3876
3560.553	3783
3562.245	3857
3563.938	3875
3565.629	3824
3567.322	3792
3569.014	3840
3570.704	3797
3572.394	3810
3574.084	3786
3575.775	3759
3577.464	3823
3579.152	3806
3580.842	3856
3582.529	3850
3584.216	3728
3585.905	3824
3587.591	3770
3589.279	3822
3590.964	3761
3592.649	3738
3594.336	3757
3596.021	3748
3597.705	3649
3599.388	3722
3601.072	3701
3602.757	3755
3604.439	3714
3606.122	3701
3607.803	3651
3609.485	3690
3611.167	3677
3612.849	3628
3614.529	3699
3616.208	3646
3617.888	3616
3619.567	3654
3621.247	3657
3622.926	3638
3624.603	3623
3626.281	3533
3627.958	3519
3629.635	3628
3631.312	3577
3632.989	3561
3634.665	3553
3636.339	3566
3638.014	3555
3639.691	3617
3641.364	3467
3643.038	3542
3644.71	3520
3646.384	3585
3648.058	3492
3649.729	3554
3651.402	3526
3653.073	3546
3654.744	3548
3656.414	3534
3658.085	3510
3659.755	3501
3661.424	3556
3663.094	3521
3664.762	3459
3666.431	3472
3668.099	3467
3669.766	3408
3671.433	3387
3673.099	3454
3674.768	3436
3676.433	3420
3678.098	3404
3679.763	3371
3681.428	3435
3683.093	3388
3684.757	3482
3686.421	3458
3688.083	3405
3689.746	3439
3691.408	3439
3693.071	3449
3694.733	3417
3696.394	3351
3698.054	3393
3699.715	3468
3701.375	3443
3703.036	3358
3704.695	3333
3706.354	3480
3708.012	3453
3709.67	3380
3711.329	3463
3712.987	3377
3714.644	3367
3716.299	3409
3717.955	3447
3719.613	3397
3721.268	3320
3722.923	3416
3724.577	3330
3726.231	3357
3727.885	3351
3729.539	3328
3731.192	3359
3732.845	3371
3734.497	3341
3736.149	3345
3737.802	3340
3739.453	3250
3741.104	3349
3742.753	3292
3744.404	3346
3746.052	3294
3747.704	3356
3749.352	3385
3751	3344
3752.648	3290
3754.296	3294
3755.944	3308
3757.59	3308
3759.238	3252
3760.883	3377
3762.528	3347
3764.176	3232
3765.82	3288
3767.464	3295
3769.109	3386
3770.753	3273
3772.396	3254
3774.04	3261
3775.683	3325
3777.325	3232
3778.967	3287
3780.608	3219
3782.25	3292
3783.89	3260
3785.531	3269
3787.17	3270
3788.81	3235
3790.45	3234
3792.09	3280
3793.729	3198
3795.366	3264
3797.003	3267
3798.64	3226
3800.278	3158
3801.915	3219
3803.551	3124
3805.187	3186
3806.822	3163
3808.458	3147
3810.093	3215
3811.726	3111
3813.36	3177
3814.994	3205
3816.627	3177
3818.262	3195
3819.893	3113
3821.525	3179
3823.157	3189
3824.787	3190
3826.42	3163
3828.051	3172
3829.68	3058
3831.31	3177
3832.938	3166
3834.569	3133
3836.198	3161
3837.825	3206
3839.454	3212
3841.08	3179
3842.708	3176
3844.335	3074
3845.962	3090
3847.587	3127
3849.212	3153
3850.838	3183
3852.463	3091
3854.089	3104
3855.712	3111
3857.335	3091
3858.959	3119
3860.582	3092
3862.205	3104
3863.827	3136
3865.449	3017
3867.07	3146
3868.691	3096
3870.312	3086
3871.933	3064
3873.553	3099
3875.173	3076
3876.792	3083
3878.411	3062
3880.03	3052
3881.647	3073
3883.265	2953
3884.882	3084
3886.499	3102
3888.116	3096
3889.732	3018
3891.348	3091
3892.964	3053
3894.579	3036
3896.195	3049
3897.809	3055
3899.423	2966
3901.036	3022
3902.648	3010
3904.261	3081
3905.875	3022
3907.487	3041
3909.099	3027
3910.709	3041
3912.321	3022
3913.933	3112
3915.542	3069
3917.152	3099
3918.762	3101
3920.37	3018
3921.98	3041
3923.589	2978
3925.196	2992
3926.804	2977
3928.41	2975
3930.018	2990
3931.626	3040
3933.231	3014
3934.838	2999
3936.442	3073
3938.046	3050
3939.653	3031
3941.257	3037
3942.861	2970
3944.464	3018
3946.068	3039
3947.67	2958
3949.273	2994
3950.876	3009
3952.477	2936
3954.078	3012
3955.678	2899
3957.281	2943
3958.881	2969
3960.48	2987
3962.079	2951
3963.678	2896
3965.279	2932
3966.877	2973
3968.475	2919
3970.072	2930
3971.669	2935
3973.266	2942
3974.864	2926
3976.459	2976
3978.055	2942
3979.65	2950
3981.245	2950
3982.841	2929
3984.436	2894
3986.03	2871
3987.623	2858
3989.216	2937
3990.809	2948
3992.403	2905
3993.995	2932
3995.586	2902
3997.177	2939
3998.768	2878
4000.361	2888
4001.951	2884
4003.54	2914
4005.13	2902
4006.719	2881
4008.31	2870
4009.897	2810
4011.485	2874
4013.073	2821
4014.66	2881
4016.247	2830
4017.834	2761
4019.421	2778
4021.006	2803
4022.592	2771
4024.178	2807
4025.763	2848
4027.348	2876
4028.932	2815
4030.515	2733
4032.099	2750
4033.682	2703
4035.266	2807
4036.847	2783
4038.429	2712
4040.011	2780
4041.592	2789
4043.173	2735
4044.755	2771
4046.334	2759
4047.913	2783
4049.494	2757
4051.074	2723
4052.652	2814
4054.23	2755
4055.807	2745
4057.385	2702
4058.963	2742
4060.541	2715
4062.117	2690
4063.693	2746
4065.269	2759
4066.844	2740
4068.42	2665
4069.995	2801
4071.569	2697
4073.143	2717
4074.716	2781
4076.291	2752
4077.864	2680
4079.436	2786
4081.009	2725
4082.58	2731
4084.152	2676
4085.723	2799
4087.294	2769
4088.865	2689
4090.435	2760
4092.005	2741
4093.574	2681
4095.143	2745
4096.712	2701
4098.279	2670
4099.848	2708
4101.416	2705
4102.984	2688
4104.55	2693
4106.117	2673
4107.682	2712
4109.248	2706
4110.815	2630
4112.379	2662
4113.945	2689
4115.508	2705
4117.073	2705
4118.637	2667
4120.201	2651
4121.763	2690
4123.325	2720
4124.888	2605
4126.449	2592
4128.013	2624
4129.573	2695
4131.133	2589
4132.694	2655
4134.254	2568
4135.814	2646
4137.374	2635
4138.933	2554
4140.491	2680
4142.049	2596
4143.607	2645
4145.167	2573
4146.724	2592
4148.28	2590
4149.836	2544
4151.392	2547
4152.949	2564
4154.504	2576
4156.059	2620
4157.614	2640
4159.168	2544
4160.723	2521
4162.277	2597
4163.83	2561
4165.383	2545
4166.936	2588
4168.488	2564
4170.041	2544
4171.593	2511
4173.144	2546
4174.695	2521
4176.246	2532
4177.796	2522
4179.346	2480
4180.896	2608
4182.445	2545
4183.994	2544
4185.542	2571
4187.091	2481
4188.639	2603
4190.185	2522
4191.732	2530
4193.279	2498
4194.826	2497
4196.373	2493
4197.918	2503
4199.463	2493
4201.008	2483
4202.553	2494
4204.098	2490
4205.641	2487
4207.185	2491
4208.728	2466
4210.271	2538
4211.814	2499
4213.357	2472
4214.898	2494
4216.439	2451
4217.98	2475
4219.522	2460
4221.062	2489
4222.603	2433
4224.142	2446
4225.681	2436
4227.222	2447
4228.76	2461
4230.298	2442
4231.835	2444
4233.373	2401
4234.911	2500
4236.449	2450
4237.985	2392
4239.521	2479
4241.057	2427
4242.592	2488
4244.128	2444
4245.663	2468
4247.197	2382
4248.731	2430
4250.265	2408
4251.798	2435
4253.333	2382
4254.865	2442
4256.397	2511
4257.93	2417
4259.461	2424
4260.994	2458
4262.525	2471
4264.056	2429
4265.586	2362
4267.115	2382
4268.646	2415
4270.176	2411
4271.705	2416
4273.232	2445
4274.761	2437
4276.289	2445
4277.818	2368
4279.345	2367
4280.872	2390
4282.399	2414
4283.924	2383
4285.452	2374
4286.976	2325
4288.502	2386
4290.026	2355
4291.551	2334
4293.074	2344
4294.6	2263
4296.123	2330
4297.646	2366
4299.168	2306
4300.691	2359
4302.214	2366
4303.736	2406
4305.257	2419
4306.778	2276
4308.299	2340
4309.82	2375
4311.34	2345
4312.86	2350
4314.379	2298
