400.0745	4292
402.597	4249
405.1208	4293
407.6419	4370
410.1623	4436
412.6819	4324
415.201	4367
417.7172	4331
420.2369	4494
422.7538	4444
425.2701	4465
427.7856	4517
430.3005	4575
432.8147	4582
435.3282	4554
437.841	4662
440.3511	4604
442.8625	4568
445.3753	4567
447.8854	4603
450.3927	4615
452.9014	4630
455.4073	4580
457.9146	4619
460.4233	4590
462.9272	4534
465.4325	4737
467.935	4626
470.4389	4661
472.9421	4584
475.4446	4651
477.9444	4645
480.4456	4682
482.944	4623
485.4417	4721
487.9429	4677
490.4393	4721
492.935	4670
495.4321	4738
497.9264	4858
500.4221	4843
502.9171	4747
505.4094	4746
507.9011	4751
510.392	4733
512.8864	4829
515.3759	4815
517.8649	4857
520.3531	4808
522.8406	4875
525.3275	4877
527.8178	4765
530.3033	4855
532.7881	4886
535.2723	4854
537.7558	4820
540.2407	4789
542.7228	4903
545.2043	4703
547.6851	4932
550.1652	4878
552.6467	4753
555.1255	4802
557.6016	4912
560.079	4895
562.5557	4926
565.0318	4872
567.5092	4929
569.984	5057
572.456	4946
574.9294	5008
577.4022	4983
579.8762	5011
582.3456	5059
584.8163	4977
587.2863	5158
589.7557	5051
592.2224	5044
594.6924	5019
597.1578	5011
599.6245	4947
602.0905	5013
604.5538	4987
607.0206	5072
609.4825	4873
611.9459	5007
614.4066	4961
616.8686	5045
619.33	4978
621.7906	4979
624.2487	5092
626.708	5100
629.1647	4982
631.6207	5042
634.0801	5095
636.5348	5019
638.9888	4980
641.4442	4983
643.8969	5022
646.3509	5086
648.8022	5095
651.255	5035
653.705	5052
656.1544	5107
658.6031	5144
661.0532	5094
663.5026	5121
665.9493	5125
668.3954	5146
670.8409	5041
673.2877	5130
675.7318	5172
678.1752	5254
680.618	5135
683.0601	5048
685.5035	5325
687.9444	5239
690.3845	5231
692.824	5321
695.2628	5159
697.701	5147
700.1406	5255
702.5774	5192
705.0116	5204
707.4472	5167
709.8821	5200
712.3183	5342
714.7519	5259
717.1829	5303
719.6151	5274
722.0468	5293
724.4777	5332
726.908	5346
729.3377	5390
731.7667	5279
734.1931	5517
736.6208	5367
739.0498	5418
741.4742	5413
743.9	5544
746.3231	5438
748.7476	5396
751.1713	5507
753.5945	5616
756.015	5565
758.4368	5590
760.856	5586
763.2766	5472
765.6965	5496
768.1157	5551
770.5323	5578
772.9483	5529
775.3656	5689
777.7822	5572
780.1963	5667
782.6116	5566
785.0244	5593
787.4365	5649
789.8499	5580
792.2626	5506
794.6728	5634
797.0823	5610
799.4911	5483
801.8994	5540
804.3109	5564
806.7178	5566
809.124	5550
811.5297	5645
813.9347	5633
816.341	5654
818.7447	5656
821.1478	5716
823.5502	5661
825.952	5715
828.3531	5676
830.7556	5611
833.1554	5655
835.5546	5622
837.9532	5701
840.3511	5656
842.7504	5678
845.1451	5675
847.5411	5751
849.9365	5762
852.3312	5808
854.7272	5820
857.1187	5763
859.5115	5743
861.9037	5714
864.2952	5787
866.6842	5714
869.0764	5628
871.4661	5636
873.8531	5733
876.2415	5673
878.6272	5746
881.0162	5821
883.4026	5594
885.7866	5701
888.1717	5709
890.5543	5812
892.9382	5706
895.3215	5686
897.7041	5716
900.0842	5671
902.4655	5792
904.8443	5812
907.2244	5813
909.6039	5781
911.9808	5709
914.357	5772
916.7346	5847
919.1115	5961
921.4859	5867
923.8616	6020
926.2347	5947
928.6071	5950
930.979	5995
933.3541	6049
935.7247	6065
938.0946	6056
940.4639	6112
942.8326	6222
945.2026	6211
947.5701	6263
949.9369	6331
952.305	6448
954.6705	6568
957.0355	6745
959.4017	7059
961.7654	7125
964.1284	7073
966.4908	6806
968.8527	6852
971.2138	6620
973.5743	6432
975.9343	6291
978.2936	6094
980.6522	6045
983.0122	5985
985.3696	6013
987.7245	5944
990.0807	5858
992.4362	5818
994.7911	6015
997.1474	6076
999.4991	5916
1001.852	6015
1004.205	5966
1006.555	5940
1008.908	6078
1011.258	5927
1013.606	5953
1015.956	5957
1018.302	5943
1020.652	6004
1022.998	6085
1025.345	6085
1027.691	5996
1030.035	6126
1032.378	5986
1034.724	6054
1037.066	6014
1039.409	6072
1041.75	6024
1044.092	6136
1046.433	6061
1048.771	6051
1051.112	6075
1053.449	6152
1055.786	6004
1058.124	6123
1060.462	6252
1062.797	6098
1065.131	6227
1067.467	6070
1069.8	6184
1072.135	6269
1074.467	6127
1076.798	6154
1079.129	6226
1081.459	6174
1083.792	6147
1086.121	6047
1088.449	6117
1090.777	6122
1093.104	6118
1095.431	6159
1097.759	6136
1100.084	6229
1102.408	6171
1104.732	6261
1107.056	6080
1109.379	6067
1111.701	6158
1114.022	6164
1116.343	6080
1118.664	6102
1120.983	6131
1123.303	6179
1125.621	6242
1127.939	6193
1130.256	6204
1132.573	6136
1134.889	6051
1137.205	6170
1139.52	6215
1141.832	6140
1144.146	6164
1146.461	6160
1148.771	6040
1151.083	6185
1153.392	6136
1155.703	6102
1158.011	6182
1160.323	6188
1162.629	6145
1164.938	6050
1167.243	6114
1169.55	6043
1171.857	6185
1174.163	6176
1176.466	6166
1178.769	5981
1181.073	6193
1183.374	6205
1185.677	6224
1187.979	6046
1190.279	6134
1192.578	6159
1194.878	6050
1197.178	6143
1199.476	6157
1201.772	6223
1204.068	6142
1206.366	6119
1208.663	6146
1210.957	6225
1213.251	6231
1215.544	6158
1217.836	6143
1220.128	6342
1222.421	6072
1224.712	6320
1227.002	6248
1229.292	6353
1231.581	6340
1233.871	6327
1236.159	6300
1238.446	6312
1240.732	6273
1243.018	6313
1245.304	6381
1247.59	6442
1249.874	6291
1252.156	6424
1254.439	6338
1256.721	6256
1259.005	6358
1261.286	6409
1263.565	6348
1265.845	6388
1268.125	6340
1270.403	6445
1272.682	6299
1274.959	6261
1277.234	6371
1279.511	6438
1281.787	6372
1284.062	6313
1286.337	6267
1288.609	6480
1290.882	6272
1293.153	6309
1295.428	6291
1297.698	6278
1299.969	6218
1302.237	6228
1304.507	6314
1306.777	6210
1309.044	6293
1311.312	6208
1313.578	6404
1315.844	6295
1318.109	6318
1320.375	6322
1322.638	6367
1324.903	6188
1327.165	6206
1329.427	6231
1331.69	6265
1333.952	6270
1336.212	6159
1338.471	6288
1340.73	6348
1342.988	6284
1345.248	6267
1347.505	6416
1349.763	6283
1352.019	6312
1354.274	6356
1356.53	6252
1358.784	6217
1361.038	6342
1363.291	6197
1365.543	6308
1367.797	6281
1370.048	6220
1372.296	6414
1374.546	6304
1376.796	6361
1379.045	6376
1381.295	6389
1383.542	6396
1385.787	6336
1388.034	6384
1390.28	6351
1392.527	6341
1394.772	6420
1397.014	6346
1399.258	6424
1401.501	6331
1403.741	6416
1405.985	6450
1408.226	6388
1410.465	6421
1412.705	6529
1414.943	6383
1417.184	6425
1419.42	6511
1421.658	6381
1423.894	6417
1426.13	6526
1428.366	6420
1430.602	6573
1432.835	6539
1435.069	6597
1437.301	6561
1439.535	6529
1441.767	6595
1443.997	6509
1446.229	6559
1448.458	6594
1450.687	6765
1452.916	6624
1455.146	6626
1457.372	6583
1459.599	6634
1461.824	6549
1464.051	6495
1466.277	6629
1468.501	6555
1470.725	6572
1472.948	6429
1475.17	6600
1477.393	6538
1479.614	6395
1481.837	6390
1484.057	6423
1486.276	6372
1488.497	6426
1490.715	6428
1492.932	6382
1495.148	6366
1497.364	6410
1499.58	6317
1501.798	6469
1504.012	6332
1506.227	6329
1508.44	6316
1510.653	6406
1512.866	6395
1515.078	6386
1517.289	6347
1519.5	6330
1521.711	6233
1523.92	6240
1526.13	6400
1528.338	6319
1530.544	6317
1532.752	6282
1534.959	6318
1537.165	6412
1539.371	6315
1541.574	6295
1543.779	6418
1545.983	6350
1548.187	6406
1550.39	6348
1552.59	6421
1554.792	6442
1556.991	6431
1559.19	6372
1561.392	6432
1563.59	6522
1565.789	6405
1567.986	6541
1570.182	6465
1572.381	6464
1574.576	6400
1576.771	6524
1578.966	6506
1581.16	6546
1583.354	6579
1585.546	6561
1587.74	6474
1589.931	6508
1592.121	6466
1594.311	6654
1596.502	6529
1598.693	6470
1600.881	6471
1603.069	6482
1605.256	6623
1607.445	6453
1609.631	6450
1611.816	6560
1614.001	6482
1616.186	6427
1618.37	6519
1620.555	6501
1622.737	6535
1624.919	6528
1627.101	6482
1629.282	6570
1631.463	6637
1633.643	6461
1635.822	6520
1638.001	6545
1640.179	6519
1642.359	6643
1644.534	6532
1646.711	6591
1648.887	6592
1651.062	6712
1653.235	6583
1655.412	6616
1657.586	6588
1659.757	6525
1661.93	6761
1664.1	6745
1666.274	6663
1668.445	6622
1670.614	6681
1672.784	6728
1674.951	6696
1677.12	6658
1679.289	6577
1681.457	6754
1683.622	6688
1685.789	6675
1687.953	6593
1690.121	6575
1692.284	6742
1694.447	6621
1696.611	6586
1698.772	6616
1700.935	6574
1703.098	6626
1705.258	6473
1707.417	6502
1709.576	6496
1711.736	6489
1713.896	6512
1716.053	6545
1718.21	6528
1720.366	6519
1722.522	6520
1724.68	6497
1726.835	6512
1728.989	6567
1731.142	6576
1733.295	6412
1735.449	6443
1737.601	6562
1739.753	6539
1741.903	6498
1744.054	6504
1746.203	6552
1748.354	6438
1750.503	6555
1752.651	6510
1754.798	6508
1756.944	6466
1759.092	6467
1761.238	6616
1763.383	6494
1765.528	6539
1767.672	6492
1769.814	6629
1771.959	6532
1774.102	6552
1776.242	6474
1778.384	6428
1780.525	6605
1782.665	6583
1784.805	6620
1786.945	6650
1789.082	6675
1791.22	6673
1793.36	6675
1795.495	6591
1797.632	6565
1799.766	6493
1801.902	6680
1804.035	6619
1806.172	6569
1808.304	6557
1810.436	6622
1812.569	6631
1814.699	6622
1816.833	6678
1818.963	6694
1821.092	6587
1823.222	6607
1825.35	6532
1827.478	6615
1829.608	6517
1831.734	6611
1833.86	6524
1835.986	6641
1838.11	6664
1840.238	6560
1842.362	6520
1844.485	6601
1846.608	6566
1848.73	6671
1850.853	6551
1852.974	6512
1855.097	6435
1857.217	6543
1859.336	6564
1861.455	6579
1863.576	6667
1865.693	6528
1867.811	6621
1869.926	6636
1872.042	6689
1874.16	6628
1876.275	6559
1878.39	6484
1880.504	6503
1882.618	6625
1884.731	6524
1886.843	6612
1888.956	6630
1891.067	6590
1893.178	6720
1895.287	6590
1897.399	6619
1899.508	6627
1901.617	6706
1903.724	6602
1905.832	6688
1907.941	6655
1910.046	6651
1912.152	6722
1914.256	6625
1916.361	6638
1918.464	6743
1920.57	6806
1922.672	6637
1924.775	6713
1926.876	6757
1928.978	6804
1931.08	6793
1933.181	6816
1935.28	6731
1937.38	6795
1939.478	6693
1941.577	6673
1943.675	6768
1945.771	6697
1947.867	6795
1949.964	6837
1952.058	6869
1954.154	6869
1956.248	6788
1958.343	6911
1960.435	6775
1962.527	6750
1964.62	6920
1966.711	6810
1968.802	6778
1970.892	6873
1972.983	6820
1975.072	6699
1977.162	6769
1979.25	6810
1981.337	6757
1983.424	6743
1985.51	6734
1987.598	6889
1989.683	6806
1991.768	6649
1993.852	6790
1995.934	6815
1998.019	6732
2000.102	6682
2002.184	6780
2004.266	6719
2006.347	6865
2008.427	6806
2010.508	6924
2012.587	6908
2014.666	6885
2016.745	6747
2018.821	6703
2020.9	6736
2022.977	6832
2025.052	6887
2027.128	6843
2029.204	6817
2031.277	6897
2033.353	6808
2035.425	6802
2037.499	6862
2039.57	6803
2041.642	6867
2043.714	6825
2045.786	6840
2047.855	7048
2049.925	6916
2051.993	6919
2054.064	6912
2056.132	6842
2058.2	6874
2060.266	6867
2062.332	6920
2064.398	7013
2066.465	6871
2068.529	6913
2070.592	6998
2072.657	6918
2074.719	6918
2076.783	6913
2078.845	6854
2080.907	6942
2082.968	6928
2085.028	6886
2087.087	6921
2089.148	6897
2091.207	7045
2093.264	6894
2095.322	7016
2097.379	6910
2099.439	6921
2101.495	6870
2103.55	6987
2105.605	6943
2107.658	7087
2109.713	6995
2111.767	6883
2113.82	7044
2115.872	6887
2117.924	6961
2119.975	7063
2122.028	6922
2124.078	7059
2126.126	6977
2128.176	6982
2130.225	6971
2132.275	6961
2134.321	7009
2136.368	7122
2138.415	7029
2140.461	6942
2142.505	6791
2144.552	7101
2146.597	6829
2148.64	7095
2150.684	6956
2152.725	6970
2154.77	7003
2156.811	6915
2158.852	6939
2160.894	6903
2162.933	6992
2164.973	6952
2167.013	6958
2169.051	6951
2171.089	6887
2173.126	6937
2175.164	6975
2177.201	7037
2179.236	6907
2181.273	7082
2183.307	6957
2185.341	6939
2187.377	6919
2189.41	6979
2191.442	6924
2193.473	6945
2195.506	6950
2197.539	6974
2199.569	6932
2201.598	6923
2203.628	6922
2205.656	6912
2207.686	6807
2209.716	6943
2211.743	6837
2213.769	6749
2215.796	6784
2217.821	6858
2219.848	6968
2221.873	6867
2223.897	6845
2225.921	6849
2227.944	6785
2229.967	6820
2231.991	6804
2234.011	6825
2236.032	6901
2238.053	6800
2240.073	6944
2242.094	6758
2244.114	6914
2246.131	6752
2248.149	6892
2250.167	6865
2252.186	6771
2254.201	7031
2256.218	6700
2258.233	6879
2260.247	6831
2262.262	6942
2264.278	6911
2266.29	6829
2268.303	6832
2270.315	6694
2272.327	6757
2274.341	6901
2276.35	6787
2278.361	6847
2280.37	6788
2282.38	6936
2284.388	6741
2286.397	6882
2288.405	6863
2290.412	6869
2292.419	6861
2294.425	6767
2296.431	6804
2298.437	6803
2300.441	6845
2302.445	6931
2304.449	6832
2306.453	6695
2308.455	6722
2310.457	6646
2312.459	6795
2314.46	6711
2316.46	6669
2318.461	6641
2320.46	6700
2322.458	6741
2324.458	6651
2326.456	6648
2328.455	6717
2330.451	6699
2332.447	6743
2334.443	6757
2336.438	6748
2338.433	6545
2340.429	6555
2342.422	6654
2344.416	6693
2346.408	6635
2348.399	6660
2350.393	6655
2352.384	6630
2354.375	6641
2356.365	6595
2358.355	6639
2360.344	6700
2362.333	6610
2364.322	6574
2366.309	6581
2368.295	6570
2370.282	6616
2372.27	6601
2374.256	6619
2376.24	6548
2378.225	6525
2380.208	6569
2382.194	6503
2384.177	6468
2386.159	6493
2388.142	6533
2390.122	6386
2392.105	6534
2394.085	6486
2396.066	6460
2398.044	6427
2400.024	6555
2402.002	6450
2403.982	6354
2405.959	6493
2407.935	6637
2409.913	6471
2411.888	6491
2413.865	6372
2415.84	6529
2417.814	6549
2419.788	6526
2421.762	6496
2423.735	6539
2425.708	6414
2427.68	6499
2429.651	6515
2431.623	6420
2433.593	6420
2435.564	6320
2437.533	6429
2439.502	6394
2441.47	6412
2443.438	6614
2445.406	6487
2447.373	6459
2449.34	6444
2451.305	6319
2453.271	6429
2455.235	6500
2457.201	6462
2459.165	6339
2461.129	6378
2463.092	6436
2465.054	6413
2467.018	6365
2468.978	6445
2470.939	6286
2472.899	6317
2474.86	6458
2476.819	6353
2478.778	6303
2480.737	6312
2482.695	6432
2484.653	6343
2486.609	6254
2488.567	6349
2490.524	6401
2492.478	6397
2494.433	6399
2496.387	6277
2498.343	6242
2500.297	6366
2502.249	6302
2504.202	6220
2506.153	6407
2508.105	6273
2510.057	6343
2512.008	6368
2513.957	6313
2515.906	6355
2517.855	6320
2519.805	6380
2521.754	6333
2523.7	6302
2525.647	6404
2527.594	6289
2529.54	6162
2531.486	6300
2533.431	6335
2535.376	6272
2537.32	6189
2539.263	6263
2541.207	6315
2543.151	6317
2545.093	6263
2547.034	6339
2548.975	6371
2550.917	6309
2552.856	6211
2554.796	6324
2556.735	6249
2558.673	6309
2560.611	6190
2562.55	6217
2564.487	6130
2566.424	6303
2568.36	6370
2570.296	6175
2572.232	6237
2574.167	6216
2576.101	6295
2578.035	6290
2579.969	6253
2581.902	6361
2583.834	6286
2585.766	6331
2587.698	6242
2589.628	6327
2591.557	6239
2593.489	6301
2595.419	6257
2597.348	6196
2599.275	6319
2601.204	6312
2603.131	6308
2605.059	6340
2606.986	6165
2608.911	6246
2610.837	6198
2612.76	6253
2614.687	6261
2616.61	6403
2618.534	6222
2620.457	6239
2622.38	6297
2624.302	6261
2626.225	6260
2628.145	6198
2630.067	6244
2631.986	6266
2633.906	6159
2635.827	6265
2637.745	6307
2639.662	6291
2641.581	6247
2643.498	6286
2645.415	6290
2647.331	6194
2649.248	6229
2651.163	6247
2653.077	6183
2654.993	6216
2656.906	6203
2658.821	6203
2660.733	6184
2662.646	6216
2664.557	6259
2666.47	6276
2668.381	6248
2670.291	6260
2672.201	6148
2674.11	6248
2676.021	6254
2677.929	6224
2679.837	6170
2681.745	6272
2683.652	6127
2685.56	6178
2687.466	6086
2689.371	6211
2691.276	6077
2693.181	6189
2695.085	6177
2696.991	6036
2698.893	6189
2700.796	6119
2702.698	6227
2704.601	6053
2706.502	6186
2708.404	5961
2710.304	6057
2712.203	6020
2714.103	6078
2716.003	6052
2717.902	5984
2719.8	6197
2721.697	6083
2723.594	5995
2725.49	5965
2727.389	5956
2729.283	6020
2731.179	6052
2733.073	6147
2734.968	5964
2736.863	6127
2738.757	6125
2740.649	6009
2742.541	5980
2744.433	5973
2746.324	5984
2748.216	6081
2750.107	6049
2751.997	6071
2753.886	5995
2755.776	5994
2757.666	6071
2759.553	6047
2761.44	6050
2763.327	5947
2765.215	5915
2767.102	6080
2768.988	6095
2770.873	6053
2772.757	5933
2774.641	5907
2776.525	5879
2778.41	5945
2780.292	5998
2782.175	5895
2784.057	5987
2785.938	5912
2787.821	5956
2789.701	5966
2791.581	5991
2793.461	5937
2795.34	5887
2797.219	5903
2799.099	5956
2800.975	5886
2802.853	5912
2804.73	5918
2806.606	5946
2808.484	5986
2810.358	5811
2812.233	5903
2814.108	5802
2815.981	5963
2817.857	5867
2819.73	5745
2821.602	5762
2823.474	5896
2825.346	5918
2827.217	5797
2829.089	5839
2830.959	5848
2832.829	5758
2834.698	5776
2836.567	5767
2838.436	5937
2840.305	5813
2842.172	5823
2844.04	5801
2845.905	5989
2847.772	5953
2849.639	5832
2851.503	5920
2853.369	5858
2855.232	5958
2857.096	5840
2858.961	5864
2860.824	5841
2862.686	5865
2864.547	6001
2866.41	5933
2868.272	6020
2870.132	5972
2871.992	6048
2873.851	6023
2875.711	6006
2877.57	6066
2879.429	6127
2881.287	6151
2883.144	6182
2885.001	6133
2886.857	6135
2888.714	6161
2890.57	6193
2892.425	6239
2894.279	6073
2896.133	6109
2897.987	6171
2899.842	6085
2901.694	6049
2903.547	6159
2905.397	6127
2907.249	6094
2909.101	6088
2910.952	5981
2912.802	6284
2914.652	6279
2916.5	6168
2918.35	6227
2920.198	6233
2922.045	6346
2923.893	6296
2925.74	6428
2927.585	6438
2929.433	6386
2931.279	6432
2933.123	6507
2934.968	6453
2936.811	6523
2938.656	6478
2940.5	6640
2942.342	6728
2944.185	6640
2946.026	6757
2947.87	6646
2949.71	6621
2951.549	6667
2953.39	6697
2955.229	6620
2957.069	6528
2958.908	6316
2960.746	6403
2962.584	6381
2964.421	6339
2966.257	6240
2968.094	6232
2969.931	6230
2971.766	6225
2973.601	6185
2975.435	6113
2977.27	6191
2979.105	6072
2980.938	6188
2982.77	6091
2984.602	6096
2986.434	6063
2988.267	5975
2990.097	6033
2991.927	5988
2993.757	5965
2995.587	5869
2997.417	5847
2999.246	5805
3001.074	5817
3002.902	5777
3004.729	5848
3006.556	5821
3008.384	5707
3010.21	5654
3012.036	5642
3013.861	5522
3015.684	5571
3017.51	5551
3019.334	5509
3021.157	5602
3022.981	5542
3024.802	5418
3026.624	5475
3028.448	5459
3030.267	5446
3032.088	5471
3033.909	5446
3035.728	5421
3037.549	5469
3039.368	5303
3041.186	5423
3043.004	5478
3044.821	5309
3046.64	5338
3048.455	5485
3050.272	5422
3052.087	5425
3053.903	5388
3055.717	5388
3057.534	5376
3059.347	5320
3061.16	5425
3062.974	5295
3064.785	5309
3066.598	5347
3068.411	5328
3070.222	5418
3072.032	5365
3073.844	5325
3075.653	5294
3077.463	5383
3079.272	5324
3081.08	5334
3082.889	5407
3084.697	5274
3086.505	5246
3088.312	5112
3090.118	5207
3091.924	5254
3093.729	5262
3095.535	5113
3097.34	5195
3099.144	5301
3100.947	5266
3102.75	5123
3104.553	5184
3106.357	5245
3108.159	5204
3109.961	5236
3111.762	5165
3113.562	5158
3115.365	5097
3117.164	5145
3118.964	5097
3120.761	5057
3122.56	5071
3124.36	4995
3126.158	5098
3127.954	5123
3129.75	5169
3131.547	5063
3133.343	5092
3135.139	5041
3136.934	5076
3138.729	5130
3140.522	5037
3142.317	5120
3144.11	5104
3145.904	5055
3147.695	5111
3149.488	5061
3151.28	5125
3153.07	5075
3154.863	5135
3156.652	5052
3158.441	5039
3160.231	5002
3162.019	5021
3163.81	5064
3165.597	4984
3167.384	5091
3169.172	4942
3170.958	5001
3172.745	5060
3174.532	5032
3176.317	5037
3178.101	5033
3179.885	5043
3181.67	4993
3183.455	4979
3185.238	5050
3187.02	4946
3188.802	5021
3190.585	5118
3192.368	4986
3194.149	5070
3195.929	4978
3197.709	4997
3199.489	5020
3201.268	4915
3203.048	5008
3204.826	4942
3206.604	4969
3208.382	4944
3210.159	4954
3211.937	5025
3213.713	4928
3215.489	4980
3217.263	4884
3219.038	4921
3220.815	4935
3222.589	4990
3224.363	4910
3226.136	5064
3227.908	4873
3229.681	4942
3231.454	4971
3233.226	4884
3234.996	4867
3236.767	4953
3238.538	4942
3240.308	4921
3242.078	4928
3243.847	4843
3245.615	4890
3247.384	4916
3249.15	4843
3250.92	4951
3252.686	5018
3254.453	4954
3256.218	4977
3257.984	4890
3259.75	4907
3261.515	4887
3263.279	4947
3265.044	4965
3266.806	4903
3268.57	4859
3270.334	4959
3272.095	4897
3273.856	4953
3275.619	4903
3277.379	4916
3279.14	4877
3280.9	4916
3282.661	5022
3284.419	4964
3286.178	4947
3287.937	4995
3289.695	4869
3291.453	4925
3293.21	4985
3294.967	4898
3296.723	5046
3298.48	4995
3300.235	4947
3301.99	4954
3303.744	4942
3305.498	4920
3307.253	4922
3309.006	4850
3310.759	4977
3312.511	4925
3314.263	4912
3316.017	4900
3317.768	4956
3319.519	4977
3321.268	4919
3323.018	4812
3324.767	4857
3326.518	4922
3328.267	4953
3330.014	4900
3331.762	4938
3333.509	4840
3335.258	4854
3337.003	4896
3338.75	4819
3340.496	4910
3342.24	4860
3343.987	4909
3345.732	4878
3347.475	4870
3349.219	4788
3350.961	4934
3352.705	4869
3354.448	4824
3356.19	4800
3357.931	4932
3359.672	4800
3361.412	4891
3363.155	4863
3364.894	4883
3366.633	4810
3368.372	4862
3370.11	4779
3371.849	4741
3373.588	4829
3375.325	4909
3377.061	4770
3378.799	4841
3380.534	4799
3382.271	4740
3384.006	4813
3385.741	4841
3387.475	4835
3389.209	4835
3390.944	4812
3392.677	4802
3394.409	4751
3396.143	4788
3397.874	4798
3399.606	4699
3401.338	4692
3403.069	4788
3404.799	4695
3406.528	4763
3408.258	4711
3409.988	4794
3411.717	4675
3413.445	4685
3415.173	4741
3416.899	4690
3418.626	4708
3420.354	4706
3422.08	4739
3423.806	4708
3425.531	4694
3427.255	4678
3428.981	4675
3430.705	4693
3432.429	4705
3434.151	4784
3435.875	4709
3437.599	4618
3439.321	4644
3441.042	4825
3442.763	4695
3444.483	4584
3446.204	4653
3447.926	4709
3449.645	4705
3451.364	4624
3453.082	4651
3454.801	4648
3456.52	4525
3458.238	4652
3459.954	4693
3461.671	4630
3463.387	4621
3465.104	4557
3466.82	4581
3468.534	4577
3470.25	4592
3471.963	4552
3473.676	4588
3475.392	4558
3477.104	4540
3478.817	4503
3480.528	4511
3482.241	4522
3483.954	4570
3485.664	4613
3487.374	4546
3489.084	4584
3490.795	4491
3492.504	4561
3494.214	4459
3495.922	4521
3497.63	4545
3499.338	4515
3501.045	4428
3502.753	4537
3504.459	4538
3506.166	4581
3507.871	4558
3509.576	4480
3511.283	4473
3512.987	4436
3514.691	4525
3516.395	4491
3518.098	4473
3519.8	4446
3521.504	4446
3523.206	4535
3524.908	4450
3526.609	4428
3528.309	4362
3530.011	4386
3531.711	4379
3533.411	4440
3535.109	4400
3536.808	4495
3538.507	4381
3540.206	4421
3541.904	4307
3543.601	4371
3545.297	4435
3546.994	4332
3548.69	4442
3550.387	4382
3552.081	4372
3553.776	4423
3555.47	4396
3557.166	4380
3558.859	4333
3560.553	4353
3562.245	4332
3563.938	4362
3565.629	4349
3567.322	4327
3569.014	4352
3570.704	4395
3572.394	4207
3574.084	4320
3575.775	4336
3577.464	4381
3579.152	4397
3580.842	4362
3582.529	4385
3584.216	4287
3585.905	4230
3587.591	4308
3589.279	4235
3590.964	4313
3592.649	4203
3594.336	4312
3596.021	4210
3597.705	4210
3599.388	4306
3601.072	4306
3602.757	4249
3604.439	4193
3606.122	4194
3607.803	4206
3609.485	4236
3611.167	4224
3612.849	4245
3614.529	4156
3616.208	4166
3617.888	4191
3619.567	4134
3621.247	4232
3622.926	4146
3624.603	4164
3626.281	4200
3627.958	4154
3629.635	4141
3631.312	4185
3632.989	4118
3634.665	4072
3636.339	4088
3638.014	4162
3639.691	4063
3641.364	4113
3643.038	4079
3644.71	4065
3646.384	4130
3648.058	4051
3649.729	4034
3651.402	4110
3653.073	4102
3654.744	3977
3656.414	4029
3658.085	4060
3659.755	4060
3661.424	4102
3663.094	4029
3664.762	4038
3666.431	4006
3668.099	4031
3669.766	4005
3671.433	4008
3673.099	3992
3674.768	3982
3676.433	3990
3678.098	4048
3679.763	3989
3681.428	3986
3683.093	3940
3684.757	3982
3686.421	3984
3688.083	3929
3689.746	4016
3691.408	4026
3693.071	3943
3694.733	3984
3696.394	3930
3698.054	3921
3699.715	3996
3701.375	3974
3703.036	3947
3704.695	3899
3706.354	3969
3708.012	3935
3709.67	3889
3711.329	3898
3712.987	3914
3714.644	3956
3716.299	3947
3717.955	3878
3719.613	3989
3721.268	3868
3722.923	3889
3724.577	3835
3726.231	3802
3727.885	3866
3729.539	3905
3731.192	3829
3732.845	3879
3734.497	3879
3736.149	3923
3737.802	3867
3739.453	3868
3741.104	3766
3742.753	3895
3744.404	3809
3746.052	3912
3747.704	3945
3749.352	3830
3751	3879
3752.648	3843
3754.296	3837
3755.944	3746
3757.59	3779
3759.238	3831
3760.883	3837
3762.528	3798
3764.176	3800
3765.82	3769
3767.464	3877
3769.109	3790
3770.753	3792
3772.396	3747
3774.04	3760
3775.683	3680
3777.325	3835
3778.967	3701
3780.608	3755
3782.25	3760
3783.89	3688
3785.531	3665
3787.17	3648
3788.81	3712
3790.45	3624
3792.09	3745
3793.729	3763
3795.366	3703
3797.003	3712
3798.64	3723
3800.278	3740
3801.915	3648
3803.551	3681
3805.187	3593
3806.822	3646
3808.458	3658
3810.093	3680
3811.726	3702
3813.36	3715
3814.994	3666
3816.627	3691
3818.262	3655
3819.893	3697
3821.525	3537
3823.157	3682
3824.787	3576
3826.42	3675
3828.051	3619
3829.68	3553
3831.31	3586
3832.938	3568
3834.569	3549
3836.198	3652
3837.825	3678
3839.454	3640
3841.08	3605
3842.708	3594
3844.335	3596
3845.962	3671
3847.587	3603
3849.212	3648
3850.838	3569
3852.463	3615
3854.089	3543
3855.712	3542
3857.335	3659
3858.959	3523
3860.582	3638
3862.205	3621
3863.827	3523
3865.449	3586
3867.07	3580
3868.691	3546
3870.312	3550
3871.933	3601
3873.553	3454
3875.173	3610
3876.792	3586
3878.411	3460
3880.03	3421
3881.647	3458
3883.265	3520
3884.882	3512
3886.499	3583
3888.116	3436
3889.732	3493
3891.348	3568
3892.964	3485
3894.579	3464
3896.195	3493
3897.809	3494
3899.423	3488
3901.036	3440
3902.648	3453
3904.261	3411
3905.875	3420
3907.487	3401
3909.099	3522
3910.709	3497
3912.321	3461
3913.933	3452
3915.542	3418
3917.152	3397
3918.762	3457
3920.37	3505
3921.98	3497
3923.589	3463
3925.196	3440
3926.804	3429
3928.41	3463
3930.018	3396
3931.626	3465
3933.231	3432
3934.838	3392
3936.442	3482
3938.046	3410
3939.653	3451
3941.257	3406
3942.861	3427
3944.464	3390
3946.068	3431
3947.67	3386
3949.273	3395
3950.876	3374
3952.477	3371
3954.078	3395
3955.678	3329
3957.281	3337
3958.881	3415
3960.48	3445
3962.079	3458
3963.678	3369
3965.279	3344
3966.877	3374
3968.475	3349
3970.072	3346
3971.669	3333
3973.266	3311
3974.864	3401
3976.459	3283
3978.055	3372
3979.65	3299
3981.245	3279
3982.841	3370
3984.436	3304
3986.03	3299
3987.623	3280
3989.216	3260
3990.809	3255
3992.403	3255
3993.995	3255
3995.586	3261
3997.177	3305
3998.768	3310
4000.361	3303
4001.951	3268
4003.54	3245
4005.13	3207
4006.719	3188
4008.31	3273
4009.897	3286
4011.485	3209
4013.073	3271
4014.66	3179
4016.247	3195
4017.834	3193
4019.421	3159
4021.006	3146
4022.592	3252
4024.178	3168
4025.763	3186
4027.348	3123
4028.932	3131
4030.515	3168
4032.099	3178
4033.682	3167
4035.266	3138
4036.847	3179
4038.429	3175
4040.011	3118
4041.592	3180
4043.173	3141
4044.755	3230
4046.334	3129
4047.913	3145
4049.494	3176
4051.074	3034
4052.652	3099
4054.23	3109
4055.807	3101
4057.385	3074
4058.963	3121
4060.541	3150
4062.117	3072
4063.693	3103
4065.269	3073
4066.844	3166
4068.42	3120
4069.995	3154
4071.569	3072
4073.143	3082
4074.716	3092
4076.291	3118
4077.864	3035
4079.436	3144
4081.009	3102
4082.58	3030
4084.152	3067
4085.723	3029
4087.294	3024
4088.865	3143
4090.435	3006
4092.005	3180
4093.574	3075
4095.143	2971
4096.712	3124
4098.279	3076
4099.848	3006
4101.416	3045
4102.984	3043
4104.55	3012
4106.117	2999
4107.682	3044
4109.248	3074
4110.815	3050
4112.379	3046
4113.945	3025
4115.508	2961
4117.073	3035
4118.637	2998
4120.201	3054
4121.763	3007
4123.325	3025
4124.888	3025
4126.449	2935
4128.013	2932
4129.573	2942
4131.133	2949
4132.694	2966
4134.254	2987
4135.814	2961
4137.374	2917
4138.933	2946
4140.491	2979
4142.049	2912
4143.607	2905
4145.167	2906
4146.724	2923
4148.28	2867
4149.836	2959
4151.392	2878
4152.949	2972
4154.504	2895
4156.059	2898
4157.614	2849
4159.168	2933
4160.723	2931
4162.277	2826
4163.83	2888
4165.383	2870
4166.936	2869
4168.488	2949
4170.041	2872
4171.593	2893
4173.144	2882
4174.695	2903
4176.246	2852
4177.796	2873
4179.346	2816
4180.896	2957
4182.445	2878
4183.994	2857
4185.542	2803
4187.091	2823
4188.639	2822
4190.185	2826
4191.732	2811
4193.279	2823
4194.826	2796
4196.373	2839
4197.918	2783
4199.463	2791
4201.008	2801
4202.553	2793
4204.098	2813
4205.641	2713
4207.185	2785
4208.728	2811
4210.271	2794
4211.814	2803
4213.357	2765
4214.898	2754
4216.439	2770
4217.98	2703
4219.522	2800
4221.062	2746
4222.603	2786
4224.142	2722
4225.681	2764
4227.222	2755
4228.76	2733
4230.298	2792
4231.835	2756
4233.373	2693
4234.911	2762
4236.449	2766
4237.985	2707
4239.521	2718
4241.057	2730
4242.592	2715
4244.128	2677
4245.663	2737
4247.197	2766
4248.731	2731
4250.265	2685
4251.798	2695
4253.333	2740
4254.865	2680
4256.397	2669
4257.93	2699
4259.461	2700
4260.994	2748
4262.525	2644
4264.056	2648
4265.586	2682
4267.115	2709
4268.646	2740
4270.176	2688
4271.705	2776
4273.232	2720
4274.761	2645
4276.289	2725
4277.818	2659
4279.345	2632
4280.872	2637
4282.399	2678
4283.924	2632
4285.452	2660
4286.976	2679
4288.502	2635
4290.026	2647
4291.551	2634
4293.074	2665
4294.6	2613
4296.123	2612
4297.646	2578
4299.168	2621
4300.691	2579
4302.214	2630
4303.736	2646
4305.257	2574
4306.778	2655
4308.299	2540
4309.82	2555
4311.34	2605
4312.86	2594
4314.379	2571
