400.0745	4249
402.597	4300
405.1208	4244
407.6419	4329
410.1623	4283
412.6819	4242
415.201	4325
417.7172	4302
420.2369	4439
422.7538	4497
425.2701	4425
427.7856	4370
430.3005	4525
432.8147	4486
435.3282	4529
437.841	4534
440.3511	4487
442.8625	4478
445.3753	4539
447.8854	4492
450.3927	4601
452.9014	4514
455.4073	4608
457.9146	4563
460.4233	4527
462.9272	4604
465.4325	4545
467.935	4539
470.4389	4587
472.9421	4600
475.4446	4609
477.9444	4575
480.4456	4639
482.944	4592
485.4417	4652
487.9429	4587
490.4393	4688
492.935	4649
495.4321	4609
497.9264	4714
500.4221	4677
502.9171	4559
505.4094	4727
507.9011	4579
510.392	4790
512.8864	4730
515.3759	4728
517.8649	4775
520.3531	4779
522.8406	4770
525.3275	4678
527.8178	4643
530.3033	4738
532.7881	4827
535.2723	4780
537.7558	4709
540.2407	4791
542.7228	4782
545.2043	4693
547.6851	4832
550.1652	4789
552.6467	4719
555.1255	4704
557.6016	4832
560.079	4874
562.5557	4890
565.0318	4854
567.5092	4872
569.984	4888
572.456	4903
574.9294	4875
577.4022	4925
579.8762	4981
582.3456	4993
584.8163	4845
587.2863	5017
589.7557	5015
592.2224	4948
594.6924	4986
597.1578	4922
599.6245	4939
602.0905	4986
604.5538	4980
607.0206	4940
609.4825	4905
611.9459	4999
614.4066	4947
616.8686	4851
619.33	4902
621.7906	4906
624.2487	4973
626.708	4974
629.1647	4861
631.6207	4901
634.0801	4951
636.5348	4867
638.9888	5063
641.4442	4864
643.8969	4943
646.3509	5019
648.8022	4988
651.255	5037
653.705	4900
656.1544	4983
658.6031	4994
661.0532	5087
663.5026	5067
665.9493	4999
668.3954	5193
670.8409	5151
673.2877	5111
675.7318	5134
678.1752	5129
680.618	5075
683.0601	5064
685.5035	5214
687.9444	5081
690.3845	5135
692.824	5231
695.2628	5195
697.701	5108
700.1406	5253
702.5774	5153
705.0116	5175
707.4472	5152
709.8821	5154
712.3183	5218
714.7519	5166
717.1829	5170
719.6151	5168
722.0468	5288
724.4777	5330
726.908	5355
729.3377	5203
731.7667	5334
734.1931	5302
736.6208	5390
739.0498	5399
741.4742	5369
743.9	5207
746.3231	5320
748.7476	5380
751.1713	5417
753.5945	5456
756.015	5393
758.4368	5456
760.856	5564
763.2766	5451
765.6965	5466
768.1157	5538
770.5323	5526
772.9483	5520
775.3656	5492
777.7822	5542
780.1963	5546
782.6116	5602
785.0244	5552
787.4365	5627
789.8499	5450
792.2626	5545
794.6728	5569
797.0823	5496
799.4911	5613
801.8994	5560
804.3109	5556
806.7178	5584
809.124	5431
811.5297	5582
813.9347	5594
816.341	5598
818.7447	5549
821.1478	5544
823.5502	5682
825.952	5565
828.3531	5504
830.7556	5606
833.1554	5580
835.5546	5680
837.9532	5664
840.3511	5550
842.7504	5635
845.1451	5682
847.5411	5722
849.9365	5620
852.3312	5759
854.7272	5777
857.1187	5648
859.5115	5614
861.9037	5573
864.2952	5739
866.6842	5607
869.0764	5627
871.4661	5585
873.8531	5650
876.2415	5731
878.6272	5598
881.0162	5627
883.4026	5647
885.7866	5735
888.1717	5630
890.5543	5668
892.9382	5626
895.3215	5736
897.7041	5602
900.0842	5572
902.4655	5682
904.8443	5644
907.2244	5667
909.6039	5673
911.9808	5679
914.357	5732
916.7346	5778
919.1115	5779
921.4859	5786
923.8616	5910
926.2347	5919
928.6071	5884
930.979	5776
933.3541	5876
935.7247	5861
938.0946	5918
940.4639	5961
942.8326	6005
945.2026	6081
947.5701	6038
949.9369	6216
952.305	6258
954.6705	6378
957.0355	6617
959.4017	6762
961.7654	6783
964.1284	6827
966.4908	6678
968.8527	6624
971.2138	6364
973.5743	6235
975.9343	6019
978.2936	5990
980.6522	5859
983.0122	5722
985.3696	5870
987.7245	5931
990.0807	5842
992.4362	5788
994.7911	5745
997.1474	5838
999.4991	5798
1001.852	5817
1004.205	5898
1006.555	5859
1008.908	5909
1011.258	5911
1013.606	5915
1015.956	5876
1018.302	5770
1020.652	5873
1022.998	5955
1025.345	5871
1027.691	5919
1030.035	5937
1032.378	5891
1034.724	5974
1037.066	6015
1039.409	5965
1041.75	5936
1044.092	5918
1046.433	5892
1048.771	6015
1051.112	5910
1053.449	5787
1055.786	5991
1058.124	6007
1060.462	6087
1062.797	6012
1065.131	6034
1067.467	5998
1069.8	6124
1072.135	5987
1074.467	6037
1076.798	6111
1079.129	6060
1081.459	5930
1083.792	6044
1086.121	6049
1088.449	5918
1090.777	6080
1093.104	5963
1095.431	6062
1097.759	5879
1100.084	6018
1102.408	6013
1104.732	5961
1107.056	5915
1109.379	6094
1111.701	5955
1114.022	6089
1116.343	6018
1118.664	6015
1120.983	6066
1123.303	6090
1125.621	5984
1127.939	6067
1130.256	5928
1132.573	5986
1134.889	5980
1137.205	6029
1139.52	6057
1141.832	6082
1144.146	6052
1146.461	6062
1148.771	6130
1151.083	5961
1153.392	6015
1155.703	6025
1158.011	6161
1160.323	6022
1162.629	6038
1164.938	6043
1167.243	6023
1169.55	6110
1171.857	6051
1174.163	6074
1176.466	6006
1178.769	6106
1181.073	6006
1183.374	6067
1185.677	6037
1187.979	6128
1190.279	5960
1192.578	5974
1194.878	6005
1197.178	6044
1199.476	6084
1201.772	6040
1204.068	5911
1206.366	6088
1208.663	6029
1210.957	6069
1213.251	6034
1215.544	6007
1217.836	6128
1220.128	6120
1222.421	6138
1224.712	6037
1227.002	6064
1229.292	6068
1231.581	6057
1233.871	6036
1236.159	6230
1238.446	6218
1240.732	6267
1243.018	6197
1245.304	6172
1247.59	6097
1249.874	6205
1252.156	6193
1254.439	6273
1256.721	6203
1259.005	6269
1261.286	6233
1263.565	6295
1265.845	6172
1268.125	6285
1270.403	6167
1272.682	6246
1274.959	6211
1277.234	6272
1279.511	6223
1281.787	6150
1284.062	6138
1286.337	6089
1288.609	6165
1290.882	6162
1293.153	6140
1295.428	6123
1297.698	6205
1299.969	6176
1302.237	6092
1304.507	6096
1306.777	6075
1309.044	6204
1311.312	6162
1313.578	6127
1315.844	6207
1318.109	6070
1320.375	6171
1322.638	6155
1324.903	6152
1327.165	6132
1329.427	6120
1331.69	6241
1333.952	6190
1336.212	6086
1338.471	6256
1340.73	6238
1342.988	6160
1345.248	6215
1347.505	6133
1349.763	6143
1352.019	6092
1354.274	6254
1356.53	6201
1358.784	6101
1361.038	6183
1363.291	6051
1365.543	6199
1367.797	6243
1370.048	6188
1372.296	6137
1374.546	6125
1376.796	6176
1379.045	6170
1381.295	6211
1383.542	6179
1385.787	6300
1388.034	6268
1390.28	6273
1392.527	6211
1394.772	6290
1397.014	6240
1399.258	6328
1401.501	6362
1403.741	6148
1405.985	6328
1408.226	6277
1410.465	6299
1412.705	6372
1414.943	6363
1417.184	6252
1419.42	6411
1421.658	6263
1423.894	6288
1426.13	6284
1428.366	6396
1430.602	6336
1432.835	6287
1435.069	6334
1437.301	6343
1439.535	6451
1441.767	6384
1443.997	6298
1446.229	6431
1448.458	6452
1450.687	6454
1452.916	6460
1455.146	6449
1457.372	6311
1459.599	6402
1461.824	6406
1464.051	6487
1466.277	6360
1468.501	6465
1470.725	6447
1472.948	6269
1475.17	6355
1477.393	6326
1479.614	6274
1481.837	6358
1484.057	6329
1486.276	6257
1488.497	6293
1490.715	6269
1492.932	6196
1495.148	6185
1497.364	6300
1499.58	6249
1501.798	6118
1504.012	6182
1506.227	6152
1508.44	6242
1510.653	6215
1512.866	6159
1515.078	6233
1517.289	6213
1519.5	6159
1521.711	6107
1523.92	6102
1526.13	6249
1528.338	6063
1530.544	6142
1532.752	6219
1534.959	6154
1537.165	6223
1539.371	6202
1541.574	6253
1543.779	6231
1545.983	6128
1548.187	6155
1550.39	6251
1552.59	6235
1554.792	6266
1556.991	6236
1559.19	6294
1561.392	6251
1563.59	6372
1565.789	6314
1567.986	6373
1570.182	6140
1572.381	6237
1574.576	6345
1576.771	6237
1578.966	6281
1581.16	6302
1583.354	6342
1585.546	6228
1587.74	6320
1589.931	6307
1592.121	6389
1594.311	6447
1596.502	6346
1598.693	6423
1600.881	6421
1603.069	6345
1605.256	6562
1607.445	6365
1609.631	6406
1611.816	6411
1614.001	6461
1616.186	6439
1618.37	6462
1620.555	6399
1622.737	6512
1624.919	6250
1627.101	6421
1629.282	6444
1631.463	6428
1633.643	6428
1635.822	6415
1638.001	6516
1640.179	6510
1642.359	6412
1644.534	6447
1646.711	6488
1648.887	6379
1651.062	6480
1653.235	6348
1655.412	6527
1657.586	6523
1659.757	6384
1661.93	6437
1664.1	6476
1666.274	6529
1668.445	6483
1670.614	6440
1672.784	6614
1674.951	6441
1677.12	6455
1679.289	6517
1681.457	6417
1683.622	6548
1685.789	6449
1687.953	6474
1690.121	6506
1692.284	6386
1694.447	6530
1696.611	6469
1698.772	6405
1700.935	6425
1703.098	6395
1705.258	6482
1707.417	6401
1709.576	6376
1711.736	6403
1713.896	6376
1716.053	6345
1718.21	6297
1720.366	6300
1722.522	6312
1724.68	6390
1726.835	6321
1728.989	6364
1731.142	6247
1733.295	6361
1735.449	6309
1737.601	6414
1739.753	6437
1741.903	6282
1744.054	6274
1746.203	6345
1748.354	6307
1750.503	6426
1752.651	6393
1754.798	6320
1756.944	6396
1759.092	6409
1761.238	6304
1763.383	6369
1765.528	6439
1767.672	6398
1769.814	6372
1771.959	6402
1774.102	6505
1776.242	6342
1778.384	6435
1780.525	6367
1782.665	6558
1784.805	6476
1786.945	6459
1789.082	6505
1791.22	6438
1793.36	6531
1795.495	6418
1797.632	6427
1799.766	6397
1801.902	6425
1804.035	6335
1806.172	6399
1808.304	6479
1810.436	6488
1812.569	6409
1814.699	6539
1816.833	6485
1818.963	6355
1821.092	6476
1823.222	6362
1825.35	6358
1827.478	6473
1829.608	6382
1831.734	6380
1833.86	6426
1835.986	6286
1838.11	6492
1840.238	6376
1842.362	6422
1844.485	6464
1846.608	6478
1848.73	6337
1850.853	6468
1852.974	6334
1855.097	6337
1857.217	6356
1859.336	6434
1861.455	6434
1863.576	6330
1865.693	6350
1867.811	6392
1869.926	6294
1872.042	6224
1874.16	6468
1876.275	6389
1878.39	6422
1880.504	6385
1882.618	6296
1884.731	6319
1886.843	6481
1888.956	6388
1891.067	6448
1893.178	6373
1895.287	6370
1897.399	6423
1899.508	6322
1901.617	6368
1903.724	6332
1905.832	6373
1907.941	6464
1910.046	6375
1912.152	6539
1914.256	6438
1916.361	6402
1918.464	6380
1920.57	6460
1922.672	6389
1924.775	6469
1926.876	6498
1928.978	6552
1931.08	6509
1933.181	6457
1935.28	6533
1937.38	6350
1939.478	6400
1941.577	6527
1943.675	6626
1945.771	6409
1947.867	6436
1949.964	6411
1952.058	6492
1954.154	6494
1956.248	6469
1958.343	6504
1960.435	6516
1962.527	6523
1964.62	6387
1966.711	6475
1968.802	6464
1970.892	6460
1972.983	6532
1975.072	6447
1977.162	6412
1979.25	6397
1981.337	6423
1983.424	6456
1985.51	6483
1987.598	6451
1989.683	6352
1991.768	6497
1993.852	6375
1995.934	6362
1998.019	6373
2000.102	6356
2002.184	6437
2004.266	6423
2006.347	6350
2008.427	6329
2010.508	6429
2012.587	6410
2014.666	6467
2016.745	6331
2018.821	6398
2020.9	6357
2022.977	6338
2025.052	6419
2027.128	6335
2029.204	6390
2031.277	6341
2033.353	6376
2035.425	6386
2037.499	6274
2039.57	6507
2041.642	6377
2043.714	6316
2045.786	6406
2047.855	6335
2049.925	6394
2051.993	6336
2054.064	6410
2056.132	6411
2058.2	6329
2060.266	6352
2062.332	6449
2064.398	6281
2066.465	6273
2068.529	6434
2070.592	6458
2072.657	6243
2074.719	6421
2076.783	6467
2078.845	6349
2080.907	6444
2082.968	6369
2085.028	6353
2087.087	6298
2089.148	6512
2091.207	6402
2093.264	6311
2095.322	6413
2097.379	6439
2099.439	6413
2101.495	6473
2103.55	6397
2105.605	6312
2107.658	6311
2109.713	6389
2111.767	6374
2113.82	6368
2115.872	6390
2117.924	6434
2119.975	6409
2122.028	6415
2124.078	6336
2126.126	6391
2128.176	6354
2130.225	6165
2132.275	6427
2134.321	6375
2136.368	6321
2138.415	6441
2140.461	6354
2142.505	6292
2144.552	6356
2146.597	6285
2148.64	6420
2150.684	6258
2152.725	6322
2154.77	6354
2156.811	6291
2158.852	6336
2160.894	6248
2162.933	6324
2164.973	6378
2167.013	6305
2169.051	6221
2171.089	6370
2173.126	6330
2175.164	6292
2177.201	6167
2179.236	6282
2181.273	6246
2183.307	6227
2185.341	6295
2187.377	6284
2189.41	6358
2191.442	6249
2193.473	6225
2195.506	6241
2197.539	6312
2199.569	6244
2201.598	6167
2203.628	6243
2205.656	6288
2207.686	6282
2209.716	6243
2211.743	6168
2213.769	6237
2215.796	6243
2217.821	6245
2219.848	6199
2221.873	6206
2223.897	6177
2225.921	6085
2227.944	6231
2229.967	6212
2231.991	6100
2234.011	6205
2236.032	6110
2238.053	6182
2240.073	6120
2242.094	6229
2244.114	6179
2246.131	6203
2248.149	6174
2250.167	6171
2252.186	6203
2254.201	6257
2256.218	6222
2258.233	6293
2260.247	6163
2262.262	6214
2264.278	6210
2266.29	6177
2268.303	6121
2270.315	6186
2272.327	6216
2274.341	6205
2276.35	6184
2278.361	6088
2280.37	6159
2282.38	6182
2284.388	6088
2286.397	6211
2288.405	6128
2290.412	6155
2292.419	6157
2294.425	6258
2296.431	6164
2298.437	6143
2300.441	6159
2302.445	6263
2304.449	6212
2306.453	6188
2308.455	6138
2310.457	6116
2312.459	6172
2314.46	6110
2316.46	6111
2318.461	6047
2320.46	6020
2322.458	6120
2324.458	6090
2326.456	6072
2328.455	6226
2330.451	6099
2332.447	6020
2334.443	6087
2336.438	6168
2338.433	6238
2340.429	6123
2342.422	6121
2344.416	6044
2346.408	6138
2348.399	6078
2350.393	5992
2352.384	6063
2354.375	6097
2356.365	6081
2358.355	6016
2360.344	6140
2362.333	6062
2364.322	5992
2366.309	6067
2368.295	6110
2370.282	6069
2372.27	6095
2374.256	6003
2376.24	6097
2378.225	6097
2380.208	6115
2382.194	6011
2384.177	6167
2386.159	6047
2388.142	6069
2390.122	6038
2392.105	5976
2394.085	5995
2396.066	6016
2398.044	6015
2400.024	6023
2402.002	5949
2403.982	5977
2405.959	5992
2407.935	6022
2409.913	5902
2411.888	5935
2413.865	5933
2415.84	5925
2417.814	5909
2419.788	6046
2421.762	5933
2423.735	5879
2425.708	5989
2427.68	5868
2429.651	5959
2431.623	5915
2433.593	5945
2435.564	5934
2437.533	6000
2439.502	5855
2441.47	6048
2443.438	5920
2445.406	6012
2447.373	5879
2449.34	5848
2451.305	6025
2453.271	5818
2455.235	5868
2457.201	5927
2459.165	5850
2461.129	5879
2463.092	5944
2465.054	5938
2467.018	5870
2468.978	5947
2470.939	5715
2472.899	5802
2474.86	5824
2476.819	5884
2478.778	5862
2480.737	5799
2482.695	5854
2484.653	5945
2486.609	5730
2488.567	5919
2490.524	5747
2492.478	5889
2494.433	5898
2496.387	5942
2498.343	5823
2500.297	5854
2502.249	5760
2504.202	5818
2506.153	5845
2508.105	5907
2510.057	5754
2512.008	5829
2513.957	5824
2515.906	5777
2517.855	5856
2519.805	5921
2521.754	5920
2523.7	5802
2525.647	5921
2527.594	5814
2529.54	5881
2531.486	5839
2533.431	5893
2535.376	5775
2537.32	5713
2539.263	5690
2541.207	5782
2543.151	5824
2545.093	5727
2547.034	5779
2548.975	5800
2550.917	5780
2552.856	5781
2554.796	5876
2556.735	5756
2558.673	5840
2560.611	5731
2562.55	5687
2564.487	5767
2566.424	5792
2568.36	5860
2570.296	5776
2572.232	5674
2574.167	5801
2576.101	5703
2578.035	5795
2579.969	5722
2581.902	5778
2583.834	5763
2585.766	5851
2587.698	5746
2589.628	5794
2591.557	5731
2593.489	5702
2595.419	5832
2597.348	5701
2599.275	5810
2601.204	5784
2603.131	5701
2605.059	5735
2606.986	5782
2608.911	5805
2610.837	5700
2612.76	5828
2614.687	5728
2616.61	5782
2618.534	5785
2620.457	5835
2622.38	5729
2624.302	5765
2626.225	5674
2628.145	5782
2630.067	5794
2631.986	5871
2633.906	5895
2635.827	5742
2637.745	5723
2639.662	5815
2641.581	5712
2643.498	5899
2645.415	5888
2647.331	5772
2649.248	5726
2651.163	5680
2653.077	5803
2654.993	5843
2656.906	5792
2658.821	5874
2660.733	5830
2662.646	5707
2664.557	5765
2666.47	5716
2668.381	5827
2670.291	5739
2672.201	5742
2674.11	5720
2676.021	5817
2677.929	5776
2679.837	5767
2681.745	5654
2683.652	5707
2685.56	5726
2687.466	5756
2689.371	5761
2691.276	5666
2693.181	5716
2695.085	5831
2696.991	5729
2698.893	5667
2700.796	5779
2702.698	5518
2704.601	5611
2706.502	5641
2708.404	5766
2710.304	5643
2712.203	5639
2714.103	5586
2716.003	5728
2717.902	5570
2719.8	5595
2721.697	5625
2723.594	5595
2725.49	5761
2727.389	5577
2729.283	5557
2731.179	5544
2733.073	5725
2734.968	5606
2736.863	5624
2738.757	5632
2740.649	5554
2742.541	5625
2744.433	5628
2746.324	5594
2748.216	5636
2750.107	5685
2751.997	5750
2753.886	5593
2755.776	5630
2757.666	5666
2759.553	5792
2761.44	5577
2763.327	5569
2765.215	5587
2767.102	5613
2768.988	5647
2770.873	5616
2772.757	5611
2774.641	5593
2776.525	5531
2778.41	5566
2780.292	5563
2782.175	5579
2784.057	5541
2785.938	5566
2787.821	5578
2789.701	5629
2791.581	5431
2793.461	5646
2795.34	5559
2797.219	5546
2799.099	5648
2800.975	5603
2802.853	5428
2804.73	5491
2806.606	5661
2808.484	5502
2810.358	5540
2812.233	5482
2814.108	5516
2815.981	5501
2817.857	5395
2819.73	5551
2821.602	5528
2823.474	5528
2825.346	5471
2827.217	5505
2829.089	5493
2830.959	5543
2832.829	5502
2834.698	5541
2836.567	5480
2838.436	5527
2840.305	5429
2842.172	5468
2844.04	5476
2845.905	5539
2847.772	5357
2849.639	5493
2851.503	5358
2853.369	5550
2855.232	5457
2857.096	5402
2858.961	5554
2860.824	5501
2862.686	5574
2864.547	5469
2866.41	5556
2868.272	5582
2870.132	5601
2871.992	5599
2873.851	5670
2875.711	5641
2877.57	5661
2879.429	5695
2881.287	5761
2883.144	5691
2885.001	5726
2886.857	5817
2888.714	5746
2890.57	5742
2892.425	5766
2894.279	5764
2896.133	5646
2897.987	5769
2899.842	5853
2901.694	5771
2903.547	5786
2905.397	5823
2907.249	5724
2909.101	5716
2910.952	5739
2912.802	5828
2914.652	5814
2916.5	5817
2918.35	5786
2920.198	5897
2922.045	5856
2923.893	5891
2925.74	5967
2927.585	6024
2929.433	5974
2931.279	6032
2933.123	6026
2934.968	6046
2936.811	6113
2938.656	6022
2940.5	6109
2942.342	6298
2944.185	6293
2946.026	6124
2947.87	6104
2949.71	6129
2951.549	6135
2953.39	6148
2955.229	6172
2957.069	6088
2958.908	6007
2960.746	6146
2962.584	6022
2964.421	5991
2966.257	5891
2968.094	5784
2969.931	5794
2971.766	5967
2973.601	5791
2975.435	5716
2977.27	5900
2979.105	5750
2980.938	5716
2982.77	5647
2984.602	5773
2986.434	5756
2988.267	5727
2990.097	5649
2991.927	5670
2993.757	5608
2995.587	5522
2997.417	5705
2999.246	5630
3001.074	5540
3002.902	5425
3004.729	5514
3006.556	5493
3008.384	5434
3010.21	5367
3012.036	5330
3013.861	5364
3015.684	5272
3017.51	5318
3019.334	5336
3021.157	5291
3022.981	5308
3024.802	5170
3026.624	5213
3028.448	5145
3030.267	5165
3032.088	5241
3033.909	5246
3035.728	5177
3037.549	5074
3039.368	5150
3041.186	5114
3043.004	5149
3044.821	5169
3046.64	5067
3048.455	5144
3050.272	5230
3052.087	5189
3053.903	5167
3055.717	5174
3057.534	5154
3059.347	5116
3061.16	4980
3062.974	5098
3064.785	5121
3066.598	5056
3068.411	5103
3070.222	5207
3072.032	5023
3073.844	5066
3075.653	5093
3077.463	5038
3079.272	4977
3081.08	5081
3082.889	5092
3084.697	5058
3086.505	4923
3088.312	4951
3090.118	5080
3091.924	5060
3093.729	5061
3095.535	4961
3097.34	4972
3099.144	5057
3100.947	4941
3102.75	4999
3104.553	5042
3106.357	4997
3108.159	5015
3109.961	4960
3111.762	4971
3113.562	5001
3115.365	4901
3117.164	4968
3118.964	4871
3120.761	4921
3122.56	4917
3124.36	4941
3126.158	4885
3127.954	4898
3129.75	4863
3131.547	4935
3133.343	4941
3135.139	4864
3136.934	4821
3138.729	4885
3140.522	4911
3142.317	4832
3144.11	4894
3145.904	4883
3147.695	4867
3149.488	4787
3151.28	4837
3153.07	4848
3154.863	4777
3156.652	4776
3158.441	4872
3160.231	4840
3162.019	4891
3163.81	4828
3165.597	4786
3167.384	4918
3169.172	4805
3170.958	4803
3172.745	4810
3174.532	4874
3176.317	4832
3178.101	4773
3179.885	4840
3181.67	4663
3183.455	4857
3185.238	4826
3187.02	4828
3188.802	4707
3190.585	4701
3192.368	4817
3194.149	4746
3195.929	4790
3197.709	4672
3199.489	4796
3201.268	4744
3203.048	4729
3204.826	4733
3206.604	4764
3208.382	4788
3210.159	4768
3211.937	4630
3213.713	4760
3215.489	4694
3217.263	4707
3219.038	4745
3220.815	4732
3222.589	4770
3224.363	4695
3226.136	4789
3227.908	4771
3229.681	4774
3231.454	4692
3233.226	4621
3234.996	4705
3236.767	4735
3238.538	4681
3240.308	4570
3242.078	4791
3243.847	4662
3245.615	4670
3247.384	4718
3249.15	4655
3250.92	4699
3252.686	4728
3254.453	4687
3256.218	4707
3257.984	4639
3259.75	4721
3261.515	4728
3263.279	4670
3265.044	4775
3266.806	4691
3268.57	4754
3270.334	4628
3272.095	4593
3273.856	4621
3275.619	4696
3277.379	4771
3279.14	4697
3280.9	4694
3282.661	4646
3284.419	4551
3286.178	4771
3287.937	4663
3289.695	4641
3291.453	4755
3293.21	4730
3294.967	4701
3296.723	4678
3298.48	4722
3300.235	4617
3301.99	4571
3303.744	4657
3305.498	4719
3307.253	4562
3309.006	4681
3310.759	4701
3312.511	4660
3314.263	4711
3316.017	4645
3317.768	4662
3319.519	4693
3321.268	4661
3323.018	4644
3324.767	4722
3326.518	4716
3328.267	4571
3330.014	4661
3331.762	4689
3333.509	4649
3335.258	4576
3337.003	4608
3338.75	4578
3340.496	4652
3342.24	4633
3343.987	4586
3345.732	4597
3347.475	4603
3349.219	4558
3350.961	4612
3352.705	4513
3354.448	4572
3356.19	4523
3357.931	4585
3359.672	4611
3361.412	4547
3363.155	4599
3364.894	4639
3366.633	4601
3368.372	4586
3370.11	4600
3371.849	4515
3373.588	4550
3375.325	4510
3377.061	4573
3378.799	4523
3380.534	4522
3382.271	4502
3384.006	4557
3385.741	4446
3387.475	4525
3389.209	4493
3390.944	4447
3392.677	4416
3394.409	4538
3396.143	4503
3397.874	4475
3399.606	4560
3401.338	4489
3403.069	4434
3404.799	4486
3406.528	4515
3408.258	4400
3409.988	4486
3411.717	4499
3413.445	4459
3415.173	4462
3416.899	4360
3418.626	4582
3420.354	4429
3422.08	4513
3423.806	4561
3425.531	4379
3427.255	4535
3428.981	4434
3430.705	4432
3432.429	4442
3434.151	4412
3435.875	4400
3437.599	4491
3439.321	4469
3441.042	4457
3442.763	4434
3444.483	4429
3446.204	4350
3447.926	4390
3449.645	4368
3451.364	4407
3453.082	4335
3454.801	4349
3456.52	4339
3458.238	4377
3459.954	4395
3461.671	4438
3463.387	4386
3465.104	4279
3466.82	4321
3468.534	4327
3470.25	4384
3471.963	4265
3473.676	4251
3475.392	4273
3477.104	4240
3478.817	4309
3480.528	4169
3482.241	4284
3483.954	4165
3485.664	4319
3487.374	4231
3489.084	4316
3490.795	4202
3492.504	4336
3494.214	4263
3495.922	4235
3497.63	4227
3499.338	4169
3501.045	4198
3502.753	4183
3504.459	4281
3506.166	4219
3507.871	4255
3509.576	4209
3511.283	4194
3512.987	4174
3514.691	4147
3516.395	4197
3518.098	4142
3519.8	4157
3521.504	4136
3523.206	4271
3524.908	4220
3526.609	4100
3528.309	4164
3530.011	4145
3531.711	4232
3533.411	4183
3535.109	4118
3536.808	4125
3538.507	4113
3540.206	4154
3541.904	4070
3543.601	4112
3545.297	4074
3546.994	4106
3548.69	4130
3550.387	4067
3552.081	4096
3553.776	4064
3555.47	4034
3557.166	4023
3558.859	4129
3560.553	4050
3562.245	4080
3563.938	4140
3565.629	4120
3567.322	4010
3569.014	4041
3570.704	4048
3572.394	4041
3574.084	3982
3575.775	4092
3577.464	4147
3579.152	4105
3580.842	4055
3582.529	4028
3584.216	3922
3585.905	4110
3587.591	4034
3589.279	3938
3590.964	4015
3592.649	4029
3594.336	4015
3596.021	4092
3597.705	3950
3599.388	4055
3601.072	3990
3602.757	3958
3604.439	4018
3606.122	4006
3607.803	3998
3609.485	3977
3611.167	3919
3612.849	3968
3614.529	3958
3616.208	3807
3617.888	3936
3619.567	3875
3621.247	3945
3622.926	3971
3624.603	3919
3626.281	3852
3627.958	3896
3629.635	3933
3631.312	3875
3632.989	3804
3634.665	3915
3636.339	3818
3638.014	3838
3639.691	3876
3641.364	3879
3643.038	3856
3644.71	3854
3646.384	3866
3648.058	3855
3649.729	3847
3651.402	3856
3653.073	3791
3654.744	3801
3656.414	3818
3658.085	3826
3659.755	3793
3661.424	3850
3663.094	3763
3664.762	3838
3666.431	3805
3668.099	3751
3669.766	3786
3671.433	3736
3673.099	3745
3674.768	3841
3676.433	3762
3678.098	3741
3679.763	3742
3681.428	3700
3683.093	3828
3684.757	3704
3686.421	3738
3688.083	3722
3689.746	3736
3691.408	3729
3693.071	3766
3694.733	3619
3696.394	3814
3698.054	3724
3699.715	3756
3701.375	3709
3703.036	3682
3704.695	3679
3706.354	3738
3708.012	3714
3709.67	3720
3711.329	3742
3712.987	3686
3714.644	3742
3716.299	3654
3717.955	3675
3719.613	3692
3721.268	3636
3722.923	3654
3724.577	3679
3726.231	3677
3727.885	3660
3729.539	3748
3731.192	3689
3732.845	3667
3734.497	3640
3736.149	3598
3737.802	3650
3739.453	3614
3741.104	3654
3742.753	3588
3744.404	3644
3746.052	3593
3747.704	3579
3749.352	3614
3751	3680
3752.648	3691
3754.296	3537
3755.944	3631
3757.59	3630
3759.238	3564
3760.883	3631
3762.528	3640
3764.176	3620
3765.82	3618
3767.464	3645
3769.109	3586
3770.753	3603
3772.396	3554
3774.04	3534
3775.683	3538
3777.325	3585
3778.967	3580
3780.608	3628
3782.25	3564
3783.89	3568
3785.531	3529
3787.17	3577
3788.81	3608
3790.45	3558
3792.09	3520
3793.729	3572
3795.366	3524
3797.003	3538
3798.64	3553
3800.278	3474
3801.915	3496
3803.551	3528
3805.187	3576
3806.822	3515
3808.458	3576
3810.093	3512
3811.726	3505
3813.36	3503
3814.994	3459
3816.627	3463
3818.262	3503
3819.893	3522
3821.525	3504
3823.157	3483
3824.787	3546
3826.42	3571
3828.051	3498
3829.68	3544
3831.31	3462
3832.938	3497
3834.569	3509
3836.198	3547
3837.825	3489
3839.454	3477
3841.08	3481
3842.708	3403
3844.335	3551
3845.962	3496
3847.587	3459
3849.212	3404
3850.838	3407
3852.463	3439
3854.089	3436
3855.712	3389
3857.335	3364
3858.959	3408
3860.582	3348
3862.205	3407
3863.827	3392
3865.449	3410
3867.07	3366
3868.691	3390
3870.312	3351
3871.933	3359
3873.553	3368
3875.173	3441
3876.792	3453
3878.411	3351
3880.03	3377
3881.647	3376
3883.265	3333
3884.882	3431
3886.499	3394
3888.116	3380
3889.732	3313
3891.348	3351
3892.964	3320
3894.579	3372
3896.195	3359
3897.809	3358
3899.423	3279
3901.036	3367
3902.648	3311
3904.261	3322
3905.875	3350
3907.487	3358
3909.099	3305
3910.709	3279
3912.321	3317
3913.933	3339
3915.542	3283
3917.152	3320
3918.762	3285
3920.37	3282
3921.98	3379
3923.589	3232
3925.196	3334
3926.804	3356
3928.41	3326
3930.018	3137
3931.626	3238
3933.231	3346
3934.838	3337
3936.442	3401
3938.046	3289
3939.653	3265
3941.257	3285
3942.861	3341
3944.464	3306
3946.068	3254
3947.67	3290
3949.273	3236
3950.876	3239
3952.477	3340
3954.078	3252
3955.678	3384
3957.281	3253
3958.881	3291
3960.48	3266
3962.079	3264
3963.678	3222
3965.279	3292
3966.877	3333
3968.475	3254
3970.072	3289
3971.669	3244
3973.266	3196
3974.864	3225
3976.459	3261
3978.055	3284
3979.65	3203
3981.245	3220
3982.841	3236
3984.436	3212
3986.03	3240
3987.623	3188
3989.216	3176
3990.809	3250
3992.403	3093
3993.995	3218
3995.586	3157
3997.177	3112
3998.768	3166
4000.361	3090
4001.951	3112
4003.54	3193
4005.13	3107
4006.719	3141
4008.31	3160
4009.897	3140
4011.485	3103
4013.073	3196
4014.66	3082
4016.247	3131
4017.834	3125
4019.421	3081
4021.006	3090
4022.592	3099
4024.178	3121
4025.763	3129
4027.348	3113
4028.932	3103
4030.515	3063
4032.099	3017
4033.682	3051
4035.266	3064
4036.847	3093
4038.429	3122
4040.011	3143
4041.592	3014
4043.173	3036
4044.755	3056
4046.334	3072
4047.913	3051
4049.494	3041
4051.074	2995
4052.652	3055
4054.23	3076
4055.807	3110
4057.385	2990
4058.963	2952
4060.541	3124
4062.117	2969
4063.693	3000
4065.269	2987
4066.844	2958
4068.42	2945
4069.995	3003
4071.569	3043
4073.143	2966
4074.716	2944
4076.291	2955
4077.864	3012
4079.436	2986
4081.009	2980
4082.58	2904
4084.152	3025
4085.723	2935
4087.294	3097
4088.865	2991
4090.435	2955
4092.005	3050
4093.574	2960
4095.143	2925
4096.712	2960
4098.279	2951
4099.848	2914
4101.416	2993
4102.984	2847
4104.55	2950
4106.117	2955
4107.682	2889
4109.248	2929
4110.815	2982
4112.379	2830
4113.945	3014
4115.508	2935
4117.073	2865
4118.637	2926
4120.201	2989
4121.763	2883
4123.325	2916
4124.888	2997
4126.449	2866
4128.013	2933
4129.573	2884
4131.133	2954
4132.694	2899
4134.254	2906
4135.814	2920
4137.374	2793
4138.933	2897
4140.491	2823
4142.049	2854
4143.607	2905
4145.167	2770
4146.724	2886
4148.28	2808
4149.836	2874
4151.392	2863
4152.949	2911
4154.504	2863
4156.059	2804
4157.614	2831
4159.168	2928
4160.723	2821
4162.277	2825
4163.83	2865
4165.383	2815
4166.936	2825
4168.488	2800
4170.041	2814
4171.593	2827
4173.144	2802
4174.695	2826
4176.246	2801
4177.796	2799
4179.346	2823
4180.896	2768
4182.445	2780
4183.994	2827
4185.542	2812
4187.091	2851
4188.639	2832
4190.185	2804
4191.732	2797
4193.279	2848
4194.826	2797
4196.373	2761
4197.918	2756
4199.463	2741
4201.008	2664
4202.553	2744
4204.098	2749
4205.641	2736
4207.185	2767
4208.728	2687
4210.271	2728
4211.814	2811
4213.357	2726
4214.898	2713
4216.439	2668
4217.98	2743
4219.522	2712
4221.062	2779
4222.603	2659
4224.142	2727
4225.681	2754
4227.222	2702
4228.76	2633
4230.298	2674
4231.835	2709
4233.373	2727
4234.911	2670
4236.449	2743
4237.985	2708
4239.521	2727
4241.057	2625
4242.592	2724
4244.128	2660
4245.663	2717
4247.197	2746
4248.731	2702
4250.265	2682
4251.798	2694
4253.333	2659
4254.865	2678
4256.397	2660
4257.93	2624
4259.461	2623
4260.994	2667
4262.525	2690
4264.056	2636
4265.586	2693
4267.115	2683
4268.646	2612
4270.176	2598
4271.705	2597
4273.232	2675
4274.761	2694
4276.289	2613
4277.818	2662
4279.345	2609
4280.872	2634
4282.399	2601
4283.924	2611
4285.452	2654
4286.976	2573
4288.502	2613
4290.026	2543
4291.551	2606
4293.074	2573
4294.6	2658
4296.123	2606
4297.646	2545
4299.168	2593
4300.691	2588
4302.214	2523
4303.736	2547
4305.257	2554
4306.778	2573
4308.299	2519
4309.82	2558
4311.34	2535
4312.86	2557
4314.379	2616
