400.0745	3687
402.597	3751
405.1208	3639
407.6419	3698
410.1623	3728
412.6819	3743
415.201	3720
417.7172	3776
420.2369	3789
422.7538	3905
425.2701	3809
427.7856	3784
430.3005	3791
432.8147	3926
435.3282	3796
437.841	3939
440.3511	3916
442.8625	3844
445.3753	3958
447.8854	3913
450.3927	3907
452.9014	3976
455.4073	3962
457.9146	3945
460.4233	3994
462.9272	4024
465.4325	4006
467.935	3881
470.4389	3887
472.9421	4016
475.4446	4059
477.9444	4044
480.4456	4048
482.944	3997
485.4417	3996
487.9429	4038
490.4393	4085
492.935	4147
495.4321	4086
497.9264	4146
500.4221	4228
502.9171	4078
505.4094	4128
507.9011	4187
510.392	4068
512.8864	4146
515.3759	4115
517.8649	4111
520.3531	4200
522.8406	4113
525.3275	4196
527.8178	4100
530.3033	4149
532.7881	4147
535.2723	4176
537.7558	4158
540.2407	4248
542.7228	4136
545.2043	4231
547.6851	4137
550.1652	4225
552.6467	4166
555.1255	4163
557.6016	4237
560.079	4174
562.5557	4156
565.0318	4267
567.5092	4158
569.984	4228
572.456	4196
574.9294	4252
577.4022	4185
579.8762	4315
582.3456	4361
584.8163	4301
587.2863	4263
589.7557	4214
592.2224	4232
594.6924	4343
597.1578	4418
599.6245	4323
602.0905	4276
604.5538	4322
607.0206	4275
609.4825	4295
611.9459	4290
614.4066	4268
616.8686	4320
619.33	4274
621.7906	4322
624.2487	4254
626.708	4318
629.1647	4322
631.6207	4296
634.0801	4256
636.5348	4240
638.9888	4273
641.4442	4328
643.8969	4304
646.3509	4330
648.8022	4430
651.255	4391
653.705	4423
656.1544	4394
658.6031	4335
661.0532	4385
663.5026	4332
665.9493	4374
668.3954	4411
670.8409	4363
673.2877	4460
675.7318	4468
678.1752	4524
680.618	4430
683.0601	4413
685.5035	4521
687.9444	4407
690.3845	4542
692.824	4508
695.2628	4591
697.701	4419
700.1406	4527
702.5774	4431
705.0116	4487
707.4472	4460
709.8821	4501
712.3183	4631
714.7519	4538
717.1829	4562
719.6151	4633
722.0468	4569
724.4777	4546
726.908	4551
729.3377	4699
731.7667	4620
734.1931	4670
736.6208	4637
739.0498	4723
741.4742	4700
743.9	4730
746.3231	4737
748.7476	4631
751.1713	4727
753.5945	4787
756.015	4699
758.4368	4734
760.856	4744
763.2766	4743
765.6965	4756
768.1157	4779
770.5323	4822
772.9483	4815
775.3656	4753
777.7822	4803
780.1963	4685
782.6116	4766
785.0244	4769
787.4365	4703
789.8499	4810
792.2626	4755
794.6728	4762
797.0823	4740
799.4911	4877
801.8994	4714
804.3109	4802
806.7178	4842
809.124	4919
811.5297	4877
813.9347	4764
816.341	4858
818.7447	4766
821.1478	4845
823.5502	4874
825.952	4879
828.3531	4864
830.7556	4955
833.1554	4994
835.5546	4821
837.9532	5013
840.3511	4848
842.7504	4898
845.1451	4909
847.5411	5037
849.9365	4902
852.3312	5031
854.7272	4970
857.1187	4954
859.5115	5047
861.9037	4853
864.2952	5032
866.6842	4950
869.0764	4882
871.4661	4963
873.8531	4903
876.2415	4878
878.6272	4949
881.0162	4826
883.4026	4848
885.7866	4918
888.1717	4931
890.5543	4921
892.9382	4902
895.3215	4878
897.7041	4879
900.0842	4946
902.4655	4939
904.8443	4997
907.2244	4952
909.6039	5018
911.9808	5030
914.357	5129
916.7346	5064
919.1115	5139
921.4859	5187
923.8616	5114
926.2347	5175
928.6071	5117
930.979	5212
933.3541	5116
935.7247	5260
938.0946	5108
940.4639	5067
942.8326	5185
945.2026	5164
947.5701	5248
949.9369	5278
952.305	5291
954.6705	5319
957.0355	5366
959.4017	5425
961.7654	5487
964.1284	5406
966.4908	5446
968.8527	5328
971.2138	5277
973.5743	5275
975.9343	5102
978.2936	5171
980.6522	5049
983.0122	5078
985.3696	5110
987.7245	5045
990.0807	5004
992.4362	5024
994.7911	5054
997.1474	5096
999.4991	5128
1001.852	5119
1004.205	5106
1006.555	5094
1008.908	5121
1011.258	5196
1013.606	5012
1015.956	5025
1018.302	5242
1020.652	5056
1022.998	5026
1025.345	5122
1027.691	4993
1030.035	5225
1032.378	5078
1034.724	5048
1037.066	5190
1039.409	5132
1041.75	5191
1044.092	5152
1046.433	5076
1048.771	5164
1051.112	5152
1053.449	5112
1055.786	5066
1058.124	5094
1060.462	5196
1062.797	5125
1065.131	5120
1067.467	5196
1069.8	5208
1072.135	5218
1074.467	5137
1076.798	5191
1079.129	5232
1081.459	5195
1083.792	5157
1086.121	5215
1088.449	5199
1090.777	5257
1093.104	5221
1095.431	5090
1097.759	5294
1100.084	5021
1102.408	5280
1104.732	5230
1107.056	5219
1109.379	5262
1111.701	5239
1114.022	5242
1116.343	5202
1118.664	5231
1120.983	5233
1123.303	5245
1125.621	5224
1127.939	5268
1130.256	5206
1132.573	5202
1134.889	5256
1137.205	5188
1139.52	5254
1141.832	5178
1144.146	5215
1146.461	5261
1148.771	5175
1151.083	5224
1153.392	5217
1155.703	5233
1158.011	5297
1160.323	5347
1162.629	5233
1164.938	5152
1167.243	5329
1169.55	5225
1171.857	5150
1174.163	5239
1176.466	5285
1178.769	5241
1181.073	5274
1183.374	5369
1185.677	5292
1187.979	5273
1190.279	5272
1192.578	5287
1194.878	5270
1197.178	5289
1199.476	5247
1201.772	5258
1204.068	5338
1206.366	5324
1208.663	5280
1210.957	5210
1213.251	5303
1215.544	5189
1217.836	5308
1220.128	5331
1222.421	5381
1224.712	5318
1227.002	5351
1229.292	5268
1231.581	5461
1233.871	5480
1236.159	5351
1238.446	5492
1240.732	5436
1243.018	5353
1245.304	5374
1247.59	5453
1249.874	5507
1252.156	5511
1254.439	5428
1256.721	5438
1259.005	5366
1261.286	5510
1263.565	5474
1265.845	5426
1268.125	5421
1270.403	5501
1272.682	5582
1274.959	5462
1277.234	5446
1279.511	5412
1281.787	5384
1284.062	5492
1286.337	5456
1288.609	5422
1290.882	5341
1293.153	5405
1295.428	5394
1297.698	5357
1299.969	5392
1302.237	5372
1304.507	5377
1306.777	5340
1309.044	5352
1311.312	5450
1313.578	5326
1315.844	5354
1318.109	5367
1320.375	5399
1322.638	5450
1324.903	5397
1327.165	5354
1329.427	5362
1331.69	5474
1333.952	5442
1336.212	5271
1338.471	5458
1340.73	5423
1342.988	5452
1345.248	5398
1347.505	5315
1349.763	5416
1352.019	5400
1354.274	5407
1356.53	5415
1358.784	5348
1361.038	5458
1363.291	5423
1365.543	5373
1367.797	5269
1370.048	5495
1372.296	5435
1374.546	5410
1376.796	5333
1379.045	5483
1381.295	5414
1383.542	5387
1385.787	5484
1388.034	5442
1390.28	5375
1392.527	5491
1394.772	5533
1397.014	5552
1399.258	5497
1401.501	5511
1403.741	5481
1405.985	5540
1408.226	5542
1410.465	5501
1412.705	5613
1414.943	5526
1417.184	5569
1419.42	5528
1421.658	5618
1423.894	5530
1426.13	5548
1428.366	5598
1430.602	5622
1432.835	5616
1435.069	5597
1437.301	5676
1439.535	5558
1441.767	5570
1443.997	5662
1446.229	5634
1448.458	5652
1450.687	5722
1452.916	5647
1455.146	5608
1457.372	5616
1459.599	5622
1461.824	5755
1464.051	5639
1466.277	5634
1468.501	5619
1470.725	5548
1472.948	5562
1475.17	5494
1477.393	5557
1479.614	5478
1481.837	5501
1484.057	5521
1486.276	5481
1488.497	5372
1490.715	5404
1492.932	5371
1495.148	5493
1497.364	5454
1499.58	5405
1501.798	5323
1504.012	5347
1506.227	5387
1508.44	5357
1510.653	5382
1512.866	5346
1515.078	5393
1517.289	5435
1519.5	5327
1521.711	5349
1523.92	5452
1526.13	5415
1528.338	5372
1530.544	5378
1532.752	5354
1534.959	5430
1537.165	5475
1539.371	5406
1541.574	5457
1543.779	5357
1545.983	5379
1548.187	5416
1550.39	5412
1552.59	5470
1554.792	5533
1556.991	5463
1559.19	5551
1561.392	5622
1563.59	5483
1565.789	5509
1567.986	5600
1570.182	5570
1572.381	5421
1574.576	5559
1576.771	5552
1578.966	5556
1581.16	5585
1583.354	5607
1585.546	5525
1587.74	5685
1589.931	5483
1592.121	5615
1594.311	5645
1596.502	5510
1598.693	5557
1600.881	5530
1603.069	5679
1605.256	5546
1607.445	5624
1609.631	5600
1611.816	5534
1614.001	5631
1616.186	5564
1618.37	5567
1620.555	5550
1622.737	5659
1624.919	5640
1627.101	5565
1629.282	5612
1631.463	5612
1633.643	5655
1635.822	5619
1638.001	5616
1640.179	5632
1642.359	5599
1644.534	5653
1646.711	5560
1648.887	5579
1651.062	5708
1653.235	5692
1655.412	5547
1657.586	5630
1659.757	5623
1661.93	5598
1664.1	5726
1666.274	5752
1668.445	5602
1670.614	5635
1672.784	5731
1674.951	5631
1677.12	5743
1679.289	5680
1681.457	5675
1683.622	5644
1685.789	5662
1687.953	5558
1690.121	5664
1692.284	5619
1694.447	5555
1696.611	5630
1698.772	5632
1700.935	5590
1703.098	5625
1705.258	5530
1707.417	5545
1709.576	5669
1711.736	5553
1713.896	5634
1716.053	5568
1718.21	5493
1720.366	5519
1722.522	5621
1724.68	5644
1726.835	5574
1728.989	5588
1731.142	5579
1733.295	5504
1735.449	5535
1737.601	5543
1739.753	5613
1741.903	5610
1744.054	5649
1746.203	5474
1748.354	5496
1750.503	5633
1752.651	5651
1754.798	5611
1756.944	5476
1759.092	5605
1761.238	5610
1763.383	5553
1765.528	5646
1767.672	5518
1769.814	5553
1771.959	5581
1774.102	5614
1776.242	5662
1778.384	5589
1780.525	5607
1782.665	5610
1784.805	5548
1786.945	5598
1789.082	5649
1791.22	5580
1793.36	5674
1795.495	5566
1797.632	5540
1799.766	5611
1801.902	5629
1804.035	5575
1806.172	5619
1808.304	5631
1810.436	5609
1812.569	5639
1814.699	5620
1816.833	5622
1818.963	5609
1821.092	5586
1823.222	5681
1825.35	5630
1827.478	5570
1829.608	5573
1831.734	5721
1833.86	5634
1835.986	5555
1838.11	5670
1840.238	5620
1842.362	5692
1844.485	5550
1846.608	5559
1848.73	5655
1850.853	5615
1852.974	5629
1855.097	5603
1857.217	5602
1859.336	5635
1861.455	5489
1863.576	5647
1865.693	5487
1867.811	5592
1869.926	5647
1872.042	5524
1874.16	5712
1876.275	5588
1878.39	5583
1880.504	5586
1882.618	5632
1884.731	5507
1886.843	5637
1888.956	5636
1891.067	5673
1893.178	5557
1895.287	5730
1897.399	5530
1899.508	5645
1901.617	5617
1903.724	5694
1905.832	5717
1907.941	5469
1910.046	5542
1912.152	5650
1914.256	5698
1916.361	5625
1918.464	5641
1920.57	5727
1922.672	5656
1924.775	5565
1926.876	5612
1928.978	5754
1931.08	5696
1933.181	5699
1935.28	5612
1937.38	5536
1939.478	5699
1941.577	5694
1943.675	5684
1945.771	5676
1947.867	5673
1949.964	5832
1952.058	5753
1954.154	5703
1956.248	5728
1958.343	5705
1960.435	5578
1962.527	5652
1964.62	5671
1966.711	5676
1968.802	5605
1970.892	5689
1972.983	5708
1975.072	5735
1977.162	5568
1979.25	5640
1981.337	5629
1983.424	5703
1985.51	5611
1987.598	5576
1989.683	5588
1991.768	5698
1993.852	5619
1995.934	5695
1998.019	5613
2000.102	5601
2002.184	5616
2004.266	5586
2006.347	5554
2008.427	5609
2010.508	5643
2012.587	5718
2014.666	5528
2016.745	5679
2018.821	5613
2020.9	5678
2022.977	5563
2025.052	5619
2027.128	5651
2029.204	5631
2031.277	5580
2033.353	5523
2035.425	5624
2037.499	5647
2039.57	5654
2041.642	5577
2043.714	5628
2045.786	5634
2047.855	5693
2049.925	5668
2051.993	5559
2054.064	5700
2056.132	5584
2058.2	5587
2060.266	5647
2062.332	5611
2064.398	5649
2066.465	5606
2068.529	5611
2070.592	5519
2072.657	5651
2074.719	5589
2076.783	5631
2078.845	5563
2080.907	5620
2082.968	5717
2085.028	5661
2087.087	5591
2089.148	5620
2091.207	5670
2093.264	5724
2095.322	5657
2097.379	5722
2099.439	5584
2101.495	5697
2103.55	5694
2105.605	5606
2107.658	5682
2109.713	5685
2111.767	5642
2113.82	5587
2115.872	5546
2117.924	5593
2119.975	5539
2122.028	5540
2124.078	5682
2126.126	5614
2128.176	5642
2130.225	5606
2132.275	5628
2134.321	5606
2136.368	5652
2138.415	5563
2140.461	5552
2142.505	5603
2144.552	5661
2146.597	5515
2148.64	5484
2150.684	5542
2152.725	5683
2154.77	5526
2156.811	5553
2158.852	5528
2160.894	5538
2162.933	5539
2164.973	5666
2167.013	5576
2169.051	5589
2171.089	5617
2173.126	5598
2175.164	5625
2177.201	5611
2179.236	5465
2181.273	5563
2183.307	5522
2185.341	5561
2187.377	5479
2189.41	5606
2191.442	5421
2193.473	5665
2195.506	5557
2197.539	5600
2199.569	5527
2201.598	5598
2203.628	5489
2205.656	5482
2207.686	5563
2209.716	5563
2211.743	5541
2213.769	5504
2215.796	5501
2217.821	5399
2219.848	5481
2221.873	5490
2223.897	5494
2225.921	5444
2227.944	5466
2229.967	5492
2231.991	5469
2234.011	5588
2236.032	5467
2238.053	5525
2240.073	5549
2242.094	5531
2244.114	5496
2246.131	5433
2248.149	5543
2250.167	5550
2252.186	5479
2254.201	5516
2256.218	5531
2258.233	5593
2260.247	5417
2262.262	5470
2264.278	5517
2266.29	5467
2268.303	5494
2270.315	5565
2272.327	5446
2274.341	5628
2276.35	5512
2278.361	5506
2280.37	5536
2282.38	5466
2284.388	5473
2286.397	5436
2288.405	5506
2290.412	5510
2292.419	5397
2294.425	5533
2296.431	5593
2298.437	5518
2300.441	5506
2302.445	5577
2304.449	5463
2306.453	5552
2308.455	5473
2310.457	5408
2312.459	5526
2314.46	5395
2316.46	5476
2318.461	5565
2320.46	5491
2322.458	5606
2324.458	5416
2326.456	5470
2328.455	5444
2330.451	5535
2332.447	5438
2334.443	5434
2336.438	5447
2338.433	5504
2340.429	5393
2342.422	5509
2344.416	5394
2346.408	5487
2348.399	5370
2350.393	5559
2352.384	5382
2354.375	5445
2356.365	5406
2358.355	5452
2360.344	5396
2362.333	5457
2364.322	5347
2366.309	5520
2368.295	5430
2370.282	5383
2372.27	5344
2374.256	5435
2376.24	5474
2378.225	5326
2380.208	5313
2382.194	5404
2384.177	5358
2386.159	5378
2388.142	5496
2390.122	5241
2392.105	5404
2394.085	5254
2396.066	5343
2398.044	5286
2400.024	5238
2402.002	5435
2403.982	5356
2405.959	5299
2407.935	5415
2409.913	5299
2411.888	5315
2413.865	5274
2415.84	5411
2417.814	5306
2419.788	5352
2421.762	5398
2423.735	5277
2425.708	5385
2427.68	5314
2429.651	5262
2431.623	5334
2433.593	5340
2435.564	5262
2437.533	5331
2439.502	5373
2441.47	5344
2443.438	5362
2445.406	5399
2447.373	5223
2449.34	5370
2451.305	5338
2453.271	5284
2455.235	5324
2457.201	5341
2459.165	5260
2461.129	5289
2463.092	5316
2465.054	5342
2467.018	5297
2468.978	5311
2470.939	5244
2472.899	5305
2474.86	5375
2476.819	5237
2478.778	5235
2480.737	5269
2482.695	5384
2484.653	5234
2486.609	5272
2488.567	5275
2490.524	5308
2492.478	5245
2494.433	5336
2496.387	5357
2498.343	5292
2500.297	5212
2502.249	5318
2504.202	5175
2506.153	5344
2508.105	5313
2510.057	5190
2512.008	5298
2513.957	5161
2515.906	5172
2517.855	5195
2519.805	5221
2521.754	5290
2523.7	5339
2525.647	5146
2527.594	5273
2529.54	5182
2531.486	5212
2533.431	5201
2535.376	5245
2537.32	5233
2539.263	5238
2541.207	5222
2543.151	5240
2545.093	5155
2547.034	5280
2548.975	5230
2550.917	5342
2552.856	5230
2554.796	5245
2556.735	5215
2558.673	5189
2560.611	5179
2562.55	5193
2564.487	5201
2566.424	5183
2568.36	5241
2570.296	5250
2572.232	5228
2574.167	5251
2576.101	5208
2578.035	5195
2579.969	5231
2581.902	5231
2583.834	5154
2585.766	5302
2587.698	5238
2589.628	5226
2591.557	5268
2593.489	5231
2595.419	5240
2597.348	5197
2599.275	5273
2601.204	5332
2603.131	5147
2605.059	5202
2606.986	5270
2608.911	5147
2610.837	5145
2612.76	5173
2614.687	5272
2616.61	5238
2618.534	5258
2620.457	5286
2622.38	5188
2624.302	5198
2626.225	5203
2628.145	5199
2630.067	5273
2631.986	5270
2633.906	5291
2635.827	5299
2637.745	5290
2639.662	5397
2641.581	5163
2643.498	5205
2645.415	5205
2647.331	5229
2649.248	5219
2651.163	5274
2653.077	5268
2654.993	5273
2656.906	5255
2658.821	5294
2660.733	5365
2662.646	5236
2664.557	5233
2666.47	5197
2668.381	5339
2670.291	5139
2672.201	5305
2674.11	5297
2676.021	5188
2677.929	5291
2679.837	5231
2681.745	5216
2683.652	5265
2685.56	5158
2687.466	5170
2689.371	5241
2691.276	5197
2693.181	5142
2695.085	5218
2696.991	5165
2698.893	5149
2700.796	5217
2702.698	5160
2704.601	5195
2706.502	5154
2708.404	5132
2710.304	5192
2712.203	5224
2714.103	5075
2716.003	5176
2717.902	5207
2719.8	5169
2721.697	5178
2723.594	5084
2725.49	5229
2727.389	5001
2729.283	5129
2731.179	5120
2733.073	5183
2734.968	5201
2736.863	5129
2738.757	5202
2740.649	5141
2742.541	5165
2744.433	5094
2746.324	5117
2748.216	5105
2750.107	5138
2751.997	5209
2753.886	5169
2755.776	5105
2757.666	5193
2759.553	5075
2761.44	5141
2763.327	5100
2765.215	5162
2767.102	5133
2768.988	5052
2770.873	5104
2772.757	5168
2774.641	5167
2776.525	5167
2778.41	5049
2780.292	5081
2782.175	5208
2784.057	5174
2785.938	5115
2787.821	5128
2789.701	5070
2791.581	5102
2793.461	5076
2795.34	5037
2797.219	5022
2799.099	5042
2800.975	5150
2802.853	5200
2804.73	5034
2806.606	5138
2808.484	5061
2810.358	5100
2812.233	5061
2814.108	4969
2815.981	5044
2817.857	5070
2819.73	5155
2821.602	5133
2823.474	4967
2825.346	5004
2827.217	5078
2829.089	5066
2830.959	5105
2832.829	5142
2834.698	5047
2836.567	4988
2838.436	5123
2840.305	5075
2842.172	5030
2844.04	5107
2845.905	5147
2847.772	5037
2849.639	5206
2851.503	5178
2853.369	5193
2855.232	5135
2857.096	5235
2858.961	5255
2860.824	5201
2862.686	5226
2864.547	5249
2866.41	5243
2868.272	5229
2870.132	5266
2871.992	5330
2873.851	5309
2875.711	5366
2877.57	5353
2879.429	5418
2881.287	5447
2883.144	5386
2885.001	5379
2886.857	5406
2888.714	5424
2890.57	5407
2892.425	5505
2894.279	5477
2896.133	5505
2897.987	5420
2899.842	5456
2901.694	5376
2903.547	5498
2905.397	5438
2907.249	5282
2909.101	5391
2910.952	5417
2912.802	5419
2914.652	5509
2916.5	5386
2918.35	5521
2920.198	5581
2922.045	5629
2923.893	5632
2925.74	5595
2927.585	5634
2929.433	5807
2931.279	5740
2933.123	5690
2934.968	5696
2936.811	5780
2938.656	5740
2940.5	5734
2942.342	5869
2944.185	5966
2946.026	5859
2947.87	5999
2949.71	5915
2951.549	5896
2953.39	5944
2955.229	5789
2957.069	5928
2958.908	5811
2960.746	5894
2962.584	5759
2964.421	5799
2966.257	5683
2968.094	5566
2969.931	5645
2971.766	5680
2973.601	5547
2975.435	5627
2977.27	5470
2979.105	5428
2980.938	5491
2982.77	5396
2984.602	5529
2986.434	5426
2988.267	5427
2990.097	5301
2991.927	5275
2993.757	5330
2995.587	5364
2997.417	5280
2999.246	5345
3001.074	5181
3002.902	5119
3004.729	5115
3006.556	5094
3008.384	5069
3010.21	5101
3012.036	5035
3013.861	5087
3015.684	4990
3017.51	5096
3019.334	5014
3021.157	5024
3022.981	4975
3024.802	5024
3026.624	4970
3028.448	4981
3030.267	4997
3032.088	4995
3033.909	5002
3035.728	4912
3037.549	4862
3039.368	4869
3041.186	4843
3043.004	4949
3044.821	4857
3046.64	4755
3048.455	4934
3050.272	4949
3052.087	4827
3053.903	4873
3055.717	4902
3057.534	4884
3059.347	4761
3061.16	4895
3062.974	4884
3064.785	4734
3066.598	4833
3068.411	4976
3070.222	4686
3072.032	4795
3073.844	4779
3075.653	4952
3077.463	4752
3079.272	4853
3081.08	4790
3082.889	4823
3084.697	4729
3086.505	4858
3088.312	4761
3090.118	4880
3091.924	4737
3093.729	4804
3095.535	4826
3097.34	4741
3099.144	4770
3100.947	4758
3102.75	4720
3104.553	4658
3106.357	4685
3108.159	4763
3109.961	4676
3111.762	4743
3113.562	4707
3115.365	4762
3117.164	4721
3118.964	4677
3120.761	4782
3122.56	4713
3124.36	4632
3126.158	4776
3127.954	4688
3129.75	4758
3131.547	4701
3133.343	4670
3135.139	4664
3136.934	4616
3138.729	4654
3140.522	4636
3142.317	4613
3144.11	4659
3145.904	4660
3147.695	4664
3149.488	4705
3151.28	4632
3153.07	4684
3154.863	4611
3156.652	4700
3158.441	4651
3160.231	4684
3162.019	4658
3163.81	4640
3165.597	4600
3167.384	4669
3169.172	4548
3170.958	4589
3172.745	4667
3174.532	4569
3176.317	4560
3178.101	4651
3179.885	4606
3181.67	4580
3183.455	4591
3185.238	4653
3187.02	4629
3188.802	4588
3190.585	4545
3192.368	4510
3194.149	4574
3195.929	4573
3197.709	4678
3199.489	4574
3201.268	4644
3203.048	4575
3204.826	4668
3206.604	4609
3208.382	4570
3210.159	4663
3211.937	4566
3213.713	4595
3215.489	4513
3217.263	4547
3219.038	4578
3220.815	4631
3222.589	4572
3224.363	4555
3226.136	4578
3227.908	4633
3229.681	4584
3231.454	4532
3233.226	4520
3234.996	4522
3236.767	4649
3238.538	4575
3240.308	4499
3242.078	4600
3243.847	4640
3245.615	4593
3247.384	4510
3249.15	4617
3250.92	4607
3252.686	4604
3254.453	4625
3256.218	4530
3257.984	4539
3259.75	4599
3261.515	4761
3263.279	4565
3265.044	4609
3266.806	4572
3268.57	4659
3270.334	4596
3272.095	4560
3273.856	4550
3275.619	4645
3277.379	4577
3279.14	4639
3280.9	4537
3282.661	4698
3284.419	4653
3286.178	4573
3287.937	4685
3289.695	4518
3291.453	4657
3293.21	4592
3294.967	4597
3296.723	4543
3298.48	4635
3300.235	4550
3301.99	4574
3303.744	4635
3305.498	4599
3307.253	4591
3309.006	4549
3310.759	4598
3312.511	4637
3314.263	4487
3316.017	4530
3317.768	4575
3319.519	4488
3321.268	4673
3323.018	4611
3324.767	4639
3326.518	4584
3328.267	4609
3330.014	4662
3331.762	4554
3333.509	4559
3335.258	4775
3337.003	4672
3338.75	4473
3340.496	4681
3342.24	4529
3343.987	4524
3345.732	4586
3347.475	4621
3349.219	4574
3350.961	4563
3352.705	4533
3354.448	4619
3356.19	4526
3357.931	4556
3359.672	4503
3361.412	4642
3363.155	4469
3364.894	4564
3366.633	4591
3368.372	4538
3370.11	4576
3371.849	4583
3373.588	4544
3375.325	4536
3377.061	4547
3378.799	4532
3380.534	4630
3382.271	4522
3384.006	4556
3385.741	4488
3387.475	4513
3389.209	4526
3390.944	4569
3392.677	4472
3394.409	4540
3396.143	4449
3397.874	4540
3399.606	4538
3401.338	4569
3403.069	4599
3404.799	4455
3406.528	4515
3408.258	4471
3409.988	4620
3411.717	4547
3413.445	4500
3415.173	4474
3416.899	4418
3418.626	4526
3420.354	4460
3422.08	4502
3423.806	4430
3425.531	4537
3427.255	4429
3428.981	4458
3430.705	4516
3432.429	4428
3434.151	4421
3435.875	4444
3437.599	4417
3439.321	4527
3441.042	4477
3442.763	4461
3444.483	4378
3446.204	4468
3447.926	4468
3449.645	4440
3451.364	4405
3453.082	4457
3454.801	4436
3456.52	4435
3458.238	4467
3459.954	4453
3461.671	4353
3463.387	4351
3465.104	4499
3466.82	4382
3468.534	4413
3470.25	4456
3471.963	4389
3473.676	4386
3475.392	4344
3477.104	4302
3478.817	4301
3480.528	4377
3482.241	4442
3483.954	4377
3485.664	4405
3487.374	4427
3489.084	4362
3490.795	4282
3492.504	4364
3494.214	4375
3495.922	4336
3497.63	4382
3499.338	4384
3501.045	4284
3502.753	4344
3504.459	4366
3506.166	4338
3507.871	4350
3509.576	4242
3511.283	4360
3512.987	4337
3514.691	4302
3516.395	4322
3518.098	4257
3519.8	4298
3521.504	4426
3523.206	4384
3524.908	4321
3526.609	4284
3528.309	4313
3530.011	4312
3531.711	4361
3533.411	4232
3535.109	4279
3536.808	4243
3538.507	4378
3540.206	4346
3541.904	4378
3543.601	4272
3545.297	4385
3546.994	4379
3548.69	4336
3550.387	4234
3552.081	4343
3553.776	4323
3555.47	4329
3557.166	4257
3558.859	4325
3560.553	4310
3562.245	4342
3563.938	4234
3565.629	4373
3567.322	4364
3569.014	4306
3570.704	4344
3572.394	4283
3574.084	4307
3575.775	4276
3577.464	4229
3579.152	4277
3580.842	4233
3582.529	4307
3584.216	4222
3585.905	4267
3587.591	4311
3589.279	4235
3590.964	4331
3592.649	4194
3594.336	4205
3596.021	4216
3597.705	4219
3599.388	4184
3601.072	4261
3602.757	4303
3604.439	4158
3606.122	4177
3607.803	4278
3609.485	4252
3611.167	4363
3612.849	4194
3614.529	4171
3616.208	4203
3617.888	4228
3619.567	4252
3621.247	4236
3622.926	4155
3624.603	4281
3626.281	4202
3627.958	4173
3629.635	4167
3631.312	4292
3632.989	4146
3634.665	4229
3636.339	4129
3638.014	4144
3639.691	4105
3641.364	4164
3643.038	4174
3644.71	4137
3646.384	4205
3648.058	4217
3649.729	4173
3651.402	4174
3653.073	4125
3654.744	4088
3656.414	4102
3658.085	4155
3659.755	4131
3661.424	4119
3663.094	4190
3664.762	4156
3666.431	4178
3668.099	4198
3669.766	4235
3671.433	4263
3673.099	4090
3674.768	4172
3676.433	4167
3678.098	4203
3679.763	4174
3681.428	4129
3683.093	4226
3684.757	4157
3686.421	4133
3688.083	4123
3689.746	4213
3691.408	4118
3693.071	4100
3694.733	4172
3696.394	4124
3698.054	4133
3699.715	4207
3701.375	4093
3703.036	4190
3704.695	4096
3706.354	4189
3708.012	4203
3709.67	4139
3711.329	4164
3712.987	4108
3714.644	4140
3716.299	4104
3717.955	4020
3719.613	4104
3721.268	4089
3722.923	4055
3724.577	4126
3726.231	4116
3727.885	4157
3729.539	4075
3731.192	4050
3732.845	4186
3734.497	4077
3736.149	4183
3737.802	4221
3739.453	4104
3741.104	4138
3742.753	4080
3744.404	4078
3746.052	4154
3747.704	4203
3749.352	4181
3751	4062
3752.648	3991
3754.296	4092
3755.944	4111
3757.59	4121
3759.238	4226
3760.883	4113
3762.528	4076
3764.176	4012
3765.82	4127
3767.464	4164
3769.109	4058
3770.753	4090
3772.396	4063
3774.04	4061
3775.683	4076
3777.325	4053
3778.967	4077
3780.608	4072
3782.25	4106
3783.89	4037
3785.531	4110
3787.17	3999
3788.81	4112
3790.45	4120
3792.09	4113
3793.729	4142
3795.366	4163
3797.003	4100
3798.64	4067
3800.278	4117
3801.915	4123
3803.551	4147
3805.187	4050
3806.822	4115
3808.458	4106
3810.093	3993
3811.726	4047
3813.36	4058
3814.994	4058
3816.627	4052
3818.262	4032
3819.893	4041
3821.525	4058
3823.157	4032
3824.787	3981
3826.42	3984
3828.051	4013
3829.68	4036
3831.31	4098
3832.938	4114
3834.569	4022
3836.198	3982
3837.825	4072
3839.454	4035
3841.08	4147
3842.708	4069
3844.335	4089
3845.962	4006
3847.587	4142
3849.212	4063
3850.838	4012
3852.463	4034
3854.089	4026
3855.712	4078
3857.335	4023
3858.959	4126
3860.582	3935
3862.205	4008
3863.827	4105
3865.449	4122
3867.07	4008
3868.691	4026
3870.312	4044
3871.933	4050
3873.553	4032
3875.173	4037
3876.792	4018
3878.411	4030
3880.03	4086
3881.647	3922
3883.265	4054
3884.882	3954
3886.499	4027
3888.116	3998
3889.732	4013
3891.348	4042
3892.964	4049
3894.579	4026
3896.195	3979
3897.809	4029
3899.423	4054
3901.036	4052
3902.648	4056
3904.261	3997
3905.875	4009
3907.487	3986
3909.099	4050
3910.709	4050
3912.321	3911
3913.933	3987
3915.542	4027
3917.152	3923
3918.762	3985
3920.37	3993
3921.98	4000
3923.589	4026
3925.196	3961
3926.804	4003
3928.41	4021
3930.018	4044
3931.626	4073
3933.231	4075
3934.838	4009
3936.442	4012
3938.046	4023
3939.653	4094
3941.257	4022
3942.861	4026
3944.464	3936
3946.068	4079
3947.67	3981
3949.273	3995
3950.876	3948
3952.477	4004
3954.078	4078
3955.678	4070
3957.281	3971
3958.881	4004
3960.48	4012
3962.079	3912
3963.678	3996
3965.279	3998
3966.877	4028
3968.475	4009
3970.072	3942
3971.669	3990
3973.266	3971
3974.864	4035
3976.459	3946
3978.055	3993
3979.65	4034
3981.245	4019
3982.841	4034
3984.436	3917
3986.03	4000
3987.623	3904
3989.216	3990
3990.809	4024
3992.403	4020
3993.995	4002
3995.586	3948
3997.177	3998
3998.768	3910
4000.361	3938
4001.951	3966
4003.54	4040
4005.13	3915
4006.719	3935
4008.31	3978
4009.897	3889
4011.485	3942
4013.073	3935
4014.66	3951
4016.247	4013
4017.834	3952
4019.421	3937
4021.006	3930
4022.592	3859
4024.178	3847
4025.763	3932
4027.348	3845
4028.932	3919
4030.515	3926
4032.099	3927
4033.682	3870
4035.266	3945
4036.847	3958
4038.429	3956
4040.011	3850
4041.592	3876
4043.173	3839
4044.755	3904
4046.334	3814
4047.913	3894
4049.494	3946
4051.074	3947
4052.652	3868
4054.23	3820
4055.807	3906
4057.385	3831
4058.963	3821
4060.541	3922
4062.117	3827
4063.693	3905
4065.269	3816
4066.844	3938
4068.42	3821
4069.995	3912
4071.569	3863
4073.143	3892
4074.716	3832
4076.291	3849
4077.864	3842
4079.436	3806
4081.009	3851
4082.58	3885
4084.152	3844
4085.723	3859
4087.294	3910
4088.865	3767
4090.435	3863
4092.005	3883
4093.574	3835
4095.143	3820
4096.712	3853
4098.279	3902
4099.848	3885
4101.416	3846
4102.984	3795
4104.55	3912
4106.117	3898
4107.682	3915
4109.248	3842
4110.815	3875
4112.379	3876
4113.945	3885
4115.508	3792
4117.073	3799
4118.637	3989
4120.201	3833
4121.763	3790
4123.325	3908
4124.888	3780
4126.449	3837
4128.013	3807
4129.573	3861
4131.133	3768
4132.694	3801
4134.254	3895
4135.814	3826
4137.374	3848
4138.933	3793
4140.491	3857
4142.049	3805
4143.607	3872
4145.167	3716
4146.724	3787
4148.28	3865
4149.836	3824
4151.392	3795
4152.949	3845
4154.504	3707
4156.059	3819
4157.614	3794
4159.168	3799
4160.723	3839
4162.277	3772
4163.83	3719
4165.383	3784
4166.936	3876
4168.488	3848
4170.041	3806
4171.593	3872
4173.144	3788
4174.695	3774
4176.246	3735
4177.796	3814
4179.346	3735
4180.896	3791
4182.445	3746
4183.994	3758
4185.542	3786
4187.091	3748
4188.639	3770
4190.185	3743
4191.732	3824
4193.279	3689
4194.826	3729
4196.373	3704
4197.918	3731
4199.463	3748
4201.008	3803
4202.553	3849
4204.098	3760
4205.641	3732
4207.185	3819
4208.728	3690
4210.271	3735
4211.814	3726
4213.357	3803
4214.898	3771
4216.439	3760
4217.98	3795
4219.522	3750
4221.062	3790
4222.603	3746
4224.142	3810
4225.681	3728
4227.222	3830
4228.76	3759
4230.298	3826
4231.835	3813
4233.373	3771
4234.911	3765
4236.449	3800
4237.985	3823
4239.521	3746
4241.057	3753
4242.592	3804
4244.128	3747
4245.663	3783
4247.197	3771
4248.731	3792
4250.265	3821
4251.798	3797
4253.333	3742
4254.865	3753
4256.397	3688
4257.93	3694
4259.461	3788
4260.994	3739
4262.525	3706
4264.056	3818
4265.586	3781
4267.115	3793
4268.646	3732
4270.176	3710
4271.705	3752
4273.232	3741
4274.761	3703
4276.289	3788
4277.818	3823
4279.345	3723
4280.872	3805
4282.399	3718
4283.924	3771
4285.452	3757
4286.976	3780
4288.502	3750
4290.026	3760
4291.551	3682
4293.074	3750
4294.6	3863
4296.123	3760
4297.646	3800
4299.168	3770
4300.691	3713
4302.214	3780
4303.736	3709
4305.257	3796
4306.778	3663
4308.299	3769
4309.82	3688
4311.34	3753
4312.86	3672
4314.379	3679
