400.0745	4618
402.597	4614
405.1208	4616
407.6419	4669
410.1623	4567
412.6819	4647
415.201	4698
417.7172	4717
420.2369	4761
422.7538	4824
425.2701	4861
427.7856	4803
430.3005	4896
432.8147	4929
435.3282	4907
437.841	5008
440.3511	4835
442.8625	4911
445.3753	4874
447.8854	4966
450.3927	4950
452.9014	4932
455.4073	4957
457.9146	4918
460.4233	4903
462.9272	4870
465.4325	4913
467.935	4990
470.4389	5018
472.9421	4976
475.4446	4959
477.9444	4873
480.4456	4974
482.944	4993
485.4417	5061
487.9429	4990
490.4393	4996
492.935	5155
495.4321	5052
497.9264	5127
500.4221	5066
502.9171	5118
505.4094	5110
507.9011	5110
510.392	5043
512.8864	5115
515.3759	5189
517.8649	5115
520.3531	5157
522.8406	5149
525.3275	5172
527.8178	5246
530.3033	5261
532.7881	5061
535.2723	5178
537.7558	5370
540.2407	5178
542.7228	5078
545.2043	5158
547.6851	5173
550.1652	5160
552.6467	5200
555.1255	5170
557.6016	5219
560.079	5261
562.5557	5275
565.0318	5306
567.5092	5226
569.984	5286
572.456	5370
574.9294	5379
577.4022	5295
579.8762	5371
582.3456	5335
584.8163	5366
587.2863	5277
589.7557	5455
592.2224	5436
594.6924	5308
597.1578	5428
599.6245	5364
602.0905	5439
604.5538	5386
607.0206	5293
609.4825	5380
611.9459	5418
614.4066	5356
616.8686	5431
619.33	5387
621.7906	5293
624.2487	5370
626.708	5402
629.1647	5390
631.6207	5319
634.0801	5363
636.5348	5428
638.9888	5436
641.4442	5359
643.8969	5408
646.3509	5374
648.8022	5497
651.255	5370
653.705	5456
656.1544	5421
658.6031	5434
661.0532	5416
663.5026	5438
665.9493	5482
668.3954	5425
670.8409	5549
673.2877	5576
675.7318	5511
678.1752	5474
680.618	5493
683.0601	5458
685.5035	5557
687.9444	5602
690.3845	5555
692.824	5597
695.2628	5600
697.701	5610
700.1406	5490
702.5774	5631
705.0116	5516
707.4472	5570
709.8821	5703
712.3183	5686
714.7519	5710
717.1829	5647
719.6151	5692
722.0468	5602
724.4777	5675
726.908	5684
729.3377	5732
731.7667	5805
734.1931	5834
736.6208	5681
739.0498	5818
741.4742	5835
743.9	5816
746.3231	5974
748.7476	5818
751.1713	5994
753.5945	6000
756.015	6018
758.4368	5928
760.856	5778
763.2766	5952
765.6965	6002
768.1157	5836
770.5323	5951
772.9483	5975
775.3656	6027
777.7822	5869
780.1963	5895
782.6116	5983
785.0244	5952
787.4365	5950
789.8499	6061
792.2626	6050
794.6728	5930
797.0823	6007
799.4911	5958
801.8994	5952
804.3109	6024
806.7178	5981
809.124	5930
811.5297	6039
813.9347	6139
816.341	6109
818.7447	6053
821.1478	6200
823.5502	5939
825.952	6097
828.3531	6097
830.7556	6043
833.1554	6140
835.5546	6030
837.9532	5965
840.3511	6141
842.7504	6117
845.1451	6152
847.5411	6193
849.9365	6167
852.3312	6101
854.7272	6125
857.1187	6237
859.5115	6168
861.9037	6073
864.2952	6178
866.6842	6144
869.0764	6182
871.4661	6228
873.8531	6130
876.2415	6188
878.6272	6198
881.0162	6145
883.4026	6110
885.7866	6105
888.1717	6025
890.5543	6076
892.9382	6228
895.3215	6236
897.7041	6218
900.0842	6061
902.4655	5999
904.8443	6127
907.2244	6137
909.6039	6153
911.9808	6264
914.357	6194
916.7346	6255
919.1115	6403
921.4859	6319
923.8616	6348
926.2347	6409
928.6071	6285
930.979	6413
933.3541	6282
935.7247	6477
938.0946	6438
940.4639	6406
942.8326	6470
945.2026	6554
947.5701	6656
949.9369	6775
952.305	6890
954.6705	7071
957.0355	7164
959.4017	7442
961.7654	7537
964.1284	7458
966.4908	7423
968.8527	7096
971.2138	6933
973.5743	6842
975.9343	6727
978.2936	6593
980.6522	6434
983.0122	6430
985.3696	6265
987.7245	6391
990.0807	6496
992.4362	6268
994.7911	6364
997.1474	6391
999.4991	6293
1001.852	6295
1004.205	6479
1006.555	6315
1008.908	6483
1011.258	6340
1013.606	6354
1015.956	6405
1018.302	6380
1020.652	6457
1022.998	6387
1025.345	6490
1027.691	6529
1030.035	6430
1032.378	6565
1034.724	6390
1037.066	6505
1039.409	6417
1041.75	6437
1044.092	6506
1046.433	6454
1048.771	6432
1051.112	6441
1053.449	6434
1055.786	6433
1058.124	6525
1060.462	6488
1062.797	6538
1065.131	6599
1067.467	6529
1069.8	6562
1072.135	6652
1074.467	6614
1076.798	6620
1079.129	6594
1081.459	6564
1083.792	6574
1086.121	6595
1088.449	6358
1090.777	6440
1093.104	6521
1095.431	6556
1097.759	6388
1100.084	6461
1102.408	6586
1104.732	6521
1107.056	6532
1109.379	6420
1111.701	6470
1114.022	6577
1116.343	6533
1118.664	6535
1120.983	6599
1123.303	6503
1125.621	6516
1127.939	6545
1130.256	6532
1132.573	6547
1134.889	6442
1137.205	6507
1139.52	6570
1141.832	6562
1144.146	6594
1146.461	6653
1148.771	6475
1151.083	6453
1153.392	6544
1155.703	6415
1158.011	6579
1160.323	6540
1162.629	6665
1164.938	6609
1167.243	6613
1169.55	6549
1171.857	6583
1174.163	6591
1176.466	6649
1178.769	6456
1181.073	6531
1183.374	6622
1185.677	6613
1187.979	6480
1190.279	6475
1192.578	6360
1194.878	6444
1197.178	6449
1199.476	6612
1201.772	6531
1204.068	6616
1206.366	6534
1208.663	6526
1210.957	6532
1213.251	6555
1215.544	6589
1217.836	6537
1220.128	6593
1222.421	6518
1224.712	6543
1227.002	6666
1229.292	6615
1231.581	6688
1233.871	6673
1236.159	6681
1238.446	6703
1240.732	6666
1243.018	6733
1245.304	6781
1247.59	6822
1249.874	6780
1252.156	6586
1254.439	6761
1256.721	6807
1259.005	6729
1261.286	6768
1263.565	6767
1265.845	6710
1268.125	6698
1270.403	6837
1272.682	6877
1274.959	6772
1277.234	6799
1279.511	6793
1281.787	6736
1284.062	6702
1286.337	6755
1288.609	6804
1290.882	6686
1293.153	6687
1295.428	6747
1297.698	6691
1299.969	6818
1302.237	6740
1304.507	6652
1306.777	6744
1309.044	6598
1311.312	6832
1313.578	6738
1315.844	6761
1318.109	6742
1320.375	6538
1322.638	6650
1324.903	6694
1327.165	6672
1329.427	6842
1331.69	6742
1333.952	6750
1336.212	6613
1338.471	6811
1340.73	6670
1342.988	6609
1345.248	6644
1347.505	6737
1349.763	6682
1352.019	6789
1354.274	6616
1356.53	6746
1358.784	6615
1361.038	6706
1363.291	6657
1365.543	6655
1367.797	6839
1370.048	6645
1372.296	6655
1374.546	6708
1376.796	6828
1379.045	6660
1381.295	6657
1383.542	6716
1385.787	6617
1388.034	6688
1390.28	6733
1392.527	6660
1394.772	6840
1397.014	6812
1399.258	6796
1401.501	6791
1403.741	6657
1405.985	6908
1408.226	6663
1410.465	6809
1412.705	6743
1414.943	6869
1417.184	6758
1419.42	6829
1421.658	6814
1423.894	6871
1426.13	6786
1428.366	6905
1430.602	6798
1432.835	6835
1435.069	6861
1437.301	6881
1439.535	6996
1441.767	6929
1443.997	6904
1446.229	6908
1448.458	6985
1450.687	6975
1452.916	7077
1455.146	6971
1457.372	7011
1459.599	6984
1461.824	6947
1464.051	6930
1466.277	7106
1468.501	7004
1470.725	6907
1472.948	6851
1475.17	6896
1477.393	6892
1479.614	6853
1481.837	6773
1484.057	6884
1486.276	6810
1488.497	6767
1490.715	6685
1492.932	6717
1495.148	6766
1497.364	6772
1499.58	6777
1501.798	6710
1504.012	6589
1506.227	6645
1508.44	6639
1510.653	6608
1512.866	6683
1515.078	6613
1517.289	6555
1519.5	6550
1521.711	6669
1523.92	6729
1526.13	6771
1528.338	6649
1530.544	6670
1532.752	6725
1534.959	6690
1537.165	6703
1539.371	6643
1541.574	6706
1543.779	6706
1545.983	6801
1548.187	6746
1550.39	6729
1552.59	6742
1554.792	6688
1556.991	6720
1559.19	6741
1561.392	6777
1563.59	6785
1565.789	6703
1567.986	6786
1570.182	6789
1572.381	6816
1574.576	6766
1576.771	6799
1578.966	6863
1581.16	6871
1583.354	6972
1585.546	6896
1587.74	6881
1589.931	6946
1592.121	6771
1594.311	6873
1596.502	6811
1598.693	6888
1600.881	6821
1603.069	6900
1605.256	6909
1607.445	6935
1609.631	6986
1611.816	6974
1614.001	6969
1616.186	6852
1618.37	7013
1620.555	6854
1622.737	6909
1624.919	6928
1627.101	6953
1629.282	6964
1631.463	6872
1633.643	6910
1635.822	6913
1638.001	6902
1640.179	6972
1642.359	6953
1644.534	6882
1646.711	6925
1648.887	6952
1651.062	6899
1653.235	6940
1655.412	7057
1657.586	7053
1659.757	7054
1661.93	6967
1664.1	7059
1666.274	6925
1668.445	7008
1670.614	7020
1672.784	6977
1674.951	7018
1677.12	7071
1679.289	7002
1681.457	6883
1683.622	7068
1685.789	7020
1687.953	7006
1690.121	6998
1692.284	6945
1694.447	6985
1696.611	6857
1698.772	6950
1700.935	7016
1703.098	6993
1705.258	6897
1707.417	6820
1709.576	6887
1711.736	6910
1713.896	6806
1716.053	6815
1718.21	6831
1720.366	6776
1722.522	6934
1724.68	6867
1726.835	6774
1728.989	6932
1731.142	6802
1733.295	6869
1735.449	6779
1737.601	6993
1739.753	6792
1741.903	6798
1744.054	6825
1746.203	6917
1748.354	6748
1750.503	6880
1752.651	6971
1754.798	6774
1756.944	6886
1759.092	6887
1761.238	6934
1763.383	6868
1765.528	6885
1767.672	6900
1769.814	6823
1771.959	6896
1774.102	6927
1776.242	6937
1778.384	6888
1780.525	6936
1782.665	6951
1784.805	6879
1786.945	6998
1789.082	6868
1791.22	6926
1793.36	6775
1795.495	6937
1797.632	7011
1799.766	6828
1801.902	6951
1804.035	6883
1806.172	6919
1808.304	6904
1810.436	6929
1812.569	6924
1814.699	6871
1816.833	6829
1818.963	6815
1821.092	6926
1823.222	6909
1825.35	6919
1827.478	6969
1829.608	6848
1831.734	6778
1833.86	6847
1835.986	6931
1838.11	6816
1840.238	6795
1842.362	6792
1844.485	6796
1846.608	6947
1848.73	6794
1850.853	6859
1852.974	6879
1855.097	6787
1857.217	6766
1859.336	6752
1861.455	6730
1863.576	6755
1865.693	6685
1867.811	6764
1869.926	6835
1872.042	6842
1874.16	6829
1876.275	6831
1878.39	6795
1880.504	6887
1882.618	6806
1884.731	6831
1886.843	6823
1888.956	6835
1891.067	6791
1893.178	6894
1895.287	6812
1897.399	6903
1899.508	6841
1901.617	6818
1903.724	6767
1905.832	6850
1907.941	6882
1910.046	6765
1912.152	6832
1914.256	6952
1916.361	6890
1918.464	6924
1920.57	6843
1922.672	6941
1924.775	6836
1926.876	6863
1928.978	7002
1931.08	6950
1933.181	6870
1935.28	6927
1937.38	6832
1939.478	6910
1941.577	6996
1943.675	6981
1945.771	6855
1947.867	6876
1949.964	6991
1952.058	6918
1954.154	6901
1956.248	6906
1958.343	7012
1960.435	6905
1962.527	6948
1964.62	6863
1966.711	6773
1968.802	6905
1970.892	6781
1972.983	6799
1975.072	6846
1977.162	6823
1979.25	6826
1981.337	6838
1983.424	6862
1985.51	6867
1987.598	6921
1989.683	6888
1991.768	6781
1993.852	6775
1995.934	6876
1998.019	6870
2000.102	6726
2002.184	6950
2004.266	6790
2006.347	6810
2008.427	6829
2010.508	6758
2012.587	6931
2014.666	6770
2016.745	6809
2018.821	6798
2020.9	6717
2022.977	6870
2025.052	6805
2027.128	6852
2029.204	6746
2031.277	6869
2033.353	6794
2035.425	6842
2037.499	6814
2039.57	6814
2041.642	6856
2043.714	6853
2045.786	6807
2047.855	6784
2049.925	6698
2051.993	6818
2054.064	6774
2056.132	6833
2058.2	6987
2060.266	6731
2062.332	6881
2064.398	6694
2066.465	6813
2068.529	6847
2070.592	6845
2072.657	6881
2074.719	6750
2076.783	6822
2078.845	6884
2080.907	6774
2082.968	6886
2085.028	6779
2087.087	6730
2089.148	6834
2091.207	6754
2093.264	6824
2095.322	6884
2097.379	6821
2099.439	6879
2101.495	6712
2103.55	6828
2105.605	6785
2107.658	6769
2109.713	6795
2111.767	6794
2113.82	6847
2115.872	6827
2117.924	6806
2119.975	6788
2122.028	6649
2124.078	6820
2126.126	6775
2128.176	6851
2130.225	6839
2132.275	6745
2134.321	6749
2136.368	6782
2138.415	6804
2140.461	6675
2142.505	6828
2144.552	6759
2146.597	6699
2148.64	6824
2150.684	6652
2152.725	6699
2154.77	6695
2156.811	6667
2158.852	6857
2160.894	6719
2162.933	6788
2164.973	6655
2167.013	6893
2169.051	6750
2171.089	6791
2173.126	6687
2175.164	6728
2177.201	6688
2179.236	6661
2181.273	6781
2183.307	6602
2185.341	6722
2187.377	6605
2189.41	6728
2191.442	6578
2193.473	6694
2195.506	6641
2197.539	6665
2199.569	6614
2201.598	6608
2203.628	6528
2205.656	6675
2207.686	6660
2209.716	6664
2211.743	6654
2213.769	6550
2215.796	6571
2217.821	6716
2219.848	6590
2221.873	6666
2223.897	6620
2225.921	6593
2227.944	6618
2229.967	6548
2231.991	6586
2234.011	6623
2236.032	6590
2238.053	6647
2240.073	6641
2242.094	6473
2244.114	6548
2246.131	6611
2248.149	6571
2250.167	6701
2252.186	6591
2254.201	6614
2256.218	6614
2258.233	6667
2260.247	6568
2262.262	6665
2264.278	6629
2266.29	6552
2268.303	6613
2270.315	6641
2272.327	6549
2274.341	6629
2276.35	6681
2278.361	6670
2280.37	6630
2282.38	6554
2284.388	6577
2286.397	6582
2288.405	6559
2290.412	6654
2292.419	6561
2294.425	6579
2296.431	6598
2298.437	6620
2300.441	6555
2302.445	6496
2304.449	6575
2306.453	6538
2308.455	6524
2310.457	6646
2312.459	6538
2314.46	6555
2316.46	6537
2318.461	6574
2320.46	6570
2322.458	6463
2324.458	6474
2326.456	6485
2328.455	6514
2330.451	6509
2332.447	6391
2334.443	6546
2336.438	6508
2338.433	6373
2340.429	6453
2342.422	6430
2344.416	6444
2346.408	6429
2348.399	6425
2350.393	6532
2352.384	6373
2354.375	6416
2356.365	6375
2358.355	6274
2360.344	6421
2362.333	6482
2364.322	6485
2366.309	6459
2368.295	6375
2370.282	6425
2372.27	6404
2374.256	6345
2376.24	6462
2378.225	6402
2380.208	6374
2382.194	6414
2384.177	6362
2386.159	6400
2388.142	6302
2390.122	6219
2392.105	6306
2394.085	6291
2396.066	6210
2398.044	6210
2400.024	6353
2402.002	6290
2403.982	6395
2405.959	6270
2407.935	6411
2409.913	6324
2411.888	6176
2413.865	6346
2415.84	6219
2417.814	6303
2419.788	6252
2421.762	6363
2423.735	6289
2425.708	6334
2427.68	6308
2429.651	6291
2431.623	6201
2433.593	6322
2435.564	6189
2437.533	6296
2439.502	6299
2441.47	6365
2443.438	6295
2445.406	6278
2447.373	6235
2449.34	6365
2451.305	6231
2453.271	6327
2455.235	6223
2457.201	6251
2459.165	6239
2461.129	6351
2463.092	6258
2465.054	6202
2467.018	6230
2468.978	6235
2470.939	6277
2472.899	6274
2474.86	6241
2476.819	6241
2478.778	6214
2480.737	6249
2482.695	6163
2484.653	6143
2486.609	6143
2488.567	6207
2490.524	6201
2492.478	6251
2494.433	6176
2496.387	6127
2498.343	6235
2500.297	6130
2502.249	6226
2504.202	6118
2506.153	6174
2508.105	6159
2510.057	6124
2512.008	6114
2513.957	6256
2515.906	6223
2517.855	6118
2519.805	6193
2521.754	6141
2523.7	6226
2525.647	6167
2527.594	6134
2529.54	6126
2531.486	6096
2533.431	6199
2535.376	6069
2537.32	6077
2539.263	6135
2541.207	6150
2543.151	6047
2545.093	6142
2547.034	6251
2548.975	6109
2550.917	6143
2552.856	6230
2554.796	6088
2556.735	6116
2558.673	6157
2560.611	5983
2562.55	6095
2564.487	6208
2566.424	6149
2568.36	6031
2570.296	6111
2572.232	5934
2574.167	6075
2576.101	6064
2578.035	6135
2579.969	6025
2581.902	6089
2583.834	6177
2585.766	6210
2587.698	6235
2589.628	6217
2591.557	6184
2593.489	6161
2595.419	6140
2597.348	6138
2599.275	6217
2601.204	6177
2603.131	6046
2605.059	6130
2606.986	6123
2608.911	6053
2610.837	6166
2612.76	6115
2614.687	6163
2616.61	6088
2618.534	6042
2620.457	6083
2622.38	6172
2624.302	6048
2626.225	6137
2628.145	6135
2630.067	6184
2631.986	6188
2633.906	6255
2635.827	6093
2637.745	6080
2639.662	6166
2641.581	6165
2643.498	6119
2645.415	6039
2647.331	6095
2649.248	6064
2651.163	6158
2653.077	6165
2654.993	6141
2656.906	6055
2658.821	6127
2660.733	6152
2662.646	6140
2664.557	6034
2666.47	6084
2668.381	5992
2670.291	5882
2672.201	5922
2674.11	6059
2676.021	6146
2677.929	6068
2679.837	6133
2681.745	6060
2683.652	6060
2685.56	6081
2687.466	6110
2689.371	5990
2691.276	6007
2693.181	6063
2695.085	5987
2696.991	5964
2698.893	5980
2700.796	5971
2702.698	5998
2704.601	6046
2706.502	6082
2708.404	6003
2710.304	6040
2712.203	6126
2714.103	5944
2716.003	5932
2717.902	6098
2719.8	6018
2721.697	5932
2723.594	5997
2725.49	6033
2727.389	6007
2729.283	5908
2731.179	5960
2733.073	5993
2734.968	5960
2736.863	5964
2738.757	5912
2740.649	5990
2742.541	5880
2744.433	6030
2746.324	5808
2748.216	5894
2750.107	5916
2751.997	5841
2753.886	5989
2755.776	5890
2757.666	5933
2759.553	5778
2761.44	5951
2763.327	5932
2765.215	5964
2767.102	6067
2768.988	5878
2770.873	5930
2772.757	5947
2774.641	5813
2776.525	5803
2778.41	5914
2780.292	5867
2782.175	5952
2784.057	5903
2785.938	5845
2787.821	5957
2789.701	5974
2791.581	5834
2793.461	5810
2795.34	5893
2797.219	5894
2799.099	5867
2800.975	5815
2802.853	5862
2804.73	5918
2806.606	5873
2808.484	5819
2810.358	5811
2812.233	5822
2814.108	5834
2815.981	5800
2817.857	5852
2819.73	5898
2821.602	5786
2823.474	5757
2825.346	5782
2827.217	5807
2829.089	5806
2830.959	5831
2832.829	5825
2834.698	5731
2836.567	5717
2838.436	5733
2840.305	5770
2842.172	5880
2844.04	5861
2845.905	5765
2847.772	5873
2849.639	5798
2851.503	5844
2853.369	5900
2855.232	5865
2857.096	5831
2858.961	5953
2860.824	5898
2862.686	5887
2864.547	5910
2866.41	5882
2868.272	5905
2870.132	5991
2871.992	6149
2873.851	6116
2875.711	6084
2877.57	6153
2879.429	6157
2881.287	6230
2883.144	6121
2885.001	6266
2886.857	6246
2888.714	6251
2890.57	6266
2892.425	6242
2894.279	6157
2896.133	6090
2897.987	6199
2899.842	6206
2901.694	6138
2903.547	6074
2905.397	6233
2907.249	6113
2909.101	6210
2910.952	6228
2912.802	6315
2914.652	6295
2916.5	6339
2918.35	6271
2920.198	6318
2922.045	6447
2923.893	6479
2925.74	6511
2927.585	6494
2929.433	6673
2931.279	6546
2933.123	6708
2934.968	6771
2936.811	6729
2938.656	6795
2940.5	6790
2942.342	6920
2944.185	6893
2946.026	6836
2947.87	6945
2949.71	6909
2951.549	6796
2953.39	6872
2955.229	6883
2957.069	6608
2958.908	6665
2960.746	6695
2962.584	6558
2964.421	6536
2966.257	6526
2968.094	6498
2969.931	6352
2971.766	6365
2973.601	6437
2975.435	6294
2977.27	6331
2979.105	6291
2980.938	6271
2982.77	6168
2984.602	6128
2986.434	6231
2988.267	6091
2990.097	6067
2991.927	6103
2993.757	5977
2995.587	5979
2997.417	5941
2999.246	5951
3001.074	5851
3002.902	5908
3004.729	5847
3006.556	5842
3008.384	5814
3010.21	5789
3012.036	5811
3013.861	5611
3015.684	5746
3017.51	5661
3019.334	5610
3021.157	5740
3022.981	5558
3024.802	5561
3026.624	5512
3028.448	5397
3030.267	5538
3032.088	5525
3033.909	5442
3035.728	5442
3037.549	5402
3039.368	5377
3041.186	5387
3043.004	5557
3044.821	5537
3046.64	5402
3048.455	5458
3050.272	5312
3052.087	5429
3053.903	5459
3055.717	5430
3057.534	5444
3059.347	5392
3061.16	5315
3062.974	5317
3064.785	5405
3066.598	5311
3068.411	5368
3070.222	5352
3072.032	5379
3073.844	5344
3075.653	5405
3077.463	5387
3079.272	5251
3081.08	5380
3082.889	5313
3084.697	5293
3086.505	5285
3088.312	5354
3090.118	5347
3091.924	5180
3093.729	5240
3095.535	5366
3097.34	5247
3099.144	5203
3100.947	5260
3102.75	5281
3104.553	5272
3106.357	5197
3108.159	5190
3109.961	5165
3111.762	5175
3113.562	5213
3115.365	5178
3117.164	5185
3118.964	5198
3120.761	5126
3122.56	5155
3124.36	5158
3126.158	5227
3127.954	5148
3129.75	5152
3131.547	5232
3133.343	5130
3135.139	5107
3136.934	5080
3138.729	5132
3140.522	5063
3142.317	5203
3144.11	5079
3145.904	5124
3147.695	5144
3149.488	5065
3151.28	5110
3153.07	5141
3154.863	5169
3156.652	5094
3158.441	5024
3160.231	5028
3162.019	5036
3163.81	5166
3165.597	5100
3167.384	5082
3169.172	5016
3170.958	4967
3172.745	5057
3174.532	5092
3176.317	5082
3178.101	5061
3179.885	5072
3181.67	5178
3183.455	5037
3185.238	5087
3187.02	5023
3188.802	5023
3190.585	4976
3192.368	5009
3194.149	5044
3195.929	5010
3197.709	4976
3199.489	4993
3201.268	4982
3203.048	5075
3204.826	4975
3206.604	5009
3208.382	5109
3210.159	5027
3211.937	4967
3213.713	4952
3215.489	4968
3217.263	5030
3219.038	5034
3220.815	4963
3222.589	4935
3224.363	4946
3226.136	4994
3227.908	5043
3229.681	5000
3231.454	4983
3233.226	5104
3234.996	4950
3236.767	4983
3238.538	4989
3240.308	4984
3242.078	5026
3243.847	5055
3245.615	5006
3247.384	4947
3249.15	5040
3250.92	4944
3252.686	4856
3254.453	5029
3256.218	4997
3257.984	4911
3259.75	4950
3261.515	4918
3263.279	4946
3265.044	5008
3266.806	4915
3268.57	4952
3270.334	4975
3272.095	4920
3273.856	5025
3275.619	4937
3277.379	4936
3279.14	5042
3280.9	4977
3282.661	5060
3284.419	4944
3286.178	4999
3287.937	4961
3289.695	4891
3291.453	5036
3293.21	4884
3294.967	4910
3296.723	5077
3298.48	4911
3300.235	5009
3301.99	5085
3303.744	4875
3305.498	4985
3307.253	4945
3309.006	4949
3310.759	4933
3312.511	4848
3314.263	4958
3316.017	4970
3317.768	4944
3319.519	4990
3321.268	4846
3323.018	4992
3324.767	4869
3326.518	4957
3328.267	4971
3330.014	4953
3331.762	4874
3333.509	4953
3335.258	4936
3337.003	4785
3338.75	4939
3340.496	4846
3342.24	4887
3343.987	4878
3345.732	4914
3347.475	4827
3349.219	4890
3350.961	4904
3352.705	4858
3354.448	4827
3356.19	4888
3357.931	4867
3359.672	4916
3361.412	4876
3363.155	4810
3364.894	4844
3366.633	4863
3368.372	4816
3370.11	4847
3371.849	4799
3373.588	4851
3375.325	4781
3377.061	4769
3378.799	4722
3380.534	4766
3382.271	4797
3384.006	4815
3385.741	4809
3387.475	4819
3389.209	4814
3390.944	4790
3392.677	4733
3394.409	4791
3396.143	4799
3397.874	4773
3399.606	4746
3401.338	4715
3403.069	4664
3404.799	4742
3406.528	4726
3408.258	4653
3409.988	4835
3411.717	4646
3413.445	4657
3415.173	4625
3416.899	4720
3418.626	4740
3420.354	4744
3422.08	4791
3423.806	4612
3425.531	4715
3427.255	4652
3428.981	4661
3430.705	4637
3432.429	4637
3434.151	4691
3435.875	4710
3437.599	4617
3439.321	4644
3441.042	4603
3442.763	4643
3444.483	4585
3446.204	4625
3447.926	4629
3449.645	4630
3451.364	4567
3453.082	4524
3454.801	4548
3456.52	4611
3458.238	4581
3459.954	4538
3461.671	4571
3463.387	4479
3465.104	4579
3466.82	4513
3468.534	4542
3470.25	4547
3471.963	4584
3473.676	4501
3475.392	4461
3477.104	4440
3478.817	4532
3480.528	4462
3482.241	4483
3483.954	4505
3485.664	4446
3487.374	4498
3489.084	4416
3490.795	4442
3492.504	4501
3494.214	4525
3495.922	4469
3497.63	4369
3499.338	4509
3501.045	4384
3502.753	4390
3504.459	4444
3506.166	4464
3507.871	4470
3509.576	4359
3511.283	4413
3512.987	4400
3514.691	4369
3516.395	4335
3518.098	4395
3519.8	4384
3521.504	4472
3523.206	4326
3524.908	4347
3526.609	4415
3528.309	4294
3530.011	4289
3531.711	4329
3533.411	4267
3535.109	4319
3536.808	4395
3538.507	4327
3540.206	4307
3541.904	4303
3543.601	4268
3545.297	4255
3546.994	4318
3548.69	4313
3550.387	4241
3552.081	4259
3553.776	4354
3555.47	4224
3557.166	4240
3558.859	4213
3560.553	4239
3562.245	4309
3563.938	4238
3565.629	4343
3567.322	4249
3569.014	4198
3570.704	4163
3572.394	4217
3574.084	4221
3575.775	4206
3577.464	4170
3579.152	4156
3580.842	4165
3582.529	4150
3584.216	4209
3585.905	4218
3587.591	4122
3589.279	4151
3590.964	4193
3592.649	4164
3594.336	4202
3596.021	4060
3597.705	4086
3599.388	4160
3601.072	4179
3602.757	4137
3604.439	4114
3606.122	4113
3607.803	4157
3609.485	4024
3611.167	4009
3612.849	4122
3614.529	4095
3616.208	4082
3617.888	4045
3619.567	3999
3621.247	4065
3622.926	4032
3624.603	4035
3626.281	3983
3627.958	4022
3629.635	4008
3631.312	4095
3632.989	3984
3634.665	3970
3636.339	3967
3638.014	3928
3639.691	3927
3641.364	4014
3643.038	3899
3644.71	3953
3646.384	3954
3648.058	3954
3649.729	3955
3651.402	3959
3653.073	3971
3654.744	3949
3656.414	3936
3658.085	3964
3659.755	3955
3661.424	3898
3663.094	3896
3664.762	3894
3666.431	3827
3668.099	3864
3669.766	3867
3671.433	3855
3673.099	3885
3674.768	3905
3676.433	3862
3678.098	3919
3679.763	3821
3681.428	3952
3683.093	3824
3684.757	3839
3686.421	3870
3688.083	3854
3689.746	3818
3691.408	3834
3693.071	3857
3694.733	3905
3696.394	3768
3698.054	3859
3699.715	3876
3701.375	3763
3703.036	3889
3704.695	3775
3706.354	3797
3708.012	3756
3709.67	3770
3711.329	3838
3712.987	3841
3714.644	3796
3716.299	3707
3717.955	3775
3719.613	3799
3721.268	3780
3722.923	3713
3724.577	3762
3726.231	3787
3727.885	3778
3729.539	3735
3731.192	3714
3732.845	3879
3734.497	3778
3736.149	3757
3737.802	3792
3739.453	3726
3741.104	3684
3742.753	3696
3744.404	3786
3746.052	3698
3747.704	3793
3749.352	3768
3751	3757
3752.648	3768
3754.296	3693
3755.944	3735
3757.59	3768
3759.238	3745
3760.883	3692
3762.528	3685
3764.176	3642
3765.82	3712
3767.464	3777
3769.109	3671
3770.753	3774
3772.396	3690
3774.04	3696
3775.683	3646
3777.325	3764
3778.967	3647
3780.608	3632
3782.25	3681
3783.89	3577
3785.531	3649
3787.17	3600
3788.81	3621
3790.45	3561
3792.09	3656
3793.729	3596
3795.366	3537
3797.003	3621
3798.64	3713
3800.278	3628
3801.915	3573
3803.551	3622
3805.187	3630
3806.822	3616
3808.458	3565
3810.093	3621
3811.726	3593
3813.36	3586
3814.994	3573
3816.627	3546
3818.262	3657
3819.893	3663
3821.525	3558
3823.157	3549
3824.787	3540
3826.42	3564
3828.051	3560
3829.68	3555
3831.31	3614
3832.938	3568
3834.569	3532
3836.198	3548
3837.825	3433
3839.454	3498
3841.08	3469
3842.708	3568
3844.335	3477
3845.962	3521
3847.587	3481
3849.212	3483
3850.838	3504
3852.463	3465
3854.089	3538
3855.712	3540
3857.335	3450
3858.959	3492
3860.582	3455
3862.205	3591
3863.827	3470
3865.449	3495
3867.07	3488
3868.691	3427
3870.312	3469
3871.933	3497
3873.553	3505
3875.173	3485
3876.792	3456
3878.411	3413
3880.03	3560
3881.647	3473
3883.265	3436
3884.882	3527
3886.499	3409
3888.116	3420
3889.732	3476
3891.348	3443
3892.964	3405
3894.579	3432
3896.195	3429
3897.809	3400
3899.423	3425
3901.036	3484
3902.648	3449
3904.261	3374
3905.875	3384
3907.487	3407
3909.099	3465
3910.709	3421
3912.321	3440
3913.933	3425
3915.542	3427
3917.152	3399
3918.762	3406
3920.37	3412
3921.98	3337
3923.589	3371
3925.196	3355
3926.804	3405
3928.41	3428
3930.018	3374
3931.626	3362
3933.231	3325
3934.838	3314
3936.442	3477
3938.046	3442
3939.653	3364
3941.257	3312
3942.861	3391
3944.464	3391
3946.068	3320
3947.67	3329
3949.273	3432
3950.876	3322
3952.477	3266
3954.078	3354
3955.678	3224
3957.281	3312
3958.881	3319
3960.48	3344
3962.079	3342
3963.678	3254
3965.279	3314
3966.877	3299
3968.475	3317
3970.072	3326
3971.669	3270
3973.266	3265
3974.864	3244
3976.459	3306
3978.055	3266
3979.65	3333
3981.245	3254
3982.841	3300
3984.436	3294
3986.03	3255
3987.623	3272
3989.216	3271
3990.809	3263
3992.403	3200
3993.995	3262
3995.586	3234
3997.177	3236
3998.768	3207
4000.361	3245
4001.951	3249
4003.54	3212
4005.13	3220
4006.719	3174
4008.31	3260
4009.897	3162
4011.485	3215
4013.073	3147
4014.66	3068
4016.247	3168
4017.834	3117
4019.421	3132
4021.006	3140
4022.592	3185
4024.178	3227
4025.763	3114
4027.348	3137
4028.932	3115
4030.515	3136
4032.099	3108
4033.682	3095
4035.266	3129
4036.847	3078
4038.429	3038
4040.011	3122
4041.592	3120
4043.173	3042
4044.755	3126
4046.334	3059
4047.913	3052
4049.494	3087
4051.074	3095
4052.652	3049
4054.23	3066
4055.807	3025
4057.385	3094
4058.963	3091
4060.541	3042
4062.117	3084
4063.693	3070
4065.269	3064
4066.844	3093
4068.42	3071
4069.995	3053
4071.569	3013
4073.143	3034
4074.716	3024
4076.291	2998
4077.864	3080
4079.436	3053
4081.009	2995
4082.58	3071
4084.152	3040
4085.723	3048
4087.294	3027
4088.865	3002
4090.435	2986
4092.005	3038
4093.574	3066
4095.143	2971
4096.712	2953
4098.279	2981
4099.848	2996
4101.416	3056
4102.984	3020
4104.55	3010
4106.117	3028
4107.682	2994
4109.248	3001
4110.815	2970
4112.379	3002
4113.945	3006
4115.508	2917
4117.073	3024
4118.637	3034
4120.201	2940
4121.763	3024
4123.325	2950
4124.888	2960
4126.449	2895
4128.013	2984
4129.573	2923
4131.133	2973
4132.694	2954
4134.254	2932
4135.814	2926
4137.374	2885
4138.933	2897
4140.491	3000
4142.049	2844
4143.607	2866
4145.167	2922
4146.724	2973
4148.28	2939
4149.836	2919
4151.392	2829
4152.949	2936
4154.504	2846
4156.059	2808
4157.614	2914
4159.168	2871
4160.723	2864
4162.277	2892
4163.83	2855
4165.383	2933
4166.936	2825
4168.488	2841
4170.041	2878
4171.593	2856
4173.144	2877
4174.695	2811
4176.246	2782
4177.796	2827
4179.346	2823
4180.896	2810
4182.445	2806
4183.994	2813
4185.542	2865
4187.091	2771
4188.639	2873
4190.185	2773
4191.732	2788
4193.279	2811
4194.826	2851
4196.373	2776
4197.918	2762
4199.463	2795
4201.008	2730
4202.553	2833
4204.098	2764
4205.641	2781
4207.185	2779
4208.728	2773
4210.271	2767
4211.814	2793
4213.357	2809
4214.898	2756
4216.439	2721
4217.98	2680
4219.522	2809
4221.062	2792
4222.603	2790
4224.142	2751
4225.681	2716
4227.222	2771
4228.76	2703
4230.298	2780
4231.835	2701
4233.373	2686
4234.911	2755
4236.449	2782
4237.985	2734
4239.521	2748
4241.057	2708
4242.592	2731
4244.128	2645
4245.663	2682
4247.197	2637
4248.731	2691
4250.265	2752
4251.798	2702
4253.333	2683
4254.865	2748
4256.397	2766
4257.93	2689
4259.461	2651
4260.994	2686
4262.525	2642
4264.056	2675
4265.586	2700
4267.115	2765
4268.646	2739
4270.176	2656
4271.705	2700
4273.232	2687
4274.761	2663
4276.289	2655
4277.818	2712
4279.345	2703
4280.872	2677
4282.399	2577
4283.924	2709
4285.452	2609
4286.976	2661
4288.502	2607
4290.026	2640
4291.551	2584
4293.074	2662
4294.6	2646
4296.123	2631
4297.646	2638
4299.168	2644
4300.691	2662
4302.214	2584
4303.736	2580
4305.257	2636
4306.778	2604
4308.299	2621
4309.82	2655
4311.34	2670
4312.86	2601
4314.379	2563
