400.0745	5115
402.597	5194
405.1208	5322
407.6419	5279
410.1623	5253
412.6819	5264
415.201	5254
417.7172	5255
420.2369	5301
422.7538	5377
425.2701	5422
427.7856	5407
430.3005	5405
432.8147	5498
435.3282	5428
437.841	5341
440.3511	5459
442.8625	5444
445.3753	5503
447.8854	5521
450.3927	5549
452.9014	5538
455.4073	5539
457.9146	5612
460.4233	5483
462.9272	5553
465.4325	5663
467.935	5682
470.4389	5595
472.9421	5620
475.4446	5678
477.9444	5646
480.4456	5699
482.944	5743
485.4417	5597
487.9429	5756
490.4393	5783
492.935	5699
495.4321	5682
497.9264	5740
500.4221	5843
502.9171	5777
505.4094	5840
507.9011	5751
510.392	5826
512.8864	5823
515.3759	5915
517.8649	5942
520.3531	5875
522.8406	5854
525.3275	5755
527.8178	5792
530.3033	5828
532.7881	5813
535.2723	5850
537.7558	5838
540.2407	5795
542.7228	5836
545.2043	5876
547.6851	5868
550.1652	5820
552.6467	5892
555.1255	5830
557.6016	5873
560.079	5873
562.5557	6000
565.0318	5903
567.5092	6120
569.984	5986
572.456	6077
574.9294	5984
577.4022	6112
579.8762	6158
582.3456	6043
584.8163	5992
587.2863	6056
589.7557	6013
592.2224	6126
594.6924	6055
597.1578	6079
599.6245	6134
602.0905	6077
604.5538	6046
607.0206	6061
609.4825	6003
611.9459	5981
614.4066	6162
616.8686	6155
619.33	6088
621.7906	6061
624.2487	6092
626.708	6145
629.1647	6007
631.6207	6068
634.0801	6024
636.5348	6118
638.9888	6231
641.4442	6137
643.8969	6150
646.3509	6153
648.8022	6184
651.255	6272
653.705	6298
656.1544	6095
658.6031	6217
661.0532	6183
663.5026	6179
665.9493	6227
668.3954	6312
670.8409	6236
673.2877	6316
675.7318	6204
678.1752	6215
680.618	6319
683.0601	6319
685.5035	6327
687.9444	6248
690.3845	6392
692.824	6351
695.2628	6376
697.701	6421
700.1406	6435
702.5774	6348
705.0116	6467
707.4472	6283
709.8821	6356
712.3183	6371
714.7519	6395
717.1829	6422
719.6151	6373
722.0468	6486
724.4777	6351
726.908	6589
729.3377	6498
731.7667	6496
734.1931	6468
736.6208	6619
739.0498	6620
741.4742	6522
743.9	6616
746.3231	6723
748.7476	6707
751.1713	6729
753.5945	6767
756.015	6668
758.4368	6702
760.856	6763
763.2766	6797
765.6965	6815
768.1157	6686
770.5323	6818
772.9483	6786
775.3656	6760
777.7822	6863
780.1963	6749
782.6116	6845
785.0244	6908
787.4365	6833
789.8499	6767
792.2626	6779
794.6728	6807
797.0823	6900
799.4911	6778
801.8994	6796
804.3109	6877
806.7178	6905
809.124	6920
811.5297	6863
813.9347	6973
816.341	6821
818.7447	6869
821.1478	6952
823.5502	6964
825.952	6964
828.3531	6880
830.7556	6791
833.1554	6814
835.5546	6894
837.9532	6975
840.3511	6940
842.7504	7078
845.1451	6953
847.5411	6955
849.9365	7024
852.3312	6974
854.7272	7175
857.1187	6953
859.5115	7007
861.9037	6912
864.2952	6981
866.6842	7005
869.0764	6956
871.4661	7040
873.8531	6960
876.2415	7056
878.6272	7030
881.0162	6973
883.4026	6899
885.7866	7007
888.1717	7017
890.5543	6937
892.9382	6959
895.3215	6940
897.7041	6989
900.0842	7020
902.4655	6960
904.8443	6900
907.2244	6964
909.6039	7104
911.9808	7020
914.357	7097
916.7346	7057
919.1115	7170
921.4859	7224
923.8616	7178
926.2347	7267
928.6071	7202
930.979	7184
933.3541	7254
935.7247	7265
938.0946	7301
940.4639	7170
942.8326	7338
945.2026	7257
947.5701	7445
949.9369	7474
952.305	7448
954.6705	7506
957.0355	7640
959.4017	7837
961.7654	7800
964.1284	7991
966.4908	7708
968.8527	7718
971.2138	7606
973.5743	7359
975.9343	7394
978.2936	7219
980.6522	7288
983.0122	7269
985.3696	7274
987.7245	7172
990.0807	7148
992.4362	7118
994.7911	7341
997.1474	7271
999.4991	7054
1001.852	7221
1004.205	7225
1006.555	7265
1008.908	7169
1011.258	7285
1013.606	7153
1015.956	7245
1018.302	7238
1020.652	7257
1022.998	7275
1025.345	7276
1027.691	7347
1030.035	7363
1032.378	7322
1034.724	7225
1037.066	7250
1039.409	7381
1041.75	7433
1044.092	7297
1046.433	7187
1048.771	7338
1051.112	7331
1053.449	7194
1055.786	7333
1058.124	7357
1060.462	7487
1062.797	7321
1065.131	7387
1067.467	7474
1069.8	7343
1072.135	7507
1074.467	7286
1076.798	7572
1079.129	7335
1081.459	7333
1083.792	7416
1086.121	7413
1088.449	7357
1090.777	7399
1093.104	7394
1095.431	7354
1097.759	7427
1100.084	7335
1102.408	7448
1104.732	7440
1107.056	7453
1109.379	7392
1111.701	7494
1114.022	7583
1116.343	7549
1118.664	7567
1120.983	7515
1123.303	7338
1125.621	7410
1127.939	7503
1130.256	7556
1132.573	7615
1134.889	7547
1137.205	7592
1139.52	7404
1141.832	7636
1144.146	7470
1146.461	7438
1148.771	7425
1151.083	7551
1153.392	7554
1155.703	7605
1158.011	7568
1160.323	7425
1162.629	7439
1164.938	7441
1167.243	7485
1169.55	7429
1171.857	7558
1174.163	7516
1176.466	7468
1178.769	7412
1181.073	7597
1183.374	7445
1185.677	7433
1187.979	7466
1190.279	7498
1192.578	7553
1194.878	7500
1197.178	7446
1199.476	7388
1201.772	7537
1204.068	7470
1206.366	7556
1208.663	7525
1210.957	7553
1213.251	7550
1215.544	7485
1217.836	7664
1220.128	7530
1222.421	7489
1224.712	7579
1227.002	7578
1229.292	7676
1231.581	7559
1233.871	7679
1236.159	7640
1238.446	7582
1240.732	7789
1243.018	7768
1245.304	7707
1247.59	7594
1249.874	7740
1252.156	7679
1254.439	7649
1256.721	7758
1259.005	7723
1261.286	7794
1263.565	7657
1265.845	7689
1268.125	7711
1270.403	7785
1272.682	7799
1274.959	7807
1277.234	7621
1279.511	7784
1281.787	7715
1284.062	7715
1286.337	7698
1288.609	7805
1290.882	7656
1293.153	7614
1295.428	7714
1297.698	7729
1299.969	7721
1302.237	7726
1304.507	7615
1306.777	7643
1309.044	7612
1311.312	7627
1313.578	7602
1315.844	7646
1318.109	7712
1320.375	7627
1322.638	7647
1324.903	7672
1327.165	7618
1329.427	7566
1331.69	7723
1333.952	7779
1336.212	7663
1338.471	7648
1340.73	7820
1342.988	7476
1345.248	7511
1347.505	7749
1349.763	7733
1352.019	7539
1354.274	7525
1356.53	7720
1358.784	7604
1361.038	7556
1363.291	7642
1365.543	7592
1367.797	7773
1370.048	7746
1372.296	7641
1374.546	7724
1376.796	7643
1379.045	7749
1381.295	7794
1383.542	7776
1385.787	7690
1388.034	7704
1390.28	7615
1392.527	7781
1394.772	7692
1397.014	7763
1399.258	7818
1401.501	7779
1403.741	7807
1405.985	7795
1408.226	7694
1410.465	7796
1412.705	7870
1414.943	7875
1417.184	7867
1419.42	7780
1421.658	7876
1423.894	7822
1426.13	7943
1428.366	7764
1430.602	7925
1432.835	7798
1435.069	7904
1437.301	7932
1439.535	7879
1441.767	7931
1443.997	7985
1446.229	8042
1448.458	7913
1450.687	7957
1452.916	7868
1455.146	8014
1457.372	7959
1459.599	7953
1461.824	7990
1464.051	7949
1466.277	7942
1468.501	7811
1470.725	8001
1472.948	7862
1475.17	7861
1477.393	7915
1479.614	7905
1481.837	7868
1484.057	7798
1486.276	7803
1488.497	7666
1490.715	7817
1492.932	7811
1495.148	7755
1497.364	7801
1499.58	7697
1501.798	7713
1504.012	7698
1506.227	7670
1508.44	7613
1510.653	7664
1512.866	7725
1515.078	7780
1517.289	7752
1519.5	7823
1521.711	7726
1523.92	7787
1526.13	7669
1528.338	7658
1530.544	7733
1532.752	7715
1534.959	7649
1537.165	7778
1539.371	7781
1541.574	7795
1543.779	7694
1545.983	7840
1548.187	7868
1550.39	7773
1552.59	7807
1554.792	7808
1556.991	7733
1559.19	7882
1561.392	7918
1563.59	7849
1565.789	7842
1567.986	7793
1570.182	7863
1572.381	7771
1574.576	7886
1576.771	7947
1578.966	7957
1581.16	7900
1583.354	7892
1585.546	8047
1587.74	7895
1589.931	7962
1592.121	7966
1594.311	7920
1596.502	8041
1598.693	8102
1600.881	7977
1603.069	8015
1605.256	8063
1607.445	7958
1609.631	8005
1611.816	7960
1614.001	8066
1616.186	8024
1618.37	8064
1620.555	8025
1622.737	8011
1624.919	7972
1627.101	8039
1629.282	7988
1631.463	8049
1633.643	7950
1635.822	8094
1638.001	8156
1640.179	7984
1642.359	8058
1644.534	8071
1646.711	8056
1648.887	8017
1651.062	8137
1653.235	8188
1655.412	8224
1657.586	8070
1659.757	8182
1661.93	8116
1664.1	8068
1666.274	8135
1668.445	8026
1670.614	8105
1672.784	8123
1674.951	8049
1677.12	8025
1679.289	8131
1681.457	8024
1683.622	8051
1685.789	7982
1687.953	8125
1690.121	8006
1692.284	7972
1694.447	8022
1696.611	8040
1698.772	8104
1700.935	8022
1703.098	8026
1705.258	8047
1707.417	8173
1709.576	8118
1711.736	8139
1713.896	8035
1716.053	8016
1718.21	7931
1720.366	7970
1722.522	8035
1724.68	8173
1726.835	7909
1728.989	7979
1731.142	8160
1733.295	7942
1735.449	8113
1737.601	8047
1739.753	8093
1741.903	8104
1744.054	8197
1746.203	7996
1748.354	8147
1750.503	8179
1752.651	7966
1754.798	7954
1756.944	8005
1759.092	8070
1761.238	7946
1763.383	8125
1765.528	8065
1767.672	8084
1769.814	8058
1771.959	8060
1774.102	8017
1776.242	8127
1778.384	8120
1780.525	8102
1782.665	8151
1784.805	8094
1786.945	8179
1789.082	8172
1791.22	8132
1793.36	8188
1795.495	8103
1797.632	8119
1799.766	8145
1801.902	8138
1804.035	8184
1806.172	8092
1808.304	8089
1810.436	8046
1812.569	8196
1814.699	8194
1816.833	8160
1818.963	8136
1821.092	8140
1823.222	8188
1825.35	8226
1827.478	8267
1829.608	8142
1831.734	8106
1833.86	8194
1835.986	8120
1838.11	8193
1840.238	8292
1842.362	8147
1844.485	7994
1846.608	8142
1848.73	8166
1850.853	8154
1852.974	8114
1855.097	8049
1857.217	7890
1859.336	8166
1861.455	8014
1863.576	8022
1865.693	7973
1867.811	8162
1869.926	8207
1872.042	8104
1874.16	8179
1876.275	8224
1878.39	8154
1880.504	8183
1882.618	8114
1884.731	8127
1886.843	8210
1888.956	8243
1891.067	8161
1893.178	8091
1895.287	8086
1897.399	8216
1899.508	8265
1901.617	8142
1903.724	8159
1905.832	8238
1907.941	8188
1910.046	8152
1912.152	8260
1914.256	8254
1916.361	8271
1918.464	8264
1920.57	8323
1922.672	8273
1924.775	8135
1926.876	8247
1928.978	8330
1931.08	8321
1933.181	8326
1935.28	8336
1937.38	8295
1939.478	8237
1941.577	8421
1943.675	8247
1945.771	8255
1947.867	8371
1949.964	8358
1952.058	8321
1954.154	8300
1956.248	8327
1958.343	8325
1960.435	8217
1962.527	8312
1964.62	8270
1966.711	8299
1968.802	8334
1970.892	8174
1972.983	8292
1975.072	8308
1977.162	8258
1979.25	8139
1981.337	8195
1983.424	8328
1985.51	8183
1987.598	8307
1989.683	8363
1991.768	8312
1993.852	8187
1995.934	8277
1998.019	8254
2000.102	8248
2002.184	8199
2004.266	8257
2006.347	8174
2008.427	8256
2010.508	8219
2012.587	8241
2014.666	8137
2016.745	8289
2018.821	8351
2020.9	8195
2022.977	8290
2025.052	8189
2027.128	8243
2029.204	8225
2031.277	8184
2033.353	8245
2035.425	8259
2037.499	8199
2039.57	8115
2041.642	8292
2043.714	8414
2045.786	8355
2047.855	8159
2049.925	8282
2051.993	8154
2054.064	8270
2056.132	8341
2058.2	8303
2060.266	8136
2062.332	8264
2064.398	8400
2066.465	8290
2068.529	8291
2070.592	8283
2072.657	8425
2074.719	8296
2076.783	8273
2078.845	8217
2080.907	8263
2082.968	8237
2085.028	8264
2087.087	8377
2089.148	8383
2091.207	8286
2093.264	8213
2095.322	8457
2097.379	8305
2099.439	8259
2101.495	8284
2103.55	8302
2105.605	8210
2107.658	8365
2109.713	8260
2111.767	8206
2113.82	8275
2115.872	8353
2117.924	8391
2119.975	8319
2122.028	8188
2124.078	8413
2126.126	8223
2128.176	8262
2130.225	8296
2132.275	8219
2134.321	8190
2136.368	8394
2138.415	8300
2140.461	8259
2142.505	8289
2144.552	8186
2146.597	8335
2148.64	8216
2150.684	8203
2152.725	8341
2154.77	8315
2156.811	8451
2158.852	8285
2160.894	8328
2162.933	8231
2164.973	8193
2167.013	8245
2169.051	8090
2171.089	8248
2173.126	8231
2175.164	8302
2177.201	8180
2179.236	8168
2181.273	8397
2183.307	8252
2185.341	8249
2187.377	8186
2189.41	8248
2191.442	8225
2193.473	8300
2195.506	8071
2197.539	8075
2199.569	8119
2201.598	8068
2203.628	8212
2205.656	8235
2207.686	8003
2209.716	8154
2211.743	8189
2213.769	8204
2215.796	8037
2217.821	8142
2219.848	8146
2221.873	8214
2223.897	8035
2225.921	8155
2227.944	8060
2229.967	8071
2231.991	8042
2234.011	8195
2236.032	8145
2238.053	8214
2240.073	8073
2242.094	8063
2244.114	8032
2246.131	8136
2248.149	8014
2250.167	8049
2252.186	8015
2254.201	8039
2256.218	8243
2258.233	8291
2260.247	8100
2262.262	8094
2264.278	8104
2266.29	8103
2268.303	8187
2270.315	8101
2272.327	8166
2274.341	8136
2276.35	8153
2278.361	8206
2280.37	8032
2282.38	8073
2284.388	8190
2286.397	8131
2288.405	8112
2290.412	8068
2292.419	8136
2294.425	8174
2296.431	8052
2298.437	8174
2300.441	8066
2302.445	8075
2304.449	8043
2306.453	8201
2308.455	8070
2310.457	8043
2312.459	8147
2314.46	8154
2316.46	8157
2318.461	8108
2320.46	8086
2322.458	8119
2324.458	8007
2326.456	8002
2328.455	7903
2330.451	8072
2332.447	7891
2334.443	7995
2336.438	8017
2338.433	7879
2340.429	7872
2342.422	8031
2344.416	8081
2346.408	7950
2348.399	8094
2350.393	8180
2352.384	7886
2354.375	7942
2356.365	8044
2358.355	7864
2360.344	7972
2362.333	7940
2364.322	7838
2366.309	7896
2368.295	7929
2370.282	8004
2372.27	7960
2374.256	7771
2376.24	8012
2378.225	7874
2380.208	7886
2382.194	7832
2384.177	7877
2386.159	7834
2388.142	7866
2390.122	7814
2392.105	7864
2394.085	7880
2396.066	7878
2398.044	7862
2400.024	7946
2402.002	7789
2403.982	7815
2405.959	7806
2407.935	7818
2409.913	7823
2411.888	7787
2413.865	7814
2415.84	7740
2417.814	7711
2419.788	7880
2421.762	7791
2423.735	7776
2425.708	7856
2427.68	7751
2429.651	7865
2431.623	7735
2433.593	7776
2435.564	7766
2437.533	7783
2439.502	7867
2441.47	7808
2443.438	7825
2445.406	7689
2447.373	7655
2449.34	7895
2451.305	7726
2453.271	7700
2455.235	7762
2457.201	7788
2459.165	7795
2461.129	7812
2463.092	7619
2465.054	7768
2467.018	7580
2468.978	7764
2470.939	7615
2472.899	7638
2474.86	7712
2476.819	7690
2478.778	7729
2480.737	7614
2482.695	7737
2484.653	7563
2486.609	7620
2488.567	7570
2490.524	7692
2492.478	7675
2494.433	7695
2496.387	7511
2498.343	7723
2500.297	7625
2502.249	7543
2504.202	7602
2506.153	7737
2508.105	7621
2510.057	7610
2512.008	7615
2513.957	7606
2515.906	7699
2517.855	7553
2519.805	7609
2521.754	7620
2523.7	7688
2525.647	7503
2527.594	7485
2529.54	7549
2531.486	7561
2533.431	7604
2535.376	7522
2537.32	7531
2539.263	7559
2541.207	7525
2543.151	7539
2545.093	7455
2547.034	7558
2548.975	7530
2550.917	7439
2552.856	7567
2554.796	7576
2556.735	7493
2558.673	7471
2560.611	7529
2562.55	7426
2564.487	7597
2566.424	7614
2568.36	7536
2570.296	7511
2572.232	7442
2574.167	7577
2576.101	7358
2578.035	7398
2579.969	7518
2581.902	7487
2583.834	7519
2585.766	7485
2587.698	7415
2589.628	7435
2591.557	7338
2593.489	7507
2595.419	7581
2597.348	7339
2599.275	7548
2601.204	7553
2603.131	7550
2605.059	7351
2606.986	7480
2608.911	7519
2610.837	7397
2612.76	7462
2614.687	7362
2616.61	7531
2618.534	7391
2620.457	7483
2622.38	7393
2624.302	7480
2626.225	7476
2628.145	7378
2630.067	7395
2631.986	7423
2633.906	7477
2635.827	7492
2637.745	7367
2639.662	7562
2641.581	7464
2643.498	7483
2645.415	7379
2647.331	7409
2649.248	7358
2651.163	7377
2653.077	7434
2654.993	7432
2656.906	7416
2658.821	7444
2660.733	7538
2662.646	7520
2664.557	7371
2666.47	7413
2668.381	7318
2670.291	7286
2672.201	7391
2674.11	7339
2676.021	7286
2677.929	7403
2679.837	7335
2681.745	7430
2683.652	7304
2685.56	7328
2687.466	7189
2689.371	7348
2691.276	7226
2693.181	7149
2695.085	7212
2696.991	7333
2698.893	7340
2700.796	7267
2702.698	7238
2704.601	7264
2706.502	7209
2708.404	7166
2710.304	7216
2712.203	7220
2714.103	7274
2716.003	7239
2717.902	7222
2719.8	7288
2721.697	7147
2723.594	7182
2725.49	7238
2727.389	7152
2729.283	7271
2731.179	7172
2733.073	7182
2734.968	7245
2736.863	7132
2738.757	7308
2740.649	7033
2742.541	7132
2744.433	7146
2746.324	7091
2748.216	7030
2750.107	7096
2751.997	7080
2753.886	7095
2755.776	7090
2757.666	7193
2759.553	7014
2761.44	7134
2763.327	6894
2765.215	7113
2767.102	7121
2768.988	7211
2770.873	7090
2772.757	7093
2774.641	7028
2776.525	7012
2778.41	6996
2780.292	7007
2782.175	7137
2784.057	7080
2785.938	7049
2787.821	7068
2789.701	7068
2791.581	7087
2793.461	6901
2795.34	7019
2797.219	6987
2799.099	6986
2800.975	7021
2802.853	7001
2804.73	6932
2806.606	6990
2808.484	6977
2810.358	6942
2812.233	6957
2814.108	6985
2815.981	6938
2817.857	6927
2819.73	6919
2821.602	6996
2823.474	7002
2825.346	6995
2827.217	6967
2829.089	7075
2830.959	7060
2832.829	6938
2834.698	6933
2836.567	6846
2838.436	6889
2840.305	6936
2842.172	6940
2844.04	7023
2845.905	6984
2847.772	6956
2849.639	6963
2851.503	6955
2853.369	6993
2855.232	7027
2857.096	6961
2858.961	6863
2860.824	6956
2862.686	6933
2864.547	6954
2866.41	7033
2868.272	7022
2870.132	7043
2871.992	7061
2873.851	7106
2875.711	7074
2877.57	7006
2879.429	7101
2881.287	7169
2883.144	7061
2885.001	7102
2886.857	7178
2888.714	7185
2890.57	7265
2892.425	7076
2894.279	7140
2896.133	7122
2897.987	7141
2899.842	7109
2901.694	7122
2903.547	7209
2905.397	7155
2907.249	7229
2909.101	7186
2910.952	7088
2912.802	7139
2914.652	7114
2916.5	7111
2918.35	7245
2920.198	7275
2922.045	7257
2923.893	7266
2925.74	7297
2927.585	7309
2929.433	7242
2931.279	7283
2933.123	7340
2934.968	7413
2936.811	7382
2938.656	7414
2940.5	7385
2942.342	7538
2944.185	7424
2946.026	7502
2947.87	7374
2949.71	7405
2951.549	7421
2953.39	7359
2955.229	7352
2957.069	7269
2958.908	7275
2960.746	7399
2962.584	7233
2964.421	7082
2966.257	7266
2968.094	7007
2969.931	7098
2971.766	7008
2973.601	7032
2975.435	6991
2977.27	7064
2979.105	7013
2980.938	7087
2982.77	6967
2984.602	6913
2986.434	7030
2988.267	6982
2990.097	6926
2991.927	6924
2993.757	6716
2995.587	6881
2997.417	6841
2999.246	6774
3001.074	6665
3002.902	6847
3004.729	6822
3006.556	6671
3008.384	6598
3010.21	6678
3012.036	6648
3013.861	6552
3015.684	6503
3017.51	6575
3019.334	6529
3021.157	6524
3022.981	6474
3024.802	6467
3026.624	6488
3028.448	6480
3030.267	6440
3032.088	6366
3033.909	6453
3035.728	6433
3037.549	6386
3039.368	6447
3041.186	6381
3043.004	6458
3044.821	6425
3046.64	6461
3048.455	6416
3050.272	6412
3052.087	6319
3053.903	6267
3055.717	6396
3057.534	6288
3059.347	6447
3061.16	6430
3062.974	6371
3064.785	6299
3066.598	6400
3068.411	6316
3070.222	6324
3072.032	6397
3073.844	6303
3075.653	6344
3077.463	6287
3079.272	6221
3081.08	6413
3082.889	6337
3084.697	6194
3086.505	6271
3088.312	6205
3090.118	6315
3091.924	6154
3093.729	6179
3095.535	6233
3097.34	6184
3099.144	6164
3100.947	6158
3102.75	6103
3104.553	6175
3106.357	6128
3108.159	6173
3109.961	6219
3111.762	5999
3113.562	6129
3115.365	6166
3117.164	6155
3118.964	6043
3120.761	6104
3122.56	6031
3124.36	5976
3126.158	6088
3127.954	6140
3129.75	6074
3131.547	6079
3133.343	6074
3135.139	6010
3136.934	6087
3138.729	6079
3140.522	5941
3142.317	6088
3144.11	6005
3145.904	6039
3147.695	6028
3149.488	5918
3151.28	5991
3153.07	5973
3154.863	5975
3156.652	5987
3158.441	5934
3160.231	5946
3162.019	5934
3163.81	5897
3165.597	6055
3167.384	5917
3169.172	5940
3170.958	6039
3172.745	5970
3174.532	5894
3176.317	5939
3178.101	5963
3179.885	5880
3181.67	5918
3183.455	5990
3185.238	5942
3187.02	5865
3188.802	5988
3190.585	5846
3192.368	5804
3194.149	5987
3195.929	5898
3197.709	5825
3199.489	5840
3201.268	5930
3203.048	5823
3204.826	5935
3206.604	5818
3208.382	5802
3210.159	5925
3211.937	5820
3213.713	5813
3215.489	5747
3217.263	5813
3219.038	5816
3220.815	5862
3222.589	5839
3224.363	5711
3226.136	5732
3227.908	5787
3229.681	5836
3231.454	5855
3233.226	5792
3234.996	5757
3236.767	5764
3238.538	5820
3240.308	5826
3242.078	5818
3243.847	5835
3245.615	5860
3247.384	5754
3249.15	5899
3250.92	5772
3252.686	5871
3254.453	5732
3256.218	5749
3257.984	5728
3259.75	5636
3261.515	5780
3263.279	5689
3265.044	5824
3266.806	5655
3268.57	5765
3270.334	5814
3272.095	5651
3273.856	5737
3275.619	5738
3277.379	5707
3279.14	5750
3280.9	5779
3282.661	5745
3284.419	5747
3286.178	5692
3287.937	5788
3289.695	5700
3291.453	5732
3293.21	5723
3294.967	5839
3296.723	5787
3298.48	5685
3300.235	5740
3301.99	5738
3303.744	5639
3305.498	5748
3307.253	5715
3309.006	5728
3310.759	5593
3312.511	5753
3314.263	5802
3316.017	5617
3317.768	5678
3319.519	5684
3321.268	5656
3323.018	5615
3324.767	5746
3326.518	5644
3328.267	5573
3330.014	5708
3331.762	5735
3333.509	5679
3335.258	5717
3337.003	5632
3338.75	5674
3340.496	5581
3342.24	5568
3343.987	5656
3345.732	5683
3347.475	5646
3349.219	5658
3350.961	5591
3352.705	5630
3354.448	5727
3356.19	5550
3357.931	5587
3359.672	5631
3361.412	5658
3363.155	5608
3364.894	5618
3366.633	5518
3368.372	5597
3370.11	5697
3371.849	5584
3373.588	5536
3375.325	5643
3377.061	5631
3378.799	5621
3380.534	5586
3382.271	5573
3384.006	5519
3385.741	5548
3387.475	5506
3389.209	5553
3390.944	5493
3392.677	5596
3394.409	5529
3396.143	5526
3397.874	5508
3399.606	5503
3401.338	5565
3403.069	5518
3404.799	5299
3406.528	5468
3408.258	5497
3409.988	5511
3411.717	5446
3413.445	5474
3415.173	5468
3416.899	5492
3418.626	5492
3420.354	5510
3422.08	5506
3423.806	5525
3425.531	5497
3427.255	5532
3428.981	5501
3430.705	5402
3432.429	5372
3434.151	5519
3435.875	5448
3437.599	5339
3439.321	5470
3441.042	5437
3442.763	5424
3444.483	5206
3446.204	5431
3447.926	5285
3449.645	5373
3451.364	5327
3453.082	5244
3454.801	5414
3456.52	5342
3458.238	5340
3459.954	5303
3461.671	5399
3463.387	5330
3465.104	5315
3466.82	5206
3468.534	5362
3470.25	5214
3471.963	5346
3473.676	5184
3475.392	5315
3477.104	5378
3478.817	5219
3480.528	5257
3482.241	5309
3483.954	5212
3485.664	5177
3487.374	5171
3489.084	5292
3490.795	5260
3492.504	5199
3494.214	5165
3495.922	5267
3497.63	5133
3499.338	5146
3501.045	5223
3502.753	5235
3504.459	5159
3506.166	5310
3507.871	5237
3509.576	5059
3511.283	5247
3512.987	5144
3514.691	5062
3516.395	5193
3518.098	5173
3519.8	5083
3521.504	5166
3523.206	5162
3524.908	5130
3526.609	5153
3528.309	5157
3530.011	5126
3531.711	5125
3533.411	5194
3535.109	5096
3536.808	5077
3538.507	5111
3540.206	5103
3541.904	5041
3543.601	5013
3545.297	5066
3546.994	5088
3548.69	5138
3550.387	5009
3552.081	5130
3553.776	5087
3555.47	5087
3557.166	5073
3558.859	5075
3560.553	4972
3562.245	5015
3563.938	5042
3565.629	5008
3567.322	5008
3569.014	4959
3570.704	5016
3572.394	4988
3574.084	4955
3575.775	4994
3577.464	5111
3579.152	4989
3580.842	5026
3582.529	5054
3584.216	4966
3585.905	4939
3587.591	5072
3589.279	4914
3590.964	4960
3592.649	4985
3594.336	4927
3596.021	4883
3597.705	4842
3599.388	4942
3601.072	4870
3602.757	4815
3604.439	4869
3606.122	4840
3607.803	4868
3609.485	4859
3611.167	4815
3612.849	4868
3614.529	4892
3616.208	4819
3617.888	4852
3619.567	4796
3621.247	4789
3622.926	4914
3624.603	4794
3626.281	4878
3627.958	4817
3629.635	4816
3631.312	4762
3632.989	4759
3634.665	4781
3636.339	4795
3638.014	4842
3639.691	4844
3641.364	4831
3643.038	4768
3644.71	4806
3646.384	4845
3648.058	4797
3649.729	4801
3651.402	4728
3653.073	4786
3654.744	4783
3656.414	4719
3658.085	4640
3659.755	4804
3661.424	4781
3663.094	4696
3664.762	4687
3666.431	4779
3668.099	4608
3669.766	4644
3671.433	4736
3673.099	4800
3674.768	4726
3676.433	4633
3678.098	4661
3679.763	4660
3681.428	4734
3683.093	4670
3684.757	4567
3686.421	4645
3688.083	4722
3689.746	4694
3691.408	4662
3693.071	4686
3694.733	4721
3696.394	4679
3698.054	4534
3699.715	4599
3701.375	4687
3703.036	4656
3704.695	4688
3706.354	4566
3708.012	4596
3709.67	4649
3711.329	4592
3712.987	4652
3714.644	4697
3716.299	4584
3717.955	4532
3719.613	4506
3721.268	4624
3722.923	4576
3724.577	4616
3726.231	4570
3727.885	4598
3729.539	4634
3731.192	4597
3732.845	4492
3734.497	4559
3736.149	4645
3737.802	4585
3739.453	4579
3741.104	4537
3742.753	4498
3744.404	4539
3746.052	4571
3747.704	4525
3749.352	4531
3751	4425
3752.648	4497
3754.296	4488
3755.944	4490
3757.59	4450
3759.238	4500
3760.883	4551
3762.528	4645
3764.176	4470
3765.82	4475
3767.464	4503
3769.109	4434
3770.753	4518
3772.396	4422
3774.04	4524
3775.683	4418
3777.325	4483
3778.967	4345
3780.608	4425
3782.25	4481
3783.89	4496
3785.531	4396
3787.17	4349
3788.81	4483
3790.45	4485
3792.09	4448
3793.729	4408
3795.366	4338
3797.003	4368
3798.64	4326
3800.278	4359
3801.915	4397
3803.551	4431
3805.187	4365
3806.822	4479
3808.458	4374
3810.093	4330
3811.726	4298
3813.36	4351
3814.994	4283
3816.627	4274
3818.262	4395
3819.893	4347
3821.525	4298
3823.157	4287
3824.787	4371
3826.42	4288
3828.051	4370
3829.68	4232
3831.31	4229
3832.938	4272
3834.569	4269
3836.198	4151
3837.825	4317
3839.454	4233
3841.08	4312
3842.708	4252
3844.335	4256
3845.962	4197
3847.587	4278
3849.212	4174
3850.838	4350
3852.463	4207
3854.089	4187
3855.712	4282
3857.335	4223
3858.959	4170
3860.582	4182
3862.205	4300
3863.827	4209
3865.449	4192
3867.07	4132
3868.691	4147
3870.312	4221
3871.933	4137
3873.553	4032
3875.173	4192
3876.792	4169
3878.411	4194
3880.03	4140
3881.647	4081
3883.265	4119
3884.882	4255
3886.499	4245
3888.116	4060
3889.732	4109
3891.348	4171
3892.964	4115
3894.579	4161
3896.195	4077
3897.809	4033
3899.423	4093
3901.036	4098
3902.648	4151
3904.261	4145
3905.875	4213
3907.487	4138
3909.099	4086
3910.709	4058
3912.321	4141
3913.933	4069
3915.542	4041
3917.152	4005
3918.762	4081
3920.37	4144
3921.98	4068
3923.589	4069
3925.196	4153
3926.804	3989
3928.41	3954
3930.018	4055
3931.626	4107
3933.231	4141
3934.838	4039
3936.442	4146
3938.046	4054
3939.653	4080
3941.257	4041
3942.861	4043
3944.464	3924
3946.068	4115
3947.67	3954
3949.273	3927
3950.876	4038
3952.477	4066
3954.078	3925
3955.678	3982
3957.281	3978
3958.881	3993
3960.48	3961
3962.079	4063
3963.678	4076
3965.279	3989
3966.877	4041
3968.475	3905
3970.072	3989
3971.669	3914
3973.266	3910
3974.864	3973
3976.459	3973
3978.055	3897
3979.65	3945
3981.245	3898
3982.841	3986
3984.436	3895
3986.03	3816
3987.623	3889
3989.216	3862
3990.809	3864
3992.403	3890
3993.995	3723
3995.586	3816
3997.177	3812
3998.768	3849
4000.361	3886
4001.951	3863
4003.54	3822
4005.13	3738
4006.719	3817
4008.31	3794
4009.897	3827
4011.485	3801
4013.073	3834
4014.66	3807
4016.247	3767
4017.834	3652
4019.421	3815
4021.006	3777
4022.592	3719
4024.178	3763
4025.763	3804
4027.348	3779
4028.932	3722
4030.515	3772
4032.099	3706
4033.682	3723
4035.266	3722
4036.847	3707
4038.429	3691
4040.011	3772
4041.592	3669
4043.173	3662
4044.755	3718
4046.334	3705
4047.913	3645
4049.494	3759
4051.074	3582
4052.652	3715
4054.23	3697
4055.807	3658
4057.385	3633
4058.963	3724
4060.541	3653
4062.117	3701
4063.693	3665
4065.269	3667
4066.844	3614
4068.42	3625
4069.995	3675
4071.569	3620
4073.143	3661
4074.716	3633
4076.291	3597
4077.864	3550
4079.436	3589
4081.009	3625
4082.58	3619
4084.152	3583
4085.723	3516
4087.294	3647
4088.865	3569
4090.435	3552
4092.005	3631
4093.574	3650
4095.143	3587
4096.712	3519
4098.279	3566
4099.848	3510
4101.416	3588
4102.984	3605
4104.55	3521
4106.117	3547
4107.682	3599
4109.248	3546
4110.815	3547
4112.379	3512
4113.945	3577
4115.508	3563
4117.073	3521
4118.637	3499
4120.201	3514
4121.763	3455
4123.325	3524
4124.888	3532
4126.449	3517
4128.013	3484
4129.573	3508
4131.133	3445
4132.694	3390
4134.254	3479
4135.814	3457
4137.374	3487
4138.933	3420
4140.491	3373
4142.049	3429
4143.607	3408
4145.167	3384
4146.724	3409
4148.28	3486
4149.836	3407
4151.392	3394
4152.949	3401
4154.504	3381
4156.059	3380
4157.614	3399
4159.168	3378
4160.723	3370
4162.277	3391
4163.83	3389
4165.383	3350
4166.936	3290
4168.488	3349
4170.041	3387
4171.593	3313
4173.144	3313
4174.695	3318
4176.246	3345
4177.796	3381
4179.346	3353
4180.896	3311
4182.445	3301
4183.994	3268
4185.542	3328
4187.091	3282
4188.639	3356
4190.185	3356
4191.732	3257
4193.279	3274
4194.826	3356
4196.373	3261
4197.918	3257
4199.463	3263
4201.008	3294
4202.553	3256
4204.098	3285
4205.641	3159
4207.185	3254
4208.728	3232
4210.271	3215
4211.814	3271
4213.357	3188
4214.898	3254
4216.439	3185
4217.98	3227
4219.522	3211
4221.062	3212
4222.603	3225
4224.142	3195
4225.681	3156
4227.222	3234
4228.76	3251
4230.298	3207
4231.835	3193
4233.373	3220
4234.911	3236
4236.449	3210
4237.985	3145
4239.521	3257
4241.057	3185
4242.592	3241
4244.128	3120
4245.663	3163
4247.197	3222
4248.731	3207
4250.265	3173
4251.798	3192
4253.333	3128
4254.865	3120
4256.397	3120
4257.93	3164
4259.461	3164
4260.994	3150
4262.525	3150
4264.056	3197
4265.586	3135
4267.115	3110
4268.646	3178
4270.176	3146
4271.705	3125
4273.232	3104
4274.761	3100
4276.289	3138
4277.818	3123
4279.345	3109
4280.872	3029
4282.399	3080
4283.924	3208
4285.452	3095
4286.976	3108
4288.502	3142
4290.026	3087
4291.551	3031
4293.074	3163
4294.6	3082
4296.123	3088
4297.646	3097
4299.168	3050
4300.691	3069
4302.214	3093
4303.736	3030
4305.257	3119
4306.778	3022
4308.299	3092
4309.82	3094
4311.34	2994
4312.86	3029
4314.379	3023
