400.0745	4097
402.597	4151
405.1208	4139
407.6419	4118
410.1623	4191
412.6819	4182
415.201	4186
417.7172	4251
420.2369	4295
422.7538	4401
425.2701	4360
427.7856	4386
430.3005	4514
432.8147	4433
435.3282	4501
437.841	4441
440.3511	4407
442.8625	4437
445.3753	4525
447.8854	4519
450.3927	4543
452.9014	4497
455.4073	4435
457.9146	4349
460.4233	4432
462.9272	4452
465.4325	4473
467.935	4393
470.4389	4412
472.9421	4359
475.4446	4327
477.9444	4289
480.4456	4404
482.944	4313
485.4417	4370
487.9429	4441
490.4393	4412
492.935	4445
495.4321	4502
497.9264	4430
500.4221	4438
502.9171	4503
505.4094	4518
507.9011	4433
510.392	4510
512.8864	4478
515.3759	4515
517.8649	4573
520.3531	4548
522.8406	4491
525.3275	4508
527.8178	4554
530.3033	4595
532.7881	4547
535.2723	4554
537.7558	4540
540.2407	4587
542.7228	4538
545.2043	4539
547.6851	4631
550.1652	4625
552.6467	4686
555.1255	4578
557.6016	4618
560.079	4703
562.5557	4594
565.0318	4591
567.5092	4671
569.984	4614
572.456	4695
574.9294	4772
577.4022	4724
579.8762	4791
582.3456	4799
584.8163	4814
587.2863	4891
589.7557	4798
592.2224	4897
594.6924	4885
597.1578	4793
599.6245	4797
602.0905	4743
604.5538	4738
607.0206	4601
609.4825	4726
611.9459	4847
614.4066	4647
616.8686	4705
619.33	4792
621.7906	4688
624.2487	4663
626.708	4741
629.1647	4651
631.6207	4692
634.0801	4713
636.5348	4694
638.9888	4597
641.4442	4749
643.8969	4717
646.3509	4683
648.8022	4667
651.255	4748
653.705	4679
656.1544	4695
658.6031	4742
661.0532	4769
663.5026	4672
665.9493	4736
668.3954	4724
670.8409	4763
673.2877	4758
675.7318	4773
678.1752	4821
680.618	4807
683.0601	4879
685.5035	4774
687.9444	4935
690.3845	4796
692.824	4961
695.2628	4849
697.701	4886
700.1406	4919
702.5774	4851
705.0116	4836
707.4472	4874
709.8821	4915
712.3183	5038
714.7519	4936
717.1829	4962
719.6151	4898
722.0468	4914
724.4777	5088
726.908	4982
729.3377	4959
731.7667	5032
734.1931	5011
736.6208	4918
739.0498	5135
741.4742	5045
743.9	5041
746.3231	5042
748.7476	5176
751.1713	5152
753.5945	5114
756.015	5165
758.4368	5260
760.856	5122
763.2766	5200
765.6965	5158
768.1157	5148
770.5323	5235
772.9483	5163
775.3656	5196
777.7822	5192
780.1963	5251
782.6116	5188
785.0244	5173
787.4365	5188
789.8499	5252
792.2626	5309
794.6728	5183
797.0823	5216
799.4911	5282
801.8994	5229
804.3109	5249
806.7178	5264
809.124	5182
811.5297	5243
813.9347	5236
816.341	5255
818.7447	5299
821.1478	5374
823.5502	5290
825.952	5253
828.3531	5368
830.7556	5240
833.1554	5251
835.5546	5221
837.9532	5304
840.3511	5338
842.7504	5341
845.1451	5410
847.5411	5295
849.9365	5478
852.3312	5375
854.7272	5494
857.1187	5482
859.5115	5394
861.9037	5376
864.2952	5499
866.6842	5468
869.0764	5458
871.4661	5389
873.8531	5402
876.2415	5500
878.6272	5479
881.0162	5394
883.4026	5392
885.7866	5349
888.1717	5396
890.5543	5357
892.9382	5502
895.3215	5469
897.7041	5424
900.0842	5328
902.4655	5444
904.8443	5392
907.2244	5337
909.6039	5420
911.9808	5334
914.357	5519
916.7346	5494
919.1115	5569
921.4859	5817
923.8616	5642
926.2347	5635
928.6071	5686
930.979	5666
933.3541	5769
935.7247	5767
938.0946	5812
940.4639	5849
942.8326	5990
945.2026	6131
947.5701	6189
949.9369	6485
952.305	6639
954.6705	6967
957.0355	7419
959.4017	7868
961.7654	8024
964.1284	8034
966.4908	7678
968.8527	7159
971.2138	6870
973.5743	6319
975.9343	6206
978.2936	5995
980.6522	5830
983.0122	5700
985.3696	5631
987.7245	5665
990.0807	5716
992.4362	5538
994.7911	5600
997.1474	5632
999.4991	5688
1001.852	5665
1004.205	5742
1006.555	5737
1008.908	5730
1011.258	5706
1013.606	5680
1015.956	5654
1018.302	5624
1020.652	5780
1022.998	5637
1025.345	5672
1027.691	5683
1030.035	5756
1032.378	5916
1034.724	5673
1037.066	5783
1039.409	5779
1041.75	5733
1044.092	5837
1046.433	5690
1048.771	5798
1051.112	5799
1053.449	5831
1055.786	5822
1058.124	5814
1060.462	5731
1062.797	5869
1065.131	5788
1067.467	5923
1069.8	5925
1072.135	5922
1074.467	6053
1076.798	6041
1079.129	6014
1081.459	5954
1083.792	5887
1086.121	5747
1088.449	5973
1090.777	5793
1093.104	5685
1095.431	5652
1097.759	5804
1100.084	5817
1102.408	5762
1104.732	5728
1107.056	5730
1109.379	5706
1111.701	5682
1114.022	5687
1116.343	5788
1118.664	5719
1120.983	5686
1123.303	5720
1125.621	5603
1127.939	5676
1130.256	5770
1132.573	5702
1134.889	5657
1137.205	5795
1139.52	5640
1141.832	5778
1144.146	5682
1146.461	5660
1148.771	5675
1151.083	5610
1153.392	5699
1155.703	5623
1158.011	5736
1160.323	5775
1162.629	5703
1164.938	5846
1167.243	5761
1169.55	5723
1171.857	5659
1174.163	5691
1176.466	5764
1178.769	5669
1181.073	5694
1183.374	5670
1185.677	5715
1187.979	5823
1190.279	5730
1192.578	5695
1194.878	5745
1197.178	5613
1199.476	5775
1201.772	5672
1204.068	5777
1206.366	5744
1208.663	5721
1210.957	5674
1213.251	5736
1215.544	5700
1217.836	5740
1220.128	5763
1222.421	5735
1224.712	5798
1227.002	5872
1229.292	5815
1231.581	5799
1233.871	6049
1236.159	5968
1238.446	5872
1240.732	5903
1243.018	5965
1245.304	5996
1247.59	5952
1249.874	5953
1252.156	5959
1254.439	5963
1256.721	6098
1259.005	5958
1261.286	5904
1263.565	5999
1265.845	5938
1268.125	6041
1270.403	5988
1272.682	5945
1274.959	5981
1277.234	5983
1279.511	5935
1281.787	6034
1284.062	5874
1286.337	5952
1288.609	5952
1290.882	5939
1293.153	5866
1295.428	5947
1297.698	5983
1299.969	5742
1302.237	5834
1304.507	5782
1306.777	5780
1309.044	5886
1311.312	5817
1313.578	5777
1315.844	5843
1318.109	5912
1320.375	5876
1322.638	5862
1324.903	5927
1327.165	5794
1329.427	5878
1331.69	5896
1333.952	5844
1336.212	5892
1338.471	5867
1340.73	5957
1342.988	5938
1345.248	5824
1347.505	5810
1349.763	5846
1352.019	5881
1354.274	5889
1356.53	5847
1358.784	5793
1361.038	5873
1363.291	5715
1365.543	5843
1367.797	5871
1370.048	5849
1372.296	5819
1374.546	5839
1376.796	5859
1379.045	5884
1381.295	5825
1383.542	5885
1385.787	5889
1388.034	5773
1390.28	5942
1392.527	5828
1394.772	5899
1397.014	5900
1399.258	5772
1401.501	5992
1403.741	5908
1405.985	5967
1408.226	6026
1410.465	5944
1412.705	5888
1414.943	5961
1417.184	6136
1419.42	5968
1421.658	5956
1423.894	6081
1426.13	6007
1428.366	6000
1430.602	5989
1432.835	6116
1435.069	6019
1437.301	5932
1439.535	6101
1441.767	6074
1443.997	6040
1446.229	6187
1448.458	6264
1450.687	6153
1452.916	6180
1455.146	6232
1457.372	6238
1459.599	6154
1461.824	6287
1464.051	6229
1466.277	6179
1468.501	6219
1470.725	6048
1472.948	6027
1475.17	5971
1477.393	6029
1479.614	5975
1481.837	5994
1484.057	5909
1486.276	5878
1488.497	5830
1490.715	5872
1492.932	5801
1495.148	5792
1497.364	5912
1499.58	5768
1501.798	5817
1504.012	5844
1506.227	5776
1508.44	5827
1510.653	5731
1512.866	5857
1515.078	5761
1517.289	5881
1519.5	5752
1521.711	5763
1523.92	5723
1526.13	5788
1528.338	5825
1530.544	5860
1532.752	5852
1534.959	5818
1537.165	5801
1539.371	5831
1541.574	5836
1543.779	5883
1545.983	5749
1548.187	5933
1550.39	5809
1552.59	5923
1554.792	5854
1556.991	5853
1559.19	5772
1561.392	5896
1563.59	5910
1565.789	5983
1567.986	5953
1570.182	5883
1572.381	5927
1574.576	6033
1576.771	5947
1578.966	5951
1581.16	5901
1583.354	5899
1585.546	5997
1587.74	5897
1589.931	5871
1592.121	5952
1594.311	5873
1596.502	6018
1598.693	5931
1600.881	5944
1603.069	5925
1605.256	5982
1607.445	5970
1609.631	5985
1611.816	6164
1614.001	6114
1616.186	6054
1618.37	6058
1620.555	6026
1622.737	6120
1624.919	6060
1627.101	6072
1629.282	6037
1631.463	6066
1633.643	6119
1635.822	6170
1638.001	6100
1640.179	6260
1642.359	6107
1644.534	6143
1646.711	6076
1648.887	6208
1651.062	6170
1653.235	6199
1655.412	6221
1657.586	6204
1659.757	6361
1661.93	6251
1664.1	6305
1666.274	6140
1668.445	6172
1670.614	6257
1672.784	6270
1674.951	6328
1677.12	6176
1679.289	6213
1681.457	6219
1683.622	6176
1685.789	6185
1687.953	6091
1690.121	6181
1692.284	6130
1694.447	6111
1696.611	6141
1698.772	6022
1700.935	6026
1703.098	6041
1705.258	5895
1707.417	5906
1709.576	6101
1711.736	6013
1713.896	5887
1716.053	5930
1718.21	5878
1720.366	5909
1722.522	5924
1724.68	5980
1726.835	5903
1728.989	5976
1731.142	5905
1733.295	5933
1735.449	5952
1737.601	6047
1739.753	5894
1741.903	5926
1744.054	5923
1746.203	5985
1748.354	5920
1750.503	5920
1752.651	6067
1754.798	6030
1756.944	5963
1759.092	5951
1761.238	5968
1763.383	5922
1765.528	6039
1767.672	5923
1769.814	5940
1771.959	5924
1774.102	6032
1776.242	6030
1778.384	6032
1780.525	6041
1782.665	6016
1784.805	5939
1786.945	6100
1789.082	5932
1791.22	6052
1793.36	6028
1795.495	6042
1797.632	6135
1799.766	6047
1801.902	6029
1804.035	5950
1806.172	6042
1808.304	6060
1810.436	5947
1812.569	5997
1814.699	6093
1816.833	5977
1818.963	6002
1821.092	6030
1823.222	6092
1825.35	5959
1827.478	5954
1829.608	5934
1831.734	5965
1833.86	5988
1835.986	5852
1838.11	5887
1840.238	5977
1842.362	6000
1844.485	6003
1846.608	6027
1848.73	5895
1850.853	5955
1852.974	5916
1855.097	5825
1857.217	5908
1859.336	5974
1861.455	5871
1863.576	5869
1865.693	6038
1867.811	5892
1869.926	5875
1872.042	5911
1874.16	5894
1876.275	5863
1878.39	5876
1880.504	5971
1882.618	5962
1884.731	5901
1886.843	6018
1888.956	5928
1891.067	5978
1893.178	5921
1895.287	5900
1897.399	6015
1899.508	5990
1901.617	6018
1903.724	5987
1905.832	5902
1907.941	5975
1910.046	5954
1912.152	6009
1914.256	6069
1916.361	6089
1918.464	6076
1920.57	6064
1922.672	5937
1924.775	5960
1926.876	6039
1928.978	5965
1931.08	6012
1933.181	6086
1935.28	5986
1937.38	5892
1939.478	5956
1941.577	6050
1943.675	5961
1945.771	6016
1947.867	6051
1949.964	6033
1952.058	6020
1954.154	6022
1956.248	6038
1958.343	5919
1960.435	6032
1962.527	5978
1964.62	6000
1966.711	6023
1968.802	6058
1970.892	5938
1972.983	5965
1975.072	5992
1977.162	5937
1979.25	6104
1981.337	5987
1983.424	5973
1985.51	5924
1987.598	5872
1989.683	5995
1991.768	5995
1993.852	5912
1995.934	5904
1998.019	5963
2000.102	5929
2002.184	5923
2004.266	5968
2006.347	5804
2008.427	5919
2010.508	5974
2012.587	5941
2014.666	6018
2016.745	5914
2018.821	5969
2020.9	5965
2022.977	5899
2025.052	5969
2027.128	5892
2029.204	5895
2031.277	5928
2033.353	5953
2035.425	5926
2037.499	5962
2039.57	5839
2041.642	5866
2043.714	5891
2045.786	5938
2047.855	5906
2049.925	5911
2051.993	5936
2054.064	5955
2056.132	5931
2058.2	5957
2060.266	5963
2062.332	5962
2064.398	6010
2066.465	5878
2068.529	5913
2070.592	5853
2072.657	5971
2074.719	5995
2076.783	6036
2078.845	5951
2080.907	5915
2082.968	5930
2085.028	5831
2087.087	6010
2089.148	5954
2091.207	5908
2093.264	5950
2095.322	5933
2097.379	5977
2099.439	5843
2101.495	6012
2103.55	5925
2105.605	5960
2107.658	5913
2109.713	5872
2111.767	5852
2113.82	5914
2115.872	5981
2117.924	5996
2119.975	5920
2122.028	5871
2124.078	5973
2126.126	5944
2128.176	5835
2130.225	6041
2132.275	5842
2134.321	5878
2136.368	5999
2138.415	5971
2140.461	5873
2142.505	6054
2144.552	5984
2146.597	5984
2148.64	5833
2150.684	5905
2152.725	5860
2154.77	5881
2156.811	5898
2158.852	5942
2160.894	5803
2162.933	5867
2164.973	5902
2167.013	5871
2169.051	5897
2171.089	5852
2173.126	5813
2175.164	5839
2177.201	5858
2179.236	5881
2181.273	5861
2183.307	5752
2185.341	5891
2187.377	5909
2189.41	5795
2191.442	5806
2193.473	5876
2195.506	5792
2197.539	5867
2199.569	5788
2201.598	5766
2203.628	5930
2205.656	5860
2207.686	5763
2209.716	5741
2211.743	5715
2213.769	5794
2215.796	5821
2217.821	5799
2219.848	5722
2221.873	5713
2223.897	5746
2225.921	5838
2227.944	5737
2229.967	5770
2231.991	5759
2234.011	5768
2236.032	5813
2238.053	5650
2240.073	5722
2242.094	5735
2244.114	5753
2246.131	5709
2248.149	5847
2250.167	5884
2252.186	5613
2254.201	5853
2256.218	5762
2258.233	5702
2260.247	5714
2262.262	5748
2264.278	5744
2266.29	5766
2268.303	5811
2270.315	5748
2272.327	5715
2274.341	5762
2276.35	5657
2278.361	5767
2280.37	5703
2282.38	5736
2284.388	5777
2286.397	5737
2288.405	5752
2290.412	5710
2292.419	5772
2294.425	5678
2296.431	5684
2298.437	5760
2300.441	5722
2302.445	5667
2304.449	5751
2306.453	5718
2308.455	5718
2310.457	5720
2312.459	5747
2314.46	5684
2316.46	5705
2318.461	5722
2320.46	5765
2322.458	5733
2324.458	5735
2326.456	5600
2328.455	5689
2330.451	5711
2332.447	5726
2334.443	5614
2336.438	5591
2338.433	5705
2340.429	5759
2342.422	5657
2344.416	5644
2346.408	5757
2348.399	5556
2350.393	5680
2352.384	5634
2354.375	5727
2356.365	5588
2358.355	5529
2360.344	5589
2362.333	5673
2364.322	5639
2366.309	5602
2368.295	5658
2370.282	5643
2372.27	5653
2374.256	5645
2376.24	5653
2378.225	5519
2380.208	5707
2382.194	5596
2384.177	5466
2386.159	5583
2388.142	5508
2390.122	5533
2392.105	5628
2394.085	5484
2396.066	5627
2398.044	5500
2400.024	5635
2402.002	5572
2403.982	5546
2405.959	5515
2407.935	5570
2409.913	5495
2411.888	5615
2413.865	5602
2415.84	5505
2417.814	5494
2419.788	5575
2421.762	5509
2423.735	5492
2425.708	5637
2427.68	5486
2429.651	5551
2431.623	5495
2433.593	5557
2435.564	5505
2437.533	5552
2439.502	5539
2441.47	5439
2443.438	5463
2445.406	5603
2447.373	5417
2449.34	5631
2451.305	5467
2453.271	5589
2455.235	5544
2457.201	5544
2459.165	5461
2461.129	5474
2463.092	5429
2465.054	5548
2467.018	5462
2468.978	5602
2470.939	5340
2472.899	5478
2474.86	5357
2476.819	5491
2478.778	5449
2480.737	5515
2482.695	5426
2484.653	5469
2486.609	5406
2488.567	5474
2490.524	5485
2492.478	5481
2494.433	5514
2496.387	5473
2498.343	5436
2500.297	5345
2502.249	5462
2504.202	5448
2506.153	5461
2508.105	5477
2510.057	5372
2512.008	5472
2513.957	5352
2515.906	5338
2517.855	5413
2519.805	5393
2521.754	5474
2523.7	5468
2525.647	5364
2527.594	5370
2529.54	5391
2531.486	5456
2533.431	5513
2535.376	5443
2537.32	5355
2539.263	5357
2541.207	5459
2543.151	5351
2545.093	5394
2547.034	5395
2548.975	5396
2550.917	5303
2552.856	5464
2554.796	5475
2556.735	5441
2558.673	5436
2560.611	5343
2562.55	5401
2564.487	5488
2566.424	5366
2568.36	5407
2570.296	5374
2572.232	5419
2574.167	5326
2576.101	5339
2578.035	5407
2579.969	5470
2581.902	5481
2583.834	5274
2585.766	5469
2587.698	5288
2589.628	5466
2591.557	5415
2593.489	5477
2595.419	5401
2597.348	5353
2599.275	5286
2601.204	5447
2603.131	5319
2605.059	5406
2606.986	5417
2608.911	5419
2610.837	5431
2612.76	5426
2614.687	5466
2616.61	5429
2618.534	5371
2620.457	5550
2622.38	5427
2624.302	5460
2626.225	5254
2628.145	5370
2630.067	5350
2631.986	5466
2633.906	5383
2635.827	5420
2637.745	5381
2639.662	5443
2641.581	5322
2643.498	5421
2645.415	5478
2647.331	5364
2649.248	5397
2651.163	5372
2653.077	5438
2654.993	5428
2656.906	5358
2658.821	5472
2660.733	5381
2662.646	5415
2664.557	5341
2666.47	5367
2668.381	5323
2670.291	5350
2672.201	5259
2674.11	5354
2676.021	5496
2677.929	5299
2679.837	5447
2681.745	5428
2683.652	5367
2685.56	5372
2687.466	5306
2689.371	5381
2691.276	5409
2693.181	5437
2695.085	5345
2696.991	5317
2698.893	5293
2700.796	5249
2702.698	5401
2704.601	5336
2706.502	5352
2708.404	5275
2710.304	5252
2712.203	5246
2714.103	5383
2716.003	5300
2717.902	5307
2719.8	5331
2721.697	5457
2723.594	5323
2725.49	5447
2727.389	5279
2729.283	5260
2731.179	5271
2733.073	5315
2734.968	5333
2736.863	5285
2738.757	5270
2740.649	5301
2742.541	5240
2744.433	5262
2746.324	5335
2748.216	5237
2750.107	5372
2751.997	5296
2753.886	5261
2755.776	5249
2757.666	5239
2759.553	5191
2761.44	5241
2763.327	5257
2765.215	5259
2767.102	5311
2768.988	5268
2770.873	5288
2772.757	5231
2774.641	5231
2776.525	5321
2778.41	5277
2780.292	5209
2782.175	5224
2784.057	5247
2785.938	5214
2787.821	5228
2789.701	5145
2791.581	5343
2793.461	5251
2795.34	5179
2797.219	5254
2799.099	5081
2800.975	5230
2802.853	5203
2804.73	5170
2806.606	5137
2808.484	5117
2810.358	5266
2812.233	5170
2814.108	5036
2815.981	5100
2817.857	5167
2819.73	5178
2821.602	5205
2823.474	5119
2825.346	5117
2827.217	5175
2829.089	5220
2830.959	5250
2832.829	5189
2834.698	5229
2836.567	5136
2838.436	5204
2840.305	5176
2842.172	5268
2844.04	5297
2845.905	5329
2847.772	5241
2849.639	5257
2851.503	5215
2853.369	5241
2855.232	5298
2857.096	5329
2858.961	5266
2860.824	5346
2862.686	5382
2864.547	5443
2866.41	5439
2868.272	5403
2870.132	5460
2871.992	5641
2873.851	5655
2875.711	5700
2877.57	5727
2879.429	5737
2881.287	5760
2883.144	5896
2885.001	5850
2886.857	5921
2888.714	5816
2890.57	5846
2892.425	5833
2894.279	5850
2896.133	5897
2897.987	5889
2899.842	5743
2901.694	5886
2903.547	5697
2905.397	5771
2907.249	5831
2909.101	5868
2910.952	5824
2912.802	5867
2914.652	5980
2916.5	5985
2918.35	6114
2920.198	6138
2922.045	6215
2923.893	6330
2925.74	6382
2927.585	6380
2929.433	6441
2931.279	6451
2933.123	6677
2934.968	6710
2936.811	6669
2938.656	6806
2940.5	6890
2942.342	6907
2944.185	6967
2946.026	6881
2947.87	7128
2949.71	6772
2951.549	6793
2953.39	6767
2955.229	6600
2957.069	6586
2958.908	6418
2960.746	6533
2962.584	6392
2964.421	6374
2966.257	6376
2968.094	6279
2969.931	6154
2971.766	6278
2973.601	6126
2975.435	6164
2977.27	6038
2979.105	5958
2980.938	6085
2982.77	6078
2984.602	5975
2986.434	5948
2988.267	5988
2990.097	5987
2991.927	5805
2993.757	5789
2995.587	5828
2997.417	5773
2999.246	5751
3001.074	5659
3002.902	5504
3004.729	5532
3006.556	5476
3008.384	5363
3010.21	5310
3012.036	5308
3013.861	5265
3015.684	5200
3017.51	5164
3019.334	5205
3021.157	5084
3022.981	5173
3024.802	5049
3026.624	5091
3028.448	5021
3030.267	5070
3032.088	4972
3033.909	4941
3035.728	4943
3037.549	4875
3039.368	4898
3041.186	5010
3043.004	4954
3044.821	5031
3046.64	4863
3048.455	4959
3050.272	4884
3052.087	4857
3053.903	5022
3055.717	4859
3057.534	4986
3059.347	4950
3061.16	4950
3062.974	4861
3064.785	5001
3066.598	4872
3068.411	4939
3070.222	4922
3072.032	5002
3073.844	4912
3075.653	4873
3077.463	4885
3079.272	4908
3081.08	4844
3082.889	4899
3084.697	4889
3086.505	4820
3088.312	4803
3090.118	4873
3091.924	4782
3093.729	4877
3095.535	4831
3097.34	4789
3099.144	4691
3100.947	4822
3102.75	4698
3104.553	4961
3106.357	4751
3108.159	4804
3109.961	4759
3111.762	4704
3113.562	4663
3115.365	4772
3117.164	4683
3118.964	4756
3120.761	4761
3122.56	4756
3124.36	4685
3126.158	4704
3127.954	4777
3129.75	4696
3131.547	4704
3133.343	4659
3135.139	4693
3136.934	4581
3138.729	4650
3140.522	4676
3142.317	4705
3144.11	4650
3145.904	4714
3147.695	4737
3149.488	4737
3151.28	4586
3153.07	4658
3154.863	4667
3156.652	4632
3158.441	4639
3160.231	4780
3162.019	4642
3163.81	4668
3165.597	4718
3167.384	4704
3169.172	4582
3170.958	4616
3172.745	4672
3174.532	4677
3176.317	4657
3178.101	4626
3179.885	4543
3181.67	4639
3183.455	4589
3185.238	4587
3187.02	4612
3188.802	4575
3190.585	4634
3192.368	4710
3194.149	4637
3195.929	4632
3197.709	4616
3199.489	4591
3201.268	4556
3203.048	4654
3204.826	4594
3206.604	4675
3208.382	4674
3210.159	4569
3211.937	4686
3213.713	4608
3215.489	4569
3217.263	4661
3219.038	4632
3220.815	4600
3222.589	4517
3224.363	4573
3226.136	4633
3227.908	4589
3229.681	4608
3231.454	4619
3233.226	4604
3234.996	4617
3236.767	4678
3238.538	4633
3240.308	4627
3242.078	4605
3243.847	4635
3245.615	4564
3247.384	4579
3249.15	4647
3250.92	4617
3252.686	4567
3254.453	4667
3256.218	4666
3257.984	4644
3259.75	4574
3261.515	4621
3263.279	4608
3265.044	4682
3266.806	4616
3268.57	4579
3270.334	4634
3272.095	4635
3273.856	4665
3275.619	4692
3277.379	4598
3279.14	4642
3280.9	4557
3282.661	4635
3284.419	4729
3286.178	4650
3287.937	4666
3289.695	4685
3291.453	4604
3293.21	4701
3294.967	4716
3296.723	4622
3298.48	4677
3300.235	4573
3301.99	4677
3303.744	4644
3305.498	4543
3307.253	4650
3309.006	4619
3310.759	4702
3312.511	4585
3314.263	4593
3316.017	4649
3317.768	4634
3319.519	4550
3321.268	4786
3323.018	4675
3324.767	4617
3326.518	4616
3328.267	4696
3330.014	4706
3331.762	4604
3333.509	4668
3335.258	4705
3337.003	4612
3338.75	4585
3340.496	4557
3342.24	4605
3343.987	4685
3345.732	4613
3347.475	4590
3349.219	4543
3350.961	4485
3352.705	4565
3354.448	4553
3356.19	4557
3357.931	4602
3359.672	4499
3361.412	4597
3363.155	4501
3364.894	4622
3366.633	4482
3368.372	4557
3370.11	4531
3371.849	4535
3373.588	4529
3375.325	4440
3377.061	4611
3378.799	4460
3380.534	4512
3382.271	4505
3384.006	4517
3385.741	4397
3387.475	4455
3389.209	4439
3390.944	4499
3392.677	4485
3394.409	4433
3396.143	4448
3397.874	4490
3399.606	4523
3401.338	4440
3403.069	4488
3404.799	4461
3406.528	4533
3408.258	4345
3409.988	4381
3411.717	4478
3413.445	4445
3415.173	4495
3416.899	4485
3418.626	4445
3420.354	4463
3422.08	4412
3423.806	4384
3425.531	4383
3427.255	4291
3428.981	4438
3430.705	4426
3432.429	4401
3434.151	4421
3435.875	4376
3437.599	4374
3439.321	4382
3441.042	4383
3442.763	4452
3444.483	4323
3446.204	4339
3447.926	4372
3449.645	4279
3451.364	4417
3453.082	4338
3454.801	4302
3456.52	4324
3458.238	4310
3459.954	4295
3461.671	4244
3463.387	4255
3465.104	4265
3466.82	4273
3468.534	4172
3470.25	4192
3471.963	4258
3473.676	4198
3475.392	4225
3477.104	4216
3478.817	4224
3480.528	4144
3482.241	4091
3483.954	4200
3485.664	4212
3487.374	4142
3489.084	4136
3490.795	4169
3492.504	4201
3494.214	4222
3495.922	4162
3497.63	4095
3499.338	4152
3501.045	4125
3502.753	4134
3504.459	4092
3506.166	4146
3507.871	4136
3509.576	4028
3511.283	4054
3512.987	4058
3514.691	4067
3516.395	4107
3518.098	4084
3519.8	4042
3521.504	4000
3523.206	4086
3524.908	4059
3526.609	4129
3528.309	4118
3530.011	4073
3531.711	4054
3533.411	4054
3535.109	4069
3536.808	4022
3538.507	3925
3540.206	3975
3541.904	4025
3543.601	4030
3545.297	4001
3546.994	3945
3548.69	3929
3550.387	3970
3552.081	3982
3553.776	4004
3555.47	3933
3557.166	3925
3558.859	3936
3560.553	3877
3562.245	3871
3563.938	3901
3565.629	3979
3567.322	3913
3569.014	3932
3570.704	3996
3572.394	3966
3574.084	3946
3575.775	3929
3577.464	3882
3579.152	3893
3580.842	3965
3582.529	3817
3584.216	3816
3585.905	3898
3587.591	3914
3589.279	3824
3590.964	3876
3592.649	3735
3594.336	3899
3596.021	3814
3597.705	3787
3599.388	3806
3601.072	3808
3602.757	3795
3604.439	3794
3606.122	3770
3607.803	3775
3609.485	3802
3611.167	3744
3612.849	3849
3614.529	3744
3616.208	3752
3617.888	3723
3619.567	3729
3621.247	3621
3622.926	3695
3624.603	3783
3626.281	3749
3627.958	3686
3629.635	3705
3631.312	3708
3632.989	3628
3634.665	3715
3636.339	3647
3638.014	3604
3639.691	3638
3641.364	3727
3643.038	3614
3644.71	3728
3646.384	3622
3648.058	3625
3649.729	3646
3651.402	3598
3653.073	3531
3654.744	3621
3656.414	3595
3658.085	3624
3659.755	3579
3661.424	3543
3663.094	3586
3664.762	3625
3666.431	3519
3668.099	3595
3669.766	3567
3671.433	3596
3673.099	3542
3674.768	3644
3676.433	3587
3678.098	3544
3679.763	3662
3681.428	3531
3683.093	3599
3684.757	3511
3686.421	3502
3688.083	3476
3689.746	3471
3691.408	3526
3693.071	3468
3694.733	3563
3696.394	3552
3698.054	3514
3699.715	3432
3701.375	3542
3703.036	3529
3704.695	3502
3706.354	3566
3708.012	3378
3709.67	3518
3711.329	3532
3712.987	3509
3714.644	3448
3716.299	3435
3717.955	3471
3719.613	3486
3721.268	3403
3722.923	3530
3724.577	3457
3726.231	3464
3727.885	3475
3729.539	3479
3731.192	3496
3732.845	3452
3734.497	3470
3736.149	3448
3737.802	3526
3739.453	3430
3741.104	3427
3742.753	3418
3744.404	3465
3746.052	3449
3747.704	3478
3749.352	3457
3751	3447
3752.648	3337
3754.296	3389
3755.944	3419
3757.59	3353
3759.238	3433
3760.883	3429
3762.528	3357
3764.176	3373
3765.82	3299
3767.464	3439
3769.109	3414
3770.753	3365
3772.396	3326
3774.04	3433
3775.683	3382
3777.325	3330
3778.967	3366
3780.608	3357
3782.25	3362
3783.89	3337
3785.531	3446
3787.17	3304
3788.81	3386
3790.45	3320
3792.09	3294
3793.729	3434
3795.366	3357
3797.003	3307
3798.64	3363
3800.278	3275
3801.915	3377
3803.551	3342
3805.187	3323
3806.822	3238
3808.458	3287
3810.093	3267
3811.726	3245
3813.36	3359
3814.994	3289
3816.627	3318
3818.262	3202
3819.893	3286
3821.525	3350
3823.157	3268
3824.787	3209
3826.42	3211
3828.051	3171
3829.68	3246
3831.31	3298
3832.938	3289
3834.569	3230
3836.198	3301
3837.825	3248
3839.454	3252
3841.08	3222
3842.708	3194
3844.335	3296
3845.962	3220
3847.587	3269
3849.212	3291
3850.838	3269
3852.463	3272
3854.089	3105
3855.712	3248
3857.335	3182
3858.959	3225
3860.582	3276
3862.205	3229
3863.827	3191
3865.449	3220
3867.07	3122
3868.691	3198
3870.312	3243
3871.933	3137
3873.553	3198
3875.173	3209
3876.792	3189
3878.411	3100
3880.03	3161
3881.647	3191
3883.265	3151
3884.882	3139
3886.499	3211
3888.116	3173
3889.732	3166
3891.348	3140
3892.964	3186
3894.579	3131
3896.195	3151
3897.809	3104
3899.423	3134
3901.036	3117
3902.648	3168
3904.261	3099
3905.875	3139
3907.487	3140
3909.099	3126
3910.709	3041
3912.321	3134
3913.933	3116
3915.542	3175
3917.152	3086
3918.762	3125
3920.37	3122
3921.98	3124
3923.589	3250
3925.196	3108
3926.804	3046
3928.41	3176
3930.018	3034
3931.626	3180
3933.231	3013
3934.838	3068
3936.442	3094
3938.046	3080
3939.653	3140
3941.257	3068
3942.861	3144
3944.464	3105
3946.068	3078
3947.67	3125
3949.273	3055
3950.876	3059
3952.477	3065
3954.078	3138
3955.678	3102
3957.281	3055
3958.881	3058
3960.48	3061
3962.079	3121
3963.678	3038
3965.279	3019
3966.877	2989
3968.475	3066
3970.072	3153
3971.669	3082
3973.266	3038
3974.864	3038
3976.459	3053
3978.055	2976
3979.65	2984
3981.245	3036
3982.841	3048
3984.436	2994
3986.03	3027
3987.623	3050
3989.216	2984
3990.809	2994
3992.403	2972
3993.995	3001
3995.586	3024
3997.177	2976
3998.768	2964
4000.361	2949
4001.951	2986
4003.54	3037
4005.13	2987
4006.719	3003
4008.31	2922
4009.897	2955
4011.485	2939
4013.073	2891
4014.66	2904
4016.247	2926
4017.834	2986
4019.421	2939
4021.006	2931
4022.592	2876
4024.178	2959
4025.763	2906
4027.348	2886
4028.932	2929
4030.515	2984
4032.099	2870
4033.682	2920
4035.266	2948
4036.847	2913
4038.429	2904
4040.011	2892
4041.592	2880
4043.173	2923
4044.755	2884
4046.334	2894
4047.913	2844
4049.494	2860
4051.074	2892
4052.652	2940
4054.23	2878
4055.807	2847
4057.385	2834
4058.963	2817
4060.541	2851
4062.117	2887
4063.693	2768
4065.269	2855
4066.844	2824
4068.42	2791
4069.995	2889
4071.569	2810
4073.143	2830
4074.716	2819
4076.291	2853
4077.864	2771
4079.436	2845
4081.009	2833
4082.58	2748
4084.152	2859
4085.723	2798
4087.294	2810
4088.865	2771
4090.435	2798
4092.005	2833
4093.574	2781
4095.143	2787
4096.712	2783
4098.279	2816
4099.848	2815
4101.416	2780
4102.984	2762
4104.55	2752
4106.117	2755
4107.682	2808
4109.248	2755
4110.815	2759
4112.379	2719
4113.945	2711
4115.508	2751
4117.073	2752
4118.637	2738
4120.201	2765
4121.763	2756
4123.325	2814
4124.888	2800
4126.449	2747
4128.013	2780
4129.573	2707
4131.133	2773
4132.694	2722
4134.254	2752
4135.814	2709
4137.374	2740
4138.933	2644
4140.491	2667
4142.049	2740
4143.607	2774
4145.167	2663
4146.724	2660
4148.28	2670
4149.836	2693
4151.392	2687
4152.949	2689
4154.504	2713
4156.059	2714
4157.614	2644
4159.168	2644
4160.723	2655
4162.277	2630
4163.83	2691
4165.383	2720
4166.936	2660
4168.488	2644
4170.041	2687
4171.593	2614
4173.144	2672
4174.695	2609
4176.246	2672
4177.796	2607
4179.346	2653
4180.896	2647
4182.445	2657
4183.994	2661
4185.542	2652
4187.091	2555
4188.639	2620
4190.185	2592
4191.732	2665
4193.279	2617
4194.826	2640
4196.373	2592
4197.918	2630
4199.463	2599
4201.008	2613
4202.553	2626
4204.098	2569
4205.641	2633
4207.185	2654
4208.728	2601
4210.271	2581
4211.814	2562
4213.357	2629
4214.898	2590
4216.439	2577
4217.98	2520
4219.522	2614
4221.062	2541
4222.603	2603
4224.142	2587
4225.681	2537
4227.222	2615
4228.76	2505
4230.298	2611
4231.835	2566
4233.373	2570
4234.911	2580
4236.449	2535
4237.985	2522
4239.521	2542
4241.057	2609
4242.592	2530
4244.128	2540
4245.663	2624
4247.197	2605
4248.731	2460
4250.265	2563
4251.798	2540
4253.333	2511
4254.865	2563
4256.397	2504
4257.93	2549
4259.461	2491
4260.994	2505
4262.525	2532
4264.056	2482
4265.586	2541
4267.115	2495
4268.646	2484
4270.176	2551
4271.705	2467
4273.232	2521
4274.761	2526
4276.289	2557
4277.818	2446
4279.345	2493
4280.872	2459
4282.399	2487
4283.924	2507
4285.452	2500
4286.976	2469
4288.502	2436
4290.026	2501
4291.551	2548
4293.074	2464
4294.6	2462
4296.123	2514
4297.646	2431
4299.168	2445
4300.691	2430
4302.214	2449
4303.736	2485
4305.257	2457
4306.778	2454
4308.299	2490
4309.82	2468
4311.34	2496
4312.86	2374
4314.379	2521
