400.0745	4568
402.597	4647
405.1208	4665
407.6419	4634
410.1623	4624
412.6819	4610
415.201	4675
417.7172	4716
420.2369	4759
422.7538	4911
425.2701	4867
427.7856	4971
430.3005	5105
432.8147	5006
435.3282	4995
437.841	5058
440.3511	4980
442.8625	5074
445.3753	4980
447.8854	4956
450.3927	5018
452.9014	4954
455.4073	5011
457.9146	5052
460.4233	4924
462.9272	5054
465.4325	4954
467.935	4974
470.4389	4863
472.9421	4906
475.4446	4963
477.9444	4932
480.4456	4912
482.944	4951
485.4417	4999
487.9429	5011
490.4393	5005
492.935	4935
495.4321	4991
497.9264	5143
500.4221	5040
502.9171	4970
505.4094	5086
507.9011	5015
510.392	5072
512.8864	5094
515.3759	5062
517.8649	5068
520.3531	5069
522.8406	5122
525.3275	5064
527.8178	5127
530.3033	5129
532.7881	5170
535.2723	5211
537.7558	5167
540.2407	5066
542.7228	5060
545.2043	5082
547.6851	5092
550.1652	5186
552.6467	5208
555.1255	5101
557.6016	5109
560.079	5224
562.5557	5222
565.0318	5189
567.5092	5281
569.984	5221
572.456	5335
574.9294	5397
577.4022	5306
579.8762	5336
582.3456	5426
584.8163	5483
587.2863	5499
589.7557	5424
592.2224	5450
594.6924	5450
597.1578	5313
599.6245	5316
602.0905	5379
604.5538	5389
607.0206	5437
609.4825	5316
611.9459	5354
614.4066	5381
616.8686	5365
619.33	5328
621.7906	5277
624.2487	5321
626.708	5321
629.1647	5284
631.6207	5270
634.0801	5229
636.5348	5261
638.9888	5342
641.4442	5298
643.8969	5260
646.3509	5300
648.8022	5279
651.255	5337
653.705	5268
656.1544	5378
658.6031	5303
661.0532	5316
663.5026	5405
665.9493	5349
668.3954	5469
670.8409	5380
673.2877	5389
675.7318	5415
678.1752	5400
680.618	5478
683.0601	5407
685.5035	5541
687.9444	5427
690.3845	5476
692.824	5484
695.2628	5450
697.701	5447
700.1406	5530
702.5774	5438
705.0116	5486
707.4472	5512
709.8821	5581
712.3183	5487
714.7519	5528
717.1829	5564
719.6151	5683
722.0468	5544
724.4777	5586
726.908	5638
729.3377	5640
731.7667	5673
734.1931	5779
736.6208	5576
739.0498	5743
741.4742	5720
743.9	5712
746.3231	5728
748.7476	5810
751.1713	5756
753.5945	5849
756.015	5915
758.4368	5819
760.856	5878
763.2766	5796
765.6965	5749
768.1157	5827
770.5323	5924
772.9483	5930
775.3656	5951
777.7822	5823
780.1963	5878
782.6116	5779
785.0244	5709
787.4365	5934
789.8499	5842
792.2626	5963
794.6728	5799
797.0823	5923
799.4911	5894
801.8994	5924
804.3109	5943
806.7178	5945
809.124	5952
811.5297	5999
813.9347	5965
816.341	5973
818.7447	6000
821.1478	5997
823.5502	5869
825.952	6120
828.3531	5955
830.7556	5995
833.1554	6005
835.5546	6047
837.9532	6058
840.3511	6069
842.7504	6061
845.1451	6024
847.5411	6073
849.9365	6189
852.3312	6145
854.7272	6094
857.1187	6156
859.5115	6137
861.9037	6114
864.2952	6107
866.6842	6084
869.0764	6106
871.4661	6152
873.8531	6153
876.2415	6128
878.6272	6057
881.0162	6101
883.4026	6193
885.7866	6079
888.1717	6197
890.5543	6108
892.9382	6149
895.3215	6165
897.7041	6055
900.0842	6056
902.4655	6019
904.8443	6069
907.2244	6163
909.6039	6200
911.9808	6186
914.357	6307
916.7346	6393
919.1115	6271
921.4859	6292
923.8616	6467
926.2347	6575
928.6071	6430
930.979	6368
933.3541	6392
935.7247	6479
938.0946	6586
940.4639	6795
942.8326	6651
945.2026	6845
947.5701	6915
949.9369	7203
952.305	7473
954.6705	7899
957.0355	8126
959.4017	8498
961.7654	8761
964.1284	8538
966.4908	8333
968.8527	7929
971.2138	7431
973.5743	7220
975.9343	6738
978.2936	6734
980.6522	6636
983.0122	6615
985.3696	6372
987.7245	6394
990.0807	6279
992.4362	6412
994.7911	6293
997.1474	6313
999.4991	6336
1001.852	6449
1004.205	6422
1006.555	6330
1008.908	6380
1011.258	6519
1013.606	6375
1015.956	6320
1018.302	6343
1020.652	6375
1022.998	6369
1025.345	6366
1027.691	6386
1030.035	6442
1032.378	6421
1034.724	6502
1037.066	6644
1039.409	6491
1041.75	6503
1044.092	6450
1046.433	6577
1048.771	6523
1051.112	6502
1053.449	6466
1055.786	6612
1058.124	6467
1060.462	6502
1062.797	6655
1065.131	6558
1067.467	6592
1069.8	6672
1072.135	6651
1074.467	6709
1076.798	6868
1079.129	6562
1081.459	6533
1083.792	6528
1086.121	6465
1088.449	6516
1090.777	6493
1093.104	6445
1095.431	6371
1097.759	6391
1100.084	6545
1102.408	6443
1104.732	6468
1107.056	6477
1109.379	6478
1111.701	6468
1114.022	6547
1116.343	6480
1118.664	6436
1120.983	6388
1123.303	6432
1125.621	6438
1127.939	6522
1130.256	6432
1132.573	6471
1134.889	6495
1137.205	6390
1139.52	6399
1141.832	6498
1144.146	6316
1146.461	6366
1148.771	6461
1151.083	6514
1153.392	6337
1155.703	6419
1158.011	6500
1160.323	6439
1162.629	6556
1164.938	6385
1167.243	6405
1169.55	6495
1171.857	6422
1174.163	6465
1176.466	6459
1178.769	6414
1181.073	6400
1183.374	6404
1185.677	6412
1187.979	6522
1190.279	6489
1192.578	6409
1194.878	6467
1197.178	6446
1199.476	6425
1201.772	6538
1204.068	6490
1206.366	6573
1208.663	6475
1210.957	6393
1213.251	6571
1215.544	6448
1217.836	6484
1220.128	6494
1222.421	6420
1224.712	6618
1227.002	6578
1229.292	6636
1231.581	6566
1233.871	6598
1236.159	6752
1238.446	6644
1240.732	6811
1243.018	6755
1245.304	6707
1247.59	6822
1249.874	6837
1252.156	6799
1254.439	6731
1256.721	6820
1259.005	6697
1261.286	6668
1263.565	6690
1265.845	6805
1268.125	6765
1270.403	6651
1272.682	6727
1274.959	6743
1277.234	6759
1279.511	6708
1281.787	6732
1284.062	6626
1286.337	6732
1288.609	6701
1290.882	6627
1293.153	6652
1295.428	6668
1297.698	6621
1299.969	6610
1302.237	6684
1304.507	6682
1306.777	6611
1309.044	6565
1311.312	6615
1313.578	6636
1315.844	6593
1318.109	6592
1320.375	6546
1322.638	6572
1324.903	6618
1327.165	6566
1329.427	6497
1331.69	6602
1333.952	6602
1336.212	6404
1338.471	6605
1340.73	6692
1342.988	6569
1345.248	6625
1347.505	6718
1349.763	6612
1352.019	6568
1354.274	6483
1356.53	6707
1358.784	6526
1361.038	6614
1363.291	6541
1365.543	6643
1367.797	6577
1370.048	6507
1372.296	6665
1374.546	6558
1376.796	6586
1379.045	6639
1381.295	6651
1383.542	6728
1385.787	6663
1388.034	6703
1390.28	6677
1392.527	6646
1394.772	6637
1397.014	6644
1399.258	6734
1401.501	6747
1403.741	6729
1405.985	6753
1408.226	6738
1410.465	6642
1412.705	6819
1414.943	6676
1417.184	6744
1419.42	6766
1421.658	6790
1423.894	6847
1426.13	6800
1428.366	6835
1430.602	6709
1432.835	6794
1435.069	6882
1437.301	6864
1439.535	6885
1441.767	6933
1443.997	6900
1446.229	6878
1448.458	6910
1450.687	6865
1452.916	6971
1455.146	7064
1457.372	7059
1459.599	6948
1461.824	6928
1464.051	6975
1466.277	6930
1468.501	6926
1470.725	6918
1472.948	6702
1475.17	6854
1477.393	6789
1479.614	6602
1481.837	6681
1484.057	6662
1486.276	6570
1488.497	6591
1490.715	6619
1492.932	6612
1495.148	6504
1497.364	6577
1499.58	6685
1501.798	6557
1504.012	6540
1506.227	6448
1508.44	6501
1510.653	6460
1512.866	6508
1515.078	6568
1517.289	6547
1519.5	6579
1521.711	6369
1523.92	6690
1526.13	6518
1528.338	6496
1530.544	6551
1532.752	6527
1534.959	6445
1537.165	6458
1539.371	6489
1541.574	6484
1543.779	6618
1545.983	6564
1548.187	6553
1550.39	6671
1552.59	6596
1554.792	6680
1556.991	6608
1559.19	6655
1561.392	6690
1563.59	6663
1565.789	6608
1567.986	6734
1570.182	6722
1572.381	6755
1574.576	6650
1576.771	6705
1578.966	6612
1581.16	6737
1583.354	6717
1585.546	6734
1587.74	6725
1589.931	6669
1592.121	6777
1594.311	6698
1596.502	6778
1598.693	6750
1600.881	6739
1603.069	6723
1605.256	6755
1607.445	6729
1609.631	6838
1611.816	6797
1614.001	6845
1616.186	6745
1618.37	6794
1620.555	6798
1622.737	6825
1624.919	6764
1627.101	6800
1629.282	6944
1631.463	6865
1633.643	7085
1635.822	6907
1638.001	6862
1640.179	6881
1642.359	6845
1644.534	6957
1646.711	6884
1648.887	6882
1651.062	6907
1653.235	6954
1655.412	6886
1657.586	6969
1659.757	6923
1661.93	7040
1664.1	7028
1666.274	6972
1668.445	7052
1670.614	7016
1672.784	6941
1674.951	7016
1677.12	6883
1679.289	7027
1681.457	7042
1683.622	6887
1685.789	6920
1687.953	6934
1690.121	6986
1692.284	6883
1694.447	6837
1696.611	6859
1698.772	6699
1700.935	6815
1703.098	6711
1705.258	6803
1707.417	6642
1709.576	6680
1711.736	6729
1713.896	6758
1716.053	6712
1718.21	6712
1720.366	6676
1722.522	6756
1724.68	6603
1726.835	6689
1728.989	6646
1731.142	6636
1733.295	6598
1735.449	6776
1737.601	6544
1739.753	6675
1741.903	6755
1744.054	6714
1746.203	6707
1748.354	6468
1750.503	6759
1752.651	6663
1754.798	6571
1756.944	6676
1759.092	6697
1761.238	6780
1763.383	6676
1765.528	6645
1767.672	6809
1769.814	6729
1771.959	6741
1774.102	6678
1776.242	6831
1778.384	6725
1780.525	6809
1782.665	6854
1784.805	6785
1786.945	6662
1789.082	6708
1791.22	6720
1793.36	6765
1795.495	6692
1797.632	6722
1799.766	6656
1801.902	6829
1804.035	6716
1806.172	6686
1808.304	6794
1810.436	6701
1812.569	6707
1814.699	6737
1816.833	6738
1818.963	6806
1821.092	6565
1823.222	6687
1825.35	6924
1827.478	6744
1829.608	6699
1831.734	6649
1833.86	6658
1835.986	6742
1838.11	6735
1840.238	6638
1842.362	6724
1844.485	6561
1846.608	6793
1848.73	6617
1850.853	6590
1852.974	6656
1855.097	6664
1857.217	6544
1859.336	6616
1861.455	6610
1863.576	6724
1865.693	6702
1867.811	6639
1869.926	6641
1872.042	6691
1874.16	6730
1876.275	6599
1878.39	6630
1880.504	6632
1882.618	6768
1884.731	6642
1886.843	6664
1888.956	6727
1891.067	6701
1893.178	6575
1895.287	6654
1897.399	6679
1899.508	6679
1901.617	6745
1903.724	6637
1905.832	6748
1907.941	6733
1910.046	6596
1912.152	6789
1914.256	6746
1916.361	6800
1918.464	6679
1920.57	6817
1922.672	6590
1924.775	6670
1926.876	6734
1928.978	6795
1931.08	6866
1933.181	6702
1935.28	6759
1937.38	6657
1939.478	6746
1941.577	6689
1943.675	6747
1945.771	6743
1947.867	6806
1949.964	6817
1952.058	6709
1954.154	6817
1956.248	6651
1958.343	6666
1960.435	6826
1962.527	6824
1964.62	6822
1966.711	6767
1968.802	6787
1970.892	6730
1972.983	6700
1975.072	6706
1977.162	6696
1979.25	6596
1981.337	6736
1983.424	6757
1985.51	6622
1987.598	6627
1989.683	6635
1991.768	6764
1993.852	6745
1995.934	6898
1998.019	6713
2000.102	6702
2002.184	6673
2004.266	6636
2006.347	6617
2008.427	6875
2010.508	6692
2012.587	6756
2014.666	6571
2016.745	6859
2018.821	6619
2020.9	6587
2022.977	6685
2025.052	6648
2027.128	6633
2029.204	6712
2031.277	6627
2033.353	6607
2035.425	6684
2037.499	6695
2039.57	6590
2041.642	6643
2043.714	6661
2045.786	6653
2047.855	6677
2049.925	6611
2051.993	6758
2054.064	6623
2056.132	6616
2058.2	6648
2060.266	6675
2062.332	6633
2064.398	6638
2066.465	6663
2068.529	6834
2070.592	6702
2072.657	6561
2074.719	6631
2076.783	6708
2078.845	6698
2080.907	6648
2082.968	6728
2085.028	6635
2087.087	6577
2089.148	6698
2091.207	6538
2093.264	6621
2095.322	6583
2097.379	6746
2099.439	6629
2101.495	6697
2103.55	6599
2105.605	6696
2107.658	6651
2109.713	6773
2111.767	6577
2113.82	6621
2115.872	6596
2117.924	6594
2119.975	6649
2122.028	6634
2124.078	6743
2126.126	6593
2128.176	6661
2130.225	6547
2132.275	6570
2134.321	6621
2136.368	6713
2138.415	6556
2140.461	6605
2142.505	6579
2144.552	6624
2146.597	6563
2148.64	6703
2150.684	6619
2152.725	6625
2154.77	6651
2156.811	6697
2158.852	6656
2160.894	6570
2162.933	6649
2164.973	6604
2167.013	6623
2169.051	6673
2171.089	6573
2173.126	6468
2175.164	6582
2177.201	6523
2179.236	6505
2181.273	6654
2183.307	6437
2185.341	6511
2187.377	6557
2189.41	6546
2191.442	6484
2193.473	6502
2195.506	6544
2197.539	6412
2199.569	6527
2201.598	6521
2203.628	6478
2205.656	6570
2207.686	6382
2209.716	6421
2211.743	6544
2213.769	6507
2215.796	6409
2217.821	6558
2219.848	6362
2221.873	6502
2223.897	6375
2225.921	6472
2227.944	6362
2229.967	6473
2231.991	6380
2234.011	6550
2236.032	6411
2238.053	6361
2240.073	6443
2242.094	6400
2244.114	6400
2246.131	6480
2248.149	6392
2250.167	6374
2252.186	6434
2254.201	6528
2256.218	6470
2258.233	6402
2260.247	6538
2262.262	6438
2264.278	6452
2266.29	6353
2268.303	6457
2270.315	6483
2272.327	6515
2274.341	6445
2276.35	6451
2278.361	6424
2280.37	6332
2282.38	6426
2284.388	6262
2286.397	6504
2288.405	6341
2290.412	6484
2292.419	6436
2294.425	6367
2296.431	6394
2298.437	6278
2300.441	6515
2302.445	6382
2304.449	6463
2306.453	6330
2308.455	6478
2310.457	6409
2312.459	6419
2314.46	6418
2316.46	6355
2318.461	6409
2320.46	6287
2322.458	6313
2324.458	6471
2326.456	6417
2328.455	6483
2330.451	6402
2332.447	6383
2334.443	6300
2336.438	6396
2338.433	6335
2340.429	6438
2342.422	6243
2344.416	6356
2346.408	6199
2348.399	6298
2350.393	6320
2352.384	6344
2354.375	6225
2356.365	6376
2358.355	6239
2360.344	6322
2362.333	6255
2364.322	6253
2366.309	6281
2368.295	6278
2370.282	6400
2372.27	6198
2374.256	6179
2376.24	6381
2378.225	6185
2380.208	6242
2382.194	6260
2384.177	6227
2386.159	6219
2388.142	6311
2390.122	6195
2392.105	6156
2394.085	6143
2396.066	6304
2398.044	6176
2400.024	6172
2402.002	6092
2403.982	6079
2405.959	6092
2407.935	6207
2409.913	6166
2411.888	6152
2413.865	6187
2415.84	6146
2417.814	6099
2419.788	6153
2421.762	6154
2423.735	6087
2425.708	6128
2427.68	6218
2429.651	6223
2431.623	6128
2433.593	6126
2435.564	6125
2437.533	6244
2439.502	6187
2441.47	6103
2443.438	6105
2445.406	6078
2447.373	6157
2449.34	6091
2451.305	6163
2453.271	6046
2455.235	6156
2457.201	6128
2459.165	6083
2461.129	6093
2463.092	6147
2465.054	6056
2467.018	6179
2468.978	6148
2470.939	5934
2472.899	6065
2474.86	6193
2476.819	6068
2478.778	6121
2480.737	6075
2482.695	6150
2484.653	5956
2486.609	6109
2488.567	6039
2490.524	6083
2492.478	5941
2494.433	6019
2496.387	6092
2498.343	6046
2500.297	6118
2502.249	6066
2504.202	6039
2506.153	5928
2508.105	6059
2510.057	6071
2512.008	5987
2513.957	6017
2515.906	6059
2517.855	5919
2519.805	5964
2521.754	6051
2523.7	6037
2525.647	5976
2527.594	6110
2529.54	6145
2531.486	5988
2533.431	5983
2535.376	6003
2537.32	5948
2539.263	6072
2541.207	6148
2543.151	5947
2545.093	6041
2547.034	5996
2548.975	5985
2550.917	5968
2552.856	5981
2554.796	6004
2556.735	6037
2558.673	5934
2560.611	5964
2562.55	6003
2564.487	5997
2566.424	5850
2568.36	5924
2570.296	5995
2572.232	5973
2574.167	5945
2576.101	5981
2578.035	5860
2579.969	5959
2581.902	5919
2583.834	6012
2585.766	6059
2587.698	5848
2589.628	6119
2591.557	6053
2593.489	6034
2595.419	6030
2597.348	5930
2599.275	5975
2601.204	5987
2603.131	5961
2605.059	6016
2606.986	5957
2608.911	5951
2610.837	5919
2612.76	5913
2614.687	5962
2616.61	6067
2618.534	6110
2620.457	6069
2622.38	6071
2624.302	6009
2626.225	5962
2628.145	6024
2630.067	5998
2631.986	6035
2633.906	6090
2635.827	5944
2637.745	5991
2639.662	5945
2641.581	6062
2643.498	5904
2645.415	6001
2647.331	5959
2649.248	6045
2651.163	6010
2653.077	5988
2654.993	5950
2656.906	6013
2658.821	5984
2660.733	5907
2662.646	5919
2664.557	5999
2666.47	5950
2668.381	5969
2670.291	5907
2672.201	5902
2674.11	6059
2676.021	5998
2677.929	5954
2679.837	5975
2681.745	5919
2683.652	5983
2685.56	6025
2687.466	5983
2689.371	5978
2691.276	5959
2693.181	5966
2695.085	6005
2696.991	5903
2698.893	5840
2700.796	5949
2702.698	5860
2704.601	5909
2706.502	5935
2708.404	5802
2710.304	5867
2712.203	5874
2714.103	5923
2716.003	5833
2717.902	5853
2719.8	5840
2721.697	5831
2723.594	5859
2725.49	5927
2727.389	5906
2729.283	5919
2731.179	5868
2733.073	5921
2734.968	5896
2736.863	5763
2738.757	5832
2740.649	5931
2742.541	5837
2744.433	5861
2746.324	5814
2748.216	5799
2750.107	5808
2751.997	5833
2753.886	5918
2755.776	5932
2757.666	5745
2759.553	5843
2761.44	5855
2763.327	5716
2765.215	5848
2767.102	5856
2768.988	5772
2770.873	5772
2772.757	5849
2774.641	5755
2776.525	5867
2778.41	5754
2780.292	5766
2782.175	5768
2784.057	5825
2785.938	5746
2787.821	5725
2789.701	5732
2791.581	5778
2793.461	5729
2795.34	5744
2797.219	5658
2799.099	5729
2800.975	5776
2802.853	5854
2804.73	5847
2806.606	5693
2808.484	5733
2810.358	5711
2812.233	5710
2814.108	5711
2815.981	5723
2817.857	5780
2819.73	5696
2821.602	5828
2823.474	5714
2825.346	5751
2827.217	5636
2829.089	5740
2830.959	5729
2832.829	5702
2834.698	5766
2836.567	5720
2838.436	5718
2840.305	5814
2842.172	5778
2844.04	5736
2845.905	5875
2847.772	5825
2849.639	5747
2851.503	5802
2853.369	5876
2855.232	5826
2857.096	5898
2858.961	5793
2860.824	5826
2862.686	5833
2864.547	5933
2866.41	6018
2868.272	6013
2870.132	6042
2871.992	6057
2873.851	6187
2875.711	6304
2877.57	6372
2879.429	6392
2881.287	6436
2883.144	6355
2885.001	6550
2886.857	6381
2888.714	6475
2890.57	6457
2892.425	6459
2894.279	6445
2896.133	6433
2897.987	6450
2899.842	6306
2901.694	6315
2903.547	6506
2905.397	6318
2907.249	6370
2909.101	6409
2910.952	6555
2912.802	6518
2914.652	6491
2916.5	6498
2918.35	6597
2920.198	6755
2922.045	6656
2923.893	6707
2925.74	6950
2927.585	7064
2929.433	6965
2931.279	7216
2933.123	7221
2934.968	7233
2936.811	7194
2938.656	7381
2940.5	7390
2942.342	7514
2944.185	7537
2946.026	7465
2947.87	7543
2949.71	7530
2951.549	7399
2953.39	7315
2955.229	7256
2957.069	7248
2958.908	7264
2960.746	7156
2962.584	7014
2964.421	7028
2966.257	6922
2968.094	6835
2969.931	6734
2971.766	6725
2973.601	6746
2975.435	6777
2977.27	6734
2979.105	6681
2980.938	6656
2982.77	6544
2984.602	6586
2986.434	6512
2988.267	6525
2990.097	6392
2991.927	6382
2993.757	6231
2995.587	6355
2997.417	6313
2999.246	6255
3001.074	6115
3002.902	6064
3004.729	6114
3006.556	6027
3008.384	5913
3010.21	5852
3012.036	5770
3013.861	5724
3015.684	5720
3017.51	5814
3019.334	5578
3021.157	5655
3022.981	5610
3024.802	5562
3026.624	5534
3028.448	5457
3030.267	5582
3032.088	5473
3033.909	5506
3035.728	5523
3037.549	5516
3039.368	5387
3041.186	5554
3043.004	5401
3044.821	5501
3046.64	5436
3048.455	5395
3050.272	5428
3052.087	5426
3053.903	5497
3055.717	5352
3057.534	5384
3059.347	5474
3061.16	5447
3062.974	5332
3064.785	5428
3066.598	5387
3068.411	5406
3070.222	5429
3072.032	5368
3073.844	5382
3075.653	5326
3077.463	5440
3079.272	5351
3081.08	5335
3082.889	5382
3084.697	5235
3086.505	5326
3088.312	5320
3090.118	5357
3091.924	5266
3093.729	5269
3095.535	5201
3097.34	5321
3099.144	5288
3100.947	5176
3102.75	5188
3104.553	5219
3106.357	5229
3108.159	5240
3109.961	5269
3111.762	5226
3113.562	5238
3115.365	5168
3117.164	5096
3118.964	5239
3120.761	5152
3122.56	5095
3124.36	5069
3126.158	5209
3127.954	5238
3129.75	5165
3131.547	5145
3133.343	5164
3135.139	5137
3136.934	5156
3138.729	5224
3140.522	5130
3142.317	5075
3144.11	5087
3145.904	5101
3147.695	5037
3149.488	5102
3151.28	5146
3153.07	5114
3154.863	5073
3156.652	4998
3158.441	5091
3160.231	5169
3162.019	5063
3163.81	5128
3165.597	5022
3167.384	5102
3169.172	5066
3170.958	5041
3172.745	5089
3174.532	5001
3176.317	5062
3178.101	5044
3179.885	5009
3181.67	5014
3183.455	5179
3185.238	5040
3187.02	4963
3188.802	5129
3190.585	5030
3192.368	5099
3194.149	5028
3195.929	5060
3197.709	5039
3199.489	4975
3201.268	5052
3203.048	5009
3204.826	5027
3206.604	5047
3208.382	5065
3210.159	5110
3211.937	5089
3213.713	5077
3215.489	5074
3217.263	5003
3219.038	4998
3220.815	5071
3222.589	5021
3224.363	4970
3226.136	5053
3227.908	5030
3229.681	5104
3231.454	4964
3233.226	5103
3234.996	5062
3236.767	5016
3238.538	4873
3240.308	5079
3242.078	4987
3243.847	5051
3245.615	5019
3247.384	4928
3249.15	5057
3250.92	5038
3252.686	4924
3254.453	4952
3256.218	4980
3257.984	4986
3259.75	5018
3261.515	5078
3263.279	5049
3265.044	5059
3266.806	5086
3268.57	5111
3270.334	5087
3272.095	5026
3273.856	5005
3275.619	4975
3277.379	5055
3279.14	4972
3280.9	5049
3282.661	5064
3284.419	5059
3286.178	5087
3287.937	4961
3289.695	5006
3291.453	5058
3293.21	5052
3294.967	5055
3296.723	4940
3298.48	5045
3300.235	4994
3301.99	5057
3303.744	4942
3305.498	5106
3307.253	5078
3309.006	5063
3310.759	5057
3312.511	5049
3314.263	5067
3316.017	5046
3317.768	5030
3319.519	5030
3321.268	5004
3323.018	5058
3324.767	5071
3326.518	4992
3328.267	5031
3330.014	5027
3331.762	5006
3333.509	5091
3335.258	4997
3337.003	5065
3338.75	4917
3340.496	4972
3342.24	4933
3343.987	5066
3345.732	4965
3347.475	4987
3349.219	5039
3350.961	4958
3352.705	5000
3354.448	5011
3356.19	4976
3357.931	4929
3359.672	4962
3361.412	4965
3363.155	5000
3364.894	5035
3366.633	4914
3368.372	4889
3370.11	4942
3371.849	4840
3373.588	4917
3375.325	4883
3377.061	4871
3378.799	4891
3380.534	5012
3382.271	4917
3384.006	4830
3385.741	4795
3387.475	4896
3389.209	4843
3390.944	4889
3392.677	4740
3394.409	4896
3396.143	4880
3397.874	4783
3399.606	4895
3401.338	4870
3403.069	4765
3404.799	4870
3406.528	4859
3408.258	4865
3409.988	4861
3411.717	4804
3413.445	4862
3415.173	4793
3416.899	4907
3418.626	4810
3420.354	4767
3422.08	4675
3423.806	4727
3425.531	4699
3427.255	4838
3428.981	4745
3430.705	4766
3432.429	4633
3434.151	4693
3435.875	4767
3437.599	4789
3439.321	4738
3441.042	4684
3442.763	4665
3444.483	4630
3446.204	4649
3447.926	4751
3449.645	4643
3451.364	4597
3453.082	4675
3454.801	4602
3456.52	4626
3458.238	4625
3459.954	4491
3461.671	4629
3463.387	4605
3465.104	4585
3466.82	4609
3468.534	4559
3470.25	4627
3471.963	4622
3473.676	4596
3475.392	4611
3477.104	4549
3478.817	4565
3480.528	4603
3482.241	4603
3483.954	4570
3485.664	4565
3487.374	4546
3489.084	4520
3490.795	4431
3492.504	4589
3494.214	4530
3495.922	4506
3497.63	4464
3499.338	4415
3501.045	4393
3502.753	4428
3504.459	4390
3506.166	4452
3507.871	4393
3509.576	4429
3511.283	4445
3512.987	4458
3514.691	4453
3516.395	4429
3518.098	4419
3519.8	4426
3521.504	4379
3523.206	4427
3524.908	4405
3526.609	4358
3528.309	4294
3530.011	4315
3531.711	4367
3533.411	4395
3535.109	4311
3536.808	4327
3538.507	4324
3540.206	4333
3541.904	4300
3543.601	4324
3545.297	4259
3546.994	4306
3548.69	4324
3550.387	4268
3552.081	4297
3553.776	4307
3555.47	4254
3557.166	4210
3558.859	4268
3560.553	4211
3562.245	4261
3563.938	4312
3565.629	4217
3567.322	4179
3569.014	4159
3570.704	4248
3572.394	4209
3574.084	4206
3575.775	4283
3577.464	4238
3579.152	4117
3580.842	4124
3582.529	4238
3584.216	4142
3585.905	4149
3587.591	4194
3589.279	4280
3590.964	4057
3592.649	4162
3594.336	4141
3596.021	4080
3597.705	4110
3599.388	4109
3601.072	4115
3602.757	4169
3604.439	4102
3606.122	4106
3607.803	4151
3609.485	4068
3611.167	4005
3612.849	4064
3614.529	4095
3616.208	4090
3617.888	4163
3619.567	4053
3621.247	4047
3622.926	4015
3624.603	4000
3626.281	3954
3627.958	3962
3629.635	4034
3631.312	4000
3632.989	3978
3634.665	3934
3636.339	3966
3638.014	3837
3639.691	3890
3641.364	3827
3643.038	3878
3644.71	3896
3646.384	3970
3648.058	3988
3649.729	3941
3651.402	3851
3653.073	3960
3654.744	3901
3656.414	3862
3658.085	3938
3659.755	3899
3661.424	3839
3663.094	3807
3664.762	3844
3666.431	3824
3668.099	3978
3669.766	3821
3671.433	3792
3673.099	3799
3674.768	3804
3676.433	3783
3678.098	3868
3679.763	3774
3681.428	3818
3683.093	3775
3684.757	3871
3686.421	3848
3688.083	3820
3689.746	3779
3691.408	3832
3693.071	3729
3694.733	3834
3696.394	3801
3698.054	3794
3699.715	3815
3701.375	3674
3703.036	3712
3704.695	3760
3706.354	3753
3708.012	3839
3709.67	3737
3711.329	3793
3712.987	3710
3714.644	3803
3716.299	3768
3717.955	3789
3719.613	3672
3721.268	3800
3722.923	3704
3724.577	3710
3726.231	3801
3727.885	3756
3729.539	3673
3731.192	3744
3732.845	3684
3734.497	3719
3736.149	3634
3737.802	3699
3739.453	3705
3741.104	3633
3742.753	3688
3744.404	3669
3746.052	3673
3747.704	3585
3749.352	3642
3751	3667
3752.648	3760
3754.296	3652
3755.944	3611
3757.59	3566
3759.238	3674
3760.883	3622
3762.528	3600
3764.176	3675
3765.82	3680
3767.464	3641
3769.109	3619
3770.753	3634
3772.396	3679
3774.04	3593
3775.683	3638
3777.325	3653
3778.967	3616
3780.608	3608
3782.25	3599
3783.89	3633
3785.531	3571
3787.17	3668
3788.81	3540
3790.45	3559
3792.09	3562
3793.729	3525
3795.366	3526
3797.003	3504
3798.64	3586
3800.278	3502
3801.915	3574
3803.551	3536
3805.187	3520
3806.822	3624
3808.458	3590
3810.093	3491
3811.726	3522
3813.36	3563
3814.994	3459
3816.627	3499
3818.262	3489
3819.893	3515
3821.525	3456
3823.157	3496
3824.787	3522
3826.42	3516
3828.051	3439
3829.68	3458
3831.31	3531
3832.938	3587
3834.569	3390
3836.198	3521
3837.825	3411
3839.454	3481
3841.08	3413
3842.708	3483
3844.335	3507
3845.962	3428
3847.587	3518
3849.212	3350
3850.838	3471
3852.463	3543
3854.089	3344
3855.712	3466
3857.335	3450
3858.959	3456
3860.582	3420
3862.205	3525
3863.827	3266
3865.449	3357
3867.07	3450
3868.691	3422
3870.312	3377
3871.933	3413
3873.553	3532
3875.173	3433
3876.792	3376
3878.411	3415
3880.03	3396
3881.647	3446
3883.265	3357
3884.882	3312
3886.499	3394
3888.116	3364
3889.732	3315
3891.348	3427
3892.964	3313
3894.579	3394
3896.195	3380
3897.809	3372
3899.423	3325
3901.036	3402
3902.648	3347
3904.261	3340
3905.875	3342
3907.487	3329
3909.099	3352
3910.709	3314
3912.321	3272
3913.933	3345
3915.542	3422
3917.152	3316
3918.762	3414
3920.37	3266
3921.98	3351
3923.589	3334
3925.196	3328
3926.804	3324
3928.41	3308
3930.018	3313
3931.626	3313
3933.231	3352
3934.838	3245
3936.442	3296
3938.046	3253
3939.653	3310
3941.257	3292
3942.861	3281
3944.464	3192
3946.068	3339
3947.67	3291
3949.273	3297
3950.876	3263
3952.477	3343
3954.078	3276
3955.678	3266
3957.281	3310
3958.881	3229
3960.48	3262
3962.079	3287
3963.678	3206
3965.279	3191
3966.877	3326
3968.475	3206
3970.072	3271
3971.669	3238
3973.266	3187
3974.864	3250
3976.459	3141
3978.055	3207
3979.65	3244
3981.245	3156
3982.841	3230
3984.436	3176
3986.03	3147
3987.623	3270
3989.216	3160
3990.809	3256
3992.403	3132
3993.995	3237
3995.586	3194
3997.177	3168
3998.768	3157
4000.361	3126
4001.951	3107
4003.54	3130
4005.13	3074
4006.719	3146
4008.31	3148
4009.897	3128
4011.485	3133
4013.073	3126
4014.66	3150
4016.247	3172
4017.834	3095
4019.421	3131
4021.006	3100
4022.592	3104
4024.178	3151
4025.763	3066
4027.348	3015
4028.932	3041
4030.515	3161
4032.099	3103
4033.682	3113
4035.266	3052
4036.847	3090
4038.429	3020
4040.011	3124
4041.592	3032
4043.173	3009
4044.755	3078
4046.334	2987
4047.913	2975
4049.494	3091
4051.074	3084
4052.652	3097
4054.23	3007
4055.807	3011
4057.385	3016
4058.963	3050
4060.541	3027
4062.117	2930
4063.693	2990
4065.269	3079
4066.844	3040
4068.42	2961
4069.995	3031
4071.569	3071
4073.143	2970
4074.716	2980
4076.291	3041
4077.864	2979
4079.436	3015
4081.009	2998
4082.58	2926
4084.152	2940
4085.723	2993
4087.294	2992
4088.865	2998
4090.435	2997
4092.005	2933
4093.574	2993
4095.143	2960
4096.712	2911
4098.279	3049
4099.848	2949
4101.416	2954
4102.984	2949
4104.55	2928
4106.117	2907
4107.682	2891
4109.248	2992
4110.815	2918
4112.379	2916
4113.945	2919
4115.508	2920
4117.073	2938
4118.637	2914
4120.201	2964
4121.763	2849
4123.325	2941
4124.888	2871
4126.449	2850
4128.013	2939
4129.573	2887
4131.133	2898
4132.694	2892
4134.254	2943
4135.814	2859
4137.374	2883
4138.933	2869
4140.491	2934
4142.049	2913
4143.607	2884
4145.167	2883
4146.724	2798
4148.28	2843
4149.836	2860
4151.392	2861
4152.949	2966
4154.504	2808
4156.059	2829
4157.614	2790
4159.168	2830
4160.723	2819
4162.277	2805
4163.83	2808
4165.383	2870
4166.936	2837
4168.488	2851
4170.041	2833
4171.593	2795
4173.144	2833
4174.695	2787
4176.246	2736
4177.796	2777
4179.346	2775
4180.896	2803
4182.445	2836
4183.994	2717
4185.542	2800
4187.091	2741
4188.639	2799
4190.185	2700
4191.732	2698
4193.279	2725
4194.826	2755
4196.373	2756
4197.918	2728
4199.463	2759
4201.008	2739
4202.553	2736
4204.098	2659
4205.641	2707
4207.185	2682
4208.728	2677
4210.271	2700
4211.814	2771
4213.357	2722
4214.898	2722
4216.439	2764
4217.98	2681
4219.522	2731
4221.062	2684
4222.603	2708
4224.142	2673
4225.681	2710
4227.222	2703
4228.76	2690
4230.298	2730
4231.835	2715
4233.373	2649
4234.911	2707
4236.449	2714
4237.985	2642
4239.521	2647
4241.057	2663
4242.592	2651
4244.128	2659
4245.663	2661
4247.197	2680
4248.731	2697
4250.265	2686
4251.798	2667
4253.333	2708
4254.865	2689
4256.397	2604
4257.93	2711
4259.461	2645
4260.994	2661
4262.525	2666
4264.056	2657
4265.586	2626
4267.115	2657
4268.646	2632
4270.176	2577
4271.705	2652
4273.232	2580
4274.761	2604
4276.289	2694
4277.818	2610
4279.345	2679
4280.872	2668
4282.399	2635
4283.924	2647
4285.452	2607
4286.976	2647
4288.502	2618
4290.026	2643
4291.551	2616
4293.074	2625
4294.6	2593
4296.123	2529
4297.646	2620
4299.168	2610
4300.691	2598
4302.214	2625
4303.736	2513
4305.257	2581
4306.778	2482
4308.299	2574
4309.82	2583
4311.34	2572
4312.86	2493
4314.379	2543
