400.0745	4559
402.597	4446
405.1208	4593
407.6419	4590
410.1623	4496
412.6819	4583
415.201	4678
417.7172	4608
420.2369	4730
422.7538	4753
425.2701	4679
427.7856	4794
430.3005	4895
432.8147	4767
435.3282	4764
437.841	4841
440.3511	4821
442.8625	4848
445.3753	4922
447.8854	4796
450.3927	4914
452.9014	4847
455.4073	4781
457.9146	4883
460.4233	4812
462.9272	4828
465.4325	4860
467.935	4767
470.4389	4713
472.9421	4802
475.4446	4858
477.9444	4896
480.4456	4897
482.944	4914
485.4417	5001
487.9429	4966
490.4393	4953
492.935	4879
495.4321	4923
497.9264	4902
500.4221	4871
502.9171	5019
505.4094	5004
507.9011	5009
510.392	4933
512.8864	4973
515.3759	5018
517.8649	4990
520.3531	4885
522.8406	5084
525.3275	5015
527.8178	4986
530.3033	5047
532.7881	5126
535.2723	5064
537.7558	5107
540.2407	5108
542.7228	5073
545.2043	5006
547.6851	5114
550.1652	5104
552.6467	4919
555.1255	5046
557.6016	5077
560.079	5146
562.5557	5243
565.0318	5118
567.5092	5214
569.984	5228
572.456	5143
574.9294	5246
577.4022	5220
579.8762	5309
582.3456	5295
584.8163	5324
587.2863	5333
589.7557	5297
592.2224	5273
594.6924	5256
597.1578	5221
599.6245	5342
602.0905	5173
604.5538	5285
607.0206	5244
609.4825	5219
611.9459	5219
614.4066	5196
616.8686	5381
619.33	5259
621.7906	5181
624.2487	5268
626.708	5170
629.1647	5233
631.6207	5153
634.0801	5276
636.5348	5261
638.9888	5246
641.4442	5281
643.8969	5190
646.3509	5221
648.8022	5327
651.255	5279
653.705	5268
656.1544	5238
658.6031	5309
661.0532	5411
663.5026	5316
665.9493	5322
668.3954	5325
670.8409	5429
673.2877	5382
675.7318	5299
678.1752	5325
680.618	5466
683.0601	5381
685.5035	5422
687.9444	5472
690.3845	5336
692.824	5495
695.2628	5422
697.701	5446
700.1406	5468
702.5774	5549
705.0116	5491
707.4472	5577
709.8821	5575
712.3183	5573
714.7519	5489
717.1829	5439
719.6151	5598
722.0468	5454
724.4777	5608
726.908	5707
729.3377	5614
731.7667	5643
734.1931	5599
736.6208	5642
739.0498	5554
741.4742	5721
743.9	5655
746.3231	5607
748.7476	5717
751.1713	5776
753.5945	5665
756.015	5668
758.4368	5778
760.856	5745
763.2766	5756
765.6965	5896
768.1157	5794
770.5323	5787
772.9483	5888
775.3656	5805
777.7822	5901
780.1963	5745
782.6116	5811
785.0244	5858
787.4365	5837
789.8499	5806
792.2626	5827
794.6728	5754
797.0823	5770
799.4911	5838
801.8994	5769
804.3109	5852
806.7178	5816
809.124	5905
811.5297	5928
813.9347	5949
816.341	5838
818.7447	5919
821.1478	5988
823.5502	5951
825.952	6013
828.3531	5971
830.7556	5987
833.1554	5980
835.5546	5993
837.9532	5926
840.3511	5921
842.7504	6009
845.1451	6010
847.5411	6045
849.9365	5955
852.3312	6128
854.7272	6150
857.1187	6130
859.5115	6213
861.9037	6024
864.2952	6095
866.6842	6104
869.0764	6085
871.4661	6091
873.8531	6089
876.2415	6084
878.6272	6027
881.0162	5999
883.4026	6057
885.7866	6080
888.1717	6104
890.5543	6033
892.9382	5935
895.3215	5970
897.7041	5953
900.0842	6025
902.4655	5959
904.8443	5896
907.2244	6045
909.6039	6152
911.9808	6099
914.357	6117
916.7346	6176
919.1115	6201
921.4859	6176
923.8616	6311
926.2347	6446
928.6071	6331
930.979	6271
933.3541	6364
935.7247	6287
938.0946	6404
940.4639	6492
942.8326	6456
945.2026	6496
947.5701	6650
949.9369	6777
952.305	7027
954.6705	7199
957.0355	7392
959.4017	7846
961.7654	7838
964.1284	7687
966.4908	7654
968.8527	7292
971.2138	7140
973.5743	6761
975.9343	6687
978.2936	6528
980.6522	6383
983.0122	6246
985.3696	6277
987.7245	6322
990.0807	6130
992.4362	6203
994.7911	6180
997.1474	6211
999.4991	6235
1001.852	6281
1004.205	6333
1006.555	6170
1008.908	6279
1011.258	6294
1013.606	6295
1015.956	6352
1018.302	6279
1020.652	6257
1022.998	6404
1025.345	6404
1027.691	6379
1030.035	6336
1032.378	6464
1034.724	6413
1037.066	6405
1039.409	6340
1041.75	6423
1044.092	6474
1046.433	6384
1048.771	6392
1051.112	6292
1053.449	6266
1055.786	6393
1058.124	6381
1060.462	6431
1062.797	6405
1065.131	6513
1067.467	6444
1069.8	6527
1072.135	6536
1074.467	6528
1076.798	6665
1079.129	6507
1081.459	6516
1083.792	6522
1086.121	6559
1088.449	6426
1090.777	6423
1093.104	6418
1095.431	6437
1097.759	6380
1100.084	6378
1102.408	6446
1104.732	6385
1107.056	6453
1109.379	6442
1111.701	6407
1114.022	6503
1116.343	6352
1118.664	6411
1120.983	6430
1123.303	6450
1125.621	6380
1127.939	6429
1130.256	6427
1132.573	6351
1134.889	6388
1137.205	6573
1139.52	6290
1141.832	6448
1144.146	6350
1146.461	6412
1148.771	6462
1151.083	6310
1153.392	6440
1155.703	6444
1158.011	6390
1160.323	6341
1162.629	6443
1164.938	6482
1167.243	6385
1169.55	6489
1171.857	6342
1174.163	6372
1176.466	6508
1178.769	6490
1181.073	6381
1183.374	6390
1185.677	6347
1187.979	6418
1190.279	6357
1192.578	6441
1194.878	6363
1197.178	6452
1199.476	6406
1201.772	6461
1204.068	6376
1206.366	6640
1208.663	6401
1210.957	6449
1213.251	6533
1215.544	6464
1217.836	6531
1220.128	6578
1222.421	6459
1224.712	6521
1227.002	6370
1229.292	6525
1231.581	6621
1233.871	6619
1236.159	6622
1238.446	6726
1240.732	6672
1243.018	6638
1245.304	6725
1247.59	6686
1249.874	6752
1252.156	6733
1254.439	6771
1256.721	6624
1259.005	6731
1261.286	6672
1263.565	6842
1265.845	6605
1268.125	6715
1270.403	6770
1272.682	6763
1274.959	6779
1277.234	6705
1279.511	6663
1281.787	6579
1284.062	6626
1286.337	6666
1288.609	6649
1290.882	6624
1293.153	6669
1295.428	6515
1297.698	6586
1299.969	6431
1302.237	6486
1304.507	6640
1306.777	6524
1309.044	6605
1311.312	6559
1313.578	6627
1315.844	6568
1318.109	6576
1320.375	6602
1322.638	6639
1324.903	6591
1327.165	6507
1329.427	6438
1331.69	6660
1333.952	6576
1336.212	6427
1338.471	6648
1340.73	6701
1342.988	6625
1345.248	6641
1347.505	6594
1349.763	6651
1352.019	6496
1354.274	6547
1356.53	6658
1358.784	6661
1361.038	6548
1363.291	6599
1365.543	6575
1367.797	6572
1370.048	6545
1372.296	6602
1374.546	6522
1376.796	6667
1379.045	6619
1381.295	6695
1383.542	6710
1385.787	6732
1388.034	6645
1390.28	6810
1392.527	6676
1394.772	6773
1397.014	6659
1399.258	6683
1401.501	6630
1403.741	6757
1405.985	6775
1408.226	6734
1410.465	6659
1412.705	6807
1414.943	6653
1417.184	6692
1419.42	6803
1421.658	6796
1423.894	6656
1426.13	6896
1428.366	6766
1430.602	6778
1432.835	6768
1435.069	6811
1437.301	6802
1439.535	6841
1441.767	6980
1443.997	6847
1446.229	6754
1448.458	6893
1450.687	6771
1452.916	6917
1455.146	6927
1457.372	7075
1459.599	6865
1461.824	6894
1464.051	6878
1466.277	6857
1468.501	6884
1470.725	6773
1472.948	6824
1475.17	6776
1477.393	6844
1479.614	6684
1481.837	6657
1484.057	6710
1486.276	6449
1488.497	6619
1490.715	6639
1492.932	6601
1495.148	6526
1497.364	6685
1499.58	6509
1501.798	6594
1504.012	6552
1506.227	6466
1508.44	6478
1510.653	6529
1512.866	6628
1515.078	6451
1517.289	6615
1519.5	6492
1521.711	6462
1523.92	6435
1526.13	6534
1528.338	6520
1530.544	6562
1532.752	6439
1534.959	6567
1537.165	6523
1539.371	6531
1541.574	6528
1543.779	6574
1545.983	6539
1548.187	6587
1550.39	6526
1552.59	6640
1554.792	6557
1556.991	6519
1559.19	6706
1561.392	6648
1563.59	6649
1565.789	6699
1567.986	6636
1570.182	6704
1572.381	6589
1574.576	6667
1576.771	6612
1578.966	6601
1581.16	6707
1583.354	6657
1585.546	6691
1587.74	6725
1589.931	6705
1592.121	6549
1594.311	6694
1596.502	6675
1598.693	6757
1600.881	6718
1603.069	6820
1605.256	6894
1607.445	6828
1609.631	6762
1611.816	6790
1614.001	6839
1616.186	6820
1618.37	6723
1620.555	6807
1622.737	6745
1624.919	6763
1627.101	6625
1629.282	6869
1631.463	6907
1633.643	6856
1635.822	6846
1638.001	6880
1640.179	6744
1642.359	6879
1644.534	6787
1646.711	6912
1648.887	6836
1651.062	6897
1653.235	6954
1655.412	6880
1657.586	6822
1659.757	7032
1661.93	6999
1664.1	6885
1666.274	7016
1668.445	6860
1670.614	6934
1672.784	6872
1674.951	6904
1677.12	6926
1679.289	6896
1681.457	6916
1683.622	6923
1685.789	6820
1687.953	6806
1690.121	6873
1692.284	6831
1694.447	6827
1696.611	6777
1698.772	6859
1700.935	6770
1703.098	6738
1705.258	6704
1707.417	6827
1709.576	6707
1711.736	6748
1713.896	6853
1716.053	6641
1718.21	6680
1720.366	6627
1722.522	6720
1724.68	6664
1726.835	6785
1728.989	6642
1731.142	6627
1733.295	6740
1735.449	6691
1737.601	6729
1739.753	6641
1741.903	6725
1744.054	6597
1746.203	6722
1748.354	6714
1750.503	6700
1752.651	6788
1754.798	6669
1756.944	6789
1759.092	6645
1761.238	6682
1763.383	6661
1765.528	6688
1767.672	6710
1769.814	6827
1771.959	6712
1774.102	6808
1776.242	6770
1778.384	6859
1780.525	6800
1782.665	6739
1784.805	6839
1786.945	6831
1789.082	6652
1791.22	6807
1793.36	6686
1795.495	6786
1797.632	6809
1799.766	6708
1801.902	6825
1804.035	6734
1806.172	6766
1808.304	6731
1810.436	6815
1812.569	6696
1814.699	6813
1816.833	6724
1818.963	6759
1821.092	6821
1823.222	6704
1825.35	6677
1827.478	6694
1829.608	6818
1831.734	6676
1833.86	6735
1835.986	6676
1838.11	6755
1840.238	6821
1842.362	6714
1844.485	6681
1846.608	6778
1848.73	6587
1850.853	6743
1852.974	6730
1855.097	6674
1857.217	6718
1859.336	6645
1861.455	6672
1863.576	6765
1865.693	6656
1867.811	6699
1869.926	6652
1872.042	6690
1874.16	6693
1876.275	6705
1878.39	6731
1880.504	6722
1882.618	6717
1884.731	6616
1886.843	6681
1888.956	6705
1891.067	6604
1893.178	6692
1895.287	6788
1897.399	6729
1899.508	6700
1901.617	6687
1903.724	6737
1905.832	6757
1907.941	6654
1910.046	6719
1912.152	6718
1914.256	6836
1916.361	6763
1918.464	6889
1920.57	6713
1922.672	6839
1924.775	6849
1926.876	6693
1928.978	6766
1931.08	6705
1933.181	6781
1935.28	6854
1937.38	6824
1939.478	6747
1941.577	6765
1943.675	6768
1945.771	6783
1947.867	6785
1949.964	6741
1952.058	6748
1954.154	6844
1956.248	6849
1958.343	6813
1960.435	6728
1962.527	6747
1964.62	6791
1966.711	6772
1968.802	6741
1970.892	6639
1972.983	6737
1975.072	6879
1977.162	6705
1979.25	6737
1981.337	6747
1983.424	6778
1985.51	6649
1987.598	6788
1989.683	6664
1991.768	6693
1993.852	6724
1995.934	6728
1998.019	6777
2000.102	6716
2002.184	6762
2004.266	6754
2006.347	6753
2008.427	6795
2010.508	6709
2012.587	6636
2014.666	6769
2016.745	6749
2018.821	6639
2020.9	6640
2022.977	6723
2025.052	6727
2027.128	6642
2029.204	6697
2031.277	6626
2033.353	6726
2035.425	6650
2037.499	6696
2039.57	6738
2041.642	6662
2043.714	6703
2045.786	6548
2047.855	6767
2049.925	6746
2051.993	6690
2054.064	6759
2056.132	6782
2058.2	6692
2060.266	6744
2062.332	6695
2064.398	6764
2066.465	6495
2068.529	6687
2070.592	6703
2072.657	6532
2074.719	6686
2076.783	6685
2078.845	6700
2080.907	6637
2082.968	6684
2085.028	6685
2087.087	6758
2089.148	6671
2091.207	6724
2093.264	6582
2095.322	6726
2097.379	6712
2099.439	6718
2101.495	6696
2103.55	6653
2105.605	6740
2107.658	6653
2109.713	6662
2111.767	6735
2113.82	6662
2115.872	6643
2117.924	6642
2119.975	6650
2122.028	6704
2124.078	6668
2126.126	6713
2128.176	6655
2130.225	6763
2132.275	6713
2134.321	6648
2136.368	6562
2138.415	6644
2140.461	6746
2142.505	6650
2144.552	6718
2146.597	6647
2148.64	6759
2150.684	6633
2152.725	6563
2154.77	6629
2156.811	6548
2158.852	6616
2160.894	6609
2162.933	6641
2164.973	6605
2167.013	6583
2169.051	6642
2171.089	6495
2173.126	6577
2175.164	6621
2177.201	6536
2179.236	6515
2181.273	6596
2183.307	6622
2185.341	6513
2187.377	6463
2189.41	6713
2191.442	6584
2193.473	6531
2195.506	6640
2197.539	6499
2199.569	6503
2201.598	6598
2203.628	6554
2205.656	6613
2207.686	6595
2209.716	6636
2211.743	6459
2213.769	6489
2215.796	6566
2217.821	6479
2219.848	6426
2221.873	6469
2223.897	6508
2225.921	6507
2227.944	6559
2229.967	6606
2231.991	6460
2234.011	6513
2236.032	6363
2238.053	6578
2240.073	6550
2242.094	6588
2244.114	6560
2246.131	6468
2248.149	6467
2250.167	6497
2252.186	6515
2254.201	6518
2256.218	6481
2258.233	6516
2260.247	6462
2262.262	6503
2264.278	6340
2266.29	6415
2268.303	6444
2270.315	6418
2272.327	6515
2274.341	6532
2276.35	6427
2278.361	6481
2280.37	6423
2282.38	6536
2284.388	6385
2286.397	6496
2288.405	6524
2290.412	6519
2292.419	6483
2294.425	6511
2296.431	6393
2298.437	6495
2300.441	6512
2302.445	6440
2304.449	6545
2306.453	6440
2308.455	6409
2310.457	6360
2312.459	6578
2314.46	6408
2316.46	6418
2318.461	6434
2320.46	6385
2322.458	6356
2324.458	6498
2326.456	6422
2328.455	6465
2330.451	6409
2332.447	6287
2334.443	6401
2336.438	6433
2338.433	6484
2340.429	6445
2342.422	6453
2344.416	6292
2346.408	6259
2348.399	6204
2350.393	6356
2352.384	6301
2354.375	6377
2356.365	6376
2358.355	6359
2360.344	6338
2362.333	6212
2364.322	6197
2366.309	6259
2368.295	6316
2370.282	6247
2372.27	6381
2374.256	6234
2376.24	6315
2378.225	6293
2380.208	6433
2382.194	6330
2384.177	6388
2386.159	6267
2388.142	6277
2390.122	6251
2392.105	6262
2394.085	6197
2396.066	6184
2398.044	6218
2400.024	6289
2402.002	6324
2403.982	6312
2405.959	6348
2407.935	6147
2409.913	6199
2411.888	6241
2413.865	6231
2415.84	6290
2417.814	6384
2419.788	6266
2421.762	6278
2423.735	6163
2425.708	6247
2427.68	6096
2429.651	6212
2431.623	6251
2433.593	6198
2435.564	6147
2437.533	6260
2439.502	6204
2441.47	6204
2443.438	6326
2445.406	6208
2447.373	6119
2449.34	6205
2451.305	6195
2453.271	6122
2455.235	6281
2457.201	6174
2459.165	6113
2461.129	6275
2463.092	6153
2465.054	6035
2467.018	6148
2468.978	6208
2470.939	6053
2472.899	6092
2474.86	6135
2476.819	6186
2478.778	6154
2480.737	6165
2482.695	6186
2484.653	6217
2486.609	6158
2488.567	6125
2490.524	6029
2492.478	6142
2494.433	6248
2496.387	6130
2498.343	6139
2500.297	6082
2502.249	6155
2504.202	6070
2506.153	6087
2508.105	5991
2510.057	6130
2512.008	6155
2513.957	6143
2515.906	5996
2517.855	6099
2519.805	6093
2521.754	5974
2523.7	6033
2525.647	6092
2527.594	6086
2529.54	6076
2531.486	6004
2533.431	6126
2535.376	6008
2537.32	6080
2539.263	5998
2541.207	6051
2543.151	6060
2545.093	5970
2547.034	6129
2548.975	5964
2550.917	6047
2552.856	6059
2554.796	6085
2556.735	6095
2558.673	6041
2560.611	6063
2562.55	6140
2564.487	6055
2566.424	6070
2568.36	6065
2570.296	6120
2572.232	6055
2574.167	6164
2576.101	6011
2578.035	5986
2579.969	6068
2581.902	6184
2583.834	6122
2585.766	6148
2587.698	6115
2589.628	6084
2591.557	6047
2593.489	6092
2595.419	6145
2597.348	6148
2599.275	6138
2601.204	6129
2603.131	6094
2605.059	6007
2606.986	6223
2608.911	6025
2610.837	5968
2612.76	6002
2614.687	6036
2616.61	6054
2618.534	6047
2620.457	6102
2622.38	6089
2624.302	6074
2626.225	6066
2628.145	6075
2630.067	6169
2631.986	6032
2633.906	6028
2635.827	6212
2637.745	6115
2639.662	6114
2641.581	6081
2643.498	6106
2645.415	6020
2647.331	6108
2649.248	5935
2651.163	6074
2653.077	6118
2654.993	6116
2656.906	6161
2658.821	5989
2660.733	5985
2662.646	6095
2664.557	6108
2666.47	6083
2668.381	5986
2670.291	5973
2672.201	6101
2674.11	6056
2676.021	5983
2677.929	6123
2679.837	6068
2681.745	6012
2683.652	5930
2685.56	5993
2687.466	6097
2689.371	6094
2691.276	5955
2693.181	6098
2695.085	5989
2696.991	5916
2698.893	5920
2700.796	5903
2702.698	6026
2704.601	6022
2706.502	6008
2708.404	5865
2710.304	5995
2712.203	5974
2714.103	5835
2716.003	5953
2717.902	5887
2719.8	5977
2721.697	5873
2723.594	5927
2725.49	5916
2727.389	6040
2729.283	5864
2731.179	6003
2733.073	5831
2734.968	6017
2736.863	5799
2738.757	5775
2740.649	5907
2742.541	5955
2744.433	6013
2746.324	5975
2748.216	5936
2750.107	5901
2751.997	5871
2753.886	5927
2755.776	5807
2757.666	5940
2759.553	5818
2761.44	5857
2763.327	5966
2765.215	5857
2767.102	5924
2768.988	5793
2770.873	5881
2772.757	5892
2774.641	5914
2776.525	5829
2778.41	5834
2780.292	5892
2782.175	5918
2784.057	5846
2785.938	5729
2787.821	5783
2789.701	5975
2791.581	5829
2793.461	5781
2795.34	5719
2797.219	5865
2799.099	5963
2800.975	5841
2802.853	5724
2804.73	5870
2806.606	5805
2808.484	5770
2810.358	5735
2812.233	5813
2814.108	5848
2815.981	5840
2817.857	5795
2819.73	5812
2821.602	5754
2823.474	5826
2825.346	5808
2827.217	5783
2829.089	5859
2830.959	5740
2832.829	5830
2834.698	5817
2836.567	5782
2838.436	5815
2840.305	5809
2842.172	5838
2844.04	5764
2845.905	5860
2847.772	5830
2849.639	5896
2851.503	5854
2853.369	5889
2855.232	5926
2857.096	5939
2858.961	5913
2860.824	5934
2862.686	5961
2864.547	5954
2866.41	6051
2868.272	6023
2870.132	6012
2871.992	6182
2873.851	6244
2875.711	6233
2877.57	6226
2879.429	6332
2881.287	6339
2883.144	6419
2885.001	6553
2886.857	6351
2888.714	6399
2890.57	6341
2892.425	6336
2894.279	6404
2896.133	6408
2897.987	6298
2899.842	6433
2901.694	6300
2903.547	6297
2905.397	6441
2907.249	6384
2909.101	6368
2910.952	6441
2912.802	6492
2914.652	6475
2916.5	6476
2918.35	6567
2920.198	6512
2922.045	6633
2923.893	6808
2925.74	6802
2927.585	6968
2929.433	7075
2931.279	6911
2933.123	7105
2934.968	7190
2936.811	7188
2938.656	7254
2940.5	7240
2942.342	7243
2944.185	7294
2946.026	7278
2947.87	7309
2949.71	7362
2951.549	7207
2953.39	7224
2955.229	7063
2957.069	7093
2958.908	6898
2960.746	6926
2962.584	6944
2964.421	6787
2966.257	6652
2968.094	6623
2969.931	6739
2971.766	6778
2973.601	6401
2975.435	6467
2977.27	6473
2979.105	6445
2980.938	6495
2982.77	6352
2984.602	6397
2986.434	6568
2988.267	6380
2990.097	6338
2991.927	6300
2993.757	6308
2995.587	6234
2997.417	6114
2999.246	6152
3001.074	6012
3002.902	6118
3004.729	5999
3006.556	5887
3008.384	5838
3010.21	5872
3012.036	5832
3013.861	5713
3015.684	5755
3017.51	5614
3019.334	5712
3021.157	5587
3022.981	5554
3024.802	5590
3026.624	5583
3028.448	5537
3030.267	5495
3032.088	5469
3033.909	5538
3035.728	5503
3037.549	5499
3039.368	5411
3041.186	5398
3043.004	5428
3044.821	5419
3046.64	5462
3048.455	5385
3050.272	5331
3052.087	5609
3053.903	5501
3055.717	5464
3057.534	5539
3059.347	5328
3061.16	5399
3062.974	5440
3064.785	5491
3066.598	5401
3068.411	5409
3070.222	5425
3072.032	5403
3073.844	5418
3075.653	5444
3077.463	5321
3079.272	5338
3081.08	5382
3082.889	5286
3084.697	5340
3086.505	5283
3088.312	5269
3090.118	5284
3091.924	5269
3093.729	5336
3095.535	5264
3097.34	5357
3099.144	5216
3100.947	5302
3102.75	5238
3104.553	5251
3106.357	5231
3108.159	5119
3109.961	5224
3111.762	5307
3113.562	5276
3115.365	5196
3117.164	5193
3118.964	5231
3120.761	5191
3122.56	5292
3124.36	5255
3126.158	5195
3127.954	5147
3129.75	5229
3131.547	5194
3133.343	5022
3135.139	5155
3136.934	5179
3138.729	5281
3140.522	5068
3142.317	5162
3144.11	5132
3145.904	5080
3147.695	5156
3149.488	5177
3151.28	5165
3153.07	5100
3154.863	5055
3156.652	5109
3158.441	5146
3160.231	5119
3162.019	5051
3163.81	5052
3165.597	5100
3167.384	5090
3169.172	5082
3170.958	5088
3172.745	5052
3174.532	4999
3176.317	5031
3178.101	5134
3179.885	5051
3181.67	5032
3183.455	5072
3185.238	5042
3187.02	4987
3188.802	5094
3190.585	5111
3192.368	5009
3194.149	4993
3195.929	5045
3197.709	5032
3199.489	5022
3201.268	5056
3203.048	5088
3204.826	5033
3206.604	5029
3208.382	5020
3210.159	5060
3211.937	5016
3213.713	4958
3215.489	4953
3217.263	4991
3219.038	4981
3220.815	5037
3222.589	5092
3224.363	5087
3226.136	4961
3227.908	5029
3229.681	5057
3231.454	5101
3233.226	5031
3234.996	5083
3236.767	5004
3238.538	4981
3240.308	5073
3242.078	5057
3243.847	5000
3245.615	5043
3247.384	5027
3249.15	5017
3250.92	5010
3252.686	4975
3254.453	4992
3256.218	5060
3257.984	4981
3259.75	4971
3261.515	5096
3263.279	5009
3265.044	4954
3266.806	5029
3268.57	4992
3270.334	5022
3272.095	5045
3273.856	4881
3275.619	5091
3277.379	5008
3279.14	5014
3280.9	4906
3282.661	5060
3284.419	5041
3286.178	5029
3287.937	4958
3289.695	4955
3291.453	5013
3293.21	5050
3294.967	5015
3296.723	4948
3298.48	4982
3300.235	4954
3301.99	5067
3303.744	4980
3305.498	5128
3307.253	4988
3309.006	5032
3310.759	4977
3312.511	5004
3314.263	5031
3316.017	4943
3317.768	5029
3319.519	5040
3321.268	5084
3323.018	4979
3324.767	5022
3326.518	4980
3328.267	4885
3330.014	5009
3331.762	4960
3333.509	4976
3335.258	4969
3337.003	4968
3338.75	5006
3340.496	5012
3342.24	4964
3343.987	5018
3345.732	4926
3347.475	4959
3349.219	4926
3350.961	4998
3352.705	4913
3354.448	4826
3356.19	4925
3357.931	4944
3359.672	4894
3361.412	4939
3363.155	4929
3364.894	4908
3366.633	4899
3368.372	4909
3370.11	4943
3371.849	4919
3373.588	4852
3375.325	4812
3377.061	4914
3378.799	4920
3380.534	4785
3382.271	4901
3384.006	4861
3385.741	4799
3387.475	4858
3389.209	4826
3390.944	4884
3392.677	4925
3394.409	4743
3396.143	4846
3397.874	4796
3399.606	4821
3401.338	4846
3403.069	4863
3404.799	4727
3406.528	4896
3408.258	4727
3409.988	4769
3411.717	4833
3413.445	4790
3415.173	4720
3416.899	4775
3418.626	4797
3420.354	4739
3422.08	4709
3423.806	4749
3425.531	4722
3427.255	4821
3428.981	4655
3430.705	4797
3432.429	4657
3434.151	4812
3435.875	4655
3437.599	4741
3439.321	4756
3441.042	4750
3442.763	4790
3444.483	4654
3446.204	4667
3447.926	4612
3449.645	4720
3451.364	4668
3453.082	4670
3454.801	4674
3456.52	4654
3458.238	4688
3459.954	4629
3461.671	4643
3463.387	4637
3465.104	4601
3466.82	4646
3468.534	4579
3470.25	4565
3471.963	4594
3473.676	4646
3475.392	4519
3477.104	4588
3478.817	4594
3480.528	4498
3482.241	4522
3483.954	4490
3485.664	4400
3487.374	4462
3489.084	4566
3490.795	4543
3492.504	4567
3494.214	4450
3495.922	4568
3497.63	4437
3499.338	4406
3501.045	4472
3502.753	4592
3504.459	4423
3506.166	4427
3507.871	4462
3509.576	4467
3511.283	4463
3512.987	4402
3514.691	4422
3516.395	4390
3518.098	4560
3519.8	4463
3521.504	4385
3523.206	4319
3524.908	4355
3526.609	4391
3528.309	4402
3530.011	4398
3531.711	4467
3533.411	4450
3535.109	4349
3536.808	4468
3538.507	4343
3540.206	4369
3541.904	4412
3543.601	4275
3545.297	4412
3546.994	4311
3548.69	4375
3550.387	4331
3552.081	4271
3553.776	4368
3555.47	4296
3557.166	4281
3558.859	4331
3560.553	4262
3562.245	4207
3563.938	4205
3565.629	4266
3567.322	4235
3569.014	4238
3570.704	4296
3572.394	4221
3574.084	4211
3575.775	4310
3577.464	4228
3579.152	4327
3580.842	4211
3582.529	4249
3584.216	4190
3585.905	4228
3587.591	4271
3589.279	4131
3590.964	4258
3592.649	4187
3594.336	4117
3596.021	4121
3597.705	4216
3599.388	4216
3601.072	4128
3602.757	4092
3604.439	4132
3606.122	4040
3607.803	4233
3609.485	4110
3611.167	4122
3612.849	4117
3614.529	4006
3616.208	4095
3617.888	4054
3619.567	4020
3621.247	4108
3622.926	4037
3624.603	4027
3626.281	4198
3627.958	4070
3629.635	4041
3631.312	4071
3632.989	4049
3634.665	4075
3636.339	4006
3638.014	4068
3639.691	3953
3641.364	3988
3643.038	3972
3644.71	3966
3646.384	3990
3648.058	4008
3649.729	3998
3651.402	3895
3653.073	3868
3654.744	3959
3656.414	3890
3658.085	4080
3659.755	3954
3661.424	3951
3663.094	3951
3664.762	4000
3666.431	3928
3668.099	3930
3669.766	3946
3671.433	4004
3673.099	3951
3674.768	3897
3676.433	3938
3678.098	3797
3679.763	3901
3681.428	3976
3683.093	3862
3684.757	3899
3686.421	3916
3688.083	3882
3689.746	3893
3691.408	3900
3693.071	3859
3694.733	3870
3696.394	3971
3698.054	3861
3699.715	3912
3701.375	3872
3703.036	3855
3704.695	3788
3706.354	3809
3708.012	3924
3709.67	3886
3711.329	3857
3712.987	3843
3714.644	3862
3716.299	3783
3717.955	3787
3719.613	3791
3721.268	3824
3722.923	3845
3724.577	3937
3726.231	3848
3727.885	3819
3729.539	3819
3731.192	3898
3732.845	3797
3734.497	3821
3736.149	3801
3737.802	3765
3739.453	3767
3741.104	3822
3742.753	3725
3744.404	3786
3746.052	3772
3747.704	3700
3749.352	3733
3751	3743
3752.648	3759
3754.296	3682
3755.944	3787
3757.59	3681
3759.238	3805
3760.883	3765
3762.528	3835
3764.176	3725
3765.82	3761
3767.464	3770
3769.109	3731
3770.753	3671
3772.396	3638
3774.04	3742
3775.683	3721
3777.325	3669
3778.967	3788
3780.608	3734
3782.25	3740
3783.89	3662
3785.531	3690
3787.17	3631
3788.81	3668
3790.45	3684
3792.09	3620
3793.729	3638
3795.366	3726
3797.003	3699
3798.64	3610
3800.278	3627
3801.915	3664
3803.551	3687
3805.187	3570
3806.822	3662
3808.458	3619
3810.093	3674
3811.726	3670
3813.36	3661
3814.994	3587
3816.627	3542
3818.262	3578
3819.893	3587
3821.525	3634
3823.157	3613
3824.787	3540
3826.42	3564
3828.051	3628
3829.68	3571
3831.31	3560
3832.938	3575
3834.569	3498
3836.198	3576
3837.825	3577
3839.454	3635
3841.08	3549
3842.708	3611
3844.335	3620
3845.962	3389
3847.587	3494
3849.212	3545
3850.838	3540
3852.463	3561
3854.089	3427
3855.712	3516
3857.335	3439
3858.959	3523
3860.582	3493
3862.205	3506
3863.827	3509
3865.449	3497
3867.07	3425
3868.691	3467
3870.312	3520
3871.933	3459
3873.553	3513
3875.173	3433
3876.792	3467
3878.411	3404
3880.03	3490
3881.647	3526
3883.265	3504
3884.882	3441
3886.499	3428
3888.116	3544
3889.732	3419
3891.348	3464
3892.964	3462
3894.579	3503
3896.195	3478
3897.809	3462
3899.423	3428
3901.036	3449
3902.648	3451
3904.261	3492
3905.875	3414
3907.487	3470
3909.099	3505
3910.709	3425
3912.321	3474
3913.933	3346
3915.542	3479
3917.152	3463
3918.762	3375
3920.37	3374
3921.98	3387
3923.589	3397
3925.196	3441
3926.804	3444
3928.41	3445
3930.018	3420
3931.626	3398
3933.231	3431
3934.838	3335
3936.442	3374
3938.046	3336
3939.653	3410
3941.257	3367
3942.861	3364
3944.464	3406
3946.068	3458
3947.67	3376
3949.273	3428
3950.876	3439
3952.477	3330
3954.078	3299
3955.678	3341
3957.281	3379
3958.881	3424
3960.48	3356
3962.079	3367
3963.678	3440
3965.279	3426
3966.877	3399
3968.475	3316
3970.072	3309
3971.669	3255
3973.266	3301
3974.864	3319
3976.459	3262
3978.055	3285
3979.65	3282
3981.245	3355
3982.841	3310
3984.436	3255
3986.03	3289
3987.623	3234
3989.216	3238
3990.809	3307
3992.403	3254
3993.995	3266
3995.586	3253
3997.177	3243
3998.768	3306
4000.361	3259
4001.951	3173
4003.54	3282
4005.13	3238
4006.719	3131
4008.31	3210
4009.897	3235
4011.485	3240
4013.073	3173
4014.66	3292
4016.247	3179
4017.834	3186
4019.421	3114
4021.006	3142
4022.592	3177
4024.178	3162
4025.763	3215
4027.348	3161
4028.932	3240
4030.515	3226
4032.099	3161
4033.682	3170
4035.266	3248
4036.847	3171
4038.429	3170
4040.011	3198
4041.592	3180
4043.173	3126
4044.755	3133
4046.334	3063
4047.913	3123
4049.494	3155
4051.074	3134
4052.652	3106
4054.23	3099
4055.807	3115
4057.385	3153
4058.963	3139
4060.541	3149
4062.117	3117
4063.693	3118
4065.269	3061
4066.844	3127
4068.42	3107
4069.995	3060
4071.569	3051
4073.143	3080
4074.716	3108
4076.291	3054
4077.864	3036
4079.436	3087
4081.009	3050
4082.58	3054
4084.152	3025
4085.723	3059
4087.294	3136
4088.865	3116
4090.435	3099
4092.005	3082
4093.574	3022
4095.143	3109
4096.712	2995
4098.279	3077
4099.848	3035
4101.416	3094
4102.984	3057
4104.55	3034
4106.117	3033
4107.682	2983
4109.248	3050
4110.815	3034
4112.379	3037
4113.945	3066
4115.508	3061
4117.073	3052
4118.637	3032
4120.201	2930
4121.763	2959
4123.325	3000
4124.888	3022
4126.449	2954
4128.013	3033
4129.573	2968
4131.133	2999
4132.694	2965
4134.254	3043
4135.814	2977
4137.374	3021
4138.933	2970
4140.491	2981
4142.049	2907
4143.607	2932
4145.167	2929
4146.724	3001
4148.28	2907
4149.836	2910
4151.392	2948
4152.949	2895
4154.504	2962
4156.059	2897
4157.614	2872
4159.168	2873
4160.723	2904
4162.277	2870
4163.83	2832
4165.383	2937
4166.936	2860
4168.488	2859
4170.041	2807
4171.593	2855
4173.144	2845
4174.695	2875
4176.246	2776
4177.796	2804
4179.346	2900
4180.896	2841
4182.445	2890
4183.994	2857
4185.542	2860
4187.091	2846
4188.639	2867
4190.185	2824
4191.732	2878
4193.279	2816
4194.826	2862
4196.373	2894
4197.918	2808
4199.463	2867
4201.008	2820
4202.553	2822
4204.098	2815
4205.641	2807
4207.185	2723
4208.728	2843
4210.271	2826
4211.814	2836
4213.357	2753
4214.898	2801
4216.439	2839
4217.98	2777
4219.522	2793
4221.062	2846
4222.603	2815
4224.142	2795
4225.681	2748
4227.222	2756
4228.76	2760
4230.298	2786
4231.835	2779
4233.373	2755
4234.911	2759
4236.449	2804
4237.985	2729
4239.521	2752
4241.057	2768
4242.592	2765
4244.128	2806
4245.663	2700
4247.197	2723
4248.731	2752
4250.265	2764
4251.798	2814
4253.333	2826
4254.865	2742
4256.397	2665
4257.93	2758
4259.461	2723
4260.994	2675
4262.525	2679
4264.056	2742
4265.586	2794
4267.115	2729
4268.646	2746
4270.176	2656
4271.705	2715
4273.232	2696
4274.761	2659
4276.289	2669
4277.818	2674
4279.345	2665
4280.872	2714
4282.399	2717
4283.924	2693
4285.452	2694
4286.976	2660
4288.502	2653
4290.026	2680
4291.551	2598
4293.074	2675
4294.6	2616
4296.123	2654
4297.646	2668
4299.168	2664
4300.691	2707
4302.214	2627
4303.736	2648
4305.257	2651
4306.778	2634
4308.299	2622
4309.82	2608
4311.34	2611
4312.86	2509
4314.379	2653
