400.0745	4313
402.597	4186
405.1208	4355
407.6419	4176
410.1623	4310
412.6819	4259
415.201	4355
417.7172	4381
420.2369	4369
422.7538	4393
425.2701	4481
427.7856	4471
430.3005	4589
432.8147	4482
435.3282	4535
437.841	4492
440.3511	4446
442.8625	4536
445.3753	4618
447.8854	4507
450.3927	4477
452.9014	4520
455.4073	4500
457.9146	4600
460.4233	4548
462.9272	4542
465.4325	4519
467.935	4548
470.4389	4635
472.9421	4573
475.4446	4555
477.9444	4514
480.4456	4568
482.944	4549
485.4417	4548
487.9429	4571
490.4393	4601
492.935	4616
495.4321	4598
497.9264	4676
500.4221	4660
502.9171	4719
505.4094	4634
507.9011	4623
510.392	4687
512.8864	4659
515.3759	4677
517.8649	4708
520.3531	4708
522.8406	4709
525.3275	4726
527.8178	4781
530.3033	4776
532.7881	4627
535.2723	4733
537.7558	4715
540.2407	4771
542.7228	4784
545.2043	4715
547.6851	4747
550.1652	4747
552.6467	4770
555.1255	4716
557.6016	4767
560.079	4736
562.5557	4763
565.0318	4793
567.5092	4854
569.984	4863
572.456	4844
574.9294	4890
577.4022	4814
579.8762	4852
582.3456	4948
584.8163	4896
587.2863	4939
589.7557	4977
592.2224	4945
594.6924	4996
597.1578	5031
599.6245	4927
602.0905	4847
604.5538	4995
607.0206	4909
609.4825	4929
611.9459	5006
614.4066	4893
616.8686	4923
619.33	4810
621.7906	4908
624.2487	4842
626.708	4901
629.1647	4973
631.6207	4865
634.0801	4999
636.5348	4929
638.9888	4915
641.4442	4916
643.8969	4912
646.3509	4867
648.8022	4980
651.255	4977
653.705	5012
656.1544	4972
658.6031	5038
661.0532	4966
663.5026	5075
665.9493	5013
668.3954	5008
670.8409	5018
673.2877	5054
675.7318	5072
678.1752	4999
680.618	5050
683.0601	5043
685.5035	5117
687.9444	5011
690.3845	5067
692.824	5095
695.2628	5129
697.701	5061
700.1406	5142
702.5774	4997
705.0116	5216
707.4472	5037
709.8821	5092
712.3183	5113
714.7519	5092
717.1829	5116
719.6151	5212
722.0468	5138
724.4777	5208
726.908	5264
729.3377	5163
731.7667	5331
734.1931	5283
736.6208	5232
739.0498	5371
741.4742	5212
743.9	5302
746.3231	5352
748.7476	5405
751.1713	5415
753.5945	5341
756.015	5462
758.4368	5303
760.856	5438
763.2766	5499
765.6965	5417
768.1157	5364
770.5323	5507
772.9483	5403
775.3656	5497
777.7822	5412
780.1963	5398
782.6116	5417
785.0244	5485
787.4365	5469
789.8499	5513
792.2626	5476
794.6728	5513
797.0823	5395
799.4911	5450
801.8994	5517
804.3109	5420
806.7178	5526
809.124	5478
811.5297	5559
813.9347	5555
816.341	5503
818.7447	5478
821.1478	5506
823.5502	5597
825.952	5445
828.3531	5530
830.7556	5494
833.1554	5593
835.5546	5656
837.9532	5510
840.3511	5496
842.7504	5599
845.1451	5572
847.5411	5538
849.9365	5580
852.3312	5672
854.7272	5581
857.1187	5661
859.5115	5632
861.9037	5631
864.2952	5554
866.6842	5632
869.0764	5632
871.4661	5611
873.8531	5585
876.2415	5654
878.6272	5632
881.0162	5508
883.4026	5595
885.7866	5658
888.1717	5620
890.5543	5546
892.9382	5670
895.3215	5577
897.7041	5681
900.0842	5601
902.4655	5559
904.8443	5723
907.2244	5651
909.6039	5673
911.9808	5676
914.357	5676
916.7346	5748
919.1115	5840
921.4859	5778
923.8616	5869
926.2347	5760
928.6071	5901
930.979	5804
933.3541	5892
935.7247	5951
938.0946	5809
940.4639	5941
942.8326	5952
945.2026	6121
947.5701	6158
949.9369	6440
952.305	6374
954.6705	6601
957.0355	6746
959.4017	6958
961.7654	7080
964.1284	7022
966.4908	7015
968.8527	6577
971.2138	6410
973.5743	6374
975.9343	6069
978.2936	5974
980.6522	5974
983.0122	5901
985.3696	5895
987.7245	5940
990.0807	5787
992.4362	5745
994.7911	5774
997.1474	5813
999.4991	5818
1001.852	5773
1004.205	5848
1006.555	5735
1008.908	5905
1011.258	5798
1013.606	5803
1015.956	5909
1018.302	5749
1020.652	5846
1022.998	5910
1025.345	5836
1027.691	5819
1030.035	5791
1032.378	5953
1034.724	5924
1037.066	5854
1039.409	5915
1041.75	5996
1044.092	5821
1046.433	5948
1048.771	5992
1051.112	5908
1053.449	5843
1055.786	6033
1058.124	5939
1060.462	5917
1062.797	6107
1065.131	6099
1067.467	6079
1069.8	6131
1072.135	6055
1074.467	6065
1076.798	6122
1079.129	6017
1081.459	6055
1083.792	6055
1086.121	5969
1088.449	5892
1090.777	5976
1093.104	5884
1095.431	5939
1097.759	5926
1100.084	5995
1102.408	6108
1104.732	6080
1107.056	6010
1109.379	5964
1111.701	5870
1114.022	5939
1116.343	5997
1118.664	6092
1120.983	5981
1123.303	5950
1125.621	5987
1127.939	6020
1130.256	6061
1132.573	6076
1134.889	6018
1137.205	6087
1139.52	5963
1141.832	5934
1144.146	5983
1146.461	5930
1148.771	6009
1151.083	5983
1153.392	6027
1155.703	6012
1158.011	6020
1160.323	6004
1162.629	6061
1164.938	5957
1167.243	6057
1169.55	5968
1171.857	5991
1174.163	6038
1176.466	6023
1178.769	5908
1181.073	5975
1183.374	6094
1185.677	6051
1187.979	5970
1190.279	5905
1192.578	6095
1194.878	5960
1197.178	5983
1199.476	6070
1201.772	5978
1204.068	6058
1206.366	5966
1208.663	6073
1210.957	6021
1213.251	6029
1215.544	6028
1217.836	5959
1220.128	6087
1222.421	6028
1224.712	6047
1227.002	6120
1229.292	6139
1231.581	6093
1233.871	6130
1236.159	6143
1238.446	6115
1240.732	6123
1243.018	6099
1245.304	6198
1247.59	6219
1249.874	6192
1252.156	6288
1254.439	6088
1256.721	6152
1259.005	6193
1261.286	6180
1263.565	6297
1265.845	6115
1268.125	6268
1270.403	6180
1272.682	6168
1274.959	6445
1277.234	6226
1279.511	6200
1281.787	6088
1284.062	6100
1286.337	6097
1288.609	6105
1290.882	6113
1293.153	6169
1295.428	6158
1297.698	6124
1299.969	6039
1302.237	6111
1304.507	6127
1306.777	6192
1309.044	6192
1311.312	6077
1313.578	6153
1315.844	6151
1318.109	6094
1320.375	6050
1322.638	5987
1324.903	6174
1327.165	6139
1329.427	6101
1331.69	6067
1333.952	6122
1336.212	6112
1338.471	6093
1340.73	6101
1342.988	6164
1345.248	6155
1347.505	6145
1349.763	6111
1352.019	6223
1354.274	6171
1356.53	6191
1358.784	6120
1361.038	6071
1363.291	6109
1365.543	6173
1367.797	5975
1370.048	6225
1372.296	6099
1374.546	6231
1376.796	6184
1379.045	6112
1381.295	6215
1383.542	6198
1385.787	6155
1388.034	6203
1390.28	6260
1392.527	6282
1394.772	6265
1397.014	6217
1399.258	6148
1401.501	6254
1403.741	6226
1405.985	6125
1408.226	6232
1410.465	6230
1412.705	6220
1414.943	6268
1417.184	6261
1419.42	6268
1421.658	6264
1423.894	6243
1426.13	6346
1428.366	6316
1430.602	6240
1432.835	6240
1435.069	6375
1437.301	6367
1439.535	6400
1441.767	6447
1443.997	6405
1446.229	6325
1448.458	6441
1450.687	6408
1452.916	6415
1455.146	6464
1457.372	6518
1459.599	6446
1461.824	6415
1464.051	6317
1466.277	6369
1468.501	6219
1470.725	6360
1472.948	6260
1475.17	6295
1477.393	6361
1479.614	6237
1481.837	6236
1484.057	6138
1486.276	6161
1488.497	6161
1490.715	6251
1492.932	6180
1495.148	6130
1497.364	6153
1499.58	6198
1501.798	6160
1504.012	6165
1506.227	6096
1508.44	6120
1510.653	6028
1512.866	6095
1515.078	6094
1517.289	6091
1519.5	6221
1521.711	6061
1523.92	6182
1526.13	6078
1528.338	6169
1530.544	6174
1532.752	6124
1534.959	6254
1537.165	6244
1539.371	6087
1541.574	6039
1543.779	6164
1545.983	6167
1548.187	6144
1550.39	6180
1552.59	6254
1554.792	6272
1556.991	6151
1559.19	6225
1561.392	6269
1563.59	6279
1565.789	6231
1567.986	6325
1570.182	6092
1572.381	6187
1574.576	6278
1576.771	6367
1578.966	6298
1581.16	6310
1583.354	6226
1585.546	6309
1587.74	6331
1589.931	6345
1592.121	6215
1594.311	6226
1596.502	6342
1598.693	6264
1600.881	6362
1603.069	6373
1605.256	6331
1607.445	6383
1609.631	6347
1611.816	6303
1614.001	6320
1616.186	6371
1618.37	6410
1620.555	6307
1622.737	6426
1624.919	6370
1627.101	6404
1629.282	6335
1631.463	6329
1633.643	6344
1635.822	6368
1638.001	6416
1640.179	6592
1642.359	6414
1644.534	6509
1646.711	6484
1648.887	6460
1651.062	6560
1653.235	6315
1655.412	6382
1657.586	6428
1659.757	6416
1661.93	6364
1664.1	6424
1666.274	6493
1668.445	6527
1670.614	6508
1672.784	6462
1674.951	6484
1677.12	6377
1679.289	6387
1681.457	6479
1683.622	6478
1685.789	6373
1687.953	6368
1690.121	6489
1692.284	6547
1694.447	6363
1696.611	6371
1698.772	6346
1700.935	6344
1703.098	6371
1705.258	6462
1707.417	6404
1709.576	6361
1711.736	6376
1713.896	6304
1716.053	6287
1718.21	6376
1720.366	6326
1722.522	6404
1724.68	6364
1726.835	6282
1728.989	6433
1731.142	6338
1733.295	6293
1735.449	6291
1737.601	6318
1739.753	6341
1741.903	6418
1744.054	6398
1746.203	6353
1748.354	6270
1750.503	6411
1752.651	6474
1754.798	6401
1756.944	6413
1759.092	6490
1761.238	6487
1763.383	6218
1765.528	6444
1767.672	6314
1769.814	6487
1771.959	6330
1774.102	6416
1776.242	6497
1778.384	6486
1780.525	6376
1782.665	6305
1784.805	6373
1786.945	6437
1789.082	6435
1791.22	6371
1793.36	6451
1795.495	6463
1797.632	6405
1799.766	6411
1801.902	6369
1804.035	6482
1806.172	6389
1808.304	6370
1810.436	6562
1812.569	6540
1814.699	6551
1816.833	6499
1818.963	6467
1821.092	6608
1823.222	6395
1825.35	6437
1827.478	6399
1829.608	6506
1831.734	6424
1833.86	6468
1835.986	6486
1838.11	6370
1840.238	6470
1842.362	6480
1844.485	6391
1846.608	6503
1848.73	6412
1850.853	6404
1852.974	6446
1855.097	6526
1857.217	6429
1859.336	6475
1861.455	6533
1863.576	6382
1865.693	6461
1867.811	6393
1869.926	6430
1872.042	6320
1874.16	6444
1876.275	6384
1878.39	6487
1880.504	6415
1882.618	6402
1884.731	6425
1886.843	6508
1888.956	6533
1891.067	6477
1893.178	6503
1895.287	6391
1897.399	6541
1899.508	6346
1901.617	6502
1903.724	6528
1905.832	6625
1907.941	6537
1910.046	6540
1912.152	6518
1914.256	6569
1916.361	6569
1918.464	6574
1920.57	6476
1922.672	6692
1924.775	6444
1926.876	6602
1928.978	6673
1931.08	6541
1933.181	6527
1935.28	6598
1937.38	6532
1939.478	6461
1941.577	6505
1943.675	6593
1945.771	6557
1947.867	6491
1949.964	6556
1952.058	6617
1954.154	6570
1956.248	6686
1958.343	6534
1960.435	6628
1962.527	6568
1964.62	6607
1966.711	6530
1968.802	6588
1970.892	6610
1972.983	6614
1975.072	6563
1977.162	6591
1979.25	6525
1981.337	6485
1983.424	6498
1985.51	6542
1987.598	6466
1989.683	6486
1991.768	6539
1993.852	6513
1995.934	6507
1998.019	6546
2000.102	6443
2002.184	6639
2004.266	6444
2006.347	6449
2008.427	6517
2010.508	6506
2012.587	6517
2014.666	6545
2016.745	6609
2018.821	6493
2020.9	6575
2022.977	6553
2025.052	6420
2027.128	6459
2029.204	6457
2031.277	6522
2033.353	6481
2035.425	6565
2037.499	6560
2039.57	6543
2041.642	6476
2043.714	6628
2045.786	6518
2047.855	6477
2049.925	6658
2051.993	6480
2054.064	6423
2056.132	6546
2058.2	6629
2060.266	6463
2062.332	6568
2064.398	6434
2066.465	6466
2068.529	6417
2070.592	6500
2072.657	6471
2074.719	6370
2076.783	6542
2078.845	6535
2080.907	6563
2082.968	6417
2085.028	6379
2087.087	6483
2089.148	6488
2091.207	6482
2093.264	6589
2095.322	6511
2097.379	6354
2099.439	6527
2101.495	6496
2103.55	6550
2105.605	6497
2107.658	6512
2109.713	6454
2111.767	6499
2113.82	6569
2115.872	6536
2117.924	6507
2119.975	6421
2122.028	6403
2124.078	6488
2126.126	6547
2128.176	6589
2130.225	6530
2132.275	6370
2134.321	6457
2136.368	6407
2138.415	6382
2140.461	6467
2142.505	6471
2144.552	6468
2146.597	6458
2148.64	6537
2150.684	6520
2152.725	6319
2154.77	6417
2156.811	6376
2158.852	6377
2160.894	6375
2162.933	6401
2164.973	6269
2167.013	6479
2169.051	6371
2171.089	6349
2173.126	6250
2175.164	6465
2177.201	6312
2179.236	6431
2181.273	6435
2183.307	6310
2185.341	6337
2187.377	6283
2189.41	6282
2191.442	6308
2193.473	6356
2195.506	6407
2197.539	6343
2199.569	6305
2201.598	6300
2203.628	6234
2205.656	6321
2207.686	6325
2209.716	6210
2211.743	6219
2213.769	6329
2215.796	6320
2217.821	6203
2219.848	6231
2221.873	6319
2223.897	6275
2225.921	6311
2227.944	6406
2229.967	6302
2231.991	6221
2234.011	6195
2236.032	6224
2238.053	6196
2240.073	6399
2242.094	6245
2244.114	6155
2246.131	6210
2248.149	6270
2250.167	6335
2252.186	6211
2254.201	6195
2256.218	6277
2258.233	6335
2260.247	6188
2262.262	6302
2264.278	6239
2266.29	6158
2268.303	6239
2270.315	6116
2272.327	6234
2274.341	6070
2276.35	6256
2278.361	6150
2280.37	6189
2282.38	6278
2284.388	6164
2286.397	6205
2288.405	6213
2290.412	6216
2292.419	6208
2294.425	6202
2296.431	6198
2298.437	6178
2300.441	6208
2302.445	6159
2304.449	6096
2306.453	6198
2308.455	6209
2310.457	6182
2312.459	6134
2314.46	6164
2316.46	6120
2318.461	6256
2320.46	6209
2322.458	6200
2324.458	6154
2326.456	6206
2328.455	6055
2330.451	6175
2332.447	6116
2334.443	6209
2336.438	6001
2338.433	6040
2340.429	6146
2342.422	6123
2344.416	5951
2346.408	6086
2348.399	6125
2350.393	6135
2352.384	6098
2354.375	6092
2356.365	5967
2358.355	6053
2360.344	6107
2362.333	6018
2364.322	6124
2366.309	6067
2368.295	5946
2370.282	6074
2372.27	6123
2374.256	5942
2376.24	6172
2378.225	6079
2380.208	5963
2382.194	5949
2384.177	6030
2386.159	5973
2388.142	5997
2390.122	5887
2392.105	6156
2394.085	6097
2396.066	5949
2398.044	5990
2400.024	5929
2402.002	5902
2403.982	5938
2405.959	5782
2407.935	5931
2409.913	6003
2411.888	5864
2413.865	5968
2415.84	6058
2417.814	5974
2419.788	5984
2421.762	5805
2423.735	5927
2425.708	5997
2427.68	5961
2429.651	6067
2431.623	5953
2433.593	5944
2435.564	5887
2437.533	5975
2439.502	5942
2441.47	5984
2443.438	5973
2445.406	5961
2447.373	5849
2449.34	5937
2451.305	5880
2453.271	5906
2455.235	5989
2457.201	5928
2459.165	5847
2461.129	5883
2463.092	5902
2465.054	5861
2467.018	5769
2468.978	5893
2470.939	5884
2472.899	5815
2474.86	5876
2476.819	5764
2478.778	5807
2480.737	5859
2482.695	5875
2484.653	5834
2486.609	5862
2488.567	6056
2490.524	5846
2492.478	5864
2494.433	5865
2496.387	5796
2498.343	5814
2500.297	5896
2502.249	5799
2504.202	5836
2506.153	5881
2508.105	5849
2510.057	5795
2512.008	5861
2513.957	5822
2515.906	5740
2517.855	5845
2519.805	5786
2521.754	5752
2523.7	5767
2525.647	5773
2527.594	5767
2529.54	5725
2531.486	5755
2533.431	5851
2535.376	5833
2537.32	5730
2539.263	5663
2541.207	5869
2543.151	5824
2545.093	5787
2547.034	5817
2548.975	5671
2550.917	5648
2552.856	5712
2554.796	5745
2556.735	5749
2558.673	5788
2560.611	5706
2562.55	5748
2564.487	5755
2566.424	5856
2568.36	5863
2570.296	5728
2572.232	5764
2574.167	5748
2576.101	5666
2578.035	5702
2579.969	5734
2581.902	5813
2583.834	5759
2585.766	5798
2587.698	5740
2589.628	5749
2591.557	5803
2593.489	5698
2595.419	5724
2597.348	5680
2599.275	5807
2601.204	5719
2603.131	5725
2605.059	5735
2606.986	5708
2608.911	5657
2610.837	5694
2612.76	5674
2614.687	5811
2616.61	5739
2618.534	5804
2620.457	5699
2622.38	5753
2624.302	5756
2626.225	5745
2628.145	5772
2630.067	5682
2631.986	5693
2633.906	5823
2635.827	5692
2637.745	5834
2639.662	5841
2641.581	5722
2643.498	5665
2645.415	5788
2647.331	5715
2649.248	5659
2651.163	5833
2653.077	5686
2654.993	5748
2656.906	5705
2658.821	5743
2660.733	5690
2662.646	5695
2664.557	5779
2666.47	5725
2668.381	5598
2670.291	5674
2672.201	5664
2674.11	5695
2676.021	5675
2677.929	5667
2679.837	5648
2681.745	5716
2683.652	5752
2685.56	5583
2687.466	5667
2689.371	5630
2691.276	5656
2693.181	5546
2695.085	5570
2696.991	5636
2698.893	5596
2700.796	5670
2702.698	5586
2704.601	5665
2706.502	5576
2708.404	5583
2710.304	5542
2712.203	5726
2714.103	5585
2716.003	5609
2717.902	5685
2719.8	5668
2721.697	5541
2723.594	5608
2725.49	5609
2727.389	5566
2729.283	5529
2731.179	5566
2733.073	5569
2734.968	5522
2736.863	5634
2738.757	5560
2740.649	5534
2742.541	5586
2744.433	5616
2746.324	5499
2748.216	5456
2750.107	5551
2751.997	5651
2753.886	5469
2755.776	5607
2757.666	5559
2759.553	5614
2761.44	5600
2763.327	5476
2765.215	5433
2767.102	5509
2768.988	5544
2770.873	5446
2772.757	5554
2774.641	5580
2776.525	5527
2778.41	5487
2780.292	5419
2782.175	5495
2784.057	5499
2785.938	5451
2787.821	5512
2789.701	5526
2791.581	5513
2793.461	5449
2795.34	5384
2797.219	5493
2799.099	5541
2800.975	5502
2802.853	5493
2804.73	5470
2806.606	5463
2808.484	5586
2810.358	5453
2812.233	5485
2814.108	5422
2815.981	5495
2817.857	5376
2819.73	5375
2821.602	5492
2823.474	5508
2825.346	5523
2827.217	5458
2829.089	5440
2830.959	5489
2832.829	5439
2834.698	5423
2836.567	5351
2838.436	5416
2840.305	5378
2842.172	5353
2844.04	5494
2845.905	5427
2847.772	5371
2849.639	5518
2851.503	5461
2853.369	5470
2855.232	5549
2857.096	5400
2858.961	5546
2860.824	5427
2862.686	5476
2864.547	5522
2866.41	5560
2868.272	5569
2870.132	5566
2871.992	5586
2873.851	5578
2875.711	5714
2877.57	5751
2879.429	5742
2881.287	5802
2883.144	5697
2885.001	5855
2886.857	5818
2888.714	5670
2890.57	5751
2892.425	5808
2894.279	5806
2896.133	5816
2897.987	5721
2899.842	5773
2901.694	5786
2903.547	5797
2905.397	5702
2907.249	5747
2909.101	5775
2910.952	5779
2912.802	5899
2914.652	5793
2916.5	5723
2918.35	5939
2920.198	5991
2922.045	5930
2923.893	5958
2925.74	5960
2927.585	6031
2929.433	6047
2931.279	6104
2933.123	6237
2934.968	6160
2936.811	6217
2938.656	6299
2940.5	6301
2942.342	6293
2944.185	6360
2946.026	6321
2947.87	6360
2949.71	6254
2951.549	6340
2953.39	6308
2955.229	6203
2957.069	6162
2958.908	6142
2960.746	6198
2962.584	6051
2964.421	5931
2966.257	6072
2968.094	5859
2969.931	5888
2971.766	5921
2973.601	5811
2975.435	5766
2977.27	5837
2979.105	5833
2980.938	5814
2982.77	5797
2984.602	5655
2986.434	5659
2988.267	5737
2990.097	5754
2991.927	5758
2993.757	5613
2995.587	5601
2997.417	5498
2999.246	5525
3001.074	5449
3002.902	5539
3004.729	5416
3006.556	5349
3008.384	5351
3010.21	5297
3012.036	5285
3013.861	5279
3015.684	5225
3017.51	5283
3019.334	5268
3021.157	5214
3022.981	5140
3024.802	5090
3026.624	5161
3028.448	5152
3030.267	5215
3032.088	5252
3033.909	5274
3035.728	5276
3037.549	5144
3039.368	5091
3041.186	5192
3043.004	5135
3044.821	5118
3046.64	5121
3048.455	5069
3050.272	5063
3052.087	5095
3053.903	5013
3055.717	5080
3057.534	4994
3059.347	5081
3061.16	4985
3062.974	5032
3064.785	5000
3066.598	5087
3068.411	5119
3070.222	4957
3072.032	5000
3073.844	5012
3075.653	5108
3077.463	5036
3079.272	4901
3081.08	5027
3082.889	5018
3084.697	4962
3086.505	5059
3088.312	4916
3090.118	5011
3091.924	4961
3093.729	4873
3095.535	4904
3097.34	5039
3099.144	4965
3100.947	4996
3102.75	4970
3104.553	4955
3106.357	4940
3108.159	4845
3109.961	4911
3111.762	4830
3113.562	4964
3115.365	4838
3117.164	4927
3118.964	4887
3120.761	4831
3122.56	4883
3124.36	4892
3126.158	4821
3127.954	4944
3129.75	4815
3131.547	4875
3133.343	4910
3135.139	4855
3136.934	4865
3138.729	4806
3140.522	4829
3142.317	4890
3144.11	4781
3145.904	4860
3147.695	4892
3149.488	4818
3151.28	4845
3153.07	4847
3154.863	4712
3156.652	4826
3158.441	4821
3160.231	4886
3162.019	4777
3163.81	4714
3165.597	4775
3167.384	4854
3169.172	4800
3170.958	4741
3172.745	4762
3174.532	4648
3176.317	4832
3178.101	4763
3179.885	4760
3181.67	4730
3183.455	4623
3185.238	4798
3187.02	4752
3188.802	4832
3190.585	4714
3192.368	4724
3194.149	4759
3195.929	4761
3197.709	4710
3199.489	4700
3201.268	4756
3203.048	4652
3204.826	4802
3206.604	4780
3208.382	4793
3210.159	4747
3211.937	4712
3213.713	4763
3215.489	4743
3217.263	4756
3219.038	4751
3220.815	4729
3222.589	4692
3224.363	4735
3226.136	4656
3227.908	4729
3229.681	4771
3231.454	4786
3233.226	4637
3234.996	4798
3236.767	4621
3238.538	4648
3240.308	4618
3242.078	4646
3243.847	4798
3245.615	4770
3247.384	4721
3249.15	4742
3250.92	4638
3252.686	4646
3254.453	4678
3256.218	4669
3257.984	4740
3259.75	4603
3261.515	4699
3263.279	4681
3265.044	4698
3266.806	4621
3268.57	4701
3270.334	4686
3272.095	4697
3273.856	4591
3275.619	4719
3277.379	4646
3279.14	4653
3280.9	4712
3282.661	4664
3284.419	4676
3286.178	4628
3287.937	4669
3289.695	4658
3291.453	4693
3293.21	4630
3294.967	4754
3296.723	4732
3298.48	4665
3300.235	4628
3301.99	4761
3303.744	4687
3305.498	4696
3307.253	4657
3309.006	4701
3310.759	4715
3312.511	4580
3314.263	4573
3316.017	4680
3317.768	4703
3319.519	4686
3321.268	4673
3323.018	4711
3324.767	4687
3326.518	4705
3328.267	4550
3330.014	4675
3331.762	4626
3333.509	4692
3335.258	4647
3337.003	4563
3338.75	4744
3340.496	4732
3342.24	4549
3343.987	4724
3345.732	4588
3347.475	4659
3349.219	4596
3350.961	4663
3352.705	4552
3354.448	4528
3356.19	4574
3357.931	4647
3359.672	4564
3361.412	4574
3363.155	4588
3364.894	4648
3366.633	4587
3368.372	4533
3370.11	4499
3371.849	4538
3373.588	4589
3375.325	4502
3377.061	4552
3378.799	4460
3380.534	4590
3382.271	4558
3384.006	4475
3385.741	4505
3387.475	4636
3389.209	4506
3390.944	4498
3392.677	4508
3394.409	4536
3396.143	4403
3397.874	4566
3399.606	4560
3401.338	4471
3403.069	4454
3404.799	4441
3406.528	4424
3408.258	4521
3409.988	4499
3411.717	4462
3413.445	4384
3415.173	4452
3416.899	4500
3418.626	4519
3420.354	4357
3422.08	4477
3423.806	4460
3425.531	4418
3427.255	4419
3428.981	4420
3430.705	4383
3432.429	4456
3434.151	4400
3435.875	4414
3437.599	4430
3439.321	4399
3441.042	4365
3442.763	4391
3444.483	4307
3446.204	4286
3447.926	4434
3449.645	4244
3451.364	4373
3453.082	4309
3454.801	4397
3456.52	4410
3458.238	4373
3459.954	4423
3461.671	4372
3463.387	4275
3465.104	4301
3466.82	4331
3468.534	4300
3470.25	4203
3471.963	4265
3473.676	4246
3475.392	4278
3477.104	4328
3478.817	4203
3480.528	4215
3482.241	4280
3483.954	4236
3485.664	4273
3487.374	4203
3489.084	4299
3490.795	4165
3492.504	4233
3494.214	4220
3495.922	4225
3497.63	4173
3499.338	4150
3501.045	4143
3502.753	4252
3504.459	4206
3506.166	4172
3507.871	4304
3509.576	4253
3511.283	4174
3512.987	4130
3514.691	4028
3516.395	4164
3518.098	4066
3519.8	4112
3521.504	4161
3523.206	4129
3524.908	4108
3526.609	4032
3528.309	4112
3530.011	4134
3531.711	4092
3533.411	4041
3535.109	4210
3536.808	4015
3538.507	4041
3540.206	4082
3541.904	4012
3543.601	4097
3545.297	4114
3546.994	4084
3548.69	4010
3550.387	4074
3552.081	3995
3553.776	4029
3555.47	3932
3557.166	4064
3558.859	4057
3560.553	3908
3562.245	4088
3563.938	3964
3565.629	3993
3567.322	4004
3569.014	4030
3570.704	4021
3572.394	3998
3574.084	3922
3575.775	4002
3577.464	3965
3579.152	4034
3580.842	3957
3582.529	3951
3584.216	3976
3585.905	3996
3587.591	3955
3589.279	4017
3590.964	3970
3592.649	3919
3594.336	3942
3596.021	3886
3597.705	4009
3599.388	3860
3601.072	3845
3602.757	3917
3604.439	3947
3606.122	3861
3607.803	3851
3609.485	3884
3611.167	3913
3612.849	3859
3614.529	3784
3616.208	3853
3617.888	3830
3619.567	3830
3621.247	3824
3622.926	3861
3624.603	3770
3626.281	3823
3627.958	3804
3629.635	3821
3631.312	3872
3632.989	3700
3634.665	3786
3636.339	3775
3638.014	3714
3639.691	3855
3641.364	3731
3643.038	3728
3644.71	3640
3646.384	3796
3648.058	3791
3649.729	3728
3651.402	3749
3653.073	3734
3654.744	3732
3656.414	3704
3658.085	3633
3659.755	3674
3661.424	3792
3663.094	3707
3664.762	3722
3666.431	3649
3668.099	3718
3669.766	3796
3671.433	3668
3673.099	3677
3674.768	3677
3676.433	3662
3678.098	3672
3679.763	3625
3681.428	3603
3683.093	3577
3684.757	3589
3686.421	3690
3688.083	3609
3689.746	3599
3691.408	3654
3693.071	3687
3694.733	3511
3696.394	3532
3698.054	3684
3699.715	3570
3701.375	3609
3703.036	3602
3704.695	3591
3706.354	3562
3708.012	3605
3709.67	3593
3711.329	3610
3712.987	3627
3714.644	3556
3716.299	3630
3717.955	3550
3719.613	3585
3721.268	3609
3722.923	3594
3724.577	3540
3726.231	3603
3727.885	3566
3729.539	3612
3731.192	3632
3732.845	3578
3734.497	3603
3736.149	3563
3737.802	3598
3739.453	3540
3741.104	3537
3742.753	3555
3744.404	3447
3746.052	3557
3747.704	3535
3749.352	3553
3751	3483
3752.648	3502
3754.296	3553
3755.944	3500
3757.59	3485
3759.238	3618
3760.883	3536
3762.528	3529
3764.176	3542
3765.82	3398
3767.464	3542
3769.109	3548
3770.753	3482
3772.396	3538
3774.04	3493
3775.683	3440
3777.325	3422
3778.967	3455
3780.608	3536
3782.25	3442
3783.89	3412
3785.531	3463
3787.17	3453
3788.81	3500
3790.45	3483
3792.09	3438
3793.729	3373
3795.366	3428
3797.003	3442
3798.64	3425
3800.278	3431
3801.915	3396
3803.551	3400
3805.187	3385
3806.822	3521
3808.458	3407
3810.093	3432
3811.726	3357
3813.36	3405
3814.994	3364
3816.627	3456
3818.262	3389
3819.893	3366
3821.525	3397
3823.157	3395
3824.787	3335
3826.42	3342
3828.051	3320
3829.68	3340
3831.31	3359
3832.938	3369
3834.569	3275
3836.198	3375
3837.825	3231
3839.454	3387
3841.08	3389
3842.708	3357
3844.335	3309
3845.962	3269
3847.587	3297
3849.212	3279
3850.838	3310
3852.463	3301
3854.089	3387
3855.712	3315
3857.335	3310
3858.959	3315
3860.582	3283
3862.205	3255
3863.827	3317
3865.449	3295
3867.07	3235
3868.691	3232
3870.312	3262
3871.933	3253
3873.553	3253
3875.173	3231
3876.792	3284
3878.411	3223
3880.03	3322
3881.647	3246
3883.265	3220
3884.882	3238
3886.499	3260
3888.116	3242
3889.732	3212
3891.348	3230
3892.964	3263
3894.579	3213
3896.195	3185
3897.809	3174
3899.423	3205
3901.036	3227
3902.648	3172
3904.261	3275
3905.875	3250
3907.487	3241
3909.099	3252
3910.709	3206
3912.321	3167
3913.933	3178
3915.542	3214
3917.152	3162
3918.762	3275
3920.37	3205
3921.98	3170
3923.589	3240
3925.196	3159
3926.804	3158
3928.41	3140
3930.018	3146
3931.626	3191
3933.231	3097
3934.838	3138
3936.442	3136
3938.046	3152
3939.653	3142
3941.257	3173
3942.861	3097
3944.464	3156
3946.068	3154
3947.67	3103
3949.273	3136
3950.876	3138
3952.477	3142
3954.078	3159
3955.678	3143
3957.281	3086
3958.881	3100
3960.48	3094
3962.079	3062
3963.678	3043
3965.279	3126
3966.877	3055
3968.475	3163
3970.072	3158
3971.669	3021
3973.266	3150
3974.864	3096
3976.459	3123
3978.055	3008
3979.65	3121
3981.245	3088
3982.841	3049
3984.436	2990
3986.03	3083
3987.623	2991
3989.216	3087
3990.809	3046
3992.403	3012
3993.995	3052
3995.586	3112
3997.177	3017
3998.768	3034
4000.361	3040
4001.951	3030
4003.54	2968
4005.13	3005
4006.719	2996
4008.31	3039
4009.897	3031
4011.485	3043
4013.073	3009
4014.66	2915
4016.247	3002
4017.834	2992
4019.421	2959
4021.006	2900
4022.592	2971
4024.178	2961
4025.763	2852
4027.348	2948
4028.932	2910
4030.515	2946
4032.099	2978
4033.682	2925
4035.266	2980
4036.847	2844
4038.429	2929
4040.011	2934
4041.592	2932
4043.173	2926
4044.755	2940
4046.334	2901
4047.913	2918
4049.494	2917
4051.074	2837
4052.652	2853
4054.23	2894
4055.807	2913
4057.385	2878
4058.963	2948
4060.541	2765
4062.117	2862
4063.693	2945
4065.269	2856
4066.844	2800
4068.42	2929
4069.995	2893
4071.569	2857
4073.143	2819
4074.716	2889
4076.291	2827
4077.864	2842
4079.436	2829
4081.009	2871
4082.58	2849
4084.152	2918
4085.723	2826
4087.294	2834
4088.865	2814
4090.435	2820
4092.005	2763
4093.574	2797
4095.143	2855
4096.712	2746
4098.279	2801
4099.848	2857
4101.416	2787
4102.984	2817
4104.55	2778
4106.117	2768
4107.682	2830
4109.248	2883
4110.815	2787
4112.379	2741
4113.945	2822
4115.508	2796
4117.073	2796
4118.637	2783
4120.201	2717
4121.763	2799
4123.325	2862
4124.888	2713
4126.449	2798
4128.013	2687
4129.573	2835
4131.133	2703
4132.694	2854
4134.254	2680
4135.814	2763
4137.374	2692
4138.933	2787
4140.491	2803
4142.049	2716
4143.607	2761
4145.167	2683
4146.724	2671
4148.28	2788
4149.836	2708
4151.392	2767
4152.949	2681
4154.504	2658
4156.059	2680
4157.614	2721
4159.168	2755
4160.723	2699
4162.277	2699
4163.83	2672
4165.383	2682
4166.936	2707
4168.488	2656
4170.041	2677
4171.593	2653
4173.144	2666
4174.695	2602
4176.246	2630
4177.796	2716
4179.346	2597
4180.896	2671
4182.445	2655
4183.994	2606
4185.542	2648
4187.091	2602
4188.639	2629
4190.185	2621
4191.732	2606
4193.279	2654
4194.826	2623
4196.373	2605
4197.918	2679
4199.463	2574
4201.008	2625
4202.553	2614
4204.098	2603
4205.641	2593
4207.185	2546
4208.728	2564
4210.271	2602
4211.814	2622
4213.357	2580
4214.898	2620
4216.439	2601
4217.98	2640
4219.522	2537
4221.062	2614
4222.603	2543
4224.142	2611
4225.681	2564
4227.222	2578
4228.76	2578
4230.298	2600
4231.835	2534
4233.373	2550
4234.911	2584
4236.449	2523
4237.985	2596
4239.521	2515
4241.057	2547
4242.592	2580
4244.128	2569
4245.663	2600
4247.197	2551
4248.731	2496
4250.265	2508
4251.798	2573
4253.333	2509
4254.865	2503
4256.397	2560
4257.93	2519
4259.461	2476
4260.994	2465
4262.525	2473
4264.056	2519
4265.586	2505
4267.115	2525
4268.646	2567
4270.176	2490
4271.705	2566
4273.232	2540
4274.761	2537
4276.289	2524
4277.818	2428
4279.345	2523
4280.872	2526
4282.399	2456
4283.924	2485
4285.452	2483
4286.976	2520
4288.502	2514
4290.026	2476
4291.551	2453
4293.074	2416
4294.6	2488
4296.123	2395
4297.646	2482
4299.168	2417
4300.691	2370
4302.214	2434
4303.736	2482
4305.257	2461
4306.778	2470
4308.299	2491
4309.82	2416
4311.34	2464
4312.86	2429
4314.379	2425
