400.0745	4211
402.597	4284
405.1208	4263
407.6419	4339
410.1623	4312
412.6819	4326
415.201	4358
417.7172	4430
420.2369	4384
422.7538	4518
425.2701	4580
427.7856	4551
430.3005	4560
432.8147	4628
435.3282	4556
437.841	4579
440.3511	4630
442.8625	4538
445.3753	4520
447.8854	4650
450.3927	4617
452.9014	4552
455.4073	4573
457.9146	4561
460.4233	4533
462.9272	4547
465.4325	4538
467.935	4536
470.4389	4610
472.9421	4456
475.4446	4562
477.9444	4584
480.4456	4531
482.944	4680
485.4417	4564
487.9429	4577
490.4393	4590
492.935	4633
495.4321	4663
497.9264	4672
500.4221	4659
502.9171	4696
505.4094	4653
507.9011	4625
510.392	4653
512.8864	4727
515.3759	4654
517.8649	4715
520.3531	4675
522.8406	4665
525.3275	4668
527.8178	4760
530.3033	4694
532.7881	4734
535.2723	4746
537.7558	4731
540.2407	4678
542.7228	4741
545.2043	4678
547.6851	4718
550.1652	4747
552.6467	4835
555.1255	4716
557.6016	4702
560.079	4711
562.5557	4733
565.0318	4784
567.5092	4907
569.984	4837
572.456	4893
574.9294	4866
577.4022	4986
579.8762	4935
582.3456	4975
584.8163	4934
587.2863	5055
589.7557	5012
592.2224	4951
594.6924	4985
597.1578	4937
599.6245	4872
602.0905	4974
604.5538	4903
607.0206	4951
609.4825	4950
611.9459	4847
614.4066	4891
616.8686	5024
619.33	4988
621.7906	4936
624.2487	4831
626.708	4782
629.1647	4861
631.6207	4923
634.0801	4957
636.5348	4928
638.9888	4845
641.4442	4867
643.8969	4832
646.3509	4845
648.8022	4873
651.255	4970
653.705	5029
656.1544	4948
658.6031	4898
661.0532	4900
663.5026	4960
665.9493	5012
668.3954	5031
670.8409	5044
673.2877	5051
675.7318	4926
678.1752	5035
680.618	5077
683.0601	5088
685.5035	4938
687.9444	5045
690.3845	5007
692.824	5109
695.2628	5115
697.701	5064
700.1406	5124
702.5774	4992
705.0116	5106
707.4472	5086
709.8821	5123
712.3183	5247
714.7519	5168
717.1829	5073
719.6151	5074
722.0468	5152
724.4777	5297
726.908	5259
729.3377	5203
731.7667	5317
734.1931	5279
736.6208	5307
739.0498	5255
741.4742	5241
743.9	5300
746.3231	5370
748.7476	5286
751.1713	5343
753.5945	5394
756.015	5405
758.4368	5353
760.856	5410
763.2766	5391
765.6965	5335
768.1157	5476
770.5323	5383
772.9483	5325
775.3656	5522
777.7822	5464
780.1963	5359
782.6116	5464
785.0244	5436
787.4365	5417
789.8499	5371
792.2626	5452
794.6728	5422
797.0823	5441
799.4911	5492
801.8994	5525
804.3109	5317
806.7178	5515
809.124	5486
811.5297	5473
813.9347	5554
816.341	5552
818.7447	5508
821.1478	5609
823.5502	5505
825.952	5479
828.3531	5466
830.7556	5557
833.1554	5513
835.5546	5498
837.9532	5538
840.3511	5545
842.7504	5580
845.1451	5600
847.5411	5584
849.9365	5717
852.3312	5662
854.7272	5686
857.1187	5612
859.5115	5739
861.9037	5691
864.2952	5753
866.6842	5620
869.0764	5628
871.4661	5664
873.8531	5580
876.2415	5646
878.6272	5667
881.0162	5635
883.4026	5613
885.7866	5600
888.1717	5714
890.5543	5589
892.9382	5614
895.3215	5605
897.7041	5693
900.0842	5597
902.4655	5623
904.8443	5755
907.2244	5735
909.6039	5686
911.9808	5821
914.357	5828
916.7346	5820
919.1115	5965
921.4859	5931
923.8616	5991
926.2347	5906
928.6071	5944
930.979	5844
933.3541	6007
935.7247	5966
938.0946	5982
940.4639	6092
942.8326	6136
945.2026	6218
947.5701	6313
949.9369	6474
952.305	6709
954.6705	6959
957.0355	7215
959.4017	7606
961.7654	7813
964.1284	7658
966.4908	7288
968.8527	6993
971.2138	6737
973.5743	6530
975.9343	6185
978.2936	6057
980.6522	5919
983.0122	5871
985.3696	5834
987.7245	5975
990.0807	5838
992.4362	5847
994.7911	5775
997.1474	5929
999.4991	5909
1001.852	5986
1004.205	5968
1006.555	5946
1008.908	5873
1011.258	5925
1013.606	5894
1015.956	5834
1018.302	5974
1020.652	5826
1022.998	5928
1025.345	5894
1027.691	6013
1030.035	6017
1032.378	5966
1034.724	5976
1037.066	5953
1039.409	6039
1041.75	6050
1044.092	6044
1046.433	6087
1048.771	6025
1051.112	6079
1053.449	6052
1055.786	6021
1058.124	6093
1060.462	6050
1062.797	5989
1065.131	6100
1067.467	6159
1069.8	6151
1072.135	6060
1074.467	6147
1076.798	6268
1079.129	6039
1081.459	6096
1083.792	6052
1086.121	6010
1088.449	5908
1090.777	5966
1093.104	5806
1095.431	6076
1097.759	6069
1100.084	6092
1102.408	6049
1104.732	6050
1107.056	5977
1109.379	6088
1111.701	5891
1114.022	5952
1116.343	5940
1118.664	5912
1120.983	6085
1123.303	6099
1125.621	6116
1127.939	6086
1130.256	6005
1132.573	6028
1134.889	6053
1137.205	5965
1139.52	5956
1141.832	6032
1144.146	6048
1146.461	6049
1148.771	5986
1151.083	6193
1153.392	5967
1155.703	6126
1158.011	6012
1160.323	6043
1162.629	5974
1164.938	6108
1167.243	6160
1169.55	6120
1171.857	6117
1174.163	6003
1176.466	6058
1178.769	6052
1181.073	6189
1183.374	6114
1185.677	6080
1187.979	5982
1190.279	6138
1192.578	6103
1194.878	6108
1197.178	6045
1199.476	6078
1201.772	6178
1204.068	6089
1206.366	6106
1208.663	6122
1210.957	6114
1213.251	6068
1215.544	5907
1217.836	6245
1220.128	6134
1222.421	6186
1224.712	6215
1227.002	6276
1229.292	6112
1231.581	6235
1233.871	6183
1236.159	6320
1238.446	6328
1240.732	6484
1243.018	6483
1245.304	6337
1247.59	6452
1249.874	6505
1252.156	6406
1254.439	6376
1256.721	6329
1259.005	6380
1261.286	6447
1263.565	6392
1265.845	6400
1268.125	6353
1270.403	6284
1272.682	6308
1274.959	6419
1277.234	6428
1279.511	6418
1281.787	6300
1284.062	6281
1286.337	6319
1288.609	6276
1290.882	6178
1293.153	6282
1295.428	6216
1297.698	6262
1299.969	6292
1302.237	6134
1304.507	6290
1306.777	6350
1309.044	6206
1311.312	6327
1313.578	6135
1315.844	6267
1318.109	6309
1320.375	6300
1322.638	6249
1324.903	6327
1327.165	6307
1329.427	6332
1331.69	6326
1333.952	6496
1336.212	6235
1338.471	6310
1340.73	6337
1342.988	6293
1345.248	6325
1347.505	6378
1349.763	6427
1352.019	6336
1354.274	6266
1356.53	6368
1358.784	6382
1361.038	6278
1363.291	6296
1365.543	6296
1367.797	6303
1370.048	6340
1372.296	6286
1374.546	6396
1376.796	6417
1379.045	6478
1381.295	6422
1383.542	6324
1385.787	6402
1388.034	6332
1390.28	6387
1392.527	6498
1394.772	6585
1397.014	6508
1399.258	6527
1401.501	6462
1403.741	6501
1405.985	6490
1408.226	6508
1410.465	6548
1412.705	6598
1414.943	6542
1417.184	6521
1419.42	6531
1421.658	6454
1423.894	6612
1426.13	6547
1428.366	6677
1430.602	6653
1432.835	6571
1435.069	6657
1437.301	6572
1439.535	6618
1441.767	6676
1443.997	6761
1446.229	6751
1448.458	6700
1450.687	6746
1452.916	6741
1455.146	6662
1457.372	6824
1459.599	6718
1461.824	6789
1464.051	6684
1466.277	6650
1468.501	6560
1470.725	6704
1472.948	6561
1475.17	6593
1477.393	6397
1479.614	6516
1481.837	6468
1484.057	6501
1486.276	6464
1488.497	6433
1490.715	6309
1492.932	6384
1495.148	6410
1497.364	6235
1499.58	6497
1501.798	6307
1504.012	6384
1506.227	6381
1508.44	6364
1510.653	6282
1512.866	6290
1515.078	6483
1517.289	6381
1519.5	6257
1521.711	6401
1523.92	6325
1526.13	6546
1528.338	6441
1530.544	6396
1532.752	6317
1534.959	6497
1537.165	6438
1539.371	6389
1541.574	6400
1543.779	6306
1545.983	6364
1548.187	6324
1550.39	6436
1552.59	6427
1554.792	6501
1556.991	6498
1559.19	6476
1561.392	6374
1563.59	6437
1565.789	6477
1567.986	6542
1570.182	6562
1572.381	6481
1574.576	6482
1576.771	6500
1578.966	6500
1581.16	6494
1583.354	6527
1585.546	6564
1587.74	6591
1589.931	6520
1592.121	6482
1594.311	6506
1596.502	6556
1598.693	6640
1600.881	6686
1603.069	6547
1605.256	6642
1607.445	6584
1609.631	6579
1611.816	6590
1614.001	6596
1616.186	6631
1618.37	6671
1620.555	6569
1622.737	6601
1624.919	6611
1627.101	6586
1629.282	6702
1631.463	6650
1633.643	6705
1635.822	6673
1638.001	6627
1640.179	6801
1642.359	6769
1644.534	6885
1646.711	6826
1648.887	6686
1651.062	6790
1653.235	6668
1655.412	6687
1657.586	6819
1659.757	6825
1661.93	6719
1664.1	6695
1666.274	6868
1668.445	6983
1670.614	6795
1672.784	6920
1674.951	6702
1677.12	6850
1679.289	6794
1681.457	6846
1683.622	6590
1685.789	6663
1687.953	6819
1690.121	6629
1692.284	6539
1694.447	6708
1696.611	6707
1698.772	6730
1700.935	6618
1703.098	6566
1705.258	6606
1707.417	6599
1709.576	6631
1711.736	6604
1713.896	6488
1716.053	6572
1718.21	6576
1720.366	6568
1722.522	6571
1724.68	6558
1726.835	6450
1728.989	6560
1731.142	6486
1733.295	6528
1735.449	6538
1737.601	6471
1739.753	6619
1741.903	6524
1744.054	6523
1746.203	6520
1748.354	6636
1750.503	6575
1752.651	6512
1754.798	6494
1756.944	6600
1759.092	6511
1761.238	6589
1763.383	6558
1765.528	6541
1767.672	6583
1769.814	6619
1771.959	6483
1774.102	6615
1776.242	6431
1778.384	6612
1780.525	6618
1782.665	6439
1784.805	6660
1786.945	6510
1789.082	6611
1791.22	6610
1793.36	6498
1795.495	6563
1797.632	6641
1799.766	6685
1801.902	6634
1804.035	6744
1806.172	6539
1808.304	6514
1810.436	6645
1812.569	6652
1814.699	6749
1816.833	6641
1818.963	6682
1821.092	6598
1823.222	6584
1825.35	6575
1827.478	6527
1829.608	6487
1831.734	6500
1833.86	6646
1835.986	6520
1838.11	6462
1840.238	6658
1842.362	6526
1844.485	6450
1846.608	6611
1848.73	6477
1850.853	6495
1852.974	6315
1855.097	6556
1857.217	6521
1859.336	6625
1861.455	6499
1863.576	6454
1865.693	6536
1867.811	6474
1869.926	6537
1872.042	6533
1874.16	6529
1876.275	6445
1878.39	6648
1880.504	6485
1882.618	6568
1884.731	6516
1886.843	6547
1888.956	6551
1891.067	6503
1893.178	6517
1895.287	6465
1897.399	6534
1899.508	6546
1901.617	6471
1903.724	6520
1905.832	6478
1907.941	6571
1910.046	6500
1912.152	6574
1914.256	6441
1916.361	6636
1918.464	6597
1920.57	6565
1922.672	6653
1924.775	6671
1926.876	6531
1928.978	6464
1931.08	6538
1933.181	6579
1935.28	6661
1937.38	6607
1939.478	6545
1941.577	6569
1943.675	6577
1945.771	6508
1947.867	6537
1949.964	6648
1952.058	6487
1954.154	6487
1956.248	6543
1958.343	6527
1960.435	6566
1962.527	6556
1964.62	6581
1966.711	6617
1968.802	6555
1970.892	6508
1972.983	6433
1975.072	6525
1977.162	6420
1979.25	6522
1981.337	6576
1983.424	6441
1985.51	6532
1987.598	6612
1989.683	6589
1991.768	6502
1993.852	6500
1995.934	6453
1998.019	6477
2000.102	6483
2002.184	6781
2004.266	6527
2006.347	6514
2008.427	6393
2010.508	6519
2012.587	6497
2014.666	6451
2016.745	6469
2018.821	6505
2020.9	6469
2022.977	6523
2025.052	6415
2027.128	6397
2029.204	6533
2031.277	6474
2033.353	6513
2035.425	6442
2037.499	6463
2039.57	6414
2041.642	6557
2043.714	6451
2045.786	6516
2047.855	6442
2049.925	6454
2051.993	6478
2054.064	6474
2056.132	6566
2058.2	6510
2060.266	6529
2062.332	6525
2064.398	6460
2066.465	6586
2068.529	6463
2070.592	6427
2072.657	6539
2074.719	6481
2076.783	6408
2078.845	6452
2080.907	6467
2082.968	6446
2085.028	6435
2087.087	6457
2089.148	6322
2091.207	6408
2093.264	6397
2095.322	6509
2097.379	6503
2099.439	6481
2101.495	6611
2103.55	6482
2105.605	6337
2107.658	6546
2109.713	6520
2111.767	6444
2113.82	6502
2115.872	6495
2117.924	6504
2119.975	6505
2122.028	6438
2124.078	6465
2126.126	6451
2128.176	6437
2130.225	6492
2132.275	6458
2134.321	6451
2136.368	6534
2138.415	6523
2140.461	6381
2142.505	6424
2144.552	6526
2146.597	6489
2148.64	6367
2150.684	6466
2152.725	6356
2154.77	6583
2156.811	6456
2158.852	6466
2160.894	6452
2162.933	6432
2164.973	6293
2167.013	6486
2169.051	6359
2171.089	6431
2173.126	6348
2175.164	6382
2177.201	6405
2179.236	6320
2181.273	6381
2183.307	6525
2185.341	6384
2187.377	6320
2189.41	6278
2191.442	6301
2193.473	6395
2195.506	6340
2197.539	6405
2199.569	6289
2201.598	6288
2203.628	6207
2205.656	6367
2207.686	6310
2209.716	6236
2211.743	6229
2213.769	6280
2215.796	6221
2217.821	6242
2219.848	6431
2221.873	6232
2223.897	6299
2225.921	6380
2227.944	6146
2229.967	6395
2231.991	6274
2234.011	6196
2236.032	6349
2238.053	6257
2240.073	6223
2242.094	6219
2244.114	6279
2246.131	6316
2248.149	6234
2250.167	6407
2252.186	6230
2254.201	6158
2256.218	6282
2258.233	6281
2260.247	6312
2262.262	6216
2264.278	6295
2266.29	6228
2268.303	6283
2270.315	6275
2272.327	6290
2274.341	6269
2276.35	6226
2278.361	6319
2280.37	6313
2282.38	6270
2284.388	6139
2286.397	6250
2288.405	6254
2290.412	6163
2292.419	6328
2294.425	6125
2296.431	6244
2298.437	6151
2300.441	6318
2302.445	6161
2304.449	6280
2306.453	6299
2308.455	6198
2310.457	6297
2312.459	6197
2314.46	6184
2316.46	6363
2318.461	6251
2320.46	6251
2322.458	6282
2324.458	6189
2326.456	6165
2328.455	6302
2330.451	6162
2332.447	6143
2334.443	6207
2336.438	6185
2338.433	6227
2340.429	6133
2342.422	6231
2344.416	6223
2346.408	6133
2348.399	6213
2350.393	6061
2352.384	6151
2354.375	6143
2356.365	6088
2358.355	6155
2360.344	6091
2362.333	6142
2364.322	6108
2366.309	6099
2368.295	6253
2370.282	6163
2372.27	6318
2374.256	6097
2376.24	6156
2378.225	6078
2380.208	6094
2382.194	6095
2384.177	6091
2386.159	6097
2388.142	6098
2390.122	6096
2392.105	6107
2394.085	6004
2396.066	6036
2398.044	6101
2400.024	6099
2402.002	6019
2403.982	6017
2405.959	6023
2407.935	6160
2409.913	6007
2411.888	5955
2413.865	6127
2415.84	6005
2417.814	6114
2419.788	6090
2421.762	6068
2423.735	6019
2425.708	6024
2427.68	6002
2429.651	5982
2431.623	6035
2433.593	5921
2435.564	6089
2437.533	5999
2439.502	6092
2441.47	6004
2443.438	6031
2445.406	6042
2447.373	6043
2449.34	5963
2451.305	6037
2453.271	6025
2455.235	5966
2457.201	5909
2459.165	6066
2461.129	6043
2463.092	5924
2465.054	5996
2467.018	6054
2468.978	6015
2470.939	5921
2472.899	5936
2474.86	5994
2476.819	5956
2478.778	6115
2480.737	6064
2482.695	5958
2484.653	6005
2486.609	5900
2488.567	6017
2490.524	5961
2492.478	5999
2494.433	6004
2496.387	6023
2498.343	6045
2500.297	5896
2502.249	5948
2504.202	6004
2506.153	5957
2508.105	5911
2510.057	5900
2512.008	5877
2513.957	5953
2515.906	6095
2517.855	5884
2519.805	5963
2521.754	6012
2523.7	5854
2525.647	5893
2527.594	5885
2529.54	5843
2531.486	5939
2533.431	5952
2535.376	5944
2537.32	6001
2539.263	5937
2541.207	5910
2543.151	5987
2545.093	5952
2547.034	5952
2548.975	5874
2550.917	5913
2552.856	5954
2554.796	5948
2556.735	5979
2558.673	5970
2560.611	5845
2562.55	5882
2564.487	5930
2566.424	6009
2568.36	5838
2570.296	5930
2572.232	5956
2574.167	5819
2576.101	5863
2578.035	5813
2579.969	5931
2581.902	5990
2583.834	5899
2585.766	5961
2587.698	5966
2589.628	5868
2591.557	5931
2593.489	5867
2595.419	6002
2597.348	5898
2599.275	5944
2601.204	5981
2603.131	5828
2605.059	5915
2606.986	5921
2608.911	5890
2610.837	5910
2612.76	5946
2614.687	5887
2616.61	5911
2618.534	6089
2620.457	6012
2622.38	5920
2624.302	6007
2626.225	5911
2628.145	6037
2630.067	6009
2631.986	5885
2633.906	5911
2635.827	6010
2637.745	5889
2639.662	5897
2641.581	5974
2643.498	5958
2645.415	6029
2647.331	5927
2649.248	5847
2651.163	5914
2653.077	5925
2654.993	5987
2656.906	5806
2658.821	5994
2660.733	5899
2662.646	5877
2664.557	5879
2666.47	5933
2668.381	5990
2670.291	5902
2672.201	5825
2674.11	5893
2676.021	5775
2677.929	5797
2679.837	6047
2681.745	5720
2683.652	5825
2685.56	5848
2687.466	5850
2689.371	5923
2691.276	5869
2693.181	5895
2695.085	5873
2696.991	5870
2698.893	5871
2700.796	5820
2702.698	5846
2704.601	5810
2706.502	5923
2708.404	5836
2710.304	5855
2712.203	5749
2714.103	5706
2716.003	5847
2717.902	5889
2719.8	5873
2721.697	5872
2723.594	5869
2725.49	5758
2727.389	5859
2729.283	5801
2731.179	5810
2733.073	5862
2734.968	5776
2736.863	5868
2738.757	5783
2740.649	5792
2742.541	5869
2744.433	5870
2746.324	5865
2748.216	5772
2750.107	5844
2751.997	5847
2753.886	5819
2755.776	5791
2757.666	5944
2759.553	5701
2761.44	5792
2763.327	5826
2765.215	5900
2767.102	5842
2768.988	5803
2770.873	5800
2772.757	5841
2774.641	5762
2776.525	5824
2778.41	5817
2780.292	5728
2782.175	5758
2784.057	5852
2785.938	5814
2787.821	5721
2789.701	5769
2791.581	5849
2793.461	5780
2795.34	5721
2797.219	5692
2799.099	5674
2800.975	5778
2802.853	5672
2804.73	5895
2806.606	5720
2808.484	5775
2810.358	5644
2812.233	5787
2814.108	5873
2815.981	5756
2817.857	5861
2819.73	5645
2821.602	5729
2823.474	5709
2825.346	5804
2827.217	5757
2829.089	5789
2830.959	5821
2832.829	5714
2834.698	5718
2836.567	5757
2838.436	5781
2840.305	5733
2842.172	5877
2844.04	5800
2845.905	5842
2847.772	5755
2849.639	5863
2851.503	5835
2853.369	5870
2855.232	5885
2857.096	5752
2858.961	5867
2860.824	5935
2862.686	5941
2864.547	6076
2866.41	5947
2868.272	6005
2870.132	6082
2871.992	6108
2873.851	6125
2875.711	6229
2877.57	6165
2879.429	6348
2881.287	6228
2883.144	6386
2885.001	6325
2886.857	6436
2888.714	6419
2890.57	6374
2892.425	6395
2894.279	6315
2896.133	6374
2897.987	6441
2899.842	6383
2901.694	6431
2903.547	6583
2905.397	6275
2907.249	6291
2909.101	6332
2910.952	6446
2912.802	6367
2914.652	6402
2916.5	6472
2918.35	6560
2920.198	6769
2922.045	6603
2923.893	6665
2925.74	6762
2927.585	6863
2929.433	6778
2931.279	6914
2933.123	6914
2934.968	7100
2936.811	7033
2938.656	7193
2940.5	7017
2942.342	7335
2944.185	7251
2946.026	7251
2947.87	7345
2949.71	7180
2951.549	7187
2953.39	7256
2955.229	7106
2957.069	7054
2958.908	7117
2960.746	6897
2962.584	6878
2964.421	6846
2966.257	6736
2968.094	6732
2969.931	6704
2971.766	6774
2973.601	6634
2975.435	6667
2977.27	6524
2979.105	6457
2980.938	6453
2982.77	6454
2984.602	6374
2986.434	6395
2988.267	6566
2990.097	6258
2991.927	6281
2993.757	6258
2995.587	6228
2997.417	6083
2999.246	6105
3001.074	6000
3002.902	5941
3004.729	5970
3006.556	6060
3008.384	5937
3010.21	5823
3012.036	5808
3013.861	5766
3015.684	5757
3017.51	5728
3019.334	5688
3021.157	5717
3022.981	5548
3024.802	5660
3026.624	5443
3028.448	5549
3030.267	5501
3032.088	5442
3033.909	5486
3035.728	5514
3037.549	5461
3039.368	5405
3041.186	5420
3043.004	5402
3044.821	5478
3046.64	5484
3048.455	5503
3050.272	5542
3052.087	5595
3053.903	5404
3055.717	5401
3057.534	5569
3059.347	5465
3061.16	5367
3062.974	5439
3064.785	5413
3066.598	5469
3068.411	5417
3070.222	5523
3072.032	5395
3073.844	5445
3075.653	5439
3077.463	5389
3079.272	5355
3081.08	5285
3082.889	5304
3084.697	5406
3086.505	5325
3088.312	5229
3090.118	5314
3091.924	5245
3093.729	5331
3095.535	5405
3097.34	5254
3099.144	5211
3100.947	5354
3102.75	5247
3104.553	5275
3106.357	5263
3108.159	5242
3109.961	5149
3111.762	5290
3113.562	5240
3115.365	5312
3117.164	5115
3118.964	5239
3120.761	5193
3122.56	5238
3124.36	5159
3126.158	5181
3127.954	5228
3129.75	5185
3131.547	5205
3133.343	5177
3135.139	5250
3136.934	5250
3138.729	5206
3140.522	5138
3142.317	5175
3144.11	5115
3145.904	5116
3147.695	5107
3149.488	5143
3151.28	5060
3153.07	5166
3154.863	5146
3156.652	5096
3158.441	5072
3160.231	5197
3162.019	5179
3163.81	5144
3165.597	5125
3167.384	5113
3169.172	5009
3170.958	5083
3172.745	5121
3174.532	5096
3176.317	5108
3178.101	5108
3179.885	5059
3181.67	5132
3183.455	5114
3185.238	5099
3187.02	5090
3188.802	5119
3190.585	5080
3192.368	5128
3194.149	5084
3195.929	5126
3197.709	4941
3199.489	5076
3201.268	5077
3203.048	5067
3204.826	5149
3206.604	5110
3208.382	5048
3210.159	5127
3211.937	5036
3213.713	5173
3215.489	4950
3217.263	5072
3219.038	5060
3220.815	5049
3222.589	4986
3224.363	5069
3226.136	5018
3227.908	5035
3229.681	5035
3231.454	5096
3233.226	5084
3234.996	5112
3236.767	5160
3238.538	5031
3240.308	5054
3242.078	4964
3243.847	5072
3245.615	5042
3247.384	5025
3249.15	5021
3250.92	5037
3252.686	5027
3254.453	5164
3256.218	4960
3257.984	5079
3259.75	5038
3261.515	5019
3263.279	4948
3265.044	5077
3266.806	5048
3268.57	5151
3270.334	5041
3272.095	4986
3273.856	5131
3275.619	5045
3277.379	5091
3279.14	5037
3280.9	5060
3282.661	5049
3284.419	5045
3286.178	5061
3287.937	5036
3289.695	5032
3291.453	5054
3293.21	5003
3294.967	5005
3296.723	5092
3298.48	4982
3300.235	5029
3301.99	5022
3303.744	4981
3305.498	5030
3307.253	5037
3309.006	5022
3310.759	4921
3312.511	5017
3314.263	4935
3316.017	4985
3317.768	5002
3319.519	5007
3321.268	4969
3323.018	5037
3324.767	5071
3326.518	5095
3328.267	4982
3330.014	5065
3331.762	5066
3333.509	5034
3335.258	4966
3337.003	4858
3338.75	5074
3340.496	5047
3342.24	4912
3343.987	5020
3345.732	5113
3347.475	5025
3349.219	5034
3350.961	4992
3352.705	4903
3354.448	4899
3356.19	4899
3357.931	4930
3359.672	4996
3361.412	4995
3363.155	4889
3364.894	4939
3366.633	4944
3368.372	4881
3370.11	4880
3371.849	4922
3373.588	4903
3375.325	4938
3377.061	4920
3378.799	4896
3380.534	4899
3382.271	4872
3384.006	4942
3385.741	4820
3387.475	4871
3389.209	4800
3390.944	4847
3392.677	4794
3394.409	4847
3396.143	4838
3397.874	4887
3399.606	4828
3401.338	4923
3403.069	4839
3404.799	4937
3406.528	4767
3408.258	4825
3409.988	4890
3411.717	4700
3413.445	4706
3415.173	4818
3416.899	4770
3418.626	4715
3420.354	4833
3422.08	4803
3423.806	4855
3425.531	4836
3427.255	4700
3428.981	4780
3430.705	4831
3432.429	4667
3434.151	4739
3435.875	4738
3437.599	4693
3439.321	4697
3441.042	4755
3442.763	4774
3444.483	4643
3446.204	4699
3447.926	4645
3449.645	4722
3451.364	4736
3453.082	4670
3454.801	4688
3456.52	4723
3458.238	4623
3459.954	4625
3461.671	4660
3463.387	4600
3465.104	4610
3466.82	4601
3468.534	4642
3470.25	4611
3471.963	4649
3473.676	4642
3475.392	4599
3477.104	4495
3478.817	4497
3480.528	4558
3482.241	4640
3483.954	4562
3485.664	4552
3487.374	4469
3489.084	4556
3490.795	4508
3492.504	4589
3494.214	4518
3495.922	4446
3497.63	4437
3499.338	4493
3501.045	4508
3502.753	4522
3504.459	4487
3506.166	4429
3507.871	4490
3509.576	4429
3511.283	4451
3512.987	4460
3514.691	4385
3516.395	4508
3518.098	4414
3519.8	4486
3521.504	4377
3523.206	4498
3524.908	4361
3526.609	4342
3528.309	4364
3530.011	4396
3531.711	4366
3533.411	4401
3535.109	4398
3536.808	4380
3538.507	4440
3540.206	4361
3541.904	4408
3543.601	4337
3545.297	4453
3546.994	4380
3548.69	4345
3550.387	4343
3552.081	4304
3553.776	4288
3555.47	4412
3557.166	4314
3558.859	4409
3560.553	4348
3562.245	4349
3563.938	4389
3565.629	4188
3567.322	4355
3569.014	4329
3570.704	4317
3572.394	4350
3574.084	4275
3575.775	4311
3577.464	4278
3579.152	4308
3580.842	4254
3582.529	4236
3584.216	4214
3585.905	4322
3587.591	4324
3589.279	4206
3590.964	4194
3592.649	4193
3594.336	4247
3596.021	4178
3597.705	4167
3599.388	4254
3601.072	4278
3602.757	4084
3604.439	4183
3606.122	4212
3607.803	4174
3609.485	4094
3611.167	4194
3612.849	4161
3614.529	4144
3616.208	4080
3617.888	4108
3619.567	4201
3621.247	4186
3622.926	4085
3624.603	4080
3626.281	3985
3627.958	4104
3629.635	4086
3631.312	4135
3632.989	4057
3634.665	3991
3636.339	4021
3638.014	4039
3639.691	3974
3641.364	4086
3643.038	3999
3644.71	4032
3646.384	4001
3648.058	3983
3649.729	4149
3651.402	4038
3653.073	4000
3654.744	4068
3656.414	3972
3658.085	3991
3659.755	3922
3661.424	3996
3663.094	3927
3664.762	3937
3666.431	4033
3668.099	3967
3669.766	3934
3671.433	4037
3673.099	3965
3674.768	3958
3676.433	3964
3678.098	4013
3679.763	3956
3681.428	3935
3683.093	3977
3684.757	3981
3686.421	4041
3688.083	3952
3689.746	3903
3691.408	3921
3693.071	3928
3694.733	3924
3696.394	3868
3698.054	3850
3699.715	3974
3701.375	3897
3703.036	3906
3704.695	3891
3706.354	3872
3708.012	3883
3709.67	3878
3711.329	3911
3712.987	3825
3714.644	3911
3716.299	3811
3717.955	3919
3719.613	3776
3721.268	3921
3722.923	3833
3724.577	3868
3726.231	3904
3727.885	3939
3729.539	3825
3731.192	3864
3732.845	3789
3734.497	3845
3736.149	3883
3737.802	3828
3739.453	3806
3741.104	3796
3742.753	3825
3744.404	3986
3746.052	3857
3747.704	3848
3749.352	3797
3751	3808
3752.648	3737
3754.296	3792
3755.944	3812
3757.59	3808
3759.238	3790
3760.883	3856
3762.528	3763
3764.176	3769
3765.82	3884
3767.464	3732
3769.109	3814
3770.753	3815
3772.396	3781
3774.04	3783
3775.683	3808
3777.325	3745
3778.967	3719
3780.608	3798
3782.25	3676
3783.89	3708
3785.531	3628
3787.17	3661
3788.81	3733
3790.45	3764
3792.09	3740
3793.729	3719
3795.366	3699
3797.003	3790
3798.64	3708
3800.278	3618
3801.915	3686
3803.551	3769
3805.187	3724
3806.822	3686
3808.458	3703
3810.093	3663
3811.726	3622
3813.36	3716
3814.994	3722
3816.627	3636
3818.262	3636
3819.893	3656
3821.525	3702
3823.157	3636
3824.787	3684
3826.42	3649
3828.051	3614
3829.68	3653
3831.31	3663
3832.938	3682
3834.569	3647
3836.198	3606
3837.825	3595
3839.454	3644
3841.08	3638
3842.708	3667
3844.335	3618
3845.962	3592
3847.587	3530
3849.212	3556
3850.838	3621
3852.463	3665
3854.089	3574
3855.712	3667
3857.335	3590
3858.959	3582
3860.582	3621
3862.205	3533
3863.827	3647
3865.449	3657
3867.07	3590
3868.691	3566
3870.312	3551
3871.933	3570
3873.553	3540
3875.173	3542
3876.792	3531
3878.411	3551
3880.03	3600
3881.647	3597
3883.265	3552
3884.882	3548
3886.499	3560
3888.116	3545
3889.732	3527
3891.348	3565
3892.964	3509
3894.579	3523
3896.195	3473
3897.809	3467
3899.423	3548
3901.036	3536
3902.648	3475
3904.261	3504
3905.875	3491
3907.487	3540
3909.099	3522
3910.709	3513
3912.321	3449
3913.933	3509
3915.542	3501
3917.152	3494
3918.762	3594
3920.37	3480
3921.98	3488
3923.589	3530
3925.196	3541
3926.804	3495
3928.41	3509
3930.018	3462
3931.626	3513
3933.231	3420
3934.838	3558
3936.442	3497
3938.046	3466
3939.653	3530
3941.257	3521
3942.861	3519
3944.464	3481
3946.068	3432
3947.67	3437
3949.273	3448
3950.876	3416
3952.477	3470
3954.078	3386
3955.678	3447
3957.281	3453
3958.881	3501
3960.48	3405
3962.079	3456
3963.678	3433
3965.279	3466
3966.877	3425
3968.475	3438
3970.072	3387
3971.669	3376
3973.266	3372
3974.864	3356
3976.459	3365
3978.055	3391
3979.65	3387
3981.245	3447
3982.841	3439
3984.436	3399
3986.03	3386
3987.623	3376
3989.216	3398
3990.809	3397
3992.403	3374
3993.995	3266
3995.586	3298
3997.177	3328
3998.768	3375
4000.361	3382
4001.951	3360
4003.54	3344
4005.13	3420
4006.719	3284
4008.31	3258
4009.897	3372
4011.485	3309
4013.073	3373
4014.66	3346
4016.247	3252
4017.834	3379
4019.421	3330
4021.006	3282
4022.592	3244
4024.178	3299
4025.763	3221
4027.348	3309
4028.932	3324
4030.515	3253
4032.099	3237
4033.682	3276
4035.266	3245
4036.847	3266
4038.429	3270
4040.011	3216
4041.592	3173
4043.173	3210
4044.755	3254
4046.334	3174
4047.913	3167
4049.494	3188
4051.074	3143
4052.652	3280
4054.23	3145
4055.807	3125
4057.385	3252
4058.963	3210
4060.541	3251
4062.117	3236
4063.693	3229
4065.269	3205
4066.844	3225
4068.42	3217
4069.995	3141
4071.569	3211
4073.143	3172
4074.716	3214
4076.291	3232
4077.864	3227
4079.436	3156
4081.009	3216
4082.58	3139
4084.152	3190
4085.723	3092
4087.294	3198
4088.865	3214
4090.435	3165
4092.005	3151
4093.574	3140
4095.143	3155
4096.712	3155
4098.279	3148
4099.848	3123
4101.416	3187
4102.984	3182
4104.55	3060
4106.117	3161
4107.682	3088
4109.248	3110
4110.815	3085
4112.379	3218
4113.945	3079
4115.508	3037
4117.073	3122
4118.637	3121
4120.201	3048
4121.763	3055
4123.325	3133
4124.888	3132
4126.449	3074
4128.013	3104
4129.573	3055
4131.133	3050
4132.694	3023
4134.254	3054
4135.814	3050
4137.374	3099
4138.933	3053
4140.491	3045
4142.049	3069
4143.607	3082
4145.167	2983
4146.724	3051
4148.28	2984
4149.836	3000
4151.392	3021
4152.949	2997
4154.504	2986
4156.059	2978
4157.614	3095
4159.168	3079
4160.723	3098
4162.277	2960
4163.83	2976
4165.383	3028
4166.936	2985
4168.488	3041
4170.041	2991
4171.593	2944
4173.144	2970
4174.695	2939
4176.246	2970
4177.796	2961
4179.346	2938
4180.896	2974
4182.445	2920
4183.994	2983
4185.542	3002
4187.091	2948
4188.639	2933
4190.185	2930
4191.732	2932
4193.279	2973
4194.826	2908
4196.373	2915
4197.918	2896
4199.463	2920
4201.008	2940
4202.553	2942
4204.098	2895
4205.641	2892
4207.185	2830
4208.728	2967
4210.271	2878
4211.814	2920
4213.357	2909
4214.898	2886
4216.439	2839
4217.98	2943
4219.522	2913
4221.062	2897
4222.603	2910
4224.142	2941
4225.681	2869
4227.222	2937
4228.76	2835
4230.298	2914
4231.835	2866
4233.373	2893
4234.911	2863
4236.449	2806
4237.985	2856
4239.521	2943
4241.057	2862
4242.592	2870
4244.128	2829
4245.663	2835
4247.197	2864
4248.731	2837
4250.265	2845
4251.798	2886
4253.333	2845
4254.865	2849
4256.397	2925
4257.93	2843
4259.461	2867
4260.994	2848
4262.525	2821
4264.056	2833
4265.586	2868
4267.115	2885
4268.646	2846
4270.176	2795
4271.705	2847
4273.232	2794
4274.761	2856
4276.289	2903
4277.818	2783
4279.345	2795
4280.872	2817
4282.399	2799
4283.924	2803
4285.452	2815
4286.976	2843
4288.502	2812
4290.026	2864
4291.551	2751
4293.074	2863
4294.6	2800
4296.123	2811
4297.646	2745
4299.168	2719
4300.691	2770
4302.214	2659
4303.736	2768
4305.257	2751
4306.778	2754
4308.299	2808
4309.82	2797
4311.34	2758
4312.86	2779
4314.379	2765
