400.0745	5762
402.597	5714
405.1208	5647
407.6419	5758
410.1623	5770
412.6819	5849
415.201	5743
417.7172	5737
420.2369	5839
422.7538	5975
425.2701	5907
427.7856	6013
430.3005	6049
432.8147	6090
435.3282	6081
437.841	6249
440.3511	6183
442.8625	6073
445.3753	6110
447.8854	6271
450.3927	6136
452.9014	6033
455.4073	6126
457.9146	6195
460.4233	6150
462.9272	6144
465.4325	6055
467.935	6070
470.4389	6090
472.9421	6031
475.4446	6117
477.9444	6230
480.4456	6182
482.944	6191
485.4417	6160
487.9429	6258
490.4393	6207
492.935	6365
495.4321	6227
497.9264	6268
500.4221	6191
502.9171	6213
505.4094	6266
507.9011	6316
510.392	6291
512.8864	6353
515.3759	6402
517.8649	6396
520.3531	6390
522.8406	6324
525.3275	6304
527.8178	6354
530.3033	6420
532.7881	6430
535.2723	6446
537.7558	6372
540.2407	6442
542.7228	6356
545.2043	6381
547.6851	6523
550.1652	6463
552.6467	6499
555.1255	6371
557.6016	6436
560.079	6411
562.5557	6518
565.0318	6575
567.5092	6547
569.984	6487
572.456	6607
574.9294	6560
577.4022	6666
579.8762	6500
582.3456	6685
584.8163	6710
587.2863	6684
589.7557	6715
592.2224	6669
594.6924	6597
597.1578	6641
599.6245	6622
602.0905	6546
604.5538	6628
607.0206	6675
609.4825	6677
611.9459	6601
614.4066	6684
616.8686	6626
619.33	6602
621.7906	6659
624.2487	6535
626.708	6596
629.1647	6581
631.6207	6576
634.0801	6675
636.5348	6576
638.9888	6686
641.4442	6611
643.8969	6713
646.3509	6661
648.8022	6634
651.255	6642
653.705	6658
656.1544	6735
658.6031	6796
661.0532	6793
663.5026	6791
665.9493	6749
668.3954	6795
670.8409	6731
673.2877	6780
675.7318	6879
678.1752	6680
680.618	6895
683.0601	6874
685.5035	6935
687.9444	6876
690.3845	6861
692.824	6794
695.2628	6901
697.701	7065
700.1406	6900
702.5774	6946
705.0116	6889
707.4472	6983
709.8821	6965
712.3183	6866
714.7519	6901
717.1829	6881
719.6151	7033
722.0468	6982
724.4777	7112
726.908	7124
729.3377	7152
731.7667	7147
734.1931	7240
736.6208	7018
739.0498	7215
741.4742	7008
743.9	7284
746.3231	7235
748.7476	7313
751.1713	7316
753.5945	7233
756.015	7495
758.4368	7303
760.856	7360
763.2766	7394
765.6965	7352
768.1157	7368
770.5323	7295
772.9483	7457
775.3656	7422
777.7822	7396
780.1963	7403
782.6116	7504
785.0244	7325
787.4365	7462
789.8499	7318
792.2626	7344
794.6728	7363
797.0823	7368
799.4911	7517
801.8994	7427
804.3109	7486
806.7178	7356
809.124	7517
811.5297	7447
813.9347	7553
816.341	7451
818.7447	7445
821.1478	7515
823.5502	7476
825.952	7571
828.3531	7547
830.7556	7383
833.1554	7522
835.5546	7665
837.9532	7531
840.3511	7579
842.7504	7698
845.1451	7623
847.5411	7607
849.9365	7594
852.3312	7652
854.7272	7536
857.1187	7690
859.5115	7702
861.9037	7591
864.2952	7755
866.6842	7591
869.0764	7637
871.4661	7522
873.8531	7599
876.2415	7749
878.6272	7594
881.0162	7582
883.4026	7633
885.7866	7643
888.1717	7598
890.5543	7690
892.9382	7563
895.3215	7588
897.7041	7695
900.0842	7531
902.4655	7696
904.8443	7575
907.2244	7649
909.6039	7772
911.9808	7666
914.357	7702
916.7346	7926
919.1115	7880
921.4859	7917
923.8616	7997
926.2347	7883
928.6071	7975
930.979	7897
933.3541	8077
935.7247	8093
938.0946	7997
940.4639	8124
942.8326	8144
945.2026	8122
947.5701	8386
949.9369	8611
952.305	8554
954.6705	8891
957.0355	9086
959.4017	9505
961.7654	9321
964.1284	9397
966.4908	9332
968.8527	8902
971.2138	8754
973.5743	8495
975.9343	8227
978.2936	8081
980.6522	7903
983.0122	7908
985.3696	7987
987.7245	7803
990.0807	7900
992.4362	7767
994.7911	7824
997.1474	8027
999.4991	8033
1001.852	7984
1004.205	7951
1006.555	8034
1008.908	8010
1011.258	7905
1013.606	7877
1015.956	7928
1018.302	7867
1020.652	8027
1022.998	8016
1025.345	8011
1027.691	7893
1030.035	7963
1032.378	8194
1034.724	8026
1037.066	8169
1039.409	8122
1041.75	8124
1044.092	8150
1046.433	8028
1048.771	8090
1051.112	8052
1053.449	7963
1055.786	8035
1058.124	8012
1060.462	7960
1062.797	8203
1065.131	8165
1067.467	8114
1069.8	8065
1072.135	8216
1074.467	8325
1076.798	8166
1079.129	8098
1081.459	8213
1083.792	8148
1086.121	8208
1088.449	8149
1090.777	8081
1093.104	8074
1095.431	8099
1097.759	8063
1100.084	8065
1102.408	8116
1104.732	8100
1107.056	8097
1109.379	8121
1111.701	8056
1114.022	8230
1116.343	8108
1118.664	8117
1120.983	8053
1123.303	8141
1125.621	8111
1127.939	8140
1130.256	8138
1132.573	8137
1134.889	8158
1137.205	8049
1139.52	8173
1141.832	8122
1144.146	7995
1146.461	8114
1148.771	8078
1151.083	8116
1153.392	8070
1155.703	7988
1158.011	8131
1160.323	8086
1162.629	8107
1164.938	8096
1167.243	8193
1169.55	8150
1171.857	8209
1174.163	8178
1176.466	8128
1178.769	8100
1181.073	8092
1183.374	8128
1185.677	8201
1187.979	8082
1190.279	8076
1192.578	8184
1194.878	8110
1197.178	8058
1199.476	8105
1201.772	8238
1204.068	8160
1206.366	8106
1208.663	8015
1210.957	8149
1213.251	8298
1215.544	8145
1217.836	8148
1220.128	8196
1222.421	8143
1224.712	8211
1227.002	8325
1229.292	8344
1231.581	8268
1233.871	8407
1236.159	8288
1238.446	8222
1240.732	8407
1243.018	8481
1245.304	8393
1247.59	8457
1249.874	8563
1252.156	8465
1254.439	8395
1256.721	8513
1259.005	8423
1261.286	8419
1263.565	8539
1265.845	8401
1268.125	8372
1270.403	8474
1272.682	8483
1274.959	8509
1277.234	8420
1279.511	8540
1281.787	8417
1284.062	8408
1286.337	8511
1288.609	8380
1290.882	8374
1293.153	8366
1295.428	8460
1297.698	8294
1299.969	8352
1302.237	8418
1304.507	8391
1306.777	8328
1309.044	8169
1311.312	8306
1313.578	8296
1315.844	8229
1318.109	8355
1320.375	8281
1322.638	8387
1324.903	8224
1327.165	8127
1329.427	8327
1331.69	8320
1333.952	8352
1336.212	8406
1338.471	8359
1340.73	8271
1342.988	8303
1345.248	8350
1347.505	8259
1349.763	8393
1352.019	8331
1354.274	8266
1356.53	8288
1358.784	8251
1361.038	8313
1363.291	8348
1365.543	8192
1367.797	8302
1370.048	8392
1372.296	8368
1374.546	8337
1376.796	8355
1379.045	8338
1381.295	8405
1383.542	8330
1385.787	8337
1388.034	8411
1390.28	8472
1392.527	8518
1394.772	8432
1397.014	8487
1399.258	8403
1401.501	8528
1403.741	8550
1405.985	8576
1408.226	8578
1410.465	8525
1412.705	8639
1414.943	8669
1417.184	8487
1419.42	8580
1421.658	8445
1423.894	8601
1426.13	8632
1428.366	8508
1430.602	8536
1432.835	8676
1435.069	8414
1437.301	8664
1439.535	8604
1441.767	8586
1443.997	8580
1446.229	8714
1448.458	8748
1450.687	8792
1452.916	8829
1455.146	8713
1457.372	8707
1459.599	8714
1461.824	8745
1464.051	8586
1466.277	8775
1468.501	8695
1470.725	8598
1472.948	8728
1475.17	8437
1477.393	8537
1479.614	8388
1481.837	8423
1484.057	8484
1486.276	8408
1488.497	8483
1490.715	8475
1492.932	8372
1495.148	8273
1497.364	8207
1499.58	8300
1501.798	8433
1504.012	8305
1506.227	8338
1508.44	8227
1510.653	8317
1512.866	8378
1515.078	8195
1517.289	8366
1519.5	8294
1521.711	8409
1523.92	8249
1526.13	8365
1528.338	8334
1530.544	8421
1532.752	8344
1534.959	8408
1537.165	8468
1539.371	8286
1541.574	8342
1543.779	8323
1545.983	8483
1548.187	8254
1550.39	8270
1552.59	8486
1554.792	8485
1556.991	8277
1559.19	8320
1561.392	8430
1563.59	8315
1565.789	8466
1567.986	8470
1570.182	8379
1572.381	8445
1574.576	8559
1576.771	8590
1578.966	8411
1581.16	8414
1583.354	8432
1585.546	8517
1587.74	8640
1589.931	8405
1592.121	8492
1594.311	8610
1596.502	8568
1598.693	8501
1600.881	8735
1603.069	8510
1605.256	8636
1607.445	8555
1609.631	8541
1611.816	8581
1614.001	8670
1616.186	8678
1618.37	8696
1620.555	8645
1622.737	8605
1624.919	8688
1627.101	8655
1629.282	8674
1631.463	8688
1633.643	8691
1635.822	8661
1638.001	8717
1640.179	8708
1642.359	8731
1644.534	8760
1646.711	8678
1648.887	8666
1651.062	8633
1653.235	8793
1655.412	8709
1657.586	8778
1659.757	8737
1661.93	8805
1664.1	8742
1666.274	8753
1668.445	8856
1670.614	8879
1672.784	8750
1674.951	8745
1677.12	8725
1679.289	8839
1681.457	8761
1683.622	8846
1685.789	8834
1687.953	8773
1690.121	8733
1692.284	8789
1694.447	8714
1696.611	8809
1698.772	8748
1700.935	8592
1703.098	8721
1705.258	8626
1707.417	8619
1709.576	8740
1711.736	8647
1713.896	8626
1716.053	8544
1718.21	8588
1720.366	8482
1722.522	8656
1724.68	8619
1726.835	8703
1728.989	8664
1731.142	8498
1733.295	8474
1735.449	8630
1737.601	8542
1739.753	8535
1741.903	8591
1744.054	8562
1746.203	8629
1748.354	8680
1750.503	8645
1752.651	8639
1754.798	8679
1756.944	8776
1759.092	8731
1761.238	8807
1763.383	8638
1765.528	8807
1767.672	8601
1769.814	8682
1771.959	8720
1774.102	8720
1776.242	8729
1778.384	8765
1780.525	8825
1782.665	8796
1784.805	8739
1786.945	8761
1789.082	8842
1791.22	8799
1793.36	8792
1795.495	8788
1797.632	8763
1799.766	8945
1801.902	8652
1804.035	8779
1806.172	8972
1808.304	8850
1810.436	8720
1812.569	8882
1814.699	8954
1816.833	8713
1818.963	8901
1821.092	8716
1823.222	8865
1825.35	8885
1827.478	8783
1829.608	8832
1831.734	8675
1833.86	8779
1835.986	8771
1838.11	8645
1840.238	8639
1842.362	8716
1844.485	8746
1846.608	8864
1848.73	8731
1850.853	8773
1852.974	8718
1855.097	8886
1857.217	8844
1859.336	8898
1861.455	8666
1863.576	8802
1865.693	8735
1867.811	8710
1869.926	8789
1872.042	8738
1874.16	8652
1876.275	8774
1878.39	8723
1880.504	8809
1882.618	8830
1884.731	8756
1886.843	8886
1888.956	8835
1891.067	8890
1893.178	8880
1895.287	8860
1897.399	8933
1899.508	8882
1901.617	8894
1903.724	9106
1905.832	8967
1907.941	8959
1910.046	8844
1912.152	8858
1914.256	8926
1916.361	8961
1918.464	8887
1920.57	8869
1922.672	8909
1924.775	8853
1926.876	9034
1928.978	8972
1931.08	9052
1933.181	8985
1935.28	9092
1937.38	9041
1939.478	9047
1941.577	9016
1943.675	8903
1945.771	8878
1947.867	8996
1949.964	8959
1952.058	9139
1954.154	8997
1956.248	8988
1958.343	8900
1960.435	9051
1962.527	9023
1964.62	8909
1966.711	8943
1968.802	8903
1970.892	9020
1972.983	9025
1975.072	8900
1977.162	8918
1979.25	8866
1981.337	9021
1983.424	8946
1985.51	8804
1987.598	8851
1989.683	8992
1991.768	8883
1993.852	8923
1995.934	8908
1998.019	8820
2000.102	8877
2002.184	8888
2004.266	8886
2006.347	8822
2008.427	8830
2010.508	8908
2012.587	8729
2014.666	8760
2016.745	8768
2018.821	8952
2020.9	8945
2022.977	8908
2025.052	8720
2027.128	8872
2029.204	8736
2031.277	8823
2033.353	8815
2035.425	8738
2037.499	8659
2039.57	8843
2041.642	8787
2043.714	8897
2045.786	8735
2047.855	8788
2049.925	8952
2051.993	8875
2054.064	8976
2056.132	8784
2058.2	8838
2060.266	8814
2062.332	8861
2064.398	8777
2066.465	8694
2068.529	8897
2070.592	8666
2072.657	8890
2074.719	8792
2076.783	8803
2078.845	8794
2080.907	8789
2082.968	8701
2085.028	8792
2087.087	8769
2089.148	8643
2091.207	8822
2093.264	8859
2095.322	8892
2097.379	8703
2099.439	8771
2101.495	8602
2103.55	8892
2105.605	8833
2107.658	8816
2109.713	8815
2111.767	8797
2113.82	8686
2115.872	8680
2117.924	8758
2119.975	8626
2122.028	8811
2124.078	8824
2126.126	8767
2128.176	8737
2130.225	8849
2132.275	8646
2134.321	8795
2136.368	8707
2138.415	8620
2140.461	8770
2142.505	8790
2144.552	8717
2146.597	8713
2148.64	8762
2150.684	8611
2152.725	8683
2154.77	8719
2156.811	8713
2158.852	8720
2160.894	8709
2162.933	8687
2164.973	8676
2167.013	8609
2169.051	8635
2171.089	8662
2173.126	8650
2175.164	8757
2177.201	8388
2179.236	8577
2181.273	8659
2183.307	8558
2185.341	8612
2187.377	8483
2189.41	8566
2191.442	8573
2193.473	8700
2195.506	8519
2197.539	8514
2199.569	8653
2201.598	8412
2203.628	8421
2205.656	8642
2207.686	8590
2209.716	8566
2211.743	8427
2213.769	8472
2215.796	8569
2217.821	8579
2219.848	8482
2221.873	8391
2223.897	8335
2225.921	8460
2227.944	8644
2229.967	8489
2231.991	8424
2234.011	8512
2236.032	8537
2238.053	8382
2240.073	8522
2242.094	8411
2244.114	8558
2246.131	8455
2248.149	8417
2250.167	8405
2252.186	8625
2254.201	8624
2256.218	8567
2258.233	8545
2260.247	8443
2262.262	8461
2264.278	8507
2266.29	8376
2268.303	8490
2270.315	8518
2272.327	8590
2274.341	8391
2276.35	8540
2278.361	8509
2280.37	8533
2282.38	8548
2284.388	8620
2286.397	8348
2288.405	8621
2290.412	8350
2292.419	8455
2294.425	8555
2296.431	8389
2298.437	8578
2300.441	8565
2302.445	8583
2304.449	8520
2306.453	8469
2308.455	8455
2310.457	8332
2312.459	8450
2314.46	8470
2316.46	8375
2318.461	8503
2320.46	8496
2322.458	8439
2324.458	8393
2326.456	8490
2328.455	8394
2330.451	8294
2332.447	8343
2334.443	8362
2336.438	8287
2338.433	8379
2340.429	8282
2342.422	8377
2344.416	8331
2346.408	8265
2348.399	8240
2350.393	8270
2352.384	8257
2354.375	8440
2356.365	8312
2358.355	8171
2360.344	8268
2362.333	8420
2364.322	8170
2366.309	8285
2368.295	8369
2370.282	8211
2372.27	8321
2374.256	8245
2376.24	8120
2378.225	8168
2380.208	8260
2382.194	8280
2384.177	8150
2386.159	8204
2388.142	8183
2390.122	8223
2392.105	8185
2394.085	8244
2396.066	8144
2398.044	8051
2400.024	8188
2402.002	8097
2403.982	8233
2405.959	8219
2407.935	8198
2409.913	8089
2411.888	8000
2413.865	8236
2415.84	8169
2417.814	8058
2419.788	8083
2421.762	8166
2423.735	8159
2425.708	8028
2427.68	8181
2429.651	8218
2431.623	8097
2433.593	8025
2435.564	8173
2437.533	8057
2439.502	8069
2441.47	7972
2443.438	8083
2445.406	8081
2447.373	8003
2449.34	8081
2451.305	8125
2453.271	8066
2455.235	8002
2457.201	8073
2459.165	8084
2461.129	7923
2463.092	7918
2465.054	8031
2467.018	8069
2468.978	8049
2470.939	8010
2472.899	7978
2474.86	8018
2476.819	7982
2478.778	8021
2480.737	7946
2482.695	7909
2484.653	8032
2486.609	7857
2488.567	7952
2490.524	7864
2492.478	7938
2494.433	8021
2496.387	7882
2498.343	7936
2500.297	7953
2502.249	7987
2504.202	7880
2506.153	7760
2508.105	8014
2510.057	7967
2512.008	7872
2513.957	7855
2515.906	7917
2517.855	7952
2519.805	7794
2521.754	7778
2523.7	7852
2525.647	7781
2527.594	7816
2529.54	7887
2531.486	7785
2533.431	7901
2535.376	7818
2537.32	7855
2539.263	7923
2541.207	7963
2543.151	7829
2545.093	7851
2547.034	7972
2548.975	7891
2550.917	7881
2552.856	7904
2554.796	7863
2556.735	7759
2558.673	7764
2560.611	7963
2562.55	7780
2564.487	7831
2566.424	7844
2568.36	7976
2570.296	7856
2572.232	7793
2574.167	7929
2576.101	7939
2578.035	7772
2579.969	7675
2581.902	7809
2583.834	7761
2585.766	7839
2587.698	7820
2589.628	7856
2591.557	7827
2593.489	7834
2595.419	7772
2597.348	7740
2599.275	7802
2601.204	7856
2603.131	7722
2605.059	7755
2606.986	7761
2608.911	7777
2610.837	7656
2612.76	7789
2614.687	7732
2616.61	7880
2618.534	7872
2620.457	7813
2622.38	7846
2624.302	7790
2626.225	7568
2628.145	7921
2630.067	7759
2631.986	7792
2633.906	7777
2635.827	7745
2637.745	7777
2639.662	7792
2641.581	7683
2643.498	7745
2645.415	7817
2647.331	7717
2649.248	7742
2651.163	7776
2653.077	7667
2654.993	7665
2656.906	7737
2658.821	7759
2660.733	7780
2662.646	7712
2664.557	7767
2666.47	7718
2668.381	7706
2670.291	7831
2672.201	7765
2674.11	7722
2676.021	7782
2677.929	7714
2679.837	7783
2681.745	7721
2683.652	7716
2685.56	7529
2687.466	7663
2689.371	7723
2691.276	7641
2693.181	7606
2695.085	7529
2696.991	7679
2698.893	7638
2700.796	7652
2702.698	7677
2704.601	7483
2706.502	7629
2708.404	7591
2710.304	7627
2712.203	7626
2714.103	7650
2716.003	7543
2717.902	7657
2719.8	7661
2721.697	7493
2723.594	7652
2725.49	7536
2727.389	7495
2729.283	7568
2731.179	7535
2733.073	7531
2734.968	7581
2736.863	7551
2738.757	7661
2740.649	7563
2742.541	7509
2744.433	7571
2746.324	7486
2748.216	7426
2750.107	7557
2751.997	7660
2753.886	7474
2755.776	7519
2757.666	7480
2759.553	7490
2761.44	7525
2763.327	7484
2765.215	7488
2767.102	7397
2768.988	7495
2770.873	7439
2772.757	7328
2774.641	7443
2776.525	7480
2778.41	7377
2780.292	7507
2782.175	7399
2784.057	7334
2785.938	7377
2787.821	7529
2789.701	7327
2791.581	7305
2793.461	7461
2795.34	7383
2797.219	7300
2799.099	7306
2800.975	7462
2802.853	7471
2804.73	7315
2806.606	7477
2808.484	7245
2810.358	7423
2812.233	7466
2814.108	7322
2815.981	7419
2817.857	7375
2819.73	7401
2821.602	7516
2823.474	7324
2825.346	7343
2827.217	7321
2829.089	7178
2830.959	7286
2832.829	7337
2834.698	7281
2836.567	7287
2838.436	7303
2840.305	7332
2842.172	7335
2844.04	7326
2845.905	7372
2847.772	7334
2849.639	7446
2851.503	7552
2853.369	7476
2855.232	7286
2857.096	7395
2858.961	7476
2860.824	7389
2862.686	7369
2864.547	7529
2866.41	7598
2868.272	7537
2870.132	7552
2871.992	7743
2873.851	7709
2875.711	7752
2877.57	7804
2879.429	7867
2881.287	7737
2883.144	7919
2885.001	7920
2886.857	7952
2888.714	7997
2890.57	7922
2892.425	8009
2894.279	7889
2896.133	7799
2897.987	7957
2899.842	7897
2901.694	7902
2903.547	7826
2905.397	7973
2907.249	7978
2909.101	7930
2910.952	7915
2912.802	7902
2914.652	8011
2916.5	7884
2918.35	8132
2920.198	8208
2922.045	8213
2923.893	8312
2925.74	8273
2927.585	8425
2929.433	8510
2931.279	8464
2933.123	8543
2934.968	8610
2936.811	8652
2938.656	8682
2940.5	8601
2942.342	8783
2944.185	8884
2946.026	8765
2947.87	8814
2949.71	8848
2951.549	8698
2953.39	8785
2955.229	8710
2957.069	8652
2958.908	8466
2960.746	8415
2962.584	8483
2964.421	8331
2966.257	8382
2968.094	8111
2969.931	8098
2971.766	8090
2973.601	8021
2975.435	8075
2977.27	7998
2979.105	7865
2980.938	7935
2982.77	7833
2984.602	7875
2986.434	7874
2988.267	7939
2990.097	7765
2991.927	7762
2993.757	7667
2995.587	7688
2997.417	7646
2999.246	7522
3001.074	7570
3002.902	7484
3004.729	7401
3006.556	7316
3008.384	7267
3010.21	7135
3012.036	7236
3013.861	7072
3015.684	7185
3017.51	6991
3019.334	7136
3021.157	7053
3022.981	6992
3024.802	6994
3026.624	6898
3028.448	6963
3030.267	7000
3032.088	7065
3033.909	6975
3035.728	6963
3037.549	6877
3039.368	6889
3041.186	6867
3043.004	6868
3044.821	6739
3046.64	6858
3048.455	6741
3050.272	6818
3052.087	6844
3053.903	6918
3055.717	6831
3057.534	6920
3059.347	6794
3061.16	6739
3062.974	6727
3064.785	6921
3066.598	6835
3068.411	6819
3070.222	6811
3072.032	6744
3073.844	6765
3075.653	6840
3077.463	6749
3079.272	6723
3081.08	6634
3082.889	6682
3084.697	6653
3086.505	6712
3088.312	6712
3090.118	6653
3091.924	6590
3093.729	6637
3095.535	6559
3097.34	6665
3099.144	6654
3100.947	6688
3102.75	6645
3104.553	6600
3106.357	6558
3108.159	6639
3109.961	6605
3111.762	6626
3113.562	6555
3115.365	6638
3117.164	6586
3118.964	6443
3120.761	6614
3122.56	6617
3124.36	6564
3126.158	6529
3127.954	6619
3129.75	6590
3131.547	6540
3133.343	6361
3135.139	6587
3136.934	6481
3138.729	6493
3140.522	6448
3142.317	6415
3144.11	6455
3145.904	6511
3147.695	6551
3149.488	6450
3151.28	6444
3153.07	6430
3154.863	6485
3156.652	6499
3158.441	6412
3160.231	6486
3162.019	6373
3163.81	6432
3165.597	6476
3167.384	6407
3169.172	6384
3170.958	6424
3172.745	6448
3174.532	6451
3176.317	6379
3178.101	6496
3179.885	6388
3181.67	6390
3183.455	6388
3185.238	6266
3187.02	6376
3188.802	6361
3190.585	6255
3192.368	6261
3194.149	6390
3195.929	6287
3197.709	6380
3199.489	6371
3201.268	6316
3203.048	6387
3204.826	6316
3206.604	6413
3208.382	6435
3210.159	6364
3211.937	6263
3213.713	6335
3215.489	6289
3217.263	6270
3219.038	6334
3220.815	6372
3222.589	6353
3224.363	6347
3226.136	6382
3227.908	6278
3229.681	6418
3231.454	6289
3233.226	6249
3234.996	6160
3236.767	6410
3238.538	6356
3240.308	6216
3242.078	6396
3243.847	6409
3245.615	6282
3247.384	6310
3249.15	6427
3250.92	6290
3252.686	6406
3254.453	6263
3256.218	6345
3257.984	6358
3259.75	6166
3261.515	6331
3263.279	6254
3265.044	6297
3266.806	6349
3268.57	6312
3270.334	6325
3272.095	6293
3273.856	6162
3275.619	6346
3277.379	6342
3279.14	6382
3280.9	6248
3282.661	6361
3284.419	6290
3286.178	6290
3287.937	6264
3289.695	6235
3291.453	6378
3293.21	6350
3294.967	6358
3296.723	6398
3298.48	6408
3300.235	6244
3301.99	6227
3303.744	6314
3305.498	6222
3307.253	6302
3309.006	6252
3310.759	6331
3312.511	6296
3314.263	6290
3316.017	6166
3317.768	6265
3319.519	6330
3321.268	6249
3323.018	6244
3324.767	6291
3326.518	6222
3328.267	6199
3330.014	6231
3331.762	6265
3333.509	6260
3335.258	6309
3337.003	6214
3338.75	6211
3340.496	6297
3342.24	6104
3343.987	6234
3345.732	6260
3347.475	6287
3349.219	6237
3350.961	6221
3352.705	6228
3354.448	6140
3356.19	6228
3357.931	6186
3359.672	6153
3361.412	6213
3363.155	6200
3364.894	6048
3366.633	5971
3368.372	6182
3370.11	6097
3371.849	6013
3373.588	6152
3375.325	6223
3377.061	6133
3378.799	6028
3380.534	6101
3382.271	5886
3384.006	6107
3385.741	6037
3387.475	5944
3389.209	6084
3390.944	6035
3392.677	6011
3394.409	6013
3396.143	5930
3397.874	6050
3399.606	5991
3401.338	6077
3403.069	6021
3404.799	6007
3406.528	6084
3408.258	5974
3409.988	5979
3411.717	6062
3413.445	6022
3415.173	5937
3416.899	6006
3418.626	6022
3420.354	5885
3422.08	5920
3423.806	5958
3425.531	5886
3427.255	5881
3428.981	5898
3430.705	5818
3432.429	5848
3434.151	5797
3435.875	5932
3437.599	5918
3439.321	5842
3441.042	5961
3442.763	5758
3444.483	5803
3446.204	5840
3447.926	5756
3449.645	5790
3451.364	5758
3453.082	5779
3454.801	5763
3456.52	5762
3458.238	5749
3459.954	5647
3461.671	5797
3463.387	5703
3465.104	5857
3466.82	5668
3468.534	5725
3470.25	5681
3471.963	5709
3473.676	5693
3475.392	5653
3477.104	5651
3478.817	5653
3480.528	5624
3482.241	5615
3483.954	5498
3485.664	5501
3487.374	5515
3489.084	5640
3490.795	5551
3492.504	5613
3494.214	5645
3495.922	5548
3497.63	5571
3499.338	5618
3501.045	5472
3502.753	5542
3504.459	5463
3506.166	5442
3507.871	5545
3509.576	5504
3511.283	5481
3512.987	5499
3514.691	5483
3516.395	5433
3518.098	5519
3519.8	5515
3521.504	5451
3523.206	5377
3524.908	5495
3526.609	5356
3528.309	5394
3530.011	5279
3531.711	5517
3533.411	5427
3535.109	5327
3536.808	5400
3538.507	5466
3540.206	5388
3541.904	5451
3543.601	5313
3545.297	5356
3546.994	5376
3548.69	5337
3550.387	5393
3552.081	5269
3553.776	5429
3555.47	5362
3557.166	5355
3558.859	5446
3560.553	5420
3562.245	5235
3563.938	5325
3565.629	5388
3567.322	5316
3569.014	5201
3570.704	5341
3572.394	5295
3574.084	5238
3575.775	5259
3577.464	5273
3579.152	5279
3580.842	5266
3582.529	5091
3584.216	5200
3585.905	5239
3587.591	5229
3589.279	5301
3590.964	5171
3592.649	5266
3594.336	5221
3596.021	5166
3597.705	5156
3599.388	5284
3601.072	5053
3602.757	5181
3604.439	5107
3606.122	5182
3607.803	5139
3609.485	5204
3611.167	5110
3612.849	5216
3614.529	5235
3616.208	5027
3617.888	5006
3619.567	5043
3621.247	5072
3622.926	5043
3624.603	5079
3626.281	5163
3627.958	4988
3629.635	4947
3631.312	5069
3632.989	5004
3634.665	5030
3636.339	4928
3638.014	4998
3639.691	4948
3641.364	4936
3643.038	4993
3644.71	4901
3646.384	4969
3648.058	4876
3649.729	5069
3651.402	4921
3653.073	4952
3654.744	4918
3656.414	4926
3658.085	4935
3659.755	4878
3661.424	4977
3663.094	4903
3664.762	4923
3666.431	4941
3668.099	4922
3669.766	4842
3671.433	4858
3673.099	4793
3674.768	4918
3676.433	4868
3678.098	4930
3679.763	4942
3681.428	4877
3683.093	4784
3684.757	4713
3686.421	4847
3688.083	4832
3689.746	4823
3691.408	4928
3693.071	4806
3694.733	4809
3696.394	4677
3698.054	4743
3699.715	4871
3701.375	4795
3703.036	4787
3704.695	4759
3706.354	4822
3708.012	4773
3709.67	4814
3711.329	4674
3712.987	4822
3714.644	4810
3716.299	4800
3717.955	4785
3719.613	4668
3721.268	4776
3722.923	4744
3724.577	4757
3726.231	4729
3727.885	4732
3729.539	4662
3731.192	4715
3732.845	4675
3734.497	4713
3736.149	4733
3737.802	4664
3739.453	4664
3741.104	4729
3742.753	4745
3744.404	4737
3746.052	4634
3747.704	4589
3749.352	4682
3751	4685
3752.648	4669
3754.296	4749
3755.944	4708
3757.59	4635
3759.238	4650
3760.883	4649
3762.528	4576
3764.176	4654
3765.82	4563
3767.464	4533
3769.109	4647
3770.753	4582
3772.396	4518
3774.04	4616
3775.683	4696
3777.325	4634
3778.967	4567
3780.608	4571
3782.25	4507
3783.89	4597
3785.531	4592
3787.17	4588
3788.81	4522
3790.45	4624
3792.09	4477
3793.729	4529
3795.366	4558
3797.003	4523
3798.64	4523
3800.278	4538
3801.915	4500
3803.551	4506
3805.187	4475
3806.822	4552
3808.458	4439
3810.093	4528
3811.726	4535
3813.36	4494
3814.994	4456
3816.627	4463
3818.262	4459
3819.893	4431
3821.525	4400
3823.157	4390
3824.787	4437
3826.42	4273
3828.051	4369
3829.68	4436
3831.31	4273
3832.938	4437
3834.569	4306
3836.198	4433
3837.825	4393
3839.454	4398
3841.08	4400
3842.708	4374
3844.335	4364
3845.962	4399
3847.587	4353
3849.212	4296
3850.838	4365
3852.463	4292
3854.089	4295
3855.712	4336
3857.335	4282
3858.959	4344
3860.582	4297
3862.205	4264
3863.827	4305
3865.449	4290
3867.07	4373
3868.691	4296
3870.312	4279
3871.933	4335
3873.553	4287
3875.173	4267
3876.792	4315
3878.411	4262
3880.03	4308
3881.647	4230
3883.265	4289
3884.882	4275
3886.499	4254
3888.116	4243
3889.732	4206
3891.348	4303
3892.964	4289
3894.579	4264
3896.195	4171
3897.809	4254
3899.423	4228
3901.036	4262
3902.648	4139
3904.261	4239
3905.875	4168
3907.487	4161
3909.099	4211
3910.709	4107
3912.321	4187
3913.933	4195
3915.542	4196
3917.152	4177
3918.762	4166
3920.37	4303
3921.98	4224
3923.589	4170
3925.196	4176
3926.804	4160
3928.41	4286
3930.018	4148
3931.626	4138
3933.231	4158
3934.838	4224
3936.442	4150
3938.046	4247
3939.653	4235
3941.257	4096
3942.861	4165
3944.464	4119
3946.068	4113
3947.67	4172
3949.273	4134
3950.876	4153
3952.477	4111
3954.078	4143
3955.678	4145
3957.281	4081
3958.881	4161
3960.48	4104
3962.079	4094
3963.678	4120
3965.279	4099
3966.877	4126
3968.475	4066
3970.072	4022
3971.669	4077
3973.266	4062
3974.864	4055
3976.459	3995
3978.055	3964
3979.65	4083
3981.245	4015
3982.841	3960
3984.436	4000
3986.03	4000
3987.623	3964
3989.216	4001
3990.809	4034
3992.403	4013
3993.995	3989
3995.586	3868
3997.177	3847
3998.768	3981
4000.361	3947
4001.951	3937
4003.54	3947
4005.13	3894
4006.719	3915
4008.31	3867
4009.897	3919
4011.485	3893
4013.073	3939
4014.66	3908
4016.247	3950
4017.834	3837
4019.421	3901
4021.006	3920
4022.592	3857
4024.178	3849
4025.763	3889
4027.348	3824
4028.932	3888
4030.515	3845
4032.099	3746
4033.682	3899
4035.266	3835
4036.847	3863
4038.429	3773
4040.011	3815
4041.592	3892
4043.173	3736
4044.755	3914
4046.334	3744
4047.913	3788
4049.494	3858
4051.074	3718
4052.652	3816
4054.23	3793
4055.807	3746
4057.385	3814
4058.963	3785
4060.541	3736
4062.117	3703
4063.693	3732
4065.269	3698
4066.844	3710
4068.42	3695
4069.995	3761
4071.569	3688
4073.143	3734
4074.716	3724
4076.291	3672
4077.864	3652
4079.436	3736
4081.009	3671
4082.58	3732
4084.152	3693
4085.723	3727
4087.294	3702
4088.865	3713
4090.435	3686
4092.005	3629
4093.574	3594
4095.143	3725
4096.712	3661
4098.279	3603
4099.848	3638
4101.416	3762
4102.984	3605
4104.55	3661
4106.117	3616
4107.682	3647
4109.248	3607
4110.815	3661
4112.379	3539
4113.945	3635
4115.508	3589
4117.073	3532
4118.637	3682
4120.201	3642
4121.763	3671
4123.325	3583
4124.888	3556
4126.449	3613
4128.013	3612
4129.573	3626
4131.133	3610
4132.694	3537
4134.254	3577
4135.814	3552
4137.374	3527
4138.933	3597
4140.491	3577
4142.049	3487
4143.607	3610
4145.167	3488
4146.724	3555
4148.28	3477
4149.836	3407
4151.392	3517
4152.949	3511
4154.504	3524
4156.059	3487
4157.614	3537
4159.168	3520
4160.723	3438
4162.277	3484
4163.83	3460
4165.383	3538
4166.936	3521
4168.488	3452
4170.041	3434
4171.593	3402
4173.144	3505
4174.695	3475
4176.246	3405
4177.796	3432
4179.346	3411
4180.896	3449
4182.445	3336
4183.994	3423
4185.542	3404
4187.091	3358
4188.639	3417
4190.185	3410
4191.732	3440
4193.279	3423
4194.826	3437
4196.373	3421
4197.918	3372
4199.463	3373
4201.008	3384
4202.553	3385
4204.098	3356
4205.641	3322
4207.185	3345
4208.728	3357
4210.271	3419
4211.814	3339
4213.357	3377
4214.898	3326
4216.439	3287
4217.98	3279
4219.522	3367
4221.062	3289
4222.603	3299
4224.142	3304
4225.681	3379
4227.222	3304
4228.76	3281
4230.298	3256
4231.835	3206
4233.373	3315
4234.911	3258
4236.449	3359
4237.985	3260
4239.521	3346
4241.057	3255
4242.592	3257
4244.128	3258
4245.663	3342
4247.197	3299
4248.731	3260
4250.265	3250
4251.798	3330
4253.333	3274
4254.865	3238
4256.397	3219
4257.93	3255
4259.461	3234
4260.994	3180
4262.525	3211
4264.056	3234
4265.586	3270
4267.115	3182
4268.646	3247
4270.176	3140
4271.705	3206
4273.232	3209
4274.761	3233
4276.289	3257
4277.818	3139
4279.345	3302
4280.872	3226
4282.399	3251
4283.924	3228
4285.452	3231
4286.976	3168
4288.502	3235
4290.026	3260
4291.551	3164
4293.074	3167
4294.6	3251
4296.123	3158
4297.646	3171
4299.168	3195
4300.691	3176
4302.214	3107
4303.736	3155
4305.257	3199
4306.778	3191
4308.299	3087
4309.82	3183
4311.34	3105
4312.86	3105
4314.379	3125
