400.0745	3924
402.597	4021
405.1208	3943
407.6419	3972
410.1623	4052
412.6819	4077
415.201	3998
417.7172	4083
420.2369	4047
422.7538	4109
425.2701	4210
427.7856	4191
430.3005	4251
432.8147	4188
435.3282	4211
437.841	4228
440.3511	4143
442.8625	4203
445.3753	4346
447.8854	4288
450.3927	4205
452.9014	4218
455.4073	4195
457.9146	4291
460.4233	4198
462.9272	4267
465.4325	4210
467.935	4235
470.4389	4340
472.9421	4238
475.4446	4332
477.9444	4295
480.4456	4308
482.944	4372
485.4417	4295
487.9429	4349
490.4393	4343
492.935	4339
495.4321	4419
497.9264	4374
500.4221	4408
502.9171	4388
505.4094	4398
507.9011	4459
510.392	4559
512.8864	4407
515.3759	4475
517.8649	4472
520.3531	4514
522.8406	4509
525.3275	4462
527.8178	4456
530.3033	4403
532.7881	4431
535.2723	4484
537.7558	4496
540.2407	4407
542.7228	4403
545.2043	4477
547.6851	4452
550.1652	4447
552.6467	4551
555.1255	4538
557.6016	4592
560.079	4545
562.5557	4480
565.0318	4559
567.5092	4537
569.984	4495
572.456	4537
574.9294	4638
577.4022	4631
579.8762	4519
582.3456	4637
584.8163	4581
587.2863	4657
589.7557	4574
592.2224	4705
594.6924	4602
597.1578	4611
599.6245	4621
602.0905	4564
604.5538	4574
607.0206	4614
609.4825	4564
611.9459	4644
614.4066	4589
616.8686	4636
619.33	4597
621.7906	4649
624.2487	4652
626.708	4605
629.1647	4608
631.6207	4615
634.0801	4639
636.5348	4739
638.9888	4626
641.4442	4649
643.8969	4696
646.3509	4674
648.8022	4594
651.255	4710
653.705	4701
656.1544	4663
658.6031	4710
661.0532	4678
663.5026	4647
665.9493	4809
668.3954	4798
670.8409	4831
673.2877	4764
675.7318	4817
678.1752	4845
680.618	4785
683.0601	4793
685.5035	4755
687.9444	4758
690.3845	4801
692.824	4795
695.2628	4775
697.701	4750
700.1406	4872
702.5774	4780
705.0116	4914
707.4472	4901
709.8821	4903
712.3183	4865
714.7519	4995
717.1829	4822
719.6151	4875
722.0468	4800
724.4777	4926
726.908	4944
729.3377	5028
731.7667	4968
734.1931	5050
736.6208	4931
739.0498	4913
741.4742	5007
743.9	5001
746.3231	5011
748.7476	5057
751.1713	5099
753.5945	5162
756.015	5113
758.4368	5160
760.856	5185
763.2766	5140
765.6965	5159
768.1157	5180
770.5323	5126
772.9483	5175
775.3656	5019
777.7822	5110
780.1963	5184
782.6116	5198
785.0244	5091
787.4365	5105
789.8499	5210
792.2626	5176
794.6728	5257
797.0823	5162
799.4911	5275
801.8994	5188
804.3109	5168
806.7178	5207
809.124	5211
811.5297	5187
813.9347	5229
816.341	5118
818.7447	5142
821.1478	5257
823.5502	5199
825.952	5324
828.3531	5162
830.7556	5269
833.1554	5291
835.5546	5293
837.9532	5314
840.3511	5142
842.7504	5311
845.1451	5304
847.5411	5310
849.9365	5344
852.3312	5330
854.7272	5166
857.1187	5430
859.5115	5335
861.9037	5277
864.2952	5374
866.6842	5322
869.0764	5302
871.4661	5321
873.8531	5307
876.2415	5266
878.6272	5352
881.0162	5351
883.4026	5293
885.7866	5394
888.1717	5287
890.5543	5441
892.9382	5342
895.3215	5280
897.7041	5362
900.0842	5248
902.4655	5261
904.8443	5313
907.2244	5266
909.6039	5424
911.9808	5316
914.357	5478
916.7346	5419
919.1115	5470
921.4859	5414
923.8616	5485
926.2347	5385
928.6071	5567
930.979	5545
933.3541	5473
935.7247	5579
938.0946	5561
940.4639	5581
942.8326	5528
945.2026	5600
947.5701	5642
949.9369	5732
952.305	5901
954.6705	5945
957.0355	6018
959.4017	6066
961.7654	6102
964.1284	6153
966.4908	6067
968.8527	5881
971.2138	5803
973.5743	5793
975.9343	5627
978.2936	5603
980.6522	5646
983.0122	5443
985.3696	5430
987.7245	5491
990.0807	5443
992.4362	5474
994.7911	5566
997.1474	5589
999.4991	5521
1001.852	5600
1004.205	5547
1006.555	5607
1008.908	5539
1011.258	5552
1013.606	5609
1015.956	5528
1018.302	5621
1020.652	5539
1022.998	5615
1025.345	5558
1027.691	5503
1030.035	5711
1032.378	5602
1034.724	5732
1037.066	5560
1039.409	5610
1041.75	5614
1044.092	5641
1046.433	5705
1048.771	5634
1051.112	5683
1053.449	5536
1055.786	5734
1058.124	5626
1060.462	5508
1062.797	5690
1065.131	5699
1067.467	5594
1069.8	5702
1072.135	5710
1074.467	5672
1076.798	5603
1079.129	5733
1081.459	5640
1083.792	5722
1086.121	5561
1088.449	5655
1090.777	5781
1093.104	5718
1095.431	5708
1097.759	5630
1100.084	5800
1102.408	5754
1104.732	5785
1107.056	5719
1109.379	5772
1111.701	5729
1114.022	5676
1116.343	5762
1118.664	5670
1120.983	5767
1123.303	5756
1125.621	5772
1127.939	5746
1130.256	5847
1132.573	5771
1134.889	5755
1137.205	5800
1139.52	5752
1141.832	5920
1144.146	5667
1146.461	5775
1148.771	5764
1151.083	5750
1153.392	5876
1155.703	5836
1158.011	5839
1160.323	5960
1162.629	5829
1164.938	5850
1167.243	5770
1169.55	5837
1171.857	5764
1174.163	5816
1176.466	5741
1178.769	5870
1181.073	5835
1183.374	5818
1185.677	5763
1187.979	5756
1190.279	5773
1192.578	5792
1194.878	5756
1197.178	5833
1199.476	5863
1201.772	5783
1204.068	5794
1206.366	5900
1208.663	5820
1210.957	5829
1213.251	5903
1215.544	5893
1217.836	5893
1220.128	5914
1222.421	5945
1224.712	5857
1227.002	5997
1229.292	5887
1231.581	5975
1233.871	5873
1236.159	5941
1238.446	5937
1240.732	6030
1243.018	5969
1245.304	5998
1247.59	6049
1249.874	6092
1252.156	5953
1254.439	6042
1256.721	6119
1259.005	6107
1261.286	6034
1263.565	6004
1265.845	6090
1268.125	5962
1270.403	6028
1272.682	6008
1274.959	6080
1277.234	6056
1279.511	5932
1281.787	6078
1284.062	5978
1286.337	6110
1288.609	5990
1290.882	5923
1293.153	5995
1295.428	6058
1297.698	5957
1299.969	6025
1302.237	5967
1304.507	6036
1306.777	6008
1309.044	6063
1311.312	6121
1313.578	6092
1315.844	6060
1318.109	5985
1320.375	5956
1322.638	6021
1324.903	6050
1327.165	5935
1329.427	6042
1331.69	6085
1333.952	6059
1336.212	6022
1338.471	6037
1340.73	6113
1342.988	6149
1345.248	6179
1347.505	6128
1349.763	6162
1352.019	6117
1354.274	6008
1356.53	6066
1358.784	6024
1361.038	6238
1363.291	6092
1365.543	6178
1367.797	6094
1370.048	6022
1372.296	6171
1374.546	6152
1376.796	6154
1379.045	6089
1381.295	6099
1383.542	6213
1385.787	6227
1388.034	6175
1390.28	6241
1392.527	6278
1394.772	6160
1397.014	6204
1399.258	6289
1401.501	6194
1403.741	6310
1405.985	6167
1408.226	6325
1410.465	6234
1412.705	6260
1414.943	6327
1417.184	6353
1419.42	6331
1421.658	6352
1423.894	6258
1426.13	6276
1428.366	6293
1430.602	6278
1432.835	6383
1435.069	6510
1437.301	6412
1439.535	6437
1441.767	6388
1443.997	6407
1446.229	6466
1448.458	6404
1450.687	6574
1452.916	6471
1455.146	6388
1457.372	6498
1459.599	6443
1461.824	6445
1464.051	6510
1466.277	6390
1468.501	6416
1470.725	6417
1472.948	6391
1475.17	6360
1477.393	6302
1479.614	6272
1481.837	6452
1484.057	6302
1486.276	6274
1488.497	6364
1490.715	6301
1492.932	6268
1495.148	6320
1497.364	6303
1499.58	6377
1501.798	6273
1504.012	6432
1506.227	6246
1508.44	6344
1510.653	6340
1512.866	6195
1515.078	6338
1517.289	6266
1519.5	6366
1521.711	6351
1523.92	6406
1526.13	6220
1528.338	6367
1530.544	6374
1532.752	6415
1534.959	6377
1537.165	6380
1539.371	6394
1541.574	6384
1543.779	6371
1545.983	6431
1548.187	6313
1550.39	6396
1552.59	6366
1554.792	6527
1556.991	6494
1559.19	6513
1561.392	6492
1563.59	6548
1565.789	6537
1567.986	6611
1570.182	6636
1572.381	6520
1574.576	6589
1576.771	6509
1578.966	6522
1581.16	6620
1583.354	6585
1585.546	6628
1587.74	6723
1589.931	6742
1592.121	6724
1594.311	6705
1596.502	6737
1598.693	6765
1600.881	6832
1603.069	6715
1605.256	6847
1607.445	6711
1609.631	6771
1611.816	6808
1614.001	6763
1616.186	6688
1618.37	6850
1620.555	6733
1622.737	6822
1624.919	6733
1627.101	6817
1629.282	6767
1631.463	6698
1633.643	6827
1635.822	6793
1638.001	6859
1640.179	6882
1642.359	6769
1644.534	6868
1646.711	6758
1648.887	6827
1651.062	6846
1653.235	6765
1655.412	6995
1657.586	6821
1659.757	7038
1661.93	6873
1664.1	6934
1666.274	7002
1668.445	6989
1670.614	6905
1672.784	6922
1674.951	7011
1677.12	6892
1679.289	7026
1681.457	6947
1683.622	6974
1685.789	7017
1687.953	6960
1690.121	6842
1692.284	7101
1694.447	7013
1696.611	6906
1698.772	7064
1700.935	6943
1703.098	6995
1705.258	6916
1707.417	6969
1709.576	6998
1711.736	6976
1713.896	6911
1716.053	7087
1718.21	6990
1720.366	6867
1722.522	6995
1724.68	7059
1726.835	7024
1728.989	7007
1731.142	7076
1733.295	7041
1735.449	7102
1737.601	7089
1739.753	7137
1741.903	7123
1744.054	7050
1746.203	7039
1748.354	7164
1750.503	7167
1752.651	7138
1754.798	7242
1756.944	7243
1759.092	7155
1761.238	7155
1763.383	7150
1765.528	7280
1767.672	7162
1769.814	7251
1771.959	7289
1774.102	7205
1776.242	7265
1778.384	7340
1780.525	7294
1782.665	7296
1784.805	7443
1786.945	7398
1789.082	7285
1791.22	7318
1793.36	7368
1795.495	7452
1797.632	7368
1799.766	7524
1801.902	7390
1804.035	7467
1806.172	7454
1808.304	7516
1810.436	7441
1812.569	7370
1814.699	7567
1816.833	7553
1818.963	7632
1821.092	7594
1823.222	7534
1825.35	7544
1827.478	7514
1829.608	7511
1831.734	7626
1833.86	7653
1835.986	7562
1838.11	7621
1840.238	7412
1842.362	7552
1844.485	7597
1846.608	7639
1848.73	7610
1850.853	7513
1852.974	7817
1855.097	7560
1857.217	7671
1859.336	7646
1861.455	7685
1863.576	7688
1865.693	7597
1867.811	7710
1869.926	7759
1872.042	7812
1874.16	7930
1876.275	7822
1878.39	7904
1880.504	7856
1882.618	7922
1884.731	7946
1886.843	7872
1888.956	7893
1891.067	7852
1893.178	7879
1895.287	8005
1897.399	8102
1899.508	7997
1901.617	7989
1903.724	8058
1905.832	8179
1907.941	8150
1910.046	8214
1912.152	8140
1914.256	8259
1916.361	8142
1918.464	8331
1920.57	8197
1922.672	8333
1924.775	8368
1926.876	8323
1928.978	8260
1931.08	8429
1933.181	8248
1935.28	8406
1937.38	8388
1939.478	8455
1941.577	8562
1943.675	8478
1945.771	8462
1947.867	8505
1949.964	8662
1952.058	8607
1954.154	8685
1956.248	8643
1958.343	8735
1960.435	8526
1962.527	8653
1964.62	8730
1966.711	8811
1968.802	8706
1970.892	8639
1972.983	8684
1975.072	8790
1977.162	8870
1979.25	8708
1981.337	8717
1983.424	8730
1985.51	8897
1987.598	8772
1989.683	8756
1991.768	8951
1993.852	8831
1995.934	8909
1998.019	8859
2000.102	8847
2002.184	8981
2004.266	8842
2006.347	8875
2008.427	8954
2010.508	8813
2012.587	8932
2014.666	8912
2016.745	9038
2018.821	8975
2020.9	9160
2022.977	9093
2025.052	9106
2027.128	9144
2029.204	9153
2031.277	9210
2033.353	9098
2035.425	9218
2037.499	9131
2039.57	9303
2041.642	9182
2043.714	9340
2045.786	9273
2047.855	9383
2049.925	9309
2051.993	9249
2054.064	9393
2056.132	9512
2058.2	9422
2060.266	9514
2062.332	9401
2064.398	9483
2066.465	9500
2068.529	9519
2070.592	9614
2072.657	9622
2074.719	9759
2076.783	9682
2078.845	9737
2080.907	9779
2082.968	9720
2085.028	9787
2087.087	9823
2089.148	9799
2091.207	9866
2093.264	9906
2095.322	9978
2097.379	9846
2099.439	9954
2101.495	10051
2103.55	10025
2105.605	10101
2107.658	10043
2109.713	10168
2111.767	10082
2113.82	10147
2115.872	10130
2117.924	10084
2119.975	10124
2122.028	10186
2124.078	10283
2126.126	10148
2128.176	10260
2130.225	10118
2132.275	10196
2134.321	10299
2136.368	10240
2138.415	10241
2140.461	10400
2142.505	10342
2144.552	10350
2146.597	10237
2148.64	10331
2150.684	10303
2152.725	10418
2154.77	10418
2156.811	10542
2158.852	10541
2160.894	10540
2162.933	10397
2164.973	10551
2167.013	10532
2169.051	10567
2171.089	10590
2173.126	10612
2175.164	10510
2177.201	10604
2179.236	10531
2181.273	10566
2183.307	10668
2185.341	10530
2187.377	10674
2189.41	10661
2191.442	10649
2193.473	10746
2195.506	10708
2197.539	10654
2199.569	10791
2201.598	10838
2203.628	10723
2205.656	10658
2207.686	10669
2209.716	10962
2211.743	10836
2213.769	10841
2215.796	10699
2217.821	10828
2219.848	10800
2221.873	10810
2223.897	10968
2225.921	10880
2227.944	10935
2229.967	10879
2231.991	10890
2234.011	10957
2236.032	10940
2238.053	11041
2240.073	10942
2242.094	11036
2244.114	11082
2246.131	10987
2248.149	11063
2250.167	11030
2252.186	11129
2254.201	11153
2256.218	11073
2258.233	11135
2260.247	11168
2262.262	11069
2264.278	11250
2266.29	11259
2268.303	11063
2270.315	11235
2272.327	11175
2274.341	11296
2276.35	11306
2278.361	11245
2280.37	11396
2282.38	11233
2284.388	11305
2286.397	11240
2288.405	11318
2290.412	11310
2292.419	11395
2294.425	11176
2296.431	11377
2298.437	11317
2300.441	11305
2302.445	11343
2304.449	11345
2306.453	11437
2308.455	11283
2310.457	11387
2312.459	11557
2314.46	11127
2316.46	11481
2318.461	11335
2320.46	11454
2322.458	11430
2324.458	11499
2326.456	11314
2328.455	11305
2330.451	11486
2332.447	11423
2334.443	11397
2336.438	11571
2338.433	11542
2340.429	11464
2342.422	11542
2344.416	11357
2346.408	11503
2348.399	11565
2350.393	11533
2352.384	11479
2354.375	11529
2356.365	11502
2358.355	11439
2360.344	11304
2362.333	11473
2364.322	11356
2366.309	11559
2368.295	11387
2370.282	11421
2372.27	11461
2374.256	11325
2376.24	11403
2378.225	11563
2380.208	11577
2382.194	11388
2384.177	11285
2386.159	11404
2388.142	11295
2390.122	11463
2392.105	11588
2394.085	11337
2396.066	11490
2398.044	11368
2400.024	11488
2402.002	11296
2403.982	11495
2405.959	11560
2407.935	11253
2409.913	11193
2411.888	11394
2413.865	11410
2415.84	11433
2417.814	11500
2419.788	11332
2421.762	11102
2423.735	11481
2425.708	11390
2427.68	11340
2429.651	11634
2431.623	11471
2433.593	11246
2435.564	11329
2437.533	11423
2439.502	11336
2441.47	11308
2443.438	11480
2445.406	11506
2447.373	11188
2449.34	11291
2451.305	11420
2453.271	11514
2455.235	11281
2457.201	11371
2459.165	11304
2461.129	11456
2463.092	11398
2465.054	11456
2467.018	11386
2468.978	11422
2470.939	11258
2472.899	11514
2474.86	11407
2476.819	11245
2478.778	11186
2480.737	11302
2482.695	11276
2484.653	11191
2486.609	11237
2488.567	11181
2490.524	11121
2492.478	11186
2494.433	11256
2496.387	11234
2498.343	11182
2500.297	11177
2502.249	11173
2504.202	11065
2506.153	11138
2508.105	11384
2510.057	11287
2512.008	10992
2513.957	11033
2515.906	11125
2517.855	11076
2519.805	11072
2521.754	11191
2523.7	11147
2525.647	11062
2527.594	10957
2529.54	11170
2531.486	11217
2533.431	10985
2535.376	11011
2537.32	11201
2539.263	10934
2541.207	11149
2543.151	11067
2545.093	11067
2547.034	11013
2548.975	11003
2550.917	11167
2552.856	11000
2554.796	11067
2556.735	11057
2558.673	11017
2560.611	11035
2562.55	10983
2564.487	11023
2566.424	10875
2568.36	10837
2570.296	11100
2572.232	10990
2574.167	10980
2576.101	10853
2578.035	11064
2579.969	10837
2581.902	10841
2583.834	10913
2585.766	10968
2587.698	10830
2589.628	11019
2591.557	10694
2593.489	10842
2595.419	10957
2597.348	10913
2599.275	10869
2601.204	10918
2603.131	10968
2605.059	10893
2606.986	10745
2608.911	11023
2610.837	10933
2612.76	10707
2614.687	10755
2616.61	10912
2618.534	10814
2620.457	10892
2622.38	10853
2624.302	10649
2626.225	10751
2628.145	10910
2630.067	10719
2631.986	10847
2633.906	10872
2635.827	10960
2637.745	10800
2639.662	10837
2641.581	10616
2643.498	10695
2645.415	10755
2647.331	10680
2649.248	10730
2651.163	10605
2653.077	10706
2654.993	10781
2656.906	10767
2658.821	10831
2660.733	10792
2662.646	10637
2664.557	10662
2666.47	10617
2668.381	10596
2670.291	10712
2672.201	10628
2674.11	10503
2676.021	10512
2677.929	10599
2679.837	10608
2681.745	10592
2683.652	10423
2685.56	10302
2687.466	10465
2689.371	10679
2691.276	10313
2693.181	10352
2695.085	10509
2696.991	10408
2698.893	10489
2700.796	10314
2702.698	10222
2704.601	10461
2706.502	10525
2708.404	10198
2710.304	10354
2712.203	10287
2714.103	10280
2716.003	10351
2717.902	10323
2719.8	10250
2721.697	10285
2723.594	10214
2725.49	10301
2727.389	10185
2729.283	10147
2731.179	10133
2733.073	10237
2734.968	10292
2736.863	10180
2738.757	10130
2740.649	10026
2742.541	10061
2744.433	10164
2746.324	10124
2748.216	10077
2750.107	10083
2751.997	10051
2753.886	9997
2755.776	9820
2757.666	9920
2759.553	9853
2761.44	9925
2763.327	9949
2765.215	9929
2767.102	9993
2768.988	9922
2770.873	9826
2772.757	9911
2774.641	9869
2776.525	9850
2778.41	9774
2780.292	10052
2782.175	9863
2784.057	9789
2785.938	9781
2787.821	9903
2789.701	9776
2791.581	9678
2793.461	9686
2795.34	9696
2797.219	9700
2799.099	9764
2800.975	9553
2802.853	9670
2804.73	9688
2806.606	9695
2808.484	9709
2810.358	9547
2812.233	9614
2814.108	9683
2815.981	9693
2817.857	9597
2819.73	9597
2821.602	9587
2823.474	9479
2825.346	9526
2827.217	9563
2829.089	9517
2830.959	9516
2832.829	9548
2834.698	9622
2836.567	9529
2838.436	9525
2840.305	9520
2842.172	9468
2844.04	9431
2845.905	9493
2847.772	9361
2849.639	9455
2851.503	9559
2853.369	9426
2855.232	9311
2857.096	9427
2858.961	9591
2860.824	9542
2862.686	9483
2864.547	9378
2866.41	9307
2868.272	9371
2870.132	9335
2871.992	9368
2873.851	9491
2875.711	9411
2877.57	9481
2879.429	9458
2881.287	9408
2883.144	9414
2885.001	9557
2886.857	9347
2888.714	9507
2890.57	9490
2892.425	9385
2894.279	9373
2896.133	9465
2897.987	9341
2899.842	9371
2901.694	9249
2903.547	9321
2905.397	9349
2907.249	9393
2909.101	9302
2910.952	9378
2912.802	9385
2914.652	9462
2916.5	9271
2918.35	9396
2920.198	9327
2922.045	9379
2923.893	9300
2925.74	9301
2927.585	9506
2929.433	9374
2931.279	9420
2933.123	9581
2934.968	9431
2936.811	9608
2938.656	9416
2940.5	9507
2942.342	9685
2944.185	9541
2946.026	9622
2947.87	9595
2949.71	9618
2951.549	9524
2953.39	9671
2955.229	9505
2957.069	9409
2958.908	9281
2960.746	9293
2962.584	9289
2964.421	9295
2966.257	9143
2968.094	9041
2969.931	9115
2971.766	9185
2973.601	9039
2975.435	9113
2977.27	9080
2979.105	9019
2980.938	9073
2982.77	8853
2984.602	9013
2986.434	8913
2988.267	8876
2990.097	8873
2991.927	8997
2993.757	8885
2995.587	8759
2997.417	8852
2999.246	8712
3001.074	8797
3002.902	8679
3004.729	8592
3006.556	8624
3008.384	8653
3010.21	8492
3012.036	8613
3013.861	8606
3015.684	8592
3017.51	8462
3019.334	8475
3021.157	8615
3022.981	8532
3024.802	8398
3026.624	8307
3028.448	8354
3030.267	8407
3032.088	8306
3033.909	8383
3035.728	8387
3037.549	8382
3039.368	8205
3041.186	8401
3043.004	8216
3044.821	8319
3046.64	8249
3048.455	8251
3050.272	8284
3052.087	8418
3053.903	8205
3055.717	8225
3057.534	8259
3059.347	8272
3061.16	8227
3062.974	8284
3064.785	8258
3066.598	8043
3068.411	8260
3070.222	8144
3072.032	8204
3073.844	8061
3075.653	8013
3077.463	8054
3079.272	8069
3081.08	8169
3082.889	8220
3084.697	7815
3086.505	8086
3088.312	8285
3090.118	7933
3091.924	7962
3093.729	8083
3095.535	8029
3097.34	8028
3099.144	8046
3100.947	7856
3102.75	7943
3104.553	8042
3106.357	7956
3108.159	7855
3109.961	7966
3111.762	7867
3113.562	7798
3115.365	7870
3117.164	7932
3118.964	7904
3120.761	7875
3122.56	7823
3124.36	7787
3126.158	7737
3127.954	7812
3129.75	7782
3131.547	7754
3133.343	7642
3135.139	7674
3136.934	7805
3138.729	7604
3140.522	7730
3142.317	7730
3144.11	7676
3145.904	7753
3147.695	7700
3149.488	7746
3151.28	7626
3153.07	7635
3154.863	7749
3156.652	7714
3158.441	7677
3160.231	7786
3162.019	7697
3163.81	7516
3165.597	7805
3167.384	7590
3169.172	7654
3170.958	7595
3172.745	7645
3174.532	7545
3176.317	7684
3178.101	7604
3179.885	7546
3181.67	7757
3183.455	7591
3185.238	7483
3187.02	7615
3188.802	7528
3190.585	7652
3192.368	7482
3194.149	7605
3195.929	7479
3197.709	7471
3199.489	7643
3201.268	7368
3203.048	7607
3204.826	7575
3206.604	7766
3208.382	7587
3210.159	7507
3211.937	7571
3213.713	7496
3215.489	7528
3217.263	7508
3219.038	7593
3220.815	7565
3222.589	7510
3224.363	7480
3226.136	7464
3227.908	7402
3229.681	7427
3231.454	7542
3233.226	7596
3234.996	7418
3236.767	7601
3238.538	7556
3240.308	7485
3242.078	7463
3243.847	7491
3245.615	7557
3247.384	7489
3249.15	7562
3250.92	7581
3252.686	7469
3254.453	7505
3256.218	7508
3257.984	7466
3259.75	7510
3261.515	7416
3263.279	7518
3265.044	7385
3266.806	7457
3268.57	7546
3270.334	7565
3272.095	7449
3273.856	7477
3275.619	7439
3277.379	7492
3279.14	7543
3280.9	7498
3282.661	7345
3284.419	7684
3286.178	7527
3287.937	7520
3289.695	7504
3291.453	7567
3293.21	7440
3294.967	7482
3296.723	7530
3298.48	7616
3300.235	7535
3301.99	7457
3303.744	7548
3305.498	7595
3307.253	7568
3309.006	7624
3310.759	7622
3312.511	7543
3314.263	7575
3316.017	7467
3317.768	7564
3319.519	7520
3321.268	7498
3323.018	7561
3324.767	7443
3326.518	7636
3328.267	7452
3330.014	7605
3331.762	7527
3333.509	7510
3335.258	7553
3337.003	7414
3338.75	7620
3340.496	7668
3342.24	7374
3343.987	7532
3345.732	7493
3347.475	7529
3349.219	7489
3350.961	7517
3352.705	7569
3354.448	7544
3356.19	7391
3357.931	7425
3359.672	7533
3361.412	7508
3363.155	7546
3364.894	7591
3366.633	7481
3368.372	7586
3370.11	7559
3371.849	7432
3373.588	7402
3375.325	7406
3377.061	7480
3378.799	7450
3380.534	7528
3382.271	7527
3384.006	7508
3385.741	7587
3387.475	7564
3389.209	7457
3390.944	7526
3392.677	7555
3394.409	7435
3396.143	7556
3397.874	7506
3399.606	7489
3401.338	7550
3403.069	7585
3404.799	7482
3406.528	7569
3408.258	7447
3409.988	7523
3411.717	7565
3413.445	7522
3415.173	7421
3416.899	7635
3418.626	7558
3420.354	7516
3422.08	7480
3423.806	7475
3425.531	7600
3427.255	7513
3428.981	7398
3430.705	7424
3432.429	7521
3434.151	7445
3435.875	7475
3437.599	7472
3439.321	7423
3441.042	7519
3442.763	7610
3444.483	7388
3446.204	7471
3447.926	7475
3449.645	7428
3451.364	7478
3453.082	7538
3454.801	7478
3456.52	7468
3458.238	7336
3459.954	7467
3461.671	7463
3463.387	7421
3465.104	7510
3466.82	7441
3468.534	7391
3470.25	7484
3471.963	7414
3473.676	7452
3475.392	7486
3477.104	7405
3478.817	7324
3480.528	7425
3482.241	7491
3483.954	7469
3485.664	7435
3487.374	7416
3489.084	7447
3490.795	7526
3492.504	7474
3494.214	7450
3495.922	7528
3497.63	7470
3499.338	7478
3501.045	7359
3502.753	7431
3504.459	7356
3506.166	7446
3507.871	7483
3509.576	7423
3511.283	7514
3512.987	7431
3514.691	7451
3516.395	7391
3518.098	7435
3519.8	7429
3521.504	7339
3523.206	7452
3524.908	7361
3526.609	7399
3528.309	7391
3530.011	7388
3531.711	7502
3533.411	7439
3535.109	7546
3536.808	7397
3538.507	7457
3540.206	7358
3541.904	7432
3543.601	7392
3545.297	7360
3546.994	7414
3548.69	7351
3550.387	7382
3552.081	7474
3553.776	7366
3555.47	7395
3557.166	7424
3558.859	7329
3560.553	7365
3562.245	7333
3563.938	7446
3565.629	7354
3567.322	7408
3569.014	7401
3570.704	7357
3572.394	7474
3574.084	7350
3575.775	7347
3577.464	7393
3579.152	7428
3580.842	7571
3582.529	7478
3584.216	7438
3585.905	7441
3587.591	7332
3589.279	7211
3590.964	7473
3592.649	7393
3594.336	7363
3596.021	7299
3597.705	7410
3599.388	7320
3601.072	7249
3602.757	7433
3604.439	7328
3606.122	7218
3607.803	7227
3609.485	7357
3611.167	7117
3612.849	7316
3614.529	7362
3616.208	7374
3617.888	7209
3619.567	7341
3621.247	7341
3622.926	7331
3624.603	7358
3626.281	7300
3627.958	7276
3629.635	7196
3631.312	7254
3632.989	7269
3634.665	7237
3636.339	7218
3638.014	7241
3639.691	7226
3641.364	7235
3643.038	7244
3644.71	7191
3646.384	7263
3648.058	7278
3649.729	7191
3651.402	7216
3653.073	7283
3654.744	7190
3656.414	7255
3658.085	7273
3659.755	7145
3661.424	7294
3663.094	7182
3664.762	7137
3666.431	7180
3668.099	7211
3669.766	7171
3671.433	7293
3673.099	7251
3674.768	7211
3676.433	7214
3678.098	7200
3679.763	7106
3681.428	7120
3683.093	7215
3684.757	7217
3686.421	7193
3688.083	7207
3689.746	7085
3691.408	7248
3693.071	7096
3694.733	7223
3696.394	7048
3698.054	7104
3699.715	7150
3701.375	7049
3703.036	7179
3704.695	7238
3706.354	7075
3708.012	7140
3709.67	7215
3711.329	7170
3712.987	7226
3714.644	7052
3716.299	7137
3717.955	7106
3719.613	7093
3721.268	7089
3722.923	7041
3724.577	7084
3726.231	7058
3727.885	7174
3729.539	7101
3731.192	7043
3732.845	7119
3734.497	6969
3736.149	7017
3737.802	6997
3739.453	7117
3741.104	6979
3742.753	6951
3744.404	6977
3746.052	6997
3747.704	7021
3749.352	7035
3751	7078
3752.648	7040
3754.296	6892
3755.944	7122
3757.59	6980
3759.238	6970
3760.883	6973
3762.528	6965
3764.176	7091
3765.82	6973
3767.464	6799
3769.109	6859
3770.753	6955
3772.396	6848
3774.04	6993
3775.683	6967
3777.325	6981
3778.967	6891
3780.608	6896
3782.25	6865
3783.89	6829
3785.531	6867
3787.17	6888
3788.81	6877
3790.45	6780
3792.09	6887
3793.729	6829
3795.366	6805
3797.003	6710
3798.64	6841
3800.278	6895
3801.915	6700
3803.551	6743
3805.187	6775
3806.822	6687
3808.458	6796
3810.093	6778
3811.726	6668
3813.36	6801
3814.994	6727
3816.627	6804
3818.262	6680
3819.893	6798
3821.525	6644
3823.157	6637
3824.787	6683
3826.42	6724
3828.051	6713
3829.68	6648
3831.31	6597
3832.938	6760
3834.569	6590
3836.198	6737
3837.825	6560
3839.454	6739
3841.08	6453
3842.708	6605
3844.335	6634
3845.962	6614
3847.587	6536
3849.212	6572
3850.838	6576
3852.463	6627
3854.089	6631
3855.712	6530
3857.335	6468
3858.959	6422
3860.582	6467
3862.205	6544
3863.827	6541
3865.449	6552
3867.07	6506
3868.691	6501
3870.312	6428
3871.933	6512
3873.553	6458
3875.173	6506
3876.792	6390
3878.411	6409
3880.03	6469
3881.647	6378
3883.265	6357
3884.882	6498
3886.499	6416
3888.116	6305
3889.732	6391
3891.348	6366
3892.964	6251
3894.579	6300
3896.195	6413
3897.809	6463
3899.423	6389
3901.036	6449
3902.648	6303
3904.261	6331
3905.875	6389
3907.487	6325
3909.099	6394
3910.709	6264
3912.321	6379
3913.933	6362
3915.542	6336
3917.152	6378
3918.762	6308
3920.37	6315
3921.98	6288
3923.589	6189
3925.196	6155
3926.804	6137
3928.41	6256
3930.018	6185
3931.626	6325
3933.231	6197
3934.838	6208
3936.442	6130
3938.046	6102
3939.653	6271
3941.257	6147
3942.861	6295
3944.464	6088
3946.068	6201
3947.67	6128
3949.273	6166
3950.876	6233
3952.477	6168
3954.078	6134
3955.678	6091
3957.281	6042
3958.881	6046
3960.48	6007
3962.079	5998
3963.678	6167
3965.279	6031
3966.877	6089
3968.475	5965
3970.072	6064
3971.669	5945
3973.266	5993
3974.864	5995
3976.459	6075
3978.055	5918
3979.65	5949
3981.245	5830
3982.841	5926
3984.436	5968
3986.03	5922
3987.623	5944
3989.216	5863
3990.809	5913
3992.403	5858
3993.995	5793
3995.586	5758
3997.177	5917
3998.768	5845
4000.361	5783
4001.951	5872
4003.54	5776
4005.13	5568
4006.719	5789
4008.31	5693
4009.897	5686
4011.485	5741
4013.073	5782
4014.66	5761
4016.247	5677
4017.834	5685
4019.421	5718
4021.006	5538
4022.592	5655
4024.178	5586
4025.763	5604
4027.348	5548
4028.932	5633
4030.515	5663
4032.099	5503
4033.682	5620
4035.266	5548
4036.847	5558
4038.429	5545
4040.011	5638
4041.592	5499
4043.173	5569
4044.755	5528
4046.334	5554
4047.913	5421
4049.494	5515
4051.074	5498
4052.652	5325
4054.23	5495
4055.807	5410
4057.385	5509
4058.963	5273
4060.541	5346
4062.117	5311
4063.693	5387
4065.269	5333
4066.844	5430
4068.42	5408
4069.995	5339
4071.569	5323
4073.143	5357
4074.716	5388
4076.291	5331
4077.864	5288
4079.436	5350
4081.009	5280
4082.58	5386
4084.152	5290
4085.723	5257
4087.294	5220
4088.865	5307
4090.435	5305
4092.005	5339
4093.574	5269
4095.143	5268
4096.712	5262
4098.279	5252
4099.848	5136
4101.416	5281
4102.984	5214
4104.55	5247
4106.117	5252
4107.682	5128
4109.248	5159
4110.815	5184
4112.379	5219
4113.945	5237
4115.508	5108
4117.073	5092
4118.637	5124
4120.201	5103
4121.763	5075
4123.325	5104
4124.888	4986
4126.449	5118
4128.013	5041
4129.573	5026
4131.133	5037
4132.694	4960
4134.254	4929
4135.814	5082
4137.374	4881
4138.933	5105
4140.491	4843
4142.049	4931
4143.607	4946
4145.167	4965
4146.724	4921
4148.28	5052
4149.836	4935
4151.392	4965
4152.949	4961
4154.504	4850
4156.059	4797
4157.614	4820
4159.168	4952
4160.723	4871
4162.277	4804
4163.83	4789
4165.383	4893
4166.936	4837
4168.488	4748
4170.041	4668
4171.593	4776
4173.144	4838
4174.695	4763
4176.246	4756
4177.796	4696
4179.346	4777
4180.896	4685
4182.445	4722
4183.994	4773
4185.542	4703
4187.091	4696
4188.639	4781
4190.185	4605
4191.732	4666
4193.279	4680
4194.826	4632
4196.373	4651
4197.918	4619
4199.463	4685
4201.008	4612
4202.553	4633
4204.098	4571
4205.641	4526
4207.185	4600
4208.728	4651
4210.271	4547
4211.814	4573
4213.357	4618
4214.898	4543
4216.439	4502
4217.98	4656
4219.522	4520
4221.062	4468
4222.603	4583
4224.142	4677
4225.681	4559
4227.222	4533
4228.76	4476
4230.298	4572
4231.835	4445
4233.373	4510
4234.911	4483
4236.449	4511
4237.985	4427
4239.521	4505
4241.057	4512
4242.592	4495
4244.128	4363
4245.663	4443
4247.197	4441
4248.731	4422
4250.265	4412
4251.798	4429
4253.333	4366
4254.865	4454
4256.397	4414
4257.93	4296
4259.461	4458
4260.994	4273
4262.525	4418
4264.056	4405
4265.586	4321
4267.115	4357
4268.646	4344
4270.176	4372
4271.705	4364
4273.232	4254
4274.761	4271
4276.289	4323
4277.818	4246
4279.345	4358
4280.872	4332
4282.399	4278
4283.924	4295
4285.452	4371
4286.976	4305
4288.502	4263
4290.026	4226
4291.551	4316
4293.074	4250
4294.6	4230
4296.123	4207
4297.646	4227
4299.168	4219
4300.691	4155
4302.214	4223
4303.736	4217
4305.257	4213
4306.778	4204
4308.299	4177
4309.82	4206
4311.34	4205
4312.86	4113
4314.379	4117
