400.0745	5008
402.597	5086
405.1208	4980
407.6419	5088
410.1623	5004
412.6819	5090
415.201	5097
417.7172	5240
420.2369	5187
422.7538	5211
425.2701	5265
427.7856	5195
430.3005	5307
432.8147	5272
435.3282	5313
437.841	5253
440.3511	5313
442.8625	5371
445.3753	5431
447.8854	5348
450.3927	5390
452.9014	5345
455.4073	5323
457.9146	5400
460.4233	5392
462.9272	5361
465.4325	5335
467.935	5363
470.4389	5352
472.9421	5394
475.4446	5456
477.9444	5474
480.4456	5492
482.944	5497
485.4417	5510
487.9429	5441
490.4393	5535
492.935	5571
495.4321	5546
497.9264	5526
500.4221	5618
502.9171	5567
505.4094	5597
507.9011	5630
510.392	5597
512.8864	5573
515.3759	5614
517.8649	5656
520.3531	5813
522.8406	5781
525.3275	5725
527.8178	5656
530.3033	5646
532.7881	5616
535.2723	5611
537.7558	5672
540.2407	5794
542.7228	5646
545.2043	5601
547.6851	5597
550.1652	5744
552.6467	5756
555.1255	5646
557.6016	5729
560.079	5758
562.5557	5658
565.0318	5702
567.5092	5718
569.984	5780
572.456	5778
574.9294	5783
577.4022	5847
579.8762	5747
582.3456	5900
584.8163	5949
587.2863	5768
589.7557	5879
592.2224	5815
594.6924	5831
597.1578	5821
599.6245	5784
602.0905	5907
604.5538	5808
607.0206	5951
609.4825	5858
611.9459	5862
614.4066	5829
616.8686	5893
619.33	5866
621.7906	5847
624.2487	5916
626.708	5790
629.1647	5926
631.6207	5887
634.0801	5800
636.5348	5894
638.9888	5873
641.4442	6010
643.8969	5974
646.3509	5856
648.8022	5982
651.255	5930
653.705	5849
656.1544	5946
658.6031	5867
661.0532	5950
663.5026	6091
665.9493	6046
668.3954	6111
670.8409	6122
673.2877	5948
675.7318	6057
678.1752	6050
680.618	6059
683.0601	6105
685.5035	6076
687.9444	6041
690.3845	6127
692.824	6089
695.2628	6148
697.701	6225
700.1406	6230
702.5774	6067
705.0116	6155
707.4472	6210
709.8821	6190
712.3183	6266
714.7519	6258
717.1829	6152
719.6151	6234
722.0468	6178
724.4777	6189
726.908	6280
729.3377	6253
731.7667	6308
734.1931	6255
736.6208	6356
739.0498	6366
741.4742	6426
743.9	6411
746.3231	6468
748.7476	6345
751.1713	6459
753.5945	6488
756.015	6482
758.4368	6553
760.856	6480
763.2766	6571
765.6965	6510
768.1157	6642
770.5323	6548
772.9483	6514
775.3656	6585
777.7822	6625
780.1963	6514
782.6116	6564
785.0244	6536
787.4365	6569
789.8499	6483
792.2626	6570
794.6728	6567
797.0823	6590
799.4911	6494
801.8994	6512
804.3109	6586
806.7178	6544
809.124	6638
811.5297	6636
813.9347	6720
816.341	6619
818.7447	6649
821.1478	6615
823.5502	6734
825.952	6617
828.3531	6662
830.7556	6573
833.1554	6591
835.5546	6675
837.9532	6740
840.3511	6718
842.7504	6676
845.1451	6683
847.5411	6681
849.9365	6636
852.3312	6689
854.7272	6759
857.1187	6653
859.5115	6806
861.9037	6698
864.2952	6801
866.6842	6660
869.0764	6689
871.4661	6677
873.8531	6694
876.2415	6753
878.6272	6764
881.0162	6657
883.4026	6677
885.7866	6675
888.1717	6615
890.5543	6675
892.9382	6726
895.3215	6673
897.7041	6772
900.0842	6795
902.4655	6803
904.8443	6783
907.2244	6753
909.6039	6775
911.9808	6823
914.357	6930
916.7346	6817
919.1115	6909
921.4859	6879
923.8616	6813
926.2347	6941
928.6071	6954
930.979	6816
933.3541	6930
935.7247	6970
938.0946	6949
940.4639	7183
942.8326	7025
945.2026	7112
947.5701	7188
949.9369	7221
952.305	7356
954.6705	7520
957.0355	7576
959.4017	7814
961.7654	7776
964.1284	7739
966.4908	7642
968.8527	7439
971.2138	7284
973.5743	7338
975.9343	7163
978.2936	7101
980.6522	6984
983.0122	6972
985.3696	6898
987.7245	6904
990.0807	6894
992.4362	6796
994.7911	7004
997.1474	6971
999.4991	7020
1001.852	6977
1004.205	7031
1006.555	6835
1008.908	6991
1011.258	6978
1013.606	6944
1015.956	6988
1018.302	6964
1020.652	6925
1022.998	7024
1025.345	6964
1027.691	7047
1030.035	7061
1032.378	7111
1034.724	7038
1037.066	7046
1039.409	6932
1041.75	7121
1044.092	7065
1046.433	6993
1048.771	6900
1051.112	7059
1053.449	7050
1055.786	7014
1058.124	7057
1060.462	7116
1062.797	6975
1065.131	7147
1067.467	6983
1069.8	7095
1072.135	7140
1074.467	7183
1076.798	7072
1079.129	7211
1081.459	7050
1083.792	7091
1086.121	7036
1088.449	7133
1090.777	7090
1093.104	7058
1095.431	7242
1097.759	7161
1100.084	7051
1102.408	7122
1104.732	7043
1107.056	7059
1109.379	7275
1111.701	7165
1114.022	7192
1116.343	7184
1118.664	7130
1120.983	7128
1123.303	7188
1125.621	7263
1127.939	7150
1130.256	7218
1132.573	7220
1134.889	7110
1137.205	7131
1139.52	7087
1141.832	7224
1144.146	7078
1146.461	7170
1148.771	7176
1151.083	7118
1153.392	7261
1155.703	7036
1158.011	7298
1160.323	7311
1162.629	7186
1164.938	7098
1167.243	7162
1169.55	7201
1171.857	7141
1174.163	7135
1176.466	7251
1178.769	7168
1181.073	7104
1183.374	7163
1185.677	7167
1187.979	7228
1190.279	7178
1192.578	7209
1194.878	7131
1197.178	7159
1199.476	7142
1201.772	7179
1204.068	7268
1206.366	7232
1208.663	7173
1210.957	7241
1213.251	7077
1215.544	7207
1217.836	7209
1220.128	7116
1222.421	7273
1224.712	7354
1227.002	7230
1229.292	7190
1231.581	7162
1233.871	7187
1236.159	7307
1238.446	7254
1240.732	7368
1243.018	7300
1245.304	7475
1247.59	7332
1249.874	7267
1252.156	7308
1254.439	7437
1256.721	7421
1259.005	7374
1261.286	7338
1263.565	7410
1265.845	7379
1268.125	7437
1270.403	7374
1272.682	7278
1274.959	7484
1277.234	7416
1279.511	7312
1281.787	7315
1284.062	7316
1286.337	7330
1288.609	7337
1290.882	7367
1293.153	7386
1295.428	7244
1297.698	7399
1299.969	7305
1302.237	7269
1304.507	7248
1306.777	7345
1309.044	7398
1311.312	7331
1313.578	7307
1315.844	7412
1318.109	7356
1320.375	7262
1322.638	7385
1324.903	7285
1327.165	7350
1329.427	7272
1331.69	7396
1333.952	7347
1336.212	7369
1338.471	7486
1340.73	7328
1342.988	7222
1345.248	7356
1347.505	7263
1349.763	7388
1352.019	7316
1354.274	7368
1356.53	7366
1358.784	7243
1361.038	7256
1363.291	7268
1365.543	7374
1367.797	7281
1370.048	7271
1372.296	7277
1374.546	7250
1376.796	7411
1379.045	7274
1381.295	7396
1383.542	7291
1385.787	7285
1388.034	7380
1390.28	7368
1392.527	7450
1394.772	7423
1397.014	7388
1399.258	7468
1401.501	7450
1403.741	7487
1405.985	7449
1408.226	7466
1410.465	7394
1412.705	7560
1414.943	7540
1417.184	7421
1419.42	7481
1421.658	7421
1423.894	7432
1426.13	7542
1428.366	7427
1430.602	7491
1432.835	7540
1435.069	7503
1437.301	7529
1439.535	7534
1441.767	7506
1443.997	7475
1446.229	7509
1448.458	7539
1450.687	7480
1452.916	7707
1455.146	7662
1457.372	7691
1459.599	7539
1461.824	7447
1464.051	7548
1466.277	7525
1468.501	7510
1470.725	7543
1472.948	7522
1475.17	7337
1477.393	7445
1479.614	7494
1481.837	7487
1484.057	7475
1486.276	7435
1488.497	7324
1490.715	7427
1492.932	7438
1495.148	7289
1497.364	7392
1499.58	7334
1501.798	7364
1504.012	7227
1506.227	7322
1508.44	7342
1510.653	7353
1512.866	7321
1515.078	7228
1517.289	7315
1519.5	7301
1521.711	7361
1523.92	7342
1526.13	7241
1528.338	7355
1530.544	7265
1532.752	7392
1534.959	7417
1537.165	7329
1539.371	7345
1541.574	7287
1543.779	7355
1545.983	7333
1548.187	7293
1550.39	7458
1552.59	7400
1554.792	7369
1556.991	7287
1559.19	7364
1561.392	7442
1563.59	7430
1565.789	7371
1567.986	7370
1570.182	7442
1572.381	7447
1574.576	7499
1576.771	7527
1578.966	7454
1581.16	7623
1583.354	7518
1585.546	7680
1587.74	7514
1589.931	7550
1592.121	7535
1594.311	7526
1596.502	7529
1598.693	7600
1600.881	7559
1603.069	7492
1605.256	7558
1607.445	7499
1609.631	7445
1611.816	7595
1614.001	7605
1616.186	7552
1618.37	7501
1620.555	7508
1622.737	7581
1624.919	7555
1627.101	7535
1629.282	7562
1631.463	7520
1633.643	7585
1635.822	7628
1638.001	7469
1640.179	7657
1642.359	7462
1644.534	7587
1646.711	7544
1648.887	7470
1651.062	7643
1653.235	7633
1655.412	7645
1657.586	7507
1659.757	7754
1661.93	7631
1664.1	7665
1666.274	7566
1668.445	7605
1670.614	7762
1672.784	7626
1674.951	7624
1677.12	7740
1679.289	7557
1681.457	7591
1683.622	7560
1685.789	7614
1687.953	7533
1690.121	7553
1692.284	7604
1694.447	7544
1696.611	7668
1698.772	7480
1700.935	7496
1703.098	7402
1705.258	7548
1707.417	7645
1709.576	7534
1711.736	7453
1713.896	7436
1716.053	7573
1718.21	7548
1720.366	7470
1722.522	7509
1724.68	7480
1726.835	7449
1728.989	7526
1731.142	7412
1733.295	7541
1735.449	7550
1737.601	7569
1739.753	7533
1741.903	7574
1744.054	7616
1746.203	7444
1748.354	7437
1750.503	7405
1752.651	7479
1754.798	7500
1756.944	7468
1759.092	7506
1761.238	7528
1763.383	7692
1765.528	7535
1767.672	7515
1769.814	7535
1771.959	7520
1774.102	7529
1776.242	7600
1778.384	7606
1780.525	7664
1782.665	7414
1784.805	7528
1786.945	7582
1789.082	7518
1791.22	7610
1793.36	7590
1795.495	7507
1797.632	7491
1799.766	7555
1801.902	7609
1804.035	7594
1806.172	7400
1808.304	7551
1810.436	7544
1812.569	7465
1814.699	7765
1816.833	7454
1818.963	7463
1821.092	7627
1823.222	7405
1825.35	7423
1827.478	7535
1829.608	7520
1831.734	7491
1833.86	7503
1835.986	7402
1838.11	7613
1840.238	7582
1842.362	7360
1844.485	7564
1846.608	7507
1848.73	7540
1850.853	7611
1852.974	7479
1855.097	7412
1857.217	7482
1859.336	7554
1861.455	7492
1863.576	7397
1865.693	7409
1867.811	7415
1869.926	7475
1872.042	7537
1874.16	7390
1876.275	7569
1878.39	7434
1880.504	7546
1882.618	7484
1884.731	7465
1886.843	7432
1888.956	7565
1891.067	7439
1893.178	7463
1895.287	7545
1897.399	7529
1899.508	7452
1901.617	7484
1903.724	7369
1905.832	7554
1907.941	7598
1910.046	7425
1912.152	7603
1914.256	7583
1916.361	7432
1918.464	7570
1920.57	7663
1922.672	7584
1924.775	7630
1926.876	7602
1928.978	7595
1931.08	7628
1933.181	7391
1935.28	7499
1937.38	7482
1939.478	7675
1941.577	7515
1943.675	7576
1945.771	7465
1947.867	7595
1949.964	7584
1952.058	7615
1954.154	7459
1956.248	7546
1958.343	7464
1960.435	7558
1962.527	7661
1964.62	7533
1966.711	7652
1968.802	7594
1970.892	7465
1972.983	7560
1975.072	7541
1977.162	7523
1979.25	7563
1981.337	7709
1983.424	7577
1985.51	7507
1987.598	7532
1989.683	7475
1991.768	7397
1993.852	7505
1995.934	7552
1998.019	7483
2000.102	7358
2002.184	7505
2004.266	7496
2006.347	7434
2008.427	7516
2010.508	7411
2012.587	7505
2014.666	7574
2016.745	7508
2018.821	7417
2020.9	7588
2022.977	7388
2025.052	7430
2027.128	7542
2029.204	7410
2031.277	7362
2033.353	7466
2035.425	7524
2037.499	7436
2039.57	7431
2041.642	7403
2043.714	7398
2045.786	7345
2047.855	7390
2049.925	7444
2051.993	7397
2054.064	7379
2056.132	7499
2058.2	7490
2060.266	7492
2062.332	7429
2064.398	7506
2066.465	7511
2068.529	7401
2070.592	7379
2072.657	7501
2074.719	7468
2076.783	7370
2078.845	7489
2080.907	7428
2082.968	7418
2085.028	7493
2087.087	7561
2089.148	7529
2091.207	7556
2093.264	7416
2095.322	7401
2097.379	7394
2099.439	7360
2101.495	7387
2103.55	7403
2105.605	7446
2107.658	7566
2109.713	7390
2111.767	7453
2113.82	7446
2115.872	7502
2117.924	7464
2119.975	7383
2122.028	7444
2124.078	7341
2126.126	7549
2128.176	7358
2130.225	7317
2132.275	7422
2134.321	7259
2136.368	7387
2138.415	7413
2140.461	7300
2142.505	7384
2144.552	7442
2146.597	7493
2148.64	7354
2150.684	7408
2152.725	7501
2154.77	7367
2156.811	7370
2158.852	7432
2160.894	7402
2162.933	7395
2164.973	7343
2167.013	7264
2169.051	7242
2171.089	7303
2173.126	7498
2175.164	7339
2177.201	7314
2179.236	7391
2181.273	7290
2183.307	7256
2185.341	7257
2187.377	7376
2189.41	7307
2191.442	7294
2193.473	7251
2195.506	7247
2197.539	7271
2199.569	7165
2201.598	7209
2203.628	7251
2205.656	7149
2207.686	7146
2209.716	7226
2211.743	7066
2213.769	7295
2215.796	7204
2217.821	7155
2219.848	7218
2221.873	7247
2223.897	7131
2225.921	7254
2227.944	7084
2229.967	7272
2231.991	7110
2234.011	7193
2236.032	7256
2238.053	7251
2240.073	7241
2242.094	7103
2244.114	7163
2246.131	7163
2248.149	7257
2250.167	7139
2252.186	7114
2254.201	7290
2256.218	7183
2258.233	7101
2260.247	7193
2262.262	7340
2264.278	7223
2266.29	7267
2268.303	7218
2270.315	7192
2272.327	7068
2274.341	7182
2276.35	7227
2278.361	7173
2280.37	7091
2282.38	7171
2284.388	7153
2286.397	7239
2288.405	7145
2290.412	7178
2292.419	7183
2294.425	7059
2296.431	7070
2298.437	7250
2300.441	7179
2302.445	7210
2304.449	7083
2306.453	7253
2308.455	7095
2310.457	7093
2312.459	7190
2314.46	7139
2316.46	7145
2318.461	7088
2320.46	7096
2322.458	7120
2324.458	7088
2326.456	7130
2328.455	7078
2330.451	7093
2332.447	6982
2334.443	7146
2336.438	7001
2338.433	7014
2340.429	7090
2342.422	7051
2344.416	7028
2346.408	7072
2348.399	7096
2350.393	6970
2352.384	7025
2354.375	7098
2356.365	6994
2358.355	7069
2360.344	7037
2362.333	6996
2364.322	6932
2366.309	6991
2368.295	6986
2370.282	6953
2372.27	6951
2374.256	6970
2376.24	7093
2378.225	6891
2380.208	6994
2382.194	6945
2384.177	6844
2386.159	6941
2388.142	6936
2390.122	6989
2392.105	6904
2394.085	6956
2396.066	6927
2398.044	6913
2400.024	6989
2402.002	6749
2403.982	6840
2405.959	6812
2407.935	6965
2409.913	6740
2411.888	6873
2413.865	6892
2415.84	6904
2417.814	6842
2419.788	6838
2421.762	6993
2423.735	6961
2425.708	6751
2427.68	6900
2429.651	6811
2431.623	6936
2433.593	6899
2435.564	6921
2437.533	6905
2439.502	6727
2441.47	6893
2443.438	6947
2445.406	6855
2447.373	6797
2449.34	6918
2451.305	6866
2453.271	6954
2455.235	6932
2457.201	6977
2459.165	6757
2461.129	6835
2463.092	6878
2465.054	6822
2467.018	6737
2468.978	6771
2470.939	6710
2472.899	6673
2474.86	6735
2476.819	7006
2478.778	6874
2480.737	6774
2482.695	6701
2484.653	6820
2486.609	6703
2488.567	6841
2490.524	6779
2492.478	6723
2494.433	6846
2496.387	6720
2498.343	6669
2500.297	6701
2502.249	6764
2504.202	6762
2506.153	6749
2508.105	6726
2510.057	6632
2512.008	6742
2513.957	6694
2515.906	6639
2517.855	6705
2519.805	6663
2521.754	6754
2523.7	6700
2525.647	6660
2527.594	6670
2529.54	6641
2531.486	6674
2533.431	6663
2535.376	6681
2537.32	6669
2539.263	6660
2541.207	6773
2543.151	6631
2545.093	6695
2547.034	6710
2548.975	6710
2550.917	6676
2552.856	6683
2554.796	6644
2556.735	6672
2558.673	6585
2560.611	6724
2562.55	6662
2564.487	6576
2566.424	6640
2568.36	6686
2570.296	6681
2572.232	6599
2574.167	6607
2576.101	6693
2578.035	6787
2579.969	6691
2581.902	6616
2583.834	6707
2585.766	6738
2587.698	6561
2589.628	6728
2591.557	6628
2593.489	6734
2595.419	6687
2597.348	6592
2599.275	6673
2601.204	6694
2603.131	6666
2605.059	6649
2606.986	6718
2608.911	6688
2610.837	6572
2612.76	6625
2614.687	6661
2616.61	6658
2618.534	6626
2620.457	6718
2622.38	6640
2624.302	6583
2626.225	6646
2628.145	6745
2630.067	6600
2631.986	6757
2633.906	6722
2635.827	6638
2637.745	6570
2639.662	6655
2641.581	6681
2643.498	6674
2645.415	6597
2647.331	6643
2649.248	6691
2651.163	6638
2653.077	6611
2654.993	6588
2656.906	6685
2658.821	6633
2660.733	6762
2662.646	6512
2664.557	6565
2666.47	6659
2668.381	6620
2670.291	6689
2672.201	6523
2674.11	6678
2676.021	6641
2677.929	6569
2679.837	6562
2681.745	6517
2683.652	6582
2685.56	6536
2687.466	6654
2689.371	6481
2691.276	6583
2693.181	6618
2695.085	6510
2696.991	6458
2698.893	6572
2700.796	6654
2702.698	6472
2704.601	6500
2706.502	6603
2708.404	6659
2710.304	6567
2712.203	6491
2714.103	6507
2716.003	6522
2717.902	6632
2719.8	6566
2721.697	6457
2723.594	6554
2725.49	6470
2727.389	6542
2729.283	6475
2731.179	6433
2733.073	6486
2734.968	6458
2736.863	6441
2738.757	6347
2740.649	6500
2742.541	6310
2744.433	6475
2746.324	6462
2748.216	6485
2750.107	6439
2751.997	6454
2753.886	6397
2755.776	6541
2757.666	6487
2759.553	6387
2761.44	6320
2763.327	6507
2765.215	6415
2767.102	6487
2768.988	6369
2770.873	6294
2772.757	6274
2774.641	6432
2776.525	6450
2778.41	6356
2780.292	6366
2782.175	6359
2784.057	6498
2785.938	6377
2787.821	6546
2789.701	6362
2791.581	6335
2793.461	6315
2795.34	6339
2797.219	6308
2799.099	6246
2800.975	6342
2802.853	6354
2804.73	6299
2806.606	6354
2808.484	6347
2810.358	6360
2812.233	6338
2814.108	6408
2815.981	6369
2817.857	6293
2819.73	6321
2821.602	6260
2823.474	6265
2825.346	6327
2827.217	6297
2829.089	6302
2830.959	6326
2832.829	6277
2834.698	6261
2836.567	6303
2838.436	6143
2840.305	6334
2842.172	6269
2844.04	6295
2845.905	6312
2847.772	6291
2849.639	6253
2851.503	6328
2853.369	6412
2855.232	6338
2857.096	6161
2858.961	6314
2860.824	6386
2862.686	6305
2864.547	6406
2866.41	6490
2868.272	6253
2870.132	6445
2871.992	6539
2873.851	6397
2875.711	6446
2877.57	6464
2879.429	6416
2881.287	6570
2883.144	6541
2885.001	6604
2886.857	6582
2888.714	6463
2890.57	6618
2892.425	6486
2894.279	6595
2896.133	6526
2897.987	6572
2899.842	6595
2901.694	6466
2903.547	6632
2905.397	6510
2907.249	6494
2909.101	6469
2910.952	6545
2912.802	6559
2914.652	6428
2916.5	6568
2918.35	6549
2920.198	6526
2922.045	6471
2923.893	6633
2925.74	6766
2927.585	6671
2929.433	6697
2931.279	6829
2933.123	6773
2934.968	6815
2936.811	6777
2938.656	6841
2940.5	6780
2942.342	6919
2944.185	6898
2946.026	6830
2947.87	6931
2949.71	6849
2951.549	6796
2953.39	6975
2955.229	6757
2957.069	6767
2958.908	6766
2960.746	6746
2962.584	6645
2964.421	6575
2966.257	6681
2968.094	6524
2969.931	6586
2971.766	6507
2973.601	6493
2975.435	6490
2977.27	6415
2979.105	6526
2980.938	6491
2982.77	6445
2984.602	6374
2986.434	6424
2988.267	6403
2990.097	6351
2991.927	6390
2993.757	6321
2995.587	6253
2997.417	6256
2999.246	6261
3001.074	6216
3002.902	6124
3004.729	6308
3006.556	6132
3008.384	6001
3010.21	6033
3012.036	6050
3013.861	6012
3015.684	5945
3017.51	5931
3019.334	5975
3021.157	5986
3022.981	6008
3024.802	5866
3026.624	5854
3028.448	5968
3030.267	6019
3032.088	5903
3033.909	5966
3035.728	5904
3037.549	5837
3039.368	5898
3041.186	5856
3043.004	5765
3044.821	5856
3046.64	5745
3048.455	5841
3050.272	5907
3052.087	5864
3053.903	5864
3055.717	5878
3057.534	5839
3059.347	5819
3061.16	5800
3062.974	5773
3064.785	5841
3066.598	5676
3068.411	5785
3070.222	5768
3072.032	5728
3073.844	5720
3075.653	5810
3077.463	5794
3079.272	5675
3081.08	5745
3082.889	5741
3084.697	5688
3086.505	5790
3088.312	5653
3090.118	5739
3091.924	5707
3093.729	5803
3095.535	5584
3097.34	5632
3099.144	5751
3100.947	5619
3102.75	5655
3104.553	5692
3106.357	5660
3108.159	5592
3109.961	5659
3111.762	5479
3113.562	5642
3115.365	5560
3117.164	5599
3118.964	5599
3120.761	5591
3122.56	5627
3124.36	5602
3126.158	5412
3127.954	5602
3129.75	5625
3131.547	5566
3133.343	5482
3135.139	5488
3136.934	5496
3138.729	5551
3140.522	5534
3142.317	5552
3144.11	5477
3145.904	5558
3147.695	5426
3149.488	5449
3151.28	5400
3153.07	5472
3154.863	5327
3156.652	5462
3158.441	5429
3160.231	5488
3162.019	5423
3163.81	5441
3165.597	5446
3167.384	5468
3169.172	5457
3170.958	5446
3172.745	5359
3174.532	5387
3176.317	5360
3178.101	5487
3179.885	5470
3181.67	5403
3183.455	5337
3185.238	5355
3187.02	5438
3188.802	5424
3190.585	5531
3192.368	5420
3194.149	5357
3195.929	5332
3197.709	5244
3199.489	5371
3201.268	5308
3203.048	5398
3204.826	5301
3206.604	5243
3208.382	5294
3210.159	5306
3211.937	5214
3213.713	5398
3215.489	5419
3217.263	5349
3219.038	5271
3220.815	5322
3222.589	5340
3224.363	5333
3226.136	5444
3227.908	5272
3229.681	5223
3231.454	5218
3233.226	5305
3234.996	5278
3236.767	5414
3238.538	5302
3240.308	5311
3242.078	5340
3243.847	5310
3245.615	5239
3247.384	5309
3249.15	5391
3250.92	5284
3252.686	5259
3254.453	5289
3256.218	5326
3257.984	5229
3259.75	5277
3261.515	5162
3263.279	5253
3265.044	5230
3266.806	5262
3268.57	5203
3270.334	5311
3272.095	5254
3273.856	5282
3275.619	5383
3277.379	5254
3279.14	5199
3280.9	5107
3282.661	5200
3284.419	5298
3286.178	5152
3287.937	5287
3289.695	5185
3291.453	5240
3293.21	5198
3294.967	5181
3296.723	5088
3298.48	5135
3300.235	5272
3301.99	5237
3303.744	5306
3305.498	5231
3307.253	5162
3309.006	5134
3310.759	5174
3312.511	5252
3314.263	5160
3316.017	5108
3317.768	5284
3319.519	5238
3321.268	5133
3323.018	5240
3324.767	5195
3326.518	5156
3328.267	5089
3330.014	5192
3331.762	5204
3333.509	5139
3335.258	5156
3337.003	5171
3338.75	5269
3340.496	5112
3342.24	5103
3343.987	5212
3345.732	5134
3347.475	5080
3349.219	5275
3350.961	5117
3352.705	5209
3354.448	5119
3356.19	5109
3357.931	5152
3359.672	5014
3361.412	5198
3363.155	5083
3364.894	5207
3366.633	4996
3368.372	5072
3370.11	5160
3371.849	5026
3373.588	4975
3375.325	5085
3377.061	5044
3378.799	5134
3380.534	5012
3382.271	5144
3384.006	5019
3385.741	5011
3387.475	5046
3389.209	5055
3390.944	5001
3392.677	5008
3394.409	4969
3396.143	4972
3397.874	5099
3399.606	4950
3401.338	4963
3403.069	5042
3404.799	5042
3406.528	5072
3408.258	5027
3409.988	5077
3411.717	4950
3413.445	4972
3415.173	5010
3416.899	4920
3418.626	5029
3420.354	4884
3422.08	4971
3423.806	4852
3425.531	4916
3427.255	5035
3428.981	4977
3430.705	4850
3432.429	5018
3434.151	4903
3435.875	4928
3437.599	4839
3439.321	4854
3441.042	4874
3442.763	5013
3444.483	4896
3446.204	4912
3447.926	4848
3449.645	4904
3451.364	4837
3453.082	4852
3454.801	4918
3456.52	4840
3458.238	4808
3459.954	4882
3461.671	4806
3463.387	4826
3465.104	4745
3466.82	4749
3468.534	4774
3470.25	4863
3471.963	4700
3473.676	4760
3475.392	4857
3477.104	4711
3478.817	4756
3480.528	4798
3482.241	4742
3483.954	4746
3485.664	4738
3487.374	4707
3489.084	4761
3490.795	4698
3492.504	4746
3494.214	4701
3495.922	4741
3497.63	4709
3499.338	4674
3501.045	4704
3502.753	4668
3504.459	4750
3506.166	4701
3507.871	4634
3509.576	4686
3511.283	4685
3512.987	4732
3514.691	4676
3516.395	4663
3518.098	4690
3519.8	4715
3521.504	4596
3523.206	4595
3524.908	4588
3526.609	4672
3528.309	4643
3530.011	4662
3531.711	4537
3533.411	4551
3535.109	4543
3536.808	4613
3538.507	4486
3540.206	4592
3541.904	4501
3543.601	4540
3545.297	4610
3546.994	4642
3548.69	4627
3550.387	4525
3552.081	4628
3553.776	4612
3555.47	4598
3557.166	4604
3558.859	4514
3560.553	4592
3562.245	4447
3563.938	4556
3565.629	4431
3567.322	4519
3569.014	4516
3570.704	4522
3572.394	4472
3574.084	4586
3575.775	4480
3577.464	4520
3579.152	4479
3580.842	4525
3582.529	4470
3584.216	4486
3585.905	4436
3587.591	4419
3589.279	4435
3590.964	4422
3592.649	4450
3594.336	4376
3596.021	4418
3597.705	4449
3599.388	4391
3601.072	4498
3602.757	4409
3604.439	4390
3606.122	4369
3607.803	4498
3609.485	4360
3611.167	4418
3612.849	4438
3614.529	4329
3616.208	4393
3617.888	4308
3619.567	4363
3621.247	4399
3622.926	4408
3624.603	4255
3626.281	4264
3627.958	4296
3629.635	4326
3631.312	4264
3632.989	4287
3634.665	4281
3636.339	4240
3638.014	4316
3639.691	4346
3641.364	4218
3643.038	4274
3644.71	4245
3646.384	4191
3648.058	4326
3649.729	4311
3651.402	4207
3653.073	4278
3654.744	4278
3656.414	4261
3658.085	4197
3659.755	4262
3661.424	4286
3663.094	4253
3664.762	4129
3666.431	4279
3668.099	4208
3669.766	4266
3671.433	4194
3673.099	4114
3674.768	4194
3676.433	4162
3678.098	4154
3679.763	4105
3681.428	4223
3683.093	4183
3684.757	4175
3686.421	4210
3688.083	4194
3689.746	4208
3691.408	4123
3693.071	4180
3694.733	4185
3696.394	4188
3698.054	4135
3699.715	4140
3701.375	4158
3703.036	4085
3704.695	4160
3706.354	4147
3708.012	4186
3709.67	4252
3711.329	4053
3712.987	4170
3714.644	4210
3716.299	4154
3717.955	4020
3719.613	4065
3721.268	4168
3722.923	4111
3724.577	4017
3726.231	4128
3727.885	4024
3729.539	4128
3731.192	4123
3732.845	4042
3734.497	4055
3736.149	4028
3737.802	4023
3739.453	4050
3741.104	4038
3742.753	4030
3744.404	4140
3746.052	4068
3747.704	3976
3749.352	3992
3751	4079
3752.648	3952
3754.296	4024
3755.944	4062
3757.59	4092
3759.238	4062
3760.883	4042
3762.528	3996
3764.176	4067
3765.82	4079
3767.464	3907
3769.109	3904
3770.753	3902
3772.396	4063
3774.04	3989
3775.683	3988
3777.325	3986
3778.967	3910
3780.608	3934
3782.25	4044
3783.89	4047
3785.531	3948
3787.17	3978
3788.81	3905
3790.45	4001
3792.09	3817
3793.729	3964
3795.366	3878
3797.003	3905
3798.64	3931
3800.278	3893
3801.915	3867
3803.551	3861
3805.187	3909
3806.822	4002
3808.458	3838
3810.093	3897
3811.726	3867
3813.36	3948
3814.994	3894
3816.627	3902
3818.262	3845
3819.893	3830
3821.525	3839
3823.157	3879
3824.787	3890
3826.42	3945
3828.051	3821
3829.68	3887
3831.31	3943
3832.938	3888
3834.569	3819
3836.198	3839
3837.825	3794
3839.454	3898
3841.08	3895
3842.708	3801
3844.335	3850
3845.962	3766
3847.587	3789
3849.212	3801
3850.838	3796
3852.463	3686
3854.089	3775
3855.712	3794
3857.335	3702
3858.959	3732
3860.582	3760
3862.205	3763
3863.827	3766
3865.449	3718
3867.07	3731
3868.691	3784
3870.312	3843
3871.933	3778
3873.553	3664
3875.173	3698
3876.792	3784
3878.411	3764
3880.03	3706
3881.647	3696
3883.265	3662
3884.882	3676
3886.499	3733
3888.116	3700
3889.732	3586
3891.348	3706
3892.964	3695
3894.579	3764
3896.195	3679
3897.809	3698
3899.423	3683
3901.036	3731
3902.648	3654
3904.261	3743
3905.875	3746
3907.487	3750
3909.099	3708
3910.709	3688
3912.321	3661
3913.933	3739
3915.542	3735
3917.152	3676
3918.762	3734
3920.37	3683
3921.98	3748
3923.589	3552
3925.196	3624
3926.804	3674
3928.41	3672
3930.018	3640
3931.626	3568
3933.231	3615
3934.838	3653
3936.442	3713
3938.046	3630
3939.653	3653
3941.257	3636
3942.861	3631
3944.464	3668
3946.068	3663
3947.67	3584
3949.273	3589
3950.876	3602
3952.477	3552
3954.078	3659
3955.678	3583
3957.281	3548
3958.881	3521
3960.48	3537
3962.079	3610
3963.678	3580
3965.279	3570
3966.877	3535
3968.475	3546
3970.072	3624
3971.669	3521
3973.266	3605
3974.864	3533
3976.459	3467
3978.055	3596
3979.65	3549
3981.245	3576
3982.841	3595
3984.436	3484
3986.03	3569
3987.623	3526
3989.216	3555
3990.809	3421
3992.403	3499
3993.995	3484
3995.586	3432
3997.177	3410
3998.768	3529
4000.361	3490
4001.951	3515
4003.54	3480
4005.13	3432
4006.719	3471
4008.31	3400
4009.897	3365
4011.485	3448
4013.073	3423
4014.66	3412
4016.247	3335
4017.834	3422
4019.421	3485
4021.006	3426
4022.592	3430
4024.178	3494
4025.763	3378
4027.348	3442
4028.932	3350
4030.515	3481
4032.099	3417
4033.682	3336
4035.266	3322
4036.847	3394
4038.429	3340
4040.011	3367
4041.592	3305
4043.173	3357
4044.755	3329
4046.334	3251
4047.913	3416
4049.494	3363
4051.074	3305
4052.652	3312
4054.23	3334
4055.807	3295
4057.385	3301
4058.963	3279
4060.541	3335
4062.117	3308
4063.693	3340
4065.269	3350
4066.844	3338
4068.42	3335
4069.995	3288
4071.569	3271
4073.143	3312
4074.716	3201
4076.291	3276
4077.864	3251
4079.436	3278
4081.009	3237
4082.58	3187
4084.152	3226
4085.723	3309
4087.294	3183
4088.865	3272
4090.435	3232
4092.005	3248
4093.574	3263
4095.143	3351
4096.712	3231
4098.279	3281
4099.848	3238
4101.416	3210
4102.984	3259
4104.55	3206
4106.117	3254
4107.682	3213
4109.248	3211
4110.815	3251
4112.379	3292
4113.945	3201
4115.508	3234
4117.073	3235
4118.637	3175
4120.201	3129
4121.763	3254
4123.325	3199
4124.888	3139
4126.449	3177
4128.013	3164
4129.573	3176
4131.133	3117
4132.694	3140
4134.254	3233
4135.814	3096
4137.374	3113
4138.933	3152
4140.491	3113
4142.049	3177
4143.607	3189
4145.167	3146
4146.724	3115
4148.28	3096
4149.836	3109
4151.392	3084
4152.949	3136
4154.504	3124
4156.059	3096
4157.614	3124
4159.168	3069
4160.723	3125
4162.277	3095
4163.83	3123
4165.383	3001
4166.936	3050
4168.488	3130
4170.041	3053
4171.593	3073
4173.144	2964
4174.695	3006
4176.246	3066
4177.796	3043
4179.346	3054
4180.896	3004
4182.445	2994
4183.994	3063
4185.542	3019
4187.091	3022
4188.639	3010
4190.185	3086
4191.732	3024
4193.279	2911
4194.826	3022
4196.373	2965
4197.918	3025
4199.463	3004
4201.008	2981
4202.553	2975
4204.098	2993
4205.641	2981
4207.185	2947
4208.728	2920
4210.271	3021
4211.814	2998
4213.357	3015
4214.898	2948
4216.439	2942
4217.98	2935
4219.522	2930
4221.062	2930
4222.603	3013
4224.142	2881
4225.681	2892
4227.222	2977
4228.76	2934
4230.298	2915
4231.835	2897
4233.373	2941
4234.911	2896
4236.449	2977
4237.985	2927
4239.521	2871
4241.057	2983
4242.592	2931
4244.128	2890
4245.663	2890
4247.197	2925
4248.731	2859
4250.265	2852
4251.798	2961
4253.333	2919
4254.865	2931
4256.397	2979
4257.93	2952
4259.461	2896
4260.994	2873
4262.525	2893
4264.056	2827
4265.586	2876
4267.115	2816
4268.646	2871
4270.176	2849
4271.705	2862
4273.232	2868
4274.761	2868
4276.289	2851
4277.818	2855
4279.345	2872
4280.872	2843
4282.399	2910
4283.924	2840
4285.452	2889
4286.976	2838
4288.502	2885
4290.026	2829
4291.551	2846
4293.074	2856
4294.6	2813
4296.123	2876
4297.646	2795
4299.168	2762
4300.691	2806
4302.214	2795
4303.736	2813
4305.257	2801
4306.778	2844
4308.299	2844
4309.82	2771
4311.34	2839
4312.86	2820
4314.379	2751
