400.0745	3898
402.597	3950
405.1208	3911
407.6419	3894
410.1623	3899
412.6819	3982
415.201	3993
417.7172	3988
420.2369	4054
422.7538	4060
425.2701	4098
427.7856	4059
430.3005	4136
432.8147	4135
435.3282	4116
437.841	4152
440.3511	4127
442.8625	4118
445.3753	4236
447.8854	4125
450.3927	4167
452.9014	4222
455.4073	4104
457.9146	4112
460.4233	4163
462.9272	4185
465.4325	4076
467.935	4116
470.4389	4174
472.9421	4098
475.4446	4179
477.9444	4176
480.4456	4213
482.944	4217
485.4417	4250
487.9429	4248
490.4393	4227
492.935	4254
495.4321	4266
497.9264	4250
500.4221	4285
502.9171	4321
505.4094	4288
507.9011	4312
510.392	4304
512.8864	4210
515.3759	4287
517.8649	4315
520.3531	4323
522.8406	4246
525.3275	4330
527.8178	4295
530.3033	4259
532.7881	4295
535.2723	4357
537.7558	4330
540.2407	4376
542.7228	4391
545.2043	4407
547.6851	4286
550.1652	4409
552.6467	4357
555.1255	4359
557.6016	4300
560.079	4306
562.5557	4404
565.0318	4396
567.5092	4443
569.984	4450
572.456	4464
574.9294	4436
577.4022	4300
579.8762	4504
582.3456	4483
584.8163	4450
587.2863	4544
589.7557	4530
592.2224	4501
594.6924	4430
597.1578	4581
599.6245	4509
602.0905	4424
604.5538	4464
607.0206	4533
609.4825	4481
611.9459	4531
614.4066	4451
616.8686	4561
619.33	4491
621.7906	4530
624.2487	4375
626.708	4474
629.1647	4427
631.6207	4373
634.0801	4425
636.5348	4475
638.9888	4572
641.4442	4449
643.8969	4560
646.3509	4426
648.8022	4566
651.255	4513
653.705	4621
656.1544	4442
658.6031	4499
661.0532	4547
663.5026	4638
665.9493	4539
668.3954	4580
670.8409	4605
673.2877	4598
675.7318	4557
678.1752	4542
680.618	4649
683.0601	4600
685.5035	4619
687.9444	4702
690.3845	4683
692.824	4623
695.2628	4738
697.701	4644
700.1406	4694
702.5774	4692
705.0116	4682
707.4472	4742
709.8821	4732
712.3183	4724
714.7519	4777
717.1829	4708
719.6151	4647
722.0468	4846
724.4777	4854
726.908	4718
729.3377	4823
731.7667	4811
734.1931	4771
736.6208	4927
739.0498	4804
741.4742	4801
743.9	4872
746.3231	4886
748.7476	4956
751.1713	4849
753.5945	4950
756.015	4916
758.4368	4883
760.856	4992
763.2766	4972
765.6965	5091
768.1157	4900
770.5323	4967
772.9483	4951
775.3656	4914
777.7822	5064
780.1963	4902
782.6116	4933
785.0244	4928
787.4365	4964
789.8499	4942
792.2626	4969
794.6728	4948
797.0823	5004
799.4911	4983
801.8994	4988
804.3109	4957
806.7178	4977
809.124	4999
811.5297	4982
813.9347	5000
816.341	5040
818.7447	5010
821.1478	5121
823.5502	5042
825.952	4977
828.3531	5113
830.7556	5050
833.1554	5200
835.5546	5114
837.9532	5210
840.3511	5076
842.7504	5156
845.1451	5164
847.5411	5075
849.9365	5189
852.3312	5214
854.7272	5200
857.1187	5208
859.5115	5313
861.9037	5125
864.2952	5228
866.6842	5189
869.0764	5168
871.4661	5213
873.8531	5085
876.2415	5244
878.6272	5112
881.0162	5197
883.4026	5134
885.7866	5183
888.1717	5173
890.5543	5121
892.9382	5099
895.3215	5114
897.7041	5184
900.0842	5135
902.4655	5137
904.8443	5166
907.2244	5141
909.6039	5242
911.9808	5223
914.357	5313
916.7346	5324
919.1115	5383
921.4859	5480
923.8616	5598
926.2347	5513
928.6071	5436
930.979	5485
933.3541	5399
935.7247	5490
938.0946	5491
940.4639	5398
942.8326	5429
945.2026	5435
947.5701	5567
949.9369	5570
952.305	5640
954.6705	5793
957.0355	5926
959.4017	6056
961.7654	6125
964.1284	6186
966.4908	6047
968.8527	5923
971.2138	5788
973.5743	5615
975.9343	5623
978.2936	5492
980.6522	5489
983.0122	5403
985.3696	5421
987.7245	5344
990.0807	5313
992.4362	5280
994.7911	5336
997.1474	5339
999.4991	5380
1001.852	5326
1004.205	5301
1006.555	5292
1008.908	5360
1011.258	5375
1013.606	5359
1015.956	5307
1018.302	5420
1020.652	5323
1022.998	5311
1025.345	5481
1027.691	5398
1030.035	5391
1032.378	5339
1034.724	5403
1037.066	5437
1039.409	5450
1041.75	5367
1044.092	5410
1046.433	5393
1048.771	5377
1051.112	5297
1053.449	5355
1055.786	5489
1058.124	5389
1060.462	5468
1062.797	5600
1065.131	5478
1067.467	5562
1069.8	5505
1072.135	5392
1074.467	5508
1076.798	5578
1079.129	5472
1081.459	5419
1083.792	5479
1086.121	5493
1088.449	5455
1090.777	5454
1093.104	5484
1095.431	5543
1097.759	5420
1100.084	5484
1102.408	5407
1104.732	5411
1107.056	5411
1109.379	5504
1111.701	5477
1114.022	5415
1116.343	5530
1118.664	5492
1120.983	5536
1123.303	5521
1125.621	5575
1127.939	5482
1130.256	5470
1132.573	5523
1134.889	5538
1137.205	5446
1139.52	5584
1141.832	5419
1144.146	5496
1146.461	5425
1148.771	5415
1151.083	5535
1153.392	5502
1155.703	5438
1158.011	5456
1160.323	5638
1162.629	5498
1164.938	5464
1167.243	5494
1169.55	5521
1171.857	5542
1174.163	5492
1176.466	5468
1178.769	5433
1181.073	5508
1183.374	5538
1185.677	5497
1187.979	5469
1190.279	5450
1192.578	5440
1194.878	5406
1197.178	5410
1199.476	5561
1201.772	5335
1204.068	5448
1206.366	5455
1208.663	5498
1210.957	5530
1213.251	5404
1215.544	5452
1217.836	5423
1220.128	5531
1222.421	5476
1224.712	5445
1227.002	5531
1229.292	5519
1231.581	5636
1233.871	5592
1236.159	5724
1238.446	5671
1240.732	5659
1243.018	5781
1245.304	5595
1247.59	5667
1249.874	5816
1252.156	5809
1254.439	5686
1256.721	5727
1259.005	5807
1261.286	5680
1263.565	5793
1265.845	5778
1268.125	5727
1270.403	5703
1272.682	5721
1274.959	5799
1277.234	5718
1279.511	5775
1281.787	5701
1284.062	5697
1286.337	5698
1288.609	5674
1290.882	5568
1293.153	5709
1295.428	5622
1297.698	5584
1299.969	5520
1302.237	5531
1304.507	5678
1306.777	5603
1309.044	5689
1311.312	5591
1313.578	5650
1315.844	5668
1318.109	5654
1320.375	5604
1322.638	5482
1324.903	5515
1327.165	5593
1329.427	5537
1331.69	5694
1333.952	5688
1336.212	5673
1338.471	5648
1340.73	5655
1342.988	5696
1345.248	5696
1347.505	5641
1349.763	5676
1352.019	5621
1354.274	5584
1356.53	5594
1358.784	5641
1361.038	5611
1363.291	5517
1365.543	5622
1367.797	5665
1370.048	5597
1372.296	5649
1374.546	5713
1376.796	5643
1379.045	5626
1381.295	5509
1383.542	5634
1385.787	5661
1388.034	5710
1390.28	5769
1392.527	5710
1394.772	5803
1397.014	5819
1399.258	5782
1401.501	5899
1403.741	5795
1405.985	5922
1408.226	5869
1410.465	5844
1412.705	5944
1414.943	5824
1417.184	5721
1419.42	5727
1421.658	5839
1423.894	5849
1426.13	5867
1428.366	5952
1430.602	5920
1432.835	5953
1435.069	5908
1437.301	5929
1439.535	5974
1441.767	6020
1443.997	6007
1446.229	5889
1448.458	6007
1450.687	6021
1452.916	6030
1455.146	6055
1457.372	5959
1459.599	5984
1461.824	6070
1464.051	5972
1466.277	5897
1468.501	5993
1470.725	5865
1472.948	5763
1475.17	5752
1477.393	5800
1479.614	5809
1481.837	5631
1484.057	5761
1486.276	5733
1488.497	5652
1490.715	5637
1492.932	5611
1495.148	5574
1497.364	5672
1499.58	5664
1501.798	5576
1504.012	5683
1506.227	5647
1508.44	5594
1510.653	5554
1512.866	5585
1515.078	5573
1517.289	5684
1519.5	5597
1521.711	5687
1523.92	5486
1526.13	5548
1528.338	5523
1530.544	5587
1532.752	5562
1534.959	5644
1537.165	5666
1539.371	5589
1541.574	5607
1543.779	5602
1545.983	5570
1548.187	5647
1550.39	5656
1552.59	5641
1554.792	5694
1556.991	5666
1559.19	5683
1561.392	5663
1563.59	5741
1565.789	5791
1567.986	5735
1570.182	5769
1572.381	5852
1574.576	5756
1576.771	5761
1578.966	5770
1581.16	5766
1583.354	5755
1585.546	5781
1587.74	5819
1589.931	5685
1592.121	5804
1594.311	5817
1596.502	5759
1598.693	5833
1600.881	5792
1603.069	5790
1605.256	5921
1607.445	5748
1609.631	5852
1611.816	5849
1614.001	5942
1616.186	5865
1618.37	5880
1620.555	5855
1622.737	5915
1624.919	5843
1627.101	5767
1629.282	5801
1631.463	5899
1633.643	5814
1635.822	5932
1638.001	5934
1640.179	5925
1642.359	5929
1644.534	5955
1646.711	6004
1648.887	6098
1651.062	5880
1653.235	6015
1655.412	5939
1657.586	5952
1659.757	5973
1661.93	6025
1664.1	6050
1666.274	5980
1668.445	6103
1670.614	6032
1672.784	6045
1674.951	6029
1677.12	6017
1679.289	5927
1681.457	5985
1683.622	6021
1685.789	6083
1687.953	5857
1690.121	5928
1692.284	6091
1694.447	5995
1696.611	6019
1698.772	5896
1700.935	5852
1703.098	5915
1705.258	5823
1707.417	5840
1709.576	5929
1711.736	5810
1713.896	5852
1716.053	5792
1718.21	5837
1720.366	5891
1722.522	5947
1724.68	5820
1726.835	5860
1728.989	5862
1731.142	5781
1733.295	5784
1735.449	5673
1737.601	5722
1739.753	5866
1741.903	5849
1744.054	5769
1746.203	5722
1748.354	5883
1750.503	5826
1752.651	5854
1754.798	5870
1756.944	5921
1759.092	5861
1761.238	5812
1763.383	5907
1765.528	5814
1767.672	5729
1769.814	5778
1771.959	5907
1774.102	5793
1776.242	5861
1778.384	5909
1780.525	5911
1782.665	5874
1784.805	5814
1786.945	5817
1789.082	5838
1791.22	5940
1793.36	5745
1795.495	5789
1797.632	5933
1799.766	5792
1801.902	5767
1804.035	5888
1806.172	5864
1808.304	5825
1810.436	5844
1812.569	5905
1814.699	5764
1816.833	5879
1818.963	5937
1821.092	5786
1823.222	5703
1825.35	5779
1827.478	5853
1829.608	5929
1831.734	5700
1833.86	5867
1835.986	5835
1838.11	5778
1840.238	5896
1842.362	5800
1844.485	5743
1846.608	5837
1848.73	5892
1850.853	5880
1852.974	5797
1855.097	5674
1857.217	5798
1859.336	5856
1861.455	5656
1863.576	5861
1865.693	5816
1867.811	5743
1869.926	5837
1872.042	5619
1874.16	5818
1876.275	5628
1878.39	5765
1880.504	5872
1882.618	5786
1884.731	5799
1886.843	5784
1888.956	5824
1891.067	5646
1893.178	5855
1895.287	5790
1897.399	5788
1899.508	5866
1901.617	5770
1903.724	5788
1905.832	5801
1907.941	5729
1910.046	5883
1912.152	5814
1914.256	5843
1916.361	5751
1918.464	5815
1920.57	5820
1922.672	5701
1924.775	5835
1926.876	5748
1928.978	5862
1931.08	5864
1933.181	5764
1935.28	5787
1937.38	5802
1939.478	5771
1941.577	5805
1943.675	5858
1945.771	5860
1947.867	5817
1949.964	5789
1952.058	5817
1954.154	5720
1956.248	5769
1958.343	5871
1960.435	5929
1962.527	5615
1964.62	5840
1966.711	5885
1968.802	5836
1970.892	5845
1972.983	5825
1975.072	5879
1977.162	5810
1979.25	5800
1981.337	5783
1983.424	5835
1985.51	5762
1987.598	5854
1989.683	5803
1991.768	5858
1993.852	5740
1995.934	5806
1998.019	5811
2000.102	5836
2002.184	5852
2004.266	5758
2006.347	5780
2008.427	5778
2010.508	5815
2012.587	5855
2014.666	5851
2016.745	5849
2018.821	5802
2020.9	5648
2022.977	5806
2025.052	5858
2027.128	5782
2029.204	5740
2031.277	5794
2033.353	5658
2035.425	5712
2037.499	5833
2039.57	5690
2041.642	5807
2043.714	5801
2045.786	5751
2047.855	5720
2049.925	5702
2051.993	5745
2054.064	5702
2056.132	5664
2058.2	5726
2060.266	5753
2062.332	5755
2064.398	5735
2066.465	5648
2068.529	5801
2070.592	5692
2072.657	5714
2074.719	5750
2076.783	5723
2078.845	5835
2080.907	5808
2082.968	5824
2085.028	5714
2087.087	5722
2089.148	5713
2091.207	5775
2093.264	5631
2095.322	5772
2097.379	5718
2099.439	5742
2101.495	5757
2103.55	5695
2105.605	5781
2107.658	5784
2109.713	5797
2111.767	5783
2113.82	5713
2115.872	5764
2117.924	5659
2119.975	5807
2122.028	5834
2124.078	5804
2126.126	5739
2128.176	5781
2130.225	5721
2132.275	5768
2134.321	5699
2136.368	5743
2138.415	5818
2140.461	5782
2142.505	5780
2144.552	5755
2146.597	5760
2148.64	5689
2150.684	5738
2152.725	5674
2154.77	5771
2156.811	5729
2158.852	5720
2160.894	5718
2162.933	5662
2164.973	5734
2167.013	5703
2169.051	5674
2171.089	5742
2173.126	5786
2175.164	5855
2177.201	5578
2179.236	5621
2181.273	5608
2183.307	5584
2185.341	5639
2187.377	5659
2189.41	5626
2191.442	5569
2193.473	5567
2195.506	5683
2197.539	5546
2199.569	5545
2201.598	5527
2203.628	5552
2205.656	5638
2207.686	5589
2209.716	5598
2211.743	5537
2213.769	5646
2215.796	5655
2217.821	5620
2219.848	5627
2221.873	5628
2223.897	5597
2225.921	5629
2227.944	5597
2229.967	5542
2231.991	5535
2234.011	5619
2236.032	5557
2238.053	5592
2240.073	5494
2242.094	5535
2244.114	5556
2246.131	5538
2248.149	5574
2250.167	5542
2252.186	5558
2254.201	5570
2256.218	5557
2258.233	5531
2260.247	5557
2262.262	5529
2264.278	5526
2266.29	5482
2268.303	5586
2270.315	5537
2272.327	5615
2274.341	5703
2276.35	5578
2278.361	5544
2280.37	5582
2282.38	5595
2284.388	5639
2286.397	5488
2288.405	5526
2290.412	5443
2292.419	5646
2294.425	5514
2296.431	5561
2298.437	5608
2300.441	5594
2302.445	5603
2304.449	5580
2306.453	5587
2308.455	5529
2310.457	5373
2312.459	5567
2314.46	5575
2316.46	5523
2318.461	5548
2320.46	5581
2322.458	5516
2324.458	5595
2326.456	5608
2328.455	5470
2330.451	5492
2332.447	5467
2334.443	5629
2336.438	5491
2338.433	5472
2340.429	5393
2342.422	5471
2344.416	5431
2346.408	5567
2348.399	5419
2350.393	5508
2352.384	5481
2354.375	5506
2356.365	5494
2358.355	5446
2360.344	5450
2362.333	5473
2364.322	5436
2366.309	5458
2368.295	5463
2370.282	5411
2372.27	5519
2374.256	5371
2376.24	5486
2378.225	5462
2380.208	5428
2382.194	5411
2384.177	5336
2386.159	5377
2388.142	5403
2390.122	5418
2392.105	5495
2394.085	5401
2396.066	5353
2398.044	5348
2400.024	5344
2402.002	5418
2403.982	5399
2405.959	5384
2407.935	5402
2409.913	5319
2411.888	5338
2413.865	5423
2415.84	5344
2417.814	5322
2419.788	5393
2421.762	5295
2423.735	5353
2425.708	5317
2427.68	5376
2429.651	5450
2431.623	5491
2433.593	5372
2435.564	5414
2437.533	5370
2439.502	5311
2441.47	5339
2443.438	5348
2445.406	5383
2447.373	5329
2449.34	5294
2451.305	5383
2453.271	5328
2455.235	5324
2457.201	5388
2459.165	5367
2461.129	5348
2463.092	5438
2465.054	5357
2467.018	5295
2468.978	5301
2470.939	5303
2472.899	5240
2474.86	5303
2476.819	5266
2478.778	5233
2480.737	5268
2482.695	5311
2484.653	5265
2486.609	5381
2488.567	5234
2490.524	5296
2492.478	5266
2494.433	5189
2496.387	5274
2498.343	5278
2500.297	5337
2502.249	5216
2504.202	5301
2506.153	5236
2508.105	5403
2510.057	5192
2512.008	5174
2513.957	5327
2515.906	5162
2517.855	5248
2519.805	5208
2521.754	5289
2523.7	5242
2525.647	5170
2527.594	5252
2529.54	5202
2531.486	5322
2533.431	5274
2535.376	5166
2537.32	5252
2539.263	5314
2541.207	5213
2543.151	5273
2545.093	5205
2547.034	5233
2548.975	5207
2550.917	5185
2552.856	5237
2554.796	5257
2556.735	5274
2558.673	5263
2560.611	5186
2562.55	5293
2564.487	5131
2566.424	5225
2568.36	5334
2570.296	5268
2572.232	5225
2574.167	5236
2576.101	5157
2578.035	5236
2579.969	5282
2581.902	5215
2583.834	5209
2585.766	5264
2587.698	5253
2589.628	5216
2591.557	5183
2593.489	5325
2595.419	5090
2597.348	5176
2599.275	5268
2601.204	5144
2603.131	5181
2605.059	5150
2606.986	5225
2608.911	5162
2610.837	5251
2612.76	5082
2614.687	5295
2616.61	5127
2618.534	5254
2620.457	5343
2622.38	5205
2624.302	5275
2626.225	5187
2628.145	5177
2630.067	5310
2631.986	5156
2633.906	5244
2635.827	5246
2637.745	5307
2639.662	5142
2641.581	5233
2643.498	5158
2645.415	5206
2647.331	5156
2649.248	5152
2651.163	5197
2653.077	5180
2654.993	5236
2656.906	5233
2658.821	5282
2660.733	5224
2662.646	5118
2664.557	5257
2666.47	5112
2668.381	5091
2670.291	5178
2672.201	5168
2674.11	5211
2676.021	5204
2677.929	5157
2679.837	5118
2681.745	5199
2683.652	5221
2685.56	5116
2687.466	5169
2689.371	5157
2691.276	5190
2693.181	5052
2695.085	5128
2696.991	5078
2698.893	5156
2700.796	5129
2702.698	5137
2704.601	5045
2706.502	5085
2708.404	5140
2710.304	5137
2712.203	5178
2714.103	5091
2716.003	5159
2717.902	5141
2719.8	5193
2721.697	5220
2723.594	5069
2725.49	5152
2727.389	5069
2729.283	5035
2731.179	5121
2733.073	5068
2734.968	5156
2736.863	5156
2738.757	5134
2740.649	5123
2742.541	5141
2744.433	5157
2746.324	5079
2748.216	4990
2750.107	5081
2751.997	5091
2753.886	5064
2755.776	5052
2757.666	5148
2759.553	5188
2761.44	5019
2763.327	5098
2765.215	5049
2767.102	5073
2768.988	5057
2770.873	5126
2772.757	5022
2774.641	5107
2776.525	5064
2778.41	5025
2780.292	5100
2782.175	5023
2784.057	5046
2785.938	5085
2787.821	5051
2789.701	5057
2791.581	5038
2793.461	5082
2795.34	4921
2797.219	4952
2799.099	5082
2800.975	5017
2802.853	5164
2804.73	4943
2806.606	4989
2808.484	5144
2810.358	5000
2812.233	4930
2814.108	5021
2815.981	5046
2817.857	5054
2819.73	4968
2821.602	5004
2823.474	5058
2825.346	4967
2827.217	4995
2829.089	5037
2830.959	5046
2832.829	5019
2834.698	5046
2836.567	4955
2838.436	5115
2840.305	5052
2842.172	4979
2844.04	5116
2845.905	5057
2847.772	5055
2849.639	5179
2851.503	5202
2853.369	5069
2855.232	5277
2857.096	5247
2858.961	5233
2860.824	5245
2862.686	5238
2864.547	5332
2866.41	5381
2868.272	5367
2870.132	5410
2871.992	5515
2873.851	5431
2875.711	5491
2877.57	5589
2879.429	5512
2881.287	5650
2883.144	5603
2885.001	5668
2886.857	5742
2888.714	5721
2890.57	5721
2892.425	5907
2894.279	5795
2896.133	5764
2897.987	5791
2899.842	5677
2901.694	5805
2903.547	5719
2905.397	5825
2907.249	5685
2909.101	5740
2910.952	5689
2912.802	5737
2914.652	5730
2916.5	5829
2918.35	5866
2920.198	5866
2922.045	5988
2923.893	5952
2925.74	6007
2927.585	6105
2929.433	6139
2931.279	6227
2933.123	6169
2934.968	6170
2936.811	6312
2938.656	6369
2940.5	6311
2942.342	6508
2944.185	6527
2946.026	6668
2947.87	6586
2949.71	6697
2951.549	6726
2953.39	6608
2955.229	6526
2957.069	6581
2958.908	6516
2960.746	6408
2962.584	6285
2964.421	6320
2966.257	6249
2968.094	6363
2969.931	6038
2971.766	6003
2973.601	5875
2975.435	5992
2977.27	6004
2979.105	5852
2980.938	5834
2982.77	5701
2984.602	5742
2986.434	5662
2988.267	5676
2990.097	5487
2991.927	5526
2993.757	5428
2995.587	5335
2997.417	5466
2999.246	5357
3001.074	5354
3002.902	5261
3004.729	5248
3006.556	5148
3008.384	5167
3010.21	5122
3012.036	5119
3013.861	4966
3015.684	5002
3017.51	4995
3019.334	5021
3021.157	4950
3022.981	4843
3024.802	4836
3026.624	4880
3028.448	4826
3030.267	4770
3032.088	4844
3033.909	4866
3035.728	4861
3037.549	4763
3039.368	4733
3041.186	4744
3043.004	4797
3044.821	4797
3046.64	4735
3048.455	4815
3050.272	4769
3052.087	4712
3053.903	4717
3055.717	4727
3057.534	4686
3059.347	4687
3061.16	4719
3062.974	4777
3064.785	4716
3066.598	4638
3068.411	4711
3070.222	4688
3072.032	4665
3073.844	4697
3075.653	4663
3077.463	4654
3079.272	4574
3081.08	4673
3082.889	4700
3084.697	4545
3086.505	4578
3088.312	4652
3090.118	4651
3091.924	4626
3093.729	4574
3095.535	4624
3097.34	4616
3099.144	4577
3100.947	4597
3102.75	4639
3104.553	4494
3106.357	4524
3108.159	4592
3109.961	4500
3111.762	4592
3113.562	4519
3115.365	4519
3117.164	4498
3118.964	4503
3120.761	4530
3122.56	4380
3124.36	4525
3126.158	4446
3127.954	4524
3129.75	4413
3131.547	4518
3133.343	4425
3135.139	4426
3136.934	4449
3138.729	4453
3140.522	4403
3142.317	4476
3144.11	4406
3145.904	4420
3147.695	4375
3149.488	4427
3151.28	4503
3153.07	4548
3154.863	4423
3156.652	4455
3158.441	4370
3160.231	4473
3162.019	4417
3163.81	4359
3165.597	4447
3167.384	4394
3169.172	4392
3170.958	4398
3172.745	4437
3174.532	4346
3176.317	4406
3178.101	4486
3179.885	4348
3181.67	4329
3183.455	4350
3185.238	4420
3187.02	4431
3188.802	4367
3190.585	4432
3192.368	4372
3194.149	4374
3195.929	4376
3197.709	4417
3199.489	4328
3201.268	4345
3203.048	4297
3204.826	4356
3206.604	4357
3208.382	4352
3210.159	4289
3211.937	4337
3213.713	4419
3215.489	4432
3217.263	4279
3219.038	4336
3220.815	4294
3222.589	4319
3224.363	4327
3226.136	4424
3227.908	4279
3229.681	4391
3231.454	4404
3233.226	4339
3234.996	4329
3236.767	4239
3238.538	4328
3240.308	4347
3242.078	4352
3243.847	4324
3245.615	4344
3247.384	4322
3249.15	4243
3250.92	4284
3252.686	4356
3254.453	4247
3256.218	4334
3257.984	4244
3259.75	4343
3261.515	4319
3263.279	4323
3265.044	4424
3266.806	4235
3268.57	4292
3270.334	4325
3272.095	4294
3273.856	4273
3275.619	4329
3277.379	4304
3279.14	4268
3280.9	4319
3282.661	4340
3284.419	4348
3286.178	4276
3287.937	4268
3289.695	4299
3291.453	4270
3293.21	4394
3294.967	4366
3296.723	4337
3298.48	4339
3300.235	4379
3301.99	4373
3303.744	4324
3305.498	4338
3307.253	4321
3309.006	4313
3310.759	4336
3312.511	4298
3314.263	4326
3316.017	4321
3317.768	4259
3319.519	4351
3321.268	4264
3323.018	4331
3324.767	4224
3326.518	4305
3328.267	4325
3330.014	4297
3331.762	4340
3333.509	4240
3335.258	4322
3337.003	4251
3338.75	4337
3340.496	4311
3342.24	4264
3343.987	4278
3345.732	4224
3347.475	4298
3349.219	4250
3350.961	4227
3352.705	4272
3354.448	4207
3356.19	4219
3357.931	4226
3359.672	4147
3361.412	4223
3363.155	4216
3364.894	4245
3366.633	4166
3368.372	4218
3370.11	4186
3371.849	4198
3373.588	4217
3375.325	4120
3377.061	4232
3378.799	4256
3380.534	4108
3382.271	4147
3384.006	4179
3385.741	4126
3387.475	4171
3389.209	4166
3390.944	4132
3392.677	4152
3394.409	4134
3396.143	4092
3397.874	4080
3399.606	4091
3401.338	4090
3403.069	4134
3404.799	4073
3406.528	4121
3408.258	4030
3409.988	4153
3411.717	4130
3413.445	4104
3415.173	4129
3416.899	4157
3418.626	4037
3420.354	4049
3422.08	4048
3423.806	4026
3425.531	4098
3427.255	4120
3428.981	4060
3430.705	4111
3432.429	4018
3434.151	4076
3435.875	4039
3437.599	4054
3439.321	4031
3441.042	3977
3442.763	3992
3444.483	3947
3446.204	4011
3447.926	3991
3449.645	3928
3451.364	4087
3453.082	3985
3454.801	3993
3456.52	3953
3458.238	4004
3459.954	4043
3461.671	3895
3463.387	3947
3465.104	3914
3466.82	3895
3468.534	3921
3470.25	3819
3471.963	3963
3473.676	3899
3475.392	3942
3477.104	3814
3478.817	3911
3480.528	3970
3482.241	3845
3483.954	3876
3485.664	3836
3487.374	3856
3489.084	3878
3490.795	3757
3492.504	3893
3494.214	3737
3495.922	3846
3497.63	3829
3499.338	3864
3501.045	3815
3502.753	3803
3504.459	3808
3506.166	3888
3507.871	3919
3509.576	3820
3511.283	3774
3512.987	3881
3514.691	3797
3516.395	3770
3518.098	3728
3519.8	3806
3521.504	3747
3523.206	3774
3524.908	3797
3526.609	3793
3528.309	3789
3530.011	3740
3531.711	3688
3533.411	3651
3535.109	3740
3536.808	3753
3538.507	3777
3540.206	3772
3541.904	3709
3543.601	3779
3545.297	3704
3546.994	3727
3548.69	3755
3550.387	3733
3552.081	3684
3553.776	3687
3555.47	3639
3557.166	3766
3558.859	3692
3560.553	3700
3562.245	3716
3563.938	3661
3565.629	3700
3567.322	3584
3569.014	3609
3570.704	3579
3572.394	3639
3574.084	3600
3575.775	3699
3577.464	3665
3579.152	3538
3580.842	3629
3582.529	3620
3584.216	3670
3585.905	3644
3587.591	3569
3589.279	3593
3590.964	3635
3592.649	3589
3594.336	3583
3596.021	3706
3597.705	3591
3599.388	3614
3601.072	3645
3602.757	3543
3604.439	3601
3606.122	3552
3607.803	3497
3609.485	3506
3611.167	3546
3612.849	3472
3614.529	3508
3616.208	3448
3617.888	3510
3619.567	3480
3621.247	3457
3622.926	3498
3624.603	3524
3626.281	3412
3627.958	3536
3629.635	3485
3631.312	3435
3632.989	3398
3634.665	3481
3636.339	3417
3638.014	3435
3639.691	3441
3641.364	3358
3643.038	3425
3644.71	3461
3646.384	3425
3648.058	3421
3649.729	3450
3651.402	3425
3653.073	3434
3654.744	3359
3656.414	3397
3658.085	3364
3659.755	3351
3661.424	3354
3663.094	3374
3664.762	3392
3666.431	3325
3668.099	3274
3669.766	3339
3671.433	3359
3673.099	3360
3674.768	3315
3676.433	3348
3678.098	3412
3679.763	3373
3681.428	3405
3683.093	3370
3684.757	3277
3686.421	3335
3688.083	3393
3689.746	3299
3691.408	3285
3693.071	3259
3694.733	3236
3696.394	3331
3698.054	3409
3699.715	3318
3701.375	3319
3703.036	3349
3704.695	3338
3706.354	3330
3708.012	3314
3709.67	3213
3711.329	3265
3712.987	3306
3714.644	3349
3716.299	3303
3717.955	3390
3719.613	3254
3721.268	3297
3722.923	3223
3724.577	3244
3726.231	3233
3727.885	3314
3729.539	3282
3731.192	3293
3732.845	3253
3734.497	3246
3736.149	3225
3737.802	3239
3739.453	3199
3741.104	3272
3742.753	3181
3744.404	3257
3746.052	3306
3747.704	3251
3749.352	3259
3751	3311
3752.648	3122
3754.296	3182
3755.944	3286
3757.59	3167
3759.238	3216
3760.883	3248
3762.528	3233
3764.176	3233
3765.82	3257
3767.464	3124
3769.109	3287
3770.753	3227
3772.396	3158
3774.04	3161
3775.683	3150
3777.325	3121
3778.967	3130
3780.608	3185
3782.25	3151
3783.89	3178
3785.531	3167
3787.17	3131
3788.81	3212
3790.45	3120
3792.09	3133
3793.729	3219
3795.366	3137
3797.003	3114
3798.64	3105
3800.278	3135
3801.915	3131
3803.551	3161
3805.187	3115
3806.822	3076
3808.458	3126
3810.093	3088
3811.726	3106
3813.36	3128
3814.994	3101
3816.627	3160
3818.262	3054
3819.893	3060
3821.525	3102
3823.157	3043
3824.787	3020
3826.42	3072
3828.051	3096
3829.68	3089
3831.31	3069
3832.938	3087
3834.569	3079
3836.198	3101
3837.825	3036
3839.454	3077
3841.08	2999
3842.708	3068
3844.335	3003
3845.962	3070
3847.587	3025
3849.212	3054
3850.838	3083
3852.463	2999
3854.089	3054
3855.712	3013
3857.335	3013
3858.959	3012
3860.582	3056
3862.205	3097
3863.827	3062
3865.449	3010
3867.07	3038
3868.691	2982
3870.312	2964
3871.933	3012
3873.553	2966
3875.173	2987
3876.792	3042
3878.411	3022
3880.03	2975
3881.647	2947
3883.265	2991
3884.882	2938
3886.499	2930
3888.116	2980
3889.732	2982
3891.348	3024
3892.964	3040
3894.579	2948
3896.195	3043
3897.809	2969
3899.423	2911
3901.036	2965
3902.648	2956
3904.261	2922
3905.875	2920
3907.487	2901
3909.099	2911
3910.709	2935
3912.321	2927
3913.933	2935
3915.542	2946
3917.152	2929
3918.762	2930
3920.37	2956
3921.98	2994
3923.589	2925
3925.196	2913
3926.804	2975
3928.41	3020
3930.018	2876
3931.626	2905
3933.231	2822
3934.838	2963
3936.442	2993
3938.046	2879
3939.653	2910
3941.257	2878
3942.861	2923
3944.464	2899
3946.068	2878
3947.67	2870
3949.273	2841
3950.876	2933
3952.477	2932
3954.078	2918
3955.678	2895
3957.281	2865
3958.881	2848
3960.48	2901
3962.079	2872
3963.678	2902
3965.279	2845
3966.877	2875
3968.475	2850
3970.072	2853
3971.669	2833
3973.266	2827
3974.864	2918
3976.459	2820
3978.055	2820
3979.65	2883
3981.245	2883
3982.841	2877
3984.436	2816
3986.03	2836
3987.623	2824
3989.216	2788
3990.809	2895
3992.403	2811
3993.995	2789
3995.586	2802
3997.177	2789
3998.768	2792
4000.361	2794
4001.951	2757
4003.54	2747
4005.13	2770
4006.719	2713
4008.31	2809
4009.897	2812
4011.485	2731
4013.073	2841
4014.66	2772
4016.247	2790
4017.834	2794
4019.421	2712
4021.006	2686
4022.592	2730
4024.178	2798
4025.763	2720
4027.348	2778
4028.932	2744
4030.515	2717
4032.099	2739
4033.682	2722
4035.266	2740
4036.847	2655
4038.429	2800
4040.011	2652
4041.592	2644
4043.173	2673
4044.755	2772
4046.334	2757
4047.913	2651
4049.494	2746
4051.074	2635
4052.652	2693
4054.23	2744
4055.807	2651
4057.385	2660
4058.963	2692
4060.541	2685
4062.117	2692
4063.693	2660
4065.269	2667
4066.844	2635
4068.42	2594
4069.995	2686
4071.569	2729
4073.143	2644
4074.716	2658
4076.291	2690
4077.864	2616
4079.436	2636
4081.009	2618
4082.58	2634
4084.152	2748
4085.723	2629
4087.294	2637
4088.865	2632
4090.435	2629
4092.005	2619
4093.574	2679
4095.143	2634
4096.712	2644
4098.279	2623
4099.848	2579
4101.416	2578
4102.984	2613
4104.55	2515
4106.117	2638
4107.682	2550
4109.248	2612
4110.815	2563
4112.379	2585
4113.945	2613
4115.508	2610
4117.073	2542
4118.637	2557
4120.201	2530
4121.763	2563
4123.325	2599
4124.888	2513
4126.449	2560
4128.013	2604
4129.573	2539
4131.133	2559
4132.694	2513
4134.254	2563
4135.814	2559
4137.374	2532
4138.933	2522
4140.491	2555
4142.049	2475
4143.607	2460
4145.167	2574
4146.724	2537
4148.28	2449
4149.836	2468
4151.392	2557
4152.949	2492
4154.504	2526
4156.059	2493
4157.614	2451
4159.168	2512
4160.723	2512
4162.277	2505
4163.83	2489
4165.383	2486
4166.936	2441
4168.488	2527
4170.041	2508
4171.593	2505
4173.144	2445
4174.695	2509
4176.246	2462
4177.796	2454
4179.346	2478
4180.896	2434
4182.445	2418
4183.994	2533
4185.542	2439
4187.091	2447
4188.639	2495
4190.185	2424
4191.732	2437
4193.279	2425
4194.826	2397
4196.373	2461
4197.918	2421
4199.463	2402
4201.008	2430
4202.553	2388
4204.098	2364
4205.641	2397
4207.185	2439
4208.728	2329
4210.271	2384
4211.814	2402
4213.357	2398
4214.898	2398
4216.439	2391
4217.98	2471
4219.522	2395
4221.062	2392
4222.603	2425
4224.142	2413
4225.681	2349
4227.222	2354
4228.76	2431
4230.298	2406
4231.835	2476
4233.373	2343
4234.911	2418
4236.449	2339
4237.985	2392
4239.521	2377
4241.057	2418
4242.592	2359
4244.128	2363
4245.663	2432
4247.197	2352
4248.731	2329
4250.265	2393
4251.798	2326
4253.333	2338
4254.865	2363
4256.397	2363
4257.93	2386
4259.461	2341
4260.994	2337
4262.525	2327
4264.056	2405
4265.586	2352
4267.115	2308
4268.646	2299
4270.176	2267
4271.705	2231
4273.232	2355
4274.761	2337
4276.289	2334
4277.818	2341
4279.345	2271
4280.872	2364
4282.399	2348
4283.924	2302
4285.452	2362
4286.976	2316
4288.502	2295
4290.026	2292
4291.551	2302
4293.074	2275
4294.6	2280
4296.123	2273
4297.646	2314
4299.168	2325
4300.691	2240
4302.214	2254
4303.736	2271
4305.257	2281
4306.778	2262
4308.299	2221
4309.82	2256
4311.34	2243
4312.86	2254
4314.379	2303
