400.0745	3948
402.597	4012
405.1208	3960
407.6419	3958
410.1623	4016
412.6819	4088
415.201	4007
417.7172	4118
420.2369	4162
422.7538	4182
425.2701	4146
427.7856	4207
430.3005	4244
432.8147	4173
435.3282	4237
437.841	4304
440.3511	4180
442.8625	4326
445.3753	4298
447.8854	4241
450.3927	4337
452.9014	4270
455.4073	4300
457.9146	4239
460.4233	4227
462.9272	4264
465.4325	4332
467.935	4254
470.4389	4345
472.9421	4364
475.4446	4295
477.9444	4252
480.4456	4315
482.944	4359
485.4417	4332
487.9429	4400
490.4393	4241
492.935	4299
495.4321	4368
497.9264	4313
500.4221	4345
502.9171	4462
505.4094	4410
507.9011	4388
510.392	4320
512.8864	4428
515.3759	4528
517.8649	4519
520.3531	4404
522.8406	4461
525.3275	4471
527.8178	4412
530.3033	4484
532.7881	4410
535.2723	4424
537.7558	4431
540.2407	4467
542.7228	4480
545.2043	4529
547.6851	4473
550.1652	4540
552.6467	4407
555.1255	4351
557.6016	4488
560.079	4417
562.5557	4484
565.0318	4459
567.5092	4510
569.984	4570
572.456	4689
574.9294	4649
577.4022	4699
579.8762	4732
582.3456	4569
584.8163	4642
587.2863	4734
589.7557	4665
592.2224	4693
594.6924	4698
597.1578	4721
599.6245	4654
602.0905	4577
604.5538	4568
607.0206	4631
609.4825	4693
611.9459	4718
614.4066	4546
616.8686	4615
619.33	4591
621.7906	4622
624.2487	4621
626.708	4590
629.1647	4542
631.6207	4593
634.0801	4550
636.5348	4630
638.9888	4752
641.4442	4607
643.8969	4631
646.3509	4706
648.8022	4611
651.255	4687
653.705	4635
656.1544	4667
658.6031	4699
661.0532	4701
663.5026	4710
665.9493	4741
668.3954	4737
670.8409	4718
673.2877	4808
675.7318	4755
678.1752	4762
680.618	4787
683.0601	4803
685.5035	4747
687.9444	4759
690.3845	4793
692.824	4829
695.2628	4849
697.701	4768
700.1406	4814
702.5774	4762
705.0116	4830
707.4472	4831
709.8821	4796
712.3183	4856
714.7519	4795
717.1829	4763
719.6151	4822
722.0468	4847
724.4777	4920
726.908	4901
729.3377	4954
731.7667	4926
734.1931	4960
736.6208	4971
739.0498	4998
741.4742	5037
743.9	5039
746.3231	5001
748.7476	5089
751.1713	4995
753.5945	5040
756.015	5192
758.4368	5151
760.856	5100
763.2766	5006
765.6965	4956
768.1157	5126
770.5323	5252
772.9483	5230
775.3656	5122
777.7822	5087
780.1963	5135
782.6116	5185
785.0244	5126
787.4365	5183
789.8499	5147
792.2626	5097
794.6728	5094
797.0823	5177
799.4911	5062
801.8994	5152
804.3109	5246
806.7178	5171
809.124	5157
811.5297	5176
813.9347	5213
816.341	5277
818.7447	5088
821.1478	5208
823.5502	5251
825.952	5211
828.3531	5190
830.7556	5260
833.1554	5306
835.5546	5271
837.9532	5248
840.3511	5304
842.7504	5328
845.1451	5178
847.5411	5388
849.9365	5302
852.3312	5323
854.7272	5365
857.1187	5250
859.5115	5338
861.9037	5278
864.2952	5391
866.6842	5223
869.0764	5295
871.4661	5382
873.8531	5187
876.2415	5309
878.6272	5327
881.0162	5286
883.4026	5268
885.7866	5321
888.1717	5415
890.5543	5320
892.9382	5299
895.3215	5346
897.7041	5320
900.0842	5237
902.4655	5432
904.8443	5356
907.2244	5412
909.6039	5454
911.9808	5367
914.357	5367
916.7346	5400
919.1115	5354
921.4859	5548
923.8616	5392
926.2347	5545
928.6071	5523
930.979	5484
933.3541	5572
935.7247	5568
938.0946	5485
940.4639	5552
942.8326	5646
945.2026	5766
947.5701	5828
949.9369	5858
952.305	6241
954.6705	6274
957.0355	6481
959.4017	6760
961.7654	6737
964.1284	6837
966.4908	6572
968.8527	6353
971.2138	6120
973.5743	5875
975.9343	5697
978.2936	5698
980.6522	5571
983.0122	5577
985.3696	5599
987.7245	5463
990.0807	5472
992.4362	5502
994.7911	5451
997.1474	5431
999.4991	5504
1001.852	5485
1004.205	5561
1006.555	5446
1008.908	5585
1011.258	5416
1013.606	5570
1015.956	5501
1018.302	5593
1020.652	5576
1022.998	5598
1025.345	5577
1027.691	5524
1030.035	5550
1032.378	5658
1034.724	5578
1037.066	5530
1039.409	5684
1041.75	5715
1044.092	5572
1046.433	5622
1048.771	5647
1051.112	5661
1053.449	5614
1055.786	5658
1058.124	5684
1060.462	5620
1062.797	5603
1065.131	5690
1067.467	5657
1069.8	5626
1072.135	5675
1074.467	5762
1076.798	5725
1079.129	5671
1081.459	5688
1083.792	5706
1086.121	5656
1088.449	5591
1090.777	5491
1093.104	5560
1095.431	5633
1097.759	5471
1100.084	5622
1102.408	5520
1104.732	5634
1107.056	5669
1109.379	5655
1111.701	5681
1114.022	5627
1116.343	5707
1118.664	5627
1120.983	5649
1123.303	5601
1125.621	5640
1127.939	5646
1130.256	5629
1132.573	5659
1134.889	5656
1137.205	5595
1139.52	5690
1141.832	5635
1144.146	5541
1146.461	5671
1148.771	5620
1151.083	5753
1153.392	5607
1155.703	5637
1158.011	5643
1160.323	5571
1162.629	5657
1164.938	5645
1167.243	5700
1169.55	5616
1171.857	5605
1174.163	5785
1176.466	5603
1178.769	5653
1181.073	5631
1183.374	5625
1185.677	5732
1187.979	5609
1190.279	5586
1192.578	5542
1194.878	5652
1197.178	5622
1199.476	5713
1201.772	5717
1204.068	5633
1206.366	5658
1208.663	5647
1210.957	5712
1213.251	5612
1215.544	5691
1217.836	5778
1220.128	5804
1222.421	5674
1224.712	5701
1227.002	5705
1229.292	5849
1231.581	5875
1233.871	5829
1236.159	5757
1238.446	5717
1240.732	5856
1243.018	5993
1245.304	5850
1247.59	5787
1249.874	5914
1252.156	5803
1254.439	5884
1256.721	5732
1259.005	5769
1261.286	5850
1263.565	5832
1265.845	5836
1268.125	5820
1270.403	5825
1272.682	5831
1274.959	5725
1277.234	5881
1279.511	5857
1281.787	5798
1284.062	5705
1286.337	5828
1288.609	5785
1290.882	5738
1293.153	5782
1295.428	5893
1297.698	5817
1299.969	5661
1302.237	5832
1304.507	5657
1306.777	5647
1309.044	5717
1311.312	5705
1313.578	5758
1315.844	5740
1318.109	5716
1320.375	5753
1322.638	5679
1324.903	5853
1327.165	5844
1329.427	5764
1331.69	5803
1333.952	5788
1336.212	5781
1338.471	5754
1340.73	5810
1342.988	5759
1345.248	5740
1347.505	5955
1349.763	5783
1352.019	5864
1354.274	5711
1356.53	5729
1358.784	5849
1361.038	5719
1363.291	5655
1365.543	5686
1367.797	5783
1370.048	5800
1372.296	5775
1374.546	5757
1376.796	5749
1379.045	5792
1381.295	5882
1383.542	5691
1385.787	5800
1388.034	5761
1390.28	5878
1392.527	5921
1394.772	5835
1397.014	5747
1399.258	5879
1401.501	5811
1403.741	5829
1405.985	5746
1408.226	5979
1410.465	5892
1412.705	5961
1414.943	5910
1417.184	5765
1419.42	5868
1421.658	5870
1423.894	5927
1426.13	5884
1428.366	5975
1430.602	5990
1432.835	5936
1435.069	5929
1437.301	5976
1439.535	5919
1441.767	6116
1443.997	5939
1446.229	6084
1448.458	5995
1450.687	5899
1452.916	5983
1455.146	6103
1457.372	6002
1459.599	5932
1461.824	5930
1464.051	6031
1466.277	6098
1468.501	5974
1470.725	5913
1472.948	6012
1475.17	5906
1477.393	5847
1479.614	5870
1481.837	5876
1484.057	5887
1486.276	5854
1488.497	5811
1490.715	5764
1492.932	5779
1495.148	5776
1497.364	5796
1499.58	5815
1501.798	5876
1504.012	5961
1506.227	5766
1508.44	5676
1510.653	5715
1512.866	5797
1515.078	5774
1517.289	5727
1519.5	5676
1521.711	5726
1523.92	5762
1526.13	5851
1528.338	5834
1530.544	5816
1532.752	5786
1534.959	5631
1537.165	5696
1539.371	5826
1541.574	5737
1543.779	5882
1545.983	5794
1548.187	5766
1550.39	5817
1552.59	5699
1554.792	5932
1556.991	5832
1559.19	5878
1561.392	5865
1563.59	5858
1565.789	5874
1567.986	5912
1570.182	5946
1572.381	5718
1574.576	6007
1576.771	5804
1578.966	5896
1581.16	5867
1583.354	5967
1585.546	5816
1587.74	5883
1589.931	5893
1592.121	5922
1594.311	5920
1596.502	5951
1598.693	6021
1600.881	6006
1603.069	5825
1605.256	5901
1607.445	6012
1609.631	5837
1611.816	5950
1614.001	5904
1616.186	5971
1618.37	5912
1620.555	5916
1622.737	5936
1624.919	5994
1627.101	5947
1629.282	5961
1631.463	6023
1633.643	5989
1635.822	6004
1638.001	6001
1640.179	6060
1642.359	6035
1644.534	6040
1646.711	6046
1648.887	5977
1651.062	6036
1653.235	5967
1655.412	5985
1657.586	6001
1659.757	6131
1661.93	5988
1664.1	6066
1666.274	6000
1668.445	6030
1670.614	6026
1672.784	6155
1674.951	5992
1677.12	6069
1679.289	6031
1681.457	6033
1683.622	6092
1685.789	5949
1687.953	6052
1690.121	6004
1692.284	6038
1694.447	6023
1696.611	6166
1698.772	5998
1700.935	5977
1703.098	5832
1705.258	5936
1707.417	5965
1709.576	5949
1711.736	5906
1713.896	5951
1716.053	5968
1718.21	5992
1720.366	5863
1722.522	6058
1724.68	5854
1726.835	6075
1728.989	5940
1731.142	5946
1733.295	5866
1735.449	5848
1737.601	5841
1739.753	5806
1741.903	5935
1744.054	5973
1746.203	5970
1748.354	5876
1750.503	5925
1752.651	5974
1754.798	5994
1756.944	5885
1759.092	5870
1761.238	5907
1763.383	5913
1765.528	5993
1767.672	5880
1769.814	6061
1771.959	5978
1774.102	5976
1776.242	6014
1778.384	5885
1780.525	5846
1782.665	5952
1784.805	5970
1786.945	6033
1789.082	5873
1791.22	6096
1793.36	6017
1795.495	6070
1797.632	5942
1799.766	5911
1801.902	6042
1804.035	5969
1806.172	5840
1808.304	5947
1810.436	5975
1812.569	5942
1814.699	5919
1816.833	5909
1818.963	6053
1821.092	5891
1823.222	5868
1825.35	5932
1827.478	6009
1829.608	5983
1831.734	5873
1833.86	5896
1835.986	5966
1838.11	5962
1840.238	5847
1842.362	5936
1844.485	5954
1846.608	5919
1848.73	5894
1850.853	5897
1852.974	5854
1855.097	5802
1857.217	5899
1859.336	5920
1861.455	5857
1863.576	5964
1865.693	5895
1867.811	6001
1869.926	5965
1872.042	5892
1874.16	6048
1876.275	5887
1878.39	5805
1880.504	5910
1882.618	5869
1884.731	6005
1886.843	5931
1888.956	6073
1891.067	5951
1893.178	5946
1895.287	5932
1897.399	5881
1899.508	5923
1901.617	5960
1903.724	5909
1905.832	5993
1907.941	5969
1910.046	6030
1912.152	6033
1914.256	5963
1916.361	5998
1918.464	6055
1920.57	5900
1922.672	6031
1924.775	5903
1926.876	6029
1928.978	5953
1931.08	5952
1933.181	6009
1935.28	6014
1937.38	6025
1939.478	5941
1941.577	6010
1943.675	5975
1945.771	5990
1947.867	5911
1949.964	6055
1952.058	5952
1954.154	5924
1956.248	5943
1958.343	5922
1960.435	5901
1962.527	5958
1964.62	5950
1966.711	5869
1968.802	5909
1970.892	6044
1972.983	6000
1975.072	5885
1977.162	5881
1979.25	5897
1981.337	5903
1983.424	5828
1985.51	5836
1987.598	5811
1989.683	5845
1991.768	6015
1993.852	5883
1995.934	6042
1998.019	5967
2000.102	5967
2002.184	6016
2004.266	5848
2006.347	5900
2008.427	5850
2010.508	5916
2012.587	5838
2014.666	5902
2016.745	5784
2018.821	5793
2020.9	5984
2022.977	5827
2025.052	5885
2027.128	5868
2029.204	5890
2031.277	5884
2033.353	5926
2035.425	5900
2037.499	5820
2039.57	5791
2041.642	5908
2043.714	5815
2045.786	5862
2047.855	5879
2049.925	5951
2051.993	5861
2054.064	5991
2056.132	6024
2058.2	5993
2060.266	5905
2062.332	5756
2064.398	5935
2066.465	5835
2068.529	5937
2070.592	5931
2072.657	6028
2074.719	5888
2076.783	5752
2078.845	5919
2080.907	5869
2082.968	5969
2085.028	5870
2087.087	5927
2089.148	5859
2091.207	5982
2093.264	5875
2095.322	5919
2097.379	5981
2099.439	5941
2101.495	5971
2103.55	5876
2105.605	5890
2107.658	5892
2109.713	5849
2111.767	5869
2113.82	5871
2115.872	5860
2117.924	5984
2119.975	5885
2122.028	5980
2124.078	5747
2126.126	5841
2128.176	5843
2130.225	5871
2132.275	5820
2134.321	5900
2136.368	5954
2138.415	5790
2140.461	5969
2142.505	5904
2144.552	5885
2146.597	5946
2148.64	5864
2150.684	5877
2152.725	5845
2154.77	5778
2156.811	5874
2158.852	5782
2160.894	5813
2162.933	5793
2164.973	5739
2167.013	5742
2169.051	5835
2171.089	5846
2173.126	5913
2175.164	5827
2177.201	5787
2179.236	5837
2181.273	5862
2183.307	5692
2185.341	5797
2187.377	5754
2189.41	5827
2191.442	5794
2193.473	5768
2195.506	5727
2197.539	5856
2199.569	5766
2201.598	5757
2203.628	5725
2205.656	5668
2207.686	5751
2209.716	5845
2211.743	5772
2213.769	5659
2215.796	5691
2217.821	5761
2219.848	5717
2221.873	5650
2223.897	5692
2225.921	5760
2227.944	5757
2229.967	5723
2231.991	5736
2234.011	5795
2236.032	5763
2238.053	5669
2240.073	5708
2242.094	5689
2244.114	5632
2246.131	5695
2248.149	5756
2250.167	5709
2252.186	5675
2254.201	5686
2256.218	5661
2258.233	5655
2260.247	5690
2262.262	5808
2264.278	5680
2266.29	5713
2268.303	5703
2270.315	5686
2272.327	5658
2274.341	5744
2276.35	5679
2278.361	5702
2280.37	5749
2282.38	5718
2284.388	5758
2286.397	5618
2288.405	5661
2290.412	5705
2292.419	5752
2294.425	5639
2296.431	5736
2298.437	5550
2300.441	5711
2302.445	5675
2304.449	5659
2306.453	5709
2308.455	5642
2310.457	5577
2312.459	5723
2314.46	5625
2316.46	5617
2318.461	5514
2320.46	5623
2322.458	5554
2324.458	5737
2326.456	5607
2328.455	5581
2330.451	5618
2332.447	5532
2334.443	5560
2336.438	5590
2338.433	5562
2340.429	5602
2342.422	5622
2344.416	5619
2346.408	5585
2348.399	5486
2350.393	5609
2352.384	5587
2354.375	5666
2356.365	5536
2358.355	5499
2360.344	5475
2362.333	5529
2364.322	5518
2366.309	5501
2368.295	5560
2370.282	5522
2372.27	5556
2374.256	5546
2376.24	5533
2378.225	5502
2380.208	5532
2382.194	5551
2384.177	5580
2386.159	5512
2388.142	5461
2390.122	5470
2392.105	5511
2394.085	5442
2396.066	5434
2398.044	5498
2400.024	5530
2402.002	5454
2403.982	5426
2405.959	5473
2407.935	5495
2409.913	5424
2411.888	5381
2413.865	5511
2415.84	5450
2417.814	5482
2419.788	5486
2421.762	5574
2423.735	5445
2425.708	5399
2427.68	5480
2429.651	5552
2431.623	5406
2433.593	5407
2435.564	5401
2437.533	5546
2439.502	5540
2441.47	5471
2443.438	5577
2445.406	5476
2447.373	5481
2449.34	5530
2451.305	5403
2453.271	5462
2455.235	5437
2457.201	5479
2459.165	5389
2461.129	5408
2463.092	5427
2465.054	5416
2467.018	5402
2468.978	5475
2470.939	5366
2472.899	5414
2474.86	5339
2476.819	5343
2478.778	5450
2480.737	5450
2482.695	5404
2484.653	5477
2486.609	5352
2488.567	5365
2490.524	5440
2492.478	5337
2494.433	5445
2496.387	5338
2498.343	5495
2500.297	5374
2502.249	5404
2504.202	5236
2506.153	5353
2508.105	5307
2510.057	5272
2512.008	5415
2513.957	5221
2515.906	5271
2517.855	5302
2519.805	5313
2521.754	5260
2523.7	5334
2525.647	5263
2527.594	5272
2529.54	5343
2531.486	5330
2533.431	5302
2535.376	5297
2537.32	5282
2539.263	5294
2541.207	5444
2543.151	5336
2545.093	5307
2547.034	5280
2548.975	5350
2550.917	5341
2552.856	5316
2554.796	5245
2556.735	5353
2558.673	5220
2560.611	5259
2562.55	5305
2564.487	5281
2566.424	5305
2568.36	5253
2570.296	5279
2572.232	5273
2574.167	5378
2576.101	5276
2578.035	5370
2579.969	5303
2581.902	5326
2583.834	5309
2585.766	5283
2587.698	5258
2589.628	5441
2591.557	5264
2593.489	5216
2595.419	5357
2597.348	5316
2599.275	5392
2601.204	5271
2603.131	5295
2605.059	5319
2606.986	5329
2608.911	5386
2610.837	5175
2612.76	5264
2614.687	5398
2616.61	5262
2618.534	5326
2620.457	5420
2622.38	5278
2624.302	5242
2626.225	5314
2628.145	5267
2630.067	5295
2631.986	5311
2633.906	5284
2635.827	5320
2637.745	5232
2639.662	5288
2641.581	5381
2643.498	5313
2645.415	5309
2647.331	5275
2649.248	5362
2651.163	5369
2653.077	5282
2654.993	5336
2656.906	5251
2658.821	5324
2660.733	5275
2662.646	5362
2664.557	5256
2666.47	5301
2668.381	5279
2670.291	5231
2672.201	5251
2674.11	5213
2676.021	5284
2677.929	5347
2679.837	5279
2681.745	5242
2683.652	5256
2685.56	5257
2687.466	5259
2689.371	5246
2691.276	5202
2693.181	5162
2695.085	5235
2696.991	5243
2698.893	5147
2700.796	5217
2702.698	5229
2704.601	5235
2706.502	5149
2708.404	5202
2710.304	5128
2712.203	5202
2714.103	5245
2716.003	5103
2717.902	5180
2719.8	5156
2721.697	5155
2723.594	5252
2725.49	5188
2727.389	5248
2729.283	5200
2731.179	5213
2733.073	5174
2734.968	5173
2736.863	5051
2738.757	5124
2740.649	5116
2742.541	5136
2744.433	5162
2746.324	5129
2748.216	5175
2750.107	5044
2751.997	5164
2753.886	5123
2755.776	5122
2757.666	5171
2759.553	5100
2761.44	5172
2763.327	5054
2765.215	5223
2767.102	5105
2768.988	5120
2770.873	5100
2772.757	5082
2774.641	5201
2776.525	5030
2778.41	5128
2780.292	5075
2782.175	5087
2784.057	5140
2785.938	5030
2787.821	5019
2789.701	5155
2791.581	5164
2793.461	5169
2795.34	5067
2797.219	5052
2799.099	5041
2800.975	5018
2802.853	5123
2804.73	5067
2806.606	5028
2808.484	4990
2810.358	4942
2812.233	5137
2814.108	5092
2815.981	5085
2817.857	5039
2819.73	5030
2821.602	5059
2823.474	5021
2825.346	5049
2827.217	5086
2829.089	5068
2830.959	5052
2832.829	5033
2834.698	5093
2836.567	4985
2838.436	5084
2840.305	4976
2842.172	5087
2844.04	4972
2845.905	5091
2847.772	5089
2849.639	4983
2851.503	5053
2853.369	5044
2855.232	5053
2857.096	5088
2858.961	5044
2860.824	5070
2862.686	5050
2864.547	5033
2866.41	5096
2868.272	5015
2870.132	5198
2871.992	5181
2873.851	5170
2875.711	5235
2877.57	5139
2879.429	5116
2881.287	5214
2883.144	5218
2885.001	5257
2886.857	5247
2888.714	5300
2890.57	5260
2892.425	5287
2894.279	5310
2896.133	5245
2897.987	5238
2899.842	5319
2901.694	5280
2903.547	5192
2905.397	5238
2907.249	5150
2909.101	5231
2910.952	5233
2912.802	5282
2914.652	5413
2916.5	5363
2918.35	5351
2920.198	5404
2922.045	5456
2923.893	5405
2925.74	5529
2927.585	5556
2929.433	5518
2931.279	5532
2933.123	5596
2934.968	5534
2936.811	5612
2938.656	5599
2940.5	5689
2942.342	5689
2944.185	5748
2946.026	5767
2947.87	5784
2949.71	5690
2951.549	5647
2953.39	5577
2955.229	5552
2957.069	5456
2958.908	5515
2960.746	5485
2962.584	5506
2964.421	5284
2966.257	5363
2968.094	5421
2969.931	5332
2971.766	5416
2973.601	5320
2975.435	5280
2977.27	5327
2979.105	5260
2980.938	5371
2982.77	5231
2984.602	5287
2986.434	5280
2988.267	5277
2990.097	5196
2991.927	5191
2993.757	5277
2995.587	5174
2997.417	5186
2999.246	5127
3001.074	5045
3002.902	4978
3004.729	4992
3006.556	4979
3008.384	4990
3010.21	4905
3012.036	4920
3013.861	4901
3015.684	4898
3017.51	4854
3019.334	4863
3021.157	4865
3022.981	4785
3024.802	4873
3026.624	4813
3028.448	4704
3030.267	4701
3032.088	4730
3033.909	4779
3035.728	4694
3037.549	4757
3039.368	4675
3041.186	4667
3043.004	4701
3044.821	4665
3046.64	4679
3048.455	4757
3050.272	4679
3052.087	4715
3053.903	4644
3055.717	4623
3057.534	4680
3059.347	4619
3061.16	4699
3062.974	4576
3064.785	4649
3066.598	4629
3068.411	4703
3070.222	4630
3072.032	4573
3073.844	4598
3075.653	4586
3077.463	4633
3079.272	4651
3081.08	4595
3082.889	4578
3084.697	4636
3086.505	4576
3088.312	4587
3090.118	4598
3091.924	4538
3093.729	4556
3095.535	4552
3097.34	4538
3099.144	4625
3100.947	4500
3102.75	4555
3104.553	4617
3106.357	4559
3108.159	4495
3109.961	4564
3111.762	4549
3113.562	4522
3115.365	4426
3117.164	4406
3118.964	4511
3120.761	4509
3122.56	4520
3124.36	4450
3126.158	4524
3127.954	4474
3129.75	4479
3131.547	4452
3133.343	4483
3135.139	4590
3136.934	4448
3138.729	4516
3140.522	4479
3142.317	4394
3144.11	4498
3145.904	4520
3147.695	4418
3149.488	4344
3151.28	4466
3153.07	4477
3154.863	4391
3156.652	4450
3158.441	4428
3160.231	4375
3162.019	4399
3163.81	4317
3165.597	4450
3167.384	4318
3169.172	4401
3170.958	4341
3172.745	4399
3174.532	4377
3176.317	4340
3178.101	4352
3179.885	4358
3181.67	4294
3183.455	4360
3185.238	4319
3187.02	4387
3188.802	4396
3190.585	4382
3192.368	4422
3194.149	4332
3195.929	4361
3197.709	4383
3199.489	4342
3201.268	4402
3203.048	4313
3204.826	4425
3206.604	4292
3208.382	4446
3210.159	4282
3211.937	4351
3213.713	4291
3215.489	4305
3217.263	4242
3219.038	4440
3220.815	4336
3222.589	4319
3224.363	4328
3226.136	4282
3227.908	4290
3229.681	4339
3231.454	4267
3233.226	4293
3234.996	4366
3236.767	4303
3238.538	4270
3240.308	4320
3242.078	4407
3243.847	4262
3245.615	4253
3247.384	4234
3249.15	4334
3250.92	4264
3252.686	4388
3254.453	4393
3256.218	4291
3257.984	4247
3259.75	4368
3261.515	4292
3263.279	4312
3265.044	4304
3266.806	4257
3268.57	4301
3270.334	4328
3272.095	4213
3273.856	4300
3275.619	4252
3277.379	4377
3279.14	4208
3280.9	4248
3282.661	4319
3284.419	4275
3286.178	4240
3287.937	4289
3289.695	4248
3291.453	4199
3293.21	4325
3294.967	4262
3296.723	4258
3298.48	4220
3300.235	4327
3301.99	4261
3303.744	4319
3305.498	4233
3307.253	4243
3309.006	4312
3310.759	4284
3312.511	4272
3314.263	4257
3316.017	4385
3317.768	4204
3319.519	4259
3321.268	4285
3323.018	4282
3324.767	4229
3326.518	4275
3328.267	4126
3330.014	4268
3331.762	4299
3333.509	4201
3335.258	4248
3337.003	4196
3338.75	4269
3340.496	4131
3342.24	4181
3343.987	4202
3345.732	4215
3347.475	4233
3349.219	4186
3350.961	4214
3352.705	4203
3354.448	4232
3356.19	4097
3357.931	4082
3359.672	4178
3361.412	4215
3363.155	4153
3364.894	4164
3366.633	4164
3368.372	4186
3370.11	4115
3371.849	4165
3373.588	4201
3375.325	4207
3377.061	4241
3378.799	4153
3380.534	4192
3382.271	4264
3384.006	4030
3385.741	4160
3387.475	4177
3389.209	4173
3390.944	4114
3392.677	4085
3394.409	4099
3396.143	4175
3397.874	4129
3399.606	4032
3401.338	4108
3403.069	4144
3404.799	4120
3406.528	4081
3408.258	4102
3409.988	4044
3411.717	4139
3413.445	4087
3415.173	4080
3416.899	4051
3418.626	4087
3420.354	4072
3422.08	4046
3423.806	3997
3425.531	4050
3427.255	4040
3428.981	3999
3430.705	4003
3432.429	4117
3434.151	4009
3435.875	3993
3437.599	3970
3439.321	4042
3441.042	4113
3442.763	4000
3444.483	3969
3446.204	3958
3447.926	3945
3449.645	4000
3451.364	3990
3453.082	4005
3454.801	3974
3456.52	3931
3458.238	3968
3459.954	3913
3461.671	3985
3463.387	4018
3465.104	3991
3466.82	3971
3468.534	3968
3470.25	3885
3471.963	3957
3473.676	3893
3475.392	3889
3477.104	3841
3478.817	3941
3480.528	3945
3482.241	3879
3483.954	3882
3485.664	3917
3487.374	3908
3489.084	3892
3490.795	3859
3492.504	3867
3494.214	3901
3495.922	3867
3497.63	3864
3499.338	3920
3501.045	3766
3502.753	3758
3504.459	3764
3506.166	3828
3507.871	3776
3509.576	3818
3511.283	3810
3512.987	3806
3514.691	3734
3516.395	3765
3518.098	3726
3519.8	3751
3521.504	3763
3523.206	3813
3524.908	3756
3526.609	3775
3528.309	3801
3530.011	3739
3531.711	3801
3533.411	3776
3535.109	3785
3536.808	3737
3538.507	3718
3540.206	3895
3541.904	3635
3543.601	3734
3545.297	3804
3546.994	3729
3548.69	3674
3550.387	3680
3552.081	3713
3553.776	3654
3555.47	3736
3557.166	3628
3558.859	3692
3560.553	3704
3562.245	3813
3563.938	3663
3565.629	3643
3567.322	3721
3569.014	3618
3570.704	3670
3572.394	3691
3574.084	3631
3575.775	3607
3577.464	3675
3579.152	3657
3580.842	3609
3582.529	3668
3584.216	3586
3585.905	3639
3587.591	3735
3589.279	3656
3590.964	3669
3592.649	3647
3594.336	3602
3596.021	3595
3597.705	3616
3599.388	3637
3601.072	3508
3602.757	3604
3604.439	3578
3606.122	3575
3607.803	3515
3609.485	3498
3611.167	3554
3612.849	3526
3614.529	3601
3616.208	3567
3617.888	3495
3619.567	3505
3621.247	3557
3622.926	3507
3624.603	3560
3626.281	3525
3627.958	3487
3629.635	3527
3631.312	3559
3632.989	3538
3634.665	3514
3636.339	3460
3638.014	3450
3639.691	3480
3641.364	3543
3643.038	3468
3644.71	3460
3646.384	3466
3648.058	3463
3649.729	3444
3651.402	3448
3653.073	3481
3654.744	3442
3656.414	3494
3658.085	3427
3659.755	3476
3661.424	3422
3663.094	3386
3664.762	3439
3666.431	3396
3668.099	3385
3669.766	3394
3671.433	3366
3673.099	3340
3674.768	3357
3676.433	3389
3678.098	3414
3679.763	3379
3681.428	3384
3683.093	3428
3684.757	3399
3686.421	3377
3688.083	3362
3689.746	3280
3691.408	3386
3693.071	3439
3694.733	3372
3696.394	3352
3698.054	3495
3699.715	3326
3701.375	3437
3703.036	3343
3704.695	3359
3706.354	3321
3708.012	3345
3709.67	3323
3711.329	3265
3712.987	3361
3714.644	3285
3716.299	3361
3717.955	3345
3719.613	3323
3721.268	3288
3722.923	3334
3724.577	3246
3726.231	3295
3727.885	3287
3729.539	3246
3731.192	3205
3732.845	3333
3734.497	3304
3736.149	3324
3737.802	3253
3739.453	3375
3741.104	3253
3742.753	3271
3744.404	3276
3746.052	3306
3747.704	3241
3749.352	3236
3751	3247
3752.648	3291
3754.296	3265
3755.944	3281
3757.59	3273
3759.238	3295
3760.883	3269
3762.528	3287
3764.176	3229
3765.82	3245
3767.464	3197
3769.109	3174
3770.753	3176
3772.396	3135
3774.04	3232
3775.683	3234
3777.325	3267
3778.967	3170
3780.608	3323
3782.25	3218
3783.89	3211
3785.531	3147
3787.17	3281
3788.81	3206
3790.45	3171
3792.09	3196
3793.729	3206
3795.366	3169
3797.003	3165
3798.64	3112
3800.278	3192
3801.915	3151
3803.551	3159
3805.187	3214
3806.822	3122
3808.458	3185
3810.093	3128
3811.726	3105
3813.36	3179
3814.994	3133
3816.627	3102
3818.262	3109
3819.893	3128
3821.525	3144
3823.157	3101
3824.787	3081
3826.42	3067
3828.051	3106
3829.68	3103
3831.31	3147
3832.938	3104
3834.569	3089
3836.198	3114
3837.825	3097
3839.454	3094
3841.08	3135
3842.708	3026
3844.335	3091
3845.962	3067
3847.587	3038
3849.212	3082
3850.838	3061
3852.463	3053
3854.089	3066
3855.712	3069
3857.335	3133
3858.959	3095
3860.582	3061
3862.205	3053
3863.827	3083
3865.449	3045
3867.07	2989
3868.691	3083
3870.312	3023
3871.933	3118
3873.553	3131
3875.173	3035
3876.792	2973
3878.411	2980
3880.03	3073
3881.647	2918
3883.265	2999
3884.882	2981
3886.499	3049
3888.116	3017
3889.732	3058
3891.348	3029
3892.964	2977
3894.579	2979
3896.195	2960
3897.809	3050
3899.423	3012
3901.036	2986
3902.648	2954
3904.261	3035
3905.875	2984
3907.487	2984
3909.099	3040
3910.709	3007
3912.321	2991
3913.933	3030
3915.542	2974
3917.152	2931
3918.762	3032
3920.37	2937
3921.98	2940
3923.589	2918
3925.196	2964
3926.804	3011
3928.41	2937
3930.018	2933
3931.626	2986
3933.231	2945
3934.838	2938
3936.442	2991
3938.046	2993
3939.653	2995
3941.257	2951
3942.861	2932
3944.464	2897
3946.068	2951
3947.67	2968
3949.273	2951
3950.876	2898
3952.477	2978
3954.078	2856
3955.678	2922
3957.281	2947
3958.881	2930
3960.48	2879
3962.079	2914
3963.678	2836
3965.279	2932
3966.877	2872
3968.475	2948
3970.072	2916
3971.669	2815
3973.266	2894
3974.864	2896
3976.459	2838
3978.055	2834
3979.65	2810
3981.245	2908
3982.841	2870
3984.436	2918
3986.03	2870
3987.623	2886
3989.216	2842
3990.809	2882
3992.403	2807
3993.995	2757
3995.586	2841
3997.177	2778
3998.768	2795
4000.361	2808
4001.951	2852
4003.54	2782
4005.13	2801
4006.719	2801
4008.31	2755
4009.897	2817
4011.485	2801
4013.073	2750
4014.66	2792
4016.247	2788
4017.834	2739
4019.421	2792
4021.006	2743
4022.592	2784
4024.178	2804
4025.763	2786
4027.348	2838
4028.932	2679
4030.515	2679
4032.099	2843
4033.682	2717
4035.266	2761
4036.847	2659
4038.429	2713
4040.011	2741
4041.592	2817
4043.173	2800
4044.755	2675
4046.334	2691
4047.913	2699
4049.494	2710
4051.074	2654
4052.652	2702
4054.23	2707
4055.807	2765
4057.385	2690
4058.963	2662
4060.541	2667
4062.117	2694
4063.693	2687
4065.269	2668
4066.844	2746
4068.42	2626
4069.995	2662
4071.569	2689
4073.143	2679
4074.716	2653
4076.291	2670
4077.864	2676
4079.436	2692
4081.009	2673
4082.58	2614
4084.152	2663
4085.723	2687
4087.294	2690
4088.865	2669
4090.435	2680
4092.005	2626
4093.574	2597
4095.143	2689
4096.712	2645
4098.279	2643
4099.848	2645
4101.416	2647
4102.984	2615
4104.55	2655
4106.117	2593
4107.682	2629
4109.248	2599
4110.815	2662
4112.379	2602
4113.945	2632
4115.508	2638
4117.073	2583
4118.637	2595
4120.201	2625
4121.763	2615
4123.325	2591
4124.888	2567
4126.449	2617
4128.013	2531
4129.573	2614
4131.133	2529
4132.694	2536
4134.254	2534
4135.814	2597
4137.374	2593
4138.933	2579
4140.491	2599
4142.049	2590
4143.607	2550
4145.167	2562
4146.724	2543
4148.28	2512
4149.836	2550
4151.392	2556
4152.949	2548
4154.504	2599
4156.059	2470
4157.614	2520
4159.168	2615
4160.723	2468
4162.277	2500
4163.83	2490
4165.383	2483
4166.936	2490
4168.488	2504
4170.041	2501
4171.593	2480
4173.144	2513
4174.695	2502
4176.246	2467
4177.796	2470
4179.346	2471
4180.896	2499
4182.445	2456
4183.994	2452
4185.542	2511
4187.091	2449
4188.639	2444
4190.185	2480
4191.732	2485
4193.279	2453
4194.826	2476
4196.373	2447
4197.918	2484
4199.463	2522
4201.008	2440
4202.553	2434
4204.098	2476
4205.641	2436
4207.185	2442
4208.728	2440
4210.271	2456
4211.814	2449
4213.357	2419
4214.898	2413
4216.439	2409
4217.98	2440
4219.522	2443
4221.062	2391
4222.603	2366
4224.142	2435
4225.681	2379
4227.222	2451
4228.76	2403
4230.298	2425
4231.835	2407
4233.373	2405
4234.911	2415
4236.449	2343
4237.985	2351
4239.521	2428
4241.057	2396
4242.592	2420
4244.128	2392
4245.663	2433
4247.197	2363
4248.731	2446
4250.265	2403
4251.798	2361
4253.333	2355
4254.865	2368
4256.397	2427
4257.93	2345
4259.461	2455
4260.994	2339
4262.525	2388
4264.056	2387
4265.586	2323
4267.115	2371
4268.646	2344
4270.176	2388
4271.705	2348
4273.232	2389
4274.761	2410
4276.289	2386
4277.818	2295
4279.345	2348
4280.872	2354
4282.399	2282
4283.924	2377
4285.452	2372
4286.976	2319
4288.502	2345
4290.026	2273
4291.551	2282
4293.074	2369
4294.6	2307
4296.123	2319
4297.646	2351
4299.168	2273
4300.691	2301
4302.214	2290
4303.736	2355
4305.257	2321
4306.778	2326
4308.299	2315
4309.82	2310
4311.34	2273
4312.86	2328
4314.379	2274
