400.0745	3999
402.597	3983
405.1208	4050
407.6419	4122
410.1623	4072
412.6819	4122
415.201	4100
417.7172	4067
420.2369	4209
422.7538	4228
425.2701	4280
427.7856	4421
430.3005	4462
432.8147	4360
435.3282	4427
437.841	4388
440.3511	4318
442.8625	4359
445.3753	4408
447.8854	4350
450.3927	4310
452.9014	4276
455.4073	4292
457.9146	4327
460.4233	4336
462.9272	4247
465.4325	4257
467.935	4268
470.4389	4272
472.9421	4321
475.4446	4303
477.9444	4273
480.4456	4270
482.944	4343
485.4417	4287
487.9429	4250
490.4393	4368
492.935	4257
495.4321	4280
497.9264	4314
500.4221	4361
502.9171	4324
505.4094	4342
507.9011	4308
510.392	4310
512.8864	4437
515.3759	4479
517.8649	4486
520.3531	4430
522.8406	4448
525.3275	4381
527.8178	4364
530.3033	4392
532.7881	4345
535.2723	4426
537.7558	4504
540.2407	4435
542.7228	4413
545.2043	4519
547.6851	4481
550.1652	4461
552.6467	4427
555.1255	4469
557.6016	4481
560.079	4439
562.5557	4556
565.0318	4454
567.5092	4572
569.984	4566
572.456	4643
574.9294	4684
577.4022	4646
579.8762	4674
582.3456	4728
584.8163	4764
587.2863	4680
589.7557	4798
592.2224	4691
594.6924	4694
597.1578	4679
599.6245	4652
602.0905	4590
604.5538	4691
607.0206	4604
609.4825	4648
611.9459	4670
614.4066	4674
616.8686	4700
619.33	4579
621.7906	4634
624.2487	4576
626.708	4548
629.1647	4501
631.6207	4514
634.0801	4550
636.5348	4581
638.9888	4515
641.4442	4573
643.8969	4607
646.3509	4617
648.8022	4573
651.255	4578
653.705	4582
656.1544	4599
658.6031	4592
661.0532	4620
663.5026	4596
665.9493	4698
668.3954	4666
670.8409	4542
673.2877	4722
675.7318	4719
678.1752	4599
680.618	4790
683.0601	4685
685.5035	4771
687.9444	4640
690.3845	4774
692.824	4667
695.2628	4672
697.701	4789
700.1406	4753
702.5774	4794
705.0116	4761
707.4472	4812
709.8821	4762
712.3183	4791
714.7519	4709
717.1829	4692
719.6151	4881
722.0468	4912
724.4777	4880
726.908	4870
729.3377	4892
731.7667	4873
734.1931	4856
736.6208	4820
739.0498	4952
741.4742	4908
743.9	4928
746.3231	5005
748.7476	4984
751.1713	5002
753.5945	5036
756.015	4991
758.4368	4898
760.856	5026
763.2766	4948
765.6965	5062
768.1157	4985
770.5323	5069
772.9483	5072
775.3656	5014
777.7822	5118
780.1963	5041
782.6116	5027
785.0244	5033
787.4365	5096
789.8499	5134
792.2626	5088
794.6728	5120
797.0823	5084
799.4911	5045
801.8994	5068
804.3109	5116
806.7178	5081
809.124	5134
811.5297	5075
813.9347	5250
816.341	5153
818.7447	5103
821.1478	5131
823.5502	5127
825.952	5152
828.3531	5186
830.7556	5145
833.1554	5192
835.5546	5160
837.9532	5199
840.3511	5190
842.7504	5269
845.1451	5247
847.5411	5316
849.9365	5335
852.3312	5371
854.7272	5372
857.1187	5239
859.5115	5310
861.9037	5231
864.2952	5429
866.6842	5268
869.0764	5343
871.4661	5273
873.8531	5281
876.2415	5212
878.6272	5325
881.0162	5316
883.4026	5340
885.7866	5381
888.1717	5377
890.5543	5236
892.9382	5263
895.3215	5308
897.7041	5182
900.0842	5192
902.4655	5360
904.8443	5307
907.2244	5297
909.6039	5320
911.9808	5416
914.357	5401
916.7346	5469
919.1115	5540
921.4859	5509
923.8616	5542
926.2347	5663
928.6071	5528
930.979	5705
933.3541	5657
935.7247	5623
938.0946	5674
940.4639	5880
942.8326	5856
945.2026	6047
947.5701	6098
949.9369	6306
952.305	6704
954.6705	6909
957.0355	7412
959.4017	7709
961.7654	7993
964.1284	8018
966.4908	7602
968.8527	7099
971.2138	6662
973.5743	6258
975.9343	6047
978.2936	5843
980.6522	5715
983.0122	5728
985.3696	5542
987.7245	5544
990.0807	5517
992.4362	5506
994.7911	5567
997.1474	5454
999.4991	5502
1001.852	5599
1004.205	5711
1006.555	5671
1008.908	5591
1011.258	5469
1013.606	5515
1015.956	5478
1018.302	5569
1020.652	5544
1022.998	5597
1025.345	5496
1027.691	5635
1030.035	5717
1032.378	5631
1034.724	5653
1037.066	5745
1039.409	5654
1041.75	5631
1044.092	5729
1046.433	5708
1048.771	5627
1051.112	5729
1053.449	5581
1055.786	5644
1058.124	5716
1060.462	5692
1062.797	5812
1065.131	5799
1067.467	5745
1069.8	5763
1072.135	5869
1074.467	5963
1076.798	5886
1079.129	5765
1081.459	5810
1083.792	5714
1086.121	5782
1088.449	5630
1090.777	5784
1093.104	5752
1095.431	5642
1097.759	5620
1100.084	5624
1102.408	5614
1104.732	5626
1107.056	5649
1109.379	5572
1111.701	5585
1114.022	5588
1116.343	5563
1118.664	5649
1120.983	5580
1123.303	5574
1125.621	5472
1127.939	5636
1130.256	5590
1132.573	5544
1134.889	5571
1137.205	5503
1139.52	5552
1141.832	5531
1144.146	5633
1146.461	5559
1148.771	5541
1151.083	5501
1153.392	5430
1155.703	5489
1158.011	5530
1160.323	5627
1162.629	5541
1164.938	5565
1167.243	5626
1169.55	5671
1171.857	5505
1174.163	5646
1176.466	5625
1178.769	5573
1181.073	5584
1183.374	5549
1185.677	5631
1187.979	5505
1190.279	5550
1192.578	5541
1194.878	5480
1197.178	5560
1199.476	5639
1201.772	5581
1204.068	5632
1206.366	5623
1208.663	5655
1210.957	5628
1213.251	5663
1215.544	5659
1217.836	5620
1220.128	5717
1222.421	5602
1224.712	5667
1227.002	5692
1229.292	5748
1231.581	5809
1233.871	5767
1236.159	5831
1238.446	5861
1240.732	5807
1243.018	5869
1245.304	5843
1247.59	5893
1249.874	5938
1252.156	5968
1254.439	5953
1256.721	5783
1259.005	6026
1261.286	5879
1263.565	5929
1265.845	5877
1268.125	5895
1270.403	5715
1272.682	5843
1274.959	6051
1277.234	5805
1279.511	5845
1281.787	5802
1284.062	5906
1286.337	5812
1288.609	5844
1290.882	5819
1293.153	5776
1295.428	5745
1297.698	5714
1299.969	5753
1302.237	5771
1304.507	5598
1306.777	5689
1309.044	5776
1311.312	5553
1313.578	5704
1315.844	5820
1318.109	5767
1320.375	5788
1322.638	5665
1324.903	5747
1327.165	5611
1329.427	5741
1331.69	5659
1333.952	5794
1336.212	5807
1338.471	5729
1340.73	5702
1342.988	5697
1345.248	5763
1347.505	5643
1349.763	5720
1352.019	5662
1354.274	5710
1356.53	5678
1358.784	5753
1361.038	5646
1363.291	5632
1365.543	5726
1367.797	5620
1370.048	5758
1372.296	5662
1374.546	5639
1376.796	5681
1379.045	5621
1381.295	5801
1383.542	5747
1385.787	5769
1388.034	5733
1390.28	5857
1392.527	5816
1394.772	5746
1397.014	5804
1399.258	5778
1401.501	5772
1403.741	5854
1405.985	5765
1408.226	5878
1410.465	5908
1412.705	5760
1414.943	5868
1417.184	5963
1419.42	5927
1421.658	5838
1423.894	5906
1426.13	5876
1428.366	5906
1430.602	5880
1432.835	5900
1435.069	6002
1437.301	5993
1439.535	6032
1441.767	6078
1443.997	6069
1446.229	6056
1448.458	6158
1450.687	6002
1452.916	6048
1455.146	6175
1457.372	6084
1459.599	6023
1461.824	6005
1464.051	6065
1466.277	6084
1468.501	5970
1470.725	6021
1472.948	5941
1475.17	5942
1477.393	5879
1479.614	5861
1481.837	5909
1484.057	5816
1486.276	5776
1488.497	5737
1490.715	5683
1492.932	5680
1495.148	5677
1497.364	5751
1499.58	5620
1501.798	5696
1504.012	5652
1506.227	5707
1508.44	5628
1510.653	5661
1512.866	5771
1515.078	5674
1517.289	5642
1519.5	5568
1521.711	5584
1523.92	5725
1526.13	5677
1528.338	5662
1530.544	5635
1532.752	5661
1534.959	5709
1537.165	5610
1539.371	5694
1541.574	5631
1543.779	5684
1545.983	5719
1548.187	5747
1550.39	5725
1552.59	5706
1554.792	5738
1556.991	5738
1559.19	5688
1561.392	5715
1563.59	5763
1565.789	5774
1567.986	5708
1570.182	5753
1572.381	5771
1574.576	5740
1576.771	5845
1578.966	5856
1581.16	5775
1583.354	5912
1585.546	5875
1587.74	5721
1589.931	5816
1592.121	5840
1594.311	5786
1596.502	5805
1598.693	5783
1600.881	5768
1603.069	5919
1605.256	5978
1607.445	5890
1609.631	5816
1611.816	5952
1614.001	5791
1616.186	5938
1618.37	5834
1620.555	5803
1622.737	5947
1624.919	5806
1627.101	5859
1629.282	5931
1631.463	5990
1633.643	6076
1635.822	5993
1638.001	5996
1640.179	6096
1642.359	6031
1644.534	6127
1646.711	6014
1648.887	5985
1651.062	6120
1653.235	5948
1655.412	6098
1657.586	6096
1659.757	6217
1661.93	5988
1664.1	6112
1666.274	6120
1668.445	6087
1670.614	6175
1672.784	6123
1674.951	6159
1677.12	6053
1679.289	6136
1681.457	6051
1683.622	6055
1685.789	6130
1687.953	6080
1690.121	6081
1692.284	6057
1694.447	5959
1696.611	5972
1698.772	5993
1700.935	5900
1703.098	5899
1705.258	5892
1707.417	5889
1709.576	5815
1711.736	5796
1713.896	5894
1716.053	5814
1718.21	5677
1720.366	5806
1722.522	5752
1724.68	5849
1726.835	5747
1728.989	5776
1731.142	5755
1733.295	5783
1735.449	5778
1737.601	5814
1739.753	5839
1741.903	5744
1744.054	5783
1746.203	5736
1748.354	5742
1750.503	5857
1752.651	5751
1754.798	5882
1756.944	5853
1759.092	5857
1761.238	5834
1763.383	5836
1765.528	5855
1767.672	5877
1769.814	5987
1771.959	5834
1774.102	5821
1776.242	5771
1778.384	5943
1780.525	5910
1782.665	5808
1784.805	5860
1786.945	5843
1789.082	5836
1791.22	5975
1793.36	5848
1795.495	5935
1797.632	5778
1799.766	5840
1801.902	5896
1804.035	5889
1806.172	5826
1808.304	5801
1810.436	5829
1812.569	5828
1814.699	5890
1816.833	5867
1818.963	5795
1821.092	5866
1823.222	5891
1825.35	5832
1827.478	5912
1829.608	5847
1831.734	5793
1833.86	5943
1835.986	5861
1838.11	5713
1840.238	6035
1842.362	5722
1844.485	5826
1846.608	5838
1848.73	5997
1850.853	5853
1852.974	5816
1855.097	5884
1857.217	5848
1859.336	5797
1861.455	5782
1863.576	5750
1865.693	5905
1867.811	5870
1869.926	5813
1872.042	5852
1874.16	5836
1876.275	5765
1878.39	5818
1880.504	5816
1882.618	5713
1884.731	5795
1886.843	5865
1888.956	5720
1891.067	5855
1893.178	5831
1895.287	5855
1897.399	5869
1899.508	5896
1901.617	5898
1903.724	5815
1905.832	5963
1907.941	5857
1910.046	5885
1912.152	5894
1914.256	5957
1916.361	5856
1918.464	5863
1920.57	5800
1922.672	5887
1924.775	5899
1926.876	5886
1928.978	5936
1931.08	5948
1933.181	5909
1935.28	5878
1937.38	6025
1939.478	5949
1941.577	6015
1943.675	5978
1945.771	5994
1947.867	5911
1949.964	5893
1952.058	6007
1954.154	5916
1956.248	5991
1958.343	5947
1960.435	5956
1962.527	5988
1964.62	5846
1966.711	5961
1968.802	5954
1970.892	5935
1972.983	5921
1975.072	6005
1977.162	5983
1979.25	5823
1981.337	5936
1983.424	5842
1985.51	5959
1987.598	5939
1989.683	5854
1991.768	5899
1993.852	5897
1995.934	5926
1998.019	5872
2000.102	5884
2002.184	5921
2004.266	5840
2006.347	5819
2008.427	5976
2010.508	5934
2012.587	5838
2014.666	5883
2016.745	5942
2018.821	5857
2020.9	5918
2022.977	5922
2025.052	5860
2027.128	5821
2029.204	5883
2031.277	5806
2033.353	5849
2035.425	5838
2037.499	5983
2039.57	5941
2041.642	6037
2043.714	5962
2045.786	5882
2047.855	5837
2049.925	5894
2051.993	5857
2054.064	5874
2056.132	5873
2058.2	5933
2060.266	6017
2062.332	5871
2064.398	5846
2066.465	5830
2068.529	5899
2070.592	5941
2072.657	6021
2074.719	5863
2076.783	5834
2078.845	5981
2080.907	5908
2082.968	5856
2085.028	5872
2087.087	5908
2089.148	5868
2091.207	6045
2093.264	5882
2095.322	5944
2097.379	5951
2099.439	5974
2101.495	5886
2103.55	5979
2105.605	5892
2107.658	5884
2109.713	5939
2111.767	5810
2113.82	5893
2115.872	5825
2117.924	5876
2119.975	5919
2122.028	5956
2124.078	5934
2126.126	5840
2128.176	5970
2130.225	5934
2132.275	5842
2134.321	5832
2136.368	5833
2138.415	5890
2140.461	5940
2142.505	5714
2144.552	5923
2146.597	5939
2148.64	5980
2150.684	5818
2152.725	5765
2154.77	5890
2156.811	5876
2158.852	5836
2160.894	5800
2162.933	5847
2164.973	5870
2167.013	5895
2169.051	5833
2171.089	5880
2173.126	5776
2175.164	5804
2177.201	5746
2179.236	5777
2181.273	5781
2183.307	5750
2185.341	5812
2187.377	5808
2189.41	5837
2191.442	5765
2193.473	5785
2195.506	5805
2197.539	5799
2199.569	5721
2201.598	5709
2203.628	5825
2205.656	5826
2207.686	5724
2209.716	5824
2211.743	5721
2213.769	5898
2215.796	5699
2217.821	5705
2219.848	5702
2221.873	5696
2223.897	5728
2225.921	5751
2227.944	5731
2229.967	5665
2231.991	5629
2234.011	5737
2236.032	5643
2238.053	5638
2240.073	5669
2242.094	5662
2244.114	5775
2246.131	5754
2248.149	5735
2250.167	5663
2252.186	5793
2254.201	5724
2256.218	5694
2258.233	5689
2260.247	5799
2262.262	5642
2264.278	5734
2266.29	5778
2268.303	5613
2270.315	5653
2272.327	5678
2274.341	5817
2276.35	5672
2278.361	5690
2280.37	5724
2282.38	5714
2284.388	5613
2286.397	5749
2288.405	5740
2290.412	5715
2292.419	5876
2294.425	5755
2296.431	5796
2298.437	5684
2300.441	5742
2302.445	5717
2304.449	5720
2306.453	5610
2308.455	5767
2310.457	5691
2312.459	5774
2314.46	5644
2316.46	5645
2318.461	5668
2320.46	5660
2322.458	5608
2324.458	5761
2326.456	5647
2328.455	5624
2330.451	5613
2332.447	5559
2334.443	5621
2336.438	5660
2338.433	5579
2340.429	5581
2342.422	5545
2344.416	5561
2346.408	5622
2348.399	5582
2350.393	5605
2352.384	5605
2354.375	5605
2356.365	5604
2358.355	5583
2360.344	5605
2362.333	5594
2364.322	5568
2366.309	5676
2368.295	5595
2370.282	5589
2372.27	5622
2374.256	5413
2376.24	5576
2378.225	5519
2380.208	5496
2382.194	5447
2384.177	5597
2386.159	5460
2388.142	5493
2390.122	5503
2392.105	5545
2394.085	5482
2396.066	5559
2398.044	5642
2400.024	5554
2402.002	5476
2403.982	5484
2405.959	5522
2407.935	5518
2409.913	5444
2411.888	5477
2413.865	5492
2415.84	5480
2417.814	5434
2419.788	5529
2421.762	5551
2423.735	5436
2425.708	5552
2427.68	5478
2429.651	5461
2431.623	5549
2433.593	5473
2435.564	5437
2437.533	5624
2439.502	5463
2441.47	5625
2443.438	5450
2445.406	5459
2447.373	5487
2449.34	5492
2451.305	5517
2453.271	5517
2455.235	5480
2457.201	5512
2459.165	5515
2461.129	5574
2463.092	5465
2465.054	5381
2467.018	5472
2468.978	5498
2470.939	5364
2472.899	5423
2474.86	5473
2476.819	5468
2478.778	5380
2480.737	5497
2482.695	5422
2484.653	5418
2486.609	5443
2488.567	5447
2490.524	5377
2492.478	5379
2494.433	5416
2496.387	5359
2498.343	5388
2500.297	5390
2502.249	5395
2504.202	5491
2506.153	5349
2508.105	5379
2510.057	5369
2512.008	5377
2513.957	5416
2515.906	5375
2517.855	5495
2519.805	5346
2521.754	5233
2523.7	5405
2525.647	5393
2527.594	5367
2529.54	5387
2531.486	5376
2533.431	5486
2535.376	5316
2537.32	5462
2539.263	5334
2541.207	5329
2543.151	5379
2545.093	5306
2547.034	5328
2548.975	5363
2550.917	5337
2552.856	5420
2554.796	5283
2556.735	5409
2558.673	5365
2560.611	5363
2562.55	5329
2564.487	5466
2566.424	5299
2568.36	5321
2570.296	5316
2572.232	5329
2574.167	5422
2576.101	5259
2578.035	5314
2579.969	5396
2581.902	5354
2583.834	5420
2585.766	5386
2587.698	5274
2589.628	5330
2591.557	5378
2593.489	5377
2595.419	5448
2597.348	5312
2599.275	5281
2601.204	5435
2603.131	5288
2605.059	5373
2606.986	5326
2608.911	5304
2610.837	5402
2612.76	5372
2614.687	5415
2616.61	5310
2618.534	5473
2620.457	5473
2622.38	5345
2624.302	5447
2626.225	5311
2628.145	5360
2630.067	5387
2631.986	5384
2633.906	5362
2635.827	5331
2637.745	5417
2639.662	5318
2641.581	5374
2643.498	5314
2645.415	5409
2647.331	5464
2649.248	5344
2651.163	5275
2653.077	5311
2654.993	5213
2656.906	5290
2658.821	5369
2660.733	5348
2662.646	5349
2664.557	5353
2666.47	5380
2668.381	5293
2670.291	5268
2672.201	5308
2674.11	5290
2676.021	5410
2677.929	5322
2679.837	5276
2681.745	5291
2683.652	5200
2685.56	5318
2687.466	5298
2689.371	5293
2691.276	5312
2693.181	5341
2695.085	5319
2696.991	5182
2698.893	5348
2700.796	5274
2702.698	5249
2704.601	5246
2706.502	5330
2708.404	5194
2710.304	5197
2712.203	5228
2714.103	5214
2716.003	5279
2717.902	5275
2719.8	5182
2721.697	5215
2723.594	5249
2725.49	5301
2727.389	5323
2729.283	5221
2731.179	5171
2733.073	5301
2734.968	5132
2736.863	5130
2738.757	5250
2740.649	5234
2742.541	5270
2744.433	5215
2746.324	5188
2748.216	5189
2750.107	5275
2751.997	5192
2753.886	5248
2755.776	5145
2757.666	5208
2759.553	5138
2761.44	5244
2763.327	5252
2765.215	5221
2767.102	5173
2768.988	5189
2770.873	5123
2772.757	5213
2774.641	5262
2776.525	5231
2778.41	5064
2780.292	5171
2782.175	5230
2784.057	5323
2785.938	5171
2787.821	5197
2789.701	5179
2791.581	5179
2793.461	5064
2795.34	5095
2797.219	5135
2799.099	5141
2800.975	5198
2802.853	5093
2804.73	5199
2806.606	5122
2808.484	5182
2810.358	5191
2812.233	5162
2814.108	5184
2815.981	5164
2817.857	5062
2819.73	5093
2821.602	5130
2823.474	5178
2825.346	5152
2827.217	4974
2829.089	5188
2830.959	5043
2832.829	5199
2834.698	5036
2836.567	5142
2838.436	5140
2840.305	5155
2842.172	5138
2844.04	5133
2845.905	5049
2847.772	5165
2849.639	5125
2851.503	5073
2853.369	5239
2855.232	5179
2857.096	5133
2858.961	5253
2860.824	5316
2862.686	5296
2864.547	5296
2866.41	5355
2868.272	5442
2870.132	5481
2871.992	5457
2873.851	5634
2875.711	5561
2877.57	5705
2879.429	5737
2881.287	5806
2883.144	5834
2885.001	5780
2886.857	5876
2888.714	5805
2890.57	5843
2892.425	5720
2894.279	5755
2896.133	5693
2897.987	5775
2899.842	5636
2901.694	5786
2903.547	5733
2905.397	5717
2907.249	5738
2909.101	5799
2910.952	5723
2912.802	5877
2914.652	5951
2916.5	5933
2918.35	6079
2920.198	6189
2922.045	6163
2923.893	6192
2925.74	6398
2927.585	6444
2929.433	6522
2931.279	6534
2933.123	6836
2934.968	6684
2936.811	6783
2938.656	6929
2940.5	6868
2942.342	6939
2944.185	7036
2946.026	6974
2947.87	6920
2949.71	7007
2951.549	6852
2953.39	6770
2955.229	6661
2957.069	6606
2958.908	6559
2960.746	6472
2962.584	6355
2964.421	6237
2966.257	6427
2968.094	6303
2969.931	6267
2971.766	6152
2973.601	6077
2975.435	6032
2977.27	6166
2979.105	6003
2980.938	6088
2982.77	5976
2984.602	5926
2986.434	5973
2988.267	5885
2990.097	5968
2991.927	5816
2993.757	5866
2995.587	5772
2997.417	5701
2999.246	5744
3001.074	5585
3002.902	5508
3004.729	5446
3006.556	5474
3008.384	5403
3010.21	5345
3012.036	5207
3013.861	5234
3015.684	5223
3017.51	5118
3019.334	4994
3021.157	5089
3022.981	5018
3024.802	5054
3026.624	4975
3028.448	4965
3030.267	4995
3032.088	4937
3033.909	5013
3035.728	4939
3037.549	4808
3039.368	4946
3041.186	4886
3043.004	4874
3044.821	4793
3046.64	4818
3048.455	4815
3050.272	4840
3052.087	4808
3053.903	4830
3055.717	4802
3057.534	4925
3059.347	4869
3061.16	4849
3062.974	4836
3064.785	4838
3066.598	4715
3068.411	4878
3070.222	4805
3072.032	4758
3073.844	4778
3075.653	4791
3077.463	4762
3079.272	4761
3081.08	4662
3082.889	4838
3084.697	4671
3086.505	4625
3088.312	4674
3090.118	4733
3091.924	4606
3093.729	4610
3095.535	4753
3097.34	4690
3099.144	4736
3100.947	4682
3102.75	4667
3104.553	4620
3106.357	4625
3108.159	4658
3109.961	4600
3111.762	4564
3113.562	4717
3115.365	4661
3117.164	4571
3118.964	4779
3120.761	4654
3122.56	4636
3124.36	4633
3126.158	4609
3127.954	4591
3129.75	4570
3131.547	4663
3133.343	4602
3135.139	4492
3136.934	4590
3138.729	4664
3140.522	4575
3142.317	4557
3144.11	4606
3145.904	4587
3147.695	4627
3149.488	4581
3151.28	4593
3153.07	4564
3154.863	4465
3156.652	4584
3158.441	4559
3160.231	4555
3162.019	4574
3163.81	4626
3165.597	4490
3167.384	4425
3169.172	4578
3170.958	4579
3172.745	4515
3174.532	4595
3176.317	4505
3178.101	4527
3179.885	4473
3181.67	4577
3183.455	4561
3185.238	4519
3187.02	4471
3188.802	4578
3190.585	4489
3192.368	4494
3194.149	4571
3195.929	4433
3197.709	4511
3199.489	4582
3201.268	4566
3203.048	4559
3204.826	4557
3206.604	4543
3208.382	4465
3210.159	4561
3211.937	4443
3213.713	4507
3215.489	4452
3217.263	4514
3219.038	4514
3220.815	4509
3222.589	4604
3224.363	4524
3226.136	4425
3227.908	4619
3229.681	4441
3231.454	4516
3233.226	4485
3234.996	4507
3236.767	4542
3238.538	4493
3240.308	4580
3242.078	4542
3243.847	4503
3245.615	4510
3247.384	4498
3249.15	4657
3250.92	4496
3252.686	4529
3254.453	4527
3256.218	4554
3257.984	4450
3259.75	4479
3261.515	4557
3263.279	4515
3265.044	4473
3266.806	4481
3268.57	4620
3270.334	4521
3272.095	4601
3273.856	4413
3275.619	4505
3277.379	4542
3279.14	4603
3280.9	4560
3282.661	4524
3284.419	4609
3286.178	4555
3287.937	4521
3289.695	4525
3291.453	4599
3293.21	4616
3294.967	4654
3296.723	4650
3298.48	4601
3300.235	4576
3301.99	4622
3303.744	4536
3305.498	4612
3307.253	4619
3309.006	4466
3310.759	4537
3312.511	4558
3314.263	4560
3316.017	4506
3317.768	4522
3319.519	4553
3321.268	4462
3323.018	4567
3324.767	4674
3326.518	4549
3328.267	4611
3330.014	4518
3331.762	4479
3333.509	4577
3335.258	4490
3337.003	4583
3338.75	4624
3340.496	4599
3342.24	4490
3343.987	4490
3345.732	4556
3347.475	4464
3349.219	4497
3350.961	4500
3352.705	4532
3354.448	4474
3356.19	4498
3357.931	4491
3359.672	4397
3361.412	4411
3363.155	4469
3364.894	4495
3366.633	4470
3368.372	4448
3370.11	4427
3371.849	4437
3373.588	4361
3375.325	4461
3377.061	4503
3378.799	4459
3380.534	4459
3382.271	4421
3384.006	4436
3385.741	4347
3387.475	4396
3389.209	4486
3390.944	4404
3392.677	4345
3394.409	4418
3396.143	4326
3397.874	4386
3399.606	4355
3401.338	4418
3403.069	4408
3404.799	4293
3406.528	4346
3408.258	4302
3409.988	4404
3411.717	4315
3413.445	4417
3415.173	4394
3416.899	4239
3418.626	4367
3420.354	4362
3422.08	4341
3423.806	4330
3425.531	4318
3427.255	4319
3428.981	4288
3430.705	4381
3432.429	4322
3434.151	4319
3435.875	4295
3437.599	4267
3439.321	4259
3441.042	4285
3442.763	4323
3444.483	4197
3446.204	4285
3447.926	4254
3449.645	4242
3451.364	4236
3453.082	4242
3454.801	4156
3456.52	4239
3458.238	4223
3459.954	4170
3461.671	4142
3463.387	4119
3465.104	4181
3466.82	4124
3468.534	4122
3470.25	4161
3471.963	4137
3473.676	4129
3475.392	4176
3477.104	4106
3478.817	4099
3480.528	4161
3482.241	4084
3483.954	4091
3485.664	4126
3487.374	4005
3489.084	4114
3490.795	4073
3492.504	4082
3494.214	4053
3495.922	4129
3497.63	4068
3499.338	4074
3501.045	4028
3502.753	4040
3504.459	4080
3506.166	4030
3507.871	3965
3509.576	3961
3511.283	3980
3512.987	3922
3514.691	3977
3516.395	4052
3518.098	3902
3519.8	4041
3521.504	3989
3523.206	3986
3524.908	3993
3526.609	3986
3528.309	3977
3530.011	3972
3531.711	3962
3533.411	3982
3535.109	3927
3536.808	3876
3538.507	3972
3540.206	3889
3541.904	3920
3543.601	3871
3545.297	3989
3546.994	3882
3548.69	3992
3550.387	3951
3552.081	3856
3553.776	3828
3555.47	3839
3557.166	3772
3558.859	3864
3560.553	3826
3562.245	3878
3563.938	3910
3565.629	3845
3567.322	3855
3569.014	3778
3570.704	3898
3572.394	3923
3574.084	3855
3575.775	3766
3577.464	3832
3579.152	3855
3580.842	3797
3582.529	3805
3584.216	3798
3585.905	3750
3587.591	3778
3589.279	3778
3590.964	3860
3592.649	3829
3594.336	3761
3596.021	3722
3597.705	3737
3599.388	3745
3601.072	3764
3602.757	3693
3604.439	3677
3606.122	3709
3607.803	3762
3609.485	3633
3611.167	3697
3612.849	3688
3614.529	3665
3616.208	3686
3617.888	3650
3619.567	3652
3621.247	3683
3622.926	3606
3624.603	3549
3626.281	3600
3627.958	3609
3629.635	3650
3631.312	3644
3632.989	3553
3634.665	3592
3636.339	3516
3638.014	3646
3639.691	3642
3641.364	3617
3643.038	3559
3644.71	3516
3646.384	3614
3648.058	3467
3649.729	3462
3651.402	3513
3653.073	3509
3654.744	3517
3656.414	3605
3658.085	3465
3659.755	3517
3661.424	3511
3663.094	3454
3664.762	3523
3666.431	3454
3668.099	3439
3669.766	3464
3671.433	3463
3673.099	3466
3674.768	3435
3676.433	3467
3678.098	3483
3679.763	3469
3681.428	3500
3683.093	3491
3684.757	3511
3686.421	3412
3688.083	3356
3689.746	3424
3691.408	3433
3693.071	3427
3694.733	3476
3696.394	3395
3698.054	3448
3699.715	3436
3701.375	3416
3703.036	3382
3704.695	3432
3706.354	3377
3708.012	3455
3709.67	3401
3711.329	3442
3712.987	3409
3714.644	3380
3716.299	3425
3717.955	3332
3719.613	3386
3721.268	3360
3722.923	3315
3724.577	3365
3726.231	3329
3727.885	3385
3729.539	3417
3731.192	3379
3732.845	3418
3734.497	3396
3736.149	3301
3737.802	3384
3739.453	3257
3741.104	3367
3742.753	3288
3744.404	3346
3746.052	3366
3747.704	3245
3749.352	3287
3751	3305
3752.648	3282
3754.296	3302
3755.944	3304
3757.59	3295
3759.238	3274
3760.883	3316
3762.528	3318
3764.176	3271
3765.82	3237
3767.464	3275
3769.109	3303
3770.753	3278
3772.396	3250
3774.04	3291
3775.683	3261
3777.325	3202
3778.967	3244
3780.608	3305
3782.25	3229
3783.89	3227
3785.531	3160
3787.17	3289
3788.81	3255
3790.45	3280
3792.09	3267
3793.729	3180
3795.366	3236
3797.003	3221
3798.64	3239
3800.278	3200
3801.915	3212
3803.551	3298
3805.187	3210
3806.822	3230
3808.458	3259
3810.093	3213
3811.726	3182
3813.36	3210
3814.994	3149
3816.627	3198
3818.262	3131
3819.893	3166
3821.525	3140
3823.157	3162
3824.787	3198
3826.42	3122
3828.051	3166
3829.68	3184
3831.31	3053
3832.938	3149
3834.569	3179
3836.198	3171
3837.825	3123
3839.454	3133
3841.08	3127
3842.708	3184
3844.335	3038
3845.962	3140
3847.587	3110
3849.212	3044
3850.838	3145
3852.463	3173
3854.089	3104
3855.712	3113
3857.335	3107
3858.959	3110
3860.582	3078
3862.205	3064
3863.827	3134
3865.449	3071
3867.07	3086
3868.691	3082
3870.312	3093
3871.933	3133
3873.553	3082
3875.173	3108
3876.792	3082
3878.411	3036
3880.03	3089
3881.647	3059
3883.265	3064
3884.882	3028
3886.499	3083
3888.116	3072
3889.732	3103
3891.348	3102
3892.964	3143
3894.579	3073
3896.195	3014
3897.809	3112
3899.423	3041
3901.036	3059
3902.648	3007
3904.261	3070
3905.875	3125
3907.487	3037
3909.099	3039
3910.709	3032
3912.321	2956
3913.933	3060
3915.542	3000
3917.152	3006
3918.762	3002
3920.37	3032
3921.98	3000
3923.589	3020
3925.196	3035
3926.804	2998
3928.41	3061
3930.018	3005
3931.626	3063
3933.231	2970
3934.838	2949
3936.442	3020
3938.046	2906
3939.653	2905
3941.257	2965
3942.861	2989
3944.464	3060
3946.068	2994
3947.67	2935
3949.273	2973
3950.876	2962
3952.477	3060
3954.078	3054
3955.678	2972
3957.281	3046
3958.881	2991
3960.48	3027
3962.079	2928
3963.678	2936
3965.279	2946
3966.877	2904
3968.475	2925
3970.072	2915
3971.669	2857
3973.266	2919
3974.864	2923
3976.459	2875
3978.055	2888
3979.65	2951
3981.245	2916
3982.841	2882
3984.436	2880
3986.03	2937
3987.623	2906
3989.216	2904
3990.809	2870
3992.403	2801
3993.995	2890
3995.586	2891
3997.177	2848
3998.768	2824
4000.361	2802
4001.951	2878
4003.54	2782
4005.13	2874
4006.719	2790
4008.31	2818
4009.897	2815
4011.485	2814
4013.073	2799
4014.66	2821
4016.247	2779
4017.834	2840
4019.421	2896
4021.006	2825
4022.592	2807
4024.178	2822
4025.763	2827
4027.348	2761
4028.932	2782
4030.515	2794
4032.099	2783
4033.682	2801
4035.266	2757
4036.847	2801
4038.429	2790
4040.011	2784
4041.592	2807
4043.173	2831
4044.755	2786
4046.334	2736
4047.913	2837
4049.494	2679
4051.074	2766
4052.652	2754
4054.23	2754
4055.807	2730
4057.385	2747
4058.963	2732
4060.541	2780
4062.117	2761
4063.693	2757
4065.269	2752
4066.844	2737
4068.42	2787
4069.995	2779
4071.569	2748
4073.143	2677
4074.716	2692
4076.291	2718
4077.864	2689
4079.436	2757
4081.009	2721
4082.58	2711
4084.152	2698
4085.723	2701
4087.294	2709
4088.865	2634
4090.435	2694
4092.005	2716
4093.574	2646
4095.143	2700
4096.712	2646
4098.279	2679
4099.848	2581
4101.416	2632
4102.984	2706
4104.55	2716
4106.117	2731
4107.682	2689
4109.248	2721
4110.815	2660
4112.379	2662
4113.945	2619
4115.508	2635
4117.073	2647
4118.637	2668
4120.201	2657
4121.763	2649
4123.325	2643
4124.888	2583
4126.449	2645
4128.013	2669
4129.573	2622
4131.133	2627
4132.694	2568
4134.254	2568
4135.814	2601
4137.374	2577
4138.933	2622
4140.491	2682
4142.049	2613
4143.607	2621
4145.167	2590
4146.724	2587
4148.28	2575
4149.836	2580
4151.392	2551
4152.949	2576
4154.504	2615
4156.059	2520
4157.614	2523
4159.168	2492
4160.723	2513
4162.277	2575
4163.83	2564
4165.383	2590
4166.936	2587
4168.488	2547
4170.041	2510
4171.593	2495
4173.144	2503
4174.695	2514
4176.246	2573
4177.796	2601
4179.346	2456
4180.896	2538
4182.445	2459
4183.994	2498
4185.542	2488
4187.091	2473
4188.639	2525
4190.185	2478
4191.732	2415
4193.279	2494
4194.826	2473
4196.373	2522
4197.918	2473
4199.463	2500
4201.008	2473
4202.553	2521
4204.098	2447
4205.641	2479
4207.185	2439
4208.728	2452
4210.271	2453
4211.814	2446
4213.357	2401
4214.898	2507
4216.439	2401
4217.98	2407
4219.522	2438
4221.062	2458
4222.603	2390
4224.142	2387
4225.681	2457
4227.222	2400
4228.76	2447
4230.298	2423
4231.835	2398
4233.373	2401
4234.911	2515
4236.449	2422
4237.985	2431
4239.521	2432
4241.057	2439
4242.592	2451
4244.128	2410
4245.663	2406
4247.197	2451
4248.731	2395
4250.265	2396
4251.798	2411
4253.333	2373
4254.865	2424
4256.397	2431
4257.93	2413
4259.461	2413
4260.994	2455
4262.525	2442
4264.056	2431
4265.586	2459
4267.115	2393
4268.646	2397
4270.176	2389
4271.705	2372
4273.232	2422
4274.761	2320
4276.289	2360
4277.818	2403
4279.345	2379
4280.872	2342
4282.399	2381
4283.924	2319
4285.452	2369
4286.976	2393
4288.502	2299
4290.026	2346
4291.551	2458
4293.074	2358
4294.6	2322
4296.123	2313
4297.646	2350
4299.168	2374
4300.691	2342
4302.214	2300
4303.736	2346
4305.257	2313
4306.778	2377
4308.299	2335
4309.82	2244
4311.34	2306
4312.86	2374
4314.379	2280
