400.0745	4762
402.597	4741
405.1208	4807
407.6419	4854
410.1623	4782
412.6819	4809
415.201	4784
417.7172	4814
420.2369	4889
422.7538	4983
425.2701	4962
427.7856	5007
430.3005	5134
432.8147	5061
435.3282	5095
437.841	5063
440.3511	5044
442.8625	5147
445.3753	5159
447.8854	5049
450.3927	5195
452.9014	5084
455.4073	5102
457.9146	5075
460.4233	5071
462.9272	5114
465.4325	5131
467.935	4977
470.4389	5167
472.9421	5101
475.4446	5120
477.9444	5092
480.4456	4935
482.944	5153
485.4417	5151
487.9429	5091
490.4393	5174
492.935	5172
495.4321	5158
497.9264	5153
500.4221	5212
502.9171	5258
505.4094	5241
507.9011	5284
510.392	5209
512.8864	5337
515.3759	5284
517.8649	5183
520.3531	5310
522.8406	5267
525.3275	5260
527.8178	5263
530.3033	5274
532.7881	5278
535.2723	5243
537.7558	5364
540.2407	5242
542.7228	5257
545.2043	5169
547.6851	5337
550.1652	5233
552.6467	5368
555.1255	5356
557.6016	5326
560.079	5434
562.5557	5390
565.0318	5332
567.5092	5470
569.984	5402
572.456	5599
574.9294	5551
577.4022	5470
579.8762	5515
582.3456	5529
584.8163	5562
587.2863	5613
589.7557	5557
592.2224	5643
594.6924	5532
597.1578	5530
599.6245	5448
602.0905	5414
604.5538	5493
607.0206	5478
609.4825	5564
611.9459	5529
614.4066	5474
616.8686	5620
619.33	5473
621.7906	5483
624.2487	5509
626.708	5485
629.1647	5446
631.6207	5534
634.0801	5442
636.5348	5469
638.9888	5463
641.4442	5496
643.8969	5434
646.3509	5467
648.8022	5509
651.255	5473
653.705	5536
656.1544	5572
658.6031	5546
661.0532	5588
663.5026	5607
665.9493	5528
668.3954	5646
670.8409	5601
673.2877	5556
675.7318	5582
678.1752	5584
680.618	5600
683.0601	5707
685.5035	5589
687.9444	5694
690.3845	5649
692.824	5694
695.2628	5672
697.701	5726
700.1406	5666
702.5774	5766
705.0116	5716
707.4472	5721
709.8821	5713
712.3183	5728
714.7519	5814
717.1829	5694
719.6151	5880
722.0468	5764
724.4777	5858
726.908	5972
729.3377	5894
731.7667	5894
734.1931	5790
736.6208	5885
739.0498	5902
741.4742	5916
743.9	5957
746.3231	5870
748.7476	6010
751.1713	5981
753.5945	6049
756.015	5977
758.4368	5964
760.856	5997
763.2766	6038
765.6965	6074
768.1157	6039
770.5323	6131
772.9483	6076
775.3656	6065
777.7822	6076
780.1963	6131
782.6116	6096
785.0244	6069
787.4365	6181
789.8499	6125
792.2626	6072
794.6728	6083
797.0823	6077
799.4911	6160
801.8994	6116
804.3109	6154
806.7178	6173
809.124	6168
811.5297	6271
813.9347	6228
816.341	6237
818.7447	6170
821.1478	6290
823.5502	6277
825.952	6252
828.3531	6226
830.7556	6086
833.1554	6233
835.5546	6168
837.9532	6177
840.3511	6309
842.7504	6220
845.1451	6353
847.5411	6290
849.9365	6281
852.3312	6494
854.7272	6431
857.1187	6410
859.5115	6410
861.9037	6350
864.2952	6268
866.6842	6285
869.0764	6388
871.4661	6301
873.8531	6391
876.2415	6249
878.6272	6303
881.0162	6390
883.4026	6429
885.7866	6426
888.1717	6305
890.5543	6319
892.9382	6201
895.3215	6397
897.7041	6389
900.0842	6241
902.4655	6355
904.8443	6236
907.2244	6313
909.6039	6329
911.9808	6459
914.357	6450
916.7346	6370
919.1115	6570
921.4859	6482
923.8616	6527
926.2347	6669
928.6071	6725
930.979	6525
933.3541	6686
935.7247	6726
938.0946	6736
940.4639	6849
942.8326	6932
945.2026	6907
947.5701	6928
949.9369	7144
952.305	7391
954.6705	7616
957.0355	7858
959.4017	8231
961.7654	8127
964.1284	8254
966.4908	7978
968.8527	7647
971.2138	7457
973.5743	7042
975.9343	6970
978.2936	6748
980.6522	6802
983.0122	6629
985.3696	6669
987.7245	6544
990.0807	6574
992.4362	6554
994.7911	6525
997.1474	6518
999.4991	6457
1001.852	6612
1004.205	6635
1006.555	6651
1008.908	6563
1011.258	6620
1013.606	6429
1015.956	6578
1018.302	6595
1020.652	6566
1022.998	6604
1025.345	6700
1027.691	6729
1030.035	6697
1032.378	6668
1034.724	6782
1037.066	6690
1039.409	6612
1041.75	6636
1044.092	6642
1046.433	6692
1048.771	6593
1051.112	6632
1053.449	6706
1055.786	6607
1058.124	6657
1060.462	6719
1062.797	6737
1065.131	6809
1067.467	6865
1069.8	6813
1072.135	6753
1074.467	6967
1076.798	6850
1079.129	6860
1081.459	6709
1083.792	6722
1086.121	6784
1088.449	6637
1090.777	6703
1093.104	6717
1095.431	6828
1097.759	6700
1100.084	6764
1102.408	6681
1104.732	6674
1107.056	6773
1109.379	6657
1111.701	6767
1114.022	6673
1116.343	6665
1118.664	6721
1120.983	6687
1123.303	6685
1125.621	6652
1127.939	6662
1130.256	6686
1132.573	6791
1134.889	6776
1137.205	6722
1139.52	6663
1141.832	6810
1144.146	6801
1146.461	6672
1148.771	6582
1151.083	6616
1153.392	6693
1155.703	6715
1158.011	6847
1160.323	6682
1162.629	6799
1164.938	6716
1167.243	6628
1169.55	6711
1171.857	6708
1174.163	6773
1176.466	6739
1178.769	6716
1181.073	6759
1183.374	6730
1185.677	6665
1187.979	6749
1190.279	6774
1192.578	6734
1194.878	6750
1197.178	6689
1199.476	6682
1201.772	6790
1204.068	6715
1206.366	6798
1208.663	6693
1210.957	6742
1213.251	6674
1215.544	6665
1217.836	6724
1220.128	6758
1222.421	6727
1224.712	6786
1227.002	6810
1229.292	6729
1231.581	6836
1233.871	6907
1236.159	6968
1238.446	6975
1240.732	6947
1243.018	6971
1245.304	7047
1247.59	7038
1249.874	6941
1252.156	7022
1254.439	7016
1256.721	7086
1259.005	6993
1261.286	7049
1263.565	7106
1265.845	6962
1268.125	6989
1270.403	7044
1272.682	7015
1274.959	7062
1277.234	6985
1279.511	7010
1281.787	6951
1284.062	7028
1286.337	6857
1288.609	6871
1290.882	6910
1293.153	6850
1295.428	6961
1297.698	6888
1299.969	6909
1302.237	6923
1304.507	6745
1306.777	6912
1309.044	6704
1311.312	6920
1313.578	6803
1315.844	6810
1318.109	6881
1320.375	6796
1322.638	6836
1324.903	6990
1327.165	6836
1329.427	6885
1331.69	6817
1333.952	6922
1336.212	6807
1338.471	6998
1340.73	6909
1342.988	6921
1345.248	6770
1347.505	6840
1349.763	6921
1352.019	6921
1354.274	6731
1356.53	6784
1358.784	6852
1361.038	6777
1363.291	6824
1365.543	6844
1367.797	6920
1370.048	6817
1372.296	6823
1374.546	6891
1376.796	6915
1379.045	6792
1381.295	6950
1383.542	6842
1385.787	6868
1388.034	6849
1390.28	7002
1392.527	6879
1394.772	7005
1397.014	6910
1399.258	6974
1401.501	7081
1403.741	7003
1405.985	7022
1408.226	7102
1410.465	6956
1412.705	7058
1414.943	7076
1417.184	7052
1419.42	7083
1421.658	6998
1423.894	7121
1426.13	7038
1428.366	7093
1430.602	6998
1432.835	7057
1435.069	7071
1437.301	7123
1439.535	7172
1441.767	7157
1443.997	7092
1446.229	7204
1448.458	7173
1450.687	7219
1452.916	7265
1455.146	7287
1457.372	7321
1459.599	7329
1461.824	7212
1464.051	7255
1466.277	7169
1468.501	7268
1470.725	7198
1472.948	7099
1475.17	7053
1477.393	7031
1479.614	6930
1481.837	6908
1484.057	7042
1486.276	6966
1488.497	6948
1490.715	6909
1492.932	6870
1495.148	6946
1497.364	6816
1499.58	6844
1501.798	6843
1504.012	6786
1506.227	6753
1508.44	6802
1510.653	6724
1512.866	6868
1515.078	6742
1517.289	6806
1519.5	6826
1521.711	6759
1523.92	6828
1526.13	6791
1528.338	6839
1530.544	6718
1532.752	6818
1534.959	6828
1537.165	6868
1539.371	6888
1541.574	6799
1543.779	6879
1545.983	6761
1548.187	6909
1550.39	6970
1552.59	6923
1554.792	6898
1556.991	6846
1559.19	6978
1561.392	7067
1563.59	7047
1565.789	6870
1567.986	7035
1570.182	6961
1572.381	6969
1574.576	7051
1576.771	6985
1578.966	7037
1581.16	6880
1583.354	7117
1585.546	7074
1587.74	7015
1589.931	7038
1592.121	7002
1594.311	6978
1596.502	6950
1598.693	7037
1600.881	7100
1603.069	7086
1605.256	6980
1607.445	7015
1609.631	6903
1611.816	7099
1614.001	7059
1616.186	7101
1618.37	7033
1620.555	7028
1622.737	7172
1624.919	7129
1627.101	7016
1629.282	7170
1631.463	7115
1633.643	7213
1635.822	7124
1638.001	7206
1640.179	7185
1642.359	7154
1644.534	7216
1646.711	7216
1648.887	7254
1651.062	7211
1653.235	7163
1655.412	7170
1657.586	7218
1659.757	7193
1661.93	7329
1664.1	7187
1666.274	7351
1668.445	7211
1670.614	7373
1672.784	7296
1674.951	7274
1677.12	7296
1679.289	7221
1681.457	7270
1683.622	7326
1685.789	7305
1687.953	7243
1690.121	7248
1692.284	7114
1694.447	7151
1696.611	7283
1698.772	7056
1700.935	6983
1703.098	7111
1705.258	7015
1707.417	7058
1709.576	6955
1711.736	6988
1713.896	6946
1716.053	6967
1718.21	7025
1720.366	6961
1722.522	6930
1724.68	6966
1726.835	7123
1728.989	6973
1731.142	6985
1733.295	6954
1735.449	7035
1737.601	6949
1739.753	7056
1741.903	6951
1744.054	6889
1746.203	6962
1748.354	6997
1750.503	6992
1752.651	7039
1754.798	7052
1756.944	7030
1759.092	6980
1761.238	6958
1763.383	7081
1765.528	7182
1767.672	7030
1769.814	6968
1771.959	6858
1774.102	7033
1776.242	7033
1778.384	7027
1780.525	7065
1782.665	7111
1784.805	6954
1786.945	7156
1789.082	7074
1791.22	7012
1793.36	7131
1795.495	7097
1797.632	7059
1799.766	7079
1801.902	7006
1804.035	7153
1806.172	7097
1808.304	7102
1810.436	6991
1812.569	6975
1814.699	7183
1816.833	7140
1818.963	7164
1821.092	7053
1823.222	7089
1825.35	7065
1827.478	6996
1829.608	7128
1831.734	7037
1833.86	7081
1835.986	6924
1838.11	7127
1840.238	7088
1842.362	7005
1844.485	6972
1846.608	7023
1848.73	6975
1850.853	6902
1852.974	6925
1855.097	6950
1857.217	6878
1859.336	7046
1861.455	6782
1863.576	6980
1865.693	7027
1867.811	7039
1869.926	7003
1872.042	6990
1874.16	7035
1876.275	6993
1878.39	6939
1880.504	6958
1882.618	6963
1884.731	7087
1886.843	7027
1888.956	6925
1891.067	6962
1893.178	6985
1895.287	7003
1897.399	7070
1899.508	6986
1901.617	7061
1903.724	6987
1905.832	7110
1907.941	7091
1910.046	7071
1912.152	7022
1914.256	6992
1916.361	7133
1918.464	7024
1920.57	7111
1922.672	7082
1924.775	7204
1926.876	7055
1928.978	7148
1931.08	6980
1933.181	7007
1935.28	7185
1937.38	6973
1939.478	7086
1941.577	7190
1943.675	7162
1945.771	7107
1947.867	7118
1949.964	7132
1952.058	7085
1954.154	7130
1956.248	7186
1958.343	7020
1960.435	7084
1962.527	7123
1964.62	7016
1966.711	7103
1968.802	7175
1970.892	7057
1972.983	7020
1975.072	7013
1977.162	7004
1979.25	7025
1981.337	7044
1983.424	7078
1985.51	6979
1987.598	7027
1989.683	7090
1991.768	6982
1993.852	6983
1995.934	7064
1998.019	7156
2000.102	7001
2002.184	7059
2004.266	6958
2006.347	7041
2008.427	6929
2010.508	6956
2012.587	6955
2014.666	7068
2016.745	6945
2018.821	7043
2020.9	7027
2022.977	7063
2025.052	7013
2027.128	6920
2029.204	6937
2031.277	6939
2033.353	6984
2035.425	6959
2037.499	7120
2039.57	7038
2041.642	7081
2043.714	6974
2045.786	6954
2047.855	6994
2049.925	7033
2051.993	6926
2054.064	7050
2056.132	6964
2058.2	6979
2060.266	7063
2062.332	7060
2064.398	6994
2066.465	6923
2068.529	6978
2070.592	7060
2072.657	6987
2074.719	7050
2076.783	6881
2078.845	7048
2080.907	6983
2082.968	7035
2085.028	7103
2087.087	7049
2089.148	6949
2091.207	6969
2093.264	7018
2095.322	6998
2097.379	6943
2099.439	7029
2101.495	6916
2103.55	7035
2105.605	7028
2107.658	7024
2109.713	6931
2111.767	6959
2113.82	6893
2115.872	7012
2117.924	7014
2119.975	6845
2122.028	7115
2124.078	6949
2126.126	6837
2128.176	7103
2130.225	7073
2132.275	6948
2134.321	7060
2136.368	7001
2138.415	6924
2140.461	7085
2142.505	7011
2144.552	6978
2146.597	6893
2148.64	6919
2150.684	7054
2152.725	6984
2154.77	6918
2156.811	7041
2158.852	6862
2160.894	7065
2162.933	6881
2164.973	6954
2167.013	6916
2169.051	6942
2171.089	7033
2173.126	6901
2175.164	6935
2177.201	6872
2179.236	7017
2181.273	6943
2183.307	7000
2185.341	6898
2187.377	6718
2189.41	6815
2191.442	6805
2193.473	6863
2195.506	6850
2197.539	6933
2199.569	6786
2201.598	6736
2203.628	6846
2205.656	6937
2207.686	6923
2209.716	6910
2211.743	6777
2213.769	6830
2215.796	6842
2217.821	6739
2219.848	6713
2221.873	6918
2223.897	6724
2225.921	6712
2227.944	6834
2229.967	6716
2231.991	6719
2234.011	6919
2236.032	6753
2238.053	6722
2240.073	6805
2242.094	6742
2244.114	6713
2246.131	6748
2248.149	6767
2250.167	6883
2252.186	6725
2254.201	6737
2256.218	6742
2258.233	6667
2260.247	6751
2262.262	6677
2264.278	6733
2266.29	6697
2268.303	6669
2270.315	6786
2272.327	6758
2274.341	6719
2276.35	6817
2278.361	6705
2280.37	6739
2282.38	6771
2284.388	6798
2286.397	6804
2288.405	6747
2290.412	6811
2292.419	6691
2294.425	6742
2296.431	6687
2298.437	6703
2300.441	6686
2302.445	6803
2304.449	6763
2306.453	6786
2308.455	6740
2310.457	6689
2312.459	6667
2314.46	6768
2316.46	6709
2318.461	6661
2320.46	6796
2322.458	6669
2324.458	6721
2326.456	6777
2328.455	6627
2330.451	6715
2332.447	6758
2334.443	6748
2336.438	6580
2338.433	6668
2340.429	6586
2342.422	6578
2344.416	6664
2346.408	6622
2348.399	6650
2350.393	6601
2352.384	6642
2354.375	6620
2356.365	6652
2358.355	6598
2360.344	6748
2362.333	6583
2364.322	6621
2366.309	6605
2368.295	6607
2370.282	6588
2372.27	6627
2374.256	6625
2376.24	6600
2378.225	6598
2380.208	6555
2382.194	6539
2384.177	6551
2386.159	6514
2388.142	6583
2390.122	6502
2392.105	6560
2394.085	6495
2396.066	6535
2398.044	6493
2400.024	6523
2402.002	6534
2403.982	6519
2405.959	6499
2407.935	6442
2409.913	6543
2411.888	6493
2413.865	6543
2415.84	6455
2417.814	6464
2419.788	6541
2421.762	6384
2423.735	6438
2425.708	6541
2427.68	6485
2429.651	6526
2431.623	6570
2433.593	6512
2435.564	6414
2437.533	6558
2439.502	6407
2441.47	6594
2443.438	6641
2445.406	6539
2447.373	6392
2449.34	6540
2451.305	6348
2453.271	6473
2455.235	6498
2457.201	6499
2459.165	6479
2461.129	6395
2463.092	6384
2465.054	6375
2467.018	6421
2468.978	6454
2470.939	6429
2472.899	6421
2474.86	6509
2476.819	6394
2478.778	6519
2480.737	6343
2482.695	6398
2484.653	6388
2486.609	6388
2488.567	6368
2490.524	6375
2492.478	6320
2494.433	6539
2496.387	6240
2498.343	6307
2500.297	6444
2502.249	6361
2504.202	6285
2506.153	6388
2508.105	6326
2510.057	6293
2512.008	6380
2513.957	6330
2515.906	6369
2517.855	6287
2519.805	6281
2521.754	6447
2523.7	6300
2525.647	6341
2527.594	6376
2529.54	6298
2531.486	6405
2533.431	6443
2535.376	6299
2537.32	6295
2539.263	6302
2541.207	6437
2543.151	6350
2545.093	6279
2547.034	6404
2548.975	6407
2550.917	6331
2552.856	6349
2554.796	6345
2556.735	6287
2558.673	6365
2560.611	6253
2562.55	6140
2564.487	6265
2566.424	6270
2568.36	6315
2570.296	6419
2572.232	6346
2574.167	6399
2576.101	6333
2578.035	6258
2579.969	6385
2581.902	6295
2583.834	6218
2585.766	6471
2587.698	6280
2589.628	6309
2591.557	6359
2593.489	6264
2595.419	6336
2597.348	6388
2599.275	6281
2601.204	6260
2603.131	6258
2605.059	6334
2606.986	6312
2608.911	6265
2610.837	6345
2612.76	6306
2614.687	6339
2616.61	6248
2618.534	6324
2620.457	6284
2622.38	6310
2624.302	6402
2626.225	6353
2628.145	6231
2630.067	6280
2631.986	6354
2633.906	6276
2635.827	6329
2637.745	6396
2639.662	6299
2641.581	6310
2643.498	6410
2645.415	6273
2647.331	6418
2649.248	6264
2651.163	6413
2653.077	6335
2654.993	6323
2656.906	6383
2658.821	6361
2660.733	6288
2662.646	6277
2664.557	6300
2666.47	6420
2668.381	6316
2670.291	6311
2672.201	6315
2674.11	6285
2676.021	6228
2677.929	6236
2679.837	6193
2681.745	6117
2683.652	6277
2685.56	6253
2687.466	6189
2689.371	6251
2691.276	6093
2693.181	6267
2695.085	6265
2696.991	6193
2698.893	6341
2700.796	6178
2702.698	6254
2704.601	6259
2706.502	6175
2708.404	6281
2710.304	6272
2712.203	6250
2714.103	6105
2716.003	6249
2717.902	6144
2719.8	6169
2721.697	6163
2723.594	6213
2725.49	6232
2727.389	6121
2729.283	6256
2731.179	6271
2733.073	6172
2734.968	6246
2736.863	6046
2738.757	6193
2740.649	6100
2742.541	6182
2744.433	6170
2746.324	6180
2748.216	6147
2750.107	6229
2751.997	6187
2753.886	6151
2755.776	6128
2757.666	6180
2759.553	6079
2761.44	6120
2763.327	6100
2765.215	6121
2767.102	6068
2768.988	6140
2770.873	6229
2772.757	6166
2774.641	6133
2776.525	6171
2778.41	6074
2780.292	6038
2782.175	6099
2784.057	6171
2785.938	6032
2787.821	6093
2789.701	5973
2791.581	6039
2793.461	6126
2795.34	6155
2797.219	6244
2799.099	6088
2800.975	5979
2802.853	6079
2804.73	6106
2806.606	5963
2808.484	6119
2810.358	6094
2812.233	5927
2814.108	5962
2815.981	5972
2817.857	6058
2819.73	6059
2821.602	6014
2823.474	6034
2825.346	6053
2827.217	6044
2829.089	6022
2830.959	6046
2832.829	6074
2834.698	6076
2836.567	6083
2838.436	6035
2840.305	6122
2842.172	6102
2844.04	6103
2845.905	6110
2847.772	6074
2849.639	6071
2851.503	6130
2853.369	6124
2855.232	6147
2857.096	6145
2858.961	6281
2860.824	6173
2862.686	6220
2864.547	6252
2866.41	6219
2868.272	6331
2870.132	6382
2871.992	6460
2873.851	6398
2875.711	6517
2877.57	6557
2879.429	6629
2881.287	6602
2883.144	6684
2885.001	6650
2886.857	6696
2888.714	6652
2890.57	6618
2892.425	6600
2894.279	6686
2896.133	6710
2897.987	6606
2899.842	6569
2901.694	6542
2903.547	6719
2905.397	6666
2907.249	6601
2909.101	6736
2910.952	6625
2912.802	6812
2914.652	6690
2916.5	6869
2918.35	6860
2920.198	6880
2922.045	6937
2923.893	7040
2925.74	7191
2927.585	7311
2929.433	7264
2931.279	7318
2933.123	7369
2934.968	7330
2936.811	7393
2938.656	7524
2940.5	7619
2942.342	7623
2944.185	7802
2946.026	7794
2947.87	7718
2949.71	7898
2951.549	7607
2953.39	7593
2955.229	7432
2957.069	7438
2958.908	7492
2960.746	7376
2962.584	7099
2964.421	7004
2966.257	7158
2968.094	7073
2969.931	6955
2971.766	6937
2973.601	6911
2975.435	6932
2977.27	6717
2979.105	6869
2980.938	6860
2982.77	6704
2984.602	6738
2986.434	6735
2988.267	6717
2990.097	6693
2991.927	6659
2993.757	6567
2995.587	6580
2997.417	6463
2999.246	6295
3001.074	6412
3002.902	6348
3004.729	6371
3006.556	6272
3008.384	6159
3010.21	6138
3012.036	6011
3013.861	6099
3015.684	5894
3017.51	5957
3019.334	5938
3021.157	5854
3022.981	5889
3024.802	5801
3026.624	5756
3028.448	5815
3030.267	5725
3032.088	5778
3033.909	5762
3035.728	5702
3037.549	5651
3039.368	5659
3041.186	5740
3043.004	5706
3044.821	5707
3046.64	5645
3048.455	5618
3050.272	5794
3052.087	5760
3053.903	5679
3055.717	5753
3057.534	5610
3059.347	5696
3061.16	5591
3062.974	5657
3064.785	5752
3066.598	5592
3068.411	5597
3070.222	5518
3072.032	5768
3073.844	5710
3075.653	5586
3077.463	5584
3079.272	5669
3081.08	5555
3082.889	5593
3084.697	5500
3086.505	5604
3088.312	5600
3090.118	5425
3091.924	5459
3093.729	5466
3095.535	5546
3097.34	5545
3099.144	5456
3100.947	5470
3102.75	5469
3104.553	5423
3106.357	5524
3108.159	5472
3109.961	5436
3111.762	5508
3113.562	5510
3115.365	5484
3117.164	5433
3118.964	5402
3120.761	5474
3122.56	5443
3124.36	5522
3126.158	5395
3127.954	5476
3129.75	5430
3131.547	5402
3133.343	5286
3135.139	5369
3136.934	5362
3138.729	5473
3140.522	5306
3142.317	5426
3144.11	5358
3145.904	5341
3147.695	5318
3149.488	5277
3151.28	5377
3153.07	5326
3154.863	5353
3156.652	5356
3158.441	5323
3160.231	5461
3162.019	5291
3163.81	5259
3165.597	5365
3167.384	5328
3169.172	5375
3170.958	5307
3172.745	5239
3174.532	5227
3176.317	5345
3178.101	5313
3179.885	5283
3181.67	5315
3183.455	5317
3185.238	5182
3187.02	5221
3188.802	5337
3190.585	5282
3192.368	5349
3194.149	5275
3195.929	5241
3197.709	5292
3199.489	5254
3201.268	5238
3203.048	5239
3204.826	5237
3206.604	5251
3208.382	5209
3210.159	5236
3211.937	5274
3213.713	5286
3215.489	5315
3217.263	5176
3219.038	5325
3220.815	5174
3222.589	5210
3224.363	5210
3226.136	5355
3227.908	5261
3229.681	5077
3231.454	5250
3233.226	5281
3234.996	5318
3236.767	5168
3238.538	5205
3240.308	5228
3242.078	5227
3243.847	5174
3245.615	5261
3247.384	5103
3249.15	5278
3250.92	5199
3252.686	5216
3254.453	5317
3256.218	5307
3257.984	5204
3259.75	5242
3261.515	5369
3263.279	5141
3265.044	5267
3266.806	5177
3268.57	5322
3270.334	5270
3272.095	5331
3273.856	5297
3275.619	5264
3277.379	5284
3279.14	5306
3280.9	5299
3282.661	5171
3284.419	5395
3286.178	5315
3287.937	5306
3289.695	5163
3291.453	5262
3293.21	5305
3294.967	5330
3296.723	5232
3298.48	5268
3300.235	5360
3301.99	5299
3303.744	5189
3305.498	5339
3307.253	5260
3309.006	5295
3310.759	5215
3312.511	5266
3314.263	5328
3316.017	5262
3317.768	5250
3319.519	5294
3321.268	5245
3323.018	5245
3324.767	5282
3326.518	5209
3328.267	5326
3330.014	5143
3331.762	5197
3333.509	5239
3335.258	5204
3337.003	5131
3338.75	5246
3340.496	5253
3342.24	5203
3343.987	5317
3345.732	5206
3347.475	5217
3349.219	5177
3350.961	5131
3352.705	5168
3354.448	5238
3356.19	5263
3357.931	5140
3359.672	5142
3361.412	5148
3363.155	5109
3364.894	5152
3366.633	5228
3368.372	5131
3370.11	5116
3371.849	5119
3373.588	5156
3375.325	5147
3377.061	5060
3378.799	5062
3380.534	5082
3382.271	5047
3384.006	5026
3385.741	5036
3387.475	5049
3389.209	5104
3390.944	4967
3392.677	5048
3394.409	5054
3396.143	5014
3397.874	5149
3399.606	5087
3401.338	5056
3403.069	5020
3404.799	4910
3406.528	4990
3408.258	5058
3409.988	5010
3411.717	4920
3413.445	5002
3415.173	4955
3416.899	5049
3418.626	4999
3420.354	4950
3422.08	4975
3423.806	5010
3425.531	4993
3427.255	5007
3428.981	5021
3430.705	4964
3432.429	4906
3434.151	4970
3435.875	4943
3437.599	4988
3439.321	4953
3441.042	4938
3442.763	4899
3444.483	4893
3446.204	4834
3447.926	4970
3449.645	4878
3451.364	4860
3453.082	4832
3454.801	4807
3456.52	4881
3458.238	4848
3459.954	4893
3461.671	4767
3463.387	4823
3465.104	4833
3466.82	4757
3468.534	4809
3470.25	4726
3471.963	4809
3473.676	4811
3475.392	4756
3477.104	4772
3478.817	4817
3480.528	4835
3482.241	4757
3483.954	4699
3485.664	4776
3487.374	4673
3489.084	4684
3490.795	4590
3492.504	4762
3494.214	4650
3495.922	4745
3497.63	4728
3499.338	4688
3501.045	4735
3502.753	4695
3504.459	4642
3506.166	4695
3507.871	4697
3509.576	4571
3511.283	4676
3512.987	4718
3514.691	4579
3516.395	4647
3518.098	4590
3519.8	4551
3521.504	4594
3523.206	4484
3524.908	4651
3526.609	4617
3528.309	4516
3530.011	4536
3531.711	4580
3533.411	4567
3535.109	4625
3536.808	4567
3538.507	4683
3540.206	4489
3541.904	4506
3543.601	4480
3545.297	4516
3546.994	4424
3548.69	4466
3550.387	4503
3552.081	4466
3553.776	4542
3555.47	4514
3557.166	4499
3558.859	4500
3560.553	4453
3562.245	4443
3563.938	4517
3565.629	4409
3567.322	4456
3569.014	4426
3570.704	4422
3572.394	4476
3574.084	4494
3575.775	4381
3577.464	4386
3579.152	4433
3580.842	4509
3582.529	4411
3584.216	4464
3585.905	4363
3587.591	4322
3589.279	4323
3590.964	4437
3592.649	4411
3594.336	4430
3596.021	4333
3597.705	4393
3599.388	4337
3601.072	4344
3602.757	4349
3604.439	4192
3606.122	4244
3607.803	4224
3609.485	4318
3611.167	4259
3612.849	4281
3614.529	4240
3616.208	4304
3617.888	4241
3619.567	4194
3621.247	4324
3622.926	4208
3624.603	4230
3626.281	4234
3627.958	4267
3629.635	4150
3631.312	4197
3632.989	4105
3634.665	4145
3636.339	4141
3638.014	4177
3639.691	4187
3641.364	4188
3643.038	4181
3644.71	4090
3646.384	4090
3648.058	4155
3649.729	4138
3651.402	4151
3653.073	4170
3654.744	4078
3656.414	4033
3658.085	4141
3659.755	4181
3661.424	4081
3663.094	4137
3664.762	4144
3666.431	4085
3668.099	4184
3669.766	3987
3671.433	4099
3673.099	4105
3674.768	4120
3676.433	4109
3678.098	4025
3679.763	4031
3681.428	4054
3683.093	4057
3684.757	4056
3686.421	4086
3688.083	4036
3689.746	3976
3691.408	3974
3693.071	4007
3694.733	4010
3696.394	3967
3698.054	3992
3699.715	4010
3701.375	3964
3703.036	3976
3704.695	4014
3706.354	4057
3708.012	3956
3709.67	4015
3711.329	4032
3712.987	4009
3714.644	4017
3716.299	3925
3717.955	3975
3719.613	3885
3721.268	3992
3722.923	4002
3724.577	3875
3726.231	3952
3727.885	3995
3729.539	4012
3731.192	3956
3732.845	3936
3734.497	3924
3736.149	3961
3737.802	3912
3739.453	3915
3741.104	3879
3742.753	3904
3744.404	3962
3746.052	3979
3747.704	3904
3749.352	3961
3751	3966
3752.648	3904
3754.296	3990
3755.944	3914
3757.59	3880
3759.238	3851
3760.883	3858
3762.528	3910
3764.176	3839
3765.82	3876
3767.464	3850
3769.109	3892
3770.753	3840
3772.396	3861
3774.04	3848
3775.683	3869
3777.325	3861
3778.967	3824
3780.608	3867
3782.25	3890
3783.89	3893
3785.531	3879
3787.17	3797
3788.81	3827
3790.45	3704
3792.09	3896
3793.729	3805
3795.366	3855
3797.003	3733
3798.64	3829
3800.278	3757
3801.915	3769
3803.551	3832
3805.187	3741
3806.822	3729
3808.458	3711
3810.093	3683
3811.726	3825
3813.36	3822
3814.994	3753
3816.627	3799
3818.262	3740
3819.893	3702
3821.525	3714
3823.157	3669
3824.787	3726
3826.42	3703
3828.051	3724
3829.68	3714
3831.31	3727
3832.938	3606
3834.569	3730
3836.198	3781
3837.825	3675
3839.454	3672
3841.08	3702
3842.708	3734
3844.335	3652
3845.962	3641
3847.587	3633
3849.212	3640
3850.838	3643
3852.463	3637
3854.089	3656
3855.712	3623
3857.335	3668
3858.959	3742
3860.582	3639
3862.205	3642
3863.827	3556
3865.449	3706
3867.07	3662
3868.691	3721
3870.312	3627
3871.933	3690
3873.553	3621
3875.173	3611
3876.792	3610
3878.411	3640
3880.03	3681
3881.647	3549
3883.265	3595
3884.882	3643
3886.499	3642
3888.116	3595
3889.732	3520
3891.348	3597
3892.964	3588
3894.579	3562
3896.195	3601
3897.809	3517
3899.423	3491
3901.036	3529
3902.648	3633
3904.261	3568
3905.875	3551
3907.487	3538
3909.099	3568
3910.709	3647
3912.321	3531
3913.933	3530
3915.542	3563
3917.152	3590
3918.762	3658
3920.37	3526
3921.98	3596
3923.589	3539
3925.196	3575
3926.804	3596
3928.41	3587
3930.018	3562
3931.626	3501
3933.231	3510
3934.838	3461
3936.442	3556
3938.046	3490
3939.653	3595
3941.257	3502
3942.861	3591
3944.464	3487
3946.068	3557
3947.67	3565
3949.273	3493
3950.876	3517
3952.477	3548
3954.078	3462
3955.678	3502
3957.281	3517
3958.881	3405
3960.48	3516
3962.079	3444
3963.678	3408
3965.279	3467
3966.877	3497
3968.475	3434
3970.072	3451
3971.669	3399
3973.266	3470
3974.864	3485
3976.459	3456
3978.055	3488
3979.65	3442
3981.245	3374
3982.841	3445
3984.436	3357
3986.03	3351
3987.623	3376
3989.216	3438
3990.809	3427
3992.403	3370
3993.995	3353
3995.586	3322
3997.177	3384
3998.768	3279
4000.361	3364
4001.951	3347
4003.54	3426
4005.13	3343
4006.719	3322
4008.31	3337
4009.897	3253
4011.485	3284
4013.073	3367
4014.66	3274
4016.247	3255
4017.834	3342
4019.421	3263
4021.006	3318
4022.592	3262
4024.178	3304
4025.763	3352
4027.348	3286
4028.932	3348
4030.515	3269
4032.099	3258
4033.682	3290
4035.266	3263
4036.847	3317
4038.429	3310
4040.011	3259
4041.592	3198
4043.173	3286
4044.755	3260
4046.334	3189
4047.913	3200
4049.494	3272
4051.074	3192
4052.652	3203
4054.23	3280
4055.807	3210
4057.385	3207
4058.963	3267
4060.541	3176
4062.117	3182
4063.693	3181
4065.269	3212
4066.844	3262
4068.42	3198
4069.995	3217
4071.569	3229
4073.143	3187
4074.716	3257
4076.291	3272
4077.864	3195
4079.436	3229
4081.009	3191
4082.58	3120
4084.152	3152
4085.723	3143
4087.294	3095
4088.865	3128
4090.435	3120
4092.005	3149
4093.574	3149
4095.143	3130
4096.712	3156
4098.279	3189
4099.848	3154
4101.416	3151
4102.984	3142
4104.55	3046
4106.117	3165
4107.682	3126
4109.248	3169
4110.815	3071
4112.379	3061
4113.945	3091
4115.508	3100
4117.073	3138
4118.637	3116
4120.201	3135
4121.763	3041
4123.325	3128
4124.888	3059
4126.449	3048
4128.013	3060
4129.573	3103
4131.133	3108
4132.694	3122
4134.254	3085
4135.814	3025
4137.374	3003
4138.933	3095
4140.491	2979
4142.049	3118
4143.607	3035
4145.167	3054
4146.724	3026
4148.28	3093
4149.836	3030
4151.392	2993
4152.949	2985
4154.504	2931
4156.059	2917
4157.614	2996
4159.168	3027
4160.723	2974
4162.277	2961
4163.83	3001
4165.383	3024
4166.936	3043
4168.488	2927
4170.041	2931
4171.593	2978
4173.144	2977
4174.695	2886
4176.246	2985
4177.796	3012
4179.346	3003
4180.896	2999
4182.445	2975
4183.994	2989
4185.542	2954
4187.091	2928
4188.639	2940
4190.185	2952
4191.732	2966
4193.279	2918
4194.826	2969
4196.373	2916
4197.918	2919
4199.463	2955
4201.008	2886
4202.553	2923
4204.098	2909
4205.641	2888
4207.185	2909
4208.728	2898
4210.271	2904
4211.814	2922
4213.357	2920
4214.898	2915
4216.439	2827
4217.98	2890
4219.522	2847
4221.062	2852
4222.603	2876
4224.142	2902
4225.681	2874
4227.222	2967
4228.76	2971
4230.298	2903
4231.835	2888
4233.373	2801
4234.911	2864
4236.449	2865
4237.985	2913
4239.521	2855
4241.057	2820
4242.592	2789
4244.128	2776
4245.663	2812
4247.197	2871
4248.731	2871
4250.265	2872
4251.798	2874
4253.333	2821
4254.865	2799
4256.397	2745
4257.93	2836
4259.461	2895
4260.994	2874
4262.525	2797
4264.056	2853
4265.586	2770
4267.115	2806
4268.646	2854
4270.176	2815
4271.705	2788
4273.232	2790
4274.761	2818
4276.289	2838
4277.818	2760
4279.345	2839
4280.872	2864
4282.399	2777
4283.924	2794
4285.452	2803
4286.976	2801
4288.502	2798
4290.026	2772
4291.551	2853
4293.074	2710
4294.6	2819
4296.123	2815
4297.646	2762
4299.168	2699
4300.691	2682
4302.214	2729
4303.736	2762
4305.257	2754
4306.778	2736
4308.299	2783
4309.82	2751
4311.34	2749
4312.86	2684
4314.379	2731
