400.0745	4128
402.597	4143
405.1208	4204
407.6419	4140
410.1623	4183
412.6819	4217
415.201	4264
417.7172	4425
420.2369	4439
422.7538	4373
425.2701	4396
427.7856	4474
430.3005	4559
432.8147	4464
435.3282	4569
437.841	4520
440.3511	4568
442.8625	4575
445.3753	4450
447.8854	4518
450.3927	4498
452.9014	4450
455.4073	4462
457.9146	4475
460.4233	4391
462.9272	4392
465.4325	4393
467.935	4422
470.4389	4328
472.9421	4466
475.4446	4363
477.9444	4459
480.4456	4443
482.944	4471
485.4417	4403
487.9429	4461
490.4393	4410
492.935	4450
495.4321	4459
497.9264	4474
500.4221	4395
502.9171	4546
505.4094	4498
507.9011	4372
510.392	4582
512.8864	4517
515.3759	4536
517.8649	4645
520.3531	4566
522.8406	4563
525.3275	4587
527.8178	4634
530.3033	4624
532.7881	4559
535.2723	4691
537.7558	4616
540.2407	4481
542.7228	4648
545.2043	4561
547.6851	4646
550.1652	4598
552.6467	4645
555.1255	4602
557.6016	4733
560.079	4633
562.5557	4729
565.0318	4718
567.5092	4681
569.984	4729
572.456	4779
574.9294	4823
577.4022	4815
579.8762	4863
582.3456	4845
584.8163	4810
587.2863	4812
589.7557	4813
592.2224	4856
594.6924	4871
597.1578	4724
599.6245	4822
602.0905	4810
604.5538	4725
607.0206	4774
609.4825	4860
611.9459	4713
614.4066	4793
616.8686	4624
619.33	4773
621.7906	4785
624.2487	4706
626.708	4660
629.1647	4718
631.6207	4712
634.0801	4658
636.5348	4649
638.9888	4673
641.4442	4715
643.8969	4674
646.3509	4710
648.8022	4621
651.255	4610
653.705	4771
656.1544	4749
658.6031	4779
661.0532	4866
663.5026	4875
665.9493	4755
668.3954	4787
670.8409	4835
673.2877	4850
675.7318	4859
678.1752	4757
680.618	4952
683.0601	4762
685.5035	4871
687.9444	4842
690.3845	4902
692.824	4792
695.2628	4991
697.701	4919
700.1406	4868
702.5774	4829
705.0116	4947
707.4472	4963
709.8821	4845
712.3183	4959
714.7519	5016
717.1829	5043
719.6151	4987
722.0468	5041
724.4777	5001
726.908	5124
729.3377	5073
731.7667	5160
734.1931	5053
736.6208	5084
739.0498	5053
741.4742	5087
743.9	5105
746.3231	5030
748.7476	5168
751.1713	5132
753.5945	5092
756.015	5215
758.4368	5277
760.856	5179
763.2766	5175
765.6965	5150
768.1157	5243
770.5323	5337
772.9483	5207
775.3656	5122
777.7822	5248
780.1963	5190
782.6116	5264
785.0244	5180
787.4365	5332
789.8499	5150
792.2626	5300
794.6728	5211
797.0823	5330
799.4911	5337
801.8994	5314
804.3109	5328
806.7178	5307
809.124	5234
811.5297	5319
813.9347	5249
816.341	5309
818.7447	5272
821.1478	5316
823.5502	5316
825.952	5373
828.3531	5278
830.7556	5287
833.1554	5329
835.5546	5210
837.9532	5324
840.3511	5346
842.7504	5333
845.1451	5506
847.5411	5550
849.9365	5397
852.3312	5490
854.7272	5512
857.1187	5519
859.5115	5458
861.9037	5520
864.2952	5439
866.6842	5522
869.0764	5456
871.4661	5376
873.8531	5390
876.2415	5524
878.6272	5410
881.0162	5461
883.4026	5400
885.7866	5448
888.1717	5436
890.5543	5540
892.9382	5510
895.3215	5456
897.7041	5456
900.0842	5447
902.4655	5436
904.8443	5431
907.2244	5505
909.6039	5427
911.9808	5553
914.357	5674
916.7346	5742
919.1115	5627
921.4859	5814
923.8616	5899
926.2347	5928
928.6071	5872
930.979	5857
933.3541	5740
935.7247	5858
938.0946	6076
940.4639	6143
942.8326	6089
945.2026	6113
947.5701	6391
949.9369	6495
952.305	6783
954.6705	7127
957.0355	7471
959.4017	7926
961.7654	8197
964.1284	7997
966.4908	7582
968.8527	7238
971.2138	6859
973.5743	6444
975.9343	6249
978.2936	6078
980.6522	5830
983.0122	5790
985.3696	5710
987.7245	5654
990.0807	5722
992.4362	5858
994.7911	5747
997.1474	5617
999.4991	5697
1001.852	5740
1004.205	5772
1006.555	5766
1008.908	5684
1011.258	5751
1013.606	5682
1015.956	5756
1018.302	5724
1020.652	5810
1022.998	5788
1025.345	5744
1027.691	5794
1030.035	5783
1032.378	5953
1034.724	5812
1037.066	5826
1039.409	5848
1041.75	5792
1044.092	5743
1046.433	5866
1048.771	5870
1051.112	5904
1053.449	5893
1055.786	5845
1058.124	5737
1060.462	5834
1062.797	5790
1065.131	5956
1067.467	5960
1069.8	6010
1072.135	6027
1074.467	6040
1076.798	6013
1079.129	5910
1081.459	5901
1083.792	5936
1086.121	5804
1088.449	5825
1090.777	5952
1093.104	5715
1095.431	5861
1097.759	5860
1100.084	5815
1102.408	5816
1104.732	5895
1107.056	5753
1109.379	5701
1111.701	5877
1114.022	5761
1116.343	5716
1118.664	5803
1120.983	5831
1123.303	5737
1125.621	5766
1127.939	5819
1130.256	5773
1132.573	5750
1134.889	5845
1137.205	5735
1139.52	5614
1141.832	5648
1144.146	5761
1146.461	5718
1148.771	5746
1151.083	5719
1153.392	5805
1155.703	5795
1158.011	5718
1160.323	5802
1162.629	5779
1164.938	5830
1167.243	5912
1169.55	5776
1171.857	5713
1174.163	5846
1176.466	5696
1178.769	5755
1181.073	5636
1183.374	5818
1185.677	5787
1187.979	5755
1190.279	5823
1192.578	5741
1194.878	5763
1197.178	5707
1199.476	5766
1201.772	5794
1204.068	5721
1206.366	5864
1208.663	5781
1210.957	5810
1213.251	5861
1215.544	5781
1217.836	5721
1220.128	5803
1222.421	5804
1224.712	5909
1227.002	5868
1229.292	5913
1231.581	5946
1233.871	5898
1236.159	5981
1238.446	6115
1240.732	6098
1243.018	6080
1245.304	6005
1247.59	6061
1249.874	6157
1252.156	6041
1254.439	6062
1256.721	6203
1259.005	6030
1261.286	5974
1263.565	6126
1265.845	6022
1268.125	6038
1270.403	6068
1272.682	6136
1274.959	6011
1277.234	6023
1279.511	6068
1281.787	6057
1284.062	6132
1286.337	5890
1288.609	6030
1290.882	6022
1293.153	6027
1295.428	5961
1297.698	5922
1299.969	5968
1302.237	5945
1304.507	5884
1306.777	5909
1309.044	5816
1311.312	5885
1313.578	5843
1315.844	6039
1318.109	5996
1320.375	5886
1322.638	5803
1324.903	5897
1327.165	5861
1329.427	5895
1331.69	5922
1333.952	6008
1336.212	5911
1338.471	5910
1340.73	5915
1342.988	5882
1345.248	5860
1347.505	5823
1349.763	5953
1352.019	6007
1354.274	5845
1356.53	5775
1358.784	5835
1361.038	5883
1363.291	5935
1365.543	5882
1367.797	5953
1370.048	5951
1372.296	5895
1374.546	5950
1376.796	6015
1379.045	5951
1381.295	5874
1383.542	6007
1385.787	6000
1388.034	5885
1390.28	6030
1392.527	5994
1394.772	6060
1397.014	6109
1399.258	6068
1401.501	5999
1403.741	6250
1405.985	6186
1408.226	6190
1410.465	5993
1412.705	6025
1414.943	5923
1417.184	6153
1419.42	6047
1421.658	6178
1423.894	6117
1426.13	6222
1428.366	6134
1430.602	6170
1432.835	6186
1435.069	6179
1437.301	6224
1439.535	6237
1441.767	6259
1443.997	6166
1446.229	6297
1448.458	6394
1450.687	6285
1452.916	6399
1455.146	6363
1457.372	6409
1459.599	6353
1461.824	6330
1464.051	6264
1466.277	6290
1468.501	6354
1470.725	6212
1472.948	6175
1475.17	6095
1477.393	6010
1479.614	5971
1481.837	5977
1484.057	5938
1486.276	5903
1488.497	5958
1490.715	5873
1492.932	5904
1495.148	5798
1497.364	5752
1499.58	5806
1501.798	5819
1504.012	5837
1506.227	5724
1508.44	5824
1510.653	5794
1512.866	5805
1515.078	5981
1517.289	5838
1519.5	5850
1521.711	5862
1523.92	5829
1526.13	5846
1528.338	5740
1530.544	5775
1532.752	5836
1534.959	5789
1537.165	5823
1539.371	5879
1541.574	5826
1543.779	5827
1545.983	5803
1548.187	5870
1550.39	5763
1552.59	5878
1554.792	5863
1556.991	5851
1559.19	5875
1561.392	5983
1563.59	6036
1565.789	5940
1567.986	5953
1570.182	5938
1572.381	5911
1574.576	5955
1576.771	6047
1578.966	5920
1581.16	6004
1583.354	5994
1585.546	6092
1587.74	5944
1589.931	5906
1592.121	6059
1594.311	6050
1596.502	5920
1598.693	6078
1600.881	6042
1603.069	6047
1605.256	6080
1607.445	6012
1609.631	6099
1611.816	6026
1614.001	6079
1616.186	5992
1618.37	6086
1620.555	5991
1622.737	6152
1624.919	6111
1627.101	6068
1629.282	6079
1631.463	6154
1633.643	6241
1635.822	6101
1638.001	6239
1640.179	6208
1642.359	6262
1644.534	6207
1646.711	6261
1648.887	6288
1651.062	6238
1653.235	6234
1655.412	6237
1657.586	6117
1659.757	6309
1661.93	6275
1664.1	6336
1666.274	6343
1668.445	6475
1670.614	6374
1672.784	6295
1674.951	6354
1677.12	6283
1679.289	6341
1681.457	6280
1683.622	6227
1685.789	6184
1687.953	6186
1690.121	6160
1692.284	6147
1694.447	6154
1696.611	6114
1698.772	6117
1700.935	5995
1703.098	6010
1705.258	6014
1707.417	5955
1709.576	6027
1711.736	5936
1713.896	5952
1716.053	6050
1718.21	5918
1720.366	5985
1722.522	6073
1724.68	5965
1726.835	5956
1728.989	5937
1731.142	5999
1733.295	5950
1735.449	6001
1737.601	5979
1739.753	5876
1741.903	6000
1744.054	5954
1746.203	5938
1748.354	5891
1750.503	6021
1752.651	6006
1754.798	5927
1756.944	6028
1759.092	5968
1761.238	5987
1763.383	5983
1765.528	5968
1767.672	5950
1769.814	6037
1771.959	5990
1774.102	5924
1776.242	5975
1778.384	6020
1780.525	5894
1782.665	5868
1784.805	6146
1786.945	5963
1789.082	5954
1791.22	6074
1793.36	5919
1795.495	6057
1797.632	5958
1799.766	5979
1801.902	5971
1804.035	6178
1806.172	6035
1808.304	5998
1810.436	5975
1812.569	6054
1814.699	6138
1816.833	5880
1818.963	5891
1821.092	6093
1823.222	5939
1825.35	6051
1827.478	5975
1829.608	5982
1831.734	5982
1833.86	5926
1835.986	6061
1838.11	5927
1840.238	5979
1842.362	5980
1844.485	5982
1846.608	6049
1848.73	6041
1850.853	5896
1852.974	5931
1855.097	5875
1857.217	5900
1859.336	5963
1861.455	5840
1863.576	5930
1865.693	5941
1867.811	5975
1869.926	5883
1872.042	5909
1874.16	5941
1876.275	5875
1878.39	5965
1880.504	5995
1882.618	5953
1884.731	5940
1886.843	5965
1888.956	6084
1891.067	5962
1893.178	5871
1895.287	5975
1897.399	5997
1899.508	6015
1901.617	5939
1903.724	6005
1905.832	6070
1907.941	6005
1910.046	6079
1912.152	5909
1914.256	6015
1916.361	5928
1918.464	6045
1920.57	5985
1922.672	5970
1924.775	6103
1926.876	5975
1928.978	5924
1931.08	5940
1933.181	5992
1935.28	6054
1937.38	6108
1939.478	6101
1941.577	6009
1943.675	6110
1945.771	6113
1947.867	6018
1949.964	6092
1952.058	6021
1954.154	6006
1956.248	6003
1958.343	5961
1960.435	6064
1962.527	6057
1964.62	6006
1966.711	6069
1968.802	5898
1970.892	5941
1972.983	6066
1975.072	5881
1977.162	5884
1979.25	6021
1981.337	5966
1983.424	5921
1985.51	5867
1987.598	5959
1989.683	6002
1991.768	5991
1993.852	5942
1995.934	5954
1998.019	6036
2000.102	5943
2002.184	6056
2004.266	5941
2006.347	5978
2008.427	5908
2010.508	5923
2012.587	6042
2014.666	6061
2016.745	5950
2018.821	5975
2020.9	5960
2022.977	6017
2025.052	5987
2027.128	5879
2029.204	6017
2031.277	5903
2033.353	5860
2035.425	5950
2037.499	5908
2039.57	5821
2041.642	5888
2043.714	6090
2045.786	5978
2047.855	5874
2049.925	5851
2051.993	5919
2054.064	5871
2056.132	5954
2058.2	5946
2060.266	5898
2062.332	5996
2064.398	6007
2066.465	5866
2068.529	5836
2070.592	5903
2072.657	5953
2074.719	5994
2076.783	6013
2078.845	6019
2080.907	6020
2082.968	5986
2085.028	5960
2087.087	5863
2089.148	5981
2091.207	5916
2093.264	5872
2095.322	5986
2097.379	5910
2099.439	5933
2101.495	5874
2103.55	5927
2105.605	5906
2107.658	5905
2109.713	5907
2111.767	5964
2113.82	5971
2115.872	5970
2117.924	5926
2119.975	5921
2122.028	5859
2124.078	5947
2126.126	5942
2128.176	6011
2130.225	5918
2132.275	5890
2134.321	5902
2136.368	5974
2138.415	5927
2140.461	5903
2142.505	5903
2144.552	5857
2146.597	5837
2148.64	5915
2150.684	5949
2152.725	5824
2154.77	5859
2156.811	5966
2158.852	5843
2160.894	5821
2162.933	5778
2164.973	5952
2167.013	5906
2169.051	5807
2171.089	5944
2173.126	5852
2175.164	5881
2177.201	5871
2179.236	5854
2181.273	5867
2183.307	5875
2185.341	5838
2187.377	5844
2189.41	5818
2191.442	5804
2193.473	5817
2195.506	5918
2197.539	5833
2199.569	5681
2201.598	5889
2203.628	5761
2205.656	5774
2207.686	5706
2209.716	5839
2211.743	5760
2213.769	5863
2215.796	5807
2217.821	5818
2219.848	5702
2221.873	5872
2223.897	5817
2225.921	5710
2227.944	5791
2229.967	5837
2231.991	5825
2234.011	5747
2236.032	5739
2238.053	5732
2240.073	5818
2242.094	5814
2244.114	5802
2246.131	5710
2248.149	5769
2250.167	5698
2252.186	5688
2254.201	5885
2256.218	5856
2258.233	5782
2260.247	5712
2262.262	5692
2264.278	5777
2266.29	5814
2268.303	5739
2270.315	5845
2272.327	5810
2274.341	5759
2276.35	5735
2278.361	5690
2280.37	5747
2282.38	5852
2284.388	5769
2286.397	5883
2288.405	5710
2290.412	5785
2292.419	5722
2294.425	5811
2296.431	5649
2298.437	5806
2300.441	5761
2302.445	5746
2304.449	5842
2306.453	5818
2308.455	5776
2310.457	5640
2312.459	5843
2314.46	5737
2316.46	5826
2318.461	5666
2320.46	5700
2322.458	5708
2324.458	5694
2326.456	5631
2328.455	5644
2330.451	5697
2332.447	5667
2334.443	5728
2336.438	5711
2338.433	5701
2340.429	5741
2342.422	5682
2344.416	5675
2346.408	5685
2348.399	5618
2350.393	5697
2352.384	5720
2354.375	5663
2356.365	5655
2358.355	5712
2360.344	5620
2362.333	5639
2364.322	5634
2366.309	5590
2368.295	5538
2370.282	5637
2372.27	5641
2374.256	5561
2376.24	5553
2378.225	5558
2380.208	5631
2382.194	5672
2384.177	5621
2386.159	5750
2388.142	5597
2390.122	5553
2392.105	5623
2394.085	5580
2396.066	5586
2398.044	5585
2400.024	5663
2402.002	5631
2403.982	5465
2405.959	5570
2407.935	5554
2409.913	5511
2411.888	5555
2413.865	5542
2415.84	5540
2417.814	5498
2419.788	5552
2421.762	5543
2423.735	5560
2425.708	5519
2427.68	5577
2429.651	5564
2431.623	5510
2433.593	5446
2435.564	5598
2437.533	5563
2439.502	5513
2441.47	5582
2443.438	5510
2445.406	5549
2447.373	5556
2449.34	5524
2451.305	5610
2453.271	5557
2455.235	5429
2457.201	5528
2459.165	5571
2461.129	5581
2463.092	5554
2465.054	5510
2467.018	5507
2468.978	5543
2470.939	5596
2472.899	5472
2474.86	5450
2476.819	5431
2478.778	5503
2480.737	5510
2482.695	5478
2484.653	5440
2486.609	5407
2488.567	5503
2490.524	5358
2492.478	5503
2494.433	5430
2496.387	5492
2498.343	5478
2500.297	5447
2502.249	5494
2504.202	5472
2506.153	5391
2508.105	5456
2510.057	5373
2512.008	5468
2513.957	5418
2515.906	5510
2517.855	5450
2519.805	5463
2521.754	5561
2523.7	5392
2525.647	5403
2527.594	5424
2529.54	5501
2531.486	5445
2533.431	5410
2535.376	5362
2537.32	5453
2539.263	5353
2541.207	5391
2543.151	5476
2545.093	5481
2547.034	5359
2548.975	5409
2550.917	5350
2552.856	5539
2554.796	5420
2556.735	5462
2558.673	5418
2560.611	5479
2562.55	5311
2564.487	5462
2566.424	5370
2568.36	5336
2570.296	5434
2572.232	5411
2574.167	5400
2576.101	5426
2578.035	5435
2579.969	5370
2581.902	5386
2583.834	5441
2585.766	5386
2587.698	5439
2589.628	5401
2591.557	5386
2593.489	5339
2595.419	5387
2597.348	5549
2599.275	5425
2601.204	5351
2603.131	5434
2605.059	5381
2606.986	5461
2608.911	5409
2610.837	5457
2612.76	5379
2614.687	5372
2616.61	5442
2618.534	5521
2620.457	5457
2622.38	5404
2624.302	5508
2626.225	5479
2628.145	5333
2630.067	5456
2631.986	5390
2633.906	5454
2635.827	5456
2637.745	5380
2639.662	5453
2641.581	5418
2643.498	5438
2645.415	5468
2647.331	5370
2649.248	5385
2651.163	5346
2653.077	5343
2654.993	5439
2656.906	5351
2658.821	5410
2660.733	5444
2662.646	5315
2664.557	5449
2666.47	5364
2668.381	5403
2670.291	5537
2672.201	5382
2674.11	5375
2676.021	5390
2677.929	5321
2679.837	5416
2681.745	5386
2683.652	5455
2685.56	5406
2687.466	5428
2689.371	5218
2691.276	5421
2693.181	5356
2695.085	5376
2696.991	5279
2698.893	5282
2700.796	5473
2702.698	5318
2704.601	5265
2706.502	5320
2708.404	5307
2710.304	5335
2712.203	5324
2714.103	5414
2716.003	5377
2717.902	5243
2719.8	5336
2721.697	5304
2723.594	5308
2725.49	5317
2727.389	5352
2729.283	5357
2731.179	5383
2733.073	5320
2734.968	5282
2736.863	5286
2738.757	5335
2740.649	5376
2742.541	5263
2744.433	5377
2746.324	5284
2748.216	5250
2750.107	5359
2751.997	5302
2753.886	5284
2755.776	5331
2757.666	5308
2759.553	5371
2761.44	5255
2763.327	5311
2765.215	5270
2767.102	5330
2768.988	5281
2770.873	5230
2772.757	5253
2774.641	5227
2776.525	5246
2778.41	5275
2780.292	5417
2782.175	5306
2784.057	5251
2785.938	5137
2787.821	5289
2789.701	5380
2791.581	5298
2793.461	5221
2795.34	5314
2797.219	5197
2799.099	5236
2800.975	5292
2802.853	5187
2804.73	5244
2806.606	5195
2808.484	5374
2810.358	5165
2812.233	5246
2814.108	5263
2815.981	5182
2817.857	5310
2819.73	5262
2821.602	5339
2823.474	5271
2825.346	5352
2827.217	5219
2829.089	5274
2830.959	5233
2832.829	5238
2834.698	5305
2836.567	5203
2838.436	5187
2840.305	5273
2842.172	5335
2844.04	5345
2845.905	5386
2847.772	5411
2849.639	5462
2851.503	5516
2853.369	5329
2855.232	5379
2857.096	5421
2858.961	5480
2860.824	5463
2862.686	5522
2864.547	5526
2866.41	5676
2868.272	5647
2870.132	5678
2871.992	5696
2873.851	5910
2875.711	5902
2877.57	5895
2879.429	6087
2881.287	6101
2883.144	6060
2885.001	6236
2886.857	6107
2888.714	6203
2890.57	6204
2892.425	6066
2894.279	6067
2896.133	6190
2897.987	6188
2899.842	6043
2901.694	6035
2903.547	6007
2905.397	6154
2907.249	6169
2909.101	6189
2910.952	6107
2912.802	6197
2914.652	6383
2916.5	6333
2918.35	6254
2920.198	6504
2922.045	6425
2923.893	6649
2925.74	6697
2927.585	6799
2929.433	6789
2931.279	6967
2933.123	6915
2934.968	7101
2936.811	7158
2938.656	7134
2940.5	7300
2942.342	7338
2944.185	7329
2946.026	7404
2947.87	7353
2949.71	7301
2951.549	7395
2953.39	7336
2955.229	7274
2957.069	7244
2958.908	7031
2960.746	7069
2962.584	6903
2964.421	6883
2966.257	6864
2968.094	6754
2969.931	6717
2971.766	6540
2973.601	6511
2975.435	6469
2977.27	6315
2979.105	6461
2980.938	6358
2982.77	6194
2984.602	6289
2986.434	6264
2988.267	6227
2990.097	6133
2991.927	6044
2993.757	6073
2995.587	5986
2997.417	5836
2999.246	5853
3001.074	5784
3002.902	5772
3004.729	5655
3006.556	5574
3008.384	5508
3010.21	5511
3012.036	5450
3013.861	5336
3015.684	5349
3017.51	5244
3019.334	5365
3021.157	5195
3022.981	5257
3024.802	5116
3026.624	5134
3028.448	5104
3030.267	5070
3032.088	5076
3033.909	4993
3035.728	5079
3037.549	5033
3039.368	5023
3041.186	5107
3043.004	4927
3044.821	5030
3046.64	5045
3048.455	5023
3050.272	5034
3052.087	5017
3053.903	4930
3055.717	4943
3057.534	5027
3059.347	4927
3061.16	4904
3062.974	5021
3064.785	4893
3066.598	4940
3068.411	5061
3070.222	4944
3072.032	5012
3073.844	4981
3075.653	5018
3077.463	4944
3079.272	4934
3081.08	4997
3082.889	4967
3084.697	4894
3086.505	4805
3088.312	4956
3090.118	4926
3091.924	4902
3093.729	4864
3095.535	4839
3097.34	4913
3099.144	4945
3100.947	4804
3102.75	4718
3104.553	4714
3106.357	4830
3108.159	4832
3109.961	4762
3111.762	4694
3113.562	4751
3115.365	4689
3117.164	4763
3118.964	4753
3120.761	4750
3122.56	4735
3124.36	4694
3126.158	4696
3127.954	4702
3129.75	4724
3131.547	4675
3133.343	4736
3135.139	4801
3136.934	4804
3138.729	4650
3140.522	4679
3142.317	4741
3144.11	4681
3145.904	4731
3147.695	4685
3149.488	4759
3151.28	4696
3153.07	4775
3154.863	4746
3156.652	4696
3158.441	4747
3160.231	4840
3162.019	4630
3163.81	4645
3165.597	4666
3167.384	4713
3169.172	4768
3170.958	4609
3172.745	4601
3174.532	4713
3176.317	4716
3178.101	4656
3179.885	4778
3181.67	4657
3183.455	4754
3185.238	4700
3187.02	4629
3188.802	4665
3190.585	4665
3192.368	4637
3194.149	4652
3195.929	4651
3197.709	4648
3199.489	4682
3201.268	4571
3203.048	4607
3204.826	4656
3206.604	4585
3208.382	4668
3210.159	4602
3211.937	4733
3213.713	4650
3215.489	4655
3217.263	4660
3219.038	4558
3220.815	4608
3222.589	4663
3224.363	4643
3226.136	4676
3227.908	4678
3229.681	4774
3231.454	4660
3233.226	4612
3234.996	4605
3236.767	4671
3238.538	4732
3240.308	4632
3242.078	4646
3243.847	4671
3245.615	4707
3247.384	4673
3249.15	4735
3250.92	4675
3252.686	4624
3254.453	4618
3256.218	4794
3257.984	4695
3259.75	4714
3261.515	4721
3263.279	4608
3265.044	4615
3266.806	4680
3268.57	4590
3270.334	4681
3272.095	4642
3273.856	4671
3275.619	4717
3277.379	4614
3279.14	4673
3280.9	4758
3282.661	4582
3284.419	4668
3286.178	4676
3287.937	4656
3289.695	4649
3291.453	4747
3293.21	4778
3294.967	4731
3296.723	4735
3298.48	4725
3300.235	4717
3301.99	4716
3303.744	4651
3305.498	4658
3307.253	4632
3309.006	4738
3310.759	4630
3312.511	4745
3314.263	4713
3316.017	4681
3317.768	4821
3319.519	4702
3321.268	4673
3323.018	4686
3324.767	4727
3326.518	4714
3328.267	4595
3330.014	4772
3331.762	4588
3333.509	4770
3335.258	4741
3337.003	4767
3338.75	4709
3340.496	4703
3342.24	4680
3343.987	4724
3345.732	4650
3347.475	4756
3349.219	4704
3350.961	4632
3352.705	4690
3354.448	4655
3356.19	4563
3357.931	4576
3359.672	4588
3361.412	4669
3363.155	4594
3364.894	4677
3366.633	4628
3368.372	4626
3370.11	4560
3371.849	4538
3373.588	4649
3375.325	4543
3377.061	4516
3378.799	4550
3380.534	4582
3382.271	4541
3384.006	4483
3385.741	4528
3387.475	4448
3389.209	4578
3390.944	4509
3392.677	4556
3394.409	4531
3396.143	4540
3397.874	4480
3399.606	4536
3401.338	4459
3403.069	4484
3404.799	4555
3406.528	4438
3408.258	4506
3409.988	4535
3411.717	4507
3413.445	4551
3415.173	4492
3416.899	4523
3418.626	4545
3420.354	4462
3422.08	4534
3423.806	4335
3425.531	4400
3427.255	4441
3428.981	4509
3430.705	4477
3432.429	4367
3434.151	4437
3435.875	4397
3437.599	4401
3439.321	4432
3441.042	4347
3442.763	4368
3444.483	4343
3446.204	4405
3447.926	4365
3449.645	4256
3451.364	4320
3453.082	4364
3454.801	4343
3456.52	4303
3458.238	4311
3459.954	4232
3461.671	4231
3463.387	4312
3465.104	4254
3466.82	4325
3468.534	4246
3470.25	4192
3471.963	4270
3473.676	4288
3475.392	4303
3477.104	4238
3478.817	4271
3480.528	4213
3482.241	4228
3483.954	4206
3485.664	4284
3487.374	4216
3489.084	4285
3490.795	4223
3492.504	4176
3494.214	4117
3495.922	4246
3497.63	4151
3499.338	4224
3501.045	4145
3502.753	4122
3504.459	4169
3506.166	4072
3507.871	4141
3509.576	4199
3511.283	4075
3512.987	4084
3514.691	4076
3516.395	4120
3518.098	4067
3519.8	4081
3521.504	3998
3523.206	4036
3524.908	4045
3526.609	4078
3528.309	3928
3530.011	4064
3531.711	3967
3533.411	4027
3535.109	4038
3536.808	3952
3538.507	4030
3540.206	4083
3541.904	4018
3543.601	4000
3545.297	4021
3546.994	3893
3548.69	3960
3550.387	4000
3552.081	3982
3553.776	3890
3555.47	4016
3557.166	3964
3558.859	4019
3560.553	3929
3562.245	3895
3563.938	3991
3565.629	3848
3567.322	3933
3569.014	3883
3570.704	3911
3572.394	3979
3574.084	3919
3575.775	3926
3577.464	3863
3579.152	3892
3580.842	3907
3582.529	3896
3584.216	3912
3585.905	3814
3587.591	3852
3589.279	3846
3590.964	3889
3592.649	3809
3594.336	3904
3596.021	3789
3597.705	3768
3599.388	3822
3601.072	3731
3602.757	3728
3604.439	3833
3606.122	3828
3607.803	3725
3609.485	3751
3611.167	3808
3612.849	3804
3614.529	3742
3616.208	3732
3617.888	3716
3619.567	3695
3621.247	3709
3622.926	3723
3624.603	3632
3626.281	3646
3627.958	3690
3629.635	3681
3631.312	3652
3632.989	3631
3634.665	3682
3636.339	3588
3638.014	3664
3639.691	3668
3641.364	3516
3643.038	3642
3644.71	3542
3646.384	3606
3648.058	3579
3649.729	3677
3651.402	3516
3653.073	3657
3654.744	3657
3656.414	3604
3658.085	3583
3659.755	3612
3661.424	3570
3663.094	3641
3664.762	3608
3666.431	3555
3668.099	3563
3669.766	3584
3671.433	3593
3673.099	3531
3674.768	3588
3676.433	3482
3678.098	3526
3679.763	3554
3681.428	3519
3683.093	3516
3684.757	3561
3686.421	3483
3688.083	3561
3689.746	3451
3691.408	3553
3693.071	3528
3694.733	3550
3696.394	3407
3698.054	3525
3699.715	3444
3701.375	3541
3703.036	3471
3704.695	3497
3706.354	3560
3708.012	3431
3709.67	3384
3711.329	3598
3712.987	3488
3714.644	3450
3716.299	3520
3717.955	3440
3719.613	3390
3721.268	3509
3722.923	3464
3724.577	3399
3726.231	3519
3727.885	3439
3729.539	3429
3731.192	3422
3732.845	3418
3734.497	3403
3736.149	3522
3737.802	3413
3739.453	3403
3741.104	3358
3742.753	3386
3744.404	3458
3746.052	3424
3747.704	3379
3749.352	3445
3751	3391
3752.648	3356
3754.296	3389
3755.944	3460
3757.59	3326
3759.238	3449
3760.883	3303
3762.528	3345
3764.176	3403
3765.82	3446
3767.464	3311
3769.109	3385
3770.753	3364
3772.396	3336
3774.04	3319
3775.683	3308
3777.325	3374
3778.967	3369
3780.608	3354
3782.25	3274
3783.89	3371
3785.531	3424
3787.17	3251
3788.81	3276
3790.45	3297
3792.09	3324
3793.729	3305
3795.366	3325
3797.003	3232
3798.64	3310
3800.278	3275
3801.915	3268
3803.551	3246
3805.187	3191
3806.822	3273
3808.458	3236
3810.093	3270
3811.726	3276
3813.36	3274
3814.994	3303
3816.627	3253
3818.262	3257
3819.893	3242
3821.525	3173
3823.157	3250
3824.787	3225
3826.42	3283
3828.051	3218
3829.68	3281
3831.31	3311
3832.938	3208
3834.569	3230
3836.198	3303
3837.825	3163
3839.454	3268
3841.08	3216
3842.708	3175
3844.335	3286
3845.962	3218
3847.587	3232
3849.212	3240
3850.838	3238
3852.463	3139
3854.089	3169
3855.712	3192
3857.335	3255
3858.959	3243
3860.582	3207
3862.205	3167
3863.827	3188
3865.449	3171
3867.07	3192
3868.691	3142
3870.312	3111
3871.933	3155
3873.553	3164
3875.173	3177
3876.792	3149
3878.411	3168
3880.03	3062
3881.647	3154
3883.265	3093
3884.882	3068
3886.499	3147
3888.116	3131
3889.732	3149
3891.348	3141
3892.964	3104
3894.579	3124
3896.195	3112
3897.809	3111
3899.423	3188
3901.036	3148
3902.648	3097
3904.261	3124
3905.875	3120
3907.487	3151
3909.099	3073
3910.709	3132
3912.321	3085
3913.933	3149
3915.542	3017
3917.152	3057
3918.762	3085
3920.37	3076
3921.98	3127
3923.589	3071
3925.196	3075
3926.804	3081
3928.41	3088
3930.018	3045
3931.626	3123
3933.231	3099
3934.838	3151
3936.442	3032
3938.046	3070
3939.653	3085
3941.257	3035
3942.861	3050
3944.464	3075
3946.068	3100
3947.67	3024
3949.273	3043
3950.876	3069
3952.477	3034
3954.078	3057
3955.678	2995
3957.281	3053
3958.881	3056
3960.48	3122
3962.079	3105
3963.678	3026
3965.279	3060
3966.877	3018
3968.475	2960
3970.072	3010
3971.669	3002
3973.266	2890
3974.864	2951
3976.459	2959
3978.055	2991
3979.65	3077
3981.245	2989
3982.841	2968
3984.436	2992
3986.03	3024
3987.623	2959
3989.216	2956
3990.809	3045
3992.403	2910
3993.995	2975
3995.586	2888
3997.177	2907
3998.768	2901
4000.361	2947
4001.951	2967
4003.54	2955
4005.13	2943
4006.719	2929
4008.31	2897
4009.897	2911
4011.485	2864
4013.073	2956
4014.66	2929
4016.247	2897
4017.834	2913
4019.421	2926
4021.006	2874
4022.592	2805
4024.178	2946
4025.763	2837
4027.348	2903
4028.932	2836
4030.515	2808
4032.099	2899
4033.682	2860
4035.266	2877
4036.847	2783
4038.429	2811
4040.011	2904
4041.592	2776
4043.173	2788
4044.755	2881
4046.334	2817
4047.913	2839
4049.494	2880
4051.074	2828
4052.652	2844
4054.23	2771
4055.807	2876
4057.385	2855
4058.963	2817
4060.541	2799
4062.117	2789
4063.693	2852
4065.269	2877
4066.844	2772
4068.42	2806
4069.995	2833
4071.569	2821
4073.143	2719
4074.716	2790
4076.291	2801
4077.864	2793
4079.436	2795
4081.009	2726
4082.58	2851
4084.152	2737
4085.723	2764
4087.294	2799
4088.865	2722
4090.435	2744
4092.005	2745
4093.574	2760
4095.143	2751
4096.712	2742
4098.279	2802
4099.848	2781
4101.416	2757
4102.984	2763
4104.55	2737
4106.117	2756
4107.682	2719
4109.248	2696
4110.815	2682
4112.379	2737
4113.945	2746
4115.508	2736
4117.073	2737
4118.637	2762
4120.201	2679
4121.763	2709
4123.325	2674
4124.888	2708
4126.449	2721
4128.013	2761
4129.573	2690
4131.133	2671
4132.694	2698
4134.254	2686
4135.814	2759
4137.374	2654
4138.933	2697
4140.491	2650
4142.049	2616
4143.607	2657
4145.167	2663
4146.724	2675
4148.28	2656
4149.836	2640
4151.392	2649
4152.949	2713
4154.504	2605
4156.059	2636
4157.614	2648
4159.168	2603
4160.723	2756
4162.277	2619
4163.83	2632
4165.383	2606
4166.936	2608
4168.488	2530
4170.041	2633
4171.593	2643
4173.144	2609
4174.695	2640
4176.246	2617
4177.796	2637
4179.346	2549
4180.896	2689
4182.445	2598
4183.994	2570
4185.542	2541
4187.091	2574
4188.639	2626
4190.185	2580
4191.732	2539
4193.279	2541
4194.826	2528
4196.373	2508
4197.918	2685
4199.463	2560
4201.008	2546
4202.553	2592
4204.098	2535
4205.641	2564
4207.185	2563
4208.728	2545
4210.271	2518
4211.814	2537
4213.357	2507
4214.898	2523
4216.439	2508
4217.98	2509
4219.522	2544
4221.062	2568
4222.603	2525
4224.142	2565
4225.681	2540
4227.222	2491
4228.76	2468
4230.298	2557
4231.835	2490
4233.373	2495
4234.911	2499
4236.449	2472
4237.985	2504
4239.521	2479
4241.057	2532
4242.592	2569
4244.128	2502
4245.663	2494
4247.197	2554
4248.731	2511
4250.265	2512
4251.798	2491
4253.333	2487
4254.865	2502
4256.397	2473
4257.93	2477
4259.461	2473
4260.994	2497
4262.525	2429
4264.056	2499
4265.586	2434
4267.115	2476
4268.646	2436
4270.176	2451
4271.705	2410
4273.232	2408
4274.761	2429
4276.289	2489
4277.818	2482
4279.345	2426
4280.872	2460
4282.399	2451
4283.924	2490
4285.452	2471
4286.976	2403
4288.502	2417
4290.026	2395
4291.551	2441
4293.074	2439
4294.6	2399
4296.123	2464
4297.646	2474
4299.168	2454
4300.691	2412
4302.214	2402
4303.736	2426
4305.257	2422
4306.778	2401
4308.299	2362
4309.82	2433
4311.34	2401
4312.86	2469
4314.379	2367
