400.0745	3981
402.597	4034
405.1208	4075
407.6419	3956
410.1623	4081
412.6819	4044
415.201	4064
417.7172	4088
420.2369	4106
422.7538	4160
425.2701	4200
427.7856	4216
430.3005	4240
432.8147	4198
435.3282	4328
437.841	4172
440.3511	4280
442.8625	4245
445.3753	4187
447.8854	4261
450.3927	4237
452.9014	4272
455.4073	4253
457.9146	4278
460.4233	4252
462.9272	4374
465.4325	4352
467.935	4215
470.4389	4223
472.9421	4282
475.4446	4291
477.9444	4308
480.4456	4366
482.944	4387
485.4417	4397
487.9429	4345
490.4393	4380
492.935	4352
495.4321	4302
497.9264	4502
500.4221	4389
502.9171	4414
505.4094	4425
507.9011	4457
510.392	4470
512.8864	4429
515.3759	4467
517.8649	4401
520.3531	4411
522.8406	4463
525.3275	4521
527.8178	4468
530.3033	4553
532.7881	4446
535.2723	4494
537.7558	4544
540.2407	4469
542.7228	4437
545.2043	4458
547.6851	4497
550.1652	4559
552.6467	4370
555.1255	4565
557.6016	4493
560.079	4568
562.5557	4564
565.0318	4583
567.5092	4569
569.984	4493
572.456	4557
574.9294	4588
577.4022	4570
579.8762	4559
582.3456	4671
584.8163	4621
587.2863	4664
589.7557	4683
592.2224	4625
594.6924	4607
597.1578	4676
599.6245	4635
602.0905	4805
604.5538	4645
607.0206	4549
609.4825	4730
611.9459	4703
614.4066	4582
616.8686	4751
619.33	4638
621.7906	4678
624.2487	4631
626.708	4653
629.1647	4636
631.6207	4678
634.0801	4577
636.5348	4640
638.9888	4628
641.4442	4685
643.8969	4533
646.3509	4691
648.8022	4727
651.255	4747
653.705	4689
656.1544	4735
658.6031	4777
661.0532	4818
663.5026	4829
665.9493	4693
668.3954	4686
670.8409	4756
673.2877	4828
675.7318	4776
678.1752	4776
680.618	4907
683.0601	4785
685.5035	4816
687.9444	4721
690.3845	4822
692.824	4808
695.2628	4793
697.701	4815
700.1406	4840
702.5774	4811
705.0116	4797
707.4472	4831
709.8821	4892
712.3183	4935
714.7519	4892
717.1829	4798
719.6151	4903
722.0468	4938
724.4777	4921
726.908	4978
729.3377	4909
731.7667	5048
734.1931	5003
736.6208	4964
739.0498	5088
741.4742	5106
743.9	4962
746.3231	4995
748.7476	5013
751.1713	5059
753.5945	5117
756.015	5057
758.4368	5141
760.856	5137
763.2766	5192
765.6965	5170
768.1157	5069
770.5323	5187
772.9483	5246
775.3656	5151
777.7822	5162
780.1963	5192
782.6116	5170
785.0244	5199
787.4365	5231
789.8499	5212
792.2626	5114
794.6728	5228
797.0823	5150
799.4911	5174
801.8994	5161
804.3109	5145
806.7178	5166
809.124	5122
811.5297	5196
813.9347	5175
816.341	5336
818.7447	5276
821.1478	5218
823.5502	5268
825.952	5170
828.3531	5214
830.7556	5219
833.1554	5294
835.5546	5238
837.9532	5223
840.3511	5170
842.7504	5411
845.1451	5403
847.5411	5181
849.9365	5327
852.3312	5366
854.7272	5432
857.1187	5346
859.5115	5468
861.9037	5347
864.2952	5306
866.6842	5393
869.0764	5241
871.4661	5410
873.8531	5315
876.2415	5338
878.6272	5305
881.0162	5310
883.4026	5286
885.7866	5291
888.1717	5345
890.5543	5296
892.9382	5334
895.3215	5267
897.7041	5341
900.0842	5351
902.4655	5314
904.8443	5391
907.2244	5316
909.6039	5387
911.9808	5440
914.357	5508
916.7346	5454
919.1115	5532
921.4859	5540
923.8616	5561
926.2347	5624
928.6071	5460
930.979	5544
933.3541	5514
935.7247	5510
938.0946	5559
940.4639	5658
942.8326	5773
945.2026	5656
947.5701	5703
949.9369	5774
952.305	5768
954.6705	5971
957.0355	5964
959.4017	6143
961.7654	6068
964.1284	6184
966.4908	6253
968.8527	6057
971.2138	5896
973.5743	5826
975.9343	5630
978.2936	5588
980.6522	5619
983.0122	5493
985.3696	5556
987.7245	5436
990.0807	5499
992.4362	5513
994.7911	5568
997.1474	5501
999.4991	5458
1001.852	5628
1004.205	5562
1006.555	5470
1008.908	5583
1011.258	5608
1013.606	5470
1015.956	5471
1018.302	5582
1020.652	5516
1022.998	5609
1025.345	5530
1027.691	5572
1030.035	5546
1032.378	5668
1034.724	5610
1037.066	5588
1039.409	5618
1041.75	5619
1044.092	5627
1046.433	5608
1048.771	5564
1051.112	5594
1053.449	5468
1055.786	5593
1058.124	5622
1060.462	5561
1062.797	5640
1065.131	5642
1067.467	5663
1069.8	5651
1072.135	5639
1074.467	5734
1076.798	5671
1079.129	5635
1081.459	5602
1083.792	5687
1086.121	5594
1088.449	5670
1090.777	5634
1093.104	5582
1095.431	5626
1097.759	5531
1100.084	5614
1102.408	5657
1104.732	5654
1107.056	5681
1109.379	5560
1111.701	5574
1114.022	5669
1116.343	5640
1118.664	5628
1120.983	5659
1123.303	5613
1125.621	5776
1127.939	5674
1130.256	5619
1132.573	5605
1134.889	5752
1137.205	5662
1139.52	5710
1141.832	5752
1144.146	5634
1146.461	5635
1148.771	5680
1151.083	5600
1153.392	5623
1155.703	5591
1158.011	5611
1160.323	5562
1162.629	5670
1164.938	5677
1167.243	5633
1169.55	5661
1171.857	5765
1174.163	5730
1176.466	5823
1178.769	5641
1181.073	5710
1183.374	5650
1185.677	5558
1187.979	5674
1190.279	5704
1192.578	5793
1194.878	5603
1197.178	5592
1199.476	5716
1201.772	5737
1204.068	5629
1206.366	5716
1208.663	5687
1210.957	5824
1213.251	5759
1215.544	5731
1217.836	5798
1220.128	5698
1222.421	5759
1224.712	5727
1227.002	5710
1229.292	5757
1231.581	5796
1233.871	5867
1236.159	5925
1238.446	5835
1240.732	5806
1243.018	5799
1245.304	5949
1247.59	5958
1249.874	5970
1252.156	6009
1254.439	5853
1256.721	5819
1259.005	5819
1261.286	5932
1263.565	5839
1265.845	5873
1268.125	5882
1270.403	5877
1272.682	5872
1274.959	5910
1277.234	5903
1279.511	5878
1281.787	5874
1284.062	5804
1286.337	5770
1288.609	5882
1290.882	5801
1293.153	5793
1295.428	5862
1297.698	5875
1299.969	5888
1302.237	5778
1304.507	5766
1306.777	5712
1309.044	5730
1311.312	5793
1313.578	5867
1315.844	5746
1318.109	5813
1320.375	5848
1322.638	5779
1324.903	5810
1327.165	5799
1329.427	5787
1331.69	5816
1333.952	5939
1336.212	5780
1338.471	5894
1340.73	5903
1342.988	5779
1345.248	5899
1347.505	5803
1349.763	5772
1352.019	5928
1354.274	5795
1356.53	5860
1358.784	5780
1361.038	5796
1363.291	5794
1365.543	5878
1367.797	5747
1370.048	5800
1372.296	5972
1374.546	5908
1376.796	5791
1379.045	5829
1381.295	5827
1383.542	5740
1385.787	5742
1388.034	5870
1390.28	5820
1392.527	5886
1394.772	5778
1397.014	5949
1399.258	5959
1401.501	5918
1403.741	5964
1405.985	5989
1408.226	6029
1410.465	5938
1412.705	5930
1414.943	5966
1417.184	6021
1419.42	6011
1421.658	5958
1423.894	6044
1426.13	6016
1428.366	6048
1430.602	5991
1432.835	5939
1435.069	5909
1437.301	5945
1439.535	6140
1441.767	6108
1443.997	6013
1446.229	6086
1448.458	6147
1450.687	6096
1452.916	6087
1455.146	6075
1457.372	6063
1459.599	6166
1461.824	6038
1464.051	6093
1466.277	6053
1468.501	6097
1470.725	6027
1472.948	6018
1475.17	5917
1477.393	5996
1479.614	5766
1481.837	6033
1484.057	5973
1486.276	5857
1488.497	5890
1490.715	5828
1492.932	5737
1495.148	5873
1497.364	5739
1499.58	5793
1501.798	5846
1504.012	5754
1506.227	5785
1508.44	5721
1510.653	5726
1512.866	5753
1515.078	5700
1517.289	5702
1519.5	5855
1521.711	5786
1523.92	5676
1526.13	5680
1528.338	5736
1530.544	5788
1532.752	5875
1534.959	5711
1537.165	5777
1539.371	5673
1541.574	5901
1543.779	5793
1545.983	5716
1548.187	5873
1550.39	5831
1552.59	5749
1554.792	5807
1556.991	5751
1559.19	5892
1561.392	5975
1563.59	5777
1565.789	5885
1567.986	5925
1570.182	5820
1572.381	5920
1574.576	5846
1576.771	5894
1578.966	6007
1581.16	5854
1583.354	5926
1585.546	5886
1587.74	6021
1589.931	5931
1592.121	5986
1594.311	5941
1596.502	6059
1598.693	5821
1600.881	5946
1603.069	6124
1605.256	5943
1607.445	5992
1609.631	5882
1611.816	5970
1614.001	6039
1616.186	5933
1618.37	5916
1620.555	5967
1622.737	6010
1624.919	5959
1627.101	5890
1629.282	5948
1631.463	6015
1633.643	5932
1635.822	6148
1638.001	5974
1640.179	6020
1642.359	5946
1644.534	5946
1646.711	6052
1648.887	6076
1651.062	6054
1653.235	6049
1655.412	6185
1657.586	6185
1659.757	6094
1661.93	5987
1664.1	6014
1666.274	5998
1668.445	6120
1670.614	6096
1672.784	6069
1674.951	6035
1677.12	6005
1679.289	6004
1681.457	6023
1683.622	6062
1685.789	6041
1687.953	5977
1690.121	6086
1692.284	6005
1694.447	6028
1696.611	5972
1698.772	6030
1700.935	6116
1703.098	5983
1705.258	5953
1707.417	5907
1709.576	5888
1711.736	5923
1713.896	5927
1716.053	5892
1718.21	5941
1720.366	5849
1722.522	5914
1724.68	5903
1726.835	6016
1728.989	5870
1731.142	5972
1733.295	5960
1735.449	5973
1737.601	5926
1739.753	5962
1741.903	5999
1744.054	5895
1746.203	5983
1748.354	5893
1750.503	5923
1752.651	5864
1754.798	5850
1756.944	5941
1759.092	5978
1761.238	5902
1763.383	5895
1765.528	5998
1767.672	5898
1769.814	5981
1771.959	6027
1774.102	5836
1776.242	5999
1778.384	5968
1780.525	5997
1782.665	5932
1784.805	5932
1786.945	6069
1789.082	5952
1791.22	5985
1793.36	5916
1795.495	6166
1797.632	5851
1799.766	5965
1801.902	5973
1804.035	5976
1806.172	5989
1808.304	6010
1810.436	6011
1812.569	5971
1814.699	6001
1816.833	5902
1818.963	5960
1821.092	6029
1823.222	5868
1825.35	5909
1827.478	5838
1829.608	5974
1831.734	5913
1833.86	5893
1835.986	5986
1838.11	6050
1840.238	5947
1842.362	5936
1844.485	5843
1846.608	5880
1848.73	5888
1850.853	5929
1852.974	5956
1855.097	5950
1857.217	5934
1859.336	5787
1861.455	5913
1863.576	5935
1865.693	5973
1867.811	5838
1869.926	5997
1872.042	5884
1874.16	5920
1876.275	5931
1878.39	5952
1880.504	5897
1882.618	5838
1884.731	5895
1886.843	5793
1888.956	5907
1891.067	5923
1893.178	5979
1895.287	5927
1897.399	5884
1899.508	5821
1901.617	5882
1903.724	5858
1905.832	5911
1907.941	6023
1910.046	6050
1912.152	5972
1914.256	5959
1916.361	6002
1918.464	6048
1920.57	5938
1922.672	5829
1924.775	6118
1926.876	5888
1928.978	5998
1931.08	6063
1933.181	5939
1935.28	5948
1937.38	6068
1939.478	5946
1941.577	6030
1943.675	6067
1945.771	5961
1947.867	6011
1949.964	5990
1952.058	5921
1954.154	5994
1956.248	5969
1958.343	6073
1960.435	5959
1962.527	5950
1964.62	6001
1966.711	6019
1968.802	5995
1970.892	5937
1972.983	5918
1975.072	6091
1977.162	5956
1979.25	5909
1981.337	6002
1983.424	5953
1985.51	5944
1987.598	5921
1989.683	5918
1991.768	5886
1993.852	6017
1995.934	5860
1998.019	5811
2000.102	5910
2002.184	5958
2004.266	5890
2006.347	5936
2008.427	5956
2010.508	5851
2012.587	5919
2014.666	5893
2016.745	6002
2018.821	5809
2020.9	5862
2022.977	5923
2025.052	5802
2027.128	5947
2029.204	5917
2031.277	6025
2033.353	5815
2035.425	5940
2037.499	5870
2039.57	5887
2041.642	5920
2043.714	5817
2045.786	5807
2047.855	5930
2049.925	5989
2051.993	5870
2054.064	5839
2056.132	5847
2058.2	5874
2060.266	5887
2062.332	5855
2064.398	5867
2066.465	5880
2068.529	6008
2070.592	5790
2072.657	5950
2074.719	5835
2076.783	5936
2078.845	5843
2080.907	5830
2082.968	5896
2085.028	5990
2087.087	5879
2089.148	5965
2091.207	5875
2093.264	5906
2095.322	5830
2097.379	5878
2099.439	5837
2101.495	5946
2103.55	5930
2105.605	5891
2107.658	5835
2109.713	5828
2111.767	5881
2113.82	5958
2115.872	5864
2117.924	5917
2119.975	5851
2122.028	5943
2124.078	5925
2126.126	5843
2128.176	5879
2130.225	5822
2132.275	5819
2134.321	5805
2136.368	5890
2138.415	5910
2140.461	5912
2142.505	5854
2144.552	5832
2146.597	5817
2148.64	5745
2150.684	5928
2152.725	6004
2154.77	5815
2156.811	5824
2158.852	5807
2160.894	5830
2162.933	5779
2164.973	5903
2167.013	5765
2169.051	5821
2171.089	5769
2173.126	5895
2175.164	5809
2177.201	5780
2179.236	5729
2181.273	5894
2183.307	5849
2185.341	5798
2187.377	5669
2189.41	5820
2191.442	5690
2193.473	5848
2195.506	5578
2197.539	5826
2199.569	5715
2201.598	5792
2203.628	5740
2205.656	5849
2207.686	5762
2209.716	5622
2211.743	5662
2213.769	5757
2215.796	5672
2217.821	5590
2219.848	5623
2221.873	5721
2223.897	5697
2225.921	5687
2227.944	5667
2229.967	5712
2231.991	5580
2234.011	5722
2236.032	5622
2238.053	5646
2240.073	5724
2242.094	5782
2244.114	5699
2246.131	5686
2248.149	5662
2250.167	5694
2252.186	5681
2254.201	5757
2256.218	5697
2258.233	5654
2260.247	5707
2262.262	5692
2264.278	5658
2266.29	5633
2268.303	5723
2270.315	5732
2272.327	5695
2274.341	5690
2276.35	5594
2278.361	5818
2280.37	5685
2282.38	5708
2284.388	5677
2286.397	5697
2288.405	5619
2290.412	5733
2292.419	5678
2294.425	5759
2296.431	5722
2298.437	5687
2300.441	5779
2302.445	5680
2304.449	5701
2306.453	5647
2308.455	5598
2310.457	5633
2312.459	5740
2314.46	5650
2316.46	5572
2318.461	5676
2320.46	5665
2322.458	5591
2324.458	5539
2326.456	5601
2328.455	5642
2330.451	5668
2332.447	5635
2334.443	5514
2336.438	5476
2338.433	5535
2340.429	5689
2342.422	5540
2344.416	5517
2346.408	5605
2348.399	5641
2350.393	5522
2352.384	5494
2354.375	5600
2356.365	5579
2358.355	5549
2360.344	5580
2362.333	5570
2364.322	5591
2366.309	5525
2368.295	5644
2370.282	5569
2372.27	5591
2374.256	5501
2376.24	5581
2378.225	5462
2380.208	5505
2382.194	5468
2384.177	5548
2386.159	5454
2388.142	5378
2390.122	5443
2392.105	5453
2394.085	5542
2396.066	5566
2398.044	5448
2400.024	5542
2402.002	5402
2403.982	5537
2405.959	5434
2407.935	5473
2409.913	5488
2411.888	5448
2413.865	5498
2415.84	5467
2417.814	5374
2419.788	5397
2421.762	5521
2423.735	5427
2425.708	5423
2427.68	5419
2429.651	5464
2431.623	5348
2433.593	5448
2435.564	5460
2437.533	5556
2439.502	5432
2441.47	5436
2443.438	5452
2445.406	5422
2447.373	5483
2449.34	5439
2451.305	5450
2453.271	5519
2455.235	5465
2457.201	5494
2459.165	5353
2461.129	5467
2463.092	5432
2465.054	5444
2467.018	5423
2468.978	5421
2470.939	5404
2472.899	5413
2474.86	5361
2476.819	5378
2478.778	5329
2480.737	5387
2482.695	5347
2484.653	5362
2486.609	5399
2488.567	5343
2490.524	5377
2492.478	5241
2494.433	5365
2496.387	5363
2498.343	5386
2500.297	5448
2502.249	5292
2504.202	5268
2506.153	5479
2508.105	5336
2510.057	5387
2512.008	5416
2513.957	5409
2515.906	5336
2517.855	5209
2519.805	5270
2521.754	5249
2523.7	5353
2525.647	5344
2527.594	5284
2529.54	5325
2531.486	5321
2533.431	5338
2535.376	5346
2537.32	5324
2539.263	5221
2541.207	5276
2543.151	5243
2545.093	5311
2547.034	5343
2548.975	5304
2550.917	5293
2552.856	5210
2554.796	5349
2556.735	5381
2558.673	5416
2560.611	5378
2562.55	5219
2564.487	5324
2566.424	5411
2568.36	5269
2570.296	5332
2572.232	5244
2574.167	5183
2576.101	5331
2578.035	5344
2579.969	5330
2581.902	5345
2583.834	5365
2585.766	5304
2587.698	5302
2589.628	5305
2591.557	5298
2593.489	5383
2595.419	5372
2597.348	5329
2599.275	5308
2601.204	5210
2603.131	5344
2605.059	5245
2606.986	5169
2608.911	5264
2610.837	5294
2612.76	5300
2614.687	5354
2616.61	5314
2618.534	5226
2620.457	5366
2622.38	5181
2624.302	5296
2626.225	5252
2628.145	5287
2630.067	5285
2631.986	5328
2633.906	5271
2635.827	5324
2637.745	5329
2639.662	5337
2641.581	5296
2643.498	5300
2645.415	5167
2647.331	5274
2649.248	5336
2651.163	5334
2653.077	5232
2654.993	5253
2656.906	5212
2658.821	5297
2660.733	5277
2662.646	5268
2664.557	5227
2666.47	5220
2668.381	5232
2670.291	5237
2672.201	5284
2674.11	5356
2676.021	5160
2677.929	5279
2679.837	5271
2681.745	5255
2683.652	5271
2685.56	5199
2687.466	5206
2689.371	5316
2691.276	5287
2693.181	5297
2695.085	5241
2696.991	5232
2698.893	5160
2700.796	5199
2702.698	5152
2704.601	5231
2706.502	5197
2708.404	5190
2710.304	5265
2712.203	5114
2714.103	5081
2716.003	5137
2717.902	5280
2719.8	5070
2721.697	5168
2723.594	5088
2725.49	5278
2727.389	5135
2729.283	5136
2731.179	5159
2733.073	5142
2734.968	5144
2736.863	5140
2738.757	5157
2740.649	5146
2742.541	5202
2744.433	5086
2746.324	5075
2748.216	5130
2750.107	5237
2751.997	5147
2753.886	5163
2755.776	5135
2757.666	5162
2759.553	5104
2761.44	5140
2763.327	5177
2765.215	5101
2767.102	5101
2768.988	5086
2770.873	5130
2772.757	5178
2774.641	5054
2776.525	5103
2778.41	5072
2780.292	5197
2782.175	5046
2784.057	5125
2785.938	5100
2787.821	4969
2789.701	5057
2791.581	5025
2793.461	5066
2795.34	5124
2797.219	5106
2799.099	5162
2800.975	5085
2802.853	5165
2804.73	5012
2806.606	5097
2808.484	5073
2810.358	5019
2812.233	5052
2814.108	5062
2815.981	5077
2817.857	5042
2819.73	5067
2821.602	5037
2823.474	5033
2825.346	5103
2827.217	5072
2829.089	5081
2830.959	5155
2832.829	4994
2834.698	5112
2836.567	5052
2838.436	5100
2840.305	5064
2842.172	5100
2844.04	5111
2845.905	5172
2847.772	5098
2849.639	5183
2851.503	5071
2853.369	5056
2855.232	5056
2857.096	5097
2858.961	5090
2860.824	5225
2862.686	5085
2864.547	5212
2866.41	5211
2868.272	5169
2870.132	5240
2871.992	5220
2873.851	5245
2875.711	5372
2877.57	5355
2879.429	5429
2881.287	5427
2883.144	5438
2885.001	5472
2886.857	5473
2888.714	5405
2890.57	5461
2892.425	5436
2894.279	5460
2896.133	5423
2897.987	5419
2899.842	5525
2901.694	5471
2903.547	5537
2905.397	5417
2907.249	5519
2909.101	5403
2910.952	5549
2912.802	5515
2914.652	5520
2916.5	5497
2918.35	5639
2920.198	5610
2922.045	5643
2923.893	5736
2925.74	5765
2927.585	5804
2929.433	5800
2931.279	5890
2933.123	5855
2934.968	5894
2936.811	5972
2938.656	6017
2940.5	6024
2942.342	5979
2944.185	6089
2946.026	6141
2947.87	5895
2949.71	6129
2951.549	5999
2953.39	5972
2955.229	6027
2957.069	5905
2958.908	5940
2960.746	5877
2962.584	5788
2964.421	5761
2966.257	5737
2968.094	5712
2969.931	5720
2971.766	5645
2973.601	5613
2975.435	5643
2977.27	5641
2979.105	5573
2980.938	5634
2982.77	5474
2984.602	5471
2986.434	5550
2988.267	5490
2990.097	5342
2991.927	5426
2993.757	5368
2995.587	5400
2997.417	5275
2999.246	5361
3001.074	5142
3002.902	5160
3004.729	5196
3006.556	5134
3008.384	5148
3010.21	5193
3012.036	5061
3013.861	4942
3015.684	4906
3017.51	4930
3019.334	4905
3021.157	4871
3022.981	4895
3024.802	4886
3026.624	4861
3028.448	4902
3030.267	4798
3032.088	4821
3033.909	4834
3035.728	4797
3037.549	4814
3039.368	4743
3041.186	4745
3043.004	4607
3044.821	4715
3046.64	4689
3048.455	4753
3050.272	4698
3052.087	4781
3053.903	4745
3055.717	4596
3057.534	4708
3059.347	4764
3061.16	4757
3062.974	4647
3064.785	4700
3066.598	4665
3068.411	4717
3070.222	4729
3072.032	4653
3073.844	4680
3075.653	4702
3077.463	4638
3079.272	4552
3081.08	4707
3082.889	4636
3084.697	4530
3086.505	4702
3088.312	4548
3090.118	4643
3091.924	4539
3093.729	4596
3095.535	4523
3097.34	4572
3099.144	4595
3100.947	4568
3102.75	4475
3104.553	4530
3106.357	4572
3108.159	4561
3109.961	4506
3111.762	4546
3113.562	4515
3115.365	4472
3117.164	4481
3118.964	4518
3120.761	4473
3122.56	4485
3124.36	4451
3126.158	4470
3127.954	4513
3129.75	4353
3131.547	4490
3133.343	4466
3135.139	4441
3136.934	4526
3138.729	4521
3140.522	4399
3142.317	4360
3144.11	4425
3145.904	4412
3147.695	4360
3149.488	4479
3151.28	4431
3153.07	4491
3154.863	4363
3156.652	4402
3158.441	4422
3160.231	4413
3162.019	4422
3163.81	4420
3165.597	4398
3167.384	4363
3169.172	4374
3170.958	4328
3172.745	4435
3174.532	4373
3176.317	4359
3178.101	4417
3179.885	4358
3181.67	4386
3183.455	4471
3185.238	4325
3187.02	4378
3188.802	4277
3190.585	4351
3192.368	4206
3194.149	4373
3195.929	4416
3197.709	4381
3199.489	4351
3201.268	4310
3203.048	4319
3204.826	4374
3206.604	4273
3208.382	4375
3210.159	4308
3211.937	4332
3213.713	4349
3215.489	4289
3217.263	4361
3219.038	4363
3220.815	4346
3222.589	4213
3224.363	4311
3226.136	4242
3227.908	4318
3229.681	4381
3231.454	4288
3233.226	4287
3234.996	4305
3236.767	4391
3238.538	4295
3240.308	4334
3242.078	4257
3243.847	4362
3245.615	4373
3247.384	4295
3249.15	4350
3250.92	4351
3252.686	4275
3254.453	4180
3256.218	4296
3257.984	4281
3259.75	4266
3261.515	4261
3263.279	4269
3265.044	4265
3266.806	4293
3268.57	4205
3270.334	4397
3272.095	4258
3273.856	4250
3275.619	4347
3277.379	4307
3279.14	4238
3280.9	4345
3282.661	4321
3284.419	4303
3286.178	4228
3287.937	4319
3289.695	4310
3291.453	4341
3293.21	4270
3294.967	4248
3296.723	4291
3298.48	4264
3300.235	4279
3301.99	4269
3303.744	4240
3305.498	4310
3307.253	4379
3309.006	4258
3310.759	4304
3312.511	4340
3314.263	4300
3316.017	4254
3317.768	4259
3319.519	4282
3321.268	4255
3323.018	4236
3324.767	4319
3326.518	4207
3328.267	4204
3330.014	4276
3331.762	4164
3333.509	4268
3335.258	4283
3337.003	4369
3338.75	4205
3340.496	4162
3342.24	4210
3343.987	4205
3345.732	4237
3347.475	4254
3349.219	4257
3350.961	4317
3352.705	4187
3354.448	4093
3356.19	4195
3357.931	4148
3359.672	4159
3361.412	4192
3363.155	4256
3364.894	4178
3366.633	4249
3368.372	4089
3370.11	4241
3371.849	4153
3373.588	4069
3375.325	4135
3377.061	4082
3378.799	4153
3380.534	4204
3382.271	4128
3384.006	4085
3385.741	4071
3387.475	4126
3389.209	4072
3390.944	4073
3392.677	4186
3394.409	4043
3396.143	4177
3397.874	4154
3399.606	4100
3401.338	4117
3403.069	4047
3404.799	4150
3406.528	4065
3408.258	4157
3409.988	4003
3411.717	4069
3413.445	4109
3415.173	4070
3416.899	4008
3418.626	4029
3420.354	3960
3422.08	4059
3423.806	3945
3425.531	4092
3427.255	3997
3428.981	4005
3430.705	4113
3432.429	4076
3434.151	4013
3435.875	3988
3437.599	4025
3439.321	3930
3441.042	3981
3442.763	3956
3444.483	3968
3446.204	4065
3447.926	4019
3449.645	3969
3451.364	3979
3453.082	4025
3454.801	3976
3456.52	3986
3458.238	3985
3459.954	3893
3461.671	3899
3463.387	3994
3465.104	3862
3466.82	3851
3468.534	3971
3470.25	3936
3471.963	3918
3473.676	3932
3475.392	3918
3477.104	3984
3478.817	3848
3480.528	3972
3482.241	3902
3483.954	3852
3485.664	3889
3487.374	3770
3489.084	3902
3490.795	3758
3492.504	3866
3494.214	3794
3495.922	3905
3497.63	3813
3499.338	3759
3501.045	3873
3502.753	3830
3504.459	3787
3506.166	3735
3507.871	3877
3509.576	3815
3511.283	3787
3512.987	3753
3514.691	3816
3516.395	3826
3518.098	3829
3519.8	3789
3521.504	3751
3523.206	3710
3524.908	3763
3526.609	3699
3528.309	3712
3530.011	3787
3531.711	3738
3533.411	3736
3535.109	3775
3536.808	3728
3538.507	3766
3540.206	3740
3541.904	3775
3543.601	3750
3545.297	3768
3546.994	3693
3548.69	3725
3550.387	3624
3552.081	3683
3553.776	3755
3555.47	3676
3557.166	3639
3558.859	3681
3560.553	3628
3562.245	3658
3563.938	3685
3565.629	3658
3567.322	3660
3569.014	3676
3570.704	3587
3572.394	3630
3574.084	3634
3575.775	3707
3577.464	3674
3579.152	3645
3580.842	3685
3582.529	3627
3584.216	3611
3585.905	3644
3587.591	3590
3589.279	3577
3590.964	3600
3592.649	3523
3594.336	3566
3596.021	3657
3597.705	3601
3599.388	3625
3601.072	3595
3602.757	3530
3604.439	3496
3606.122	3508
3607.803	3594
3609.485	3543
3611.167	3524
3612.849	3586
3614.529	3567
3616.208	3451
3617.888	3508
3619.567	3523
3621.247	3471
3622.926	3413
3624.603	3434
3626.281	3504
3627.958	3461
3629.635	3567
3631.312	3475
3632.989	3465
3634.665	3482
3636.339	3480
3638.014	3455
3639.691	3419
3641.364	3451
3643.038	3409
3644.71	3436
3646.384	3453
3648.058	3409
3649.729	3442
3651.402	3405
3653.073	3408
3654.744	3480
3656.414	3470
3658.085	3338
3659.755	3403
3661.424	3464
3663.094	3425
3664.762	3362
3666.431	3432
3668.099	3426
3669.766	3416
3671.433	3352
3673.099	3387
3674.768	3384
3676.433	3382
3678.098	3354
3679.763	3454
3681.428	3405
3683.093	3450
3684.757	3356
3686.421	3307
3688.083	3356
3689.746	3375
3691.408	3301
3693.071	3297
3694.733	3414
3696.394	3318
3698.054	3326
3699.715	3367
3701.375	3302
3703.036	3332
3704.695	3330
3706.354	3279
3708.012	3321
3709.67	3358
3711.329	3310
3712.987	3294
3714.644	3388
3716.299	3359
3717.955	3369
3719.613	3284
3721.268	3298
3722.923	3296
3724.577	3270
3726.231	3259
3727.885	3252
3729.539	3249
3731.192	3264
3732.845	3239
3734.497	3269
3736.149	3322
3737.802	3222
3739.453	3265
3741.104	3249
3742.753	3282
3744.404	3220
3746.052	3237
3747.704	3280
3749.352	3237
3751	3311
3752.648	3275
3754.296	3226
3755.944	3246
3757.59	3246
3759.238	3295
3760.883	3283
3762.528	3282
3764.176	3202
3765.82	3255
3767.464	3286
3769.109	3255
3770.753	3234
3772.396	3187
3774.04	3181
3775.683	3280
3777.325	3258
3778.967	3241
3780.608	3217
3782.25	3220
3783.89	3242
3785.531	3048
3787.17	3173
3788.81	3201
3790.45	3248
3792.09	3137
3793.729	3176
3795.366	3239
3797.003	3206
3798.64	3115
3800.278	3166
3801.915	3146
3803.551	3142
3805.187	3119
3806.822	3106
3808.458	3153
3810.093	3108
3811.726	3108
3813.36	3092
3814.994	3120
3816.627	3157
3818.262	3151
3819.893	3120
3821.525	3126
3823.157	3074
3824.787	3065
3826.42	3110
3828.051	3081
3829.68	3095
3831.31	3060
3832.938	3096
3834.569	3133
3836.198	3130
3837.825	3057
3839.454	3162
3841.08	3066
3842.708	3071
3844.335	3113
3845.962	3070
3847.587	3039
3849.212	3108
3850.838	3056
3852.463	3028
3854.089	3055
3855.712	3081
3857.335	3003
3858.959	3063
3860.582	3055
3862.205	3017
3863.827	3060
3865.449	3014
3867.07	3037
3868.691	3050
3870.312	3025
3871.933	2990
3873.553	3022
3875.173	2959
3876.792	3012
3878.411	2995
3880.03	3038
3881.647	2998
3883.265	3014
3884.882	2971
3886.499	3007
3888.116	3042
3889.732	2974
3891.348	3041
3892.964	2992
3894.579	3033
3896.195	2959
3897.809	2922
3899.423	3021
3901.036	2985
3902.648	2890
3904.261	2980
3905.875	2967
3907.487	3030
3909.099	2954
3910.709	3014
3912.321	2948
3913.933	3016
3915.542	2898
3917.152	2906
3918.762	2953
3920.37	2940
3921.98	2953
3923.589	2885
3925.196	2951
3926.804	2971
3928.41	2952
3930.018	2917
3931.626	2853
3933.231	2991
3934.838	2962
3936.442	2958
3938.046	3016
3939.653	2918
3941.257	2897
3942.861	2964
3944.464	2934
3946.068	2967
3947.67	2942
3949.273	2926
3950.876	2897
3952.477	2923
3954.078	2904
3955.678	2930
3957.281	2917
3958.881	2986
3960.48	2878
3962.079	2900
3963.678	2884
3965.279	2901
3966.877	2832
3968.475	2898
3970.072	2927
3971.669	2905
3973.266	2869
3974.864	2873
3976.459	2800
3978.055	2883
3979.65	2904
3981.245	2903
3982.841	2835
3984.436	2840
3986.03	2771
3987.623	2820
3989.216	2884
3990.809	2774
3992.403	2813
3993.995	2837
3995.586	2858
3997.177	2790
3998.768	2840
4000.361	2831
4001.951	2800
4003.54	2818
4005.13	2807
4006.719	2817
4008.31	2704
4009.897	2804
4011.485	2770
4013.073	2724
4014.66	2746
4016.247	2773
4017.834	2693
4019.421	2819
4021.006	2718
4022.592	2723
4024.178	2849
4025.763	2725
4027.348	2741
4028.932	2772
4030.515	2739
4032.099	2714
4033.682	2726
4035.266	2737
4036.847	2715
4038.429	2732
4040.011	2759
4041.592	2718
4043.173	2743
4044.755	2703
4046.334	2737
4047.913	2709
4049.494	2704
4051.074	2676
4052.652	2725
4054.23	2672
4055.807	2722
4057.385	2696
4058.963	2698
4060.541	2694
4062.117	2654
4063.693	2766
4065.269	2683
4066.844	2616
4068.42	2666
4069.995	2672
4071.569	2726
4073.143	2606
4074.716	2724
4076.291	2674
4077.864	2626
4079.436	2627
4081.009	2611
4082.58	2645
4084.152	2678
4085.723	2667
4087.294	2639
4088.865	2643
4090.435	2657
4092.005	2640
4093.574	2676
4095.143	2684
4096.712	2660
4098.279	2622
4099.848	2638
4101.416	2640
4102.984	2684
4104.55	2643
4106.117	2644
4107.682	2625
4109.248	2658
4110.815	2594
4112.379	2613
4113.945	2606
4115.508	2561
4117.073	2597
4118.637	2621
4120.201	2564
4121.763	2679
4123.325	2514
4124.888	2607
4126.449	2549
4128.013	2542
4129.573	2612
4131.133	2542
4132.694	2584
4134.254	2577
4135.814	2538
4137.374	2569
4138.933	2602
4140.491	2514
4142.049	2529
4143.607	2592
4145.167	2500
4146.724	2492
4148.28	2599
4149.836	2489
4151.392	2514
4152.949	2515
4154.504	2530
4156.059	2466
4157.614	2544
4159.168	2483
4160.723	2512
4162.277	2538
4163.83	2488
4165.383	2512
4166.936	2474
4168.488	2459
4170.041	2467
4171.593	2453
4173.144	2446
4174.695	2487
4176.246	2470
4177.796	2464
4179.346	2492
4180.896	2431
4182.445	2492
4183.994	2470
4185.542	2488
4187.091	2550
4188.639	2469
4190.185	2435
4191.732	2415
4193.279	2395
4194.826	2517
4196.373	2503
4197.918	2458
4199.463	2394
4201.008	2442
4202.553	2450
4204.098	2462
4205.641	2415
4207.185	2441
4208.728	2442
4210.271	2313
4211.814	2444
4213.357	2415
4214.898	2402
4216.439	2414
4217.98	2378
4219.522	2461
4221.062	2413
4222.603	2388
4224.142	2395
4225.681	2387
4227.222	2404
4228.76	2418
4230.298	2384
4231.835	2356
4233.373	2434
4234.911	2335
4236.449	2400
4237.985	2402
4239.521	2421
4241.057	2372
4242.592	2381
4244.128	2404
4245.663	2411
4247.197	2348
4248.731	2372
4250.265	2370
4251.798	2368
4253.333	2406
4254.865	2426
4256.397	2387
4257.93	2279
4259.461	2395
4260.994	2357
4262.525	2338
4264.056	2339
4265.586	2377
4267.115	2348
4268.646	2327
4270.176	2347
4271.705	2302
4273.232	2265
4274.761	2350
4276.289	2303
4277.818	2309
4279.345	2324
4280.872	2353
4282.399	2363
4283.924	2303
4285.452	2321
4286.976	2304
4288.502	2355
4290.026	2305
4291.551	2351
4293.074	2308
4294.6	2294
4296.123	2320
4297.646	2285
4299.168	2315
4300.691	2356
4302.214	2304
4303.736	2256
4305.257	2255
4306.778	2266
4308.299	2268
4309.82	2322
4311.34	2270
4312.86	2236
4314.379	2302
