400.0745	4139
402.597	4274
405.1208	4193
407.6419	4281
410.1623	4268
412.6819	4271
415.201	4310
417.7172	4242
420.2369	4406
422.7538	4460
425.2701	4521
427.7856	4514
430.3005	4589
432.8147	4477
435.3282	4583
437.841	4579
440.3511	4553
442.8625	4529
445.3753	4648
447.8854	4430
450.3927	4566
452.9014	4473
455.4073	4515
457.9146	4548
460.4233	4466
462.9272	4497
465.4325	4398
467.935	4529
470.4389	4383
472.9421	4547
475.4446	4572
477.9444	4505
480.4456	4487
482.944	4516
485.4417	4550
487.9429	4572
490.4393	4454
492.935	4585
495.4321	4583
497.9264	4544
500.4221	4575
502.9171	4578
505.4094	4618
507.9011	4696
510.392	4579
512.8864	4584
515.3759	4604
517.8649	4602
520.3531	4674
522.8406	4683
525.3275	4589
527.8178	4686
530.3033	4691
532.7881	4661
535.2723	4635
537.7558	4664
540.2407	4670
542.7228	4705
545.2043	4660
547.6851	4632
550.1652	4703
552.6467	4801
555.1255	4700
557.6016	4768
560.079	4700
562.5557	4718
565.0318	4663
567.5092	4695
569.984	4781
572.456	4807
574.9294	4859
577.4022	4834
579.8762	4829
582.3456	4949
584.8163	4817
587.2863	4933
589.7557	4964
592.2224	4950
594.6924	4904
597.1578	4910
599.6245	4921
602.0905	4887
604.5538	4929
607.0206	4949
609.4825	4823
611.9459	4931
614.4066	4871
616.8686	4788
619.33	4785
621.7906	4914
624.2487	4724
626.708	4862
629.1647	4829
631.6207	4772
634.0801	4750
636.5348	4793
638.9888	4785
641.4442	4841
643.8969	4708
646.3509	4763
648.8022	4852
651.255	4829
653.705	4718
656.1544	4775
658.6031	4862
661.0532	4877
663.5026	4924
665.9493	4864
668.3954	4912
670.8409	4884
673.2877	4964
675.7318	5008
678.1752	4892
680.618	4967
683.0601	4895
685.5035	4977
687.9444	4895
690.3845	5067
692.824	5066
695.2628	5061
697.701	5010
700.1406	5007
702.5774	4964
705.0116	5013
707.4472	5068
709.8821	5054
712.3183	5050
714.7519	5111
717.1829	4990
719.6151	5157
722.0468	5010
724.4777	5146
726.908	5115
729.3377	5087
731.7667	5123
734.1931	5232
736.6208	5089
739.0498	5128
741.4742	5080
743.9	5180
746.3231	5168
748.7476	5253
751.1713	5301
753.5945	5270
756.015	5201
758.4368	5256
760.856	5295
763.2766	5312
765.6965	5472
768.1157	5405
770.5323	5318
772.9483	5377
775.3656	5378
777.7822	5288
780.1963	5312
782.6116	5398
785.0244	5411
787.4365	5416
789.8499	5390
792.2626	5284
794.6728	5350
797.0823	5336
799.4911	5370
801.8994	5345
804.3109	5407
806.7178	5434
809.124	5318
811.5297	5455
813.9347	5441
816.341	5431
818.7447	5292
821.1478	5431
823.5502	5381
825.952	5483
828.3531	5506
830.7556	5546
833.1554	5508
835.5546	5409
837.9532	5493
840.3511	5440
842.7504	5423
845.1451	5537
847.5411	5594
849.9365	5508
852.3312	5531
854.7272	5584
857.1187	5683
859.5115	5676
861.9037	5561
864.2952	5666
866.6842	5672
869.0764	5546
871.4661	5580
873.8531	5503
876.2415	5573
878.6272	5517
881.0162	5574
883.4026	5652
885.7866	5559
888.1717	5553
890.5543	5505
892.9382	5534
895.3215	5550
897.7041	5642
900.0842	5475
902.4655	5581
904.8443	5644
907.2244	5639
909.6039	5617
911.9808	5600
914.357	5622
916.7346	5822
919.1115	5772
921.4859	5981
923.8616	5854
926.2347	5850
928.6071	5818
930.979	5940
933.3541	5925
935.7247	6052
938.0946	6018
940.4639	6045
942.8326	6130
945.2026	6142
947.5701	6312
949.9369	6523
952.305	6626
954.6705	6975
957.0355	7334
959.4017	7664
961.7654	7715
964.1284	7742
966.4908	7598
968.8527	7116
971.2138	6885
973.5743	6513
975.9343	6254
978.2936	6074
980.6522	5906
983.0122	5897
985.3696	5854
987.7245	5911
990.0807	5770
992.4362	5628
994.7911	5715
997.1474	5735
999.4991	5771
1001.852	5892
1004.205	5845
1006.555	5785
1008.908	5797
1011.258	5876
1013.606	5866
1015.956	5800
1018.302	5815
1020.652	5802
1022.998	5778
1025.345	5919
1027.691	5840
1030.035	5889
1032.378	5881
1034.724	5957
1037.066	5971
1039.409	5905
1041.75	5898
1044.092	5973
1046.433	5917
1048.771	5949
1051.112	5800
1053.449	5855
1055.786	5840
1058.124	5959
1060.462	6033
1062.797	6010
1065.131	5972
1067.467	6079
1069.8	6128
1072.135	6146
1074.467	6055
1076.798	6089
1079.129	6037
1081.459	6003
1083.792	5968
1086.121	5945
1088.449	5882
1090.777	5861
1093.104	5873
1095.431	5920
1097.759	5909
1100.084	5806
1102.408	5922
1104.732	5886
1107.056	5856
1109.379	5889
1111.701	5896
1114.022	5875
1116.343	5911
1118.664	5845
1120.983	5877
1123.303	5861
1125.621	5934
1127.939	5945
1130.256	5808
1132.573	5902
1134.889	5908
1137.205	5794
1139.52	5847
1141.832	5931
1144.146	5828
1146.461	5838
1148.771	5841
1151.083	5888
1153.392	5888
1155.703	5888
1158.011	5818
1160.323	5921
1162.629	5900
1164.938	5796
1167.243	5984
1169.55	5788
1171.857	5918
1174.163	6022
1176.466	5859
1178.769	5857
1181.073	5934
1183.374	5897
1185.677	5920
1187.979	5854
1190.279	5803
1192.578	5905
1194.878	5818
1197.178	5960
1199.476	5872
1201.772	5961
1204.068	5863
1206.366	5900
1208.663	5955
1210.957	5879
1213.251	5907
1215.544	5832
1217.836	5969
1220.128	5896
1222.421	5884
1224.712	5877
1227.002	5908
1229.292	6038
1231.581	6092
1233.871	6157
1236.159	6101
1238.446	6148
1240.732	6163
1243.018	6134
1245.304	6204
1247.59	6135
1249.874	6292
1252.156	6128
1254.439	6135
1256.721	6175
1259.005	6179
1261.286	6065
1263.565	6235
1265.845	6077
1268.125	6239
1270.403	6168
1272.682	6041
1274.959	6141
1277.234	6003
1279.511	6114
1281.787	6203
1284.062	6074
1286.337	6062
1288.609	6030
1290.882	6116
1293.153	6035
1295.428	6028
1297.698	6088
1299.969	5963
1302.237	6020
1304.507	5921
1306.777	6025
1309.044	5939
1311.312	6056
1313.578	5968
1315.844	6014
1318.109	6074
1320.375	6055
1322.638	5957
1324.903	6009
1327.165	6051
1329.427	6050
1331.69	6021
1333.952	6054
1336.212	6067
1338.471	6021
1340.73	6049
1342.988	5931
1345.248	6008
1347.505	6034
1349.763	6033
1352.019	6039
1354.274	6010
1356.53	6073
1358.784	5976
1361.038	5953
1363.291	6027
1365.543	5978
1367.797	6066
1370.048	5980
1372.296	6031
1374.546	5980
1376.796	6070
1379.045	6042
1381.295	6089
1383.542	6156
1385.787	6027
1388.034	6077
1390.28	6111
1392.527	6144
1394.772	6060
1397.014	6119
1399.258	6200
1401.501	6320
1403.741	6114
1405.985	6194
1408.226	6242
1410.465	6116
1412.705	6157
1414.943	6245
1417.184	6174
1419.42	6194
1421.658	6225
1423.894	6353
1426.13	6215
1428.366	6223
1430.602	6311
1432.835	6169
1435.069	6315
1437.301	6277
1439.535	6310
1441.767	6286
1443.997	6312
1446.229	6372
1448.458	6395
1450.687	6392
1452.916	6281
1455.146	6435
1457.372	6552
1459.599	6362
1461.824	6408
1464.051	6488
1466.277	6332
1468.501	6348
1470.725	6288
1472.948	6236
1475.17	6163
1477.393	6237
1479.614	6081
1481.837	6205
1484.057	6036
1486.276	6021
1488.497	6003
1490.715	6065
1492.932	5998
1495.148	5991
1497.364	5842
1499.58	5920
1501.798	5839
1504.012	5814
1506.227	5900
1508.44	5860
1510.653	5956
1512.866	5948
1515.078	5992
1517.289	5881
1519.5	5968
1521.711	6002
1523.92	5968
1526.13	5978
1528.338	5949
1530.544	5952
1532.752	5984
1534.959	6047
1537.165	5984
1539.371	6011
1541.574	5964
1543.779	6012
1545.983	5919
1548.187	5980
1550.39	6067
1552.59	6039
1554.792	6024
1556.991	5996
1559.19	6066
1561.392	6020
1563.59	6056
1565.789	6065
1567.986	6004
1570.182	6143
1572.381	6096
1574.576	6108
1576.771	6069
1578.966	6032
1581.16	6105
1583.354	6127
1585.546	6117
1587.74	6125
1589.931	6066
1592.121	6214
1594.311	6084
1596.502	6140
1598.693	6095
1600.881	6097
1603.069	6190
1605.256	6091
1607.445	6177
1609.631	6168
1611.816	6144
1614.001	6172
1616.186	6214
1618.37	6228
1620.555	6205
1622.737	6221
1624.919	6282
1627.101	6242
1629.282	6313
1631.463	6364
1633.643	6249
1635.822	6321
1638.001	6317
1640.179	6320
1642.359	6286
1644.534	6241
1646.711	6249
1648.887	6309
1651.062	6204
1653.235	6324
1655.412	6386
1657.586	6351
1659.757	6359
1661.93	6382
1664.1	6393
1666.274	6478
1668.445	6398
1670.614	6400
1672.784	6556
1674.951	6432
1677.12	6261
1679.289	6306
1681.457	6357
1683.622	6378
1685.789	6410
1687.953	6301
1690.121	6354
1692.284	6325
1694.447	6217
1696.611	6173
1698.772	6284
1700.935	6188
1703.098	6205
1705.258	6145
1707.417	6147
1709.576	6209
1711.736	6120
1713.896	6090
1716.053	6138
1718.21	6122
1720.366	6099
1722.522	6145
1724.68	6128
1726.835	6041
1728.989	6148
1731.142	6084
1733.295	5987
1735.449	6174
1737.601	6076
1739.753	6159
1741.903	6141
1744.054	6136
1746.203	6267
1748.354	6111
1750.503	6128
1752.651	6132
1754.798	6066
1756.944	6096
1759.092	6187
1761.238	6195
1763.383	6217
1765.528	6160
1767.672	6139
1769.814	6164
1771.959	6097
1774.102	6141
1776.242	6172
1778.384	6114
1780.525	6140
1782.665	6054
1784.805	6161
1786.945	6138
1789.082	6167
1791.22	6262
1793.36	6075
1795.495	6198
1797.632	6113
1799.766	6147
1801.902	6114
1804.035	6236
1806.172	6160
1808.304	6150
1810.436	6136
1812.569	6118
1814.699	6265
1816.833	6159
1818.963	6164
1821.092	6089
1823.222	6253
1825.35	6210
1827.478	6074
1829.608	6093
1831.734	6225
1833.86	6160
1835.986	6200
1838.11	6069
1840.238	6174
1842.362	6006
1844.485	6202
1846.608	6276
1848.73	6124
1850.853	6181
1852.974	6208
1855.097	6065
1857.217	6126
1859.336	6031
1861.455	6144
1863.576	6099
1865.693	6144
1867.811	6198
1869.926	6079
1872.042	6110
1874.16	6133
1876.275	6150
1878.39	6114
1880.504	6068
1882.618	6040
1884.731	6205
1886.843	6258
1888.956	6304
1891.067	6141
1893.178	6217
1895.287	6274
1897.399	6163
1899.508	6183
1901.617	6210
1903.724	6129
1905.832	6245
1907.941	6217
1910.046	6218
1912.152	6089
1914.256	6190
1916.361	6233
1918.464	6271
1920.57	6244
1922.672	6194
1924.775	6123
1926.876	6252
1928.978	6350
1931.08	6119
1933.181	6230
1935.28	6199
1937.38	6178
1939.478	6145
1941.577	6157
1943.675	6283
1945.771	6197
1947.867	6234
1949.964	6181
1952.058	6250
1954.154	6244
1956.248	6229
1958.343	6250
1960.435	6253
1962.527	6203
1964.62	6256
1966.711	6152
1968.802	6223
1970.892	6239
1972.983	6214
1975.072	6181
1977.162	6277
1979.25	6125
1981.337	6093
1983.424	6240
1985.51	6284
1987.598	6169
1989.683	6191
1991.768	6219
1993.852	6255
1995.934	6174
1998.019	6098
2000.102	6115
2002.184	6200
2004.266	6186
2006.347	6161
2008.427	6143
2010.508	6215
2012.587	6144
2014.666	6145
2016.745	6064
2018.821	6248
2020.9	6173
2022.977	6141
2025.052	6211
2027.128	6010
2029.204	6143
2031.277	6239
2033.353	6080
2035.425	6166
2037.499	6128
2039.57	6194
2041.642	6227
2043.714	6122
2045.786	6120
2047.855	6094
2049.925	6171
2051.993	6127
2054.064	6171
2056.132	6220
2058.2	6208
2060.266	6131
2062.332	6245
2064.398	6223
2066.465	6200
2068.529	6209
2070.592	6126
2072.657	6157
2074.719	6148
2076.783	6251
2078.845	6140
2080.907	6166
2082.968	6240
2085.028	6077
2087.087	6182
2089.148	6111
2091.207	6152
2093.264	6106
2095.322	6259
2097.379	6046
2099.439	6124
2101.495	6045
2103.55	6148
2105.605	6264
2107.658	6117
2109.713	6209
2111.767	6133
2113.82	6160
2115.872	6080
2117.924	6169
2119.975	6146
2122.028	6156
2124.078	6216
2126.126	6104
2128.176	6272
2130.225	6114
2132.275	6096
2134.321	6105
2136.368	6089
2138.415	6210
2140.461	6108
2142.505	6134
2144.552	6194
2146.597	6155
2148.64	6099
2150.684	6159
2152.725	6107
2154.77	6076
2156.811	6156
2158.852	6210
2160.894	6151
2162.933	6078
2164.973	6141
2167.013	6173
2169.051	6092
2171.089	6217
2173.126	6123
2175.164	5985
2177.201	6085
2179.236	6108
2181.273	6180
2183.307	6105
2185.341	6019
2187.377	6060
2189.41	5930
2191.442	5981
2193.473	6074
2195.506	6036
2197.539	6024
2199.569	6080
2201.598	5958
2203.628	5913
2205.656	6074
2207.686	5994
2209.716	6123
2211.743	5953
2213.769	6063
2215.796	5989
2217.821	5886
2219.848	6019
2221.873	6036
2223.897	5933
2225.921	6012
2227.944	6018
2229.967	6067
2231.991	5994
2234.011	6063
2236.032	6047
2238.053	5984
2240.073	6066
2242.094	6038
2244.114	5955
2246.131	5999
2248.149	5990
2250.167	5950
2252.186	6089
2254.201	6120
2256.218	5959
2258.233	5906
2260.247	6030
2262.262	6021
2264.278	5925
2266.29	5941
2268.303	6007
2270.315	5965
2272.327	6060
2274.341	5917
2276.35	5994
2278.361	6082
2280.37	6017
2282.38	6046
2284.388	6000
2286.397	6047
2288.405	5931
2290.412	5973
2292.419	6058
2294.425	5994
2296.431	6032
2298.437	6029
2300.441	5990
2302.445	6003
2304.449	6041
2306.453	6091
2308.455	5976
2310.457	5956
2312.459	6085
2314.46	6007
2316.46	6044
2318.461	5882
2320.46	5972
2322.458	5921
2324.458	5943
2326.456	5955
2328.455	5904
2330.451	6035
2332.447	5977
2334.443	5987
2336.438	5934
2338.433	5962
2340.429	5908
2342.422	5972
2344.416	5921
2346.408	5987
2348.399	5858
2350.393	5867
2352.384	5880
2354.375	5946
2356.365	5784
2358.355	5884
2360.344	5791
2362.333	5835
2364.322	5853
2366.309	5895
2368.295	5917
2370.282	5902
2372.27	5797
2374.256	5758
2376.24	5841
2378.225	5845
2380.208	5842
2382.194	5826
2384.177	5821
2386.159	5796
2388.142	5768
2390.122	5763
2392.105	5740
2394.085	5755
2396.066	5752
2398.044	5846
2400.024	5893
2402.002	5757
2403.982	5791
2405.959	5694
2407.935	5710
2409.913	5781
2411.888	5819
2413.865	5815
2415.84	5758
2417.814	5670
2419.788	5802
2421.762	5737
2423.735	5791
2425.708	5811
2427.68	5783
2429.651	5714
2431.623	5808
2433.593	5795
2435.564	5782
2437.533	5736
2439.502	5774
2441.47	5815
2443.438	5784
2445.406	5770
2447.373	5710
2449.34	5820
2451.305	5673
2453.271	5758
2455.235	5723
2457.201	5793
2459.165	5704
2461.129	5647
2463.092	5747
2465.054	5742
2467.018	5746
2468.978	5834
2470.939	5587
2472.899	5672
2474.86	5797
2476.819	5683
2478.778	5714
2480.737	5703
2482.695	5722
2484.653	5761
2486.609	5622
2488.567	5671
2490.524	5677
2492.478	5689
2494.433	5653
2496.387	5715
2498.343	5702
2500.297	5622
2502.249	5632
2504.202	5627
2506.153	5746
2508.105	5654
2510.057	5672
2512.008	5609
2513.957	5686
2515.906	5562
2517.855	5719
2519.805	5600
2521.754	5684
2523.7	5624
2525.647	5724
2527.594	5633
2529.54	5675
2531.486	5558
2533.431	5632
2535.376	5600
2537.32	5771
2539.263	5536
2541.207	5679
2543.151	5685
2545.093	5648
2547.034	5671
2548.975	5694
2550.917	5612
2552.856	5539
2554.796	5535
2556.735	5656
2558.673	5569
2560.611	5594
2562.55	5540
2564.487	5550
2566.424	5666
2568.36	5608
2570.296	5520
2572.232	5627
2574.167	5685
2576.101	5629
2578.035	5554
2579.969	5620
2581.902	5679
2583.834	5679
2585.766	5579
2587.698	5700
2589.628	5594
2591.557	5618
2593.489	5568
2595.419	5501
2597.348	5590
2599.275	5644
2601.204	5643
2603.131	5599
2605.059	5643
2606.986	5676
2608.911	5569
2610.837	5663
2612.76	5693
2614.687	5499
2616.61	5661
2618.534	5541
2620.457	5588
2622.38	5647
2624.302	5631
2626.225	5645
2628.145	5644
2630.067	5593
2631.986	5843
2633.906	5715
2635.827	5510
2637.745	5719
2639.662	5638
2641.581	5683
2643.498	5609
2645.415	5627
2647.331	5602
2649.248	5582
2651.163	5591
2653.077	5625
2654.993	5576
2656.906	5661
2658.821	5749
2660.733	5635
2662.646	5669
2664.557	5592
2666.47	5553
2668.381	5498
2670.291	5576
2672.201	5561
2674.11	5630
2676.021	5678
2677.929	5601
2679.837	5559
2681.745	5544
2683.652	5640
2685.56	5462
2687.466	5552
2689.371	5509
2691.276	5500
2693.181	5462
2695.085	5566
2696.991	5556
2698.893	5549
2700.796	5526
2702.698	5476
2704.601	5540
2706.502	5488
2708.404	5564
2710.304	5500
2712.203	5500
2714.103	5529
2716.003	5482
2717.902	5464
2719.8	5522
2721.697	5505
2723.594	5536
2725.49	5519
2727.389	5553
2729.283	5416
2731.179	5506
2733.073	5437
2734.968	5314
2736.863	5499
2738.757	5590
2740.649	5493
2742.541	5408
2744.433	5465
2746.324	5451
2748.216	5512
2750.107	5437
2751.997	5530
2753.886	5432
2755.776	5437
2757.666	5457
2759.553	5380
2761.44	5395
2763.327	5498
2765.215	5387
2767.102	5476
2768.988	5467
2770.873	5435
2772.757	5312
2774.641	5470
2776.525	5416
2778.41	5516
2780.292	5434
2782.175	5432
2784.057	5451
2785.938	5511
2787.821	5440
2789.701	5409
2791.581	5398
2793.461	5371
2795.34	5460
2797.219	5382
2799.099	5349
2800.975	5358
2802.853	5487
2804.73	5453
2806.606	5380
2808.484	5310
2810.358	5497
2812.233	5412
2814.108	5383
2815.981	5333
2817.857	5367
2819.73	5350
2821.602	5354
2823.474	5457
2825.346	5404
2827.217	5367
2829.089	5400
2830.959	5344
2832.829	5300
2834.698	5462
2836.567	5347
2838.436	5467
2840.305	5407
2842.172	5487
2844.04	5433
2845.905	5465
2847.772	5433
2849.639	5426
2851.503	5406
2853.369	5420
2855.232	5530
2857.096	5507
2858.961	5557
2860.824	5562
2862.686	5615
2864.547	5560
2866.41	5522
2868.272	5637
2870.132	5711
2871.992	5742
2873.851	5788
2875.711	5895
2877.57	5883
2879.429	5968
2881.287	6038
2883.144	5967
2885.001	6004
2886.857	6120
2888.714	6145
2890.57	6137
2892.425	6193
2894.279	6042
2896.133	6117
2897.987	6092
2899.842	6113
2901.694	6018
2903.547	6067
2905.397	5978
2907.249	6045
2909.101	6057
2910.952	6039
2912.802	6046
2914.652	6165
2916.5	6149
2918.35	6190
2920.198	6357
2922.045	6378
2923.893	6441
2925.74	6544
2927.585	6663
2929.433	6564
2931.279	6715
2933.123	6771
2934.968	6742
2936.811	6920
2938.656	6925
2940.5	6942
2942.342	7024
2944.185	7018
2946.026	7173
2947.87	7090
2949.71	7162
2951.549	7027
2953.39	7153
2955.229	6851
2957.069	6812
2958.908	6815
2960.746	6859
2962.584	6726
2964.421	6613
2966.257	6578
2968.094	6582
2969.931	6418
2971.766	6451
2973.601	6305
2975.435	6326
2977.27	6216
2979.105	6167
2980.938	6146
2982.77	6235
2984.602	6140
2986.434	6054
2988.267	6152
2990.097	6003
2991.927	6083
2993.757	6043
2995.587	5911
2997.417	5867
2999.246	5915
3001.074	5756
3002.902	5596
3004.729	5584
3006.556	5644
3008.384	5561
3010.21	5525
3012.036	5432
3013.861	5331
3015.684	5390
3017.51	5273
3019.334	5285
3021.157	5220
3022.981	5215
3024.802	5148
3026.624	5237
3028.448	5132
3030.267	5179
3032.088	5147
3033.909	5066
3035.728	5075
3037.549	5186
3039.368	5060
3041.186	5124
3043.004	5101
3044.821	5153
3046.64	4944
3048.455	5026
3050.272	5133
3052.087	5011
3053.903	5147
3055.717	5019
3057.534	5076
3059.347	5043
3061.16	4946
3062.974	5056
3064.785	5103
3066.598	4950
3068.411	5058
3070.222	5100
3072.032	4991
3073.844	5046
3075.653	4991
3077.463	5058
3079.272	4984
3081.08	5103
3082.889	5039
3084.697	4873
3086.505	4964
3088.312	4935
3090.118	4884
3091.924	4848
3093.729	4954
3095.535	4939
3097.34	4953
3099.144	4934
3100.947	4890
3102.75	4913
3104.553	4870
3106.357	4764
3108.159	4836
3109.961	4957
3111.762	4916
3113.562	4884
3115.365	4809
3117.164	4840
3118.964	4878
3120.761	4856
3122.56	4849
3124.36	4862
3126.158	4880
3127.954	4820
3129.75	4752
3131.547	4873
3133.343	4757
3135.139	4890
3136.934	4733
3138.729	4779
3140.522	4757
3142.317	4764
3144.11	4808
3145.904	4709
3147.695	4750
3149.488	4742
3151.28	4681
3153.07	4824
3154.863	4780
3156.652	4719
3158.441	4727
3160.231	4794
3162.019	4746
3163.81	4852
3165.597	4698
3167.384	4716
3169.172	4714
3170.958	4775
3172.745	4774
3174.532	4754
3176.317	4690
3178.101	4847
3179.885	4677
3181.67	4759
3183.455	4673
3185.238	4675
3187.02	4773
3188.802	4723
3190.585	4685
3192.368	4731
3194.149	4728
3195.929	4712
3197.709	4575
3199.489	4695
3201.268	4722
3203.048	4738
3204.826	4714
3206.604	4657
3208.382	4664
3210.159	4686
3211.937	4694
3213.713	4733
3215.489	4741
3217.263	4676
3219.038	4731
3220.815	4798
3222.589	4694
3224.363	4745
3226.136	4708
3227.908	4713
3229.681	4664
3231.454	4583
3233.226	4750
3234.996	4623
3236.767	4815
3238.538	4756
3240.308	4641
3242.078	4713
3243.847	4628
3245.615	4725
3247.384	4612
3249.15	4647
3250.92	4716
3252.686	4734
3254.453	4678
3256.218	4619
3257.984	4661
3259.75	4784
3261.515	4640
3263.279	4766
3265.044	4684
3266.806	4703
3268.57	4708
3270.334	4635
3272.095	4737
3273.856	4784
3275.619	4684
3277.379	4691
3279.14	4663
3280.9	4681
3282.661	4725
3284.419	4665
3286.178	4739
3287.937	4729
3289.695	4565
3291.453	4865
3293.21	4686
3294.967	4708
3296.723	4696
3298.48	4719
3300.235	4672
3301.99	4726
3303.744	4704
3305.498	4761
3307.253	4690
3309.006	4747
3310.759	4684
3312.511	4800
3314.263	4802
3316.017	4731
3317.768	4768
3319.519	4641
3321.268	4736
3323.018	4794
3324.767	4767
3326.518	4635
3328.267	4666
3330.014	4737
3331.762	4656
3333.509	4700
3335.258	4757
3337.003	4688
3338.75	4693
3340.496	4719
3342.24	4657
3343.987	4749
3345.732	4720
3347.475	4681
3349.219	4642
3350.961	4761
3352.705	4589
3354.448	4672
3356.19	4656
3357.931	4634
3359.672	4660
3361.412	4725
3363.155	4583
3364.894	4662
3366.633	4645
3368.372	4655
3370.11	4612
3371.849	4546
3373.588	4700
3375.325	4532
3377.061	4550
3378.799	4573
3380.534	4527
3382.271	4520
3384.006	4575
3385.741	4586
3387.475	4628
3389.209	4577
3390.944	4508
3392.677	4623
3394.409	4496
3396.143	4463
3397.874	4535
3399.606	4580
3401.338	4624
3403.069	4453
3404.799	4475
3406.528	4541
3408.258	4493
3409.988	4429
3411.717	4516
3413.445	4512
3415.173	4474
3416.899	4466
3418.626	4518
3420.354	4444
3422.08	4483
3423.806	4414
3425.531	4427
3427.255	4460
3428.981	4479
3430.705	4462
3432.429	4397
3434.151	4445
3435.875	4466
3437.599	4432
3439.321	4376
3441.042	4423
3442.763	4310
3444.483	4401
3446.204	4459
3447.926	4419
3449.645	4355
3451.364	4377
3453.082	4326
3454.801	4350
3456.52	4354
3458.238	4360
3459.954	4336
3461.671	4368
3463.387	4299
3465.104	4262
3466.82	4251
3468.534	4321
3470.25	4198
3471.963	4237
3473.676	4273
3475.392	4224
3477.104	4191
3478.817	4220
3480.528	4228
3482.241	4237
3483.954	4227
3485.664	4316
3487.374	4196
3489.084	4254
3490.795	4192
3492.504	4272
3494.214	4140
3495.922	4178
3497.63	4109
3499.338	4267
3501.045	4105
3502.753	4226
3504.459	4144
3506.166	4176
3507.871	4140
3509.576	4179
3511.283	4078
3512.987	4183
3514.691	4107
3516.395	4106
3518.098	4097
3519.8	4159
3521.504	4100
3523.206	4178
3524.908	4153
3526.609	4041
3528.309	4169
3530.011	4177
3531.711	4103
3533.411	4011
3535.109	4071
3536.808	3975
3538.507	4053
3540.206	4030
3541.904	4014
3543.601	3993
3545.297	4040
3546.994	4020
3548.69	3990
3550.387	4024
3552.081	4031
3553.776	3987
3555.47	3964
3557.166	3920
3558.859	4033
3560.553	4001
3562.245	3870
3563.938	3981
3565.629	4032
3567.322	4036
3569.014	3917
3570.704	3963
3572.394	4018
3574.084	3972
3575.775	3909
3577.464	3994
3579.152	4033
3580.842	3967
3582.529	3961
3584.216	4065
3585.905	3864
3587.591	3928
3589.279	3920
3590.964	4010
3592.649	3911
3594.336	3920
3596.021	3898
3597.705	3894
3599.388	3848
3601.072	3793
3602.757	3839
3604.439	3816
3606.122	3878
3607.803	3842
3609.485	3791
3611.167	3813
3612.849	3857
3614.529	3809
3616.208	3693
3617.888	3832
3619.567	3768
3621.247	3788
3622.926	3749
3624.603	3688
3626.281	3830
3627.958	3799
3629.635	3864
3631.312	3788
3632.989	3694
3634.665	3745
3636.339	3771
3638.014	3756
3639.691	3686
3641.364	3769
3643.038	3710
3644.71	3766
3646.384	3704
3648.058	3706
3649.729	3665
3651.402	3670
3653.073	3654
3654.744	3678
3656.414	3666
3658.085	3688
3659.755	3682
3661.424	3686
3663.094	3633
3664.762	3595
3666.431	3683
3668.099	3599
3669.766	3680
3671.433	3633
3673.099	3648
3674.768	3602
3676.433	3578
3678.098	3495
3679.763	3574
3681.428	3521
3683.093	3531
3684.757	3581
3686.421	3552
3688.083	3579
3689.746	3562
3691.408	3660
3693.071	3604
3694.733	3584
3696.394	3512
3698.054	3545
3699.715	3657
3701.375	3563
3703.036	3474
3704.695	3513
3706.354	3549
3708.012	3586
3709.67	3572
3711.329	3588
3712.987	3555
3714.644	3528
3716.299	3575
3717.955	3505
3719.613	3509
3721.268	3536
3722.923	3511
3724.577	3503
3726.231	3535
3727.885	3487
3729.539	3498
3731.192	3548
3732.845	3475
3734.497	3518
3736.149	3516
3737.802	3514
3739.453	3521
3741.104	3468
3742.753	3498
3744.404	3569
3746.052	3454
3747.704	3421
3749.352	3497
3751	3402
3752.648	3437
3754.296	3493
3755.944	3399
3757.59	3473
3759.238	3541
3760.883	3511
3762.528	3415
3764.176	3419
3765.82	3486
3767.464	3419
3769.109	3362
3770.753	3490
3772.396	3425
3774.04	3456
3775.683	3415
3777.325	3477
3778.967	3505
3780.608	3350
3782.25	3409
3783.89	3374
3785.531	3414
3787.17	3366
3788.81	3363
3790.45	3353
3792.09	3429
3793.729	3323
3795.366	3406
3797.003	3404
3798.64	3244
3800.278	3346
3801.915	3391
3803.551	3315
3805.187	3309
3806.822	3295
3808.458	3360
3810.093	3287
3811.726	3334
3813.36	3359
3814.994	3360
3816.627	3301
3818.262	3389
3819.893	3325
3821.525	3327
3823.157	3306
3824.787	3312
3826.42	3265
3828.051	3283
3829.68	3319
3831.31	3310
3832.938	3260
3834.569	3222
3836.198	3279
3837.825	3264
3839.454	3233
3841.08	3280
3842.708	3277
3844.335	3224
3845.962	3245
3847.587	3218
3849.212	3202
3850.838	3272
3852.463	3234
3854.089	3244
3855.712	3233
3857.335	3296
3858.959	3264
3860.582	3215
3862.205	3317
3863.827	3156
3865.449	3177
3867.07	3266
3868.691	3286
3870.312	3280
3871.933	3211
3873.553	3224
3875.173	3249
3876.792	3231
3878.411	3243
3880.03	3225
3881.647	3255
3883.265	3216
3884.882	3190
3886.499	3167
3888.116	3128
3889.732	3188
3891.348	3244
3892.964	3186
3894.579	3198
3896.195	3180
3897.809	3277
3899.423	3245
3901.036	3197
3902.648	3241
3904.261	3162
3905.875	3150
3907.487	3156
3909.099	3242
3910.709	3124
3912.321	3206
3913.933	3153
3915.542	3122
3917.152	3210
3918.762	3106
3920.37	3144
3921.98	3128
3923.589	3148
3925.196	3105
3926.804	3114
3928.41	3185
3930.018	3082
3931.626	3118
3933.231	3138
3934.838	3113
3936.442	3031
3938.046	3117
3939.653	3197
3941.257	3187
3942.861	3145
3944.464	3108
3946.068	3178
3947.67	3122
3949.273	3069
3950.876	3152
3952.477	3144
3954.078	3086
3955.678	3039
3957.281	3085
3958.881	3077
3960.48	3079
3962.079	3148
3963.678	3161
3965.279	3035
3966.877	3143
3968.475	3129
3970.072	3042
3971.669	3048
3973.266	3043
3974.864	3141
3976.459	3071
3978.055	3042
3979.65	3083
3981.245	3005
3982.841	3044
3984.436	3075
3986.03	3063
3987.623	3047
3989.216	3024
3990.809	3056
3992.403	3066
3993.995	2987
3995.586	3029
3997.177	2993
3998.768	3058
4000.361	2964
4001.951	3012
4003.54	2952
4005.13	2939
4006.719	3072
4008.31	3050
4009.897	2963
4011.485	2957
4013.073	2953
4014.66	2968
4016.247	2943
4017.834	2923
4019.421	3037
4021.006	2953
4022.592	2947
4024.178	3001
4025.763	2945
4027.348	2816
4028.932	2878
4030.515	2977
4032.099	2951
4033.682	2931
4035.266	2917
4036.847	2884
4038.429	2839
4040.011	2916
4041.592	2929
4043.173	2911
4044.755	2937
4046.334	2901
4047.913	2924
4049.494	2874
4051.074	2908
4052.652	2873
4054.23	2831
4055.807	2807
4057.385	2858
4058.963	2880
4060.541	2850
4062.117	2887
4063.693	2881
4065.269	2846
4066.844	2852
4068.42	2793
4069.995	2829
4071.569	2792
4073.143	2831
4074.716	2813
4076.291	2905
4077.864	2872
4079.436	2865
4081.009	2865
4082.58	2768
4084.152	2814
4085.723	2830
4087.294	2852
4088.865	2823
4090.435	2844
4092.005	2846
4093.574	2810
4095.143	2854
4096.712	2782
4098.279	2847
4099.848	2831
4101.416	2769
4102.984	2784
4104.55	2801
4106.117	2765
4107.682	2826
4109.248	2755
4110.815	2848
4112.379	2781
4113.945	2766
4115.508	2728
4117.073	2765
4118.637	2775
4120.201	2713
4121.763	2747
4123.325	2793
4124.888	2763
4126.449	2682
4128.013	2815
4129.573	2783
4131.133	2706
4132.694	2672
4134.254	2723
4135.814	2784
4137.374	2684
4138.933	2666
4140.491	2739
4142.049	2787
4143.607	2732
4145.167	2725
4146.724	2679
4148.28	2731
4149.836	2760
4151.392	2756
4152.949	2662
4154.504	2649
4156.059	2680
4157.614	2675
4159.168	2660
4160.723	2676
4162.277	2646
4163.83	2675
4165.383	2650
4166.936	2654
4168.488	2694
4170.041	2720
4171.593	2612
4173.144	2639
4174.695	2617
4176.246	2667
4177.796	2717
4179.346	2645
4180.896	2590
4182.445	2636
4183.994	2623
4185.542	2624
4187.091	2622
4188.639	2595
4190.185	2695
4191.732	2581
4193.279	2567
4194.826	2599
4196.373	2572
4197.918	2572
4199.463	2600
4201.008	2578
4202.553	2593
4204.098	2558
4205.641	2590
4207.185	2573
4208.728	2578
4210.271	2622
4211.814	2636
4213.357	2567
4214.898	2602
4216.439	2630
4217.98	2554
4219.522	2587
4221.062	2580
4222.603	2547
4224.142	2538
4225.681	2526
4227.222	2554
4228.76	2547
4230.298	2555
4231.835	2512
4233.373	2542
4234.911	2555
4236.449	2540
4237.985	2542
4239.521	2488
4241.057	2542
4242.592	2496
4244.128	2553
4245.663	2616
4247.197	2564
4248.731	2541
4250.265	2554
4251.798	2558
4253.333	2525
4254.865	2510
4256.397	2451
4257.93	2426
4259.461	2500
4260.994	2471
4262.525	2491
4264.056	2483
4265.586	2527
4267.115	2510
4268.646	2494
4270.176	2419
4271.705	2440
4273.232	2518
4274.761	2509
4276.289	2549
4277.818	2461
4279.345	2531
4280.872	2498
4282.399	2465
4283.924	2483
4285.452	2386
4286.976	2483
4288.502	2472
4290.026	2457
4291.551	2490
4293.074	2460
4294.6	2433
4296.123	2466
4297.646	2411
4299.168	2475
4300.691	2462
4302.214	2407
4303.736	2431
4305.257	2398
4306.778	2391
4308.299	2384
4309.82	2435
4311.34	2383
4312.86	2402
4314.379	2396
