400.0745	4011
402.597	4070
405.1208	4058
407.6419	4065
410.1623	4145
412.6819	4068
415.201	4144
417.7172	4235
420.2369	4170
422.7538	4229
425.2701	4215
427.7856	4181
430.3005	4329
432.8147	4376
435.3282	4305
437.841	4334
440.3511	4249
442.8625	4396
445.3753	4297
447.8854	4314
450.3927	4283
452.9014	4320
455.4073	4284
457.9146	4265
460.4233	4392
462.9272	4266
465.4325	4290
467.935	4230
470.4389	4288
472.9421	4279
475.4446	4303
477.9444	4262
480.4456	4328
482.944	4283
485.4417	4362
487.9429	4270
490.4393	4360
492.935	4452
495.4321	4346
497.9264	4413
500.4221	4390
502.9171	4271
505.4094	4432
507.9011	4455
510.392	4347
512.8864	4407
515.3759	4382
517.8649	4376
520.3531	4438
522.8406	4402
525.3275	4467
527.8178	4406
530.3033	4433
532.7881	4503
535.2723	4522
537.7558	4418
540.2407	4440
542.7228	4441
545.2043	4468
547.6851	4517
550.1652	4510
552.6467	4511
555.1255	4539
557.6016	4555
560.079	4508
562.5557	4489
565.0318	4499
567.5092	4592
569.984	4577
572.456	4648
574.9294	4594
577.4022	4602
579.8762	4686
582.3456	4663
584.8163	4643
587.2863	4621
589.7557	4643
592.2224	4822
594.6924	4668
597.1578	4692
599.6245	4679
602.0905	4581
604.5538	4673
607.0206	4609
609.4825	4661
611.9459	4631
614.4066	4565
616.8686	4620
619.33	4650
621.7906	4559
624.2487	4577
626.708	4666
629.1647	4605
631.6207	4634
634.0801	4631
636.5348	4639
638.9888	4708
641.4442	4640
643.8969	4637
646.3509	4560
648.8022	4681
651.255	4690
653.705	4564
656.1544	4687
658.6031	4662
661.0532	4720
663.5026	4681
665.9493	4726
668.3954	4720
670.8409	4788
673.2877	4652
675.7318	4696
678.1752	4782
680.618	4727
683.0601	4755
685.5035	4810
687.9444	4768
690.3845	4907
692.824	4834
695.2628	4827
697.701	4787
700.1406	4804
702.5774	4845
705.0116	4814
707.4472	4816
709.8821	4912
712.3183	4925
714.7519	4850
717.1829	4874
719.6151	4892
722.0468	4840
724.4777	4881
726.908	4960
729.3377	4951
731.7667	4889
734.1931	4958
736.6208	4909
739.0498	4886
741.4742	5015
743.9	4995
746.3231	5018
748.7476	5055
751.1713	5058
753.5945	5094
756.015	5139
758.4368	5149
760.856	5178
763.2766	5064
765.6965	5091
768.1157	5154
770.5323	5177
772.9483	5160
775.3656	5046
777.7822	5177
780.1963	5112
782.6116	5144
785.0244	5109
787.4365	5136
789.8499	5154
792.2626	5000
794.6728	5017
797.0823	5194
799.4911	5217
801.8994	5113
804.3109	5201
806.7178	5190
809.124	5112
811.5297	5176
813.9347	5196
816.341	5156
818.7447	5136
821.1478	5396
823.5502	5263
825.952	5134
828.3531	5163
830.7556	5203
833.1554	5264
835.5546	5148
837.9532	5193
840.3511	5247
842.7504	5240
845.1451	5231
847.5411	5258
849.9365	5217
852.3312	5322
854.7272	5364
857.1187	5450
859.5115	5386
861.9037	5393
864.2952	5264
866.6842	5398
869.0764	5351
871.4661	5342
873.8531	5324
876.2415	5291
878.6272	5270
881.0162	5335
883.4026	5339
885.7866	5303
888.1717	5293
890.5543	5328
892.9382	5316
895.3215	5269
897.7041	5258
900.0842	5305
902.4655	5239
904.8443	5309
907.2244	5392
909.6039	5423
911.9808	5556
914.357	5453
916.7346	5494
919.1115	5619
921.4859	5724
923.8616	5608
926.2347	5653
928.6071	5674
930.979	5663
933.3541	5674
935.7247	5680
938.0946	5658
940.4639	5741
942.8326	5750
945.2026	5754
947.5701	5913
949.9369	6011
952.305	6131
954.6705	6308
957.0355	6474
959.4017	6734
961.7654	6728
964.1284	6757
966.4908	6550
968.8527	6388
971.2138	6216
973.5743	5939
975.9343	5867
978.2936	5669
980.6522	5699
983.0122	5584
985.3696	5581
987.7245	5513
990.0807	5516
992.4362	5463
994.7911	5499
997.1474	5594
999.4991	5605
1001.852	5570
1004.205	5612
1006.555	5616
1008.908	5489
1011.258	5563
1013.606	5474
1015.956	5610
1018.302	5626
1020.652	5484
1022.998	5525
1025.345	5561
1027.691	5620
1030.035	5632
1032.378	5693
1034.724	5512
1037.066	5606
1039.409	5602
1041.75	5519
1044.092	5575
1046.433	5634
1048.771	5563
1051.112	5630
1053.449	5592
1055.786	5673
1058.124	5605
1060.462	5578
1062.797	5650
1065.131	5676
1067.467	5780
1069.8	5705
1072.135	5783
1074.467	5797
1076.798	5787
1079.129	5669
1081.459	5642
1083.792	5757
1086.121	5658
1088.449	5716
1090.777	5729
1093.104	5619
1095.431	5710
1097.759	5642
1100.084	5726
1102.408	5691
1104.732	5539
1107.056	5685
1109.379	5595
1111.701	5692
1114.022	5606
1116.343	5675
1118.664	5712
1120.983	5711
1123.303	5563
1125.621	5616
1127.939	5692
1130.256	5700
1132.573	5706
1134.889	5613
1137.205	5574
1139.52	5629
1141.832	5673
1144.146	5633
1146.461	5631
1148.771	5657
1151.083	5667
1153.392	5677
1155.703	5689
1158.011	5638
1160.323	5644
1162.629	5647
1164.938	5661
1167.243	5721
1169.55	5720
1171.857	5655
1174.163	5743
1176.466	5645
1178.769	5692
1181.073	5704
1183.374	5782
1185.677	5590
1187.979	5690
1190.279	5598
1192.578	5692
1194.878	5595
1197.178	5540
1199.476	5611
1201.772	5626
1204.068	5665
1206.366	5802
1208.663	5816
1210.957	5732
1213.251	5681
1215.544	5602
1217.836	5674
1220.128	5767
1222.421	5725
1224.712	5754
1227.002	5713
1229.292	5716
1231.581	5886
1233.871	5812
1236.159	5781
1238.446	5882
1240.732	5824
1243.018	5914
1245.304	6025
1247.59	5983
1249.874	5943
1252.156	5953
1254.439	5918
1256.721	5980
1259.005	5905
1261.286	5994
1263.565	5904
1265.845	5994
1268.125	5993
1270.403	5924
1272.682	5963
1274.959	5893
1277.234	5929
1279.511	5973
1281.787	5909
1284.062	5841
1286.337	5883
1288.609	5879
1290.882	5807
1293.153	5821
1295.428	5732
1297.698	5791
1299.969	5755
1302.237	5888
1304.507	5797
1306.777	5696
1309.044	5654
1311.312	5818
1313.578	5629
1315.844	5851
1318.109	5774
1320.375	5748
1322.638	5894
1324.903	5765
1327.165	5873
1329.427	5741
1331.69	5830
1333.952	5809
1336.212	5753
1338.471	5852
1340.73	5701
1342.988	5797
1345.248	5895
1347.505	5861
1349.763	5836
1352.019	5857
1354.274	5762
1356.53	5759
1358.784	5906
1361.038	5782
1363.291	5783
1365.543	5874
1367.797	5744
1370.048	5910
1372.296	5896
1374.546	5865
1376.796	5913
1379.045	5941
1381.295	5883
1383.542	5794
1385.787	5856
1388.034	5883
1390.28	5907
1392.527	5797
1394.772	5983
1397.014	5941
1399.258	5948
1401.501	5968
1403.741	6028
1405.985	5997
1408.226	5968
1410.465	5946
1412.705	5988
1414.943	5896
1417.184	6094
1419.42	6018
1421.658	6014
1423.894	6039
1426.13	6049
1428.366	6112
1430.602	6068
1432.835	6221
1435.069	6086
1437.301	6122
1439.535	6200
1441.767	6179
1443.997	6106
1446.229	6198
1448.458	6163
1450.687	6255
1452.916	6214
1455.146	6248
1457.372	6196
1459.599	6169
1461.824	6192
1464.051	6215
1466.277	6120
1468.501	6119
1470.725	6035
1472.948	5988
1475.17	6012
1477.393	6049
1479.614	5964
1481.837	5891
1484.057	5996
1486.276	5857
1488.497	5926
1490.715	5722
1492.932	5823
1495.148	5799
1497.364	5700
1499.58	5759
1501.798	5763
1504.012	5697
1506.227	5720
1508.44	5715
1510.653	5749
1512.866	5712
1515.078	5758
1517.289	5775
1519.5	5857
1521.711	5725
1523.92	5793
1526.13	5830
1528.338	5758
1530.544	5753
1532.752	5754
1534.959	5832
1537.165	5752
1539.371	5792
1541.574	5800
1543.779	5770
1545.983	5852
1548.187	5638
1550.39	5800
1552.59	5831
1554.792	5742
1556.991	5845
1559.19	5809
1561.392	5838
1563.59	5788
1565.789	5823
1567.986	5842
1570.182	5894
1572.381	5862
1574.576	5879
1576.771	5992
1578.966	5980
1581.16	5794
1583.354	5928
1585.546	5906
1587.74	5789
1589.931	5896
1592.121	5980
1594.311	5858
1596.502	5827
1598.693	6056
1600.881	5952
1603.069	6090
1605.256	5955
1607.445	5996
1609.631	6039
1611.816	5909
1614.001	6035
1616.186	5961
1618.37	6015
1620.555	5963
1622.737	6009
1624.919	5964
1627.101	5876
1629.282	6014
1631.463	5924
1633.643	5956
1635.822	6031
1638.001	6077
1640.179	6000
1642.359	6065
1644.534	6005
1646.711	6179
1648.887	6102
1651.062	6069
1653.235	6050
1655.412	6179
1657.586	6098
1659.757	6136
1661.93	6187
1664.1	6109
1666.274	6073
1668.445	6183
1670.614	6231
1672.784	6257
1674.951	6214
1677.12	6098
1679.289	6093
1681.457	6167
1683.622	6018
1685.789	6172
1687.953	6152
1690.121	6091
1692.284	6116
1694.447	5943
1696.611	5983
1698.772	6011
1700.935	5992
1703.098	6050
1705.258	5940
1707.417	5993
1709.576	5960
1711.736	5987
1713.896	5943
1716.053	5922
1718.21	5890
1720.366	5947
1722.522	5951
1724.68	5842
1726.835	5846
1728.989	5838
1731.142	5850
1733.295	5948
1735.449	5899
1737.601	5990
1739.753	5902
1741.903	5873
1744.054	5793
1746.203	5864
1748.354	5818
1750.503	5938
1752.651	6007
1754.798	5906
1756.944	5851
1759.092	5883
1761.238	5890
1763.383	6008
1765.528	6065
1767.672	5942
1769.814	5880
1771.959	5888
1774.102	5998
1776.242	5950
1778.384	5829
1780.525	5845
1782.665	6000
1784.805	5905
1786.945	5925
1789.082	5964
1791.22	5905
1793.36	5907
1795.495	6008
1797.632	5903
1799.766	5893
1801.902	5904
1804.035	5993
1806.172	5876
1808.304	5979
1810.436	5931
1812.569	5909
1814.699	5955
1816.833	5954
1818.963	5996
1821.092	5992
1823.222	5970
1825.35	5920
1827.478	5914
1829.608	5929
1831.734	5926
1833.86	5947
1835.986	5913
1838.11	5865
1840.238	5910
1842.362	5899
1844.485	5913
1846.608	5888
1848.73	5888
1850.853	5798
1852.974	5908
1855.097	5975
1857.217	5870
1859.336	5842
1861.455	5890
1863.576	5851
1865.693	5866
1867.811	5862
1869.926	5843
1872.042	5854
1874.16	5947
1876.275	5865
1878.39	5879
1880.504	5783
1882.618	5820
1884.731	5848
1886.843	5915
1888.956	5909
1891.067	6014
1893.178	5934
1895.287	5885
1897.399	5919
1899.508	5990
1901.617	5913
1903.724	5900
1905.832	6028
1907.941	5939
1910.046	5881
1912.152	5931
1914.256	5993
1916.361	5936
1918.464	5944
1920.57	5947
1922.672	5984
1924.775	5929
1926.876	6017
1928.978	6015
1931.08	5995
1933.181	6018
1935.28	5931
1937.38	5967
1939.478	6086
1941.577	6012
1943.675	6104
1945.771	5856
1947.867	5840
1949.964	6027
1952.058	5969
1954.154	6054
1956.248	6047
1958.343	6008
1960.435	6016
1962.527	5939
1964.62	5793
1966.711	6025
1968.802	5962
1970.892	6015
1972.983	5903
1975.072	5860
1977.162	5951
1979.25	5997
1981.337	5916
1983.424	5935
1985.51	5954
1987.598	5880
1989.683	5862
1991.768	5904
1993.852	5895
1995.934	5877
1998.019	5932
2000.102	5915
2002.184	6045
2004.266	5898
2006.347	5907
2008.427	5947
2010.508	5871
2012.587	5884
2014.666	5781
2016.745	5834
2018.821	5891
2020.9	5909
2022.977	5799
2025.052	5913
2027.128	5957
2029.204	5966
2031.277	5758
2033.353	5931
2035.425	5956
2037.499	5922
2039.57	5861
2041.642	5914
2043.714	5871
2045.786	5918
2047.855	5918
2049.925	5881
2051.993	5869
2054.064	5848
2056.132	5951
2058.2	5890
2060.266	5845
2062.332	5917
2064.398	5948
2066.465	5987
2068.529	5823
2070.592	5838
2072.657	5882
2074.719	5923
2076.783	5948
2078.845	5947
2080.907	5875
2082.968	6011
2085.028	5937
2087.087	5904
2089.148	5964
2091.207	5892
2093.264	5912
2095.322	5943
2097.379	5884
2099.439	5984
2101.495	5959
2103.55	5839
2105.605	5931
2107.658	5924
2109.713	5869
2111.767	5781
2113.82	6050
2115.872	5861
2117.924	5897
2119.975	5861
2122.028	5866
2124.078	5931
2126.126	5860
2128.176	5915
2130.225	5894
2132.275	5851
2134.321	5898
2136.368	5993
2138.415	5822
2140.461	5942
2142.505	5879
2144.552	5950
2146.597	5768
2148.64	5949
2150.684	5971
2152.725	5868
2154.77	5830
2156.811	5871
2158.852	5771
2160.894	5879
2162.933	5926
2164.973	5881
2167.013	5901
2169.051	5850
2171.089	5848
2173.126	5831
2175.164	5861
2177.201	5723
2179.236	5818
2181.273	5917
2183.307	5760
2185.341	5794
2187.377	5762
2189.41	5751
2191.442	5889
2193.473	5783
2195.506	5778
2197.539	5847
2199.569	5718
2201.598	5770
2203.628	5807
2205.656	5747
2207.686	5761
2209.716	5791
2211.743	5713
2213.769	5825
2215.796	5687
2217.821	5780
2219.848	5761
2221.873	5703
2223.897	5696
2225.921	5751
2227.944	5801
2229.967	5773
2231.991	5766
2234.011	5823
2236.032	5810
2238.053	5696
2240.073	5756
2242.094	5664
2244.114	5743
2246.131	5706
2248.149	5772
2250.167	5675
2252.186	5698
2254.201	5647
2256.218	5703
2258.233	5787
2260.247	5749
2262.262	5749
2264.278	5711
2266.29	5765
2268.303	5685
2270.315	5802
2272.327	5749
2274.341	5778
2276.35	5791
2278.361	5720
2280.37	5670
2282.38	5775
2284.388	5694
2286.397	5758
2288.405	5720
2290.412	5724
2292.419	5817
2294.425	5711
2296.431	5630
2298.437	5506
2300.441	5710
2302.445	5792
2304.449	5748
2306.453	5834
2308.455	5715
2310.457	5705
2312.459	5849
2314.46	5686
2316.46	5698
2318.461	5733
2320.46	5796
2322.458	5770
2324.458	5697
2326.456	5585
2328.455	5633
2330.451	5708
2332.447	5559
2334.443	5735
2336.438	5729
2338.433	5645
2340.429	5665
2342.422	5643
2344.416	5609
2346.408	5586
2348.399	5648
2350.393	5630
2352.384	5579
2354.375	5537
2356.365	5586
2358.355	5560
2360.344	5623
2362.333	5560
2364.322	5566
2366.309	5536
2368.295	5634
2370.282	5626
2372.27	5609
2374.256	5513
2376.24	5720
2378.225	5527
2380.208	5546
2382.194	5630
2384.177	5588
2386.159	5574
2388.142	5611
2390.122	5541
2392.105	5571
2394.085	5516
2396.066	5467
2398.044	5505
2400.024	5465
2402.002	5561
2403.982	5503
2405.959	5580
2407.935	5657
2409.913	5535
2411.888	5496
2413.865	5579
2415.84	5577
2417.814	5502
2419.788	5503
2421.762	5525
2423.735	5552
2425.708	5512
2427.68	5611
2429.651	5559
2431.623	5575
2433.593	5524
2435.564	5590
2437.533	5537
2439.502	5554
2441.47	5430
2443.438	5511
2445.406	5537
2447.373	5437
2449.34	5534
2451.305	5367
2453.271	5518
2455.235	5499
2457.201	5465
2459.165	5579
2461.129	5411
2463.092	5429
2465.054	5597
2467.018	5407
2468.978	5479
2470.939	5509
2472.899	5371
2474.86	5550
2476.819	5481
2478.778	5460
2480.737	5396
2482.695	5349
2484.653	5521
2486.609	5407
2488.567	5497
2490.524	5396
2492.478	5467
2494.433	5476
2496.387	5413
2498.343	5413
2500.297	5349
2502.249	5514
2504.202	5341
2506.153	5407
2508.105	5377
2510.057	5407
2512.008	5435
2513.957	5399
2515.906	5418
2517.855	5512
2519.805	5465
2521.754	5308
2523.7	5363
2525.647	5328
2527.594	5433
2529.54	5366
2531.486	5420
2533.431	5357
2535.376	5549
2537.32	5355
2539.263	5338
2541.207	5410
2543.151	5449
2545.093	5341
2547.034	5397
2548.975	5404
2550.917	5348
2552.856	5378
2554.796	5293
2556.735	5326
2558.673	5312
2560.611	5392
2562.55	5338
2564.487	5306
2566.424	5328
2568.36	5306
2570.296	5390
2572.232	5293
2574.167	5383
2576.101	5306
2578.035	5387
2579.969	5391
2581.902	5350
2583.834	5284
2585.766	5458
2587.698	5316
2589.628	5448
2591.557	5426
2593.489	5431
2595.419	5342
2597.348	5374
2599.275	5399
2601.204	5446
2603.131	5186
2605.059	5340
2606.986	5336
2608.911	5406
2610.837	5365
2612.76	5441
2614.687	5405
2616.61	5330
2618.534	5456
2620.457	5416
2622.38	5487
2624.302	5393
2626.225	5339
2628.145	5434
2630.067	5381
2631.986	5422
2633.906	5491
2635.827	5373
2637.745	5376
2639.662	5381
2641.581	5285
2643.498	5449
2645.415	5369
2647.331	5327
2649.248	5405
2651.163	5307
2653.077	5297
2654.993	5244
2656.906	5380
2658.821	5429
2660.733	5409
2662.646	5328
2664.557	5409
2666.47	5255
2668.381	5393
2670.291	5362
2672.201	5374
2674.11	5343
2676.021	5259
2677.929	5306
2679.837	5291
2681.745	5261
2683.652	5374
2685.56	5352
2687.466	5297
2689.371	5322
2691.276	5281
2693.181	5284
2695.085	5474
2696.991	5288
2698.893	5410
2700.796	5360
2702.698	5257
2704.601	5328
2706.502	5257
2708.404	5204
2710.304	5289
2712.203	5287
2714.103	5174
2716.003	5291
2717.902	5136
2719.8	5306
2721.697	5224
2723.594	5296
2725.49	5231
2727.389	5318
2729.283	5213
2731.179	5312
2733.073	5238
2734.968	5312
2736.863	5308
2738.757	5341
2740.649	5232
2742.541	5256
2744.433	5201
2746.324	5190
2748.216	5183
2750.107	5272
2751.997	5248
2753.886	5311
2755.776	5294
2757.666	5309
2759.553	5148
2761.44	5283
2763.327	5268
2765.215	5180
2767.102	5284
2768.988	5295
2770.873	5200
2772.757	5182
2774.641	5266
2776.525	5337
2778.41	5286
2780.292	5206
2782.175	5355
2784.057	5162
2785.938	5104
2787.821	5228
2789.701	5209
2791.581	5202
2793.461	5117
2795.34	5248
2797.219	5146
2799.099	5110
2800.975	5192
2802.853	5183
2804.73	5132
2806.606	5164
2808.484	5201
2810.358	5172
2812.233	5177
2814.108	5093
2815.981	5195
2817.857	5141
2819.73	5150
2821.602	5088
2823.474	5224
2825.346	5280
2827.217	5128
2829.089	5269
2830.959	5130
2832.829	5260
2834.698	5131
2836.567	5137
2838.436	5146
2840.305	5206
2842.172	5224
2844.04	5208
2845.905	5280
2847.772	5392
2849.639	5364
2851.503	5256
2853.369	5230
2855.232	5369
2857.096	5402
2858.961	5376
2860.824	5384
2862.686	5372
2864.547	5449
2866.41	5502
2868.272	5472
2870.132	5546
2871.992	5641
2873.851	5683
2875.711	5658
2877.57	5738
2879.429	5774
2881.287	5831
2883.144	5869
2885.001	5925
2886.857	5989
2888.714	5860
2890.57	5859
2892.425	5825
2894.279	5919
2896.133	5986
2897.987	5938
2899.842	5944
2901.694	5874
2903.547	5904
2905.397	5952
2907.249	5973
2909.101	5856
2910.952	5868
2912.802	5999
2914.652	6012
2916.5	6036
2918.35	6146
2920.198	6211
2922.045	6243
2923.893	6366
2925.74	6248
2927.585	6406
2929.433	6420
2931.279	6446
2933.123	6737
2934.968	6688
2936.811	6673
2938.656	6761
2940.5	6873
2942.342	6922
2944.185	6944
2946.026	6891
2947.87	6872
2949.71	6970
2951.549	6916
2953.39	6806
2955.229	6795
2957.069	6832
2958.908	6580
2960.746	6510
2962.584	6300
2964.421	6521
2966.257	6383
2968.094	6217
2969.931	6342
2971.766	6247
2973.601	6193
2975.435	6066
2977.27	6140
2979.105	5986
2980.938	6120
2982.77	6067
2984.602	5932
2986.434	5969
2988.267	5881
2990.097	5801
2991.927	5871
2993.757	5842
2995.587	5679
2997.417	5611
2999.246	5666
3001.074	5545
3002.902	5490
3004.729	5473
3006.556	5377
3008.384	5394
3010.21	5235
3012.036	5219
3013.861	5212
3015.684	5147
3017.51	5066
3019.334	5028
3021.157	5167
3022.981	4990
3024.802	4971
3026.624	5035
3028.448	4980
3030.267	5018
3032.088	4922
3033.909	5016
3035.728	4995
3037.549	4766
3039.368	4799
3041.186	4869
3043.004	4892
3044.821	4824
3046.64	4873
3048.455	4879
3050.272	4914
3052.087	4877
3053.903	4884
3055.717	4859
3057.534	4910
3059.347	4911
3061.16	4889
3062.974	4812
3064.785	4921
3066.598	4854
3068.411	4909
3070.222	4855
3072.032	4774
3073.844	4910
3075.653	4862
3077.463	4805
3079.272	4680
3081.08	4859
3082.889	4862
3084.697	4738
3086.505	4691
3088.312	4770
3090.118	4751
3091.924	4680
3093.729	4774
3095.535	4737
3097.34	4743
3099.144	4731
3100.947	4720
3102.75	4678
3104.553	4662
3106.357	4726
3108.159	4696
3109.961	4674
3111.762	4704
3113.562	4586
3115.365	4690
3117.164	4635
3118.964	4649
3120.761	4669
3122.56	4693
3124.36	4672
3126.158	4564
3127.954	4668
3129.75	4576
3131.547	4644
3133.343	4673
3135.139	4621
3136.934	4591
3138.729	4597
3140.522	4632
3142.317	4593
3144.11	4520
3145.904	4533
3147.695	4638
3149.488	4706
3151.28	4539
3153.07	4631
3154.863	4691
3156.652	4578
3158.441	4488
3160.231	4531
3162.019	4627
3163.81	4536
3165.597	4545
3167.384	4552
3169.172	4605
3170.958	4472
3172.745	4527
3174.532	4552
3176.317	4566
3178.101	4598
3179.885	4615
3181.67	4568
3183.455	4573
3185.238	4520
3187.02	4522
3188.802	4529
3190.585	4578
3192.368	4468
3194.149	4582
3195.929	4550
3197.709	4508
3199.489	4607
3201.268	4514
3203.048	4477
3204.826	4484
3206.604	4487
3208.382	4533
3210.159	4486
3211.937	4454
3213.713	4503
3215.489	4568
3217.263	4527
3219.038	4432
3220.815	4484
3222.589	4524
3224.363	4492
3226.136	4682
3227.908	4526
3229.681	4464
3231.454	4438
3233.226	4477
3234.996	4432
3236.767	4569
3238.538	4526
3240.308	4528
3242.078	4657
3243.847	4566
3245.615	4515
3247.384	4616
3249.15	4462
3250.92	4545
3252.686	4495
3254.453	4496
3256.218	4554
3257.984	4478
3259.75	4494
3261.515	4579
3263.279	4597
3265.044	4482
3266.806	4483
3268.57	4493
3270.334	4583
3272.095	4509
3273.856	4484
3275.619	4543
3277.379	4542
3279.14	4575
3280.9	4479
3282.661	4507
3284.419	4530
3286.178	4492
3287.937	4558
3289.695	4560
3291.453	4532
3293.21	4530
3294.967	4396
3296.723	4550
3298.48	4566
3300.235	4511
3301.99	4472
3303.744	4494
3305.498	4594
3307.253	4570
3309.006	4439
3310.759	4505
3312.511	4490
3314.263	4535
3316.017	4529
3317.768	4513
3319.519	4478
3321.268	4488
3323.018	4491
3324.767	4475
3326.518	4577
3328.267	4440
3330.014	4633
3331.762	4521
3333.509	4531
3335.258	4517
3337.003	4525
3338.75	4485
3340.496	4563
3342.24	4458
3343.987	4546
3345.732	4508
3347.475	4484
3349.219	4562
3350.961	4494
3352.705	4428
3354.448	4507
3356.19	4419
3357.931	4538
3359.672	4471
3361.412	4478
3363.155	4361
3364.894	4448
3366.633	4402
3368.372	4423
3370.11	4431
3371.849	4403
3373.588	4392
3375.325	4321
3377.061	4302
3378.799	4386
3380.534	4441
3382.271	4392
3384.006	4454
3385.741	4364
3387.475	4338
3389.209	4469
3390.944	4380
3392.677	4364
3394.409	4319
3396.143	4346
3397.874	4354
3399.606	4356
3401.338	4341
3403.069	4265
3404.799	4271
3406.528	4324
3408.258	4244
3409.988	4403
3411.717	4395
3413.445	4326
3415.173	4432
3416.899	4232
3418.626	4329
3420.354	4249
3422.08	4299
3423.806	4290
3425.531	4273
3427.255	4234
3428.981	4327
3430.705	4253
3432.429	4299
3434.151	4277
3435.875	4263
3437.599	4202
3439.321	4263
3441.042	4245
3442.763	4245
3444.483	4273
3446.204	4219
3447.926	4272
3449.645	4216
3451.364	4216
3453.082	4172
3454.801	4266
3456.52	4210
3458.238	4170
3459.954	4148
3461.671	4160
3463.387	4092
3465.104	4052
3466.82	4178
3468.534	4193
3470.25	4121
3471.963	4082
3473.676	4140
3475.392	4122
3477.104	4123
3478.817	4118
3480.528	4036
3482.241	4150
3483.954	4018
3485.664	4134
3487.374	4090
3489.084	4139
3490.795	4043
3492.504	4072
3494.214	4082
3495.922	4026
3497.63	3949
3499.338	4028
3501.045	3956
3502.753	3950
3504.459	3976
3506.166	4035
3507.871	3984
3509.576	3979
3511.283	4037
3512.987	3985
3514.691	3966
3516.395	3938
3518.098	3976
3519.8	3979
3521.504	3830
3523.206	3923
3524.908	3909
3526.609	3890
3528.309	3989
3530.011	3936
3531.711	4002
3533.411	3915
3535.109	3937
3536.808	3956
3538.507	3917
3540.206	3919
3541.904	3999
3543.601	3976
3545.297	3819
3546.994	3857
3548.69	3967
3550.387	3817
3552.081	3825
3553.776	3890
3555.47	3956
3557.166	3782
3558.859	3862
3560.553	3843
3562.245	3841
3563.938	3879
3565.629	3830
3567.322	3870
3569.014	3828
3570.704	3764
3572.394	3846
3574.084	3786
3575.775	3808
3577.464	3796
3579.152	3838
3580.842	3744
3582.529	3803
3584.216	3766
3585.905	3824
3587.591	3791
3589.279	3811
3590.964	3698
3592.649	3752
3594.336	3751
3596.021	3709
3597.705	3776
3599.388	3756
3601.072	3648
3602.757	3785
3604.439	3741
3606.122	3742
3607.803	3744
3609.485	3726
3611.167	3743
3612.849	3613
3614.529	3816
3616.208	3643
3617.888	3616
3619.567	3685
3621.247	3697
3622.926	3535
3624.603	3662
3626.281	3658
3627.958	3567
3629.635	3646
3631.312	3605
3632.989	3617
3634.665	3575
3636.339	3642
3638.014	3601
3639.691	3643
3641.364	3621
3643.038	3526
3644.71	3701
3646.384	3679
3648.058	3580
3649.729	3520
3651.402	3532
3653.073	3491
3654.744	3593
3656.414	3504
3658.085	3585
3659.755	3564
3661.424	3543
3663.094	3533
3664.762	3559
3666.431	3526
3668.099	3521
3669.766	3511
3671.433	3513
3673.099	3517
3674.768	3387
3676.433	3540
3678.098	3500
3679.763	3506
3681.428	3463
3683.093	3578
3684.757	3419
3686.421	3560
3688.083	3526
3689.746	3532
3691.408	3552
3693.071	3540
3694.733	3375
3696.394	3437
3698.054	3499
3699.715	3501
3701.375	3464
3703.036	3494
3704.695	3491
3706.354	3437
3708.012	3449
3709.67	3486
3711.329	3414
3712.987	3406
3714.644	3406
3716.299	3382
3717.955	3444
3719.613	3435
3721.268	3402
3722.923	3460
3724.577	3414
3726.231	3420
3727.885	3426
3729.539	3382
3731.192	3459
3732.845	3447
3734.497	3423
3736.149	3321
3737.802	3419
3739.453	3388
3741.104	3367
3742.753	3375
3744.404	3399
3746.052	3370
3747.704	3392
3749.352	3327
3751	3265
3752.648	3398
3754.296	3365
3755.944	3320
3757.59	3390
3759.238	3367
3760.883	3366
3762.528	3398
3764.176	3358
3765.82	3299
3767.464	3336
3769.109	3417
3770.753	3345
3772.396	3269
3774.04	3294
3775.683	3345
3777.325	3361
3778.967	3295
3780.608	3297
3782.25	3348
3783.89	3297
3785.531	3366
3787.17	3376
3788.81	3266
3790.45	3355
3792.09	3336
3793.729	3338
3795.366	3288
3797.003	3326
3798.64	3253
3800.278	3319
3801.915	3284
3803.551	3236
3805.187	3214
3806.822	3232
3808.458	3242
3810.093	3167
3811.726	3310
3813.36	3240
3814.994	3188
3816.627	3227
3818.262	3283
3819.893	3250
3821.525	3224
3823.157	3277
3824.787	3282
3826.42	3283
3828.051	3235
3829.68	3213
3831.31	3207
3832.938	3244
3834.569	3252
3836.198	3191
3837.825	3185
3839.454	3146
3841.08	3147
3842.708	3195
3844.335	3214
3845.962	3225
3847.587	3160
3849.212	3165
3850.838	3136
3852.463	3193
3854.089	3142
3855.712	3189
3857.335	3180
3858.959	3152
3860.582	3176
3862.205	3188
3863.827	3157
3865.449	3195
3867.07	3140
3868.691	3181
3870.312	3170
3871.933	3221
3873.553	3154
3875.173	3100
3876.792	3138
3878.411	3066
3880.03	2994
3881.647	3180
3883.265	3170
3884.882	3129
3886.499	3095
3888.116	3156
3889.732	3134
3891.348	3191
3892.964	3086
3894.579	3137
3896.195	3093
3897.809	3069
3899.423	3076
3901.036	3086
3902.648	3126
3904.261	3124
3905.875	3159
3907.487	3137
3909.099	3089
3910.709	3060
3912.321	3108
3913.933	3144
3915.542	3036
3917.152	3066
3918.762	2969
3920.37	3076
3921.98	3170
3923.589	3072
3925.196	3066
3926.804	3122
3928.41	3092
3930.018	3110
3931.626	3126
3933.231	3104
3934.838	3029
3936.442	3034
3938.046	3066
3939.653	3046
3941.257	3084
3942.861	3094
3944.464	3038
3946.068	3001
3947.67	3060
3949.273	3051
3950.876	3053
3952.477	3031
3954.078	3024
3955.678	3126
3957.281	2946
3958.881	3041
3960.48	3027
3962.079	2974
3963.678	2969
3965.279	3038
3966.877	2989
3968.475	2978
3970.072	2949
3971.669	2987
3973.266	2981
3974.864	3045
3976.459	2968
3978.055	3015
3979.65	2944
3981.245	2932
3982.841	2994
3984.436	2978
3986.03	2934
3987.623	2946
3989.216	2957
3990.809	2922
3992.403	2923
3993.995	2903
3995.586	2899
3997.177	2939
3998.768	2940
4000.361	2998
4001.951	2934
4003.54	2916
4005.13	2884
4006.719	2886
4008.31	2924
4009.897	2940
4011.485	2908
4013.073	2836
4014.66	2842
4016.247	2899
4017.834	2878
4019.421	2898
4021.006	2859
4022.592	2867
4024.178	2849
4025.763	2907
4027.348	2814
4028.932	2794
4030.515	2825
4032.099	2887
4033.682	2862
4035.266	2818
4036.847	2781
4038.429	2797
4040.011	2876
4041.592	2856
4043.173	2801
4044.755	2831
4046.334	2857
4047.913	2814
4049.494	2845
4051.074	2787
4052.652	2822
4054.23	2847
4055.807	2788
4057.385	2772
4058.963	2848
4060.541	2814
4062.117	2746
4063.693	2762
4065.269	2804
4066.844	2759
4068.42	2756
4069.995	2785
4071.569	2806
4073.143	2769
4074.716	2759
4076.291	2825
4077.864	2768
4079.436	2701
4081.009	2832
4082.58	2750
4084.152	2799
4085.723	2799
4087.294	2668
4088.865	2760
4090.435	2758
4092.005	2747
4093.574	2675
4095.143	2698
4096.712	2695
4098.279	2765
4099.848	2752
4101.416	2744
4102.984	2732
4104.55	2709
4106.117	2700
4107.682	2682
4109.248	2722
4110.815	2678
4112.379	2679
4113.945	2670
4115.508	2725
4117.073	2693
4118.637	2685
4120.201	2661
4121.763	2725
4123.325	2651
4124.888	2679
4126.449	2718
4128.013	2681
4129.573	2630
4131.133	2704
4132.694	2649
4134.254	2648
4135.814	2692
4137.374	2627
4138.933	2664
4140.491	2657
4142.049	2667
4143.607	2648
4145.167	2660
4146.724	2640
4148.28	2655
4149.836	2627
4151.392	2621
4152.949	2600
4154.504	2658
4156.059	2595
4157.614	2664
4159.168	2595
4160.723	2621
4162.277	2627
4163.83	2558
4165.383	2618
4166.936	2629
4168.488	2589
4170.041	2521
4171.593	2641
4173.144	2607
4174.695	2568
4176.246	2540
4177.796	2624
4179.346	2581
4180.896	2519
4182.445	2544
4183.994	2558
4185.542	2576
4187.091	2620
4188.639	2539
4190.185	2597
4191.732	2544
4193.279	2562
4194.826	2564
4196.373	2521
4197.918	2551
4199.463	2500
4201.008	2534
4202.553	2560
4204.098	2543
4205.641	2503
4207.185	2548
4208.728	2497
4210.271	2573
4211.814	2555
4213.357	2535
4214.898	2543
4216.439	2538
4217.98	2583
4219.522	2587
4221.062	2511
4222.603	2450
4224.142	2471
4225.681	2555
4227.222	2461
4228.76	2589
4230.298	2522
4231.835	2479
4233.373	2540
4234.911	2483
4236.449	2470
4237.985	2502
4239.521	2426
4241.057	2520
4242.592	2481
4244.128	2481
4245.663	2445
4247.197	2519
4248.731	2465
4250.265	2479
4251.798	2476
4253.333	2501
4254.865	2464
4256.397	2501
4257.93	2510
4259.461	2485
4260.994	2409
4262.525	2457
4264.056	2447
4265.586	2474
4267.115	2451
4268.646	2489
4270.176	2435
4271.705	2442
4273.232	2475
4274.761	2454
4276.289	2468
4277.818	2507
4279.345	2480
4280.872	2479
4282.399	2407
4283.924	2453
4285.452	2460
4286.976	2450
4288.502	2473
4290.026	2453
4291.551	2465
4293.074	2392
4294.6	2397
4296.123	2401
4297.646	2374
4299.168	2393
4300.691	2377
4302.214	2429
4303.736	2462
4305.257	2399
4306.778	2395
4308.299	2446
4309.82	2380
4311.34	2358
4312.86	2360
4314.379	2389
