400.0745	6971
402.597	6978
405.1208	6881
407.6419	7036
410.1623	7070
412.6819	6966
415.201	7156
417.7172	7153
420.2369	7199
422.7538	7181
425.2701	7304
427.7856	7372
430.3005	7365
432.8147	7430
435.3282	7393
437.841	7286
440.3511	7383
442.8625	7396
445.3753	7448
447.8854	7376
450.3927	7485
452.9014	7463
455.4073	7392
457.9146	7478
460.4233	7494
462.9272	7374
465.4325	7455
467.935	7358
470.4389	7498
472.9421	7509
475.4446	7498
477.9444	7458
480.4456	7625
482.944	7565
485.4417	7595
487.9429	7572
490.4393	7610
492.935	7568
495.4321	7671
497.9264	7738
500.4221	7681
502.9171	7771
505.4094	7754
507.9011	7803
510.392	7771
512.8864	7739
515.3759	7737
517.8649	7900
520.3531	7884
522.8406	7829
525.3275	7885
527.8178	7767
530.3033	7792
532.7881	7748
535.2723	7959
537.7558	7873
540.2407	7878
542.7228	7868
545.2043	7871
547.6851	7912
550.1652	7900
552.6467	7825
555.1255	7816
557.6016	7905
560.079	7911
562.5557	7881
565.0318	7950
567.5092	8085
569.984	8151
572.456	8150
574.9294	8129
577.4022	8161
579.8762	8228
582.3456	8271
584.8163	8128
587.2863	8078
589.7557	8167
592.2224	8099
594.6924	8284
597.1578	8155
599.6245	8116
602.0905	8040
604.5538	8140
607.0206	8156
609.4825	8146
611.9459	8175
614.4066	8121
616.8686	8108
619.33	8144
621.7906	8127
624.2487	8147
626.708	8175
629.1647	8211
631.6207	8218
634.0801	8216
636.5348	8198
638.9888	8220
641.4442	8041
643.8969	8178
646.3509	8324
648.8022	8140
651.255	8253
653.705	8258
656.1544	8298
658.6031	8353
661.0532	8256
663.5026	8429
665.9493	8317
668.3954	8355
670.8409	8401
673.2877	8410
675.7318	8405
678.1752	8327
680.618	8417
683.0601	8368
685.5035	8503
687.9444	8376
690.3845	8500
692.824	8382
695.2628	8469
697.701	8524
700.1406	8465
702.5774	8531
705.0116	8615
707.4472	8379
709.8821	8564
712.3183	8575
714.7519	8574
717.1829	8477
719.6151	8650
722.0468	8583
724.4777	8631
726.908	8680
729.3377	8666
731.7667	8809
734.1931	8735
736.6208	8739
739.0498	8847
741.4742	8857
743.9	8887
746.3231	8932
748.7476	8972
751.1713	8995
753.5945	8992
756.015	8892
758.4368	8912
760.856	8848
763.2766	8948
765.6965	9022
768.1157	8963
770.5323	9028
772.9483	9160
775.3656	8982
777.7822	9071
780.1963	8985
782.6116	9084
785.0244	9063
787.4365	9005
789.8499	9112
792.2626	9119
794.6728	8971
797.0823	9214
799.4911	9134
801.8994	9102
804.3109	9102
806.7178	9045
809.124	9027
811.5297	9190
813.9347	9338
816.341	9105
818.7447	9206
821.1478	9242
823.5502	9155
825.952	9255
828.3531	9189
830.7556	9115
833.1554	9270
835.5546	9197
837.9532	9368
840.3511	9314
842.7504	9334
845.1451	9254
847.5411	9293
849.9365	9310
852.3312	9427
854.7272	9244
857.1187	9455
859.5115	9377
861.9037	9322
864.2952	9167
866.6842	9148
869.0764	9352
871.4661	9277
873.8531	9317
876.2415	9365
878.6272	9481
881.0162	9111
883.4026	9338
885.7866	9345
888.1717	9261
890.5543	9133
892.9382	9267
895.3215	9331
897.7041	9222
900.0842	9272
902.4655	9168
904.8443	9414
907.2244	9301
909.6039	9398
911.9808	9302
914.357	9453
916.7346	9435
919.1115	9590
921.4859	9590
923.8616	9517
926.2347	9505
928.6071	9569
930.979	9746
933.3541	9647
935.7247	9632
938.0946	9649
940.4639	9895
942.8326	9876
945.2026	9966
947.5701	10144
949.9369	10283
952.305	10471
954.6705	10682
957.0355	11069
959.4017	11315
961.7654	11397
964.1284	11299
966.4908	11128
968.8527	10630
971.2138	10389
973.5743	10168
975.9343	10047
978.2936	9719
980.6522	9686
983.0122	9735
985.3696	9854
987.7245	9484
990.0807	9638
992.4362	9623
994.7911	9547
997.1474	9599
999.4991	9711
1001.852	9675
1004.205	9709
1006.555	9595
1008.908	9802
1011.258	9747
1013.606	9786
1015.956	9653
1018.302	9626
1020.652	9648
1022.998	9659
1025.345	9682
1027.691	9836
1030.035	9716
1032.378	9746
1034.724	9833
1037.066	9763
1039.409	9915
1041.75	9902
1044.092	9851
1046.433	9756
1048.771	9689
1051.112	9770
1053.449	9634
1055.786	9843
1058.124	9782
1060.462	9893
1062.797	9766
1065.131	9835
1067.467	9999
1069.8	9932
1072.135	9866
1074.467	10003
1076.798	9933
1079.129	9858
1081.459	9875
1083.792	9830
1086.121	10059
1088.449	9936
1090.777	9746
1093.104	9867
1095.431	9830
1097.759	9934
1100.084	9848
1102.408	9953
1104.732	9765
1107.056	9860
1109.379	9969
1111.701	9940
1114.022	9917
1116.343	9875
1118.664	9734
1120.983	9980
1123.303	9885
1125.621	9843
1127.939	9747
1130.256	10085
1132.573	9651
1134.889	9984
1137.205	9922
1139.52	9837
1141.832	9926
1144.146	9759
1146.461	9891
1148.771	9954
1151.083	10054
1153.392	9919
1155.703	9990
1158.011	9960
1160.323	9839
1162.629	9909
1164.938	9977
1167.243	9762
1169.55	9910
1171.857	9878
1174.163	9916
1176.466	9848
1178.769	9862
1181.073	9931
1183.374	9974
1185.677	9813
1187.979	9895
1190.279	9905
1192.578	9814
1194.878	9885
1197.178	9825
1199.476	9754
1201.772	10041
1204.068	9726
1206.366	9952
1208.663	9847
1210.957	9910
1213.251	9974
1215.544	10050
1217.836	10039
1220.128	9890
1222.421	9911
1224.712	9925
1227.002	10007
1229.292	10112
1231.581	10153
1233.871	10037
1236.159	10078
1238.446	10174
1240.732	10144
1243.018	10207
1245.304	10204
1247.59	10138
1249.874	10142
1252.156	10147
1254.439	10263
1256.721	10117
1259.005	10096
1261.286	10022
1263.565	10284
1265.845	10323
1268.125	10223
1270.403	10102
1272.682	10139
1274.959	10310
1277.234	10157
1279.511	10142
1281.787	9983
1284.062	10123
1286.337	10096
1288.609	10088
1290.882	9979
1293.153	10128
1295.428	10052
1297.698	10136
1299.969	10039
1302.237	9935
1304.507	9989
1306.777	10133
1309.044	9965
1311.312	10094
1313.578	10018
1315.844	10036
1318.109	10096
1320.375	10024
1322.638	10132
1324.903	10046
1327.165	9902
1329.427	10012
1331.69	10052
1333.952	10155
1336.212	9963
1338.471	10091
1340.73	9999
1342.988	10050
1345.248	10097
1347.505	10181
1349.763	10082
1352.019	9989
1354.274	10087
1356.53	10072
1358.784	10018
1361.038	10019
1363.291	10140
1365.543	10072
1367.797	10019
1370.048	10039
1372.296	10016
1374.546	10192
1376.796	10158
1379.045	10074
1381.295	9912
1383.542	10004
1385.787	10222
1388.034	10050
1390.28	10108
1392.527	10187
1394.772	10083
1397.014	10221
1399.258	9924
1401.501	10202
1403.741	10081
1405.985	10126
1408.226	10139
1410.465	10041
1412.705	10265
1414.943	10248
1417.184	10175
1419.42	10191
1421.658	10278
1423.894	10288
1426.13	10246
1428.366	10399
1430.602	10253
1432.835	10306
1435.069	10432
1437.301	10274
1439.535	10391
1441.767	10367
1443.997	10511
1446.229	10490
1448.458	10638
1450.687	10502
1452.916	10324
1455.146	10417
1457.372	10437
1459.599	10327
1461.824	10299
1464.051	10374
1466.277	10407
1468.501	10470
1470.725	10333
1472.948	10376
1475.17	10342
1477.393	10289
1479.614	10229
1481.837	10156
1484.057	10303
1486.276	10236
1488.497	10090
1490.715	10364
1492.932	10158
1495.148	10093
1497.364	10096
1499.58	10062
1501.798	9966
1504.012	10071
1506.227	10150
1508.44	10042
1510.653	10029
1512.866	10015
1515.078	9929
1517.289	10147
1519.5	10162
1521.711	10029
1523.92	10100
1526.13	9976
1528.338	10132
1530.544	10021
1532.752	10028
1534.959	9966
1537.165	9945
1539.371	10151
1541.574	10110
1543.779	10118
1545.983	10134
1548.187	10040
1550.39	10171
1552.59	10150
1554.792	10075
1556.991	10182
1559.19	10153
1561.392	10107
1563.59	10099
1565.789	10114
1567.986	10366
1570.182	10254
1572.381	10210
1574.576	10260
1576.771	10200
1578.966	10250
1581.16	10225
1583.354	10326
1585.546	10352
1587.74	10292
1589.931	10460
1592.121	10331
1594.311	10342
1596.502	10377
1598.693	10358
1600.881	10425
1603.069	10413
1605.256	10376
1607.445	10415
1609.631	10345
1611.816	10307
1614.001	10210
1616.186	10444
1618.37	10324
1620.555	10257
1622.737	10395
1624.919	10261
1627.101	10428
1629.282	10487
1631.463	10383
1633.643	10508
1635.822	10476
1638.001	10396
1640.179	10357
1642.359	10312
1644.534	10471
1646.711	10485
1648.887	10304
1651.062	10397
1653.235	10487
1655.412	10392
1657.586	10404
1659.757	10545
1661.93	10381
1664.1	10507
1666.274	10449
1668.445	10568
1670.614	10564
1672.784	10448
1674.951	10570
1677.12	10659
1679.289	10472
1681.457	10535
1683.622	10298
1685.789	10394
1687.953	10472
1690.121	10243
1692.284	10346
1694.447	10337
1696.611	10302
1698.772	10409
1700.935	10234
1703.098	10357
1705.258	10231
1707.417	10340
1709.576	10298
1711.736	10207
1713.896	10250
1716.053	10173
1718.21	10151
1720.366	10179
1722.522	10288
1724.68	10280
1726.835	10345
1728.989	10328
1731.142	10184
1733.295	10292
1735.449	10165
1737.601	10337
1739.753	10142
1741.903	10139
1744.054	10415
1746.203	10331
1748.354	10186
1750.503	10324
1752.651	10266
1754.798	10253
1756.944	10344
1759.092	10228
1761.238	10299
1763.383	10307
1765.528	10404
1767.672	10354
1769.814	10412
1771.959	10283
1774.102	10251
1776.242	10353
1778.384	10348
1780.525	10383
1782.665	10273
1784.805	10328
1786.945	10390
1789.082	10413
1791.22	10432
1793.36	10166
1795.495	10398
1797.632	10280
1799.766	10409
1801.902	10295
1804.035	10221
1806.172	10341
1808.304	10322
1810.436	10243
1812.569	10228
1814.699	10405
1816.833	10258
1818.963	10368
1821.092	10330
1823.222	10286
1825.35	10258
1827.478	10341
1829.608	10376
1831.734	10106
1833.86	10220
1835.986	10392
1838.11	10367
1840.238	10291
1842.362	10172
1844.485	10199
1846.608	10354
1848.73	10335
1850.853	10325
1852.974	10310
1855.097	10225
1857.217	10137
1859.336	10149
1861.455	10122
1863.576	10192
1865.693	10267
1867.811	10041
1869.926	10223
1872.042	10184
1874.16	10139
1876.275	10184
1878.39	10157
1880.504	10264
1882.618	10302
1884.731	10159
1886.843	10164
1888.956	10168
1891.067	10262
1893.178	10356
1895.287	10162
1897.399	10393
1899.508	10155
1901.617	10220
1903.724	10192
1905.832	10284
1907.941	10293
1910.046	10454
1912.152	10262
1914.256	10370
1916.361	10206
1918.464	10278
1920.57	10341
1922.672	10384
1924.775	10248
1926.876	10408
1928.978	10286
1931.08	10476
1933.181	10325
1935.28	10196
1937.38	10441
1939.478	10315
1941.577	10376
1943.675	10297
1945.771	10378
1947.867	10327
1949.964	10427
1952.058	10347
1954.154	10373
1956.248	10300
1958.343	10253
1960.435	10224
1962.527	10471
1964.62	10389
1966.711	10298
1968.802	10235
1970.892	10284
1972.983	10231
1975.072	10344
1977.162	10244
1979.25	10177
1981.337	10187
1983.424	10216
1985.51	10340
1987.598	10355
1989.683	10068
1991.768	10233
1993.852	10268
1995.934	10120
1998.019	9952
2000.102	10092
2002.184	10287
2004.266	10225
2006.347	10110
2008.427	10277
2010.508	10191
2012.587	10206
2014.666	10199
2016.745	10181
2018.821	10143
2020.9	10143
2022.977	10307
2025.052	10218
2027.128	10235
2029.204	10159
2031.277	10153
2033.353	10192
2035.425	10164
2037.499	10203
2039.57	10266
2041.642	10222
2043.714	10319
2045.786	10216
2047.855	10159
2049.925	10065
2051.993	10146
2054.064	10198
2056.132	10252
2058.2	10161
2060.266	10187
2062.332	10234
2064.398	10115
2066.465	10162
2068.529	10178
2070.592	10305
2072.657	10209
2074.719	10045
2076.783	10252
2078.845	10189
2080.907	10217
2082.968	10175
2085.028	10167
2087.087	10165
2089.148	10229
2091.207	10229
2093.264	10157
2095.322	10066
2097.379	10161
2099.439	10142
2101.495	10128
2103.55	10250
2105.605	10222
2107.658	10159
2109.713	10173
2111.767	10237
2113.82	10293
2115.872	10151
2117.924	10220
2119.975	10253
2122.028	10005
2124.078	10211
2126.126	10054
2128.176	10181
2130.225	9975
2132.275	10078
2134.321	10088
2136.368	10118
2138.415	10230
2140.461	10242
2142.505	10157
2144.552	10026
2146.597	10012
2148.64	9975
2150.684	9911
2152.725	10062
2154.77	10126
2156.811	10227
2158.852	10079
2160.894	9979
2162.933	10003
2164.973	9964
2167.013	9863
2169.051	9966
2171.089	9899
2173.126	9926
2175.164	9982
2177.201	9930
2179.236	9871
2181.273	9941
2183.307	9937
2185.341	10129
2187.377	9970
2189.41	9974
2191.442	9914
2193.473	9727
2195.506	9879
2197.539	9903
2199.569	9852
2201.598	9867
2203.628	9840
2205.656	9836
2207.686	9775
2209.716	9833
2211.743	9884
2213.769	9848
2215.796	9700
2217.821	9786
2219.848	9949
2221.873	9730
2223.897	9876
2225.921	9839
2227.944	9803
2229.967	9718
2231.991	9825
2234.011	9942
2236.032	9793
2238.053	9833
2240.073	9760
2242.094	9871
2244.114	9809
2246.131	9769
2248.149	9778
2250.167	9870
2252.186	9899
2254.201	9724
2256.218	9779
2258.233	9717
2260.247	9768
2262.262	9706
2264.278	9714
2266.29	9859
2268.303	9792
2270.315	9770
2272.327	9738
2274.341	9734
2276.35	9811
2278.361	9624
2280.37	9514
2282.38	9773
2284.388	9832
2286.397	9713
2288.405	9796
2290.412	9701
2292.419	9777
2294.425	9835
2296.431	9707
2298.437	9823
2300.441	9651
2302.445	9735
2304.449	9772
2306.453	9742
2308.455	9660
2310.457	9667
2312.459	9759
2314.46	9586
2316.46	9650
2318.461	9769
2320.46	9692
2322.458	9712
2324.458	9661
2326.456	9622
2328.455	9827
2330.451	9620
2332.447	9558
2334.443	9689
2336.438	9534
2338.433	9687
2340.429	9605
2342.422	9661
2344.416	9570
2346.408	9620
2348.399	9497
2350.393	9688
2352.384	9560
2354.375	9517
2356.365	9519
2358.355	9566
2360.344	9525
2362.333	9552
2364.322	9519
2366.309	9482
2368.295	9481
2370.282	9459
2372.27	9550
2374.256	9451
2376.24	9471
2378.225	9541
2380.208	9385
2382.194	9471
2384.177	9439
2386.159	9287
2388.142	9374
2390.122	9378
2392.105	9424
2394.085	9345
2396.066	9450
2398.044	9279
2400.024	9320
2402.002	9203
2403.982	9346
2405.959	9365
2407.935	9267
2409.913	9206
2411.888	9472
2413.865	9366
2415.84	9387
2417.814	9425
2419.788	9435
2421.762	9415
2423.735	9540
2425.708	9354
2427.68	9214
2429.651	9253
2431.623	9303
2433.593	9258
2435.564	9322
2437.533	9296
2439.502	9300
2441.47	9289
2443.438	9535
2445.406	9325
2447.373	9176
2449.34	9341
2451.305	9337
2453.271	9206
2455.235	9099
2457.201	9259
2459.165	9279
2461.129	9332
2463.092	9233
2465.054	9291
2467.018	9265
2468.978	9332
2470.939	9123
2472.899	9163
2474.86	9252
2476.819	9239
2478.778	9215
2480.737	9204
2482.695	9175
2484.653	9236
2486.609	9125
2488.567	9258
2490.524	9084
2492.478	9134
2494.433	9008
2496.387	9204
2498.343	9158
2500.297	9104
2502.249	9073
2504.202	9172
2506.153	9073
2508.105	9069
2510.057	9144
2512.008	9082
2513.957	9186
2515.906	9068
2517.855	8959
2519.805	8991
2521.754	9132
2523.7	9073
2525.647	9034
2527.594	9116
2529.54	9042
2531.486	9075
2533.431	8966
2535.376	9043
2537.32	9036
2539.263	8960
2541.207	8964
2543.151	9135
2545.093	9061
2547.034	9017
2548.975	9058
2550.917	9003
2552.856	9016
2554.796	9037
2556.735	9037
2558.673	9146
2560.611	9054
2562.55	8971
2564.487	9107
2566.424	9054
2568.36	9090
2570.296	9036
2572.232	8901
2574.167	8992
2576.101	9013
2578.035	8869
2579.969	8999
2581.902	9111
2583.834	9060
2585.766	8989
2587.698	8976
2589.628	9004
2591.557	8869
2593.489	8879
2595.419	9074
2597.348	8964
2599.275	9028
2601.204	8900
2603.131	8937
2605.059	8962
2606.986	8938
2608.911	8947
2610.837	9058
2612.76	8980
2614.687	8992
2616.61	8993
2618.534	9021
2620.457	9044
2622.38	8972
2624.302	9111
2626.225	9034
2628.145	8940
2630.067	8991
2631.986	9062
2633.906	8907
2635.827	9015
2637.745	9009
2639.662	9079
2641.581	8984
2643.498	8912
2645.415	9056
2647.331	8917
2649.248	8958
2651.163	8924
2653.077	8925
2654.993	8946
2656.906	8932
2658.821	9017
2660.733	8822
2662.646	8905
2664.557	8939
2666.47	8860
2668.381	8789
2670.291	8890
2672.201	8891
2674.11	8897
2676.021	8990
2677.929	9002
2679.837	8865
2681.745	8867
2683.652	8794
2685.56	8853
2687.466	8831
2689.371	9003
2691.276	8801
2693.181	8697
2695.085	8947
2696.991	8744
2698.893	8996
2700.796	8848
2702.698	8731
2704.601	8670
2706.502	8642
2708.404	8752
2710.304	8953
2712.203	8700
2714.103	8800
2716.003	8761
2717.902	8681
2719.8	8750
2721.697	8805
2723.594	8640
2725.49	8909
2727.389	8709
2729.283	8678
2731.179	8793
2733.073	8727
2734.968	8669
2736.863	8708
2738.757	8661
2740.649	8723
2742.541	8687
2744.433	8694
2746.324	8593
2748.216	8651
2750.107	8688
2751.997	8644
2753.886	8688
2755.776	8686
2757.666	8661
2759.553	8645
2761.44	8549
2763.327	8460
2765.215	8513
2767.102	8642
2768.988	8564
2770.873	8495
2772.757	8482
2774.641	8618
2776.525	8601
2778.41	8545
2780.292	8588
2782.175	8494
2784.057	8645
2785.938	8486
2787.821	8530
2789.701	8597
2791.581	8588
2793.461	8637
2795.34	8487
2797.219	8604
2799.099	8547
2800.975	8555
2802.853	8554
2804.73	8606
2806.606	8534
2808.484	8653
2810.358	8575
2812.233	8507
2814.108	8440
2815.981	8568
2817.857	8328
2819.73	8480
2821.602	8533
2823.474	8295
2825.346	8464
2827.217	8391
2829.089	8499
2830.959	8351
2832.829	8454
2834.698	8559
2836.567	8450
2838.436	8562
2840.305	8463
2842.172	8432
2844.04	8383
2845.905	8519
2847.772	8357
2849.639	8499
2851.503	8553
2853.369	8330
2855.232	8476
2857.096	8464
2858.961	8376
2860.824	8428
2862.686	8540
2864.547	8694
2866.41	8493
2868.272	8596
2870.132	8682
2871.992	8597
2873.851	8652
2875.711	8633
2877.57	8604
2879.429	8797
2881.287	8697
2883.144	8673
2885.001	8831
2886.857	8848
2888.714	8696
2890.57	8714
2892.425	8761
2894.279	8723
2896.133	8627
2897.987	8701
2899.842	8705
2901.694	8697
2903.547	8697
2905.397	8745
2907.249	8664
2909.101	8800
2910.952	8786
2912.802	8822
2914.652	8817
2916.5	8885
2918.35	8847
2920.198	8922
2922.045	8836
2923.893	8998
2925.74	8951
2927.585	9052
2929.433	9028
2931.279	9224
2933.123	9109
2934.968	9079
2936.811	9308
2938.656	9257
2940.5	9269
2942.342	9396
2944.185	9356
2946.026	9416
2947.87	9345
2949.71	9308
2951.549	9172
2953.39	9192
2955.229	9279
2957.069	9079
2958.908	9036
2960.746	8853
2962.584	8964
2964.421	8891
2966.257	8897
2968.094	8629
2969.931	8810
2971.766	8823
2973.601	8750
2975.435	8759
2977.27	8837
2979.105	8851
2980.938	8835
2982.77	8640
2984.602	8562
2986.434	8685
2988.267	8606
2990.097	8588
2991.927	8637
2993.757	8512
2995.587	8413
2997.417	8454
2999.246	8374
3001.074	8437
3002.902	8304
3004.729	8182
3006.556	8241
3008.384	8190
3010.21	8237
3012.036	8146
3013.861	8053
3015.684	8149
3017.51	7983
3019.334	7937
3021.157	7932
3022.981	7794
3024.802	7867
3026.624	8112
3028.448	7913
3030.267	7934
3032.088	7924
3033.909	7921
3035.728	7865
3037.549	7909
3039.368	7851
3041.186	7850
3043.004	7713
3044.821	7786
3046.64	7803
3048.455	7800
3050.272	7651
3052.087	7763
3053.903	7760
3055.717	7720
3057.534	7773
3059.347	7866
3061.16	7650
3062.974	7724
3064.785	7795
3066.598	7703
3068.411	7721
3070.222	7703
3072.032	7696
3073.844	7816
3075.653	7758
3077.463	7724
3079.272	7776
3081.08	7614
3082.889	7613
3084.697	7650
3086.505	7841
3088.312	7617
3090.118	7604
3091.924	7561
3093.729	7687
3095.535	7585
3097.34	7528
3099.144	7631
3100.947	7607
3102.75	7530
3104.553	7495
3106.357	7471
3108.159	7475
3109.961	7606
3111.762	7564
3113.562	7598
3115.365	7614
3117.164	7441
3118.964	7474
3120.761	7459
3122.56	7330
3124.36	7443
3126.158	7407
3127.954	7397
3129.75	7330
3131.547	7434
3133.343	7296
3135.139	7396
3136.934	7326
3138.729	7244
3140.522	7341
3142.317	7368
3144.11	7263
3145.904	7292
3147.695	7299
3149.488	7311
3151.28	7362
3153.07	7358
3154.863	7207
3156.652	7291
3158.441	7265
3160.231	7183
3162.019	7281
3163.81	7249
3165.597	7221
3167.384	7243
3169.172	7355
3170.958	7319
3172.745	7160
3174.532	7247
3176.317	7342
3178.101	7167
3179.885	7161
3181.67	7216
3183.455	7154
3185.238	7266
3187.02	7310
3188.802	7057
3190.585	7119
3192.368	7179
3194.149	7139
3195.929	7213
3197.709	7191
3199.489	7173
3201.268	7137
3203.048	7220
3204.826	7148
3206.604	7187
3208.382	7092
3210.159	7197
3211.937	7074
3213.713	7164
3215.489	7181
3217.263	7168
3219.038	7131
3220.815	7125
3222.589	7072
3224.363	7116
3226.136	7081
3227.908	7075
3229.681	7044
3231.454	7093
3233.226	7037
3234.996	7087
3236.767	7190
3238.538	7060
3240.308	7080
3242.078	7164
3243.847	6971
3245.615	6921
3247.384	6997
3249.15	6999
3250.92	7049
3252.686	7066
3254.453	7053
3256.218	7181
3257.984	6992
3259.75	7048
3261.515	7061
3263.279	7126
3265.044	7016
3266.806	7105
3268.57	7045
3270.334	7040
3272.095	6924
3273.856	6938
3275.619	6987
3277.379	7070
3279.14	7046
3280.9	7006
3282.661	6935
3284.419	6969
3286.178	6994
3287.937	7071
3289.695	7054
3291.453	7129
3293.21	7077
3294.967	6907
3296.723	6967
3298.48	6993
3300.235	7006
3301.99	6887
3303.744	6899
3305.498	6972
3307.253	7055
3309.006	6986
3310.759	6922
3312.511	7040
3314.263	6963
3316.017	7014
3317.768	6933
3319.519	6990
3321.268	6962
3323.018	6949
3324.767	7099
3326.518	6980
3328.267	6887
3330.014	6993
3331.762	6902
3333.509	7003
3335.258	6928
3337.003	6881
3338.75	6938
3340.496	6885
3342.24	6783
3343.987	7004
3345.732	6921
3347.475	6775
3349.219	6960
3350.961	6944
3352.705	6763
3354.448	6762
3356.19	6881
3357.931	6807
3359.672	6810
3361.412	6819
3363.155	6887
3364.894	6866
3366.633	6650
3368.372	6780
3370.11	6837
3371.849	6796
3373.588	6804
3375.325	6687
3377.061	6722
3378.799	6760
3380.534	6704
3382.271	6752
3384.006	6693
3385.741	6743
3387.475	6703
3389.209	6724
3390.944	6733
3392.677	6727
3394.409	6612
3396.143	6667
3397.874	6732
3399.606	6634
3401.338	6692
3403.069	6654
3404.799	6706
3406.528	6604
3408.258	6626
3409.988	6650
3411.717	6589
3413.445	6688
3415.173	6584
3416.899	6658
3418.626	6636
3420.354	6571
3422.08	6660
3423.806	6692
3425.531	6674
3427.255	6523
3428.981	6540
3430.705	6576
3432.429	6685
3434.151	6601
3435.875	6537
3437.599	6691
3439.321	6486
3441.042	6604
3442.763	6490
3444.483	6484
3446.204	6563
3447.926	6474
3449.645	6375
3451.364	6536
3453.082	6490
3454.801	6456
3456.52	6419
3458.238	6365
3459.954	6352
3461.671	6498
3463.387	6424
3465.104	6243
3466.82	6317
3468.534	6455
3470.25	6370
3471.963	6420
3473.676	6242
3475.392	6371
3477.104	6303
3478.817	6342
3480.528	6394
3482.241	6322
3483.954	6289
3485.664	6304
3487.374	6270
3489.084	6358
3490.795	6293
3492.504	6305
3494.214	6250
3495.922	6176
3497.63	6298
3499.338	6285
3501.045	6188
3502.753	6334
3504.459	6224
3506.166	6292
3507.871	6263
3509.576	6235
3511.283	6076
3512.987	6213
3514.691	6113
3516.395	6059
3518.098	6215
3519.8	6143
3521.504	6102
3523.206	6044
3524.908	6194
3526.609	6189
3528.309	6166
3530.011	6087
3531.711	6122
3533.411	6207
3535.109	6039
3536.808	6083
3538.507	6049
3540.206	6097
3541.904	6038
3543.601	6026
3545.297	6105
3546.994	6000
3548.69	6049
3550.387	5989
3552.081	5909
3553.776	6122
3555.47	6041
3557.166	5989
3558.859	5966
3560.553	5911
3562.245	5959
3563.938	5922
3565.629	5956
3567.322	5946
3569.014	5852
3570.704	5994
3572.394	5978
3574.084	5889
3575.775	5861
3577.464	5928
3579.152	5901
3580.842	5920
3582.529	5932
3584.216	5997
3585.905	5876
3587.591	5917
3589.279	5930
3590.964	5875
3592.649	5884
3594.336	5833
3596.021	5735
3597.705	5796
3599.388	5758
3601.072	5741
3602.757	5845
3604.439	5834
3606.122	5717
3607.803	5800
3609.485	5570
3611.167	5740
3612.849	5701
3614.529	5765
3616.208	5663
3617.888	5635
3619.567	5698
3621.247	5691
3622.926	5705
3624.603	5766
3626.281	5645
3627.958	5661
3629.635	5697
3631.312	5753
3632.989	5630
3634.665	5683
3636.339	5593
3638.014	5728
3639.691	5614
3641.364	5682
3643.038	5602
3644.71	5580
3646.384	5621
3648.058	5572
3649.729	5604
3651.402	5575
3653.073	5580
3654.744	5603
3656.414	5536
3658.085	5557
3659.755	5526
3661.424	5583
3663.094	5563
3664.762	5533
3666.431	5584
3668.099	5564
3669.766	5460
3671.433	5570
3673.099	5399
3674.768	5425
3676.433	5524
3678.098	5443
3679.763	5491
3681.428	5542
3683.093	5417
3684.757	5427
3686.421	5429
3688.083	5562
3689.746	5332
3691.408	5519
3693.071	5499
3694.733	5350
3696.394	5437
3698.054	5357
3699.715	5356
3701.375	5401
3703.036	5457
3704.695	5428
3706.354	5414
3708.012	5328
3709.67	5395
3711.329	5435
3712.987	5403
3714.644	5409
3716.299	5428
3717.955	5398
3719.613	5460
3721.268	5365
3722.923	5407
3724.577	5254
3726.231	5336
3727.885	5364
3729.539	5221
3731.192	5330
3732.845	5287
3734.497	5372
3736.149	5219
3737.802	5327
3739.453	5281
3741.104	5300
3742.753	5295
3744.404	5299
3746.052	5235
3747.704	5229
3749.352	5332
3751	5311
3752.648	5174
3754.296	5188
3755.944	5302
3757.59	5246
3759.238	5265
3760.883	5199
3762.528	5152
3764.176	5223
3765.82	5166
3767.464	5146
3769.109	5204
3770.753	5248
3772.396	5258
3774.04	5301
3775.683	5166
3777.325	5163
3778.967	5136
3780.608	5099
3782.25	5195
3783.89	5208
3785.531	5145
3787.17	5195
3788.81	5098
3790.45	5076
3792.09	5101
3793.729	5207
3795.366	5156
3797.003	5145
3798.64	5107
3800.278	5086
3801.915	5142
3803.551	5082
3805.187	5092
3806.822	5046
3808.458	5068
3810.093	4991
3811.726	4968
3813.36	4985
3814.994	5131
3816.627	5099
3818.262	4925
3819.893	5002
3821.525	5019
3823.157	5079
3824.787	5016
3826.42	5001
3828.051	5005
3829.68	4993
3831.31	4910
3832.938	5066
3834.569	4947
3836.198	4919
3837.825	5017
3839.454	4934
3841.08	4877
3842.708	4951
3844.335	5017
3845.962	4959
3847.587	4903
3849.212	4985
3850.838	4939
3852.463	4884
3854.089	4879
3855.712	4943
3857.335	4938
3858.959	4912
3860.582	4944
3862.205	4873
3863.827	4876
3865.449	4907
3867.07	4697
3868.691	4904
3870.312	4919
3871.933	4816
3873.553	4893
3875.173	4881
3876.792	4850
3878.411	4775
3880.03	4821
3881.647	4800
3883.265	4830
3884.882	4813
3886.499	4850
3888.116	4718
3889.732	4819
3891.348	4813
3892.964	4786
3894.579	4822
3896.195	4851
3897.809	4791
3899.423	4774
3901.036	4775
3902.648	4793
3904.261	4739
3905.875	4686
3907.487	4820
3909.099	4778
3910.709	4794
3912.321	4853
3913.933	4701
3915.542	4721
3917.152	4760
3918.762	4682
3920.37	4870
3921.98	4818
3923.589	4794
3925.196	4785
3926.804	4744
3928.41	4613
3930.018	4764
3931.626	4836
3933.231	4728
3934.838	4801
3936.442	4578
3938.046	4606
3939.653	4721
3941.257	4678
3942.861	4788
3944.464	4713
3946.068	4678
3947.67	4672
3949.273	4710
3950.876	4676
3952.477	4554
3954.078	4699
3955.678	4635
3957.281	4687
3958.881	4757
3960.48	4591
3962.079	4652
3963.678	4605
3965.279	4578
3966.877	4567
3968.475	4576
3970.072	4611
3971.669	4578
3973.266	4564
3974.864	4580
3976.459	4469
3978.055	4582
3979.65	4631
3981.245	4568
3982.841	4610
3984.436	4569
3986.03	4613
3987.623	4510
3989.216	4465
3990.809	4480
3992.403	4460
3993.995	4468
3995.586	4501
3997.177	4440
3998.768	4449
4000.361	4470
4001.951	4440
4003.54	4452
4005.13	4436
4006.719	4404
4008.31	4461
4009.897	4353
4011.485	4400
4013.073	4493
4014.66	4431
4016.247	4435
4017.834	4361
4019.421	4454
4021.006	4326
4022.592	4368
4024.178	4420
4025.763	4470
4027.348	4386
4028.932	4414
4030.515	4359
4032.099	4402
4033.682	4315
4035.266	4299
4036.847	4306
4038.429	4361
4040.011	4322
4041.592	4257
4043.173	4287
4044.755	4368
4046.334	4191
4047.913	4257
4049.494	4368
4051.074	4247
4052.652	4307
4054.23	4271
4055.807	4354
4057.385	4247
4058.963	4322
4060.541	4339
4062.117	4175
4063.693	4259
4065.269	4322
4066.844	4286
4068.42	4267
4069.995	4296
4071.569	4185
4073.143	4260
4074.716	4238
4076.291	4231
4077.864	4162
4079.436	4286
4081.009	4285
4082.58	4212
4084.152	4221
4085.723	4242
4087.294	4145
4088.865	4263
4090.435	4148
4092.005	4175
4093.574	4202
4095.143	4216
4096.712	4238
4098.279	4216
4099.848	4189
4101.416	4179
4102.984	4181
4104.55	4148
4106.117	4234
4107.682	4205
4109.248	4158
4110.815	4101
4112.379	4204
4113.945	4185
4115.508	4093
4117.073	4079
4118.637	4168
4120.201	4149
4121.763	4074
4123.325	4087
4124.888	4074
4126.449	4001
4128.013	4112
4129.573	4146
4131.133	4107
4132.694	3997
4134.254	4070
4135.814	4002
4137.374	4143
4138.933	4016
4140.491	4025
4142.049	4015
4143.607	4091
4145.167	3936
4146.724	3987
4148.28	4063
4149.836	3918
4151.392	3902
4152.949	3928
4154.504	3903
4156.059	3991
4157.614	3992
4159.168	3911
4160.723	3936
4162.277	3907
4163.83	4011
4165.383	3942
4166.936	3940
4168.488	3963
4170.041	3943
4171.593	4009
4173.144	4042
4174.695	3948
4176.246	3880
4177.796	3893
4179.346	3951
4180.896	3812
4182.445	3868
4183.994	3909
4185.542	3865
4187.091	3897
4188.639	3845
4190.185	3905
4191.732	3790
4193.279	3841
4194.826	3876
4196.373	3798
4197.918	3905
4199.463	3786
4201.008	3829
4202.553	3768
4204.098	3881
4205.641	3871
4207.185	3752
4208.728	3784
4210.271	3833
4211.814	3791
4213.357	3794
4214.898	3866
4216.439	3801
4217.98	3757
4219.522	3795
4221.062	3860
4222.603	3833
4224.142	3766
4225.681	3810
4227.222	3905
4228.76	3713
4230.298	3765
4231.835	3743
4233.373	3720
4234.911	3708
4236.449	3816
4237.985	3772
4239.521	3735
4241.057	3706
4242.592	3727
4244.128	3705
4245.663	3740
4247.197	3724
4248.731	3782
4250.265	3712
4251.798	3663
4253.333	3776
4254.865	3666
4256.397	3724
4257.93	3689
4259.461	3718
4260.994	3663
4262.525	3678
4264.056	3713
4265.586	3663
4267.115	3734
4268.646	3700
4270.176	3666
4271.705	3695
4273.232	3691
4274.761	3642
4276.289	3659
4277.818	3608
4279.345	3642
4280.872	3742
4282.399	3591
4283.924	3623
4285.452	3635
4286.976	3546
4288.502	3562
4290.026	3651
4291.551	3610
4293.074	3552
4294.6	3658
4296.123	3559
4297.646	3662
4299.168	3589
4300.691	3662
4302.214	3547
4303.736	3563
4305.257	3626
4306.778	3646
4308.299	3508
4309.82	3531
4311.34	3602
4312.86	3530
4314.379	3515
