400.0745	4105
402.597	4219
405.1208	4208
407.6419	4223
410.1623	4307
412.6819	4268
415.201	4215
417.7172	4279
420.2369	4372
422.7538	4378
425.2701	4437
427.7856	4363
430.3005	4309
432.8147	4482
435.3282	4476
437.841	4575
440.3511	4437
442.8625	4457
445.3753	4504
447.8854	4463
450.3927	4520
452.9014	4495
455.4073	4478
457.9146	4517
460.4233	4486
462.9272	4486
465.4325	4408
467.935	4444
470.4389	4441
472.9421	4507
475.4446	4467
477.9444	4543
480.4456	4501
482.944	4555
485.4417	4515
487.9429	4499
490.4393	4576
492.935	4420
495.4321	4581
497.9264	4529
500.4221	4577
502.9171	4721
505.4094	4623
507.9011	4543
510.392	4585
512.8864	4606
515.3759	4614
517.8649	4537
520.3531	4603
522.8406	4620
525.3275	4674
527.8178	4663
530.3033	4737
532.7881	4706
535.2723	4720
537.7558	4577
540.2407	4696
542.7228	4639
545.2043	4746
547.6851	4734
550.1652	4829
552.6467	4754
555.1255	4792
557.6016	4735
560.079	4758
562.5557	4740
565.0318	4718
567.5092	4765
569.984	4836
572.456	4838
574.9294	4849
577.4022	4777
579.8762	4806
582.3456	4895
584.8163	4780
587.2863	4876
589.7557	4941
592.2224	4933
594.6924	4876
597.1578	4846
599.6245	4897
602.0905	4791
604.5538	4813
607.0206	4870
609.4825	4741
611.9459	4807
614.4066	4934
616.8686	4816
619.33	4780
621.7906	4769
624.2487	4943
626.708	4864
629.1647	4772
631.6207	4812
634.0801	4735
636.5348	4773
638.9888	4862
641.4442	4809
643.8969	4880
646.3509	4902
648.8022	4791
651.255	4827
653.705	4868
656.1544	4929
658.6031	4889
661.0532	4888
663.5026	5024
665.9493	4913
668.3954	4950
670.8409	5006
673.2877	5012
675.7318	4912
678.1752	4942
680.618	5004
683.0601	5011
685.5035	5044
687.9444	5011
690.3845	5126
692.824	4933
695.2628	5058
697.701	5035
700.1406	5090
702.5774	5048
705.0116	5033
707.4472	5050
709.8821	5053
712.3183	5027
714.7519	5079
717.1829	5052
719.6151	5127
722.0468	5139
724.4777	5140
726.908	5137
729.3377	5148
731.7667	5237
734.1931	5242
736.6208	5127
739.0498	5230
741.4742	5266
743.9	5216
746.3231	5192
748.7476	5323
751.1713	5253
753.5945	5244
756.015	5358
758.4368	5322
760.856	5318
763.2766	5252
765.6965	5307
768.1157	5364
770.5323	5345
772.9483	5511
775.3656	5339
777.7822	5309
780.1963	5285
782.6116	5338
785.0244	5275
787.4365	5398
789.8499	5254
792.2626	5422
794.6728	5392
797.0823	5474
799.4911	5335
801.8994	5317
804.3109	5435
806.7178	5420
809.124	5354
811.5297	5544
813.9347	5395
816.341	5478
818.7447	5467
821.1478	5474
823.5502	5437
825.952	5462
828.3531	5529
830.7556	5413
833.1554	5472
835.5546	5428
837.9532	5444
840.3511	5544
842.7504	5557
845.1451	5522
847.5411	5631
849.9365	5533
852.3312	5612
854.7272	5575
857.1187	5618
859.5115	5463
861.9037	5571
864.2952	5542
866.6842	5453
869.0764	5659
871.4661	5606
873.8531	5549
876.2415	5609
878.6272	5757
881.0162	5591
883.4026	5431
885.7866	5539
888.1717	5540
890.5543	5670
892.9382	5475
895.3215	5520
897.7041	5517
900.0842	5510
902.4655	5515
904.8443	5551
907.2244	5626
909.6039	5711
911.9808	5580
914.357	5679
916.7346	5678
919.1115	5699
921.4859	5729
923.8616	5852
926.2347	5689
928.6071	5853
930.979	5753
933.3541	5752
935.7247	5885
938.0946	5878
940.4639	6040
942.8326	5881
945.2026	6058
947.5701	6132
949.9369	6186
952.305	6462
954.6705	6604
957.0355	6921
959.4017	7072
961.7654	7095
964.1284	7158
966.4908	7065
968.8527	6626
971.2138	6528
973.5743	6204
975.9343	6030
978.2936	5881
980.6522	5902
983.0122	5742
985.3696	5664
987.7245	5757
990.0807	5615
992.4362	5679
994.7911	5710
997.1474	5690
999.4991	5835
1001.852	5917
1004.205	5744
1006.555	5743
1008.908	5804
1011.258	5745
1013.606	5789
1015.956	5734
1018.302	5746
1020.652	5736
1022.998	5925
1025.345	5752
1027.691	5853
1030.035	5850
1032.378	5828
1034.724	5974
1037.066	5921
1039.409	5833
1041.75	5903
1044.092	5867
1046.433	5900
1048.771	5868
1051.112	5859
1053.449	5800
1055.786	5921
1058.124	5852
1060.462	5906
1062.797	5975
1065.131	5943
1067.467	5859
1069.8	6030
1072.135	5945
1074.467	5902
1076.798	6000
1079.129	5997
1081.459	5939
1083.792	5983
1086.121	5943
1088.449	5898
1090.777	5932
1093.104	5827
1095.431	5831
1097.759	5959
1100.084	5797
1102.408	5811
1104.732	5870
1107.056	5934
1109.379	5805
1111.701	5813
1114.022	5928
1116.343	5786
1118.664	5771
1120.983	5898
1123.303	5860
1125.621	5918
1127.939	5876
1130.256	5999
1132.573	5923
1134.889	5854
1137.205	5957
1139.52	5868
1141.832	5907
1144.146	5832
1146.461	5893
1148.771	5870
1151.083	5896
1153.392	5874
1155.703	5888
1158.011	5974
1160.323	5873
1162.629	5861
1164.938	5986
1167.243	6022
1169.55	5891
1171.857	5908
1174.163	5928
1176.466	5933
1178.769	5769
1181.073	5961
1183.374	5793
1185.677	5893
1187.979	5875
1190.279	5892
1192.578	5945
1194.878	5988
1197.178	5959
1199.476	5960
1201.772	5973
1204.068	5866
1206.366	5862
1208.663	6037
1210.957	5916
1213.251	5855
1215.544	5919
1217.836	5905
1220.128	5902
1222.421	5968
1224.712	5924
1227.002	6013
1229.292	5966
1231.581	6151
1233.871	5960
1236.159	5988
1238.446	6137
1240.732	6076
1243.018	6066
1245.304	6119
1247.59	6177
1249.874	6178
1252.156	6102
1254.439	6217
1256.721	6134
1259.005	6119
1261.286	6083
1263.565	6135
1265.845	6067
1268.125	6211
1270.403	6126
1272.682	6103
1274.959	6150
1277.234	6202
1279.511	6122
1281.787	6046
1284.062	5980
1286.337	6092
1288.609	6019
1290.882	6042
1293.153	6014
1295.428	6121
1297.698	6062
1299.969	6015
1302.237	5993
1304.507	5999
1306.777	5972
1309.044	6045
1311.312	5882
1313.578	5900
1315.844	6073
1318.109	6037
1320.375	5982
1322.638	5953
1324.903	6017
1327.165	6054
1329.427	6057
1331.69	6110
1333.952	6002
1336.212	6049
1338.471	6034
1340.73	6129
1342.988	6032
1345.248	6096
1347.505	6009
1349.763	6007
1352.019	6011
1354.274	5978
1356.53	6033
1358.784	5892
1361.038	6007
1363.291	5944
1365.543	6101
1367.797	6085
1370.048	5979
1372.296	6066
1374.546	5951
1376.796	6110
1379.045	5999
1381.295	5975
1383.542	6095
1385.787	6035
1388.034	6021
1390.28	6026
1392.527	6022
1394.772	6105
1397.014	6136
1399.258	6157
1401.501	6270
1403.741	6173
1405.985	6147
1408.226	6190
1410.465	6221
1412.705	6192
1414.943	6157
1417.184	6093
1419.42	6185
1421.658	6242
1423.894	6121
1426.13	6107
1428.366	6238
1430.602	6170
1432.835	6176
1435.069	6214
1437.301	6312
1439.535	6163
1441.767	6321
1443.997	6361
1446.229	6362
1448.458	6279
1450.687	6256
1452.916	6340
1455.146	6352
1457.372	6457
1459.599	6132
1461.824	6222
1464.051	6270
1466.277	6364
1468.501	6185
1470.725	6146
1472.948	6263
1475.17	6186
1477.393	6153
1479.614	6180
1481.837	6104
1484.057	5995
1486.276	6102
1488.497	6070
1490.715	6106
1492.932	5966
1495.148	5926
1497.364	6036
1499.58	5928
1501.798	6018
1504.012	6019
1506.227	5994
1508.44	6015
1510.653	6009
1512.866	6036
1515.078	5932
1517.289	6032
1519.5	5929
1521.711	6080
1523.92	5902
1526.13	5930
1528.338	5946
1530.544	6001
1532.752	6005
1534.959	6013
1537.165	6021
1539.371	6066
1541.574	6073
1543.779	5954
1545.983	5989
1548.187	5987
1550.39	6033
1552.59	6086
1554.792	6045
1556.991	6055
1559.19	6035
1561.392	6057
1563.59	6052
1565.789	6009
1567.986	6108
1570.182	6232
1572.381	6078
1574.576	6139
1576.771	6147
1578.966	6170
1581.16	6148
1583.354	6191
1585.546	6129
1587.74	6224
1589.931	6075
1592.121	6211
1594.311	6062
1596.502	6265
1598.693	6165
1600.881	6243
1603.069	6105
1605.256	6260
1607.445	6272
1609.631	6244
1611.816	6232
1614.001	6217
1616.186	6239
1618.37	6238
1620.555	6241
1622.737	6246
1624.919	6315
1627.101	6208
1629.282	6137
1631.463	6236
1633.643	6279
1635.822	6352
1638.001	6315
1640.179	6328
1642.359	6380
1644.534	6233
1646.711	6373
1648.887	6316
1651.062	6319
1653.235	6327
1655.412	6279
1657.586	6299
1659.757	6352
1661.93	6229
1664.1	6425
1666.274	6461
1668.445	6295
1670.614	6273
1672.784	6315
1674.951	6336
1677.12	6463
1679.289	6338
1681.457	6361
1683.622	6314
1685.789	6205
1687.953	6272
1690.121	6355
1692.284	6322
1694.447	6374
1696.611	6216
1698.772	6256
1700.935	6265
1703.098	6220
1705.258	6189
1707.417	6262
1709.576	6179
1711.736	6251
1713.896	6197
1716.053	6177
1718.21	6192
1720.366	6087
1722.522	6075
1724.68	6282
1726.835	6110
1728.989	6144
1731.142	6175
1733.295	6140
1735.449	6274
1737.601	6112
1739.753	6222
1741.903	6128
1744.054	6085
1746.203	6198
1748.354	6064
1750.503	6133
1752.651	6124
1754.798	6201
1756.944	6041
1759.092	6188
1761.238	6222
1763.383	6117
1765.528	6179
1767.672	6217
1769.814	6214
1771.959	6241
1774.102	6165
1776.242	6362
1778.384	6128
1780.525	6313
1782.665	6082
1784.805	6181
1786.945	6243
1789.082	6202
1791.22	6160
1793.36	6246
1795.495	6240
1797.632	6187
1799.766	6189
1801.902	6148
1804.035	6246
1806.172	6172
1808.304	6170
1810.436	6218
1812.569	6126
1814.699	6182
1816.833	6174
1818.963	6197
1821.092	6288
1823.222	6032
1825.35	6143
1827.478	6231
1829.608	6132
1831.734	6199
1833.86	6108
1835.986	6181
1838.11	6199
1840.238	6082
1842.362	6124
1844.485	6229
1846.608	6114
1848.73	6151
1850.853	6155
1852.974	6180
1855.097	6200
1857.217	6037
1859.336	6223
1861.455	6097
1863.576	6188
1865.693	6100
1867.811	6118
1869.926	6054
1872.042	6103
1874.16	6162
1876.275	6119
1878.39	6132
1880.504	6238
1882.618	6258
1884.731	6099
1886.843	6193
1888.956	6161
1891.067	6137
1893.178	6247
1895.287	6203
1897.399	6157
1899.508	6199
1901.617	6234
1903.724	6149
1905.832	6084
1907.941	6213
1910.046	6247
1912.152	6028
1914.256	6145
1916.361	6246
1918.464	6243
1920.57	6177
1922.672	6119
1924.775	6241
1926.876	6289
1928.978	6389
1931.08	6225
1933.181	6370
1935.28	6256
1937.38	6284
1939.478	6266
1941.577	6305
1943.675	6196
1945.771	6230
1947.867	6196
1949.964	6138
1952.058	6266
1954.154	6216
1956.248	6309
1958.343	6256
1960.435	6183
1962.527	6130
1964.62	6191
1966.711	6110
1968.802	6169
1970.892	6252
1972.983	6240
1975.072	6218
1977.162	6130
1979.25	6194
1981.337	6182
1983.424	6127
1985.51	6212
1987.598	6171
1989.683	6139
1991.768	6124
1993.852	6143
1995.934	6106
1998.019	6258
2000.102	6139
2002.184	6217
2004.266	6212
2006.347	6193
2008.427	6107
2010.508	6203
2012.587	6108
2014.666	6164
2016.745	6134
2018.821	6152
2020.9	6027
2022.977	6204
2025.052	6043
2027.128	6150
2029.204	6117
2031.277	6043
2033.353	6144
2035.425	6101
2037.499	6141
2039.57	6146
2041.642	6179
2043.714	6129
2045.786	6192
2047.855	6181
2049.925	6127
2051.993	6064
2054.064	6185
2056.132	6136
2058.2	6144
2060.266	6133
2062.332	6320
2064.398	6175
2066.465	6127
2068.529	5987
2070.592	6195
2072.657	6197
2074.719	6078
2076.783	6259
2078.845	6123
2080.907	6137
2082.968	6134
2085.028	6173
2087.087	6121
2089.148	6145
2091.207	6114
2093.264	6133
2095.322	6328
2097.379	6229
2099.439	6153
2101.495	6231
2103.55	6193
2105.605	6137
2107.658	6042
2109.713	6194
2111.767	6124
2113.82	6152
2115.872	6058
2117.924	6171
2119.975	6146
2122.028	6108
2124.078	6049
2126.126	6213
2128.176	6137
2130.225	6159
2132.275	6033
2134.321	6177
2136.368	6095
2138.415	6142
2140.461	6237
2142.505	6111
2144.552	6139
2146.597	6131
2148.64	6097
2150.684	6060
2152.725	6122
2154.77	6135
2156.811	6049
2158.852	6044
2160.894	6135
2162.933	6112
2164.973	6042
2167.013	6022
2169.051	5973
2171.089	6060
2173.126	6085
2175.164	6032
2177.201	6047
2179.236	6065
2181.273	6036
2183.307	6033
2185.341	6031
2187.377	5908
2189.41	5996
2191.442	6090
2193.473	6033
2195.506	6061
2197.539	5965
2199.569	5954
2201.598	6018
2203.628	5934
2205.656	6005
2207.686	6070
2209.716	6010
2211.743	5876
2213.769	5909
2215.796	5992
2217.821	5896
2219.848	6045
2221.873	5888
2223.897	5918
2225.921	5920
2227.944	5968
2229.967	6008
2231.991	5964
2234.011	5981
2236.032	6054
2238.053	6006
2240.073	6009
2242.094	5960
2244.114	5973
2246.131	5861
2248.149	5835
2250.167	5898
2252.186	5889
2254.201	5891
2256.218	5963
2258.233	5850
2260.247	5872
2262.262	5907
2264.278	5945
2266.29	5863
2268.303	5925
2270.315	6011
2272.327	5908
2274.341	6027
2276.35	5982
2278.361	5907
2280.37	5860
2282.38	5943
2284.388	5999
2286.397	5909
2288.405	6061
2290.412	5844
2292.419	5866
2294.425	5881
2296.431	5860
2298.437	5992
2300.441	5867
2302.445	5861
2304.449	5898
2306.453	6009
2308.455	5974
2310.457	5876
2312.459	5922
2314.46	5969
2316.46	5935
2318.461	5821
2320.46	5904
2322.458	5791
2324.458	5953
2326.456	5832
2328.455	5958
2330.451	5890
2332.447	5808
2334.443	5864
2336.438	5832
2338.433	5771
2340.429	5733
2342.422	5856
2344.416	5859
2346.408	5894
2348.399	5893
2350.393	5861
2352.384	5845
2354.375	5791
2356.365	5858
2358.355	5765
2360.344	5810
2362.333	5845
2364.322	5897
2366.309	5818
2368.295	5755
2370.282	5876
2372.27	5796
2374.256	5867
2376.24	5895
2378.225	5808
2380.208	5709
2382.194	5705
2384.177	5824
2386.159	5710
2388.142	5733
2390.122	5727
2392.105	5721
2394.085	5787
2396.066	5700
2398.044	5665
2400.024	5747
2402.002	5682
2403.982	5796
2405.959	5712
2407.935	5657
2409.913	5831
2411.888	5844
2413.865	5666
2415.84	5789
2417.814	5745
2419.788	5687
2421.762	5641
2423.735	5678
2425.708	5715
2427.68	5777
2429.651	5726
2431.623	5624
2433.593	5629
2435.564	5670
2437.533	5707
2439.502	5646
2441.47	5639
2443.438	5836
2445.406	5803
2447.373	5686
2449.34	5736
2451.305	5647
2453.271	5674
2455.235	5666
2457.201	5715
2459.165	5683
2461.129	5682
2463.092	5623
2465.054	5709
2467.018	5617
2468.978	5718
2470.939	5639
2472.899	5631
2474.86	5615
2476.819	5664
2478.778	5572
2480.737	5724
2482.695	5590
2484.653	5745
2486.609	5543
2488.567	5579
2490.524	5636
2492.478	5556
2494.433	5556
2496.387	5579
2498.343	5738
2500.297	5619
2502.249	5584
2504.202	5625
2506.153	5664
2508.105	5593
2510.057	5568
2512.008	5706
2513.957	5508
2515.906	5557
2517.855	5586
2519.805	5608
2521.754	5468
2523.7	5628
2525.647	5523
2527.594	5612
2529.54	5562
2531.486	5540
2533.431	5587
2535.376	5612
2537.32	5626
2539.263	5519
2541.207	5544
2543.151	5629
2545.093	5630
2547.034	5510
2548.975	5611
2550.917	5477
2552.856	5590
2554.796	5509
2556.735	5528
2558.673	5588
2560.611	5531
2562.55	5564
2564.487	5548
2566.424	5425
2568.36	5556
2570.296	5567
2572.232	5572
2574.167	5564
2576.101	5539
2578.035	5566
2579.969	5527
2581.902	5514
2583.834	5539
2585.766	5587
2587.698	5558
2589.628	5547
2591.557	5476
2593.489	5591
2595.419	5563
2597.348	5563
2599.275	5530
2601.204	5572
2603.131	5447
2605.059	5623
2606.986	5548
2608.911	5565
2610.837	5640
2612.76	5587
2614.687	5665
2616.61	5526
2618.534	5650
2620.457	5663
2622.38	5610
2624.302	5525
2626.225	5567
2628.145	5489
2630.067	5610
2631.986	5603
2633.906	5481
2635.827	5545
2637.745	5530
2639.662	5651
2641.581	5544
2643.498	5550
2645.415	5627
2647.331	5546
2649.248	5577
2651.163	5473
2653.077	5545
2654.993	5510
2656.906	5536
2658.821	5577
2660.733	5382
2662.646	5540
2664.557	5534
2666.47	5492
2668.381	5513
2670.291	5506
2672.201	5479
2674.11	5528
2676.021	5585
2677.929	5458
2679.837	5482
2681.745	5500
2683.652	5433
2685.56	5604
2687.466	5464
2689.371	5509
2691.276	5513
2693.181	5441
2695.085	5481
2696.991	5420
2698.893	5553
2700.796	5535
2702.698	5462
2704.601	5481
2706.502	5439
2708.404	5486
2710.304	5350
2712.203	5457
2714.103	5450
2716.003	5471
2717.902	5385
2719.8	5436
2721.697	5437
2723.594	5454
2725.49	5454
2727.389	5399
2729.283	5566
2731.179	5413
2733.073	5425
2734.968	5361
2736.863	5383
2738.757	5372
2740.649	5370
2742.541	5425
2744.433	5437
2746.324	5441
2748.216	5526
2750.107	5406
2751.997	5384
2753.886	5324
2755.776	5449
2757.666	5436
2759.553	5297
2761.44	5326
2763.327	5391
2765.215	5473
2767.102	5382
2768.988	5348
2770.873	5323
2772.757	5419
2774.641	5450
2776.525	5350
2778.41	5307
2780.292	5451
2782.175	5360
2784.057	5321
2785.938	5262
2787.821	5377
2789.701	5431
2791.581	5231
2793.461	5372
2795.34	5329
2797.219	5333
2799.099	5298
2800.975	5221
2802.853	5257
2804.73	5292
2806.606	5307
2808.484	5293
2810.358	5336
2812.233	5300
2814.108	5354
2815.981	5348
2817.857	5278
2819.73	5289
2821.602	5328
2823.474	5205
2825.346	5220
2827.217	5292
2829.089	5358
2830.959	5207
2832.829	5235
2834.698	5342
2836.567	5275
2838.436	5378
2840.305	5299
2842.172	5317
2844.04	5250
2845.905	5288
2847.772	5253
2849.639	5283
2851.503	5341
2853.369	5335
2855.232	5338
2857.096	5386
2858.961	5330
2860.824	5513
2862.686	5442
2864.547	5504
2866.41	5375
2868.272	5541
2870.132	5515
2871.992	5574
2873.851	5566
2875.711	5573
2877.57	5609
2879.429	5687
2881.287	5834
2883.144	5750
2885.001	5695
2886.857	5767
2888.714	5738
2890.57	5861
2892.425	5814
2894.279	5706
2896.133	5777
2897.987	5725
2899.842	5790
2901.694	5716
2903.547	5662
2905.397	5752
2907.249	5732
2909.101	5754
2910.952	5773
2912.802	5779
2914.652	5809
2916.5	5795
2918.35	5807
2920.198	5966
2922.045	5919
2923.893	6143
2925.74	6020
2927.585	6050
2929.433	6263
2931.279	6203
2933.123	6218
2934.968	6333
2936.811	6392
2938.656	6433
2940.5	6351
2942.342	6425
2944.185	6491
2946.026	6642
2947.87	6448
2949.71	6362
2951.549	6390
2953.39	6455
2955.229	6324
2957.069	6202
2958.908	6265
2960.746	6156
2962.584	6094
2964.421	6147
2966.257	6065
2968.094	6013
2969.931	5958
2971.766	5987
2973.601	5892
2975.435	5862
2977.27	5897
2979.105	5797
2980.938	5893
2982.77	5780
2984.602	5799
2986.434	5792
2988.267	5782
2990.097	5744
2991.927	5743
2993.757	5639
2995.587	5468
2997.417	5560
2999.246	5536
3001.074	5414
3002.902	5390
3004.729	5335
3006.556	5341
3008.384	5306
3010.21	5161
3012.036	5307
3013.861	5242
3015.684	5258
3017.51	5288
3019.334	5250
3021.157	5129
3022.981	5089
3024.802	5089
3026.624	5118
3028.448	5075
3030.267	5085
3032.088	4986
3033.909	5008
3035.728	4970
3037.549	4966
3039.368	4951
3041.186	5023
3043.004	5085
3044.821	5045
3046.64	4975
3048.455	4985
3050.272	4936
3052.087	4922
3053.903	5031
3055.717	4993
3057.534	4955
3059.347	4980
3061.16	5012
3062.974	5016
3064.785	5020
3066.598	4914
3068.411	5044
3070.222	4885
3072.032	4964
3073.844	5043
3075.653	4808
3077.463	4995
3079.272	4799
3081.08	4886
3082.889	4910
3084.697	4864
3086.505	4911
3088.312	4971
3090.118	4906
3091.924	4864
3093.729	4815
3095.535	4749
3097.34	4793
3099.144	4865
3100.947	4795
3102.75	4838
3104.553	4843
3106.357	4759
3108.159	4840
3109.961	4867
3111.762	4775
3113.562	4744
3115.365	4597
3117.164	4822
3118.964	4678
3120.761	4747
3122.56	4785
3124.36	4719
3126.158	4806
3127.954	4715
3129.75	4824
3131.547	4653
3133.343	4673
3135.139	4717
3136.934	4766
3138.729	4691
3140.522	4668
3142.317	4697
3144.11	4634
3145.904	4687
3147.695	4582
3149.488	4639
3151.28	4685
3153.07	4687
3154.863	4635
3156.652	4622
3158.441	4683
3160.231	4710
3162.019	4687
3163.81	4708
3165.597	4627
3167.384	4609
3169.172	4693
3170.958	4725
3172.745	4527
3174.532	4566
3176.317	4641
3178.101	4581
3179.885	4671
3181.67	4645
3183.455	4708
3185.238	4615
3187.02	4589
3188.802	4614
3190.585	4574
3192.368	4551
3194.149	4580
3195.929	4571
3197.709	4620
3199.489	4710
3201.268	4656
3203.048	4551
3204.826	4727
3206.604	4596
3208.382	4646
3210.159	4697
3211.937	4510
3213.713	4632
3215.489	4542
3217.263	4636
3219.038	4606
3220.815	4558
3222.589	4561
3224.363	4605
3226.136	4596
3227.908	4526
3229.681	4589
3231.454	4575
3233.226	4638
3234.996	4576
3236.767	4579
3238.538	4599
3240.308	4477
3242.078	4537
3243.847	4524
3245.615	4612
3247.384	4643
3249.15	4525
3250.92	4600
3252.686	4506
3254.453	4615
3256.218	4561
3257.984	4571
3259.75	4558
3261.515	4608
3263.279	4649
3265.044	4634
3266.806	4614
3268.57	4573
3270.334	4569
3272.095	4574
3273.856	4590
3275.619	4651
3277.379	4537
3279.14	4530
3280.9	4578
3282.661	4654
3284.419	4575
3286.178	4600
3287.937	4616
3289.695	4595
3291.453	4602
3293.21	4557
3294.967	4604
3296.723	4535
3298.48	4561
3300.235	4556
3301.99	4546
3303.744	4675
3305.498	4517
3307.253	4499
3309.006	4597
3310.759	4528
3312.511	4590
3314.263	4649
3316.017	4597
3317.768	4623
3319.519	4612
3321.268	4664
3323.018	4604
3324.767	4508
3326.518	4536
3328.267	4419
3330.014	4566
3331.762	4516
3333.509	4552
3335.258	4575
3337.003	4509
3338.75	4535
3340.496	4525
3342.24	4436
3343.987	4595
3345.732	4582
3347.475	4511
3349.219	4411
3350.961	4488
3352.705	4518
3354.448	4427
3356.19	4527
3357.931	4522
3359.672	4470
3361.412	4454
3363.155	4444
3364.894	4548
3366.633	4469
3368.372	4495
3370.11	4474
3371.849	4474
3373.588	4437
3375.325	4448
3377.061	4403
3378.799	4445
3380.534	4512
3382.271	4517
3384.006	4394
3385.741	4420
3387.475	4361
3389.209	4310
3390.944	4332
3392.677	4408
3394.409	4346
3396.143	4408
3397.874	4385
3399.606	4457
3401.338	4409
3403.069	4424
3404.799	4445
3406.528	4275
3408.258	4384
3409.988	4403
3411.717	4403
3413.445	4270
3415.173	4390
3416.899	4361
3418.626	4353
3420.354	4234
3422.08	4310
3423.806	4362
3425.531	4374
3427.255	4386
3428.981	4289
3430.705	4256
3432.429	4321
3434.151	4289
3435.875	4280
3437.599	4263
3439.321	4270
3441.042	4263
3442.763	4302
3444.483	4234
3446.204	4204
3447.926	4188
3449.645	4229
3451.364	4223
3453.082	4225
3454.801	4233
3456.52	4234
3458.238	4127
3459.954	4228
3461.671	4244
3463.387	4179
3465.104	4206
3466.82	4133
3468.534	4302
3470.25	4224
3471.963	4207
3473.676	4129
3475.392	4161
3477.104	4175
3478.817	4154
3480.528	4084
3482.241	4111
3483.954	4087
3485.664	4156
3487.374	4111
3489.084	4083
3490.795	4130
3492.504	4112
3494.214	4115
3495.922	4046
3497.63	4151
3499.338	4128
3501.045	4103
3502.753	4072
3504.459	4109
3506.166	4080
3507.871	4109
3509.576	4011
3511.283	4001
3512.987	4086
3514.691	4015
3516.395	3974
3518.098	4051
3519.8	3989
3521.504	4010
3523.206	3953
3524.908	3975
3526.609	3929
3528.309	3958
3530.011	4034
3531.711	3971
3533.411	4071
3535.109	3966
3536.808	4064
3538.507	3978
3540.206	3986
3541.904	3955
3543.601	3897
3545.297	3960
3546.994	3925
3548.69	3996
3550.387	3906
3552.081	4012
3553.776	3921
3555.47	3968
3557.166	3940
3558.859	3991
3560.553	3911
3562.245	4022
3563.938	3946
3565.629	3878
3567.322	3957
3569.014	3882
3570.704	3975
3572.394	3908
3574.084	3817
3575.775	3861
3577.464	3900
3579.152	3844
3580.842	3847
3582.529	3916
3584.216	3899
3585.905	3833
3587.591	3869
3589.279	3812
3590.964	3974
3592.649	3844
3594.336	3816
3596.021	3805
3597.705	3814
3599.388	3762
3601.072	3786
3602.757	3823
3604.439	3801
3606.122	3728
3607.803	3752
3609.485	3772
3611.167	3734
3612.849	3727
3614.529	3717
3616.208	3689
3617.888	3762
3619.567	3739
3621.247	3767
3622.926	3733
3624.603	3755
3626.281	3755
3627.958	3717
3629.635	3723
3631.312	3653
3632.989	3704
3634.665	3707
3636.339	3635
3638.014	3624
3639.691	3650
3641.364	3698
3643.038	3588
3644.71	3726
3646.384	3693
3648.058	3655
3649.729	3666
3651.402	3648
3653.073	3594
3654.744	3558
3656.414	3587
3658.085	3579
3659.755	3544
3661.424	3614
3663.094	3567
3664.762	3658
3666.431	3532
3668.099	3650
3669.766	3605
3671.433	3472
3673.099	3568
3674.768	3530
3676.433	3528
3678.098	3565
3679.763	3564
3681.428	3546
3683.093	3575
3684.757	3618
3686.421	3600
3688.083	3514
3689.746	3558
3691.408	3568
3693.071	3504
3694.733	3477
3696.394	3537
3698.054	3558
3699.715	3494
3701.375	3556
3703.036	3548
3704.695	3511
3706.354	3580
3708.012	3474
3709.67	3530
3711.329	3493
3712.987	3428
3714.644	3549
3716.299	3507
3717.955	3441
3719.613	3481
3721.268	3526
3722.923	3480
3724.577	3498
3726.231	3440
3727.885	3464
3729.539	3473
3731.192	3502
3732.845	3528
3734.497	3516
3736.149	3493
3737.802	3458
3739.453	3504
3741.104	3394
3742.753	3386
3744.404	3515
3746.052	3465
3747.704	3428
3749.352	3395
3751	3527
3752.648	3358
3754.296	3357
3755.944	3483
3757.59	3385
3759.238	3427
3760.883	3391
3762.528	3426
3764.176	3447
3765.82	3431
3767.464	3395
3769.109	3399
3770.753	3329
3772.396	3396
3774.04	3494
3775.683	3418
3777.325	3345
3778.967	3367
3780.608	3393
3782.25	3394
3783.89	3405
3785.531	3359
3787.17	3354
3788.81	3279
3790.45	3362
3792.09	3343
3793.729	3457
3795.366	3337
3797.003	3341
3798.64	3300
3800.278	3346
3801.915	3361
3803.551	3377
3805.187	3354
3806.822	3266
3808.458	3324
3810.093	3316
3811.726	3259
3813.36	3224
3814.994	3387
3816.627	3313
3818.262	3305
3819.893	3296
3821.525	3302
3823.157	3250
3824.787	3257
3826.42	3253
3828.051	3256
3829.68	3301
3831.31	3275
3832.938	3243
3834.569	3238
3836.198	3252
3837.825	3193
3839.454	3214
3841.08	3287
3842.708	3247
3844.335	3246
3845.962	3303
3847.587	3246
3849.212	3270
3850.838	3217
3852.463	3172
3854.089	3271
3855.712	3175
3857.335	3177
3858.959	3247
3860.582	3165
3862.205	3191
3863.827	3193
3865.449	3212
3867.07	3228
3868.691	3177
3870.312	3166
3871.933	3263
3873.553	3221
3875.173	3181
3876.792	3224
3878.411	3216
3880.03	3206
3881.647	3129
3883.265	3204
3884.882	3212
3886.499	3221
3888.116	3101
3889.732	3152
3891.348	3188
3892.964	3189
3894.579	3203
3896.195	3114
3897.809	3102
3899.423	3183
3901.036	3142
3902.648	3186
3904.261	3148
3905.875	3136
3907.487	3172
3909.099	3157
3910.709	3154
3912.321	3141
3913.933	3149
3915.542	3218
3917.152	3110
3918.762	3086
3920.37	3093
3921.98	3094
3923.589	3120
3925.196	3153
3926.804	3182
3928.41	3084
3930.018	3091
3931.626	3101
3933.231	3144
3934.838	3109
3936.442	3123
3938.046	3078
3939.653	3123
3941.257	3176
3942.861	3101
3944.464	3091
3946.068	3004
3947.67	3057
3949.273	3074
3950.876	3140
3952.477	3003
3954.078	3088
3955.678	3125
3957.281	3109
3958.881	3023
3960.48	3023
3962.079	3023
3963.678	3030
3965.279	3032
3966.877	3047
3968.475	3046
3970.072	3065
3971.669	3088
3973.266	3017
3974.864	2980
3976.459	3059
3978.055	3035
3979.65	2935
3981.245	3096
3982.841	3039
3984.436	2982
3986.03	2968
3987.623	2999
3989.216	3020
3990.809	3021
3992.403	3000
3993.995	3001
3995.586	2927
3997.177	2991
3998.768	2969
4000.361	3079
4001.951	3002
4003.54	2887
4005.13	2987
4006.719	2879
4008.31	2946
4009.897	2894
4011.485	2976
4013.073	2912
4014.66	2967
4016.247	2938
4017.834	2900
4019.421	2981
4021.006	2854
4022.592	2907
4024.178	2923
4025.763	2919
4027.348	2906
4028.932	2960
4030.515	2915
4032.099	2842
4033.682	2867
4035.266	2907
4036.847	2877
4038.429	2924
4040.011	2904
4041.592	2834
4043.173	2823
4044.755	2841
4046.334	2828
4047.913	2937
4049.494	2846
4051.074	2831
4052.652	2870
4054.23	2884
4055.807	2819
4057.385	2907
4058.963	2888
4060.541	2840
4062.117	2836
4063.693	2880
4065.269	2826
4066.844	2916
4068.42	2814
4069.995	2798
4071.569	2766
4073.143	2882
4074.716	2841
4076.291	2811
4077.864	2811
4079.436	2748
4081.009	2778
4082.58	2828
4084.152	2786
4085.723	2835
4087.294	2787
4088.865	2810
4090.435	2805
4092.005	2773
4093.574	2795
4095.143	2761
4096.712	2782
4098.279	2860
4099.848	2726
4101.416	2767
4102.984	2828
4104.55	2754
4106.117	2745
4107.682	2762
4109.248	2828
4110.815	2817
4112.379	2721
4113.945	2782
4115.508	2747
4117.073	2769
4118.637	2737
4120.201	2678
4121.763	2673
4123.325	2814
4124.888	2686
4126.449	2750
4128.013	2714
4129.573	2708
4131.133	2701
4132.694	2718
4134.254	2736
4135.814	2759
4137.374	2680
4138.933	2663
4140.491	2676
4142.049	2670
4143.607	2682
4145.167	2734
4146.724	2723
4148.28	2683
4149.836	2718
4151.392	2654
4152.949	2651
4154.504	2705
4156.059	2651
4157.614	2590
4159.168	2634
4160.723	2658
4162.277	2691
4163.83	2606
4165.383	2682
4166.936	2565
4168.488	2632
4170.041	2620
4171.593	2569
4173.144	2621
4174.695	2622
4176.246	2658
4177.796	2662
4179.346	2684
4180.896	2603
4182.445	2656
4183.994	2648
4185.542	2631
4187.091	2650
4188.639	2673
4190.185	2602
4191.732	2585
4193.279	2586
4194.826	2572
4196.373	2529
4197.918	2548
4199.463	2597
4201.008	2555
4202.553	2558
4204.098	2575
4205.641	2611
4207.185	2532
4208.728	2495
4210.271	2585
4211.814	2597
4213.357	2633
4214.898	2545
4216.439	2585
4217.98	2612
4219.522	2531
4221.062	2537
4222.603	2539
4224.142	2497
4225.681	2569
4227.222	2512
4228.76	2588
4230.298	2564
4231.835	2514
4233.373	2482
4234.911	2567
4236.449	2536
4237.985	2570
4239.521	2512
4241.057	2527
4242.592	2559
4244.128	2544
4245.663	2575
4247.197	2465
4248.731	2509
4250.265	2461
4251.798	2485
4253.333	2495
4254.865	2484
4256.397	2605
4257.93	2449
4259.461	2456
4260.994	2467
4262.525	2520
4264.056	2493
4265.586	2462
4267.115	2466
4268.646	2487
4270.176	2501
4271.705	2414
4273.232	2532
4274.761	2503
4276.289	2529
4277.818	2452
4279.345	2519
4280.872	2483
4282.399	2437
4283.924	2514
4285.452	2393
4286.976	2512
4288.502	2382
4290.026	2465
4291.551	2472
4293.074	2446
4294.6	2467
4296.123	2421
4297.646	2426
4299.168	2432
4300.691	2477
4302.214	2453
4303.736	2446
4305.257	2403
4306.778	2434
4308.299	2479
4309.82	2426
4311.34	2386
4312.86	2391
4314.379	2450
