400.0745	4855
402.597	4851
405.1208	4775
407.6419	4810
410.1623	4868
412.6819	4950
415.201	4928
417.7172	4957
420.2369	5015
422.7538	4930
425.2701	5005
427.7856	5118
430.3005	5012
432.8147	5208
435.3282	5161
437.841	5105
440.3511	5193
442.8625	5197
445.3753	5170
447.8854	5142
450.3927	5213
452.9014	5225
455.4073	5209
457.9146	5110
460.4233	5191
462.9272	5168
465.4325	5169
467.935	5229
470.4389	5170
472.9421	5165
475.4446	5238
477.9444	5198
480.4456	5251
482.944	5211
485.4417	5311
487.9429	5260
490.4393	5244
492.935	5385
495.4321	5302
497.9264	5266
500.4221	5325
502.9171	5368
505.4094	5374
507.9011	5292
510.392	5472
512.8864	5403
515.3759	5490
517.8649	5410
520.3531	5397
522.8406	5357
525.3275	5363
527.8178	5500
530.3033	5326
532.7881	5422
535.2723	5463
537.7558	5425
540.2407	5462
542.7228	5341
545.2043	5432
547.6851	5478
550.1652	5359
552.6467	5392
555.1255	5513
557.6016	5442
560.079	5570
562.5557	5540
565.0318	5488
567.5092	5461
569.984	5446
572.456	5570
574.9294	5586
577.4022	5582
579.8762	5633
582.3456	5714
584.8163	5634
587.2863	5701
589.7557	5649
592.2224	5697
594.6924	5725
597.1578	5520
599.6245	5614
602.0905	5612
604.5538	5708
607.0206	5598
609.4825	5644
611.9459	5593
614.4066	5735
616.8686	5740
619.33	5593
621.7906	5614
624.2487	5576
626.708	5649
629.1647	5684
631.6207	5618
634.0801	5564
636.5348	5626
638.9888	5644
641.4442	5707
643.8969	5713
646.3509	5633
648.8022	5766
651.255	5698
653.705	5774
656.1544	5764
658.6031	5711
661.0532	5641
663.5026	5751
665.9493	5741
668.3954	5790
670.8409	5867
673.2877	5809
675.7318	5845
678.1752	5862
680.618	5862
683.0601	5928
685.5035	5910
687.9444	5908
690.3845	5873
692.824	5819
695.2628	5845
697.701	5873
700.1406	5980
702.5774	5972
705.0116	5867
707.4472	5901
709.8821	5778
712.3183	5985
714.7519	5934
717.1829	5915
719.6151	6001
722.0468	5896
724.4777	6060
726.908	6017
729.3377	5972
731.7667	5991
734.1931	6127
736.6208	6152
739.0498	6140
741.4742	6096
743.9	5972
746.3231	6253
748.7476	6178
751.1713	6109
753.5945	6149
756.015	6213
758.4368	6064
760.856	6370
763.2766	6271
765.6965	6384
768.1157	6270
770.5323	6305
772.9483	6269
775.3656	6140
777.7822	6321
780.1963	6172
782.6116	6274
785.0244	6310
787.4365	6326
789.8499	6302
792.2626	6213
794.6728	6355
797.0823	6318
799.4911	6286
801.8994	6305
804.3109	6397
806.7178	6356
809.124	6340
811.5297	6359
813.9347	6320
816.341	6380
818.7447	6333
821.1478	6302
823.5502	6364
825.952	6482
828.3531	6181
830.7556	6353
833.1554	6324
835.5546	6333
837.9532	6452
840.3511	6381
842.7504	6396
845.1451	6433
847.5411	6530
849.9365	6457
852.3312	6586
854.7272	6551
857.1187	6479
859.5115	6650
861.9037	6553
864.2952	6463
866.6842	6467
869.0764	6570
871.4661	6511
873.8531	6483
876.2415	6434
878.6272	6491
881.0162	6379
883.4026	6463
885.7866	6502
888.1717	6530
890.5543	6484
892.9382	6493
895.3215	6354
897.7041	6335
900.0842	6436
902.4655	6477
904.8443	6483
907.2244	6456
909.6039	6384
911.9808	6578
914.357	6610
916.7346	6558
919.1115	6702
921.4859	6755
923.8616	6644
926.2347	6850
928.6071	6725
930.979	6735
933.3541	6801
935.7247	6760
938.0946	7031
940.4639	6958
942.8326	6844
945.2026	6835
947.5701	7095
949.9369	7164
952.305	7322
954.6705	7410
957.0355	7672
959.4017	7879
961.7654	8067
964.1284	7960
966.4908	7800
968.8527	7567
971.2138	7373
973.5743	7278
975.9343	6873
978.2936	6787
980.6522	6915
983.0122	6829
985.3696	6790
987.7245	6737
990.0807	6694
992.4362	6582
994.7911	6786
997.1474	6692
999.4991	6673
1001.852	6605
1004.205	6790
1006.555	6652
1008.908	6662
1011.258	6726
1013.606	6620
1015.956	6733
1018.302	6670
1020.652	6689
1022.998	6736
1025.345	6692
1027.691	6683
1030.035	6835
1032.378	6812
1034.724	6984
1037.066	6827
1039.409	6781
1041.75	6871
1044.092	6788
1046.433	6799
1048.771	6903
1051.112	6783
1053.449	6728
1055.786	6908
1058.124	6850
1060.462	6873
1062.797	6721
1065.131	6798
1067.467	6926
1069.8	6866
1072.135	6861
1074.467	6933
1076.798	6916
1079.129	6942
1081.459	6803
1083.792	6951
1086.121	6884
1088.449	6843
1090.777	6782
1093.104	6751
1095.431	6980
1097.759	6857
1100.084	6799
1102.408	6822
1104.732	6842
1107.056	6805
1109.379	6879
1111.701	6875
1114.022	6840
1116.343	6837
1118.664	6794
1120.983	6830
1123.303	6855
1125.621	6830
1127.939	6829
1130.256	6823
1132.573	6881
1134.889	6959
1137.205	6850
1139.52	6884
1141.832	6969
1144.146	6758
1146.461	6844
1148.771	7010
1151.083	6957
1153.392	7013
1155.703	6885
1158.011	6893
1160.323	6769
1162.629	7000
1164.938	6830
1167.243	6894
1169.55	6975
1171.857	6890
1174.163	6867
1176.466	6992
1178.769	6929
1181.073	6904
1183.374	6924
1185.677	6921
1187.979	6913
1190.279	6791
1192.578	6944
1194.878	6892
1197.178	6920
1199.476	6848
1201.772	6973
1204.068	6878
1206.366	6935
1208.663	6870
1210.957	6947
1213.251	6939
1215.544	6895
1217.836	7003
1220.128	6949
1222.421	6948
1224.712	6823
1227.002	7030
1229.292	7049
1231.581	7001
1233.871	6993
1236.159	7053
1238.446	7107
1240.732	7193
1243.018	7181
1245.304	7135
1247.59	7148
1249.874	7156
1252.156	7087
1254.439	7261
1256.721	7155
1259.005	7137
1261.286	7158
1263.565	7218
1265.845	7138
1268.125	7086
1270.403	7154
1272.682	7036
1274.959	7113
1277.234	7074
1279.511	7086
1281.787	7064
1284.062	7020
1286.337	6945
1288.609	6985
1290.882	7136
1293.153	7024
1295.428	7082
1297.698	7034
1299.969	7170
1302.237	7007
1304.507	7026
1306.777	6959
1309.044	6916
1311.312	7010
1313.578	7016
1315.844	7104
1318.109	7076
1320.375	7047
1322.638	6996
1324.903	6904
1327.165	7012
1329.427	7033
1331.69	7028
1333.952	7018
1336.212	7056
1338.471	7128
1340.73	7058
1342.988	7035
1345.248	7103
1347.505	7037
1349.763	7067
1352.019	6982
1354.274	6923
1356.53	7042
1358.784	7083
1361.038	6944
1363.291	6989
1365.543	6984
1367.797	7057
1370.048	7116
1372.296	7095
1374.546	7065
1376.796	7184
1379.045	7043
1381.295	7004
1383.542	7196
1385.787	7124
1388.034	6943
1390.28	7070
1392.527	7105
1394.772	7216
1397.014	7052
1399.258	7142
1401.501	7236
1403.741	7199
1405.985	7175
1408.226	7119
1410.465	7211
1412.705	7253
1414.943	7287
1417.184	7224
1419.42	7334
1421.658	7221
1423.894	7268
1426.13	7182
1428.366	7232
1430.602	7336
1432.835	7380
1435.069	7294
1437.301	7277
1439.535	7308
1441.767	7305
1443.997	7227
1446.229	7400
1448.458	7401
1450.687	7271
1452.916	7439
1455.146	7333
1457.372	7435
1459.599	7262
1461.824	7443
1464.051	7362
1466.277	7263
1468.501	7344
1470.725	7338
1472.948	7283
1475.17	7187
1477.393	7224
1479.614	7127
1481.837	7169
1484.057	7192
1486.276	7134
1488.497	7060
1490.715	7087
1492.932	7105
1495.148	6953
1497.364	7044
1499.58	7064
1501.798	6978
1504.012	7018
1506.227	7126
1508.44	6997
1510.653	6949
1512.866	6923
1515.078	7033
1517.289	6921
1519.5	6985
1521.711	7017
1523.92	6966
1526.13	6917
1528.338	6988
1530.544	6964
1532.752	6996
1534.959	6859
1537.165	6947
1539.371	7128
1541.574	7020
1543.779	6967
1545.983	6999
1548.187	7023
1550.39	6915
1552.59	7091
1554.792	7097
1556.991	7023
1559.19	7116
1561.392	7126
1563.59	7182
1565.789	7210
1567.986	7195
1570.182	7041
1572.381	7169
1574.576	7249
1576.771	7254
1578.966	7178
1581.16	7164
1583.354	7278
1585.546	7232
1587.74	7176
1589.931	7082
1592.121	7146
1594.311	7265
1596.502	7170
1598.693	7103
1600.881	7316
1603.069	7218
1605.256	7222
1607.445	7339
1609.631	7150
1611.816	7317
1614.001	7186
1616.186	7280
1618.37	7208
1620.555	7276
1622.737	7223
1624.919	7200
1627.101	7130
1629.282	7357
1631.463	7257
1633.643	7135
1635.822	7237
1638.001	7286
1640.179	7256
1642.359	7274
1644.534	7266
1646.711	7363
1648.887	7239
1651.062	7329
1653.235	7290
1655.412	7363
1657.586	7312
1659.757	7374
1661.93	7265
1664.1	7329
1666.274	7332
1668.445	7370
1670.614	7336
1672.784	7353
1674.951	7424
1677.12	7402
1679.289	7406
1681.457	7328
1683.622	7425
1685.789	7309
1687.953	7307
1690.121	7351
1692.284	7224
1694.447	7321
1696.611	7274
1698.772	7232
1700.935	7232
1703.098	7171
1705.258	7190
1707.417	7233
1709.576	7214
1711.736	7153
1713.896	7183
1716.053	7143
1718.21	7295
1720.366	7274
1722.522	7204
1724.68	7116
1726.835	7250
1728.989	6998
1731.142	7229
1733.295	7250
1735.449	7226
1737.601	7041
1739.753	7076
1741.903	7155
1744.054	7171
1746.203	7163
1748.354	7180
1750.503	7212
1752.651	7242
1754.798	7181
1756.944	7147
1759.092	7234
1761.238	7304
1763.383	7114
1765.528	7207
1767.672	7231
1769.814	7258
1771.959	7211
1774.102	7113
1776.242	7202
1778.384	7207
1780.525	7138
1782.665	7088
1784.805	7240
1786.945	7166
1789.082	7310
1791.22	7286
1793.36	7273
1795.495	7183
1797.632	7328
1799.766	7294
1801.902	7207
1804.035	7307
1806.172	6984
1808.304	7269
1810.436	7154
1812.569	7204
1814.699	7217
1816.833	7323
1818.963	7295
1821.092	7315
1823.222	7134
1825.35	7252
1827.478	7245
1829.608	7123
1831.734	7223
1833.86	7186
1835.986	7266
1838.11	7198
1840.238	7126
1842.362	7260
1844.485	7175
1846.608	7164
1848.73	7238
1850.853	7105
1852.974	7128
1855.097	7075
1857.217	7090
1859.336	7252
1861.455	7028
1863.576	7053
1865.693	7162
1867.811	7139
1869.926	7163
1872.042	7092
1874.16	7184
1876.275	7001
1878.39	7149
1880.504	7213
1882.618	7079
1884.731	7068
1886.843	7107
1888.956	7077
1891.067	7157
1893.178	7197
1895.287	7205
1897.399	7168
1899.508	7203
1901.617	7184
1903.724	7090
1905.832	7148
1907.941	7177
1910.046	7292
1912.152	7111
1914.256	7167
1916.361	7321
1918.464	7233
1920.57	7143
1922.672	7214
1924.775	7437
1926.876	7209
1928.978	7266
1931.08	7270
1933.181	7227
1935.28	7242
1937.38	7234
1939.478	7250
1941.577	7327
1943.675	7272
1945.771	7316
1947.867	7203
1949.964	7361
1952.058	7315
1954.154	7205
1956.248	7221
1958.343	7236
1960.435	7458
1962.527	7298
1964.62	7227
1966.711	7202
1968.802	7198
1970.892	7136
1972.983	7212
1975.072	7115
1977.162	7161
1979.25	7290
1981.337	7180
1983.424	7146
1985.51	7139
1987.598	7251
1989.683	7145
1991.768	7202
1993.852	7225
1995.934	7141
1998.019	7131
2000.102	7172
2002.184	7155
2004.266	7215
2006.347	7013
2008.427	7114
2010.508	7127
2012.587	7212
2014.666	7103
2016.745	7059
2018.821	7191
2020.9	7113
2022.977	7108
2025.052	7063
2027.128	7247
2029.204	7243
2031.277	7162
2033.353	7099
2035.425	7117
2037.499	7161
2039.57	7098
2041.642	7227
2043.714	7192
2045.786	7148
2047.855	7110
2049.925	7167
2051.993	7253
2054.064	7073
2056.132	7127
2058.2	7231
2060.266	7065
2062.332	7136
2064.398	7228
2066.465	7177
2068.529	7232
2070.592	7144
2072.657	7129
2074.719	7116
2076.783	7001
2078.845	7148
2080.907	7132
2082.968	7152
2085.028	7269
2087.087	7026
2089.148	7138
2091.207	7137
2093.264	7203
2095.322	7069
2097.379	7081
2099.439	7118
2101.495	7052
2103.55	7149
2105.605	7100
2107.658	7134
2109.713	7046
2111.767	7009
2113.82	7139
2115.872	7093
2117.924	7161
2119.975	7146
2122.028	7194
2124.078	7205
2126.126	7054
2128.176	7063
2130.225	7101
2132.275	6994
2134.321	7160
2136.368	6908
2138.415	7067
2140.461	7084
2142.505	7128
2144.552	7178
2146.597	6947
2148.64	6988
2150.684	7073
2152.725	7231
2154.77	7044
2156.811	7090
2158.852	7086
2160.894	6927
2162.933	6941
2164.973	7041
2167.013	7050
2169.051	7042
2171.089	7061
2173.126	6997
2175.164	7021
2177.201	6930
2179.236	6997
2181.273	6957
2183.307	7024
2185.341	7011
2187.377	6966
2189.41	6936
2191.442	6890
2193.473	7032
2195.506	6937
2197.539	6941
2199.569	6932
2201.598	6822
2203.628	6908
2205.656	6902
2207.686	6949
2209.716	6960
2211.743	6949
2213.769	6947
2215.796	6928
2217.821	6869
2219.848	7000
2221.873	6776
2223.897	6880
2225.921	6865
2227.944	6865
2229.967	6984
2231.991	6885
2234.011	6865
2236.032	6877
2238.053	6741
2240.073	6871
2242.094	6924
2244.114	6825
2246.131	6890
2248.149	6774
2250.167	6861
2252.186	6905
2254.201	6974
2256.218	6920
2258.233	6926
2260.247	6912
2262.262	6937
2264.278	6959
2266.29	6755
2268.303	6809
2270.315	6845
2272.327	6939
2274.341	6917
2276.35	6940
2278.361	6845
2280.37	6796
2282.38	6911
2284.388	6824
2286.397	6855
2288.405	6957
2290.412	6839
2292.419	6835
2294.425	6855
2296.431	6767
2298.437	6826
2300.441	6860
2302.445	6759
2304.449	6796
2306.453	6788
2308.455	6835
2310.457	6744
2312.459	6914
2314.46	6827
2316.46	6846
2318.461	6838
2320.46	6875
2322.458	6817
2324.458	6900
2326.456	6908
2328.455	6883
2330.451	6790
2332.447	6723
2334.443	6815
2336.438	6764
2338.433	6695
2340.429	6696
2342.422	6834
2344.416	6706
2346.408	6703
2348.399	6644
2350.393	6622
2352.384	6635
2354.375	6752
2356.365	6760
2358.355	6696
2360.344	6649
2362.333	6656
2364.322	6758
2366.309	6635
2368.295	6637
2370.282	6659
2372.27	6734
2374.256	6704
2376.24	6734
2378.225	6638
2380.208	6595
2382.194	6687
2384.177	6634
2386.159	6608
2388.142	6698
2390.122	6652
2392.105	6543
2394.085	6572
2396.066	6599
2398.044	6608
2400.024	6548
2402.002	6626
2403.982	6597
2405.959	6594
2407.935	6513
2409.913	6658
2411.888	6553
2413.865	6526
2415.84	6601
2417.814	6539
2419.788	6588
2421.762	6616
2423.735	6511
2425.708	6573
2427.68	6547
2429.651	6534
2431.623	6568
2433.593	6598
2435.564	6512
2437.533	6505
2439.502	6601
2441.47	6500
2443.438	6575
2445.406	6527
2447.373	6516
2449.34	6587
2451.305	6674
2453.271	6487
2455.235	6554
2457.201	6601
2459.165	6554
2461.129	6550
2463.092	6518
2465.054	6423
2467.018	6451
2468.978	6527
2470.939	6370
2472.899	6589
2474.86	6601
2476.819	6505
2478.778	6463
2480.737	6476
2482.695	6349
2484.653	6598
2486.609	6483
2488.567	6556
2490.524	6441
2492.478	6488
2494.433	6452
2496.387	6356
2498.343	6371
2500.297	6498
2502.249	6471
2504.202	6467
2506.153	6416
2508.105	6493
2510.057	6452
2512.008	6462
2513.957	6410
2515.906	6395
2517.855	6271
2519.805	6386
2521.754	6505
2523.7	6416
2525.647	6420
2527.594	6378
2529.54	6419
2531.486	6405
2533.431	6368
2535.376	6409
2537.32	6341
2539.263	6495
2541.207	6434
2543.151	6360
2545.093	6467
2547.034	6454
2548.975	6334
2550.917	6400
2552.856	6395
2554.796	6376
2556.735	6411
2558.673	6418
2560.611	6322
2562.55	6502
2564.487	6434
2566.424	6378
2568.36	6388
2570.296	6435
2572.232	6341
2574.167	6544
2576.101	6419
2578.035	6393
2579.969	6368
2581.902	6304
2583.834	6385
2585.766	6423
2587.698	6316
2589.628	6429
2591.557	6358
2593.489	6409
2595.419	6393
2597.348	6533
2599.275	6285
2601.204	6378
2603.131	6347
2605.059	6362
2606.986	6379
2608.911	6370
2610.837	6335
2612.76	6455
2614.687	6340
2616.61	6391
2618.534	6367
2620.457	6370
2622.38	6296
2624.302	6404
2626.225	6306
2628.145	6371
2630.067	6437
2631.986	6332
2633.906	6336
2635.827	6393
2637.745	6312
2639.662	6334
2641.581	6395
2643.498	6424
2645.415	6497
2647.331	6364
2649.248	6414
2651.163	6535
2653.077	6330
2654.993	6333
2656.906	6340
2658.821	6406
2660.733	6339
2662.646	6395
2664.557	6378
2666.47	6382
2668.381	6383
2670.291	6340
2672.201	6343
2674.11	6390
2676.021	6332
2677.929	6273
2679.837	6361
2681.745	6271
2683.652	6350
2685.56	6201
2687.466	6296
2689.371	6271
2691.276	6341
2693.181	6162
2695.085	6223
2696.991	6339
2698.893	6277
2700.796	6242
2702.698	6241
2704.601	6278
2706.502	6160
2708.404	6155
2710.304	6316
2712.203	6298
2714.103	6200
2716.003	6267
2717.902	6179
2719.8	6282
2721.697	6254
2723.594	6133
2725.49	6216
2727.389	6225
2729.283	6201
2731.179	6193
2733.073	6267
2734.968	6229
2736.863	6185
2738.757	6187
2740.649	6160
2742.541	6173
2744.433	6262
2746.324	6204
2748.216	6173
2750.107	6215
2751.997	6275
2753.886	6147
2755.776	6110
2757.666	6262
2759.553	6089
2761.44	6176
2763.327	6092
2765.215	6078
2767.102	6173
2768.988	6123
2770.873	6089
2772.757	6152
2774.641	6182
2776.525	6185
2778.41	6210
2780.292	6156
2782.175	6134
2784.057	6121
2785.938	6093
2787.821	6095
2789.701	6075
2791.581	6150
2793.461	6093
2795.34	5969
2797.219	6120
2799.099	6090
2800.975	6081
2802.853	6107
2804.73	6016
2806.606	5941
2808.484	6105
2810.358	6108
2812.233	6100
2814.108	6001
2815.981	6112
2817.857	6085
2819.73	6027
2821.602	6216
2823.474	6106
2825.346	5977
2827.217	6099
2829.089	6030
2830.959	6077
2832.829	6094
2834.698	6079
2836.567	6091
2838.436	6097
2840.305	6061
2842.172	6118
2844.04	6032
2845.905	6165
2847.772	6129
2849.639	5999
2851.503	6125
2853.369	6041
2855.232	6115
2857.096	6058
2858.961	6174
2860.824	6124
2862.686	6205
2864.547	6301
2866.41	6239
2868.272	6306
2870.132	6332
2871.992	6403
2873.851	6344
2875.711	6412
2877.57	6444
2879.429	6647
2881.287	6557
2883.144	6510
2885.001	6655
2886.857	6668
2888.714	6567
2890.57	6635
2892.425	6649
2894.279	6501
2896.133	6525
2897.987	6638
2899.842	6565
2901.694	6469
2903.547	6491
2905.397	6523
2907.249	6517
2909.101	6696
2910.952	6691
2912.802	6716
2914.652	6650
2916.5	6710
2918.35	6785
2920.198	6875
2922.045	6756
2923.893	6938
2925.74	6964
2927.585	7047
2929.433	7168
2931.279	7111
2933.123	7177
2934.968	7131
2936.811	7130
2938.656	7324
2940.5	7255
2942.342	7498
2944.185	7388
2946.026	7480
2947.87	7541
2949.71	7320
2951.549	7424
2953.39	7407
2955.229	7401
2957.069	7087
2958.908	7227
2960.746	7161
2962.584	7139
2964.421	7041
2966.257	6969
2968.094	6995
2969.931	6793
2971.766	6675
2973.601	6856
2975.435	6736
2977.27	6768
2979.105	6665
2980.938	6619
2982.77	6693
2984.602	6679
2986.434	6526
2988.267	6598
2990.097	6531
2991.927	6397
2993.757	6452
2995.587	6395
2997.417	6295
2999.246	6299
3001.074	6215
3002.902	6186
3004.729	6280
3006.556	5929
3008.384	6040
3010.21	5998
3012.036	6071
3013.861	5993
3015.684	6022
3017.51	5851
3019.334	5886
3021.157	5800
3022.981	5896
3024.802	5795
3026.624	5827
3028.448	5717
3030.267	5696
3032.088	5660
3033.909	5664
3035.728	5743
3037.549	5750
3039.368	5705
3041.186	5692
3043.004	5590
3044.821	5669
3046.64	5703
3048.455	5709
3050.272	5722
3052.087	5766
3053.903	5725
3055.717	5703
3057.534	5764
3059.347	5600
3061.16	5598
3062.974	5669
3064.785	5643
3066.598	5580
3068.411	5609
3070.222	5618
3072.032	5630
3073.844	5644
3075.653	5724
3077.463	5636
3079.272	5563
3081.08	5570
3082.889	5500
3084.697	5566
3086.505	5651
3088.312	5527
3090.118	5589
3091.924	5446
3093.729	5531
3095.535	5379
3097.34	5537
3099.144	5455
3100.947	5452
3102.75	5504
3104.553	5484
3106.357	5391
3108.159	5509
3109.961	5452
3111.762	5432
3113.562	5403
3115.365	5418
3117.164	5412
3118.964	5383
3120.761	5335
3122.56	5341
3124.36	5447
3126.158	5444
3127.954	5348
3129.75	5392
3131.547	5394
3133.343	5373
3135.139	5392
3136.934	5419
3138.729	5398
3140.522	5304
3142.317	5378
3144.11	5328
3145.904	5367
3147.695	5324
3149.488	5316
3151.28	5386
3153.07	5445
3154.863	5252
3156.652	5281
3158.441	5439
3160.231	5291
3162.019	5291
3163.81	5370
3165.597	5194
3167.384	5251
3169.172	5248
3170.958	5362
3172.745	5336
3174.532	5280
3176.317	5305
3178.101	5218
3179.885	5255
3181.67	5174
3183.455	5234
3185.238	5308
3187.02	5305
3188.802	5290
3190.585	5287
3192.368	5239
3194.149	5271
3195.929	5277
3197.709	5176
3199.489	5192
3201.268	5204
3203.048	5252
3204.826	5164
3206.604	5241
3208.382	5261
3210.159	5196
3211.937	5125
3213.713	5236
3215.489	5338
3217.263	5230
3219.038	5226
3220.815	5217
3222.589	5300
3224.363	5175
3226.136	5313
3227.908	5177
3229.681	5217
3231.454	5200
3233.226	5202
3234.996	5179
3236.767	5172
3238.538	5152
3240.308	5261
3242.078	5134
3243.847	5180
3245.615	5209
3247.384	5272
3249.15	5156
3250.92	5209
3252.686	5122
3254.453	5224
3256.218	5246
3257.984	5183
3259.75	5064
3261.515	5169
3263.279	5235
3265.044	5189
3266.806	5251
3268.57	5201
3270.334	5241
3272.095	5247
3273.856	5229
3275.619	5194
3277.379	5256
3279.14	5193
3280.9	5165
3282.661	5150
3284.419	5209
3286.178	5279
3287.937	5214
3289.695	5193
3291.453	5165
3293.21	5195
3294.967	5201
3296.723	5130
3298.48	5082
3300.235	5306
3301.99	5131
3303.744	5213
3305.498	5161
3307.253	5203
3309.006	5183
3310.759	5145
3312.511	5133
3314.263	5172
3316.017	5202
3317.768	5224
3319.519	5237
3321.268	5118
3323.018	5226
3324.767	5261
3326.518	5089
3328.267	5097
3330.014	5222
3331.762	5121
3333.509	5152
3335.258	5231
3337.003	5050
3338.75	5193
3340.496	5183
3342.24	5034
3343.987	5171
3345.732	5167
3347.475	5190
3349.219	5023
3350.961	5104
3352.705	5004
3354.448	5060
3356.19	5161
3357.931	5072
3359.672	5061
3361.412	5187
3363.155	4968
3364.894	5134
3366.633	5029
3368.372	5049
3370.11	5136
3371.849	4994
3373.588	5070
3375.325	5019
3377.061	5048
3378.799	5047
3380.534	4981
3382.271	5041
3384.006	4937
3385.741	4938
3387.475	4982
3389.209	5077
3390.944	4897
3392.677	5005
3394.409	4967
3396.143	5018
3397.874	4982
3399.606	5002
3401.338	5056
3403.069	4947
3404.799	4912
3406.528	4981
3408.258	4970
3409.988	4843
3411.717	4927
3413.445	4841
3415.173	4917
3416.899	4920
3418.626	5046
3420.354	4844
3422.08	4919
3423.806	4899
3425.531	4889
3427.255	4856
3428.981	4818
3430.705	4865
3432.429	4891
3434.151	4808
3435.875	4843
3437.599	4874
3439.321	4889
3441.042	4834
3442.763	4796
3444.483	4863
3446.204	4850
3447.926	4859
3449.645	4752
3451.364	4769
3453.082	4728
3454.801	4779
3456.52	4764
3458.238	4710
3459.954	4714
3461.671	4778
3463.387	4769
3465.104	4694
3466.82	4752
3468.534	4768
3470.25	4699
3471.963	4694
3473.676	4707
3475.392	4640
3477.104	4709
3478.817	4700
3480.528	4700
3482.241	4628
3483.954	4716
3485.664	4674
3487.374	4602
3489.084	4668
3490.795	4666
3492.504	4595
3494.214	4688
3495.922	4621
3497.63	4608
3499.338	4639
3501.045	4594
3502.753	4607
3504.459	4619
3506.166	4644
3507.871	4649
3509.576	4535
3511.283	4582
3512.987	4584
3514.691	4592
3516.395	4574
3518.098	4556
3519.8	4491
3521.504	4490
3523.206	4486
3524.908	4488
3526.609	4466
3528.309	4459
3530.011	4573
3531.711	4532
3533.411	4548
3535.109	4361
3536.808	4471
3538.507	4521
3540.206	4512
3541.904	4564
3543.601	4420
3545.297	4503
3546.994	4448
3548.69	4422
3550.387	4475
3552.081	4451
3553.776	4390
3555.47	4400
3557.166	4358
3558.859	4412
3560.553	4369
3562.245	4397
3563.938	4437
3565.629	4419
3567.322	4329
3569.014	4410
3570.704	4376
3572.394	4412
3574.084	4312
3575.775	4374
3577.464	4363
3579.152	4388
3580.842	4373
3582.529	4406
3584.216	4359
3585.905	4367
3587.591	4331
3589.279	4279
3590.964	4264
3592.649	4333
3594.336	4319
3596.021	4206
3597.705	4216
3599.388	4371
3601.072	4236
3602.757	4212
3604.439	4126
3606.122	4253
3607.803	4184
3609.485	4320
3611.167	4154
3612.849	4244
3614.529	4217
3616.208	4169
3617.888	4156
3619.567	4345
3621.247	4152
3622.926	4193
3624.603	4130
3626.281	4185
3627.958	4198
3629.635	4174
3631.312	4085
3632.989	4122
3634.665	4178
3636.339	4142
3638.014	4161
3639.691	4118
3641.364	4110
3643.038	4087
3644.71	4088
3646.384	4090
3648.058	4138
3649.729	4076
3651.402	4070
3653.073	3998
3654.744	4057
3656.414	4053
3658.085	4081
3659.755	4038
3661.424	4035
3663.094	4043
3664.762	3951
3666.431	4122
3668.099	4030
3669.766	4031
3671.433	4023
3673.099	4040
3674.768	4098
3676.433	3989
3678.098	4037
3679.763	3998
3681.428	4033
3683.093	3954
3684.757	4035
3686.421	4003
3688.083	4024
3689.746	3901
3691.408	3902
3693.071	4036
3694.733	3972
3696.394	4024
3698.054	3943
3699.715	4086
3701.375	3961
3703.036	3909
3704.695	3966
3706.354	3995
3708.012	3880
3709.67	3885
3711.329	3930
3712.987	3952
3714.644	3964
3716.299	3902
3717.955	3944
3719.613	3929
3721.268	3924
3722.923	3904
3724.577	3834
3726.231	3953
3727.885	3927
3729.539	3948
3731.192	3892
3732.845	3854
3734.497	3966
3736.149	3855
3737.802	3890
3739.453	3828
3741.104	3892
3742.753	3876
3744.404	3971
3746.052	3813
3747.704	3848
3749.352	3833
3751	3860
3752.648	3775
3754.296	3865
3755.944	3914
3757.59	3823
3759.238	3831
3760.883	3805
3762.528	3835
3764.176	3821
3765.82	3877
3767.464	3787
3769.109	3771
3770.753	3774
3772.396	3840
3774.04	3767
3775.683	3822
3777.325	3790
3778.967	3788
3780.608	3795
3782.25	3760
3783.89	3789
3785.531	3703
3787.17	3788
3788.81	3733
3790.45	3756
3792.09	3769
3793.729	3784
3795.366	3745
3797.003	3759
3798.64	3746
3800.278	3658
3801.915	3666
3803.551	3681
3805.187	3637
3806.822	3706
3808.458	3713
3810.093	3745
3811.726	3678
3813.36	3726
3814.994	3722
3816.627	3643
3818.262	3622
3819.893	3741
3821.525	3623
3823.157	3685
3824.787	3740
3826.42	3716
3828.051	3614
3829.68	3603
3831.31	3676
3832.938	3650
3834.569	3684
3836.198	3672
3837.825	3685
3839.454	3603
3841.08	3658
3842.708	3591
3844.335	3647
3845.962	3705
3847.587	3636
3849.212	3584
3850.838	3583
3852.463	3595
3854.089	3517
3855.712	3695
3857.335	3646
3858.959	3606
3860.582	3641
3862.205	3625
3863.827	3563
3865.449	3630
3867.07	3539
3868.691	3545
3870.312	3611
3871.933	3597
3873.553	3599
3875.173	3561
3876.792	3562
3878.411	3517
3880.03	3550
3881.647	3615
3883.265	3597
3884.882	3571
3886.499	3594
3888.116	3530
3889.732	3536
3891.348	3528
3892.964	3530
3894.579	3528
3896.195	3555
3897.809	3532
3899.423	3508
3901.036	3519
3902.648	3461
3904.261	3436
3905.875	3548
3907.487	3536
3909.099	3481
3910.709	3479
3912.321	3491
3913.933	3496
3915.542	3557
3917.152	3495
3918.762	3517
3920.37	3480
3921.98	3497
3923.589	3489
3925.196	3484
3926.804	3482
3928.41	3470
3930.018	3477
3931.626	3485
3933.231	3490
3934.838	3491
3936.442	3472
3938.046	3490
3939.653	3464
3941.257	3319
3942.861	3381
3944.464	3482
3946.068	3474
3947.67	3492
3949.273	3433
3950.876	3520
3952.477	3487
3954.078	3407
3955.678	3408
3957.281	3429
3958.881	3394
3960.48	3430
3962.079	3402
3963.678	3454
3965.279	3364
3966.877	3423
3968.475	3348
3970.072	3445
3971.669	3385
3973.266	3356
3974.864	3378
3976.459	3443
3978.055	3361
3979.65	3377
3981.245	3335
3982.841	3397
3984.436	3366
3986.03	3426
3987.623	3368
3989.216	3279
3990.809	3333
3992.403	3319
3993.995	3335
3995.586	3293
3997.177	3322
3998.768	3351
4000.361	3341
4001.951	3302
4003.54	3306
4005.13	3275
4006.719	3260
4008.31	3256
4009.897	3312
4011.485	3228
4013.073	3291
4014.66	3276
4016.247	3277
4017.834	3258
4019.421	3285
4021.006	3268
4022.592	3244
4024.178	3242
4025.763	3204
4027.348	3275
4028.932	3262
4030.515	3233
4032.099	3218
4033.682	3186
4035.266	3210
4036.847	3238
4038.429	3198
4040.011	3170
4041.592	3244
4043.173	3262
4044.755	3184
4046.334	3214
4047.913	3238
4049.494	3153
4051.074	3170
4052.652	3201
4054.23	3185
4055.807	3163
4057.385	3112
4058.963	3155
4060.541	3162
4062.117	3190
4063.693	3176
4065.269	3133
4066.844	3186
4068.42	3128
4069.995	3271
4071.569	3109
4073.143	3106
4074.716	3068
4076.291	3142
4077.864	3218
4079.436	3055
4081.009	3161
4082.58	3137
4084.152	3106
4085.723	3080
4087.294	3067
4088.865	3136
4090.435	3130
4092.005	3125
4093.574	3053
4095.143	3101
4096.712	3175
4098.279	3090
4099.848	3079
4101.416	3044
4102.984	3042
4104.55	3096
4106.117	3085
4107.682	3082
4109.248	3064
4110.815	3009
4112.379	3066
4113.945	3089
4115.508	3032
4117.073	3082
4118.637	3004
4120.201	3027
4121.763	3032
4123.325	3085
4124.888	3050
4126.449	3029
4128.013	3025
4129.573	3027
4131.133	2979
4132.694	3023
4134.254	3011
4135.814	2992
4137.374	2992
4138.933	2971
4140.491	3036
4142.049	2985
4143.607	2979
4145.167	2988
4146.724	3002
4148.28	3024
4149.836	2983
4151.392	2954
4152.949	2925
4154.504	2948
4156.059	2921
4157.614	2972
4159.168	2986
4160.723	2942
4162.277	2927
4163.83	2938
4165.383	2922
4166.936	2969
4168.488	2975
4170.041	2977
4171.593	2900
4173.144	2976
4174.695	2923
4176.246	2899
4177.796	2937
4179.346	2823
4180.896	2941
4182.445	2911
4183.994	2866
4185.542	2865
4187.091	2820
4188.639	2863
4190.185	2854
4191.732	2813
4193.279	2905
4194.826	2924
4196.373	2914
4197.918	2853
4199.463	2860
4201.008	2796
4202.553	2884
4204.098	2817
4205.641	2812
4207.185	2887
4208.728	2821
4210.271	2864
4211.814	2828
4213.357	2763
4214.898	2789
4216.439	2841
4217.98	2879
4219.522	2834
4221.062	2797
4222.603	2880
4224.142	2784
4225.681	2867
4227.222	2825
4228.76	2811
4230.298	2808
4231.835	2810
4233.373	2877
4234.911	2780
4236.449	2834
4237.985	2797
4239.521	2743
4241.057	2772
4242.592	2837
4244.128	2760
4245.663	2770
4247.197	2843
4248.731	2761
4250.265	2774
4251.798	2792
4253.333	2743
4254.865	2723
4256.397	2741
4257.93	2779
4259.461	2805
4260.994	2733
4262.525	2784
4264.056	2792
4265.586	2707
4267.115	2785
4268.646	2720
4270.176	2735
4271.705	2744
4273.232	2701
4274.761	2751
4276.289	2725
4277.818	2754
4279.345	2730
4280.872	2688
4282.399	2731
4283.924	2753
4285.452	2745
4286.976	2721
4288.502	2748
4290.026	2652
4291.551	2716
4293.074	2702
4294.6	2668
4296.123	2674
4297.646	2609
4299.168	2689
4300.691	2648
4302.214	2688
4303.736	2619
4305.257	2701
4306.778	2716
4308.299	2718
4309.82	2763
4311.34	2711
4312.86	2662
4314.379	2670
