400.0745	4180
402.597	4164
405.1208	4291
407.6419	4251
410.1623	4247
412.6819	4256
415.201	4356
417.7172	4303
420.2369	4439
422.7538	4455
425.2701	4345
427.7856	4478
430.3005	4412
432.8147	4397
435.3282	4599
437.841	4520
440.3511	4480
442.8625	4398
445.3753	4564
447.8854	4509
450.3927	4474
452.9014	4528
455.4073	4549
457.9146	4508
460.4233	4535
462.9272	4520
465.4325	4531
467.935	4459
470.4389	4519
472.9421	4400
475.4446	4519
477.9444	4464
480.4456	4559
482.944	4501
485.4417	4459
487.9429	4495
490.4393	4544
492.935	4621
495.4321	4492
497.9264	4534
500.4221	4679
502.9171	4638
505.4094	4670
507.9011	4583
510.392	4583
512.8864	4717
515.3759	4633
517.8649	4742
520.3531	4682
522.8406	4671
525.3275	4627
527.8178	4667
530.3033	4664
532.7881	4777
535.2723	4757
537.7558	4655
540.2407	4666
542.7228	4735
545.2043	4745
547.6851	4705
550.1652	4699
552.6467	4723
555.1255	4779
557.6016	4633
560.079	4737
562.5557	4797
565.0318	4719
567.5092	4737
569.984	4915
572.456	4772
574.9294	4881
577.4022	4912
579.8762	4970
582.3456	4957
584.8163	4853
587.2863	4954
589.7557	4892
592.2224	4909
594.6924	4833
597.1578	4872
599.6245	4866
602.0905	4873
604.5538	4872
607.0206	4943
609.4825	4942
611.9459	4826
614.4066	4847
616.8686	4911
619.33	4852
621.7906	4898
624.2487	4896
626.708	4907
629.1647	4791
631.6207	4831
634.0801	4687
636.5348	4872
638.9888	4823
641.4442	4855
643.8969	4904
646.3509	4862
648.8022	4949
651.255	4936
653.705	4851
656.1544	5085
658.6031	4830
661.0532	4846
663.5026	4958
665.9493	4974
668.3954	4939
670.8409	5020
673.2877	4913
675.7318	4921
678.1752	5078
680.618	5021
683.0601	5001
685.5035	4999
687.9444	5009
690.3845	5096
692.824	5110
695.2628	5035
697.701	5010
700.1406	4956
702.5774	5089
705.0116	5068
707.4472	5066
709.8821	5044
712.3183	5124
714.7519	5075
717.1829	5125
719.6151	5176
722.0468	5066
724.4777	5125
726.908	5238
729.3377	5203
731.7667	5243
734.1931	5137
736.6208	5120
739.0498	5189
741.4742	5241
743.9	5281
746.3231	5318
748.7476	5230
751.1713	5242
753.5945	5387
756.015	5459
758.4368	5298
760.856	5366
763.2766	5432
765.6965	5433
768.1157	5384
770.5323	5474
772.9483	5342
775.3656	5376
777.7822	5409
780.1963	5356
782.6116	5322
785.0244	5367
787.4365	5409
789.8499	5513
792.2626	5471
794.6728	5468
797.0823	5431
799.4911	5387
801.8994	5336
804.3109	5523
806.7178	5518
809.124	5420
811.5297	5489
813.9347	5485
816.341	5553
818.7447	5483
821.1478	5565
823.5502	5497
825.952	5489
828.3531	5473
830.7556	5514
833.1554	5487
835.5546	5587
837.9532	5448
840.3511	5503
842.7504	5488
845.1451	5535
847.5411	5604
849.9365	5578
852.3312	5703
854.7272	5693
857.1187	5688
859.5115	5629
861.9037	5666
864.2952	5633
866.6842	5681
869.0764	5606
871.4661	5613
873.8531	5602
876.2415	5620
878.6272	5578
881.0162	5602
883.4026	5517
885.7866	5534
888.1717	5516
890.5543	5568
892.9382	5573
895.3215	5614
897.7041	5512
900.0842	5509
902.4655	5662
904.8443	5692
907.2244	5623
909.6039	5609
911.9808	5676
914.357	5722
916.7346	5753
919.1115	5922
921.4859	5795
923.8616	5864
926.2347	5872
928.6071	5912
930.979	5956
933.3541	5880
935.7247	5841
938.0946	5901
940.4639	5911
942.8326	5954
945.2026	6136
947.5701	6166
949.9369	6233
952.305	6423
954.6705	6603
957.0355	6722
959.4017	6989
961.7654	7089
964.1284	7082
966.4908	6961
968.8527	6707
971.2138	6396
973.5743	6158
975.9343	6098
978.2936	5988
980.6522	5916
983.0122	5854
985.3696	5760
987.7245	5870
990.0807	5760
992.4362	5806
994.7911	5753
997.1474	5735
999.4991	5824
1001.852	5766
1004.205	5930
1006.555	5763
1008.908	5792
1011.258	5783
1013.606	5825
1015.956	5745
1018.302	5823
1020.652	5771
1022.998	5811
1025.345	5815
1027.691	5729
1030.035	5763
1032.378	5889
1034.724	5912
1037.066	5984
1039.409	5901
1041.75	5829
1044.092	6008
1046.433	5919
1048.771	5895
1051.112	5853
1053.449	5846
1055.786	5860
1058.124	5953
1060.462	5973
1062.797	5940
1065.131	5943
1067.467	6000
1069.8	6093
1072.135	6088
1074.467	6039
1076.798	6022
1079.129	6004
1081.459	5950
1083.792	5928
1086.121	6009
1088.449	5846
1090.777	5977
1093.104	5832
1095.431	5998
1097.759	5840
1100.084	5898
1102.408	5917
1104.732	6009
1107.056	6008
1109.379	5970
1111.701	5950
1114.022	5942
1116.343	5934
1118.664	5788
1120.983	5941
1123.303	5916
1125.621	6045
1127.939	5953
1130.256	5900
1132.573	5895
1134.889	5829
1137.205	5982
1139.52	5874
1141.832	5904
1144.146	5889
1146.461	5900
1148.771	5983
1151.083	5898
1153.392	5866
1155.703	5913
1158.011	5835
1160.323	5827
1162.629	5939
1164.938	6015
1167.243	5858
1169.55	5930
1171.857	5833
1174.163	5982
1176.466	5879
1178.769	5948
1181.073	5968
1183.374	5850
1185.677	5917
1187.979	5991
1190.279	5867
1192.578	5901
1194.878	5837
1197.178	5979
1199.476	5933
1201.772	5934
1204.068	6030
1206.366	5801
1208.663	5858
1210.957	5912
1213.251	5944
1215.544	5963
1217.836	6023
1220.128	6083
1222.421	6011
1224.712	5972
1227.002	6087
1229.292	5887
1231.581	6024
1233.871	6128
1236.159	6065
1238.446	6050
1240.732	6186
1243.018	6146
1245.304	6127
1247.59	6191
1249.874	6105
1252.156	6158
1254.439	6159
1256.721	6133
1259.005	6202
1261.286	6150
1263.565	6148
1265.845	6055
1268.125	6088
1270.403	6191
1272.682	6146
1274.959	6202
1277.234	6302
1279.511	6077
1281.787	6044
1284.062	6025
1286.337	6061
1288.609	6176
1290.882	6103
1293.153	6068
1295.428	6157
1297.698	6076
1299.969	6027
1302.237	6130
1304.507	6049
1306.777	6106
1309.044	6021
1311.312	5960
1313.578	6067
1315.844	6047
1318.109	6058
1320.375	5994
1322.638	6041
1324.903	6010
1327.165	5919
1329.427	6085
1331.69	6023
1333.952	6135
1336.212	6078
1338.471	6041
1340.73	6129
1342.988	6020
1345.248	6084
1347.505	6097
1349.763	6138
1352.019	6127
1354.274	6075
1356.53	6074
1358.784	6133
1361.038	6146
1363.291	6048
1365.543	5987
1367.797	6149
1370.048	6113
1372.296	6051
1374.546	6089
1376.796	6100
1379.045	6114
1381.295	5917
1383.542	6088
1385.787	6143
1388.034	6087
1390.28	6137
1392.527	6144
1394.772	6201
1397.014	6131
1399.258	6161
1401.501	6068
1403.741	6244
1405.985	6144
1408.226	6180
1410.465	6143
1412.705	6373
1414.943	6208
1417.184	6188
1419.42	6168
1421.658	6306
1423.894	6239
1426.13	6238
1428.366	6293
1430.602	6295
1432.835	6333
1435.069	6289
1437.301	6299
1439.535	6217
1441.767	6364
1443.997	6185
1446.229	6325
1448.458	6462
1450.687	6344
1452.916	6387
1455.146	6348
1457.372	6521
1459.599	6456
1461.824	6310
1464.051	6290
1466.277	6428
1468.501	6394
1470.725	6339
1472.948	6182
1475.17	6283
1477.393	6206
1479.614	6111
1481.837	6193
1484.057	6171
1486.276	6111
1488.497	6046
1490.715	6098
1492.932	6062
1495.148	6098
1497.364	6002
1499.58	6047
1501.798	5970
1504.012	6059
1506.227	5986
1508.44	6004
1510.653	5955
1512.866	5980
1515.078	5942
1517.289	6027
1519.5	6125
1521.711	5970
1523.92	6002
1526.13	6007
1528.338	5988
1530.544	5937
1532.752	6122
1534.959	5933
1537.165	5995
1539.371	6028
1541.574	6083
1543.779	6060
1545.983	6086
1548.187	6017
1550.39	6059
1552.59	6100
1554.792	6119
1556.991	6002
1559.19	6064
1561.392	6103
1563.59	6016
1565.789	6299
1567.986	6156
1570.182	6195
1572.381	6145
1574.576	6191
1576.771	6255
1578.966	6107
1581.16	6075
1583.354	6201
1585.546	6210
1587.74	6166
1589.931	6237
1592.121	6169
1594.311	6233
1596.502	6293
1598.693	6177
1600.881	6180
1603.069	6242
1605.256	6183
1607.445	6158
1609.631	6200
1611.816	6222
1614.001	6289
1616.186	6142
1618.37	6192
1620.555	6090
1622.737	6278
1624.919	6287
1627.101	6285
1629.282	6272
1631.463	6216
1633.643	6283
1635.822	6285
1638.001	6252
1640.179	6281
1642.359	6353
1644.534	6254
1646.711	6359
1648.887	6188
1651.062	6345
1653.235	6282
1655.412	6426
1657.586	6330
1659.757	6478
1661.93	6441
1664.1	6423
1666.274	6311
1668.445	6304
1670.614	6349
1672.784	6365
1674.951	6319
1677.12	6356
1679.289	6331
1681.457	6338
1683.622	6350
1685.789	6341
1687.953	6336
1690.121	6258
1692.284	6383
1694.447	6357
1696.611	6072
1698.772	6388
1700.935	6277
1703.098	6158
1705.258	6247
1707.417	6220
1709.576	6257
1711.736	6141
1713.896	6135
1716.053	6148
1718.21	6149
1720.366	6152
1722.522	6196
1724.68	6155
1726.835	6091
1728.989	6175
1731.142	6243
1733.295	6035
1735.449	6228
1737.601	6114
1739.753	6124
1741.903	6245
1744.054	6200
1746.203	6218
1748.354	6130
1750.503	6183
1752.651	6223
1754.798	6163
1756.944	6087
1759.092	6150
1761.238	6126
1763.383	6204
1765.528	6201
1767.672	6240
1769.814	6198
1771.959	6198
1774.102	6258
1776.242	6047
1778.384	6237
1780.525	6263
1782.665	6168
1784.805	6108
1786.945	6193
1789.082	6139
1791.22	6221
1793.36	6237
1795.495	6144
1797.632	6226
1799.766	6171
1801.902	6259
1804.035	6256
1806.172	6127
1808.304	6210
1810.436	6260
1812.569	6235
1814.699	6287
1816.833	6188
1818.963	6218
1821.092	6239
1823.222	6279
1825.35	6282
1827.478	6165
1829.608	6268
1831.734	6160
1833.86	6129
1835.986	6235
1838.11	6095
1840.238	6192
1842.362	6177
1844.485	6147
1846.608	6139
1848.73	6280
1850.853	6153
1852.974	6167
1855.097	6125
1857.217	6220
1859.336	6127
1861.455	6188
1863.576	6132
1865.693	6164
1867.811	6130
1869.926	6209
1872.042	6074
1874.16	6232
1876.275	6168
1878.39	6192
1880.504	6089
1882.618	6034
1884.731	6176
1886.843	6268
1888.956	6116
1891.067	6088
1893.178	6303
1895.287	6020
1897.399	6220
1899.508	6085
1901.617	6171
1903.724	6130
1905.832	6238
1907.941	6125
1910.046	6208
1912.152	6201
1914.256	6289
1916.361	6196
1918.464	6185
1920.57	6160
1922.672	6242
1924.775	6250
1926.876	6401
1928.978	6312
1931.08	6173
1933.181	6297
1935.28	6260
1937.38	6234
1939.478	6207
1941.577	6134
1943.675	6207
1945.771	6273
1947.867	6194
1949.964	6260
1952.058	6304
1954.154	6177
1956.248	6226
1958.343	6227
1960.435	6224
1962.527	6087
1964.62	6267
1966.711	6190
1968.802	6151
1970.892	6203
1972.983	6267
1975.072	6237
1977.162	6204
1979.25	6169
1981.337	6306
1983.424	6159
1985.51	6157
1987.598	6144
1989.683	6140
1991.768	6220
1993.852	6115
1995.934	6141
1998.019	6098
2000.102	6210
2002.184	6132
2004.266	6116
2006.347	6261
2008.427	6149
2010.508	6164
2012.587	6236
2014.666	6184
2016.745	6209
2018.821	6186
2020.9	6057
2022.977	6087
2025.052	6095
2027.128	6105
2029.204	6101
2031.277	6172
2033.353	6166
2035.425	6270
2037.499	6100
2039.57	6194
2041.642	6123
2043.714	6214
2045.786	6130
2047.855	6148
2049.925	6093
2051.993	6059
2054.064	6031
2056.132	6218
2058.2	6141
2060.266	6177
2062.332	6091
2064.398	6054
2066.465	6175
2068.529	6243
2070.592	6140
2072.657	6309
2074.719	6055
2076.783	6127
2078.845	6058
2080.907	6108
2082.968	6059
2085.028	6132
2087.087	6058
2089.148	6144
2091.207	6147
2093.264	6158
2095.322	6218
2097.379	6063
2099.439	6056
2101.495	6118
2103.55	6098
2105.605	6124
2107.658	6193
2109.713	6152
2111.767	6086
2113.82	6171
2115.872	6013
2117.924	6028
2119.975	6176
2122.028	6211
2124.078	6127
2126.126	6083
2128.176	6096
2130.225	6138
2132.275	6115
2134.321	6161
2136.368	6066
2138.415	6180
2140.461	6156
2142.505	6006
2144.552	6098
2146.597	6129
2148.64	6056
2150.684	6098
2152.725	6076
2154.77	6098
2156.811	5988
2158.852	6053
2160.894	6043
2162.933	6032
2164.973	5967
2167.013	5972
2169.051	6006
2171.089	6044
2173.126	6001
2175.164	6034
2177.201	5957
2179.236	5987
2181.273	5989
2183.307	5962
2185.341	5942
2187.377	5904
2189.41	6011
2191.442	5895
2193.473	5970
2195.506	6001
2197.539	5878
2199.569	5976
2201.598	5960
2203.628	6023
2205.656	6054
2207.686	5929
2209.716	6001
2211.743	5912
2213.769	5923
2215.796	5913
2217.821	5908
2219.848	6036
2221.873	5913
2223.897	5819
2225.921	6005
2227.944	5950
2229.967	5849
2231.991	5864
2234.011	5931
2236.032	5951
2238.053	5922
2240.073	6002
2242.094	5971
2244.114	6059
2246.131	6013
2248.149	5842
2250.167	5913
2252.186	5890
2254.201	5935
2256.218	5914
2258.233	5984
2260.247	5828
2262.262	5866
2264.278	5825
2266.29	5882
2268.303	5892
2270.315	6027
2272.327	5953
2274.341	5888
2276.35	5886
2278.361	5891
2280.37	5961
2282.38	5907
2284.388	5910
2286.397	5974
2288.405	5896
2290.412	5896
2292.419	6061
2294.425	5920
2296.431	5897
2298.437	5901
2300.441	5943
2302.445	6024
2304.449	5857
2306.453	5960
2308.455	5908
2310.457	5902
2312.459	5859
2314.46	5845
2316.46	5858
2318.461	5862
2320.46	6022
2322.458	5887
2324.458	5839
2326.456	5756
2328.455	5845
2330.451	5758
2332.447	5761
2334.443	5916
2336.438	5811
2338.433	5817
2340.429	5669
2342.422	5872
2344.416	5737
2346.408	5856
2348.399	5778
2350.393	5761
2352.384	5877
2354.375	5738
2356.365	5730
2358.355	5722
2360.344	5815
2362.333	5841
2364.322	5773
2366.309	5762
2368.295	5855
2370.282	5804
2372.27	5763
2374.256	5736
2376.24	5721
2378.225	5694
2380.208	5833
2382.194	5709
2384.177	5750
2386.159	5669
2388.142	5727
2390.122	5795
2392.105	5695
2394.085	5757
2396.066	5639
2398.044	5652
2400.024	5728
2402.002	5708
2403.982	5680
2405.959	5752
2407.935	5713
2409.913	5717
2411.888	5671
2413.865	5667
2415.84	5709
2417.814	5671
2419.788	5621
2421.762	5715
2423.735	5756
2425.708	5646
2427.68	5623
2429.651	5777
2431.623	5674
2433.593	5702
2435.564	5733
2437.533	5703
2439.502	5715
2441.47	5595
2443.438	5747
2445.406	5709
2447.373	5666
2449.34	5712
2451.305	5667
2453.271	5709
2455.235	5637
2457.201	5653
2459.165	5568
2461.129	5689
2463.092	5581
2465.054	5703
2467.018	5533
2468.978	5719
2470.939	5608
2472.899	5574
2474.86	5560
2476.819	5608
2478.778	5598
2480.737	5671
2482.695	5562
2484.653	5584
2486.609	5597
2488.567	5618
2490.524	5634
2492.478	5558
2494.433	5526
2496.387	5531
2498.343	5593
2500.297	5586
2502.249	5559
2504.202	5567
2506.153	5531
2508.105	5571
2510.057	5519
2512.008	5590
2513.957	5571
2515.906	5434
2517.855	5506
2519.805	5585
2521.754	5590
2523.7	5583
2525.647	5443
2527.594	5521
2529.54	5590
2531.486	5553
2533.431	5622
2535.376	5483
2537.32	5578
2539.263	5476
2541.207	5574
2543.151	5475
2545.093	5550
2547.034	5462
2548.975	5470
2550.917	5582
2552.856	5543
2554.796	5516
2556.735	5497
2558.673	5526
2560.611	5342
2562.55	5489
2564.487	5486
2566.424	5505
2568.36	5441
2570.296	5571
2572.232	5454
2574.167	5444
2576.101	5471
2578.035	5543
2579.969	5477
2581.902	5487
2583.834	5509
2585.766	5553
2587.698	5508
2589.628	5549
2591.557	5450
2593.489	5437
2595.419	5398
2597.348	5504
2599.275	5444
2601.204	5541
2603.131	5558
2605.059	5457
2606.986	5499
2608.911	5504
2610.837	5534
2612.76	5432
2614.687	5507
2616.61	5436
2618.534	5551
2620.457	5509
2622.38	5595
2624.302	5596
2626.225	5446
2628.145	5548
2630.067	5574
2631.986	5506
2633.906	5582
2635.827	5518
2637.745	5472
2639.662	5554
2641.581	5498
2643.498	5534
2645.415	5497
2647.331	5506
2649.248	5437
2651.163	5521
2653.077	5603
2654.993	5498
2656.906	5531
2658.821	5555
2660.733	5474
2662.646	5537
2664.557	5614
2666.47	5481
2668.381	5510
2670.291	5459
2672.201	5512
2674.11	5464
2676.021	5472
2677.929	5515
2679.837	5422
2681.745	5550
2683.652	5434
2685.56	5377
2687.466	5453
2689.371	5403
2691.276	5450
2693.181	5434
2695.085	5374
2696.991	5464
2698.893	5450
2700.796	5339
2702.698	5332
2704.601	5429
2706.502	5412
2708.404	5382
2710.304	5393
2712.203	5422
2714.103	5339
2716.003	5435
2717.902	5475
2719.8	5387
2721.697	5330
2723.594	5379
2725.49	5408
2727.389	5370
2729.283	5302
2731.179	5238
2733.073	5270
2734.968	5401
2736.863	5360
2738.757	5412
2740.649	5390
2742.541	5351
2744.433	5363
2746.324	5370
2748.216	5342
2750.107	5400
2751.997	5327
2753.886	5329
2755.776	5286
2757.666	5351
2759.553	5367
2761.44	5345
2763.327	5287
2765.215	5339
2767.102	5335
2768.988	5461
2770.873	5229
2772.757	5348
2774.641	5318
2776.525	5405
2778.41	5319
2780.292	5346
2782.175	5278
2784.057	5370
2785.938	5233
2787.821	5380
2789.701	5268
2791.581	5307
2793.461	5283
2795.34	5354
2797.219	5282
2799.099	5269
2800.975	5335
2802.853	5294
2804.73	5289
2806.606	5358
2808.484	5341
2810.358	5210
2812.233	5209
2814.108	5319
2815.981	5283
2817.857	5252
2819.73	5265
2821.602	5319
2823.474	5204
2825.346	5209
2827.217	5286
2829.089	5313
2830.959	5296
2832.829	5343
2834.698	5263
2836.567	5280
2838.436	5248
2840.305	5247
2842.172	5395
2844.04	5362
2845.905	5269
2847.772	5259
2849.639	5325
2851.503	5401
2853.369	5315
2855.232	5402
2857.096	5328
2858.961	5472
2860.824	5335
2862.686	5396
2864.547	5518
2866.41	5423
2868.272	5453
2870.132	5492
2871.992	5531
2873.851	5445
2875.711	5594
2877.57	5621
2879.429	5631
2881.287	5756
2883.144	5676
2885.001	5786
2886.857	5695
2888.714	5792
2890.57	5761
2892.425	5641
2894.279	5860
2896.133	5743
2897.987	5806
2899.842	5802
2901.694	5723
2903.547	5761
2905.397	5747
2907.249	5697
2909.101	5659
2910.952	5755
2912.802	5826
2914.652	5834
2916.5	5848
2918.35	5769
2920.198	5985
2922.045	5910
2923.893	5912
2925.74	6072
2927.585	6112
2929.433	6090
2931.279	6252
2933.123	6210
2934.968	6284
2936.811	6257
2938.656	6354
2940.5	6348
2942.342	6461
2944.185	6494
2946.026	6465
2947.87	6505
2949.71	6544
2951.549	6415
2953.39	6371
2955.229	6314
2957.069	6318
2958.908	6244
2960.746	6148
2962.584	6127
2964.421	6115
2966.257	6097
2968.094	5940
2969.931	5996
2971.766	5912
2973.601	5965
2975.435	5824
2977.27	5915
2979.105	5817
2980.938	5798
2982.77	5747
2984.602	5737
2986.434	5744
2988.267	5664
2990.097	5636
2991.927	5563
2993.757	5611
2995.587	5530
2997.417	5421
2999.246	5502
3001.074	5351
3002.902	5443
3004.729	5445
3006.556	5474
3008.384	5316
3010.21	5260
3012.036	5241
3013.861	5185
3015.684	5180
3017.51	5152
3019.334	5003
3021.157	5053
3022.981	5110
3024.802	4941
3026.624	5053
3028.448	5038
3030.267	4971
3032.088	4935
3033.909	5035
3035.728	4986
3037.549	4911
3039.368	4979
3041.186	4961
3043.004	4943
3044.821	4906
3046.64	4892
3048.455	5005
3050.272	4857
3052.087	4901
3053.903	4940
3055.717	4986
3057.534	5008
3059.347	4929
3061.16	4966
3062.974	5001
3064.785	4947
3066.598	4818
3068.411	4899
3070.222	4845
3072.032	4842
3073.844	4894
3075.653	4827
3077.463	4814
3079.272	4784
3081.08	4852
3082.889	4757
3084.697	4737
3086.505	4883
3088.312	4826
3090.118	4772
3091.924	4746
3093.729	4827
3095.535	4715
3097.34	4729
3099.144	4770
3100.947	4705
3102.75	4722
3104.553	4666
3106.357	4628
3108.159	4755
3109.961	4817
3111.762	4684
3113.562	4665
3115.365	4635
3117.164	4702
3118.964	4706
3120.761	4744
3122.56	4693
3124.36	4704
3126.158	4688
3127.954	4734
3129.75	4718
3131.547	4643
3133.343	4659
3135.139	4705
3136.934	4616
3138.729	4730
3140.522	4674
3142.317	4755
3144.11	4706
3145.904	4597
3147.695	4646
3149.488	4655
3151.28	4567
3153.07	4603
3154.863	4680
3156.652	4693
3158.441	4632
3160.231	4565
3162.019	4563
3163.81	4586
3165.597	4546
3167.384	4621
3169.172	4600
3170.958	4586
3172.745	4655
3174.532	4616
3176.317	4616
3178.101	4659
3179.885	4520
3181.67	4565
3183.455	4568
3185.238	4519
3187.02	4644
3188.802	4589
3190.585	4496
3192.368	4505
3194.149	4438
3195.929	4587
3197.709	4587
3199.489	4616
3201.268	4487
3203.048	4575
3204.826	4617
3206.604	4537
3208.382	4612
3210.159	4544
3211.937	4599
3213.713	4540
3215.489	4481
3217.263	4489
3219.038	4621
3220.815	4495
3222.589	4557
3224.363	4575
3226.136	4495
3227.908	4518
3229.681	4584
3231.454	4448
3233.226	4452
3234.996	4540
3236.767	4548
3238.538	4527
3240.308	4490
3242.078	4469
3243.847	4539
3245.615	4532
3247.384	4496
3249.15	4547
3250.92	4435
3252.686	4474
3254.453	4434
3256.218	4513
3257.984	4504
3259.75	4454
3261.515	4472
3263.279	4570
3265.044	4452
3266.806	4471
3268.57	4541
3270.334	4575
3272.095	4562
3273.856	4512
3275.619	4501
3277.379	4536
3279.14	4570
3280.9	4455
3282.661	4557
3284.419	4514
3286.178	4551
3287.937	4555
3289.695	4431
3291.453	4583
3293.21	4500
3294.967	4473
3296.723	4496
3298.48	4444
3300.235	4469
3301.99	4588
3303.744	4502
3305.498	4472
3307.253	4578
3309.006	4488
3310.759	4537
3312.511	4490
3314.263	4562
3316.017	4520
3317.768	4525
3319.519	4513
3321.268	4517
3323.018	4465
3324.767	4475
3326.518	4465
3328.267	4514
3330.014	4442
3331.762	4513
3333.509	4526
3335.258	4527
3337.003	4467
3338.75	4427
3340.496	4458
3342.24	4383
3343.987	4561
3345.732	4419
3347.475	4473
3349.219	4453
3350.961	4495
3352.705	4455
3354.448	4462
3356.19	4354
3357.931	4460
3359.672	4472
3361.412	4541
3363.155	4363
3364.894	4411
3366.633	4339
3368.372	4341
3370.11	4377
3371.849	4324
3373.588	4355
3375.325	4414
3377.061	4441
3378.799	4420
3380.534	4384
3382.271	4326
3384.006	4305
3385.741	4321
3387.475	4428
3389.209	4325
3390.944	4382
3392.677	4258
3394.409	4314
3396.143	4319
3397.874	4322
3399.606	4314
3401.338	4327
3403.069	4276
3404.799	4364
3406.528	4313
3408.258	4249
3409.988	4323
3411.717	4298
3413.445	4214
3415.173	4305
3416.899	4244
3418.626	4329
3420.354	4210
3422.08	4338
3423.806	4160
3425.531	4300
3427.255	4307
3428.981	4235
3430.705	4258
3432.429	4283
3434.151	4220
3435.875	4237
3437.599	4206
3439.321	4277
3441.042	4184
3442.763	4239
3444.483	4144
3446.204	4241
3447.926	4193
3449.645	4204
3451.364	4155
3453.082	4153
3454.801	4242
3456.52	4149
3458.238	4196
3459.954	4185
3461.671	4139
3463.387	4167
3465.104	4081
3466.82	4128
3468.534	4087
3470.25	4053
3471.963	4071
3473.676	4154
3475.392	4111
3477.104	4076
3478.817	4029
3480.528	4003
3482.241	4055
3483.954	4158
3485.664	3976
3487.374	4084
3489.084	4084
3490.795	4017
3492.504	4038
3494.214	3965
3495.922	4084
3497.63	4069
3499.338	3879
3501.045	3982
3502.753	4090
3504.459	4070
3506.166	3955
3507.871	4095
3509.576	3955
3511.283	3957
3512.987	4002
3514.691	4004
3516.395	3934
3518.098	4070
3519.8	3942
3521.504	3898
3523.206	3968
3524.908	3986
3526.609	3985
3528.309	3915
3530.011	3968
3531.711	3879
3533.411	3944
3535.109	3956
3536.808	3931
3538.507	3854
3540.206	3923
3541.904	3870
3543.601	3873
3545.297	3940
3546.994	3875
3548.69	3877
3550.387	3890
3552.081	3885
3553.776	3889
3555.47	3887
3557.166	3938
3558.859	3887
3560.553	3828
3562.245	3860
3563.938	3860
3565.629	3813
3567.322	3835
3569.014	3815
3570.704	3864
3572.394	3784
3574.084	3866
3575.775	3908
3577.464	3781
3579.152	3806
3580.842	3825
3582.529	3732
3584.216	3813
3585.905	3733
3587.591	3812
3589.279	3793
3590.964	3808
3592.649	3771
3594.336	3771
3596.021	3710
3597.705	3691
3599.388	3712
3601.072	3728
3602.757	3777
3604.439	3757
3606.122	3637
3607.803	3741
3609.485	3658
3611.167	3663
3612.849	3639
3614.529	3743
3616.208	3704
3617.888	3661
3619.567	3610
3621.247	3567
3622.926	3647
3624.603	3665
3626.281	3660
3627.958	3649
3629.635	3682
3631.312	3663
3632.989	3659
3634.665	3555
3636.339	3627
3638.014	3598
3639.691	3671
3641.364	3600
3643.038	3604
3644.71	3550
3646.384	3593
3648.058	3579
3649.729	3558
3651.402	3579
3653.073	3512
3654.744	3553
3656.414	3493
3658.085	3617
3659.755	3570
3661.424	3581
3663.094	3545
3664.762	3554
3666.431	3518
3668.099	3529
3669.766	3522
3671.433	3568
3673.099	3506
3674.768	3569
3676.433	3506
3678.098	3436
3679.763	3534
3681.428	3516
3683.093	3529
3684.757	3511
3686.421	3505
3688.083	3493
3689.746	3450
3691.408	3568
3693.071	3446
3694.733	3480
3696.394	3380
3698.054	3502
3699.715	3461
3701.375	3439
3703.036	3497
3704.695	3459
3706.354	3470
3708.012	3341
3709.67	3400
3711.329	3444
3712.987	3485
3714.644	3442
3716.299	3367
3717.955	3337
3719.613	3358
3721.268	3347
3722.923	3415
3724.577	3547
3726.231	3458
3727.885	3434
3729.539	3475
3731.192	3431
3732.845	3421
3734.497	3384
3736.149	3423
3737.802	3346
3739.453	3382
3741.104	3395
3742.753	3238
3744.404	3370
3746.052	3388
3747.704	3345
3749.352	3398
3751	3412
3752.648	3345
3754.296	3348
3755.944	3411
3757.59	3307
3759.238	3330
3760.883	3368
3762.528	3417
3764.176	3273
3765.82	3260
3767.464	3320
3769.109	3331
3770.753	3312
3772.396	3292
3774.04	3342
3775.683	3299
3777.325	3341
3778.967	3275
3780.608	3324
3782.25	3309
3783.89	3290
3785.531	3334
3787.17	3332
3788.81	3324
3790.45	3304
3792.09	3268
3793.729	3313
3795.366	3267
3797.003	3216
3798.64	3379
3800.278	3261
3801.915	3303
3803.551	3251
3805.187	3187
3806.822	3318
3808.458	3239
3810.093	3364
3811.726	3222
3813.36	3277
3814.994	3188
3816.627	3220
3818.262	3283
3819.893	3215
3821.525	3278
3823.157	3249
3824.787	3166
3826.42	3232
3828.051	3250
3829.68	3175
3831.31	3201
3832.938	3170
3834.569	3200
3836.198	3195
3837.825	3223
3839.454	3121
3841.08	3128
3842.708	3181
3844.335	3135
3845.962	3182
3847.587	3189
3849.212	3159
3850.838	3234
3852.463	3169
3854.089	3178
3855.712	3129
3857.335	3154
3858.959	3192
3860.582	3147
3862.205	3072
3863.827	3146
3865.449	3126
3867.07	3130
3868.691	3079
3870.312	3106
3871.933	3133
3873.553	3119
3875.173	3067
3876.792	3134
3878.411	3090
3880.03	3134
3881.647	3135
3883.265	3033
3884.882	3102
3886.499	3107
3888.116	3104
3889.732	3069
3891.348	3161
3892.964	3080
3894.579	3070
3896.195	3048
3897.809	3116
3899.423	3081
3901.036	3090
3902.648	3030
3904.261	3081
3905.875	3076
3907.487	3064
3909.099	3104
3910.709	3096
3912.321	3061
3913.933	3113
3915.542	3070
3917.152	3102
3918.762	2990
3920.37	3100
3921.98	3049
3923.589	3060
3925.196	3162
3926.804	3022
3928.41	3038
3930.018	3032
3931.626	3071
3933.231	3028
3934.838	3066
3936.442	3118
3938.046	3005
3939.653	3014
3941.257	3024
3942.861	3059
3944.464	3022
3946.068	3046
3947.67	2977
3949.273	3034
3950.876	3036
3952.477	3040
3954.078	3021
3955.678	3014
3957.281	2957
3958.881	2963
3960.48	3068
3962.079	3084
3963.678	2972
3965.279	3114
3966.877	2980
3968.475	2967
3970.072	2991
3971.669	2954
3973.266	2968
3974.864	2987
3976.459	3048
3978.055	2972
3979.65	2893
3981.245	2988
3982.841	2955
3984.436	2987
3986.03	2989
3987.623	2896
3989.216	2961
3990.809	2920
3992.403	2901
3993.995	2953
3995.586	2973
3997.177	2898
3998.768	2895
4000.361	2907
4001.951	2893
4003.54	2927
4005.13	2952
4006.719	2915
4008.31	2957
4009.897	2891
4011.485	2839
4013.073	2837
4014.66	2827
4016.247	2888
4017.834	2906
4019.421	2895
4021.006	2929
4022.592	2860
4024.178	2848
4025.763	2820
4027.348	2877
4028.932	2866
4030.515	2793
4032.099	2783
4033.682	2818
4035.266	2784
4036.847	2891
4038.429	2739
4040.011	2797
4041.592	2753
4043.173	2829
4044.755	2767
4046.334	2762
4047.913	2790
4049.494	2790
4051.074	2786
4052.652	2814
4054.23	2817
4055.807	2788
4057.385	2792
4058.963	2803
4060.541	2757
4062.117	2769
4063.693	2715
4065.269	2755
4066.844	2765
4068.42	2717
4069.995	2774
4071.569	2746
4073.143	2785
4074.716	2778
4076.291	2714
4077.864	2713
4079.436	2785
4081.009	2740
4082.58	2740
4084.152	2749
4085.723	2742
4087.294	2744
4088.865	2717
4090.435	2770
4092.005	2810
4093.574	2751
4095.143	2742
4096.712	2717
4098.279	2813
4099.848	2765
4101.416	2693
4102.984	2700
4104.55	2713
4106.117	2723
4107.682	2705
4109.248	2729
4110.815	2735
4112.379	2680
4113.945	2673
4115.508	2633
4117.073	2644
4118.637	2661
4120.201	2692
4121.763	2717
4123.325	2737
4124.888	2661
4126.449	2723
4128.013	2688
4129.573	2636
4131.133	2668
4132.694	2670
4134.254	2663
4135.814	2689
4137.374	2659
4138.933	2639
4140.491	2671
4142.049	2579
4143.607	2623
4145.167	2705
4146.724	2631
4148.28	2612
4149.836	2581
4151.392	2623
4152.949	2624
4154.504	2594
4156.059	2651
4157.614	2677
4159.168	2516
4160.723	2624
4162.277	2619
4163.83	2634
4165.383	2615
4166.936	2569
4168.488	2606
4170.041	2569
4171.593	2571
4173.144	2546
4174.695	2600
4176.246	2558
4177.796	2587
4179.346	2578
4180.896	2569
4182.445	2486
4183.994	2551
4185.542	2541
4187.091	2559
4188.639	2456
4190.185	2487
4191.732	2513
4193.279	2551
4194.826	2554
4196.373	2513
4197.918	2531
4199.463	2496
4201.008	2506
4202.553	2562
4204.098	2532
4205.641	2527
4207.185	2535
4208.728	2567
4210.271	2466
4211.814	2493
4213.357	2462
4214.898	2501
4216.439	2495
4217.98	2487
4219.522	2512
4221.062	2512
4222.603	2514
4224.142	2513
4225.681	2472
4227.222	2480
4228.76	2473
4230.298	2527
4231.835	2377
4233.373	2529
4234.911	2529
4236.449	2451
4237.985	2459
4239.521	2470
4241.057	2454
4242.592	2403
4244.128	2473
4245.663	2396
4247.197	2441
4248.731	2474
4250.265	2448
4251.798	2473
4253.333	2438
4254.865	2484
4256.397	2439
4257.93	2422
4259.461	2489
4260.994	2450
4262.525	2452
4264.056	2458
4265.586	2450
4267.115	2463
4268.646	2327
4270.176	2452
4271.705	2423
4273.232	2415
4274.761	2449
4276.289	2435
4277.818	2432
4279.345	2456
4280.872	2404
4282.399	2468
4283.924	2384
4285.452	2420
4286.976	2422
4288.502	2464
4290.026	2370
4291.551	2429
4293.074	2348
4294.6	2391
4296.123	2379
4297.646	2362
4299.168	2364
4300.691	2402
4302.214	2303
4303.736	2373
4305.257	2425
4306.778	2378
4308.299	2402
4309.82	2350
4311.34	2399
4312.86	2367
4314.379	2356
