400.0745	6027
402.597	6109
405.1208	6147
407.6419	6178
410.1623	6068
412.6819	6206
415.201	6124
417.7172	6216
420.2369	6291
422.7538	6296
425.2701	6298
427.7856	6444
430.3005	6426
432.8147	6602
435.3282	6498
437.841	6582
440.3511	6424
442.8625	6533
445.3753	6658
447.8854	6486
450.3927	6475
452.9014	6401
455.4073	6595
457.9146	6525
460.4233	6533
462.9272	6602
465.4325	6545
467.935	6512
470.4389	6515
472.9421	6478
475.4446	6473
477.9444	6532
480.4456	6555
482.944	6637
485.4417	6628
487.9429	6651
490.4393	6614
492.935	6671
495.4321	6631
497.9264	6783
500.4221	6684
502.9171	6688
505.4094	6657
507.9011	6777
510.392	6750
512.8864	6680
515.3759	6747
517.8649	6678
520.3531	6791
522.8406	6892
525.3275	6934
527.8178	6766
530.3033	6747
532.7881	6761
535.2723	6803
537.7558	6924
540.2407	6791
542.7228	6916
545.2043	6961
547.6851	6823
550.1652	6820
552.6467	6867
555.1255	6865
557.6016	6879
560.079	6944
562.5557	6982
565.0318	6924
567.5092	6825
569.984	6980
572.456	6969
574.9294	6992
577.4022	6997
579.8762	7205
582.3456	7204
584.8163	7020
587.2863	7003
589.7557	7156
592.2224	7101
594.6924	7054
597.1578	7080
599.6245	7163
602.0905	7161
604.5538	7107
607.0206	7147
609.4825	7125
611.9459	7245
614.4066	7036
616.8686	7046
619.33	7044
621.7906	7075
624.2487	6962
626.708	7031
629.1647	6913
631.6207	7013
634.0801	7008
636.5348	7105
638.9888	7087
641.4442	7105
643.8969	7134
646.3509	7193
648.8022	7033
651.255	7062
653.705	7176
656.1544	7107
658.6031	7216
661.0532	7154
663.5026	7241
665.9493	7230
668.3954	7169
670.8409	7286
673.2877	7226
675.7318	7320
678.1752	7293
680.618	7248
683.0601	7312
685.5035	7438
687.9444	7300
690.3845	7324
692.824	7395
695.2628	7320
697.701	7441
700.1406	7383
702.5774	7355
705.0116	7280
707.4472	7391
709.8821	7460
712.3183	7462
714.7519	7374
717.1829	7451
719.6151	7437
722.0468	7527
724.4777	7470
726.908	7644
729.3377	7518
731.7667	7476
734.1931	7630
736.6208	7609
739.0498	7707
741.4742	7512
743.9	7711
746.3231	7637
748.7476	7706
751.1713	7806
753.5945	7711
756.015	7738
758.4368	7911
760.856	7802
763.2766	7892
765.6965	7884
768.1157	7773
770.5323	7804
772.9483	7894
775.3656	7904
777.7822	7940
780.1963	7759
782.6116	7953
785.0244	7959
787.4365	7843
789.8499	7843
792.2626	8007
794.6728	7944
797.0823	7965
799.4911	7841
801.8994	7911
804.3109	7955
806.7178	7985
809.124	8000
811.5297	8014
813.9347	8013
816.341	8003
818.7447	7922
821.1478	7890
823.5502	7960
825.952	8062
828.3531	8024
830.7556	7932
833.1554	8064
835.5546	7934
837.9532	8078
840.3511	8097
842.7504	8053
845.1451	8069
847.5411	8091
849.9365	8055
852.3312	8243
854.7272	8217
857.1187	8079
859.5115	7980
861.9037	8155
864.2952	8096
866.6842	8080
869.0764	8162
871.4661	8041
873.8531	8222
876.2415	8114
878.6272	8109
881.0162	8155
883.4026	7996
885.7866	8109
888.1717	8120
890.5543	8058
892.9382	8099
895.3215	8126
897.7041	8048
900.0842	8196
902.4655	8108
904.8443	8215
907.2244	8185
909.6039	8281
911.9808	8313
914.357	8240
916.7346	8420
919.1115	8403
921.4859	8488
923.8616	8476
926.2347	8630
928.6071	8463
930.979	8420
933.3541	8519
935.7247	8682
938.0946	8637
940.4639	8815
942.8326	8741
945.2026	8885
947.5701	8957
949.9369	9014
952.305	9358
954.6705	9715
957.0355	9821
959.4017	10355
961.7654	10437
964.1284	10402
966.4908	10031
968.8527	9744
971.2138	9400
973.5743	8996
975.9343	8946
978.2936	8746
980.6522	8555
983.0122	8538
985.3696	8452
987.7245	8358
990.0807	8431
992.4362	8352
994.7911	8368
997.1474	8513
999.4991	8503
1001.852	8508
1004.205	8619
1006.555	8398
1008.908	8312
1011.258	8453
1013.606	8492
1015.956	8527
1018.302	8460
1020.652	8374
1022.998	8426
1025.345	8402
1027.691	8596
1030.035	8546
1032.378	8462
1034.724	8528
1037.066	8561
1039.409	8712
1041.75	8556
1044.092	8555
1046.433	8625
1048.771	8609
1051.112	8493
1053.449	8607
1055.786	8481
1058.124	8525
1060.462	8535
1062.797	8712
1065.131	8765
1067.467	8725
1069.8	8693
1072.135	8577
1074.467	8645
1076.798	8770
1079.129	8665
1081.459	8614
1083.792	8743
1086.121	8695
1088.449	8689
1090.777	8582
1093.104	8673
1095.431	8689
1097.759	8575
1100.084	8606
1102.408	8687
1104.732	8564
1107.056	8605
1109.379	8564
1111.701	8580
1114.022	8597
1116.343	8640
1118.664	8577
1120.983	8716
1123.303	8510
1125.621	8582
1127.939	8686
1130.256	8670
1132.573	8674
1134.889	8613
1137.205	8658
1139.52	8533
1141.832	8816
1144.146	8690
1146.461	8578
1148.771	8601
1151.083	8635
1153.392	8680
1155.703	8583
1158.011	8668
1160.323	8593
1162.629	8579
1164.938	8673
1167.243	8713
1169.55	8634
1171.857	8653
1174.163	8647
1176.466	8596
1178.769	8688
1181.073	8594
1183.374	8610
1185.677	8663
1187.979	8598
1190.279	8513
1192.578	8543
1194.878	8624
1197.178	8656
1199.476	8652
1201.772	8596
1204.068	8626
1206.366	8610
1208.663	8504
1210.957	8759
1213.251	8641
1215.544	8715
1217.836	8586
1220.128	8612
1222.421	8684
1224.712	8655
1227.002	8781
1229.292	8810
1231.581	8832
1233.871	8840
1236.159	8849
1238.446	8889
1240.732	9000
1243.018	9032
1245.304	8896
1247.59	8913
1249.874	9040
1252.156	8936
1254.439	9003
1256.721	9004
1259.005	8929
1261.286	8983
1263.565	9023
1265.845	9006
1268.125	8986
1270.403	8915
1272.682	9064
1274.959	8897
1277.234	8923
1279.511	8948
1281.787	8821
1284.062	8936
1286.337	8988
1288.609	8979
1290.882	8909
1293.153	8936
1295.428	8878
1297.698	8784
1299.969	8722
1302.237	8722
1304.507	8668
1306.777	8843
1309.044	8772
1311.312	8742
1313.578	8815
1315.844	8741
1318.109	8844
1320.375	8835
1322.638	8794
1324.903	8889
1327.165	8829
1329.427	8841
1331.69	8851
1333.952	8863
1336.212	8881
1338.471	8787
1340.73	8970
1342.988	8645
1345.248	8896
1347.505	8880
1349.763	8761
1352.019	8725
1354.274	8709
1356.53	8814
1358.784	8788
1361.038	8731
1363.291	8820
1365.543	8853
1367.797	8750
1370.048	8852
1372.296	8806
1374.546	8752
1376.796	8794
1379.045	8850
1381.295	8805
1383.542	8878
1385.787	8805
1388.034	8986
1390.28	8928
1392.527	8920
1394.772	8966
1397.014	8873
1399.258	8961
1401.501	8929
1403.741	9172
1405.985	8993
1408.226	8951
1410.465	9027
1412.705	8968
1414.943	9032
1417.184	9146
1419.42	9218
1421.658	9050
1423.894	9154
1426.13	9120
1428.366	9008
1430.602	9130
1432.835	9038
1435.069	9286
1437.301	9081
1439.535	9151
1441.767	9127
1443.997	9073
1446.229	9238
1448.458	9165
1450.687	9262
1452.916	9223
1455.146	9216
1457.372	9326
1459.599	9192
1461.824	9144
1464.051	9196
1466.277	9145
1468.501	9195
1470.725	9156
1472.948	9153
1475.17	9072
1477.393	9024
1479.614	9042
1481.837	8905
1484.057	8963
1486.276	8911
1488.497	9000
1490.715	8929
1492.932	8886
1495.148	8779
1497.364	8948
1499.58	8813
1501.798	8687
1504.012	8741
1506.227	8820
1508.44	8776
1510.653	8718
1512.866	8671
1515.078	8716
1517.289	8832
1519.5	8561
1521.711	8833
1523.92	8588
1526.13	8840
1528.338	8761
1530.544	8790
1532.752	8758
1534.959	8765
1537.165	8730
1539.371	8835
1541.574	8773
1543.779	8757
1545.983	8924
1548.187	8836
1550.39	8808
1552.59	8823
1554.792	8896
1556.991	8886
1559.19	8998
1561.392	8845
1563.59	8871
1565.789	8898
1567.986	8813
1570.182	9077
1572.381	8975
1574.576	8950
1576.771	9030
1578.966	9028
1581.16	8890
1583.354	8895
1585.546	8952
1587.74	9103
1589.931	8989
1592.121	9096
1594.311	8923
1596.502	9038
1598.693	8996
1600.881	9030
1603.069	9030
1605.256	9062
1607.445	8971
1609.631	9116
1611.816	9127
1614.001	9117
1616.186	9048
1618.37	9022
1620.555	9119
1622.737	9143
1624.919	9125
1627.101	9171
1629.282	9074
1631.463	9276
1633.643	9060
1635.822	9272
1638.001	9066
1640.179	9130
1642.359	9159
1644.534	9132
1646.711	9313
1648.887	9151
1651.062	9182
1653.235	9059
1655.412	9196
1657.586	9143
1659.757	9410
1661.93	9141
1664.1	9302
1666.274	9175
1668.445	9219
1670.614	9206
1672.784	9218
1674.951	9205
1677.12	9287
1679.289	9259
1681.457	9184
1683.622	9175
1685.789	9162
1687.953	9015
1690.121	9251
1692.284	9090
1694.447	8975
1696.611	9020
1698.772	9021
1700.935	8851
1703.098	9048
1705.258	9061
1707.417	8979
1709.576	9066
1711.736	8974
1713.896	8944
1716.053	8966
1718.21	9057
1720.366	9132
1722.522	8977
1724.68	8925
1726.835	9007
1728.989	9044
1731.142	8865
1733.295	8841
1735.449	9177
1737.601	8941
1739.753	8827
1741.903	9032
1744.054	8910
1746.203	8948
1748.354	8954
1750.503	9057
1752.651	8970
1754.798	8945
1756.944	8920
1759.092	9030
1761.238	8939
1763.383	9045
1765.528	8990
1767.672	8959
1769.814	9071
1771.959	9013
1774.102	9065
1776.242	9056
1778.384	8985
1780.525	9127
1782.665	8962
1784.805	9004
1786.945	9006
1789.082	9078
1791.22	9122
1793.36	9121
1795.495	9167
1797.632	9099
1799.766	9101
1801.902	9063
1804.035	9088
1806.172	9151
1808.304	9104
1810.436	9157
1812.569	8994
1814.699	9093
1816.833	9016
1818.963	8864
1821.092	8870
1823.222	9214
1825.35	9016
1827.478	9028
1829.608	9053
1831.734	9081
1833.86	8965
1835.986	8999
1838.11	8879
1840.238	8955
1842.362	8908
1844.485	8908
1846.608	9111
1848.73	8976
1850.853	8965
1852.974	8882
1855.097	8922
1857.217	8806
1859.336	9058
1861.455	8823
1863.576	8930
1865.693	8927
1867.811	8963
1869.926	8957
1872.042	9074
1874.16	9010
1876.275	8974
1878.39	8962
1880.504	8889
1882.618	9029
1884.731	9051
1886.843	8837
1888.956	8933
1891.067	9049
1893.178	9083
1895.287	8894
1897.399	9019
1899.508	9170
1901.617	9080
1903.724	8803
1905.832	9030
1907.941	9121
1910.046	8919
1912.152	9025
1914.256	9039
1916.361	9170
1918.464	9014
1920.57	9103
1922.672	9025
1924.775	9156
1926.876	8978
1928.978	9069
1931.08	9052
1933.181	9048
1935.28	9106
1937.38	8918
1939.478	9063
1941.577	9089
1943.675	9065
1945.771	9213
1947.867	9038
1949.964	9028
1952.058	9129
1954.154	9085
1956.248	9132
1958.343	8970
1960.435	9092
1962.527	9082
1964.62	8989
1966.711	9075
1968.802	8928
1970.892	9125
1972.983	9005
1975.072	8986
1977.162	9088
1979.25	8925
1981.337	9137
1983.424	8955
1985.51	8997
1987.598	8939
1989.683	8991
1991.768	8987
1993.852	8974
1995.934	9038
1998.019	8747
2000.102	8934
2002.184	8973
2004.266	8990
2006.347	9013
2008.427	8848
2010.508	8747
2012.587	9019
2014.666	8902
2016.745	8916
2018.821	8956
2020.9	9051
2022.977	9048
2025.052	8936
2027.128	8939
2029.204	8885
2031.277	8897
2033.353	9028
2035.425	9036
2037.499	8914
2039.57	8910
2041.642	8903
2043.714	8979
2045.786	9009
2047.855	8999
2049.925	9020
2051.993	8964
2054.064	8990
2056.132	9006
2058.2	8961
2060.266	8963
2062.332	8932
2064.398	9046
2066.465	8966
2068.529	8985
2070.592	9006
2072.657	8876
2074.719	8904
2076.783	8905
2078.845	8962
2080.907	8974
2082.968	8986
2085.028	8793
2087.087	9015
2089.148	8909
2091.207	8983
2093.264	8784
2095.322	8952
2097.379	8945
2099.439	8941
2101.495	8931
2103.55	9011
2105.605	8982
2107.658	8873
2109.713	9004
2111.767	8887
2113.82	8903
2115.872	8893
2117.924	8825
2119.975	9078
2122.028	8915
2124.078	8825
2126.126	8912
2128.176	9024
2130.225	8794
2132.275	8960
2134.321	8920
2136.368	8869
2138.415	8947
2140.461	8819
2142.505	8824
2144.552	9012
2146.597	8915
2148.64	8991
2150.684	8913
2152.725	8934
2154.77	8839
2156.811	8838
2158.852	8809
2160.894	8699
2162.933	8879
2164.973	8784
2167.013	8814
2169.051	8916
2171.089	8805
2173.126	8785
2175.164	8784
2177.201	8910
2179.236	8751
2181.273	8734
2183.307	8780
2185.341	8767
2187.377	8800
2189.41	8615
2191.442	8548
2193.473	8609
2195.506	8789
2197.539	8682
2199.569	8767
2201.598	8711
2203.628	8748
2205.656	8736
2207.686	8729
2209.716	8630
2211.743	8594
2213.769	8714
2215.796	8662
2217.821	8648
2219.848	8737
2221.873	8518
2223.897	8465
2225.921	8692
2227.944	8676
2229.967	8633
2231.991	8617
2234.011	8632
2236.032	8799
2238.053	8686
2240.073	8691
2242.094	8769
2244.114	8711
2246.131	8548
2248.149	8607
2250.167	8706
2252.186	8652
2254.201	8541
2256.218	8788
2258.233	8613
2260.247	8589
2262.262	8620
2264.278	8498
2266.29	8611
2268.303	8597
2270.315	8696
2272.327	8681
2274.341	8554
2276.35	8741
2278.361	8584
2280.37	8713
2282.38	8671
2284.388	8562
2286.397	8635
2288.405	8547
2290.412	8667
2292.419	8692
2294.425	8641
2296.431	8492
2298.437	8486
2300.441	8632
2302.445	8510
2304.449	8655
2306.453	8546
2308.455	8665
2310.457	8516
2312.459	8526
2314.46	8513
2316.46	8530
2318.461	8643
2320.46	8409
2322.458	8622
2324.458	8470
2326.456	8688
2328.455	8384
2330.451	8464
2332.447	8643
2334.443	8582
2336.438	8516
2338.433	8434
2340.429	8605
2342.422	8393
2344.416	8506
2346.408	8545
2348.399	8556
2350.393	8424
2352.384	8460
2354.375	8388
2356.365	8452
2358.355	8476
2360.344	8418
2362.333	8426
2364.322	8467
2366.309	8267
2368.295	8333
2370.282	8367
2372.27	8360
2374.256	8301
2376.24	8449
2378.225	8396
2380.208	8166
2382.194	8440
2384.177	8395
2386.159	8335
2388.142	8322
2390.122	8178
2392.105	8291
2394.085	8332
2396.066	8342
2398.044	8342
2400.024	8300
2402.002	8313
2403.982	8297
2405.959	8225
2407.935	8191
2409.913	8094
2411.888	8266
2413.865	8187
2415.84	8214
2417.814	8127
2419.788	8462
2421.762	8196
2423.735	8249
2425.708	8225
2427.68	8144
2429.651	8244
2431.623	8244
2433.593	8348
2435.564	8256
2437.533	8314
2439.502	8293
2441.47	8158
2443.438	8262
2445.406	8281
2447.373	8090
2449.34	8233
2451.305	8332
2453.271	8222
2455.235	8225
2457.201	8175
2459.165	8192
2461.129	8064
2463.092	8145
2465.054	8110
2467.018	8111
2468.978	8283
2470.939	8113
2472.899	8144
2474.86	8101
2476.819	8107
2478.778	8215
2480.737	8175
2482.695	8070
2484.653	8088
2486.609	8168
2488.567	8096
2490.524	8193
2492.478	8091
2494.433	8094
2496.387	8044
2498.343	8096
2500.297	8099
2502.249	8015
2504.202	8108
2506.153	8091
2508.105	8134
2510.057	8011
2512.008	8042
2513.957	8038
2515.906	8023
2517.855	8030
2519.805	8126
2521.754	7995
2523.7	8135
2525.647	8030
2527.594	8081
2529.54	8028
2531.486	8028
2533.431	7985
2535.376	8023
2537.32	7941
2539.263	8036
2541.207	8173
2543.151	7952
2545.093	7939
2547.034	8052
2548.975	8046
2550.917	8059
2552.856	7951
2554.796	8005
2556.735	8024
2558.673	7997
2560.611	8043
2562.55	8038
2564.487	7958
2566.424	8076
2568.36	7988
2570.296	7846
2572.232	7931
2574.167	7928
2576.101	7927
2578.035	8012
2579.969	7997
2581.902	7996
2583.834	7853
2585.766	8012
2587.698	7980
2589.628	8014
2591.557	7992
2593.489	8035
2595.419	7949
2597.348	7981
2599.275	8015
2601.204	8043
2603.131	7962
2605.059	8078
2606.986	8034
2608.911	8015
2610.837	7968
2612.76	8082
2614.687	8130
2616.61	7887
2618.534	7966
2620.457	7839
2622.38	7947
2624.302	7961
2626.225	8037
2628.145	8013
2630.067	7963
2631.986	7907
2633.906	8028
2635.827	8109
2637.745	7946
2639.662	7993
2641.581	7847
2643.498	8045
2645.415	8038
2647.331	8067
2649.248	8064
2651.163	8010
2653.077	8086
2654.993	8041
2656.906	7935
2658.821	8021
2660.733	7991
2662.646	7965
2664.557	7954
2666.47	7981
2668.381	8038
2670.291	7921
2672.201	7951
2674.11	7864
2676.021	7827
2677.929	8063
2679.837	7923
2681.745	7912
2683.652	7898
2685.56	7953
2687.466	7876
2689.371	7979
2691.276	7898
2693.181	7914
2695.085	7929
2696.991	7865
2698.893	7898
2700.796	7804
2702.698	7843
2704.601	7812
2706.502	7781
2708.404	7715
2710.304	7803
2712.203	7779
2714.103	7749
2716.003	7766
2717.902	7807
2719.8	7886
2721.697	7743
2723.594	7713
2725.49	7805
2727.389	7874
2729.283	7854
2731.179	7763
2733.073	7735
2734.968	7809
2736.863	7744
2738.757	7806
2740.649	7863
2742.541	7681
2744.433	7805
2746.324	7733
2748.216	7786
2750.107	7661
2751.997	7771
2753.886	7709
2755.776	7748
2757.666	7803
2759.553	7740
2761.44	7758
2763.327	7644
2765.215	7739
2767.102	7792
2768.988	7721
2770.873	7657
2772.757	7701
2774.641	7581
2776.525	7603
2778.41	7643
2780.292	7682
2782.175	7681
2784.057	7712
2785.938	7743
2787.821	7743
2789.701	7638
2791.581	7684
2793.461	7572
2795.34	7604
2797.219	7691
2799.099	7603
2800.975	7601
2802.853	7505
2804.73	7576
2806.606	7721
2808.484	7634
2810.358	7648
2812.233	7628
2814.108	7598
2815.981	7629
2817.857	7591
2819.73	7555
2821.602	7576
2823.474	7572
2825.346	7599
2827.217	7513
2829.089	7609
2830.959	7563
2832.829	7513
2834.698	7588
2836.567	7687
2838.436	7633
2840.305	7572
2842.172	7603
2844.04	7627
2845.905	7628
2847.772	7618
2849.639	7680
2851.503	7612
2853.369	7506
2855.232	7729
2857.096	7753
2858.961	7709
2860.824	7654
2862.686	7601
2864.547	7719
2866.41	7871
2868.272	7860
2870.132	7890
2871.992	8032
2873.851	7929
2875.711	8068
2877.57	8137
2879.429	8141
2881.287	8114
2883.144	8183
2885.001	8420
2886.857	8244
2888.714	8426
2890.57	8147
2892.425	8225
2894.279	8233
2896.133	8304
2897.987	8233
2899.842	8226
2901.694	8131
2903.547	8255
2905.397	8139
2907.249	8264
2909.101	8196
2910.952	8182
2912.802	8318
2914.652	8329
2916.5	8366
2918.35	8512
2920.198	8583
2922.045	8607
2923.893	8519
2925.74	8759
2927.585	8760
2929.433	8898
2931.279	8804
2933.123	9017
2934.968	8956
2936.811	9129
2938.656	9078
2940.5	9196
2942.342	9311
2944.185	9371
2946.026	9337
2947.87	9295
2949.71	9102
2951.549	9305
2953.39	9229
2955.229	8971
2957.069	9027
2958.908	8919
2960.746	9005
2962.584	8860
2964.421	8747
2966.257	8663
2968.094	8607
2969.931	8649
2971.766	8585
2973.601	8506
2975.435	8406
2977.27	8462
2979.105	8146
2980.938	8290
2982.77	8302
2984.602	8207
2986.434	8295
2988.267	8309
2990.097	8154
2991.927	7984
2993.757	8096
2995.587	8091
2997.417	7879
2999.246	7955
3001.074	7770
3002.902	7772
3004.729	7736
3006.556	7680
3008.384	7596
3010.21	7490
3012.036	7544
3013.861	7447
3015.684	7428
3017.51	7421
3019.334	7341
3021.157	7306
3022.981	7333
3024.802	7264
3026.624	7205
3028.448	7267
3030.267	7253
3032.088	7284
3033.909	7151
3035.728	7083
3037.549	7248
3039.368	7109
3041.186	7207
3043.004	7050
3044.821	6994
3046.64	7058
3048.455	7088
3050.272	7080
3052.087	7066
3053.903	6957
3055.717	6830
3057.534	7125
3059.347	7112
3061.16	7143
3062.974	7084
3064.785	7095
3066.598	6885
3068.411	7209
3070.222	7133
3072.032	6964
3073.844	6911
3075.653	7006
3077.463	7065
3079.272	6895
3081.08	6920
3082.889	6980
3084.697	6962
3086.505	6990
3088.312	6842
3090.118	6866
3091.924	6930
3093.729	6957
3095.535	6828
3097.34	6911
3099.144	6808
3100.947	6796
3102.75	6721
3104.553	6878
3106.357	6805
3108.159	6706
3109.961	6902
3111.762	6926
3113.562	6718
3115.365	6760
3117.164	6722
3118.964	6722
3120.761	6759
3122.56	6773
3124.36	6798
3126.158	6804
3127.954	6748
3129.75	6728
3131.547	6825
3133.343	6671
3135.139	6728
3136.934	6670
3138.729	6661
3140.522	6678
3142.317	6706
3144.11	6600
3145.904	6650
3147.695	6747
3149.488	6662
3151.28	6622
3153.07	6610
3154.863	6612
3156.652	6594
3158.441	6790
3160.231	6692
3162.019	6630
3163.81	6534
3165.597	6696
3167.384	6655
3169.172	6608
3170.958	6572
3172.745	6691
3174.532	6561
3176.317	6705
3178.101	6620
3179.885	6588
3181.67	6692
3183.455	6522
3185.238	6548
3187.02	6529
3188.802	6506
3190.585	6458
3192.368	6476
3194.149	6616
3195.929	6458
3197.709	6444
3199.489	6601
3201.268	6583
3203.048	6611
3204.826	6572
3206.604	6463
3208.382	6530
3210.159	6571
3211.937	6505
3213.713	6367
3215.489	6658
3217.263	6533
3219.038	6453
3220.815	6674
3222.589	6463
3224.363	6421
3226.136	6522
3227.908	6455
3229.681	6508
3231.454	6539
3233.226	6523
3234.996	6481
3236.767	6423
3238.538	6559
3240.308	6443
3242.078	6429
3243.847	6543
3245.615	6523
3247.384	6381
3249.15	6474
3250.92	6445
3252.686	6498
3254.453	6556
3256.218	6545
3257.984	6400
3259.75	6538
3261.515	6486
3263.279	6385
3265.044	6499
3266.806	6488
3268.57	6499
3270.334	6452
3272.095	6401
3273.856	6422
3275.619	6536
3277.379	6460
3279.14	6410
3280.9	6412
3282.661	6398
3284.419	6395
3286.178	6445
3287.937	6377
3289.695	6458
3291.453	6465
3293.21	6502
3294.967	6492
3296.723	6517
3298.48	6398
3300.235	6506
3301.99	6448
3303.744	6465
3305.498	6527
3307.253	6526
3309.006	6411
3310.759	6437
3312.511	6420
3314.263	6462
3316.017	6416
3317.768	6393
3319.519	6500
3321.268	6523
3323.018	6450
3324.767	6437
3326.518	6475
3328.267	6507
3330.014	6453
3331.762	6372
3333.509	6510
3335.258	6407
3337.003	6434
3338.75	6437
3340.496	6400
3342.24	6388
3343.987	6284
3345.732	6320
3347.475	6395
3349.219	6386
3350.961	6369
3352.705	6397
3354.448	6342
3356.19	6282
3357.931	6306
3359.672	6291
3361.412	6276
3363.155	6261
3364.894	6349
3366.633	6206
3368.372	6249
3370.11	6323
3371.849	6167
3373.588	6058
3375.325	6219
3377.061	6232
3378.799	6215
3380.534	6258
3382.271	6220
3384.006	6171
3385.741	6298
3387.475	6173
3389.209	6135
3390.944	6240
3392.677	6130
3394.409	6216
3396.143	6122
3397.874	6181
3399.606	6181
3401.338	6110
3403.069	6283
3404.799	6206
3406.528	6109
3408.258	6183
3409.988	6121
3411.717	6084
3413.445	6147
3415.173	6070
3416.899	6109
3418.626	6135
3420.354	6066
3422.08	6066
3423.806	6062
3425.531	6132
3427.255	6111
3428.981	6043
3430.705	6050
3432.429	6141
3434.151	6049
3435.875	5978
3437.599	6083
3439.321	6102
3441.042	6034
3442.763	5976
3444.483	6008
3446.204	5938
3447.926	5988
3449.645	5940
3451.364	6035
3453.082	6071
3454.801	6045
3456.52	5963
3458.238	5906
3459.954	6018
3461.671	5890
3463.387	5943
3465.104	5873
3466.82	5976
3468.534	5870
3470.25	5861
3471.963	5893
3473.676	5849
3475.392	5950
3477.104	5824
3478.817	5776
3480.528	5853
3482.241	5820
3483.954	5747
3485.664	5817
3487.374	5840
3489.084	5865
3490.795	5721
3492.504	5841
3494.214	5704
3495.922	5711
3497.63	5731
3499.338	5770
3501.045	5649
3502.753	5767
3504.459	5628
3506.166	5663
3507.871	5726
3509.576	5691
3511.283	5726
3512.987	5604
3514.691	5637
3516.395	5695
3518.098	5632
3519.8	5683
3521.504	5509
3523.206	5629
3524.908	5654
3526.609	5657
3528.309	5667
3530.011	5626
3531.711	5602
3533.411	5561
3535.109	5533
3536.808	5579
3538.507	5560
3540.206	5480
3541.904	5505
3543.601	5519
3545.297	5545
3546.994	5434
3548.69	5502
3550.387	5514
3552.081	5523
3553.776	5523
3555.47	5466
3557.166	5511
3558.859	5468
3560.553	5474
3562.245	5520
3563.938	5589
3565.629	5522
3567.322	5510
3569.014	5367
3570.704	5507
3572.394	5409
3574.084	5418
3575.775	5414
3577.464	5400
3579.152	5440
3580.842	5460
3582.529	5404
3584.216	5355
3585.905	5352
3587.591	5527
3589.279	5328
3590.964	5419
3592.649	5358
3594.336	5324
3596.021	5281
3597.705	5284
3599.388	5344
3601.072	5354
3602.757	5224
3604.439	5226
3606.122	5163
3607.803	5330
3609.485	5273
3611.167	5331
3612.849	5167
3614.529	5290
3616.208	5115
3617.888	5166
3619.567	5166
3621.247	5195
3622.926	5197
3624.603	5233
3626.281	5178
3627.958	5108
3629.635	5146
3631.312	5183
3632.989	5251
3634.665	5141
3636.339	5043
3638.014	5201
3639.691	5128
3641.364	5073
3643.038	5033
3644.71	5101
3646.384	5037
3648.058	5073
3649.729	5074
3651.402	5056
3653.073	5092
3654.744	5074
3656.414	5062
3658.085	4998
3659.755	5090
3661.424	5099
3663.094	5028
3664.762	4944
3666.431	5048
3668.099	4995
3669.766	5010
3671.433	4954
3673.099	4988
3674.768	4995
3676.433	4988
3678.098	4952
3679.763	4989
3681.428	4976
3683.093	4985
3684.757	5009
3686.421	4931
3688.083	5037
3689.746	4975
3691.408	5010
3693.071	5033
3694.733	4934
3696.394	4942
3698.054	4897
3699.715	4904
3701.375	4949
3703.036	4978
3704.695	4883
3706.354	4960
3708.012	4893
3709.67	4843
3711.329	4872
3712.987	4783
3714.644	4792
3716.299	4793
3717.955	4867
3719.613	4851
3721.268	4837
3722.923	4899
3724.577	4821
3726.231	4838
3727.885	4785
3729.539	4881
3731.192	4838
3732.845	4764
3734.497	4773
3736.149	4807
3737.802	4744
3739.453	4825
3741.104	4752
3742.753	4786
3744.404	4749
3746.052	4853
3747.704	4692
3749.352	4870
3751	4657
3752.648	4748
3754.296	4849
3755.944	4789
3757.59	4705
3759.238	4779
3760.883	4767
3762.528	4807
3764.176	4800
3765.82	4792
3767.464	4751
3769.109	4699
3770.753	4633
3772.396	4762
3774.04	4705
3775.683	4724
3777.325	4685
3778.967	4666
3780.608	4733
3782.25	4752
3783.89	4715
3785.531	4756
3787.17	4608
3788.81	4689
3790.45	4563
3792.09	4643
3793.729	4662
3795.366	4587
3797.003	4647
3798.64	4633
3800.278	4572
3801.915	4583
3803.551	4651
3805.187	4557
3806.822	4608
3808.458	4559
3810.093	4515
3811.726	4542
3813.36	4660
3814.994	4605
3816.627	4600
3818.262	4540
3819.893	4479
3821.525	4574
3823.157	4574
3824.787	4502
3826.42	4477
3828.051	4386
3829.68	4520
3831.31	4491
3832.938	4434
3834.569	4410
3836.198	4535
3837.825	4515
3839.454	4524
3841.08	4500
3842.708	4512
3844.335	4463
3845.962	4548
3847.587	4507
3849.212	4435
3850.838	4488
3852.463	4412
3854.089	4493
3855.712	4507
3857.335	4513
3858.959	4476
3860.582	4469
3862.205	4533
3863.827	4444
3865.449	4481
3867.07	4418
3868.691	4400
3870.312	4422
3871.933	4376
3873.553	4407
3875.173	4466
3876.792	4326
3878.411	4409
3880.03	4385
3881.647	4341
3883.265	4395
3884.882	4408
3886.499	4431
3888.116	4411
3889.732	4415
3891.348	4463
3892.964	4326
3894.579	4394
3896.195	4471
3897.809	4421
3899.423	4384
3901.036	4408
3902.648	4357
3904.261	4388
3905.875	4277
3907.487	4281
3909.099	4320
3910.709	4302
3912.321	4406
3913.933	4402
3915.542	4293
3917.152	4218
3918.762	4324
3920.37	4378
3921.98	4315
3923.589	4281
3925.196	4307
3926.804	4391
3928.41	4315
3930.018	4327
3931.626	4227
3933.231	4245
3934.838	4277
3936.442	4253
3938.046	4285
3939.653	4285
3941.257	4183
3942.861	4220
3944.464	4254
3946.068	4282
3947.67	4295
3949.273	4267
3950.876	4304
3952.477	4245
3954.078	4300
3955.678	4268
3957.281	4254
3958.881	4184
3960.48	4306
3962.079	4297
3963.678	4243
3965.279	4246
3966.877	4226
3968.475	4180
3970.072	4119
3971.669	4236
3973.266	4185
3974.864	4200
3976.459	4194
3978.055	4109
3979.65	4177
3981.245	4167
3982.841	4121
3984.436	4212
3986.03	4059
3987.623	4106
3989.216	4084
3990.809	4122
3992.403	4189
3993.995	4106
3995.586	4096
3997.177	4062
3998.768	4153
4000.361	4131
4001.951	4038
4003.54	4104
4005.13	4099
4006.719	4106
4008.31	4114
4009.897	4092
4011.485	4098
4013.073	4111
4014.66	4023
4016.247	4015
4017.834	4073
4019.421	4007
4021.006	4023
4022.592	4024
4024.178	4060
4025.763	4020
4027.348	3972
4028.932	4021
4030.515	4013
4032.099	3909
4033.682	3937
4035.266	3906
4036.847	3920
4038.429	4008
4040.011	3934
4041.592	3959
4043.173	3907
4044.755	3950
4046.334	3962
4047.913	3970
4049.494	3964
4051.074	3874
4052.652	3929
4054.23	3875
4055.807	3927
4057.385	3828
4058.963	3898
4060.541	3874
4062.117	3906
4063.693	3967
4065.269	3973
4066.844	3944
4068.42	3876
4069.995	3915
4071.569	3836
4073.143	3841
4074.716	3839
4076.291	3900
4077.864	3806
4079.436	3864
4081.009	3833
4082.58	3870
4084.152	3753
4085.723	3891
4087.294	3886
4088.865	3800
4090.435	3826
4092.005	3877
4093.574	3801
4095.143	3802
4096.712	3791
4098.279	3870
4099.848	3849
4101.416	3768
4102.984	3837
4104.55	3878
4106.117	3799
4107.682	3847
4109.248	3750
4110.815	3755
4112.379	3749
4113.945	3854
4115.508	3776
4117.073	3772
4118.637	3675
4120.201	3753
4121.763	3798
4123.325	3731
4124.888	3795
4126.449	3756
4128.013	3665
4129.573	3754
4131.133	3622
4132.694	3784
4134.254	3661
4135.814	3599
4137.374	3634
4138.933	3637
4140.491	3655
4142.049	3688
4143.607	3760
4145.167	3628
4146.724	3665
4148.28	3666
4149.836	3616
4151.392	3669
4152.949	3673
4154.504	3646
4156.059	3669
4157.614	3666
4159.168	3675
4160.723	3503
4162.277	3642
4163.83	3582
4165.383	3598
4166.936	3585
4168.488	3570
4170.041	3574
4171.593	3599
4173.144	3541
4174.695	3552
4176.246	3535
4177.796	3552
4179.346	3463
4180.896	3526
4182.445	3594
4183.994	3425
4185.542	3674
4187.091	3624
4188.639	3560
4190.185	3501
4191.732	3578
4193.279	3520
4194.826	3461
4196.373	3488
4197.918	3512
4199.463	3546
4201.008	3472
4202.553	3497
4204.098	3482
4205.641	3510
4207.185	3498
4208.728	3539
4210.271	3518
4211.814	3497
4213.357	3463
4214.898	3457
4216.439	3448
4217.98	3553
4219.522	3412
4221.062	3427
4222.603	3405
4224.142	3486
4225.681	3455
4227.222	3513
4228.76	3505
4230.298	3485
4231.835	3400
4233.373	3478
4234.911	3415
4236.449	3433
4237.985	3437
4239.521	3460
4241.057	3397
4242.592	3395
4244.128	3361
4245.663	3447
4247.197	3422
4248.731	3411
4250.265	3439
4251.798	3401
4253.333	3391
4254.865	3317
4256.397	3452
4257.93	3445
4259.461	3373
4260.994	3337
4262.525	3396
4264.056	3437
4265.586	3367
4267.115	3406
4268.646	3376
4270.176	3330
4271.705	3312
4273.232	3323
4274.761	3352
4276.289	3366
4277.818	3361
4279.345	3443
4280.872	3386
4282.399	3386
4283.924	3361
4285.452	3347
4286.976	3341
4288.502	3333
4290.026	3290
4291.551	3263
4293.074	3307
4294.6	3393
4296.123	3328
4297.646	3221
4299.168	3347
4300.691	3302
4302.214	3276
4303.736	3334
4305.257	3300
4306.778	3313
4308.299	3246
4309.82	3207
4311.34	3225
4312.86	3292
4314.379	3197
