400.0745	4336
402.597	4441
405.1208	4362
407.6419	4349
410.1623	4440
412.6819	4374
415.201	4443
417.7172	4415
420.2369	4437
422.7538	4624
425.2701	4539
427.7856	4585
430.3005	4608
432.8147	4568
435.3282	4678
437.841	4637
440.3511	4612
442.8625	4665
445.3753	4697
447.8854	4624
450.3927	4692
452.9014	4596
455.4073	4692
457.9146	4728
460.4233	4649
462.9272	4649
465.4325	4687
467.935	4602
470.4389	4654
472.9421	4681
475.4446	4808
477.9444	4600
480.4456	4791
482.944	4775
485.4417	4835
487.9429	4813
490.4393	4741
492.935	4854
495.4321	4882
497.9264	4790
500.4221	4895
502.9171	4954
505.4094	4903
507.9011	4767
510.392	4882
512.8864	4908
515.3759	4948
517.8649	4873
520.3531	4927
522.8406	4923
525.3275	4928
527.8178	4794
530.3033	4877
532.7881	4948
535.2723	4909
537.7558	4926
540.2407	4826
542.7228	4972
545.2043	4947
547.6851	4952
550.1652	4941
552.6467	4965
555.1255	4890
557.6016	4961
560.079	4968
562.5557	4924
565.0318	4925
567.5092	5072
569.984	4969
572.456	5112
574.9294	5119
577.4022	5054
579.8762	5038
582.3456	5115
584.8163	4983
587.2863	5110
589.7557	5145
592.2224	5090
594.6924	5138
597.1578	5091
599.6245	5112
602.0905	5118
604.5538	5062
607.0206	5101
609.4825	5028
611.9459	5143
614.4066	5108
616.8686	5163
619.33	5238
621.7906	5083
624.2487	5052
626.708	5169
629.1647	5057
631.6207	5097
634.0801	5114
636.5348	5102
638.9888	5116
641.4442	5168
643.8969	5175
646.3509	5119
648.8022	5185
651.255	5197
653.705	5083
656.1544	5199
658.6031	5205
661.0532	5207
663.5026	5146
665.9493	5243
668.3954	5276
670.8409	5195
673.2877	5355
675.7318	5223
678.1752	5287
680.618	5282
683.0601	5248
685.5035	5277
687.9444	5295
690.3845	5294
692.824	5304
695.2628	5326
697.701	5233
700.1406	5315
702.5774	5318
705.0116	5387
707.4472	5399
709.8821	5437
712.3183	5302
714.7519	5403
717.1829	5261
719.6151	5372
722.0468	5383
724.4777	5422
726.908	5501
729.3377	5436
731.7667	5480
734.1931	5536
736.6208	5516
739.0498	5574
741.4742	5587
743.9	5463
746.3231	5582
748.7476	5528
751.1713	5567
753.5945	5685
756.015	5680
758.4368	5700
760.856	5653
763.2766	5640
765.6965	5564
768.1157	5715
770.5323	5628
772.9483	5704
775.3656	5535
777.7822	5681
780.1963	5610
782.6116	5685
785.0244	5737
787.4365	5687
789.8499	5646
792.2626	5812
794.6728	5786
797.0823	5755
799.4911	5624
801.8994	5631
804.3109	5849
806.7178	5727
809.124	5662
811.5297	5647
813.9347	5724
816.341	5775
818.7447	5788
821.1478	5704
823.5502	5735
825.952	5883
828.3531	5729
830.7556	5806
833.1554	5730
835.5546	5785
837.9532	5832
840.3511	5833
842.7504	5752
845.1451	5741
847.5411	5836
849.9365	5881
852.3312	5806
854.7272	5916
857.1187	5846
859.5115	5877
861.9037	5922
864.2952	5814
866.6842	5762
869.0764	5810
871.4661	5813
873.8531	5846
876.2415	5913
878.6272	5720
881.0162	5847
883.4026	5766
885.7866	5758
888.1717	5844
890.5543	5750
892.9382	5865
895.3215	5814
897.7041	5835
900.0842	5820
902.4655	5907
904.8443	5920
907.2244	5916
909.6039	5861
911.9808	6000
914.357	5833
916.7346	5958
919.1115	6038
921.4859	5982
923.8616	6051
926.2347	6081
928.6071	6017
930.979	6215
933.3541	5976
935.7247	6169
938.0946	6135
940.4639	6076
942.8326	6080
945.2026	6126
947.5701	6197
949.9369	6318
952.305	6280
954.6705	6364
957.0355	6571
959.4017	6747
961.7654	6734
964.1284	6747
966.4908	6794
968.8527	6582
971.2138	6338
973.5743	6271
975.9343	6220
978.2936	6213
980.6522	6059
983.0122	5950
985.3696	6040
987.7245	6107
990.0807	5897
992.4362	6074
994.7911	6080
997.1474	6008
999.4991	5894
1001.852	5998
1004.205	6050
1006.555	6026
1008.908	6071
1011.258	6013
1013.606	6070
1015.956	6022
1018.302	6130
1020.652	6021
1022.998	6039
1025.345	6060
1027.691	6184
1030.035	6103
1032.378	6009
1034.724	6194
1037.066	6044
1039.409	6127
1041.75	6090
1044.092	6157
1046.433	6127
1048.771	6128
1051.112	6181
1053.449	6242
1055.786	6089
1058.124	6142
1060.462	6024
1062.797	6183
1065.131	6084
1067.467	6186
1069.8	6217
1072.135	6205
1074.467	6208
1076.798	6336
1079.129	6120
1081.459	6083
1083.792	6206
1086.121	6172
1088.449	6163
1090.777	6164
1093.104	6111
1095.431	6094
1097.759	6089
1100.084	6191
1102.408	6196
1104.732	6141
1107.056	6160
1109.379	6185
1111.701	6129
1114.022	6245
1116.343	6285
1118.664	6140
1120.983	6251
1123.303	6256
1125.621	6236
1127.939	6246
1130.256	6204
1132.573	6192
1134.889	6151
1137.205	6191
1139.52	6188
1141.832	6317
1144.146	6379
1146.461	6271
1148.771	6299
1151.083	6250
1153.392	6290
1155.703	6226
1158.011	6209
1160.323	6369
1162.629	6251
1164.938	6261
1167.243	6241
1169.55	6183
1171.857	6249
1174.163	6338
1176.466	6317
1178.769	6211
1181.073	6169
1183.374	6310
1185.677	6230
1187.979	6224
1190.279	6233
1192.578	6261
1194.878	6219
1197.178	6274
1199.476	6282
1201.772	6160
1204.068	6357
1206.366	6241
1208.663	6311
1210.957	6300
1213.251	6202
1215.544	6164
1217.836	6261
1220.128	6315
1222.421	6378
1224.712	6248
1227.002	6407
1229.292	6345
1231.581	6346
1233.871	6293
1236.159	6291
1238.446	6384
1240.732	6488
1243.018	6322
1245.304	6388
1247.59	6534
1249.874	6396
1252.156	6464
1254.439	6540
1256.721	6457
1259.005	6546
1261.286	6483
1263.565	6505
1265.845	6477
1268.125	6408
1270.403	6402
1272.682	6455
1274.959	6442
1277.234	6428
1279.511	6432
1281.787	6414
1284.062	6511
1286.337	6437
1288.609	6291
1290.882	6398
1293.153	6403
1295.428	6390
1297.698	6332
1299.969	6388
1302.237	6404
1304.507	6355
1306.777	6368
1309.044	6272
1311.312	6430
1313.578	6354
1315.844	6439
1318.109	6307
1320.375	6313
1322.638	6286
1324.903	6349
1327.165	6393
1329.427	6363
1331.69	6334
1333.952	6388
1336.212	6299
1338.471	6467
1340.73	6333
1342.988	6465
1345.248	6450
1347.505	6394
1349.763	6393
1352.019	6365
1354.274	6360
1356.53	6341
1358.784	6265
1361.038	6306
1363.291	6323
1365.543	6458
1367.797	6488
1370.048	6434
1372.296	6370
1374.546	6483
1376.796	6534
1379.045	6501
1381.295	6391
1383.542	6416
1385.787	6419
1388.034	6442
1390.28	6341
1392.527	6508
1394.772	6396
1397.014	6549
1399.258	6463
1401.501	6488
1403.741	6491
1405.985	6658
1408.226	6522
1410.465	6485
1412.705	6564
1414.943	6527
1417.184	6519
1419.42	6527
1421.658	6526
1423.894	6587
1426.13	6641
1428.366	6485
1430.602	6482
1432.835	6515
1435.069	6660
1437.301	6625
1439.535	6752
1441.767	6670
1443.997	6610
1446.229	6631
1448.458	6618
1450.687	6682
1452.916	6668
1455.146	6647
1457.372	6617
1459.599	6596
1461.824	6672
1464.051	6551
1466.277	6722
1468.501	6547
1470.725	6584
1472.948	6498
1475.17	6570
1477.393	6476
1479.614	6454
1481.837	6488
1484.057	6440
1486.276	6344
1488.497	6477
1490.715	6515
1492.932	6391
1495.148	6540
1497.364	6359
1499.58	6438
1501.798	6368
1504.012	6387
1506.227	6439
1508.44	6236
1510.653	6409
1512.866	6432
1515.078	6424
1517.289	6379
1519.5	6324
1521.711	6452
1523.92	6391
1526.13	6311
1528.338	6271
1530.544	6443
1532.752	6390
1534.959	6295
1537.165	6360
1539.371	6282
1541.574	6487
1543.779	6377
1545.983	6410
1548.187	6351
1550.39	6388
1552.59	6482
1554.792	6468
1556.991	6424
1559.19	6508
1561.392	6519
1563.59	6529
1565.789	6456
1567.986	6536
1570.182	6530
1572.381	6521
1574.576	6505
1576.771	6571
1578.966	6450
1581.16	6478
1583.354	6533
1585.546	6540
1587.74	6608
1589.931	6595
1592.121	6545
1594.311	6628
1596.502	6632
1598.693	6566
1600.881	6551
1603.069	6703
1605.256	6574
1607.445	6579
1609.631	6578
1611.816	6622
1614.001	6708
1616.186	6585
1618.37	6626
1620.555	6643
1622.737	6621
1624.919	6606
1627.101	6530
1629.282	6750
1631.463	6680
1633.643	6685
1635.822	6645
1638.001	6633
1640.179	6647
1642.359	6732
1644.534	6658
1646.711	6627
1648.887	6633
1651.062	6601
1653.235	6726
1655.412	6729
1657.586	6600
1659.757	6800
1661.93	6739
1664.1	6626
1666.274	6740
1668.445	6650
1670.614	6797
1672.784	6694
1674.951	6653
1677.12	6636
1679.289	6683
1681.457	6752
1683.622	6699
1685.789	6584
1687.953	6594
1690.121	6620
1692.284	6524
1694.447	6578
1696.611	6630
1698.772	6709
1700.935	6583
1703.098	6738
1705.258	6660
1707.417	6465
1709.576	6591
1711.736	6565
1713.896	6639
1716.053	6511
1718.21	6598
1720.366	6622
1722.522	6509
1724.68	6623
1726.835	6503
1728.989	6502
1731.142	6572
1733.295	6564
1735.449	6624
1737.601	6508
1739.753	6448
1741.903	6682
1744.054	6615
1746.203	6651
1748.354	6600
1750.503	6468
1752.651	6508
1754.798	6709
1756.944	6515
1759.092	6624
1761.238	6631
1763.383	6571
1765.528	6528
1767.672	6521
1769.814	6691
1771.959	6467
1774.102	6563
1776.242	6600
1778.384	6589
1780.525	6716
1782.665	6518
1784.805	6585
1786.945	6721
1789.082	6619
1791.22	6677
1793.36	6616
1795.495	6563
1797.632	6588
1799.766	6643
1801.902	6528
1804.035	6543
1806.172	6573
1808.304	6742
1810.436	6628
1812.569	6640
1814.699	6702
1816.833	6742
1818.963	6583
1821.092	6496
1823.222	6642
1825.35	6676
1827.478	6590
1829.608	6596
1831.734	6584
1833.86	6608
1835.986	6669
1838.11	6604
1840.238	6522
1842.362	6623
1844.485	6573
1846.608	6576
1848.73	6437
1850.853	6580
1852.974	6483
1855.097	6641
1857.217	6534
1859.336	6504
1861.455	6580
1863.576	6644
1865.693	6473
1867.811	6558
1869.926	6560
1872.042	6539
1874.16	6693
1876.275	6512
1878.39	6440
1880.504	6579
1882.618	6521
1884.731	6624
1886.843	6529
1888.956	6619
1891.067	6599
1893.178	6599
1895.287	6531
1897.399	6571
1899.508	6515
1901.617	6603
1903.724	6559
1905.832	6598
1907.941	6642
1910.046	6717
1912.152	6585
1914.256	6623
1916.361	6602
1918.464	6634
1920.57	6607
1922.672	6666
1924.775	6681
1926.876	6749
1928.978	6628
1931.08	6693
1933.181	6803
1935.28	6660
1937.38	6629
1939.478	6602
1941.577	6644
1943.675	6727
1945.771	6685
1947.867	6577
1949.964	6822
1952.058	6695
1954.154	6593
1956.248	6709
1958.343	6671
1960.435	6559
1962.527	6689
1964.62	6595
1966.711	6533
1968.802	6734
1970.892	6595
1972.983	6600
1975.072	6579
1977.162	6567
1979.25	6632
1981.337	6574
1983.424	6528
1985.51	6633
1987.598	6679
1989.683	6516
1991.768	6577
1993.852	6550
1995.934	6618
1998.019	6588
2000.102	6474
2002.184	6533
2004.266	6518
2006.347	6571
2008.427	6681
2010.508	6688
2012.587	6657
2014.666	6515
2016.745	6493
2018.821	6505
2020.9	6456
2022.977	6533
2025.052	6594
2027.128	6605
2029.204	6694
2031.277	6530
2033.353	6555
2035.425	6561
2037.499	6540
2039.57	6573
2041.642	6494
2043.714	6578
2045.786	6681
2047.855	6575
2049.925	6564
2051.993	6423
2054.064	6629
2056.132	6513
2058.2	6558
2060.266	6544
2062.332	6562
2064.398	6574
2066.465	6554
2068.529	6549
2070.592	6445
2072.657	6525
2074.719	6570
2076.783	6576
2078.845	6611
2080.907	6512
2082.968	6567
2085.028	6513
2087.087	6525
2089.148	6459
2091.207	6514
2093.264	6455
2095.322	6649
2097.379	6444
2099.439	6648
2101.495	6441
2103.55	6482
2105.605	6499
2107.658	6423
2109.713	6595
2111.767	6489
2113.82	6519
2115.872	6486
2117.924	6562
2119.975	6444
2122.028	6550
2124.078	6547
2126.126	6541
2128.176	6635
2130.225	6410
2132.275	6443
2134.321	6546
2136.368	6398
2138.415	6582
2140.461	6540
2142.505	6559
2144.552	6492
2146.597	6554
2148.64	6443
2150.684	6589
2152.725	6483
2154.77	6496
2156.811	6507
2158.852	6490
2160.894	6443
2162.933	6470
2164.973	6463
2167.013	6369
2169.051	6412
2171.089	6543
2173.126	6427
2175.164	6498
2177.201	6497
2179.236	6490
2181.273	6420
2183.307	6542
2185.341	6611
2187.377	6400
2189.41	6459
2191.442	6308
2193.473	6489
2195.506	6394
2197.539	6366
2199.569	6380
2201.598	6364
2203.628	6295
2205.656	6364
2207.686	6310
2209.716	6341
2211.743	6361
2213.769	6213
2215.796	6413
2217.821	6343
2219.848	6329
2221.873	6407
2223.897	6263
2225.921	6268
2227.944	6336
2229.967	6313
2231.991	6491
2234.011	6423
2236.032	6247
2238.053	6337
2240.073	6301
2242.094	6268
2244.114	6358
2246.131	6356
2248.149	6407
2250.167	6318
2252.186	6361
2254.201	6309
2256.218	6279
2258.233	6233
2260.247	6277
2262.262	6389
2264.278	6343
2266.29	6293
2268.303	6234
2270.315	6188
2272.327	6369
2274.341	6383
2276.35	6347
2278.361	6382
2280.37	6310
2282.38	6329
2284.388	6330
2286.397	6248
2288.405	6180
2290.412	6339
2292.419	6302
2294.425	6247
2296.431	6196
2298.437	6334
2300.441	6294
2302.445	6308
2304.449	6342
2306.453	6222
2308.455	6187
2310.457	6256
2312.459	6260
2314.46	6191
2316.46	6273
2318.461	6295
2320.46	6250
2322.458	6299
2324.458	6293
2326.456	6166
2328.455	6283
2330.451	6278
2332.447	6214
2334.443	6150
2336.438	6264
2338.433	6162
2340.429	6148
2342.422	6151
2344.416	6057
2346.408	6229
2348.399	6180
2350.393	6176
2352.384	6238
2354.375	6162
2356.365	6125
2358.355	6197
2360.344	6152
2362.333	6115
2364.322	6180
2366.309	6103
2368.295	6178
2370.282	6213
2372.27	6184
2374.256	6067
2376.24	6161
2378.225	6139
2380.208	6065
2382.194	6104
2384.177	6037
2386.159	6161
2388.142	6062
2390.122	6077
2392.105	6097
2394.085	6139
2396.066	5988
2398.044	6028
2400.024	6088
2402.002	6046
2403.982	6071
2405.959	6073
2407.935	6039
2409.913	6015
2411.888	5987
2413.865	6084
2415.84	6020
2417.814	6113
2419.788	6082
2421.762	6126
2423.735	6032
2425.708	6133
2427.68	6077
2429.651	6011
2431.623	6068
2433.593	6071
2435.564	6001
2437.533	6030
2439.502	6113
2441.47	6038
2443.438	6061
2445.406	6085
2447.373	6111
2449.34	6163
2451.305	6088
2453.271	5933
2455.235	6044
2457.201	6015
2459.165	6009
2461.129	6105
2463.092	5963
2465.054	6086
2467.018	5934
2468.978	6068
2470.939	5855
2472.899	6062
2474.86	5976
2476.819	5865
2478.778	5909
2480.737	6090
2482.695	5870
2484.653	5970
2486.609	5984
2488.567	5936
2490.524	5861
2492.478	5976
2494.433	5933
2496.387	6021
2498.343	5777
2500.297	5925
2502.249	5929
2504.202	5869
2506.153	5912
2508.105	6005
2510.057	5890
2512.008	5868
2513.957	6056
2515.906	5977
2517.855	5876
2519.805	5855
2521.754	5946
2523.7	5872
2525.647	5915
2527.594	5937
2529.54	5940
2531.486	5869
2533.431	5887
2535.376	5934
2537.32	5918
2539.263	5913
2541.207	5985
2543.151	5927
2545.093	5892
2547.034	5874
2548.975	5926
2550.917	5830
2552.856	5863
2554.796	5917
2556.735	5771
2558.673	5924
2560.611	5946
2562.55	5808
2564.487	5874
2566.424	5828
2568.36	5817
2570.296	5950
2572.232	5841
2574.167	5946
2576.101	5859
2578.035	5859
2579.969	5870
2581.902	5911
2583.834	5880
2585.766	5962
2587.698	5790
2589.628	5908
2591.557	5853
2593.489	5877
2595.419	5862
2597.348	6005
2599.275	5865
2601.204	5966
2603.131	5848
2605.059	5793
2606.986	5924
2608.911	5883
2610.837	5909
2612.76	5651
2614.687	5889
2616.61	5764
2618.534	5823
2620.457	5947
2622.38	5894
2624.302	5931
2626.225	5787
2628.145	5881
2630.067	5859
2631.986	5926
2633.906	5851
2635.827	5790
2637.745	5910
2639.662	5845
2641.581	5894
2643.498	5870
2645.415	5919
2647.331	5912
2649.248	5725
2651.163	5851
2653.077	5801
2654.993	5804
2656.906	5865
2658.821	5891
2660.733	5881
2662.646	5797
2664.557	5858
2666.47	5922
2668.381	5895
2670.291	5829
2672.201	5790
2674.11	5796
2676.021	5828
2677.929	5807
2679.837	5859
2681.745	5796
2683.652	5901
2685.56	5738
2687.466	5952
2689.371	5855
2691.276	5755
2693.181	5778
2695.085	5764
2696.991	5751
2698.893	5818
2700.796	5800
2702.698	5815
2704.601	5830
2706.502	5747
2708.404	5742
2710.304	5769
2712.203	5697
2714.103	5766
2716.003	5778
2717.902	5801
2719.8	5755
2721.697	5703
2723.594	5599
2725.49	5673
2727.389	5665
2729.283	5717
2731.179	5769
2733.073	5737
2734.968	5711
2736.863	5745
2738.757	5726
2740.649	5696
2742.541	5694
2744.433	5687
2746.324	5772
2748.216	5604
2750.107	5711
2751.997	5775
2753.886	5735
2755.776	5650
2757.666	5734
2759.553	5755
2761.44	5674
2763.327	5674
2765.215	5730
2767.102	5596
2768.988	5685
2770.873	5631
2772.757	5621
2774.641	5697
2776.525	5701
2778.41	5692
2780.292	5734
2782.175	5708
2784.057	5611
2785.938	5663
2787.821	5575
2789.701	5647
2791.581	5568
2793.461	5549
2795.34	5570
2797.219	5536
2799.099	5536
2800.975	5585
2802.853	5660
2804.73	5556
2806.606	5705
2808.484	5581
2810.358	5621
2812.233	5700
2814.108	5531
2815.981	5601
2817.857	5570
2819.73	5498
2821.602	5536
2823.474	5525
2825.346	5651
2827.217	5575
2829.089	5560
2830.959	5644
2832.829	5553
2834.698	5670
2836.567	5488
2838.436	5580
2840.305	5607
2842.172	5616
2844.04	5564
2845.905	5608
2847.772	5602
2849.639	5634
2851.503	5700
2853.369	5693
2855.232	5624
2857.096	5650
2858.961	5606
2860.824	5607
2862.686	5689
2864.547	5692
2866.41	5721
2868.272	5641
2870.132	5682
2871.992	5708
2873.851	5735
2875.711	5775
2877.57	5860
2879.429	5817
2881.287	5953
2883.144	5815
2885.001	5970
2886.857	5916
2888.714	5924
2890.57	5876
2892.425	5836
2894.279	5870
2896.133	5905
2897.987	5846
2899.842	5906
2901.694	5799
2903.547	5918
2905.397	5941
2907.249	5809
2909.101	5907
2910.952	5857
2912.802	5815
2914.652	5850
2916.5	5911
2918.35	6018
2920.198	6010
2922.045	5890
2923.893	5988
2925.74	5955
2927.585	6181
2929.433	6026
2931.279	6172
2933.123	6200
2934.968	6205
2936.811	6096
2938.656	6268
2940.5	6271
2942.342	6338
2944.185	6256
2946.026	6337
2947.87	6352
2949.71	6284
2951.549	6256
2953.39	6365
2955.229	6296
2957.069	6264
2958.908	6072
2960.746	6127
2962.584	6154
2964.421	6108
2966.257	6169
2968.094	5996
2969.931	5951
2971.766	6007
2973.601	5969
2975.435	5882
2977.27	5815
2979.105	5743
2980.938	5804
2982.77	5710
2984.602	5698
2986.434	5706
2988.267	5693
2990.097	5802
2991.927	5721
2993.757	5762
2995.587	5551
2997.417	5656
2999.246	5587
3001.074	5593
3002.902	5490
3004.729	5498
3006.556	5531
3008.384	5509
3010.21	5330
3012.036	5438
3013.861	5405
3015.684	5374
3017.51	5323
3019.334	5377
3021.157	5346
3022.981	5390
3024.802	5309
3026.624	5407
3028.448	5339
3030.267	5329
3032.088	5260
3033.909	5265
3035.728	5254
3037.549	5191
3039.368	5266
3041.186	5266
3043.004	5193
3044.821	5207
3046.64	5147
3048.455	5250
3050.272	5108
3052.087	5207
3053.903	5211
3055.717	5142
3057.534	5111
3059.347	5108
3061.16	5220
3062.974	5212
3064.785	5142
3066.598	5222
3068.411	5155
3070.222	5170
3072.032	5039
3073.844	5152
3075.653	5077
3077.463	5140
3079.272	5105
3081.08	5073
3082.889	5115
3084.697	5074
3086.505	5182
3088.312	5028
3090.118	5128
3091.924	5022
3093.729	5162
3095.535	5000
3097.34	5164
3099.144	4952
3100.947	5035
3102.75	5100
3104.553	4933
3106.357	5011
3108.159	5065
3109.961	5046
3111.762	5037
3113.562	4984
3115.365	5034
3117.164	5085
3118.964	5068
3120.761	5071
3122.56	4888
3124.36	5012
3126.158	4959
3127.954	4894
3129.75	4903
3131.547	5024
3133.343	4995
3135.139	4941
3136.934	5002
3138.729	4944
3140.522	4957
3142.317	4962
3144.11	4886
3145.904	4983
3147.695	4904
3149.488	4872
3151.28	4836
3153.07	4874
3154.863	4866
3156.652	4904
3158.441	4915
3160.231	4827
3162.019	4883
3163.81	4859
3165.597	4868
3167.384	4906
3169.172	4889
3170.958	4789
3172.745	4927
3174.532	4865
3176.317	4809
3178.101	4780
3179.885	4836
3181.67	4720
3183.455	4767
3185.238	4809
3187.02	4764
3188.802	4829
3190.585	4790
3192.368	4764
3194.149	4825
3195.929	4857
3197.709	4764
3199.489	4816
3201.268	4742
3203.048	4834
3204.826	4810
3206.604	4812
3208.382	4815
3210.159	4751
3211.937	4834
3213.713	4792
3215.489	4725
3217.263	4726
3219.038	4728
3220.815	4802
3222.589	4769
3224.363	4763
3226.136	4794
3227.908	4719
3229.681	4794
3231.454	4738
3233.226	4710
3234.996	4722
3236.767	4851
3238.538	4722
3240.308	4773
3242.078	4704
3243.847	4773
3245.615	4774
3247.384	4602
3249.15	4793
3250.92	4652
3252.686	4810
3254.453	4759
3256.218	4752
3257.984	4672
3259.75	4687
3261.515	4710
3263.279	4790
3265.044	4626
3266.806	4737
3268.57	4657
3270.334	4746
3272.095	4764
3273.856	4662
3275.619	4741
3277.379	4689
3279.14	4769
3280.9	4718
3282.661	4719
3284.419	4699
3286.178	4654
3287.937	4782
3289.695	4687
3291.453	4639
3293.21	4724
3294.967	4689
3296.723	4699
3298.48	4666
3300.235	4686
3301.99	4772
3303.744	4710
3305.498	4680
3307.253	4666
3309.006	4672
3310.759	4752
3312.511	4671
3314.263	4764
3316.017	4708
3317.768	4736
3319.519	4679
3321.268	4673
3323.018	4672
3324.767	4637
3326.518	4543
3328.267	4651
3330.014	4714
3331.762	4677
3333.509	4696
3335.258	4728
3337.003	4628
3338.75	4745
3340.496	4637
3342.24	4650
3343.987	4585
3345.732	4641
3347.475	4667
3349.219	4574
3350.961	4593
3352.705	4594
3354.448	4638
3356.19	4658
3357.931	4603
3359.672	4634
3361.412	4581
3363.155	4528
3364.894	4626
3366.633	4496
3368.372	4604
3370.11	4636
3371.849	4532
3373.588	4616
3375.325	4582
3377.061	4505
3378.799	4529
3380.534	4462
3382.271	4527
3384.006	4504
3385.741	4563
3387.475	4560
3389.209	4482
3390.944	4551
3392.677	4585
3394.409	4409
3396.143	4465
3397.874	4518
3399.606	4470
3401.338	4548
3403.069	4517
3404.799	4461
3406.528	4612
3408.258	4418
3409.988	4501
3411.717	4515
3413.445	4499
3415.173	4534
3416.899	4570
3418.626	4531
3420.354	4443
3422.08	4483
3423.806	4405
3425.531	4430
3427.255	4469
3428.981	4449
3430.705	4454
3432.429	4460
3434.151	4411
3435.875	4435
3437.599	4389
3439.321	4401
3441.042	4417
3442.763	4378
3444.483	4312
3446.204	4493
3447.926	4451
3449.645	4327
3451.364	4319
3453.082	4299
3454.801	4411
3456.52	4242
3458.238	4357
3459.954	4292
3461.671	4321
3463.387	4338
3465.104	4347
3466.82	4349
3468.534	4383
3470.25	4344
3471.963	4339
3473.676	4308
3475.392	4240
3477.104	4300
3478.817	4323
3480.528	4313
3482.241	4360
3483.954	4285
3485.664	4264
3487.374	4220
3489.084	4258
3490.795	4247
3492.504	4158
3494.214	4141
3495.922	4166
3497.63	4233
3499.338	4266
3501.045	4212
3502.753	4207
3504.459	4262
3506.166	4221
3507.871	4203
3509.576	4204
3511.283	4192
3512.987	4210
3514.691	4226
3516.395	4216
3518.098	4118
3519.8	4296
3521.504	4185
3523.206	4158
3524.908	4115
3526.609	4119
3528.309	4229
3530.011	4252
3531.711	4115
3533.411	4075
3535.109	4102
3536.808	4138
3538.507	4161
3540.206	4098
3541.904	4138
3543.601	4129
3545.297	4072
3546.994	4065
3548.69	4090
3550.387	4068
3552.081	4111
3553.776	4043
3555.47	4097
3557.166	4082
3558.859	4035
3560.553	4066
3562.245	4097
3563.938	4089
3565.629	4028
3567.322	4106
3569.014	4010
3570.704	4067
3572.394	4066
3574.084	4077
3575.775	4164
3577.464	3958
3579.152	3998
3580.842	4077
3582.529	3977
3584.216	3958
3585.905	4079
3587.591	3958
3589.279	3973
3590.964	3980
3592.649	4054
3594.336	3972
3596.021	4018
3597.705	3990
3599.388	3987
3601.072	4008
3602.757	3872
3604.439	3927
3606.122	3874
3607.803	3896
3609.485	3940
3611.167	3948
3612.849	3984
3614.529	4016
3616.208	3901
3617.888	3865
3619.567	3950
3621.247	4024
3622.926	3920
3624.603	3896
3626.281	3987
3627.958	3829
3629.635	3851
3631.312	3784
3632.989	3897
3634.665	3889
3636.339	3834
3638.014	3818
3639.691	3909
3641.364	3860
3643.038	3783
3644.71	3776
3646.384	3861
3648.058	3812
3649.729	3817
3651.402	3784
3653.073	3802
3654.744	3831
3656.414	3888
3658.085	3790
3659.755	3751
3661.424	3848
3663.094	3721
3664.762	3664
3666.431	3783
3668.099	3793
3669.766	3779
3671.433	3825
3673.099	3797
3674.768	3797
3676.433	3747
3678.098	3777
3679.763	3738
3681.428	3753
3683.093	3725
3684.757	3700
3686.421	3770
3688.083	3728
3689.746	3669
3691.408	3683
3693.071	3652
3694.733	3663
3696.394	3650
3698.054	3778
3699.715	3767
3701.375	3683
3703.036	3735
3704.695	3694
3706.354	3657
3708.012	3718
3709.67	3636
3711.329	3689
3712.987	3637
3714.644	3740
3716.299	3711
3717.955	3670
3719.613	3712
3721.268	3646
3722.923	3673
3724.577	3698
3726.231	3724
3727.885	3636
3729.539	3605
3731.192	3684
3732.845	3698
3734.497	3634
3736.149	3627
3737.802	3673
3739.453	3736
3741.104	3596
3742.753	3623
3744.404	3665
3746.052	3707
3747.704	3688
3749.352	3627
3751	3607
3752.648	3638
3754.296	3616
3755.944	3554
3757.59	3609
3759.238	3572
3760.883	3599
3762.528	3605
3764.176	3490
3765.82	3573
3767.464	3574
3769.109	3554
3770.753	3654
3772.396	3551
3774.04	3583
3775.683	3565
3777.325	3544
3778.967	3590
3780.608	3587
3782.25	3557
3783.89	3516
3785.531	3464
3787.17	3616
3788.81	3522
3790.45	3456
3792.09	3538
3793.729	3546
3795.366	3519
3797.003	3480
3798.64	3605
3800.278	3496
3801.915	3423
3803.551	3469
3805.187	3557
3806.822	3517
3808.458	3503
3810.093	3443
3811.726	3443
3813.36	3492
3814.994	3465
3816.627	3490
3818.262	3477
3819.893	3450
3821.525	3488
3823.157	3411
3824.787	3456
3826.42	3521
3828.051	3452
3829.68	3387
3831.31	3494
3832.938	3425
3834.569	3417
3836.198	3428
3837.825	3401
3839.454	3426
3841.08	3333
3842.708	3333
3844.335	3392
3845.962	3362
3847.587	3359
3849.212	3429
3850.838	3345
3852.463	3391
3854.089	3361
3855.712	3370
3857.335	3415
3858.959	3385
3860.582	3455
3862.205	3399
3863.827	3386
3865.449	3406
3867.07	3372
3868.691	3446
3870.312	3295
3871.933	3386
3873.553	3430
3875.173	3358
3876.792	3360
3878.411	3314
3880.03	3412
3881.647	3349
3883.265	3377
3884.882	3369
3886.499	3324
3888.116	3283
3889.732	3346
3891.348	3366
3892.964	3294
3894.579	3326
3896.195	3340
3897.809	3277
3899.423	3351
3901.036	3321
3902.648	3260
3904.261	3389
3905.875	3321
3907.487	3261
3909.099	3276
3910.709	3287
3912.321	3440
3913.933	3296
3915.542	3336
3917.152	3259
3918.762	3306
3920.37	3373
3921.98	3368
3923.589	3250
3925.196	3273
3926.804	3340
3928.41	3311
3930.018	3346
3931.626	3265
3933.231	3291
3934.838	3277
3936.442	3290
3938.046	3239
3939.653	3315
3941.257	3222
3942.861	3324
3944.464	3238
3946.068	3279
3947.67	3250
3949.273	3300
3950.876	3212
3952.477	3237
3954.078	3300
3955.678	3313
3957.281	3196
3958.881	3232
3960.48	3193
3962.079	3180
3963.678	3147
3965.279	3192
3966.877	3190
3968.475	3236
3970.072	3219
3971.669	3243
3973.266	3174
3974.864	3244
3976.459	3179
3978.055	3174
3979.65	3199
3981.245	3232
3982.841	3156
3984.436	3189
3986.03	3149
3987.623	3132
3989.216	3149
3990.809	3152
3992.403	3109
3993.995	3110
3995.586	3115
3997.177	3050
3998.768	3103
4000.361	3030
4001.951	3107
4003.54	3076
4005.13	3061
4006.719	3087
4008.31	3052
4009.897	3111
4011.485	3137
4013.073	3033
4014.66	3097
4016.247	3031
4017.834	3061
4019.421	3054
4021.006	2988
4022.592	2999
4024.178	3055
4025.763	3068
4027.348	3026
4028.932	3038
4030.515	3022
4032.099	3042
4033.682	3068
4035.266	3025
4036.847	3068
4038.429	3027
4040.011	2978
4041.592	3045
4043.173	3045
4044.755	2999
4046.334	2968
4047.913	3004
4049.494	2974
4051.074	3065
4052.652	3046
4054.23	2933
4055.807	2984
4057.385	2913
4058.963	2975
4060.541	3054
4062.117	3000
4063.693	3042
4065.269	2977
4066.844	3005
4068.42	2931
4069.995	2990
4071.569	2946
4073.143	2956
4074.716	2987
4076.291	2967
4077.864	2895
4079.436	3005
4081.009	2967
4082.58	2943
4084.152	2953
4085.723	3011
4087.294	2924
4088.865	2969
4090.435	2942
4092.005	2918
4093.574	2960
4095.143	2935
4096.712	2927
4098.279	2968
4099.848	2851
4101.416	2925
4102.984	2936
4104.55	2868
4106.117	2858
4107.682	2949
4109.248	2864
4110.815	2883
4112.379	2858
4113.945	2914
4115.508	2914
4117.073	2839
4118.637	2845
4120.201	2890
4121.763	2889
4123.325	2845
4124.888	2848
4126.449	2926
4128.013	2788
4129.573	2860
4131.133	2842
4132.694	2872
4134.254	2908
4135.814	2904
4137.374	2838
4138.933	2884
4140.491	2848
4142.049	2817
4143.607	2870
4145.167	2849
4146.724	2825
4148.28	2816
4149.836	2754
4151.392	2838
4152.949	2840
4154.504	2814
4156.059	2787
4157.614	2808
4159.168	2778
4160.723	2777
4162.277	2784
4163.83	2824
4165.383	2819
4166.936	2810
4168.488	2770
4170.041	2831
4171.593	2809
4173.144	2735
4174.695	2766
4176.246	2795
4177.796	2757
4179.346	2752
4180.896	2738
4182.445	2691
4183.994	2697
4185.542	2762
4187.091	2679
4188.639	2714
4190.185	2758
4191.732	2660
4193.279	2699
4194.826	2682
4196.373	2700
4197.918	2784
4199.463	2735
4201.008	2755
4202.553	2695
4204.098	2720
4205.641	2683
4207.185	2640
4208.728	2700
4210.271	2731
4211.814	2667
4213.357	2696
4214.898	2674
4216.439	2704
4217.98	2673
4219.522	2637
4221.062	2689
4222.603	2645
4224.142	2685
4225.681	2699
4227.222	2642
4228.76	2685
4230.298	2680
4231.835	2600
4233.373	2622
4234.911	2733
4236.449	2604
4237.985	2635
4239.521	2706
4241.057	2634
4242.592	2661
4244.128	2640
4245.663	2597
4247.197	2642
4248.731	2581
4250.265	2639
4251.798	2571
4253.333	2599
4254.865	2582
4256.397	2650
4257.93	2619
4259.461	2659
4260.994	2585
4262.525	2619
4264.056	2563
4265.586	2572
4267.115	2585
4268.646	2619
4270.176	2573
4271.705	2572
4273.232	2617
4274.761	2583
4276.289	2633
4277.818	2545
4279.345	2570
4280.872	2578
4282.399	2617
4283.924	2557
4285.452	2592
4286.976	2603
4288.502	2614
4290.026	2570
4291.551	2542
4293.074	2554
4294.6	2551
4296.123	2562
4297.646	2552
4299.168	2611
4300.691	2482
4302.214	2543
4303.736	2593
4305.257	2545
4306.778	2536
4308.299	2579
4309.82	2553
4311.34	2491
4312.86	2519
4314.379	2527
