400.0745	4133
402.597	4088
405.1208	4125
407.6419	4101
410.1623	4126
412.6819	4119
415.201	4114
417.7172	4250
420.2369	4196
422.7538	4281
425.2701	4241
427.7856	4347
430.3005	4329
432.8147	4462
435.3282	4320
437.841	4259
440.3511	4248
442.8625	4372
445.3753	4324
447.8854	4437
450.3927	4329
452.9014	4407
455.4073	4395
457.9146	4439
460.4233	4335
462.9272	4339
465.4325	4437
467.935	4303
470.4389	4375
472.9421	4347
475.4446	4476
477.9444	4335
480.4456	4466
482.944	4367
485.4417	4397
487.9429	4408
490.4393	4443
492.935	4406
495.4321	4515
497.9264	4526
500.4221	4555
502.9171	4496
505.4094	4568
507.9011	4559
510.392	4585
512.8864	4588
515.3759	4519
517.8649	4584
520.3531	4591
522.8406	4585
525.3275	4528
527.8178	4467
530.3033	4530
532.7881	4486
535.2723	4549
537.7558	4583
540.2407	4535
542.7228	4641
545.2043	4610
547.6851	4609
550.1652	4644
552.6467	4575
555.1255	4624
557.6016	4551
560.079	4650
562.5557	4677
565.0318	4532
567.5092	4725
569.984	4770
572.456	4739
574.9294	4655
577.4022	4696
579.8762	4679
582.3456	4707
584.8163	4766
587.2863	4834
589.7557	4782
592.2224	4786
594.6924	4690
597.1578	4768
599.6245	4783
602.0905	4660
604.5538	4741
607.0206	4732
609.4825	4807
611.9459	4730
614.4066	4757
616.8686	4763
619.33	4679
621.7906	4728
624.2487	4671
626.708	4801
629.1647	4662
631.6207	4694
634.0801	4842
636.5348	4782
638.9888	4803
641.4442	4724
643.8969	4766
646.3509	4762
648.8022	4731
651.255	4756
653.705	4789
656.1544	4847
658.6031	4764
661.0532	4803
663.5026	4895
665.9493	4902
668.3954	4880
670.8409	4799
673.2877	4853
675.7318	4840
678.1752	4981
680.618	4920
683.0601	4891
685.5035	4914
687.9444	4885
690.3845	5017
692.824	4866
695.2628	4881
697.701	4992
700.1406	4959
702.5774	4959
705.0116	4854
707.4472	4998
709.8821	4997
712.3183	4967
714.7519	5024
717.1829	5050
719.6151	4973
722.0468	5089
724.4777	5048
726.908	5093
729.3377	5011
731.7667	5138
734.1931	5147
736.6208	5025
739.0498	5118
741.4742	5063
743.9	5162
746.3231	5218
748.7476	5114
751.1713	5246
753.5945	5263
756.015	5271
758.4368	5322
760.856	5220
763.2766	5253
765.6965	5232
768.1157	5277
770.5323	5151
772.9483	5409
775.3656	5302
777.7822	5271
780.1963	5261
782.6116	5238
785.0244	5181
787.4365	5349
789.8499	5199
792.2626	5281
794.6728	5224
797.0823	5284
799.4911	5380
801.8994	5269
804.3109	5280
806.7178	5307
809.124	5309
811.5297	5361
813.9347	5214
816.341	5390
818.7447	5331
821.1478	5276
823.5502	5305
825.952	5392
828.3531	5301
830.7556	5225
833.1554	5335
835.5546	5324
837.9532	5390
840.3511	5341
842.7504	5476
845.1451	5461
847.5411	5412
849.9365	5467
852.3312	5463
854.7272	5513
857.1187	5538
859.5115	5413
861.9037	5393
864.2952	5472
866.6842	5457
869.0764	5411
871.4661	5422
873.8531	5489
876.2415	5379
878.6272	5589
881.0162	5373
883.4026	5417
885.7866	5508
888.1717	5499
890.5543	5432
892.9382	5420
895.3215	5488
897.7041	5456
900.0842	5388
902.4655	5429
904.8443	5500
907.2244	5392
909.6039	5490
911.9808	5462
914.357	5519
916.7346	5631
919.1115	5708
921.4859	5579
923.8616	5678
926.2347	5651
928.6071	5594
930.979	5624
933.3541	5759
935.7247	5755
938.0946	5750
940.4639	5665
942.8326	5734
945.2026	5795
947.5701	5911
949.9369	5992
952.305	6276
954.6705	6190
957.0355	6480
959.4017	6635
961.7654	6612
964.1284	6520
966.4908	6498
968.8527	6378
971.2138	6057
973.5743	5980
975.9343	5929
978.2936	5777
980.6522	5724
983.0122	5607
985.3696	5595
987.7245	5654
990.0807	5601
992.4362	5616
994.7911	5724
997.1474	5641
999.4991	5598
1001.852	5696
1004.205	5728
1006.555	5584
1008.908	5695
1011.258	5617
1013.606	5694
1015.956	5669
1018.302	5684
1020.652	5600
1022.998	5713
1025.345	5652
1027.691	5722
1030.035	5758
1032.378	5719
1034.724	5674
1037.066	5772
1039.409	5680
1041.75	5639
1044.092	5837
1046.433	5717
1048.771	5739
1051.112	5886
1053.449	5697
1055.786	5695
1058.124	5751
1060.462	5731
1062.797	5838
1065.131	5937
1067.467	5842
1069.8	5727
1072.135	5791
1074.467	5778
1076.798	5953
1079.129	5949
1081.459	5652
1083.792	5746
1086.121	5860
1088.449	5801
1090.777	5861
1093.104	5740
1095.431	5731
1097.759	5667
1100.084	5807
1102.408	5700
1104.732	5742
1107.056	5763
1109.379	5799
1111.701	5660
1114.022	5710
1116.343	5743
1118.664	5782
1120.983	5689
1123.303	5811
1125.621	5927
1127.939	5754
1130.256	5875
1132.573	5755
1134.889	5846
1137.205	5814
1139.52	5876
1141.832	5719
1144.146	5762
1146.461	5840
1148.771	5799
1151.083	5881
1153.392	5836
1155.703	5749
1158.011	5790
1160.323	5781
1162.629	5777
1164.938	5797
1167.243	5842
1169.55	5804
1171.857	5828
1174.163	5850
1176.466	5782
1178.769	5768
1181.073	5632
1183.374	5767
1185.677	5784
1187.979	5676
1190.279	5802
1192.578	5742
1194.878	5791
1197.178	5797
1199.476	5794
1201.772	5779
1204.068	5888
1206.366	5832
1208.663	5848
1210.957	5802
1213.251	5847
1215.544	5761
1217.836	5840
1220.128	5848
1222.421	5795
1224.712	5852
1227.002	5846
1229.292	5949
1231.581	5871
1233.871	5844
1236.159	5947
1238.446	6010
1240.732	5999
1243.018	5940
1245.304	5986
1247.59	6091
1249.874	6083
1252.156	6005
1254.439	6010
1256.721	6070
1259.005	5956
1261.286	5989
1263.565	6018
1265.845	5984
1268.125	5929
1270.403	6058
1272.682	6021
1274.959	5899
1277.234	6047
1279.511	6019
1281.787	6038
1284.062	5976
1286.337	5988
1288.609	5828
1290.882	6017
1293.153	5822
1295.428	5992
1297.698	5958
1299.969	5934
1302.237	5893
1304.507	5866
1306.777	5896
1309.044	5875
1311.312	5882
1313.578	5821
1315.844	5891
1318.109	5896
1320.375	5841
1322.638	5874
1324.903	5872
1327.165	5835
1329.427	5989
1331.69	5905
1333.952	5996
1336.212	5984
1338.471	5931
1340.73	5944
1342.988	6035
1345.248	6057
1347.505	6007
1349.763	5947
1352.019	5815
1354.274	5976
1356.53	5873
1358.784	5883
1361.038	5895
1363.291	5874
1365.543	5959
1367.797	5942
1370.048	5939
1372.296	5891
1374.546	5960
1376.796	5977
1379.045	5931
1381.295	5998
1383.542	6070
1385.787	6049
1388.034	5895
1390.28	5972
1392.527	5944
1394.772	6056
1397.014	5950
1399.258	5900
1401.501	6010
1403.741	6042
1405.985	6060
1408.226	5983
1410.465	6092
1412.705	6008
1414.943	6002
1417.184	6120
1419.42	6075
1421.658	6003
1423.894	6099
1426.13	6005
1428.366	6130
1430.602	6087
1432.835	6119
1435.069	6174
1437.301	6141
1439.535	6154
1441.767	6155
1443.997	6137
1446.229	6249
1448.458	6206
1450.687	6216
1452.916	6261
1455.146	6073
1457.372	6230
1459.599	6278
1461.824	6200
1464.051	6209
1466.277	6203
1468.501	6043
1470.725	6177
1472.948	6102
1475.17	6109
1477.393	6091
1479.614	6148
1481.837	6029
1484.057	5986
1486.276	6013
1488.497	5891
1490.715	5963
1492.932	5911
1495.148	5883
1497.364	5975
1499.58	5959
1501.798	5936
1504.012	5837
1506.227	5969
1508.44	5919
1510.653	5887
1512.866	5900
1515.078	5856
1517.289	5934
1519.5	5910
1521.711	5886
1523.92	6031
1526.13	5882
1528.338	5958
1530.544	5849
1532.752	6044
1534.959	5859
1537.165	5923
1539.371	5901
1541.574	5914
1543.779	5933
1545.983	5800
1548.187	5884
1550.39	5973
1552.59	6008
1554.792	5987
1556.991	5941
1559.19	6055
1561.392	5903
1563.59	5902
1565.789	6093
1567.986	6041
1570.182	6078
1572.381	6053
1574.576	6047
1576.771	6064
1578.966	5955
1581.16	6087
1583.354	6154
1585.546	6058
1587.74	6053
1589.931	6166
1592.121	6072
1594.311	6158
1596.502	6082
1598.693	6026
1600.881	6132
1603.069	6082
1605.256	6227
1607.445	6134
1609.631	6171
1611.816	6096
1614.001	6108
1616.186	6008
1618.37	6045
1620.555	6114
1622.737	6145
1624.919	6166
1627.101	6235
1629.282	6096
1631.463	6269
1633.643	6235
1635.822	6239
1638.001	6134
1640.179	6156
1642.359	6195
1644.534	6175
1646.711	6192
1648.887	6129
1651.062	6148
1653.235	6181
1655.412	6262
1657.586	6153
1659.757	6228
1661.93	6201
1664.1	6288
1666.274	6254
1668.445	6160
1670.614	6169
1672.784	6290
1674.951	6338
1677.12	6216
1679.289	6254
1681.457	6122
1683.622	6171
1685.789	6242
1687.953	6077
1690.121	6245
1692.284	6130
1694.447	6149
1696.611	6101
1698.772	6190
1700.935	6075
1703.098	6157
1705.258	6074
1707.417	6206
1709.576	6148
1711.736	6147
1713.896	6129
1716.053	6095
1718.21	6114
1720.366	6058
1722.522	6078
1724.68	6065
1726.835	6039
1728.989	6059
1731.142	6099
1733.295	6101
1735.449	6151
1737.601	6015
1739.753	6091
1741.903	5991
1744.054	6088
1746.203	6156
1748.354	6028
1750.503	6152
1752.651	6151
1754.798	6060
1756.944	6094
1759.092	6184
1761.238	6158
1763.383	6148
1765.528	6103
1767.672	6154
1769.814	6060
1771.959	6268
1774.102	6067
1776.242	6207
1778.384	6163
1780.525	6203
1782.665	5974
1784.805	6124
1786.945	6058
1789.082	6088
1791.22	6139
1793.36	6011
1795.495	6148
1797.632	6160
1799.766	6100
1801.902	6066
1804.035	6143
1806.172	6171
1808.304	6079
1810.436	6061
1812.569	6091
1814.699	6122
1816.833	6151
1818.963	6159
1821.092	6107
1823.222	6147
1825.35	6117
1827.478	6089
1829.608	5996
1831.734	6104
1833.86	6190
1835.986	6123
1838.11	5942
1840.238	6053
1842.362	6051
1844.485	6105
1846.608	6109
1848.73	6132
1850.853	6098
1852.974	6142
1855.097	6063
1857.217	6006
1859.336	6030
1861.455	6007
1863.576	6056
1865.693	6116
1867.811	6043
1869.926	6054
1872.042	5952
1874.16	6152
1876.275	6078
1878.39	5975
1880.504	6114
1882.618	6119
1884.731	6021
1886.843	6134
1888.956	6080
1891.067	6059
1893.178	6200
1895.287	6052
1897.399	5982
1899.508	6204
1901.617	6133
1903.724	6006
1905.832	6184
1907.941	6023
1910.046	6076
1912.152	6054
1914.256	6110
1916.361	6166
1918.464	6198
1920.57	6234
1922.672	6068
1924.775	6026
1926.876	6124
1928.978	6165
1931.08	6093
1933.181	6240
1935.28	6157
1937.38	6050
1939.478	6085
1941.577	6145
1943.675	6231
1945.771	6086
1947.867	6076
1949.964	6142
1952.058	6239
1954.154	6099
1956.248	5986
1958.343	6184
1960.435	6179
1962.527	6147
1964.62	6107
1966.711	6136
1968.802	6156
1970.892	6135
1972.983	6150
1975.072	6168
1977.162	6020
1979.25	6137
1981.337	6186
1983.424	6167
1985.51	5963
1987.598	6185
1989.683	6099
1991.768	6124
1993.852	6194
1995.934	6130
1998.019	6160
2000.102	6015
2002.184	6005
2004.266	5996
2006.347	5994
2008.427	6090
2010.508	6149
2012.587	6015
2014.666	6066
2016.745	6131
2018.821	6051
2020.9	6023
2022.977	6001
2025.052	6053
2027.128	6112
2029.204	6125
2031.277	5951
2033.353	6141
2035.425	6075
2037.499	6091
2039.57	6141
2041.642	6068
2043.714	6027
2045.786	6004
2047.855	6097
2049.925	6048
2051.993	6065
2054.064	6084
2056.132	5859
2058.2	6061
2060.266	6122
2062.332	5893
2064.398	6035
2066.465	5924
2068.529	6083
2070.592	6056
2072.657	6088
2074.719	6087
2076.783	6094
2078.845	6046
2080.907	6042
2082.968	6019
2085.028	6050
2087.087	6059
2089.148	6070
2091.207	5992
2093.264	6134
2095.322	6102
2097.379	6068
2099.439	6068
2101.495	5997
2103.55	6051
2105.605	6083
2107.658	6110
2109.713	5964
2111.767	6068
2113.82	6086
2115.872	5973
2117.924	5958
2119.975	6008
2122.028	6110
2124.078	5957
2126.126	6093
2128.176	5984
2130.225	6007
2132.275	6021
2134.321	6011
2136.368	6021
2138.415	6076
2140.461	6062
2142.505	5995
2144.552	5942
2146.597	5953
2148.64	6083
2150.684	6018
2152.725	5946
2154.77	5975
2156.811	5898
2158.852	5948
2160.894	6041
2162.933	6008
2164.973	5893
2167.013	6002
2169.051	6034
2171.089	5951
2173.126	5912
2175.164	5874
2177.201	6034
2179.236	5973
2181.273	5896
2183.307	5905
2185.341	5962
2187.377	5902
2189.41	5893
2191.442	5901
2193.473	5951
2195.506	5957
2197.539	5873
2199.569	5869
2201.598	5800
2203.628	5923
2205.656	5875
2207.686	5886
2209.716	5866
2211.743	5911
2213.769	5796
2215.796	5823
2217.821	5908
2219.848	5770
2221.873	5803
2223.897	5940
2225.921	5919
2227.944	5912
2229.967	5892
2231.991	5778
2234.011	5839
2236.032	5802
2238.053	5697
2240.073	5813
2242.094	5885
2244.114	5824
2246.131	5746
2248.149	5805
2250.167	5846
2252.186	5750
2254.201	5815
2256.218	5827
2258.233	5795
2260.247	5812
2262.262	5880
2264.278	5831
2266.29	5776
2268.303	5963
2270.315	5833
2272.327	5843
2274.341	5834
2276.35	5818
2278.361	5782
2280.37	5786
2282.38	5795
2284.388	5792
2286.397	5862
2288.405	5833
2290.412	5907
2292.419	5852
2294.425	5934
2296.431	5832
2298.437	5776
2300.441	5692
2302.445	5855
2304.449	5886
2306.453	5898
2308.455	5716
2310.457	5837
2312.459	5887
2314.46	5781
2316.46	5770
2318.461	5784
2320.46	5738
2322.458	5874
2324.458	5751
2326.456	5826
2328.455	5764
2330.451	5767
2332.447	5695
2334.443	5604
2336.438	5698
2338.433	5726
2340.429	5764
2342.422	5739
2344.416	5736
2346.408	5744
2348.399	5751
2350.393	5776
2352.384	5768
2354.375	5816
2356.365	5753
2358.355	5598
2360.344	5628
2362.333	5687
2364.322	5790
2366.309	5785
2368.295	5770
2370.282	5733
2372.27	5704
2374.256	5686
2376.24	5657
2378.225	5822
2380.208	5689
2382.194	5650
2384.177	5668
2386.159	5734
2388.142	5511
2390.122	5633
2392.105	5636
2394.085	5589
2396.066	5613
2398.044	5657
2400.024	5694
2402.002	5669
2403.982	5544
2405.959	5646
2407.935	5695
2409.913	5614
2411.888	5612
2413.865	5622
2415.84	5621
2417.814	5568
2419.788	5590
2421.762	5517
2423.735	5511
2425.708	5599
2427.68	5601
2429.651	5643
2431.623	5593
2433.593	5686
2435.564	5568
2437.533	5660
2439.502	5621
2441.47	5614
2443.438	5595
2445.406	5501
2447.373	5548
2449.34	5646
2451.305	5541
2453.271	5553
2455.235	5582
2457.201	5591
2459.165	5521
2461.129	5653
2463.092	5580
2465.054	5566
2467.018	5513
2468.978	5618
2470.939	5560
2472.899	5562
2474.86	5511
2476.819	5595
2478.778	5527
2480.737	5638
2482.695	5493
2484.653	5531
2486.609	5513
2488.567	5523
2490.524	5541
2492.478	5463
2494.433	5461
2496.387	5519
2498.343	5449
2500.297	5501
2502.249	5487
2504.202	5610
2506.153	5525
2508.105	5573
2510.057	5486
2512.008	5363
2513.957	5484
2515.906	5500
2517.855	5500
2519.805	5427
2521.754	5548
2523.7	5431
2525.647	5517
2527.594	5473
2529.54	5417
2531.486	5446
2533.431	5472
2535.376	5470
2537.32	5415
2539.263	5420
2541.207	5505
2543.151	5423
2545.093	5400
2547.034	5445
2548.975	5525
2550.917	5585
2552.856	5436
2554.796	5452
2556.735	5433
2558.673	5339
2560.611	5463
2562.55	5503
2564.487	5465
2566.424	5456
2568.36	5439
2570.296	5532
2572.232	5350
2574.167	5456
2576.101	5346
2578.035	5408
2579.969	5445
2581.902	5381
2583.834	5371
2585.766	5536
2587.698	5356
2589.628	5572
2591.557	5475
2593.489	5456
2595.419	5482
2597.348	5369
2599.275	5429
2601.204	5461
2603.131	5392
2605.059	5497
2606.986	5476
2608.911	5407
2610.837	5534
2612.76	5440
2614.687	5441
2616.61	5507
2618.534	5458
2620.457	5488
2622.38	5429
2624.302	5474
2626.225	5352
2628.145	5416
2630.067	5487
2631.986	5407
2633.906	5393
2635.827	5385
2637.745	5479
2639.662	5495
2641.581	5461
2643.498	5452
2645.415	5440
2647.331	5448
2649.248	5534
2651.163	5392
2653.077	5491
2654.993	5380
2656.906	5363
2658.821	5396
2660.733	5422
2662.646	5371
2664.557	5516
2666.47	5357
2668.381	5420
2670.291	5409
2672.201	5356
2674.11	5345
2676.021	5419
2677.929	5483
2679.837	5372
2681.745	5450
2683.652	5413
2685.56	5397
2687.466	5274
2689.371	5391
2691.276	5367
2693.181	5356
2695.085	5361
2696.991	5324
2698.893	5420
2700.796	5268
2702.698	5345
2704.601	5371
2706.502	5332
2708.404	5281
2710.304	5269
2712.203	5348
2714.103	5434
2716.003	5437
2717.902	5384
2719.8	5298
2721.697	5282
2723.594	5379
2725.49	5381
2727.389	5249
2729.283	5333
2731.179	5296
2733.073	5311
2734.968	5299
2736.863	5252
2738.757	5279
2740.649	5315
2742.541	5322
2744.433	5311
2746.324	5321
2748.216	5326
2750.107	5223
2751.997	5260
2753.886	5204
2755.776	5369
2757.666	5223
2759.553	5236
2761.44	5235
2763.327	5273
2765.215	5124
2767.102	5174
2768.988	5296
2770.873	5276
2772.757	5201
2774.641	5207
2776.525	5224
2778.41	5208
2780.292	5195
2782.175	5210
2784.057	5153
2785.938	5243
2787.821	5165
2789.701	5232
2791.581	5298
2793.461	5222
2795.34	5192
2797.219	5246
2799.099	5252
2800.975	5195
2802.853	5218
2804.73	5243
2806.606	5204
2808.484	5190
2810.358	5215
2812.233	5255
2814.108	5158
2815.981	5095
2817.857	5201
2819.73	5250
2821.602	5183
2823.474	5220
2825.346	5274
2827.217	5177
2829.089	5179
2830.959	5201
2832.829	5131
2834.698	5191
2836.567	5203
2838.436	5165
2840.305	5112
2842.172	5298
2844.04	5179
2845.905	5128
2847.772	5201
2849.639	5157
2851.503	5155
2853.369	5260
2855.232	5256
2857.096	5179
2858.961	5166
2860.824	5160
2862.686	5236
2864.547	5254
2866.41	5401
2868.272	5356
2870.132	5354
2871.992	5470
2873.851	5460
2875.711	5361
2877.57	5465
2879.429	5451
2881.287	5445
2883.144	5448
2885.001	5461
2886.857	5570
2888.714	5509
2890.57	5505
2892.425	5651
2894.279	5548
2896.133	5465
2897.987	5534
2899.842	5507
2901.694	5585
2903.547	5593
2905.397	5592
2907.249	5509
2909.101	5557
2910.952	5550
2912.802	5572
2914.652	5562
2916.5	5593
2918.35	5623
2920.198	5531
2922.045	5576
2923.893	5770
2925.74	5813
2927.585	5686
2929.433	5795
2931.279	5865
2933.123	5931
2934.968	5800
2936.811	5830
2938.656	6041
2940.5	5978
2942.342	5987
2944.185	6159
2946.026	5991
2947.87	6031
2949.71	5949
2951.549	6054
2953.39	6041
2955.229	5936
2957.069	5897
2958.908	5837
2960.746	5876
2962.584	5897
2964.421	5748
2966.257	5676
2968.094	5685
2969.931	5714
2971.766	5625
2973.601	5609
2975.435	5584
2977.27	5658
2979.105	5535
2980.938	5616
2982.77	5505
2984.602	5490
2986.434	5519
2988.267	5446
2990.097	5452
2991.927	5433
2993.757	5349
2995.587	5321
2997.417	5235
2999.246	5272
3001.074	5164
3002.902	5143
3004.729	5223
3006.556	5107
3008.384	5120
3010.21	5099
3012.036	5021
3013.861	4972
3015.684	5034
3017.51	4955
3019.334	4938
3021.157	4951
3022.981	5037
3024.802	4909
3026.624	4970
3028.448	4995
3030.267	4944
3032.088	4898
3033.909	4832
3035.728	4875
3037.549	4804
3039.368	4949
3041.186	4798
3043.004	4781
3044.821	4884
3046.64	4890
3048.455	4862
3050.272	4769
3052.087	4804
3053.903	4796
3055.717	4709
3057.534	4892
3059.347	4780
3061.16	4864
3062.974	4733
3064.785	4790
3066.598	4749
3068.411	4775
3070.222	4825
3072.032	4693
3073.844	4895
3075.653	4836
3077.463	4860
3079.272	4791
3081.08	4796
3082.889	4765
3084.697	4653
3086.505	4758
3088.312	4628
3090.118	4786
3091.924	4613
3093.729	4583
3095.535	4748
3097.34	4723
3099.144	4688
3100.947	4565
3102.75	4739
3104.553	4661
3106.357	4728
3108.159	4575
3109.961	4719
3111.762	4566
3113.562	4632
3115.365	4602
3117.164	4640
3118.964	4598
3120.761	4568
3122.56	4732
3124.36	4570
3126.158	4509
3127.954	4634
3129.75	4612
3131.547	4606
3133.343	4607
3135.139	4545
3136.934	4640
3138.729	4562
3140.522	4574
3142.317	4687
3144.11	4627
3145.904	4560
3147.695	4620
3149.488	4577
3151.28	4577
3153.07	4618
3154.863	4457
3156.652	4500
3158.441	4554
3160.231	4566
3162.019	4507
3163.81	4417
3165.597	4512
3167.384	4464
3169.172	4616
3170.958	4504
3172.745	4548
3174.532	4422
3176.317	4402
3178.101	4519
3179.885	4424
3181.67	4389
3183.455	4430
3185.238	4461
3187.02	4447
3188.802	4534
3190.585	4409
3192.368	4415
3194.149	4437
3195.929	4417
3197.709	4418
3199.489	4468
3201.268	4495
3203.048	4520
3204.826	4425
3206.604	4515
3208.382	4426
3210.159	4336
3211.937	4523
3213.713	4448
3215.489	4414
3217.263	4427
3219.038	4398
3220.815	4382
3222.589	4413
3224.363	4451
3226.136	4482
3227.908	4384
3229.681	4557
3231.454	4454
3233.226	4442
3234.996	4316
3236.767	4408
3238.538	4485
3240.308	4397
3242.078	4445
3243.847	4513
3245.615	4418
3247.384	4379
3249.15	4417
3250.92	4411
3252.686	4479
3254.453	4425
3256.218	4539
3257.984	4393
3259.75	4426
3261.515	4357
3263.279	4447
3265.044	4419
3266.806	4480
3268.57	4392
3270.334	4492
3272.095	4388
3273.856	4429
3275.619	4362
3277.379	4456
3279.14	4447
3280.9	4390
3282.661	4489
3284.419	4401
3286.178	4354
3287.937	4443
3289.695	4329
3291.453	4384
3293.21	4438
3294.967	4439
3296.723	4313
3298.48	4380
3300.235	4388
3301.99	4432
3303.744	4307
3305.498	4393
3307.253	4339
3309.006	4359
3310.759	4429
3312.511	4393
3314.263	4317
3316.017	4476
3317.768	4382
3319.519	4391
3321.268	4348
3323.018	4393
3324.767	4370
3326.518	4455
3328.267	4392
3330.014	4414
3331.762	4356
3333.509	4402
3335.258	4283
3337.003	4324
3338.75	4364
3340.496	4349
3342.24	4262
3343.987	4349
3345.732	4378
3347.475	4378
3349.219	4270
3350.961	4307
3352.705	4332
3354.448	4228
3356.19	4213
3357.931	4262
3359.672	4381
3361.412	4203
3363.155	4270
3364.894	4252
3366.633	4287
3368.372	4283
3370.11	4398
3371.849	4310
3373.588	4200
3375.325	4191
3377.061	4224
3378.799	4254
3380.534	4280
3382.271	4203
3384.006	4264
3385.741	4234
3387.475	4269
3389.209	4299
3390.944	4134
3392.677	4174
3394.409	4114
3396.143	4313
3397.874	4203
3399.606	4286
3401.338	4177
3403.069	4298
3404.799	4311
3406.528	4154
3408.258	4237
3409.988	4197
3411.717	4165
3413.445	4164
3415.173	4161
3416.899	4102
3418.626	4261
3420.354	4260
3422.08	4149
3423.806	4141
3425.531	4191
3427.255	4180
3428.981	4135
3430.705	4093
3432.429	4127
3434.151	4062
3435.875	4207
3437.599	4098
3439.321	4147
3441.042	4117
3442.763	4074
3444.483	4133
3446.204	4080
3447.926	4068
3449.645	3987
3451.364	4044
3453.082	4106
3454.801	4145
3456.52	4066
3458.238	4035
3459.954	4041
3461.671	4060
3463.387	4042
3465.104	3968
3466.82	4052
3468.534	4025
3470.25	3982
3471.963	3972
3473.676	4021
3475.392	4034
3477.104	4002
3478.817	4018
3480.528	3988
3482.241	3997
3483.954	3979
3485.664	4069
3487.374	4043
3489.084	3902
3490.795	3960
3492.504	3967
3494.214	3962
3495.922	3959
3497.63	3904
3499.338	3952
3501.045	3953
3502.753	3922
3504.459	3879
3506.166	3859
3507.871	3936
3509.576	3810
3511.283	3959
3512.987	3955
3514.691	3800
3516.395	3880
3518.098	3964
3519.8	3950
3521.504	3869
3523.206	3900
3524.908	3878
3526.609	3947
3528.309	3837
3530.011	3838
3531.711	3925
3533.411	3859
3535.109	3891
3536.808	3871
3538.507	3914
3540.206	3905
3541.904	3794
3543.601	3769
3545.297	3862
3546.994	3807
3548.69	3734
3550.387	3845
3552.081	3842
3553.776	3805
3555.47	3829
3557.166	3792
3558.859	3758
3560.553	3767
3562.245	3806
3563.938	3788
3565.629	3810
3567.322	3841
3569.014	3774
3570.704	3782
3572.394	3801
3574.084	3747
3575.775	3748
3577.464	3738
3579.152	3782
3580.842	3787
3582.529	3692
3584.216	3692
3585.905	3675
3587.591	3675
3589.279	3695
3590.964	3684
3592.649	3652
3594.336	3689
3596.021	3734
3597.705	3708
3599.388	3630
3601.072	3642
3602.757	3608
3604.439	3685
3606.122	3670
3607.803	3710
3609.485	3599
3611.167	3663
3612.849	3610
3614.529	3654
3616.208	3680
3617.888	3638
3619.567	3651
3621.247	3668
3622.926	3518
3624.603	3676
3626.281	3618
3627.958	3632
3629.635	3613
3631.312	3612
3632.989	3532
3634.665	3637
3636.339	3564
3638.014	3620
3639.691	3552
3641.364	3553
3643.038	3540
3644.71	3521
3646.384	3470
3648.058	3579
3649.729	3533
3651.402	3524
3653.073	3523
3654.744	3527
3656.414	3527
3658.085	3508
3659.755	3492
3661.424	3471
3663.094	3528
3664.762	3464
3666.431	3618
3668.099	3506
3669.766	3476
3671.433	3447
3673.099	3386
3674.768	3523
3676.433	3551
3678.098	3499
3679.763	3476
3681.428	3500
3683.093	3451
3684.757	3416
3686.421	3451
3688.083	3479
3689.746	3410
3691.408	3459
3693.071	3343
3694.733	3461
3696.394	3411
3698.054	3391
3699.715	3438
3701.375	3476
3703.036	3359
3704.695	3413
3706.354	3371
3708.012	3546
3709.67	3429
3711.329	3405
3712.987	3377
3714.644	3436
3716.299	3383
3717.955	3463
3719.613	3330
3721.268	3389
3722.923	3344
3724.577	3413
3726.231	3397
3727.885	3378
3729.539	3334
3731.192	3404
3732.845	3421
3734.497	3351
3736.149	3339
3737.802	3354
3739.453	3344
3741.104	3323
3742.753	3382
3744.404	3394
3746.052	3386
3747.704	3368
3749.352	3364
3751	3274
3752.648	3331
3754.296	3434
3755.944	3356
3757.59	3350
3759.238	3314
3760.883	3312
3762.528	3350
3764.176	3328
3765.82	3320
3767.464	3310
3769.109	3295
3770.753	3358
3772.396	3284
3774.04	3260
3775.683	3200
3777.325	3321
3778.967	3291
3780.608	3231
3782.25	3301
3783.89	3330
3785.531	3224
3787.17	3277
3788.81	3222
3790.45	3317
3792.09	3241
3793.729	3258
3795.366	3283
3797.003	3329
3798.64	3268
3800.278	3229
3801.915	3224
3803.551	3271
3805.187	3161
3806.822	3274
3808.458	3300
3810.093	3186
3811.726	3233
3813.36	3211
3814.994	3149
3816.627	3270
3818.262	3220
3819.893	3192
3821.525	3108
3823.157	3255
3824.787	3183
3826.42	3170
3828.051	3154
3829.68	3123
3831.31	3153
3832.938	3154
3834.569	3203
3836.198	3196
3837.825	3161
3839.454	3125
3841.08	3204
3842.708	3093
3844.335	3225
3845.962	3155
3847.587	3127
3849.212	3161
3850.838	3143
3852.463	3090
3854.089	3119
3855.712	3057
3857.335	3146
3858.959	3131
3860.582	3102
3862.205	3099
3863.827	3180
3865.449	3065
3867.07	3169
3868.691	3101
3870.312	3120
3871.933	3078
3873.553	3192
3875.173	3154
3876.792	3024
3878.411	3091
3880.03	3099
3881.647	3035
3883.265	3074
3884.882	3074
3886.499	3050
3888.116	3108
3889.732	3087
3891.348	3012
3892.964	3072
3894.579	3118
3896.195	3035
3897.809	3053
3899.423	3101
3901.036	3021
3902.648	3057
3904.261	3039
3905.875	3032
3907.487	3049
3909.099	3064
3910.709	3074
3912.321	3053
3913.933	3081
3915.542	3118
3917.152	3022
3918.762	3032
3920.37	3078
3921.98	3012
3923.589	3024
3925.196	3069
3926.804	3086
3928.41	3063
3930.018	2972
3931.626	2949
3933.231	2973
3934.838	3006
3936.442	3051
3938.046	3006
3939.653	2986
3941.257	3025
3942.861	3025
3944.464	3036
3946.068	2994
3947.67	3062
3949.273	2931
3950.876	2982
3952.477	3000
3954.078	2972
3955.678	3018
3957.281	2994
3958.881	3026
3960.48	2941
3962.079	2911
3963.678	2949
3965.279	2947
3966.877	2931
3968.475	2943
3970.072	2928
3971.669	3007
3973.266	2922
3974.864	2976
3976.459	2920
3978.055	2963
3979.65	2934
3981.245	2932
3982.841	2928
3984.436	2903
3986.03	2891
3987.623	2887
3989.216	2874
3990.809	2877
3992.403	2931
3993.995	2962
3995.586	2860
3997.177	2930
3998.768	2908
4000.361	2936
4001.951	2827
4003.54	2929
4005.13	2777
4006.719	2900
4008.31	2881
4009.897	2823
4011.485	2897
4013.073	2833
4014.66	2809
4016.247	2886
4017.834	2850
4019.421	2753
4021.006	2817
4022.592	2792
4024.178	2811
4025.763	2822
4027.348	2803
4028.932	2869
4030.515	2775
4032.099	2801
4033.682	2826
4035.266	2826
4036.847	2829
4038.429	2820
4040.011	2869
4041.592	2749
4043.173	2729
4044.755	2743
4046.334	2679
4047.913	2734
4049.494	2742
4051.074	2777
4052.652	2707
4054.23	2753
4055.807	2709
4057.385	2769
4058.963	2724
4060.541	2759
4062.117	2801
4063.693	2704
4065.269	2761
4066.844	2750
4068.42	2699
4069.995	2809
4071.569	2747
4073.143	2772
4074.716	2723
4076.291	2688
4077.864	2774
4079.436	2710
4081.009	2705
4082.58	2709
4084.152	2737
4085.723	2691
4087.294	2702
4088.865	2730
4090.435	2706
4092.005	2693
4093.574	2669
4095.143	2719
4096.712	2709
4098.279	2712
4099.848	2712
4101.416	2697
4102.984	2680
4104.55	2675
4106.117	2631
4107.682	2664
4109.248	2725
4110.815	2631
4112.379	2690
4113.945	2665
4115.508	2693
4117.073	2716
4118.637	2605
4120.201	2652
4121.763	2671
4123.325	2662
4124.888	2701
4126.449	2700
4128.013	2635
4129.573	2747
4131.133	2635
4132.694	2670
4134.254	2644
4135.814	2650
4137.374	2610
4138.933	2639
4140.491	2633
4142.049	2627
4143.607	2613
4145.167	2668
4146.724	2607
4148.28	2678
4149.836	2516
4151.392	2648
4152.949	2587
4154.504	2601
4156.059	2572
4157.614	2558
4159.168	2575
4160.723	2576
4162.277	2551
4163.83	2561
4165.383	2556
4166.936	2618
4168.488	2556
4170.041	2515
4171.593	2587
4173.144	2560
4174.695	2576
4176.246	2554
4177.796	2560
4179.346	2550
4180.896	2535
4182.445	2509
4183.994	2517
4185.542	2502
4187.091	2519
4188.639	2565
4190.185	2562
4191.732	2473
4193.279	2502
4194.826	2559
4196.373	2540
4197.918	2567
4199.463	2507
4201.008	2591
4202.553	2529
4204.098	2584
4205.641	2510
4207.185	2486
4208.728	2516
4210.271	2485
4211.814	2456
4213.357	2525
4214.898	2469
4216.439	2373
4217.98	2519
4219.522	2477
4221.062	2409
4222.603	2462
4224.142	2470
4225.681	2463
4227.222	2466
4228.76	2447
4230.298	2468
4231.835	2417
4233.373	2506
4234.911	2476
4236.449	2486
4237.985	2401
4239.521	2490
4241.057	2476
4242.592	2408
4244.128	2435
4245.663	2438
4247.197	2455
4248.731	2455
4250.265	2337
4251.798	2414
4253.333	2479
4254.865	2428
4256.397	2393
4257.93	2404
4259.461	2471
4260.994	2437
4262.525	2457
4264.056	2449
4265.586	2382
4267.115	2385
4268.646	2452
4270.176	2452
4271.705	2373
4273.232	2416
4274.761	2352
4276.289	2424
4277.818	2433
4279.345	2411
4280.872	2365
4282.399	2352
4283.924	2374
4285.452	2418
4286.976	2343
4288.502	2378
4290.026	2383
4291.551	2353
4293.074	2398
4294.6	2365
4296.123	2362
4297.646	2347
4299.168	2363
4300.691	2295
4302.214	2356
4303.736	2384
4305.257	2361
4306.778	2385
4308.299	2323
4309.82	2315
4311.34	2339
4312.86	2305
4314.379	2346
