400.0745	5411
402.597	5541
405.1208	5455
407.6419	5581
410.1623	5435
412.6819	5504
415.201	5622
417.7172	5621
420.2369	5589
422.7538	5754
425.2701	5782
427.7856	5760
430.3005	5720
432.8147	5775
435.3282	5826
437.841	5774
440.3511	5689
442.8625	5813
445.3753	5867
447.8854	5955
450.3927	5907
452.9014	5826
455.4073	5897
457.9146	5853
460.4233	5931
462.9272	5866
465.4325	5858
467.935	5918
470.4389	5852
472.9421	5987
475.4446	5857
477.9444	5947
480.4456	6004
482.944	5989
485.4417	5896
487.9429	5989
490.4393	5991
492.935	6084
495.4321	6083
497.9264	6073
500.4221	6052
502.9171	6277
505.4094	6079
507.9011	6122
510.392	6136
512.8864	6168
515.3759	6118
517.8649	6116
520.3531	6097
522.8406	6183
525.3275	6099
527.8178	6272
530.3033	6128
532.7881	6159
535.2723	6240
537.7558	6264
540.2407	6247
542.7228	6170
545.2043	6155
547.6851	6185
550.1652	6262
552.6467	6156
555.1255	6264
557.6016	6227
560.079	6243
562.5557	6304
565.0318	6241
567.5092	6394
569.984	6283
572.456	6348
574.9294	6282
577.4022	6407
579.8762	6438
582.3456	6378
584.8163	6299
587.2863	6512
589.7557	6489
592.2224	6497
594.6924	6465
597.1578	6467
599.6245	6416
602.0905	6446
604.5538	6484
607.0206	6409
609.4825	6509
611.9459	6441
614.4066	6460
616.8686	6435
619.33	6384
621.7906	6407
624.2487	6480
626.708	6498
629.1647	6540
631.6207	6512
634.0801	6458
636.5348	6427
638.9888	6391
641.4442	6557
643.8969	6448
646.3509	6489
648.8022	6516
651.255	6487
653.705	6515
656.1544	6561
658.6031	6676
661.0532	6605
663.5026	6578
665.9493	6583
668.3954	6622
670.8409	6557
673.2877	6474
675.7318	6688
678.1752	6596
680.618	6671
683.0601	6620
685.5035	6670
687.9444	6760
690.3845	6723
692.824	6688
695.2628	6705
697.701	6804
700.1406	6711
702.5774	6756
705.0116	6730
707.4472	6694
709.8821	6763
712.3183	6831
714.7519	6704
717.1829	6851
719.6151	6718
722.0468	6808
724.4777	6935
726.908	6870
729.3377	6949
731.7667	6847
734.1931	6940
736.6208	6932
739.0498	7002
741.4742	7016
743.9	7055
746.3231	6965
748.7476	6972
751.1713	7134
753.5945	7066
756.015	7069
758.4368	7062
760.856	7086
763.2766	7101
765.6965	7215
768.1157	7106
770.5323	7175
772.9483	7155
775.3656	7113
777.7822	7195
780.1963	7176
782.6116	7167
785.0244	7151
787.4365	7180
789.8499	7260
792.2626	7231
794.6728	7156
797.0823	7281
799.4911	7315
801.8994	7202
804.3109	7203
806.7178	7230
809.124	7227
811.5297	7371
813.9347	7298
816.341	7242
818.7447	7257
821.1478	7279
823.5502	7228
825.952	7214
828.3531	7171
830.7556	7112
833.1554	7222
835.5546	7385
837.9532	7321
840.3511	7344
842.7504	7283
845.1451	7279
847.5411	7291
849.9365	7299
852.3312	7364
854.7272	7350
857.1187	7379
859.5115	7312
861.9037	7505
864.2952	7279
866.6842	7401
869.0764	7377
871.4661	7294
873.8531	7374
876.2415	7372
878.6272	7370
881.0162	7355
883.4026	7370
885.7866	7195
888.1717	7306
890.5543	7356
892.9382	7347
895.3215	7345
897.7041	7412
900.0842	7261
902.4655	7403
904.8443	7527
907.2244	7416
909.6039	7356
911.9808	7264
914.357	7452
916.7346	7409
919.1115	7413
921.4859	7526
923.8616	7441
926.2347	7641
928.6071	7604
930.979	7614
933.3541	7687
935.7247	7675
938.0946	7598
940.4639	7766
942.8326	7801
945.2026	7740
947.5701	7893
949.9369	8100
952.305	8078
954.6705	8561
957.0355	8438
959.4017	8730
961.7654	8702
964.1284	8736
966.4908	8638
968.8527	8382
971.2138	8108
973.5743	7974
975.9343	8027
978.2936	7658
980.6522	7735
983.0122	7738
985.3696	7723
987.7245	7657
990.0807	7509
992.4362	7461
994.7911	7640
997.1474	7661
999.4991	7548
1001.852	7762
1004.205	7593
1006.555	7665
1008.908	7642
1011.258	7679
1013.606	7633
1015.956	7697
1018.302	7734
1020.652	7632
1022.998	7595
1025.345	7795
1027.691	7731
1030.035	7678
1032.378	7643
1034.724	7861
1037.066	7752
1039.409	7803
1041.75	7799
1044.092	7821
1046.433	7783
1048.771	7869
1051.112	7715
1053.449	7821
1055.786	7786
1058.124	7698
1060.462	7798
1062.797	7832
1065.131	7713
1067.467	7821
1069.8	7945
1072.135	7916
1074.467	7830
1076.798	7824
1079.129	7752
1081.459	7834
1083.792	7858
1086.121	7754
1088.449	7768
1090.777	7774
1093.104	7759
1095.431	7785
1097.759	7734
1100.084	7776
1102.408	7691
1104.732	7815
1107.056	7734
1109.379	7727
1111.701	7724
1114.022	7928
1116.343	7886
1118.664	7756
1120.983	7833
1123.303	7923
1125.621	7892
1127.939	7783
1130.256	7806
1132.573	7656
1134.889	7739
1137.205	7905
1139.52	7907
1141.832	7967
1144.146	7882
1146.461	7921
1148.771	7777
1151.083	7825
1153.392	7906
1155.703	7898
1158.011	7973
1160.323	7732
1162.629	7909
1164.938	7904
1167.243	7935
1169.55	7878
1171.857	7934
1174.163	7935
1176.466	7810
1178.769	7790
1181.073	7845
1183.374	7808
1185.677	7899
1187.979	7906
1190.279	7881
1192.578	7850
1194.878	7923
1197.178	7942
1199.476	7924
1201.772	7894
1204.068	7894
1206.366	7754
1208.663	7982
1210.957	7977
1213.251	7895
1215.544	7945
1217.836	7823
1220.128	7833
1222.421	8002
1224.712	7988
1227.002	7909
1229.292	7938
1231.581	7960
1233.871	8053
1236.159	8028
1238.446	8029
1240.732	7986
1243.018	8163
1245.304	8057
1247.59	7961
1249.874	8156
1252.156	8082
1254.439	8091
1256.721	8061
1259.005	7905
1261.286	8285
1263.565	8102
1265.845	7987
1268.125	8134
1270.403	8002
1272.682	8120
1274.959	8094
1277.234	8062
1279.511	8152
1281.787	8177
1284.062	8008
1286.337	8137
1288.609	7978
1290.882	7927
1293.153	7952
1295.428	7952
1297.698	7983
1299.969	8049
1302.237	8038
1304.507	7896
1306.777	7976
1309.044	7919
1311.312	7970
1313.578	7994
1315.844	8033
1318.109	7987
1320.375	7995
1322.638	7948
1324.903	7983
1327.165	7990
1329.427	8146
1331.69	8000
1333.952	7973
1336.212	7844
1338.471	8098
1340.73	8089
1342.988	7911
1345.248	7957
1347.505	8053
1349.763	7996
1352.019	8063
1354.274	8000
1356.53	7996
1358.784	8003
1361.038	8009
1363.291	7833
1365.543	7962
1367.797	8039
1370.048	8076
1372.296	8054
1374.546	7960
1376.796	7977
1379.045	7990
1381.295	7964
1383.542	8117
1385.787	8008
1388.034	7903
1390.28	7969
1392.527	7907
1394.772	8088
1397.014	8145
1399.258	8022
1401.501	8166
1403.741	8031
1405.985	8070
1408.226	8184
1410.465	8130
1412.705	8178
1414.943	8187
1417.184	8073
1419.42	8153
1421.658	8150
1423.894	8088
1426.13	8188
1428.366	8142
1430.602	8143
1432.835	8250
1435.069	8193
1437.301	8147
1439.535	8316
1441.767	8343
1443.997	8221
1446.229	8363
1448.458	8253
1450.687	8249
1452.916	8313
1455.146	8278
1457.372	8365
1459.599	8215
1461.824	8236
1464.051	8326
1466.277	8296
1468.501	8315
1470.725	8341
1472.948	8202
1475.17	8189
1477.393	8091
1479.614	8167
1481.837	8159
1484.057	8114
1486.276	8125
1488.497	8007
1490.715	8124
1492.932	7999
1495.148	8145
1497.364	7975
1499.58	8066
1501.798	8011
1504.012	7937
1506.227	7925
1508.44	7978
1510.653	8175
1512.866	7933
1515.078	8050
1517.289	7982
1519.5	7953
1521.711	8088
1523.92	7928
1526.13	8055
1528.338	7950
1530.544	7964
1532.752	8080
1534.959	7919
1537.165	8124
1539.371	8008
1541.574	8005
1543.779	8070
1545.983	8051
1548.187	8102
1550.39	8014
1552.59	8179
1554.792	8146
1556.991	8126
1559.19	8122
1561.392	8101
1563.59	8184
1565.789	7963
1567.986	8212
1570.182	8238
1572.381	8040
1574.576	8216
1576.771	8081
1578.966	8222
1581.16	8126
1583.354	8300
1585.546	8386
1587.74	8235
1589.931	8234
1592.121	8111
1594.311	8109
1596.502	8236
1598.693	8257
1600.881	8223
1603.069	8300
1605.256	8204
1607.445	8254
1609.631	8309
1611.816	8167
1614.001	8185
1616.186	8309
1618.37	8194
1620.555	8409
1622.737	8255
1624.919	8342
1627.101	8206
1629.282	8334
1631.463	8285
1633.643	8284
1635.822	8227
1638.001	8270
1640.179	8342
1642.359	8330
1644.534	8430
1646.711	8266
1648.887	8296
1651.062	8386
1653.235	8344
1655.412	8304
1657.586	8272
1659.757	8262
1661.93	8196
1664.1	8407
1666.274	8371
1668.445	8469
1670.614	8321
1672.784	8353
1674.951	8217
1677.12	8425
1679.289	8379
1681.457	8157
1683.622	8180
1685.789	8324
1687.953	8433
1690.121	8219
1692.284	8415
1694.447	8376
1696.611	8198
1698.772	8238
1700.935	8231
1703.098	8202
1705.258	8276
1707.417	8204
1709.576	8230
1711.736	8222
1713.896	8184
1716.053	8134
1718.21	8279
1720.366	8153
1722.522	8244
1724.68	8180
1726.835	8148
1728.989	8292
1731.142	8169
1733.295	8226
1735.449	8129
1737.601	8021
1739.753	8249
1741.903	8118
1744.054	8163
1746.203	8180
1748.354	8208
1750.503	8222
1752.651	8298
1754.798	8369
1756.944	8100
1759.092	8161
1761.238	8330
1763.383	8311
1765.528	8189
1767.672	8214
1769.814	8147
1771.959	8250
1774.102	8160
1776.242	8280
1778.384	8315
1780.525	8403
1782.665	8297
1784.805	8355
1786.945	8216
1789.082	8254
1791.22	8170
1793.36	8311
1795.495	8369
1797.632	8342
1799.766	8332
1801.902	8124
1804.035	8361
1806.172	8263
1808.304	8181
1810.436	8162
1812.569	8255
1814.699	8210
1816.833	8278
1818.963	8389
1821.092	8245
1823.222	8204
1825.35	8178
1827.478	8092
1829.608	8195
1831.734	8215
1833.86	8155
1835.986	8184
1838.11	8342
1840.238	8180
1842.362	8239
1844.485	8305
1846.608	8280
1848.73	8198
1850.853	8123
1852.974	8212
1855.097	8149
1857.217	8124
1859.336	8116
1861.455	8102
1863.576	8171
1865.693	8120
1867.811	8079
1869.926	8157
1872.042	8145
1874.16	8183
1876.275	8219
1878.39	8092
1880.504	8118
1882.618	8138
1884.731	8199
1886.843	8073
1888.956	8183
1891.067	8291
1893.178	8267
1895.287	8259
1897.399	8288
1899.508	8134
1901.617	8204
1903.724	8170
1905.832	8342
1907.941	8344
1910.046	8174
1912.152	8279
1914.256	8325
1916.361	8267
1918.464	8225
1920.57	8263
1922.672	8333
1924.775	8329
1926.876	8403
1928.978	8334
1931.08	8312
1933.181	8266
1935.28	8149
1937.38	8358
1939.478	8318
1941.577	8273
1943.675	8360
1945.771	8181
1947.867	8357
1949.964	8278
1952.058	8299
1954.154	8312
1956.248	8446
1958.343	8213
1960.435	8363
1962.527	8193
1964.62	8177
1966.711	8345
1968.802	8282
1970.892	8275
1972.983	8320
1975.072	8356
1977.162	8180
1979.25	8210
1981.337	8063
1983.424	8148
1985.51	8205
1987.598	8160
1989.683	8250
1991.768	8232
1993.852	8206
1995.934	8164
1998.019	8224
2000.102	8220
2002.184	8204
2004.266	8194
2006.347	8117
2008.427	8217
2010.508	8077
2012.587	8176
2014.666	8190
2016.745	8084
2018.821	8222
2020.9	8151
2022.977	8064
2025.052	8169
2027.128	8095
2029.204	8092
2031.277	8033
2033.353	8269
2035.425	8186
2037.499	8195
2039.57	8182
2041.642	8240
2043.714	8161
2045.786	8199
2047.855	8147
2049.925	8166
2051.993	8178
2054.064	8205
2056.132	8149
2058.2	8253
2060.266	8183
2062.332	8069
2064.398	8163
2066.465	8218
2068.529	8200
2070.592	8229
2072.657	8185
2074.719	8118
2076.783	8153
2078.845	8302
2080.907	8079
2082.968	8144
2085.028	8153
2087.087	8242
2089.148	8082
2091.207	8088
2093.264	8116
2095.322	8227
2097.379	8212
2099.439	8107
2101.495	8134
2103.55	8090
2105.605	8263
2107.658	8138
2109.713	8160
2111.767	8017
2113.82	8108
2115.872	8113
2117.924	8200
2119.975	8185
2122.028	8017
2124.078	8274
2126.126	8068
2128.176	8065
2130.225	8077
2132.275	8069
2134.321	8161
2136.368	8136
2138.415	8236
2140.461	8067
2142.505	8104
2144.552	8053
2146.597	8128
2148.64	8190
2150.684	7928
2152.725	8081
2154.77	7923
2156.811	8096
2158.852	8132
2160.894	8057
2162.933	7984
2164.973	7951
2167.013	8102
2169.051	7992
2171.089	8069
2173.126	7992
2175.164	8076
2177.201	7954
2179.236	7948
2181.273	8124
2183.307	7959
2185.341	7869
2187.377	7965
2189.41	7901
2191.442	7986
2193.473	8053
2195.506	7922
2197.539	7949
2199.569	7915
2201.598	7863
2203.628	7919
2205.656	8021
2207.686	7930
2209.716	7939
2211.743	7922
2213.769	7919
2215.796	7873
2217.821	7832
2219.848	7908
2221.873	7821
2223.897	7877
2225.921	7900
2227.944	7783
2229.967	7881
2231.991	7831
2234.011	7831
2236.032	7964
2238.053	7737
2240.073	7892
2242.094	7820
2244.114	7798
2246.131	7816
2248.149	7863
2250.167	7785
2252.186	7878
2254.201	7833
2256.218	7822
2258.233	7876
2260.247	7868
2262.262	7807
2264.278	7956
2266.29	7700
2268.303	8005
2270.315	7742
2272.327	7994
2274.341	7905
2276.35	7956
2278.361	7828
2280.37	7884
2282.38	7868
2284.388	7762
2286.397	7848
2288.405	7840
2290.412	7758
2292.419	7844
2294.425	7653
2296.431	7942
2298.437	7903
2300.441	7837
2302.445	7799
2304.449	7750
2306.453	7881
2308.455	7846
2310.457	7657
2312.459	7771
2314.46	7729
2316.46	7642
2318.461	7802
2320.46	7867
2322.458	7992
2324.458	7737
2326.456	7836
2328.455	7681
2330.451	7698
2332.447	7659
2334.443	7687
2336.438	7737
2338.433	7731
2340.429	7695
2342.422	7736
2344.416	7668
2346.408	7796
2348.399	7528
2350.393	7650
2352.384	7665
2354.375	7653
2356.365	7505
2358.355	7635
2360.344	7723
2362.333	7581
2364.322	7609
2366.309	7648
2368.295	7748
2370.282	7468
2372.27	7659
2374.256	7695
2376.24	7639
2378.225	7678
2380.208	7580
2382.194	7617
2384.177	7496
2386.159	7576
2388.142	7528
2390.122	7340
2392.105	7524
2394.085	7528
2396.066	7472
2398.044	7426
2400.024	7584
2402.002	7508
2403.982	7509
2405.959	7423
2407.935	7554
2409.913	7507
2411.888	7620
2413.865	7491
2415.84	7631
2417.814	7442
2419.788	7560
2421.762	7522
2423.735	7524
2425.708	7444
2427.68	7566
2429.651	7576
2431.623	7554
2433.593	7478
2435.564	7497
2437.533	7497
2439.502	7548
2441.47	7494
2443.438	7617
2445.406	7504
2447.373	7497
2449.34	7470
2451.305	7399
2453.271	7469
2455.235	7451
2457.201	7519
2459.165	7363
2461.129	7466
2463.092	7393
2465.054	7520
2467.018	7387
2468.978	7436
2470.939	7195
2472.899	7484
2474.86	7458
2476.819	7426
2478.778	7466
2480.737	7465
2482.695	7334
2484.653	7418
2486.609	7386
2488.567	7447
2490.524	7431
2492.478	7322
2494.433	7452
2496.387	7301
2498.343	7357
2500.297	7269
2502.249	7365
2504.202	7279
2506.153	7197
2508.105	7305
2510.057	7227
2512.008	7354
2513.957	7423
2515.906	7404
2517.855	7394
2519.805	7314
2521.754	7114
2523.7	7227
2525.647	7310
2527.594	7422
2529.54	7228
2531.486	7300
2533.431	7307
2535.376	7311
2537.32	7354
2539.263	7266
2541.207	7219
2543.151	7439
2545.093	7244
2547.034	7342
2548.975	7170
2550.917	7360
2552.856	7333
2554.796	7312
2556.735	7313
2558.673	7341
2560.611	7320
2562.55	7264
2564.487	7247
2566.424	7312
2568.36	7185
2570.296	7294
2572.232	7307
2574.167	7245
2576.101	7186
2578.035	7281
2579.969	7241
2581.902	7313
2583.834	7264
2585.766	7371
2587.698	7227
2589.628	7339
2591.557	7264
2593.489	7179
2595.419	7291
2597.348	7237
2599.275	7293
2601.204	7258
2603.131	7310
2605.059	7284
2606.986	7299
2608.911	7308
2610.837	7264
2612.76	7326
2614.687	7255
2616.61	7282
2618.534	7278
2620.457	7411
2622.38	7196
2624.302	7420
2626.225	7322
2628.145	7185
2630.067	7239
2631.986	7292
2633.906	7303
2635.827	7235
2637.745	7315
2639.662	7211
2641.581	7231
2643.498	7229
2645.415	7275
2647.331	7244
2649.248	7267
2651.163	7157
2653.077	7189
2654.993	7276
2656.906	7100
2658.821	7308
2660.733	7131
2662.646	7300
2664.557	7151
2666.47	7215
2668.381	7159
2670.291	7144
2672.201	7111
2674.11	7244
2676.021	7143
2677.929	7236
2679.837	7156
2681.745	7130
2683.652	7156
2685.56	7194
2687.466	7198
2689.371	7246
2691.276	7191
2693.181	7146
2695.085	7113
2696.991	7076
2698.893	7197
2700.796	7060
2702.698	7063
2704.601	7124
2706.502	7045
2708.404	7107
2710.304	7027
2712.203	7091
2714.103	6981
2716.003	7088
2717.902	6979
2719.8	7078
2721.697	7072
2723.594	7062
2725.49	7161
2727.389	7018
2729.283	7004
2731.179	6998
2733.073	7032
2734.968	6975
2736.863	6903
2738.757	7060
2740.649	6925
2742.541	6928
2744.433	7055
2746.324	7003
2748.216	7096
2750.107	6971
2751.997	7005
2753.886	7008
2755.776	7032
2757.666	6902
2759.553	7020
2761.44	7014
2763.327	6910
2765.215	6887
2767.102	7040
2768.988	6950
2770.873	6906
2772.757	6936
2774.641	7017
2776.525	6933
2778.41	7026
2780.292	6905
2782.175	6955
2784.057	6871
2785.938	6813
2787.821	6961
2789.701	6963
2791.581	6881
2793.461	6955
2795.34	6846
2797.219	6987
2799.099	6861
2800.975	6748
2802.853	6839
2804.73	6954
2806.606	6924
2808.484	6850
2810.358	6901
2812.233	6848
2814.108	6898
2815.981	6858
2817.857	6872
2819.73	6772
2821.602	6922
2823.474	6800
2825.346	6925
2827.217	6836
2829.089	6934
2830.959	6804
2832.829	6730
2834.698	6819
2836.567	6712
2838.436	6876
2840.305	6801
2842.172	6999
2844.04	6758
2845.905	6763
2847.772	6842
2849.639	6844
2851.503	6779
2853.369	6821
2855.232	6769
2857.096	6815
2858.961	6756
2860.824	6837
2862.686	6853
2864.547	6884
2866.41	6867
2868.272	6894
2870.132	6854
2871.992	7092
2873.851	6975
2875.711	6811
2877.57	6983
2879.429	6943
2881.287	6937
2883.144	6962
2885.001	7049
2886.857	6931
2888.714	7025
2890.57	6976
2892.425	7017
2894.279	6842
2896.133	6907
2897.987	6991
2899.842	7029
2901.694	6952
2903.547	7025
2905.397	7080
2907.249	7030
2909.101	6931
2910.952	7020
2912.802	7004
2914.652	7071
2916.5	7054
2918.35	7048
2920.198	7030
2922.045	6993
2923.893	7152
2925.74	7079
2927.585	7198
2929.433	7216
2931.279	7228
2933.123	7313
2934.968	7257
2936.811	7300
2938.656	7306
2940.5	7444
2942.342	7372
2944.185	7342
2946.026	7372
2947.87	7379
2949.71	7391
2951.549	7378
2953.39	7271
2955.229	7254
2957.069	7298
2958.908	7225
2960.746	7137
2962.584	7119
2964.421	7023
2966.257	7000
2968.094	6954
2969.931	7079
2971.766	7035
2973.601	6931
2975.435	6947
2977.27	6917
2979.105	6911
2980.938	7027
2982.77	6870
2984.602	6911
2986.434	7093
2988.267	6848
2990.097	6939
2991.927	6744
2993.757	6871
2995.587	6765
2997.417	6728
2999.246	6729
3001.074	6582
3002.902	6692
3004.729	6541
3006.556	6605
3008.384	6569
3010.21	6714
3012.036	6669
3013.861	6543
3015.684	6476
3017.51	6500
3019.334	6498
3021.157	6469
3022.981	6438
3024.802	6404
3026.624	6390
3028.448	6365
3030.267	6359
3032.088	6382
3033.909	6328
3035.728	6247
3037.549	6397
3039.368	6353
3041.186	6303
3043.004	6356
3044.821	6305
3046.64	6346
3048.455	6371
3050.272	6352
3052.087	6234
3053.903	6265
3055.717	6273
3057.534	6345
3059.347	6364
3061.16	6211
3062.974	6378
3064.785	6317
3066.598	6265
3068.411	6300
3070.222	6222
3072.032	6279
3073.844	6258
3075.653	6185
3077.463	6208
3079.272	6056
3081.08	6217
3082.889	6040
3084.697	6148
3086.505	6175
3088.312	6107
3090.118	6128
3091.924	6182
3093.729	6296
3095.535	6093
3097.34	6163
3099.144	6176
3100.947	6074
3102.75	6081
3104.553	6045
3106.357	6014
3108.159	6007
3109.961	6205
3111.762	5970
3113.562	6142
3115.365	5971
3117.164	6108
3118.964	5955
3120.761	6019
3122.56	5972
3124.36	6093
3126.158	5947
3127.954	5955
3129.75	5854
3131.547	6013
3133.343	5878
3135.139	5881
3136.934	5926
3138.729	5874
3140.522	5851
3142.317	5863
3144.11	6062
3145.904	5912
3147.695	5995
3149.488	5968
3151.28	5881
3153.07	5847
3154.863	5763
3156.652	5945
3158.441	5848
3160.231	6024
3162.019	5881
3163.81	5900
3165.597	5817
3167.384	5789
3169.172	5916
3170.958	5872
3172.745	5845
3174.532	5811
3176.317	5867
3178.101	5871
3179.885	5747
3181.67	5676
3183.455	5836
3185.238	5867
3187.02	5883
3188.802	5781
3190.585	5788
3192.368	5840
3194.149	5804
3195.929	5702
3197.709	5780
3199.489	5745
3201.268	5724
3203.048	5873
3204.826	5775
3206.604	5782
3208.382	5795
3210.159	5826
3211.937	5715
3213.713	5775
3215.489	5706
3217.263	5757
3219.038	5744
3220.815	5725
3222.589	5572
3224.363	5692
3226.136	5652
3227.908	5717
3229.681	5791
3231.454	5762
3233.226	5628
3234.996	5744
3236.767	5615
3238.538	5699
3240.308	5625
3242.078	5754
3243.847	5628
3245.615	5767
3247.384	5723
3249.15	5645
3250.92	5718
3252.686	5625
3254.453	5619
3256.218	5699
3257.984	5761
3259.75	5611
3261.515	5649
3263.279	5732
3265.044	5650
3266.806	5664
3268.57	5602
3270.334	5610
3272.095	5692
3273.856	5645
3275.619	5618
3277.379	5643
3279.14	5734
3280.9	5653
3282.661	5588
3284.419	5661
3286.178	5603
3287.937	5614
3289.695	5583
3291.453	5649
3293.21	5581
3294.967	5571
3296.723	5626
3298.48	5594
3300.235	5684
3301.99	5588
3303.744	5545
3305.498	5592
3307.253	5612
3309.006	5614
3310.759	5690
3312.511	5660
3314.263	5582
3316.017	5573
3317.768	5642
3319.519	5507
3321.268	5668
3323.018	5628
3324.767	5554
3326.518	5624
3328.267	5504
3330.014	5645
3331.762	5653
3333.509	5628
3335.258	5519
3337.003	5624
3338.75	5524
3340.496	5598
3342.24	5636
3343.987	5564
3345.732	5584
3347.475	5493
3349.219	5487
3350.961	5472
3352.705	5586
3354.448	5463
3356.19	5530
3357.931	5483
3359.672	5513
3361.412	5510
3363.155	5532
3364.894	5515
3366.633	5443
3368.372	5497
3370.11	5557
3371.849	5510
3373.588	5422
3375.325	5427
3377.061	5356
3378.799	5436
3380.534	5483
3382.271	5358
3384.006	5407
3385.741	5482
3387.475	5392
3389.209	5371
3390.944	5299
3392.677	5366
3394.409	5333
3396.143	5479
3397.874	5423
3399.606	5387
3401.338	5425
3403.069	5382
3404.799	5306
3406.528	5436
3408.258	5321
3409.988	5278
3411.717	5369
3413.445	5370
3415.173	5336
3416.899	5391
3418.626	5334
3420.354	5352
3422.08	5405
3423.806	5249
3425.531	5417
3427.255	5407
3428.981	5339
3430.705	5268
3432.429	5316
3434.151	5263
3435.875	5316
3437.599	5316
3439.321	5213
3441.042	5190
3442.763	5294
3444.483	5333
3446.204	5197
3447.926	5265
3449.645	5160
3451.364	5242
3453.082	5206
3454.801	5362
3456.52	5187
3458.238	5307
3459.954	5174
3461.671	5227
3463.387	5142
3465.104	5138
3466.82	5224
3468.534	5099
3470.25	5196
3471.963	5176
3473.676	5102
3475.392	5192
3477.104	5155
3478.817	5133
3480.528	5135
3482.241	5075
3483.954	5152
3485.664	5122
3487.374	4997
3489.084	5152
3490.795	5065
3492.504	5113
3494.214	5002
3495.922	5051
3497.63	5051
3499.338	5079
3501.045	5066
3502.753	5090
3504.459	5112
3506.166	5059
3507.871	5103
3509.576	4971
3511.283	4934
3512.987	4999
3514.691	5051
3516.395	4975
3518.098	4925
3519.8	5026
3521.504	4939
3523.206	5031
3524.908	4960
3526.609	4928
3528.309	4944
3530.011	4956
3531.711	5000
3533.411	5006
3535.109	5031
3536.808	4920
3538.507	4991
3540.206	4920
3541.904	4925
3543.601	4841
3545.297	4909
3546.994	4858
3548.69	4949
3550.387	4884
3552.081	4860
3553.776	4941
3555.47	4832
3557.166	4836
3558.859	4865
3560.553	4873
3562.245	4846
3563.938	4905
3565.629	4829
3567.322	4800
3569.014	4812
3570.704	4799
3572.394	4818
3574.084	4801
3575.775	4772
3577.464	4814
3579.152	4730
3580.842	4761
3582.529	4788
3584.216	4861
3585.905	4860
3587.591	4797
3589.279	4846
3590.964	4840
3592.649	4764
3594.336	4828
3596.021	4710
3597.705	4657
3599.388	4683
3601.072	4751
3602.757	4826
3604.439	4680
3606.122	4721
3607.803	4725
3609.485	4638
3611.167	4605
3612.849	4634
3614.529	4777
3616.208	4730
3617.888	4650
3619.567	4658
3621.247	4650
3622.926	4674
3624.603	4645
3626.281	4669
3627.958	4575
3629.635	4613
3631.312	4650
3632.989	4541
3634.665	4623
3636.339	4585
3638.014	4589
3639.691	4698
3641.364	4473
3643.038	4616
3644.71	4589
3646.384	4604
3648.058	4522
3649.729	4574
3651.402	4543
3653.073	4481
3654.744	4506
3656.414	4506
3658.085	4534
3659.755	4496
3661.424	4565
3663.094	4534
3664.762	4403
3666.431	4493
3668.099	4500
3669.766	4578
3671.433	4488
3673.099	4446
3674.768	4577
3676.433	4455
3678.098	4447
3679.763	4412
3681.428	4566
3683.093	4389
3684.757	4425
3686.421	4480
3688.083	4508
3689.746	4456
3691.408	4466
3693.071	4427
3694.733	4520
3696.394	4433
3698.054	4443
3699.715	4505
3701.375	4388
3703.036	4458
3704.695	4423
3706.354	4454
3708.012	4430
3709.67	4386
3711.329	4406
3712.987	4459
3714.644	4362
3716.299	4392
3717.955	4431
3719.613	4365
3721.268	4421
3722.923	4375
3724.577	4399
3726.231	4420
3727.885	4377
3729.539	4364
3731.192	4407
3732.845	4353
3734.497	4346
3736.149	4361
3737.802	4391
3739.453	4354
3741.104	4304
3742.753	4335
3744.404	4287
3746.052	4406
3747.704	4245
3749.352	4411
3751	4363
3752.648	4290
3754.296	4357
3755.944	4291
3757.59	4344
3759.238	4257
3760.883	4322
3762.528	4345
3764.176	4322
3765.82	4216
3767.464	4334
3769.109	4333
3770.753	4346
3772.396	4313
3774.04	4325
3775.683	4259
3777.325	4319
3778.967	4271
3780.608	4194
3782.25	4150
3783.89	4203
3785.531	4253
3787.17	4210
3788.81	4174
3790.45	4168
3792.09	4202
3793.729	4173
3795.366	4224
3797.003	4209
3798.64	4102
3800.278	4291
3801.915	4176
3803.551	4198
3805.187	4191
3806.822	4156
3808.458	4131
3810.093	4141
3811.726	4150
3813.36	4161
3814.994	4069
3816.627	4085
3818.262	4097
3819.893	4172
3821.525	4111
3823.157	4234
3824.787	4070
3826.42	4073
3828.051	4188
3829.68	4190
3831.31	4079
3832.938	4080
3834.569	4075
3836.198	4090
3837.825	4069
3839.454	4115
3841.08	4011
3842.708	4120
3844.335	4196
3845.962	4079
3847.587	4094
3849.212	4102
3850.838	4043
3852.463	3997
3854.089	3947
3855.712	4037
3857.335	4087
3858.959	4010
3860.582	4049
3862.205	4062
3863.827	3966
3865.449	3934
3867.07	4040
3868.691	3980
3870.312	4087
3871.933	3975
3873.553	3978
3875.173	3926
3876.792	3990
3878.411	3989
3880.03	3935
3881.647	3941
3883.265	4029
3884.882	3943
3886.499	3972
3888.116	3895
3889.732	3969
3891.348	3902
3892.964	3861
3894.579	4007
3896.195	3932
3897.809	3878
3899.423	3965
3901.036	3940
3902.648	3847
3904.261	3958
3905.875	3894
3907.487	3883
3909.099	3814
3910.709	3915
3912.321	3913
3913.933	3840
3915.542	3922
3917.152	3888
3918.762	3981
3920.37	3865
3921.98	3818
3923.589	3965
3925.196	3877
3926.804	3962
3928.41	3849
3930.018	3856
3931.626	3943
3933.231	3946
3934.838	3872
3936.442	3944
3938.046	3920
3939.653	3934
3941.257	3887
3942.861	3830
3944.464	3950
3946.068	3941
3947.67	3858
3949.273	3833
3950.876	3878
3952.477	3885
3954.078	3847
3955.678	3815
3957.281	3798
3958.881	3751
3960.48	3823
3962.079	3806
3963.678	3773
3965.279	3782
3966.877	3765
3968.475	3679
3970.072	3803
3971.669	3773
3973.266	3711
3974.864	3754
3976.459	3702
3978.055	3743
3979.65	3737
3981.245	3756
3982.841	3760
3984.436	3745
3986.03	3706
3987.623	3721
3989.216	3741
3990.809	3773
3992.403	3670
3993.995	3704
3995.586	3699
3997.177	3666
3998.768	3729
4000.361	3727
4001.951	3705
4003.54	3707
4005.13	3666
4006.719	3630
4008.31	3736
4009.897	3680
4011.485	3645
4013.073	3588
4014.66	3561
4016.247	3643
4017.834	3606
4019.421	3607
4021.006	3583
4022.592	3621
4024.178	3587
4025.763	3567
4027.348	3599
4028.932	3586
4030.515	3632
4032.099	3594
4033.682	3587
4035.266	3569
4036.847	3651
4038.429	3607
4040.011	3554
4041.592	3512
4043.173	3576
4044.755	3624
4046.334	3545
4047.913	3573
4049.494	3499
4051.074	3543
4052.652	3591
4054.23	3495
4055.807	3527
4057.385	3626
4058.963	3439
4060.541	3568
4062.117	3527
4063.693	3442
4065.269	3427
4066.844	3517
4068.42	3434
4069.995	3542
4071.569	3430
4073.143	3515
4074.716	3512
4076.291	3526
4077.864	3528
4079.436	3565
4081.009	3439
4082.58	3364
4084.152	3482
4085.723	3496
4087.294	3427
4088.865	3469
4090.435	3464
4092.005	3555
4093.574	3474
4095.143	3479
4096.712	3489
4098.279	3425
4099.848	3467
4101.416	3368
4102.984	3432
4104.55	3379
4106.117	3413
4107.682	3349
4109.248	3446
4110.815	3327
4112.379	3389
4113.945	3410
4115.508	3441
4117.073	3384
4118.637	3467
4120.201	3420
4121.763	3368
4123.325	3437
4124.888	3389
4126.449	3326
4128.013	3438
4129.573	3352
4131.133	3311
4132.694	3349
4134.254	3283
4135.814	3351
4137.374	3289
4138.933	3387
4140.491	3352
4142.049	3298
4143.607	3354
4145.167	3299
4146.724	3314
4148.28	3224
4149.836	3290
4151.392	3313
4152.949	3285
4154.504	3213
4156.059	3286
4157.614	3288
4159.168	3296
4160.723	3230
4162.277	3257
4163.83	3226
4165.383	3226
4166.936	3303
4168.488	3221
4170.041	3230
4171.593	3222
4173.144	3211
4174.695	3230
4176.246	3255
4177.796	3187
4179.346	3111
4180.896	3239
4182.445	3264
4183.994	3247
4185.542	3251
4187.091	3133
4188.639	3175
4190.185	3224
4191.732	3218
4193.279	3162
4194.826	3169
4196.373	3182
4197.918	3209
4199.463	3167
4201.008	3149
4202.553	3230
4204.098	3173
4205.641	3160
4207.185	3142
4208.728	3173
4210.271	3154
4211.814	3165
4213.357	3137
4214.898	3077
4216.439	3120
4217.98	3168
4219.522	3106
4221.062	3143
4222.603	3175
4224.142	3142
4225.681	3141
4227.222	3148
4228.76	3089
4230.298	3101
4231.835	3025
4233.373	3078
4234.911	3098
4236.449	3081
4237.985	3075
4239.521	3059
4241.057	3030
4242.592	3134
4244.128	3042
4245.663	3077
4247.197	3054
4248.731	3027
4250.265	3074
4251.798	3121
4253.333	3015
4254.865	3084
4256.397	3055
4257.93	2966
4259.461	3098
4260.994	3005
4262.525	3098
4264.056	3069
4265.586	3077
4267.115	3060
4268.646	3060
4270.176	3052
4271.705	3085
4273.232	3002
4274.761	3087
4276.289	2980
4277.818	3060
4279.345	3036
4280.872	3033
4282.399	3013
4283.924	3021
4285.452	3035
4286.976	2996
4288.502	2997
4290.026	2945
4291.551	2978
4293.074	3044
4294.6	2971
4296.123	2988
4297.646	2960
4299.168	2987
4300.691	2961
4302.214	2959
4303.736	2939
4305.257	2949
4306.778	2990
4308.299	2922
4309.82	2890
4311.34	2982
4312.86	2918
4314.379	2864
