400.0745	4284
402.597	4177
405.1208	4287
407.6419	4165
410.1623	4322
412.6819	4282
415.201	4250
417.7172	4253
420.2369	4309
422.7538	4338
425.2701	4492
427.7856	4410
430.3005	4457
432.8147	4482
435.3282	4476
437.841	4471
440.3511	4450
442.8625	4538
445.3753	4508
447.8854	4452
450.3927	4543
452.9014	4628
455.4073	4489
457.9146	4516
460.4233	4494
462.9272	4466
465.4325	4485
467.935	4514
470.4389	4638
472.9421	4599
475.4446	4565
477.9444	4618
480.4456	4659
482.944	4593
485.4417	4543
487.9429	4660
490.4393	4635
492.935	4624
495.4321	4649
497.9264	4643
500.4221	4685
502.9171	4722
505.4094	4648
507.9011	4761
510.392	4707
512.8864	4656
515.3759	4698
517.8649	4719
520.3531	4653
522.8406	4768
525.3275	4730
527.8178	4723
530.3033	4661
532.7881	4757
535.2723	4752
537.7558	4753
540.2407	4782
542.7228	4824
545.2043	4681
547.6851	4771
550.1652	4746
552.6467	4754
555.1255	4769
557.6016	4802
560.079	4778
562.5557	4707
565.0318	4765
567.5092	4859
569.984	4761
572.456	4768
574.9294	4844
577.4022	4952
579.8762	4831
582.3456	4915
584.8163	4890
587.2863	4902
589.7557	4998
592.2224	4935
594.6924	4936
597.1578	4930
599.6245	5015
602.0905	4865
604.5538	4955
607.0206	4919
609.4825	4882
611.9459	4843
614.4066	4933
616.8686	4930
619.33	4931
621.7906	4857
624.2487	4861
626.708	5007
629.1647	4843
631.6207	4926
634.0801	4854
636.5348	4961
638.9888	4973
641.4442	4908
643.8969	4900
646.3509	5063
648.8022	4931
651.255	4970
653.705	4889
656.1544	4992
658.6031	5041
661.0532	4976
663.5026	5015
665.9493	5064
668.3954	5041
670.8409	5093
673.2877	4961
675.7318	5055
678.1752	5128
680.618	5211
683.0601	5130
685.5035	5165
687.9444	5149
690.3845	5040
692.824	5111
695.2628	5146
697.701	5080
700.1406	5200
702.5774	5116
705.0116	5180
707.4472	5048
709.8821	5227
712.3183	5238
714.7519	5170
717.1829	5202
719.6151	5355
722.0468	5251
724.4777	5145
726.908	5314
729.3377	5277
731.7667	5248
734.1931	5207
736.6208	5315
739.0498	5334
741.4742	5370
743.9	5262
746.3231	5329
748.7476	5393
751.1713	5299
753.5945	5412
756.015	5447
758.4368	5444
760.856	5528
763.2766	5445
765.6965	5445
768.1157	5445
770.5323	5342
772.9483	5461
775.3656	5452
777.7822	5502
780.1963	5484
782.6116	5450
785.0244	5529
787.4365	5551
789.8499	5536
792.2626	5469
794.6728	5425
797.0823	5592
799.4911	5570
801.8994	5425
804.3109	5442
806.7178	5644
809.124	5368
811.5297	5554
813.9347	5539
816.341	5617
818.7447	5566
821.1478	5568
823.5502	5524
825.952	5603
828.3531	5602
830.7556	5571
833.1554	5529
835.5546	5606
837.9532	5604
840.3511	5668
842.7504	5679
845.1451	5579
847.5411	5683
849.9365	5601
852.3312	5672
854.7272	5624
857.1187	5561
859.5115	5565
861.9037	5650
864.2952	5609
866.6842	5744
869.0764	5645
871.4661	5588
873.8531	5614
876.2415	5628
878.6272	5630
881.0162	5565
883.4026	5621
885.7866	5665
888.1717	5683
890.5543	5604
892.9382	5726
895.3215	5615
897.7041	5672
900.0842	5631
902.4655	5632
904.8443	5634
907.2244	5689
909.6039	5700
911.9808	5804
914.357	5722
916.7346	5688
919.1115	5640
921.4859	5789
923.8616	5861
926.2347	5761
928.6071	5762
930.979	5863
933.3541	5814
935.7247	5926
938.0946	5809
940.4639	5917
942.8326	5895
945.2026	5974
947.5701	6057
949.9369	6058
952.305	6163
954.6705	6345
957.0355	6427
959.4017	6592
961.7654	6638
964.1284	6605
966.4908	6514
968.8527	6509
971.2138	6254
973.5743	6197
975.9343	5974
978.2936	5925
980.6522	5956
983.0122	5951
985.3696	5861
987.7245	5848
990.0807	5754
992.4362	5869
994.7911	5835
997.1474	5894
999.4991	5842
1001.852	5798
1004.205	5794
1006.555	5888
1008.908	5805
1011.258	5857
1013.606	5791
1015.956	5806
1018.302	5875
1020.652	5815
1022.998	5862
1025.345	5946
1027.691	5834
1030.035	5901
1032.378	5900
1034.724	5965
1037.066	5960
1039.409	5951
1041.75	5909
1044.092	5879
1046.433	5992
1048.771	5889
1051.112	5913
1053.449	5909
1055.786	5997
1058.124	5947
1060.462	5915
1062.797	5928
1065.131	6091
1067.467	6101
1069.8	5910
1072.135	5956
1074.467	6032
1076.798	5977
1079.129	6050
1081.459	6016
1083.792	5989
1086.121	6006
1088.449	5906
1090.777	5946
1093.104	5945
1095.431	5984
1097.759	5956
1100.084	5981
1102.408	6084
1104.732	5915
1107.056	6129
1109.379	5939
1111.701	5897
1114.022	6005
1116.343	5968
1118.664	5928
1120.983	6063
1123.303	6042
1125.621	5924
1127.939	6106
1130.256	6036
1132.573	5986
1134.889	6057
1137.205	6014
1139.52	6150
1141.832	6006
1144.146	6012
1146.461	6067
1148.771	6002
1151.083	6012
1153.392	5998
1155.703	5977
1158.011	6002
1160.323	6118
1162.629	6032
1164.938	6072
1167.243	6085
1169.55	6080
1171.857	5987
1174.163	6217
1176.466	5983
1178.769	6102
1181.073	5968
1183.374	6063
1185.677	6022
1187.979	5993
1190.279	6039
1192.578	5985
1194.878	6083
1197.178	6077
1199.476	5970
1201.772	6100
1204.068	5964
1206.366	6156
1208.663	5970
1210.957	6041
1213.251	6083
1215.544	6041
1217.836	6087
1220.128	6176
1222.421	5974
1224.712	6055
1227.002	6165
1229.292	6167
1231.581	6076
1233.871	6138
1236.159	6065
1238.446	6153
1240.732	6192
1243.018	6101
1245.304	6114
1247.59	6210
1249.874	6209
1252.156	6174
1254.439	6270
1256.721	6169
1259.005	6165
1261.286	6102
1263.565	6077
1265.845	6147
1268.125	6233
1270.403	6224
1272.682	6225
1274.959	6283
1277.234	6310
1279.511	6212
1281.787	6152
1284.062	6192
1286.337	6152
1288.609	6149
1290.882	6184
1293.153	6152
1295.428	6146
1297.698	6160
1299.969	6178
1302.237	6154
1304.507	6193
1306.777	6179
1309.044	6095
1311.312	6156
1313.578	6228
1315.844	6173
1318.109	6062
1320.375	6235
1322.638	6154
1324.903	6164
1327.165	6122
1329.427	6192
1331.69	6145
1333.952	6211
1336.212	6224
1338.471	6233
1340.73	6191
1342.988	6119
1345.248	6064
1347.505	6230
1349.763	6136
1352.019	6110
1354.274	6050
1356.53	6044
1358.784	6126
1361.038	6100
1363.291	6157
1365.543	6183
1367.797	6238
1370.048	6144
1372.296	6177
1374.546	6183
1376.796	6295
1379.045	6127
1381.295	6238
1383.542	6292
1385.787	6174
1388.034	6138
1390.28	6254
1392.527	6259
1394.772	6238
1397.014	6195
1399.258	6250
1401.501	6316
1403.741	6278
1405.985	6208
1408.226	6212
1410.465	6250
1412.705	6334
1414.943	6126
1417.184	6287
1419.42	6414
1421.658	6342
1423.894	6281
1426.13	6361
1428.366	6351
1430.602	6258
1432.835	6393
1435.069	6319
1437.301	6484
1439.535	6237
1441.767	6243
1443.997	6392
1446.229	6318
1448.458	6433
1450.687	6359
1452.916	6474
1455.146	6351
1457.372	6441
1459.599	6463
1461.824	6318
1464.051	6276
1466.277	6482
1468.501	6436
1470.725	6291
1472.948	6293
1475.17	6298
1477.393	6235
1479.614	6221
1481.837	6310
1484.057	6219
1486.276	6202
1488.497	6282
1490.715	6257
1492.932	6135
1495.148	6195
1497.364	6283
1499.58	6119
1501.798	6194
1504.012	6100
1506.227	6172
1508.44	6205
1510.653	6217
1512.866	6118
1515.078	6203
1517.289	6169
1519.5	6252
1521.711	6132
1523.92	6144
1526.13	6081
1528.338	6247
1530.544	6145
1532.752	6149
1534.959	6222
1537.165	6282
1539.371	6275
1541.574	6264
1543.779	6198
1545.983	6141
1548.187	6176
1550.39	6157
1552.59	6221
1554.792	6312
1556.991	6259
1559.19	6297
1561.392	6213
1563.59	6291
1565.789	6216
1567.986	6322
1570.182	6368
1572.381	6356
1574.576	6398
1576.771	6375
1578.966	6331
1581.16	6252
1583.354	6348
1585.546	6318
1587.74	6290
1589.931	6239
1592.121	6433
1594.311	6422
1596.502	6310
1598.693	6372
1600.881	6289
1603.069	6423
1605.256	6330
1607.445	6420
1609.631	6380
1611.816	6291
1614.001	6312
1616.186	6359
1618.37	6410
1620.555	6475
1622.737	6311
1624.919	6482
1627.101	6364
1629.282	6446
1631.463	6377
1633.643	6368
1635.822	6395
1638.001	6311
1640.179	6395
1642.359	6397
1644.534	6466
1646.711	6432
1648.887	6317
1651.062	6533
1653.235	6504
1655.412	6483
1657.586	6467
1659.757	6462
1661.93	6326
1664.1	6427
1666.274	6466
1668.445	6441
1670.614	6370
1672.784	6412
1674.951	6449
1677.12	6488
1679.289	6389
1681.457	6445
1683.622	6478
1685.789	6395
1687.953	6433
1690.121	6389
1692.284	6472
1694.447	6423
1696.611	6407
1698.772	6447
1700.935	6432
1703.098	6308
1705.258	6335
1707.417	6309
1709.576	6411
1711.736	6345
1713.896	6366
1716.053	6441
1718.21	6437
1720.366	6439
1722.522	6282
1724.68	6361
1726.835	6247
1728.989	6252
1731.142	6377
1733.295	6174
1735.449	6315
1737.601	6360
1739.753	6277
1741.903	6406
1744.054	6351
1746.203	6327
1748.354	6385
1750.503	6341
1752.651	6453
1754.798	6346
1756.944	6397
1759.092	6325
1761.238	6318
1763.383	6468
1765.528	6363
1767.672	6363
1769.814	6324
1771.959	6468
1774.102	6395
1776.242	6437
1778.384	6460
1780.525	6401
1782.665	6285
1784.805	6437
1786.945	6382
1789.082	6370
1791.22	6438
1793.36	6399
1795.495	6284
1797.632	6432
1799.766	6381
1801.902	6376
1804.035	6372
1806.172	6372
1808.304	6345
1810.436	6418
1812.569	6380
1814.699	6411
1816.833	6385
1818.963	6396
1821.092	6329
1823.222	6389
1825.35	6324
1827.478	6315
1829.608	6395
1831.734	6373
1833.86	6387
1835.986	6328
1838.11	6291
1840.238	6432
1842.362	6297
1844.485	6377
1846.608	6361
1848.73	6288
1850.853	6479
1852.974	6235
1855.097	6218
1857.217	6362
1859.336	6352
1861.455	6357
1863.576	6293
1865.693	6277
1867.811	6323
1869.926	6401
1872.042	6174
1874.16	6297
1876.275	6330
1878.39	6314
1880.504	6354
1882.618	6313
1884.731	6299
1886.843	6302
1888.956	6278
1891.067	6389
1893.178	6380
1895.287	6406
1897.399	6326
1899.508	6424
1901.617	6449
1903.724	6433
1905.832	6433
1907.941	6466
1910.046	6457
1912.152	6372
1914.256	6439
1916.361	6330
1918.464	6437
1920.57	6396
1922.672	6429
1924.775	6485
1926.876	6433
1928.978	6455
1931.08	6473
1933.181	6300
1935.28	6385
1937.38	6429
1939.478	6461
1941.577	6482
1943.675	6392
1945.771	6496
1947.867	6523
1949.964	6479
1952.058	6412
1954.154	6435
1956.248	6419
1958.343	6444
1960.435	6367
1962.527	6392
1964.62	6477
1966.711	6476
1968.802	6235
1970.892	6301
1972.983	6493
1975.072	6382
1977.162	6410
1979.25	6384
1981.337	6379
1983.424	6449
1985.51	6351
1987.598	6456
1989.683	6477
1991.768	6332
1993.852	6439
1995.934	6310
1998.019	6313
2000.102	6353
2002.184	6404
2004.266	6440
2006.347	6383
2008.427	6305
2010.508	6388
2012.587	6386
2014.666	6256
2016.745	6246
2018.821	6321
2020.9	6350
2022.977	6320
2025.052	6348
2027.128	6333
2029.204	6326
2031.277	6398
2033.353	6380
2035.425	6443
2037.499	6311
2039.57	6291
2041.642	6314
2043.714	6357
2045.786	6376
2047.855	6330
2049.925	6382
2051.993	6265
2054.064	6440
2056.132	6383
2058.2	6361
2060.266	6412
2062.332	6301
2064.398	6422
2066.465	6347
2068.529	6376
2070.592	6328
2072.657	6409
2074.719	6389
2076.783	6355
2078.845	6330
2080.907	6292
2082.968	6295
2085.028	6326
2087.087	6359
2089.148	6394
2091.207	6443
2093.264	6311
2095.322	6401
2097.379	6342
2099.439	6282
2101.495	6335
2103.55	6377
2105.605	6325
2107.658	6422
2109.713	6390
2111.767	6381
2113.82	6313
2115.872	6379
2117.924	6413
2119.975	6389
2122.028	6244
2124.078	6327
2126.126	6361
2128.176	6294
2130.225	6233
2132.275	6275
2134.321	6282
2136.368	6224
2138.415	6270
2140.461	6261
2142.505	6309
2144.552	6236
2146.597	6267
2148.64	6242
2150.684	6274
2152.725	6263
2154.77	6249
2156.811	6385
2158.852	6261
2160.894	6302
2162.933	6188
2164.973	6300
2167.013	6345
2169.051	6313
2171.089	6265
2173.126	6352
2175.164	6217
2177.201	6119
2179.236	6185
2181.273	6181
2183.307	6122
2185.341	6283
2187.377	6158
2189.41	6179
2191.442	6202
2193.473	6218
2195.506	6185
2197.539	6143
2199.569	6113
2201.598	6122
2203.628	6086
2205.656	6096
2207.686	6198
2209.716	6220
2211.743	6237
2213.769	6067
2215.796	6211
2217.821	6129
2219.848	6203
2221.873	6197
2223.897	6126
2225.921	6128
2227.944	6130
2229.967	6041
2231.991	6010
2234.011	6170
2236.032	6188
2238.053	6128
2240.073	6163
2242.094	6075
2244.114	6133
2246.131	6077
2248.149	6177
2250.167	6098
2252.186	6066
2254.201	6060
2256.218	6112
2258.233	6092
2260.247	6197
2262.262	6217
2264.278	6079
2266.29	6031
2268.303	6138
2270.315	6177
2272.327	6039
2274.341	6107
2276.35	6042
2278.361	6170
2280.37	6140
2282.38	6104
2284.388	6074
2286.397	6188
2288.405	6174
2290.412	6100
2292.419	6132
2294.425	6031
2296.431	6190
2298.437	6051
2300.441	6156
2302.445	6016
2304.449	6138
2306.453	6172
2308.455	5999
2310.457	5978
2312.459	6069
2314.46	6165
2316.46	6109
2318.461	5952
2320.46	5997
2322.458	6039
2324.458	6051
2326.456	5975
2328.455	6048
2330.451	6046
2332.447	5938
2334.443	6030
2336.438	6006
2338.433	5996
2340.429	5962
2342.422	6011
2344.416	5928
2346.408	6110
2348.399	5997
2350.393	6006
2352.384	5907
2354.375	5894
2356.365	5969
2358.355	6057
2360.344	5977
2362.333	6019
2364.322	5909
2366.309	5919
2368.295	5992
2370.282	5839
2372.27	5895
2374.256	5940
2376.24	5940
2378.225	5921
2380.208	5929
2382.194	5946
2384.177	5913
2386.159	5965
2388.142	5855
2390.122	5977
2392.105	5929
2394.085	5949
2396.066	5957
2398.044	5930
2400.024	5908
2402.002	5845
2403.982	5930
2405.959	5915
2407.935	5877
2409.913	5768
2411.888	5871
2413.865	5799
2415.84	5847
2417.814	5885
2419.788	5860
2421.762	5822
2423.735	5818
2425.708	5868
2427.68	5797
2429.651	5861
2431.623	5878
2433.593	5892
2435.564	5712
2437.533	5889
2439.502	5929
2441.47	5921
2443.438	5922
2445.406	5884
2447.373	5736
2449.34	5964
2451.305	5861
2453.271	5865
2455.235	5849
2457.201	5694
2459.165	5892
2461.129	5845
2463.092	5837
2465.054	5903
2467.018	5813
2468.978	5843
2470.939	5789
2472.899	5805
2474.86	5790
2476.819	5840
2478.778	5725
2480.737	5826
2482.695	5702
2484.653	5809
2486.609	5767
2488.567	5827
2490.524	5798
2492.478	5726
2494.433	5728
2496.387	5701
2498.343	5706
2500.297	5746
2502.249	5743
2504.202	5679
2506.153	5741
2508.105	5831
2510.057	5671
2512.008	5819
2513.957	5788
2515.906	5734
2517.855	5811
2519.805	5675
2521.754	5761
2523.7	5691
2525.647	5688
2527.594	5711
2529.54	5623
2531.486	5700
2533.431	5802
2535.376	5673
2537.32	5696
2539.263	5654
2541.207	5709
2543.151	5679
2545.093	5696
2547.034	5770
2548.975	5712
2550.917	5745
2552.856	5687
2554.796	5712
2556.735	5661
2558.673	5743
2560.611	5771
2562.55	5702
2564.487	5724
2566.424	5623
2568.36	5733
2570.296	5781
2572.232	5681
2574.167	5740
2576.101	5682
2578.035	5679
2579.969	5680
2581.902	5669
2583.834	5732
2585.766	5720
2587.698	5744
2589.628	5693
2591.557	5670
2593.489	5658
2595.419	5615
2597.348	5605
2599.275	5723
2601.204	5626
2603.131	5648
2605.059	5726
2606.986	5681
2608.911	5664
2610.837	5644
2612.76	5705
2614.687	5669
2616.61	5675
2618.534	5686
2620.457	5750
2622.38	5654
2624.302	5717
2626.225	5659
2628.145	5763
2630.067	5740
2631.986	5626
2633.906	5687
2635.827	5792
2637.745	5661
2639.662	5795
2641.581	5734
2643.498	5665
2645.415	5723
2647.331	5724
2649.248	5638
2651.163	5745
2653.077	5708
2654.993	5761
2656.906	5613
2658.821	5666
2660.733	5700
2662.646	5674
2664.557	5638
2666.47	5796
2668.381	5649
2670.291	5700
2672.201	5709
2674.11	5676
2676.021	5621
2677.929	5719
2679.837	5636
2681.745	5712
2683.652	5645
2685.56	5639
2687.466	5580
2689.371	5577
2691.276	5644
2693.181	5567
2695.085	5700
2696.991	5682
2698.893	5681
2700.796	5584
2702.698	5586
2704.601	5571
2706.502	5588
2708.404	5542
2710.304	5498
2712.203	5562
2714.103	5639
2716.003	5527
2717.902	5632
2719.8	5566
2721.697	5537
2723.594	5583
2725.49	5547
2727.389	5535
2729.283	5444
2731.179	5645
2733.073	5606
2734.968	5543
2736.863	5514
2738.757	5453
2740.649	5458
2742.541	5472
2744.433	5506
2746.324	5534
2748.216	5591
2750.107	5492
2751.997	5624
2753.886	5554
2755.776	5450
2757.666	5513
2759.553	5410
2761.44	5535
2763.327	5478
2765.215	5494
2767.102	5501
2768.988	5460
2770.873	5446
2772.757	5463
2774.641	5472
2776.525	5479
2778.41	5489
2780.292	5417
2782.175	5533
2784.057	5404
2785.938	5494
2787.821	5503
2789.701	5385
2791.581	5418
2793.461	5440
2795.34	5341
2797.219	5505
2799.099	5439
2800.975	5428
2802.853	5421
2804.73	5415
2806.606	5444
2808.484	5374
2810.358	5428
2812.233	5370
2814.108	5419
2815.981	5458
2817.857	5431
2819.73	5465
2821.602	5327
2823.474	5394
2825.346	5466
2827.217	5409
2829.089	5392
2830.959	5405
2832.829	5354
2834.698	5280
2836.567	5356
2838.436	5530
2840.305	5396
2842.172	5420
2844.04	5413
2845.905	5367
2847.772	5399
2849.639	5356
2851.503	5448
2853.369	5373
2855.232	5409
2857.096	5382
2858.961	5406
2860.824	5311
2862.686	5436
2864.547	5469
2866.41	5456
2868.272	5433
2870.132	5395
2871.992	5502
2873.851	5455
2875.711	5473
2877.57	5504
2879.429	5473
2881.287	5613
2883.144	5640
2885.001	5628
2886.857	5611
2888.714	5561
2890.57	5612
2892.425	5628
2894.279	5589
2896.133	5643
2897.987	5633
2899.842	5595
2901.694	5543
2903.547	5605
2905.397	5542
2907.249	5512
2909.101	5706
2910.952	5549
2912.802	5545
2914.652	5643
2916.5	5545
2918.35	5532
2920.198	5525
2922.045	5578
2923.893	5746
2925.74	5632
2927.585	5763
2929.433	5673
2931.279	5830
2933.123	5803
2934.968	5882
2936.811	5856
2938.656	5962
2940.5	5877
2942.342	5980
2944.185	5863
2946.026	5860
2947.87	5989
2949.71	5945
2951.549	5934
2953.39	5765
2955.229	5725
2957.069	5785
2958.908	5754
2960.746	5874
2962.584	5746
2964.421	5689
2966.257	5681
2968.094	5660
2969.931	5597
2971.766	5647
2973.601	5552
2975.435	5457
2977.27	5543
2979.105	5455
2980.938	5627
2982.77	5545
2984.602	5467
2986.434	5459
2988.267	5559
2990.097	5376
2991.927	5471
2993.757	5376
2995.587	5430
2997.417	5346
2999.246	5377
3001.074	5379
3002.902	5347
3004.729	5213
3006.556	5256
3008.384	5224
3010.21	5237
3012.036	5248
3013.861	5165
3015.684	5211
3017.51	5157
3019.334	5218
3021.157	5078
3022.981	5085
3024.802	5188
3026.624	5184
3028.448	5120
3030.267	5071
3032.088	5084
3033.909	5126
3035.728	5108
3037.549	5088
3039.368	5067
3041.186	5161
3043.004	5015
3044.821	5117
3046.64	4945
3048.455	5091
3050.272	5007
3052.087	4913
3053.903	5042
3055.717	4964
3057.534	4984
3059.347	4961
3061.16	4955
3062.974	5012
3064.785	5102
3066.598	4951
3068.411	4991
3070.222	4996
3072.032	5020
3073.844	4989
3075.653	4931
3077.463	4981
3079.272	4995
3081.08	5037
3082.889	4929
3084.697	4852
3086.505	4942
3088.312	4967
3090.118	4888
3091.924	4890
3093.729	4936
3095.535	4933
3097.34	4904
3099.144	4891
3100.947	4839
3102.75	4845
3104.553	4777
3106.357	4880
3108.159	4695
3109.961	4858
3111.762	4801
3113.562	4849
3115.365	4882
3117.164	4799
3118.964	4821
3120.761	4830
3122.56	4807
3124.36	4854
3126.158	4729
3127.954	4754
3129.75	4766
3131.547	4839
3133.343	4738
3135.139	4788
3136.934	4820
3138.729	4823
3140.522	4701
3142.317	4842
3144.11	4735
3145.904	4767
3147.695	4701
3149.488	4732
3151.28	4758
3153.07	4691
3154.863	4686
3156.652	4753
3158.441	4730
3160.231	4727
3162.019	4745
3163.81	4691
3165.597	4665
3167.384	4638
3169.172	4710
3170.958	4645
3172.745	4719
3174.532	4600
3176.317	4668
3178.101	4724
3179.885	4633
3181.67	4780
3183.455	4724
3185.238	4661
3187.02	4659
3188.802	4647
3190.585	4654
3192.368	4634
3194.149	4580
3195.929	4643
3197.709	4565
3199.489	4764
3201.268	4621
3203.048	4592
3204.826	4578
3206.604	4653
3208.382	4688
3210.159	4581
3211.937	4652
3213.713	4579
3215.489	4639
3217.263	4587
3219.038	4577
3220.815	4570
3222.589	4570
3224.363	4591
3226.136	4611
3227.908	4637
3229.681	4551
3231.454	4505
3233.226	4550
3234.996	4574
3236.767	4631
3238.538	4643
3240.308	4569
3242.078	4576
3243.847	4589
3245.615	4581
3247.384	4554
3249.15	4537
3250.92	4579
3252.686	4556
3254.453	4531
3256.218	4563
3257.984	4531
3259.75	4530
3261.515	4603
3263.279	4576
3265.044	4553
3266.806	4580
3268.57	4622
3270.334	4627
3272.095	4572
3273.856	4473
3275.619	4547
3277.379	4527
3279.14	4617
3280.9	4538
3282.661	4596
3284.419	4541
3286.178	4546
3287.937	4548
3289.695	4530
3291.453	4543
3293.21	4513
3294.967	4458
3296.723	4500
3298.48	4504
3300.235	4507
3301.99	4571
3303.744	4513
3305.498	4573
3307.253	4478
3309.006	4510
3310.759	4479
3312.511	4517
3314.263	4436
3316.017	4482
3317.768	4466
3319.519	4560
3321.268	4476
3323.018	4492
3324.767	4483
3326.518	4574
3328.267	4442
3330.014	4581
3331.762	4438
3333.509	4505
3335.258	4483
3337.003	4515
3338.75	4473
3340.496	4578
3342.24	4460
3343.987	4500
3345.732	4454
3347.475	4463
3349.219	4439
3350.961	4393
3352.705	4501
3354.448	4525
3356.19	4466
3357.931	4392
3359.672	4316
3361.412	4454
3363.155	4453
3364.894	4403
3366.633	4414
3368.372	4457
3370.11	4489
3371.849	4426
3373.588	4428
3375.325	4403
3377.061	4393
3378.799	4431
3380.534	4409
3382.271	4485
3384.006	4407
3385.741	4457
3387.475	4347
3389.209	4374
3390.944	4368
3392.677	4378
3394.409	4362
3396.143	4382
3397.874	4390
3399.606	4472
3401.338	4367
3403.069	4429
3404.799	4302
3406.528	4362
3408.258	4367
3409.988	4426
3411.717	4430
3413.445	4281
3415.173	4333
3416.899	4306
3418.626	4299
3420.354	4342
3422.08	4302
3423.806	4355
3425.531	4281
3427.255	4402
3428.981	4370
3430.705	4288
3432.429	4289
3434.151	4372
3435.875	4223
3437.599	4198
3439.321	4290
3441.042	4282
3442.763	4273
3444.483	4243
3446.204	4210
3447.926	4219
3449.645	4142
3451.364	4267
3453.082	4240
3454.801	4248
3456.52	4243
3458.238	4162
3459.954	4219
3461.671	4191
3463.387	4215
3465.104	4233
3466.82	4168
3468.534	4147
3470.25	4184
3471.963	4126
3473.676	4033
3475.392	4257
3477.104	4199
3478.817	4169
3480.528	4058
3482.241	4176
3483.954	4151
3485.664	4108
3487.374	4176
3489.084	4133
3490.795	4176
3492.504	4071
3494.214	4049
3495.922	3982
3497.63	4033
3499.338	4076
3501.045	4062
3502.753	4139
3504.459	4101
3506.166	4028
3507.871	4075
3509.576	4123
3511.283	3964
3512.987	4057
3514.691	3997
3516.395	4054
3518.098	4044
3519.8	4003
3521.504	4048
3523.206	4006
3524.908	4036
3526.609	3938
3528.309	4065
3530.011	3991
3531.711	4074
3533.411	4048
3535.109	3998
3536.808	3921
3538.507	3942
3540.206	3952
3541.904	3938
3543.601	3999
3545.297	4044
3546.994	3979
3548.69	4008
3550.387	3939
3552.081	3991
3553.776	3935
3555.47	4099
3557.166	3946
3558.859	3936
3560.553	3863
3562.245	3882
3563.938	3944
3565.629	3898
3567.322	3845
3569.014	3935
3570.704	3960
3572.394	3917
3574.084	3940
3575.775	3880
3577.464	3905
3579.152	3825
3580.842	3818
3582.529	3908
3584.216	3820
3585.905	3822
3587.591	3907
3589.279	3873
3590.964	3875
3592.649	3861
3594.336	3867
3596.021	3735
3597.705	3821
3599.388	3844
3601.072	3864
3602.757	3847
3604.439	3838
3606.122	3830
3607.803	3826
3609.485	3790
3611.167	3794
3612.849	3800
3614.529	3740
3616.208	3822
3617.888	3778
3619.567	3750
3621.247	3835
3622.926	3761
3624.603	3704
3626.281	3784
3627.958	3812
3629.635	3708
3631.312	3775
3632.989	3747
3634.665	3756
3636.339	3708
3638.014	3769
3639.691	3745
3641.364	3727
3643.038	3719
3644.71	3624
3646.384	3650
3648.058	3717
3649.729	3755
3651.402	3696
3653.073	3672
3654.744	3694
3656.414	3632
3658.085	3678
3659.755	3651
3661.424	3646
3663.094	3645
3664.762	3659
3666.431	3751
3668.099	3676
3669.766	3635
3671.433	3637
3673.099	3694
3674.768	3704
3676.433	3618
3678.098	3681
3679.763	3659
3681.428	3604
3683.093	3605
3684.757	3572
3686.421	3597
3688.083	3630
3689.746	3613
3691.408	3564
3693.071	3555
3694.733	3613
3696.394	3647
3698.054	3581
3699.715	3615
3701.375	3603
3703.036	3634
3704.695	3549
3706.354	3584
3708.012	3613
3709.67	3621
3711.329	3549
3712.987	3683
3714.644	3558
3716.299	3554
3717.955	3629
3719.613	3592
3721.268	3648
3722.923	3539
3724.577	3563
3726.231	3568
3727.885	3514
3729.539	3560
3731.192	3570
3732.845	3533
3734.497	3525
3736.149	3508
3737.802	3558
3739.453	3583
3741.104	3447
3742.753	3557
3744.404	3570
3746.052	3584
3747.704	3467
3749.352	3447
3751	3554
3752.648	3545
3754.296	3507
3755.944	3420
3757.59	3485
3759.238	3416
3760.883	3451
3762.528	3463
3764.176	3568
3765.82	3439
3767.464	3439
3769.109	3467
3770.753	3489
3772.396	3432
3774.04	3493
3775.683	3393
3777.325	3496
3778.967	3495
3780.608	3421
3782.25	3426
3783.89	3440
3785.531	3472
3787.17	3473
3788.81	3473
3790.45	3320
3792.09	3433
3793.729	3385
3795.366	3397
3797.003	3435
3798.64	3486
3800.278	3462
3801.915	3409
3803.551	3368
3805.187	3335
3806.822	3357
3808.458	3405
3810.093	3341
3811.726	3325
3813.36	3376
3814.994	3444
3816.627	3410
3818.262	3366
3819.893	3367
3821.525	3397
3823.157	3383
3824.787	3350
3826.42	3284
3828.051	3419
3829.68	3261
3831.31	3392
3832.938	3297
3834.569	3331
3836.198	3327
3837.825	3372
3839.454	3383
3841.08	3337
3842.708	3385
3844.335	3394
3845.962	3346
3847.587	3337
3849.212	3288
3850.838	3344
3852.463	3307
3854.089	3273
3855.712	3286
3857.335	3268
3858.959	3292
3860.582	3334
3862.205	3281
3863.827	3265
3865.449	3234
3867.07	3262
3868.691	3294
3870.312	3223
3871.933	3258
3873.553	3298
3875.173	3300
3876.792	3276
3878.411	3328
3880.03	3264
3881.647	3247
3883.265	3302
3884.882	3211
3886.499	3256
3888.116	3241
3889.732	3204
3891.348	3236
3892.964	3294
3894.579	3243
3896.195	3195
3897.809	3209
3899.423	3181
3901.036	3209
3902.648	3268
3904.261	3213
3905.875	3251
3907.487	3187
3909.099	3159
3910.709	3251
3912.321	3238
3913.933	3180
3915.542	3167
3917.152	3185
3918.762	3153
3920.37	3256
3921.98	3169
3923.589	3148
3925.196	3173
3926.804	3231
3928.41	3179
3930.018	3171
3931.626	3148
3933.231	3199
3934.838	3249
3936.442	3197
3938.046	3150
3939.653	3148
3941.257	3178
3942.861	3215
3944.464	3177
3946.068	3168
3947.67	3114
3949.273	3104
3950.876	3138
3952.477	3126
3954.078	3181
3955.678	3151
3957.281	3137
3958.881	3170
3960.48	3075
3962.079	3135
3963.678	3112
3965.279	3087
3966.877	3045
3968.475	3138
3970.072	3098
3971.669	3173
3973.266	3059
3974.864	3062
3976.459	3099
3978.055	3072
3979.65	3064
3981.245	3089
3982.841	3063
3984.436	3106
3986.03	3059
3987.623	3140
3989.216	3102
3990.809	3088
3992.403	3055
3993.995	3046
3995.586	3082
3997.177	3072
3998.768	3079
4000.361	3026
4001.951	3012
4003.54	3000
4005.13	2960
4006.719	3066
4008.31	3026
4009.897	3020
4011.485	2983
4013.073	2934
4014.66	2941
4016.247	3070
4017.834	2898
4019.421	3007
4021.006	2998
4022.592	3028
4024.178	3025
4025.763	2937
4027.348	2946
4028.932	2950
4030.515	2959
4032.099	2955
4033.682	3036
4035.266	2909
4036.847	2942
4038.429	3000
4040.011	2902
4041.592	2961
4043.173	3002
4044.755	2925
4046.334	3042
4047.913	2909
4049.494	2948
4051.074	2965
4052.652	2864
4054.23	2858
4055.807	2877
4057.385	2900
4058.963	2918
4060.541	2887
4062.117	2907
4063.693	2921
4065.269	2919
4066.844	2892
4068.42	2899
4069.995	2911
4071.569	2903
4073.143	2799
4074.716	2912
4076.291	2823
4077.864	2861
4079.436	2840
4081.009	2831
4082.58	2820
4084.152	2843
4085.723	2841
4087.294	2901
4088.865	2816
4090.435	2816
4092.005	2882
4093.574	2863
4095.143	2783
4096.712	2772
4098.279	2833
4099.848	2894
4101.416	2823
4102.984	2817
4104.55	2823
4106.117	2778
4107.682	2869
4109.248	2793
4110.815	2837
4112.379	2816
4113.945	2892
4115.508	2844
4117.073	2744
4118.637	2791
4120.201	2775
4121.763	2740
4123.325	2732
4124.888	2766
4126.449	2784
4128.013	2720
4129.573	2792
4131.133	2760
4132.694	2811
4134.254	2680
4135.814	2859
4137.374	2725
4138.933	2733
4140.491	2727
4142.049	2722
4143.607	2752
4145.167	2758
4146.724	2736
4148.28	2711
4149.836	2721
4151.392	2695
4152.949	2824
4154.504	2670
4156.059	2726
4157.614	2714
4159.168	2770
4160.723	2697
4162.277	2741
4163.83	2690
4165.383	2706
4166.936	2736
4168.488	2684
4170.041	2674
4171.593	2676
4173.144	2700
4174.695	2709
4176.246	2747
4177.796	2667
4179.346	2680
4180.896	2676
4182.445	2698
4183.994	2675
4185.542	2643
4187.091	2676
4188.639	2673
4190.185	2682
4191.732	2694
4193.279	2685
4194.826	2631
4196.373	2628
4197.918	2647
4199.463	2635
4201.008	2621
4202.553	2629
4204.098	2631
4205.641	2655
4207.185	2614
4208.728	2534
4210.271	2590
4211.814	2633
4213.357	2632
4214.898	2562
4216.439	2584
4217.98	2659
4219.522	2615
4221.062	2549
4222.603	2555
4224.142	2600
4225.681	2564
4227.222	2580
4228.76	2569
4230.298	2620
4231.835	2553
4233.373	2568
4234.911	2623
4236.449	2600
4237.985	2595
4239.521	2607
4241.057	2581
4242.592	2530
4244.128	2602
4245.663	2600
4247.197	2534
4248.731	2518
4250.265	2522
4251.798	2579
4253.333	2559
4254.865	2574
4256.397	2567
4257.93	2574
4259.461	2515
4260.994	2560
4262.525	2489
4264.056	2541
4265.586	2519
4267.115	2524
4268.646	2542
4270.176	2574
4271.705	2545
4273.232	2561
4274.761	2552
4276.289	2518
4277.818	2508
4279.345	2556
4280.872	2521
4282.399	2507
4283.924	2499
4285.452	2528
4286.976	2491
4288.502	2513
4290.026	2502
4291.551	2485
4293.074	2506
4294.6	2437
4296.123	2488
4297.646	2461
4299.168	2492
4300.691	2468
4302.214	2487
4303.736	2436
4305.257	2440
4306.778	2463
4308.299	2470
4309.82	2495
4311.34	2500
4312.86	2463
4314.379	2456
