400.0745	4363
402.597	4376
405.1208	4388
407.6419	4423
410.1623	4384
412.6819	4539
415.201	4566
417.7172	4537
420.2369	4520
422.7538	4638
425.2701	4587
427.7856	4568
430.3005	4761
432.8147	4711
435.3282	4742
437.841	4686
440.3511	4731
442.8625	4700
445.3753	4700
447.8854	4740
450.3927	4729
452.9014	4791
455.4073	4674
457.9146	4677
460.4233	4760
462.9272	4771
465.4325	4692
467.935	4746
470.4389	4771
472.9421	4695
475.4446	4706
477.9444	4831
480.4456	4749
482.944	4695
485.4417	4788
487.9429	4843
490.4393	4764
492.935	4846
495.4321	4736
497.9264	4786
500.4221	4883
502.9171	4766
505.4094	4723
507.9011	4762
510.392	4842
512.8864	4773
515.3759	4935
517.8649	4906
520.3531	4867
522.8406	4856
525.3275	4888
527.8178	4931
530.3033	4882
532.7881	4940
535.2723	4989
537.7558	4917
540.2407	4946
542.7228	4807
545.2043	4968
547.6851	4957
550.1652	4974
552.6467	4918
555.1255	4934
557.6016	5039
560.079	4981
562.5557	5001
565.0318	4973
567.5092	5037
569.984	5025
572.456	5099
574.9294	5036
577.4022	5084
579.8762	5154
582.3456	5156
584.8163	5073
587.2863	5162
589.7557	5239
592.2224	5210
594.6924	5157
597.1578	5138
599.6245	5109
602.0905	5113
604.5538	5006
607.0206	4957
609.4825	5106
611.9459	5188
614.4066	5007
616.8686	5131
619.33	5039
621.7906	4952
624.2487	5121
626.708	5044
629.1647	5067
631.6207	5091
634.0801	4976
636.5348	5115
638.9888	5062
641.4442	5168
643.8969	5033
646.3509	5070
648.8022	5037
651.255	5132
653.705	5138
656.1544	5180
658.6031	5184
661.0532	5163
663.5026	5160
665.9493	5194
668.3954	5181
670.8409	5195
673.2877	5281
675.7318	5279
678.1752	5189
680.618	5223
683.0601	5226
685.5035	5273
687.9444	5289
690.3845	5376
692.824	5255
695.2628	5316
697.701	5289
700.1406	5320
702.5774	5307
705.0116	5354
707.4472	5342
709.8821	5259
712.3183	5229
714.7519	5332
717.1829	5353
719.6151	5399
722.0468	5369
724.4777	5395
726.908	5442
729.3377	5419
731.7667	5484
734.1931	5424
736.6208	5456
739.0498	5498
741.4742	5394
743.9	5541
746.3231	5518
748.7476	5479
751.1713	5633
753.5945	5518
756.015	5606
758.4368	5696
760.856	5638
763.2766	5600
765.6965	5753
768.1157	5640
770.5323	5641
772.9483	5725
775.3656	5631
777.7822	5577
780.1963	5691
782.6116	5653
785.0244	5644
787.4365	5691
789.8499	5748
792.2626	5570
794.6728	5662
797.0823	5639
799.4911	5618
801.8994	5682
804.3109	5732
806.7178	5780
809.124	5739
811.5297	5743
813.9347	5740
816.341	5712
818.7447	5834
821.1478	5797
823.5502	5702
825.952	5781
828.3531	5752
830.7556	5704
833.1554	5724
835.5546	5775
837.9532	5791
840.3511	5764
842.7504	5809
845.1451	5739
847.5411	5818
849.9365	5925
852.3312	5888
854.7272	5889
857.1187	5913
859.5115	5909
861.9037	5877
864.2952	5780
866.6842	5742
869.0764	5837
871.4661	5859
873.8531	5859
876.2415	5849
878.6272	5792
881.0162	5894
883.4026	5830
885.7866	5863
888.1717	5832
890.5543	5854
892.9382	5872
895.3215	5789
897.7041	5966
900.0842	5797
902.4655	5828
904.8443	5897
907.2244	5814
909.6039	5829
911.9808	5837
914.357	5932
916.7346	5954
919.1115	5955
921.4859	6138
923.8616	5980
926.2347	6026
928.6071	6098
930.979	6025
933.3541	6064
935.7247	6184
938.0946	6101
940.4639	6272
942.8326	6292
945.2026	6312
947.5701	6608
949.9369	6627
952.305	6855
954.6705	7017
957.0355	7154
959.4017	7464
961.7654	7528
964.1284	7519
966.4908	7413
968.8527	7058
971.2138	6771
973.5743	6571
975.9343	6293
978.2936	6266
980.6522	6081
983.0122	6040
985.3696	6166
987.7245	6134
990.0807	6032
992.4362	6084
994.7911	6056
997.1474	6000
999.4991	5979
1001.852	6033
1004.205	6104
1006.555	6075
1008.908	6034
1011.258	6167
1013.606	6063
1015.956	6093
1018.302	6079
1020.652	6048
1022.998	6045
1025.345	6153
1027.691	6154
1030.035	6256
1032.378	6181
1034.724	6165
1037.066	6282
1039.409	6205
1041.75	6143
1044.092	6271
1046.433	6301
1048.771	6157
1051.112	6147
1053.449	6106
1055.786	6222
1058.124	6273
1060.462	6185
1062.797	6243
1065.131	6313
1067.467	6264
1069.8	6194
1072.135	6462
1074.467	6277
1076.798	6459
1079.129	6269
1081.459	6320
1083.792	6157
1086.121	6308
1088.449	6092
1090.777	6316
1093.104	6091
1095.431	6147
1097.759	6310
1100.084	6298
1102.408	6232
1104.732	6219
1107.056	6178
1109.379	6151
1111.701	6274
1114.022	6178
1116.343	6156
1118.664	6197
1120.983	6118
1123.303	6318
1125.621	6233
1127.939	6205
1130.256	6171
1132.573	6206
1134.889	6317
1137.205	6168
1139.52	6298
1141.832	6194
1144.146	6172
1146.461	6189
1148.771	6104
1151.083	6105
1153.392	6190
1155.703	6162
1158.011	6244
1160.323	6241
1162.629	6293
1164.938	6203
1167.243	6124
1169.55	6222
1171.857	6177
1174.163	6257
1176.466	6282
1178.769	6147
1181.073	6162
1183.374	6268
1185.677	6205
1187.979	6280
1190.279	6182
1192.578	6211
1194.878	6140
1197.178	6185
1199.476	6230
1201.772	6103
1204.068	6318
1206.366	6214
1208.663	6270
1210.957	6270
1213.251	6177
1215.544	6275
1217.836	6307
1220.128	6248
1222.421	6272
1224.712	6298
1227.002	6289
1229.292	6380
1231.581	6277
1233.871	6340
1236.159	6341
1238.446	6318
1240.732	6448
1243.018	6491
1245.304	6498
1247.59	6405
1249.874	6468
1252.156	6371
1254.439	6509
1256.721	6385
1259.005	6467
1261.286	6392
1263.565	6333
1265.845	6495
1268.125	6477
1270.403	6436
1272.682	6424
1274.959	6464
1277.234	6391
1279.511	6386
1281.787	6224
1284.062	6398
1286.337	6285
1288.609	6551
1290.882	6426
1293.153	6346
1295.428	6354
1297.698	6437
1299.969	6306
1302.237	6381
1304.507	6341
1306.777	6238
1309.044	6344
1311.312	6332
1313.578	6410
1315.844	6335
1318.109	6440
1320.375	6393
1322.638	6291
1324.903	6364
1327.165	6240
1329.427	6298
1331.69	6340
1333.952	6389
1336.212	6346
1338.471	6332
1340.73	6487
1342.988	6259
1345.248	6209
1347.505	6293
1349.763	6389
1352.019	6253
1354.274	6243
1356.53	6301
1358.784	6382
1361.038	6307
1363.291	6344
1365.543	6362
1367.797	6335
1370.048	6379
1372.296	6361
1374.546	6305
1376.796	6431
1379.045	6417
1381.295	6436
1383.542	6490
1385.787	6483
1388.034	6298
1390.28	6443
1392.527	6448
1394.772	6461
1397.014	6448
1399.258	6330
1401.501	6492
1403.741	6369
1405.985	6453
1408.226	6472
1410.465	6471
1412.705	6449
1414.943	6393
1417.184	6399
1419.42	6459
1421.658	6559
1423.894	6635
1426.13	6474
1428.366	6482
1430.602	6565
1432.835	6552
1435.069	6432
1437.301	6609
1439.535	6547
1441.767	6551
1443.997	6593
1446.229	6572
1448.458	6638
1450.687	6580
1452.916	6596
1455.146	6725
1457.372	6760
1459.599	6637
1461.824	6607
1464.051	6678
1466.277	6607
1468.501	6543
1470.725	6610
1472.948	6681
1475.17	6439
1477.393	6506
1479.614	6442
1481.837	6385
1484.057	6521
1486.276	6492
1488.497	6529
1490.715	6334
1492.932	6328
1495.148	6404
1497.364	6339
1499.58	6360
1501.798	6313
1504.012	6331
1506.227	6345
1508.44	6365
1510.653	6353
1512.866	6384
1515.078	6308
1517.289	6347
1519.5	6291
1521.711	6308
1523.92	6314
1526.13	6301
1528.338	6253
1530.544	6282
1532.752	6327
1534.959	6340
1537.165	6335
1539.371	6273
1541.574	6264
1543.779	6410
1545.983	6282
1548.187	6323
1550.39	6529
1552.59	6472
1554.792	6401
1556.991	6412
1559.19	6462
1561.392	6497
1563.59	6342
1565.789	6456
1567.986	6506
1570.182	6418
1572.381	6602
1574.576	6484
1576.771	6472
1578.966	6430
1581.16	6395
1583.354	6474
1585.546	6644
1587.74	6593
1589.931	6426
1592.121	6614
1594.311	6502
1596.502	6537
1598.693	6608
1600.881	6532
1603.069	6584
1605.256	6554
1607.445	6519
1609.631	6540
1611.816	6538
1614.001	6573
1616.186	6609
1618.37	6579
1620.555	6566
1622.737	6603
1624.919	6565
1627.101	6617
1629.282	6660
1631.463	6568
1633.643	6638
1635.822	6641
1638.001	6537
1640.179	6579
1642.359	6573
1644.534	6557
1646.711	6647
1648.887	6601
1651.062	6647
1653.235	6631
1655.412	6550
1657.586	6682
1659.757	6689
1661.93	6699
1664.1	6588
1666.274	6799
1668.445	6725
1670.614	6682
1672.784	6584
1674.951	6690
1677.12	6648
1679.289	6714
1681.457	6618
1683.622	6567
1685.789	6652
1687.953	6705
1690.121	6697
1692.284	6487
1694.447	6569
1696.611	6601
1698.772	6743
1700.935	6603
1703.098	6615
1705.258	6516
1707.417	6543
1709.576	6521
1711.736	6428
1713.896	6541
1716.053	6468
1718.21	6495
1720.366	6498
1722.522	6443
1724.68	6544
1726.835	6503
1728.989	6592
1731.142	6455
1733.295	6497
1735.449	6449
1737.601	6382
1739.753	6588
1741.903	6508
1744.054	6543
1746.203	6580
1748.354	6416
1750.503	6494
1752.651	6471
1754.798	6467
1756.944	6543
1759.092	6603
1761.238	6535
1763.383	6607
1765.528	6527
1767.672	6466
1769.814	6511
1771.959	6485
1774.102	6481
1776.242	6586
1778.384	6609
1780.525	6663
1782.665	6544
1784.805	6532
1786.945	6456
1789.082	6464
1791.22	6617
1793.36	6511
1795.495	6626
1797.632	6598
1799.766	6623
1801.902	6614
1804.035	6620
1806.172	6608
1808.304	6644
1810.436	6613
1812.569	6573
1814.699	6718
1816.833	6525
1818.963	6593
1821.092	6627
1823.222	6571
1825.35	6511
1827.478	6558
1829.608	6475
1831.734	6535
1833.86	6522
1835.986	6471
1838.11	6490
1840.238	6555
1842.362	6499
1844.485	6559
1846.608	6608
1848.73	6422
1850.853	6449
1852.974	6524
1855.097	6584
1857.217	6420
1859.336	6652
1861.455	6498
1863.576	6397
1865.693	6430
1867.811	6505
1869.926	6637
1872.042	6513
1874.16	6496
1876.275	6376
1878.39	6636
1880.504	6438
1882.618	6557
1884.731	6510
1886.843	6430
1888.956	6469
1891.067	6480
1893.178	6572
1895.287	6511
1897.399	6519
1899.508	6485
1901.617	6514
1903.724	6423
1905.832	6604
1907.941	6507
1910.046	6485
1912.152	6591
1914.256	6615
1916.361	6569
1918.464	6449
1920.57	6594
1922.672	6535
1924.775	6548
1926.876	6587
1928.978	6579
1931.08	6656
1933.181	6607
1935.28	6560
1937.38	6574
1939.478	6600
1941.577	6549
1943.675	6723
1945.771	6676
1947.867	6531
1949.964	6591
1952.058	6683
1954.154	6523
1956.248	6550
1958.343	6598
1960.435	6554
1962.527	6648
1964.62	6594
1966.711	6593
1968.802	6526
1970.892	6678
1972.983	6570
1975.072	6610
1977.162	6447
1979.25	6554
1981.337	6524
1983.424	6551
1985.51	6518
1987.598	6541
1989.683	6513
1991.768	6505
1993.852	6577
1995.934	6576
1998.019	6447
2000.102	6367
2002.184	6486
2004.266	6589
2006.347	6479
2008.427	6576
2010.508	6573
2012.587	6459
2014.666	6473
2016.745	6431
2018.821	6525
2020.9	6397
2022.977	6459
2025.052	6366
2027.128	6562
2029.204	6522
2031.277	6437
2033.353	6530
2035.425	6467
2037.499	6576
2039.57	6473
2041.642	6415
2043.714	6574
2045.786	6510
2047.855	6501
2049.925	6456
2051.993	6489
2054.064	6488
2056.132	6465
2058.2	6444
2060.266	6573
2062.332	6418
2064.398	6462
2066.465	6464
2068.529	6486
2070.592	6423
2072.657	6423
2074.719	6358
2076.783	6521
2078.845	6506
2080.907	6467
2082.968	6530
2085.028	6468
2087.087	6403
2089.148	6560
2091.207	6449
2093.264	6618
2095.322	6447
2097.379	6691
2099.439	6426
2101.495	6405
2103.55	6562
2105.605	6452
2107.658	6538
2109.713	6546
2111.767	6532
2113.82	6427
2115.872	6544
2117.924	6496
2119.975	6509
2122.028	6456
2124.078	6556
2126.126	6575
2128.176	6461
2130.225	6412
2132.275	6413
2134.321	6512
2136.368	6463
2138.415	6478
2140.461	6444
2142.505	6424
2144.552	6375
2146.597	6428
2148.64	6532
2150.684	6437
2152.725	6518
2154.77	6351
2156.811	6393
2158.852	6485
2160.894	6394
2162.933	6410
2164.973	6539
2167.013	6343
2169.051	6228
2171.089	6299
2173.126	6383
2175.164	6361
2177.201	6319
2179.236	6405
2181.273	6362
2183.307	6324
2185.341	6391
2187.377	6290
2189.41	6415
2191.442	6343
2193.473	6408
2195.506	6427
2197.539	6287
2199.569	6383
2201.598	6328
2203.628	6241
2205.656	6300
2207.686	6281
2209.716	6324
2211.743	6423
2213.769	6329
2215.796	6233
2217.821	6415
2219.848	6240
2221.873	6194
2223.897	6360
2225.921	6223
2227.944	6161
2229.967	6233
2231.991	6240
2234.011	6403
2236.032	6256
2238.053	6277
2240.073	6285
2242.094	6186
2244.114	6310
2246.131	6145
2248.149	6278
2250.167	6307
2252.186	6152
2254.201	6216
2256.218	6316
2258.233	6203
2260.247	6172
2262.262	6325
2264.278	6263
2266.29	6321
2268.303	6264
2270.315	6347
2272.327	6217
2274.341	6232
2276.35	6249
2278.361	6307
2280.37	6218
2282.38	6254
2284.388	6192
2286.397	6205
2288.405	6326
2290.412	6121
2292.419	6221
2294.425	6262
2296.431	6277
2298.437	6210
2300.441	6292
2302.445	6217
2304.449	6298
2306.453	6203
2308.455	6317
2310.457	6258
2312.459	6166
2314.46	6295
2316.46	6150
2318.461	6272
2320.46	6202
2322.458	6307
2324.458	6181
2326.456	6165
2328.455	6165
2330.451	6352
2332.447	6095
2334.443	6146
2336.438	6143
2338.433	6153
2340.429	6185
2342.422	6147
2344.416	6137
2346.408	6179
2348.399	6066
2350.393	6091
2352.384	6163
2354.375	6160
2356.365	6074
2358.355	6041
2360.344	6103
2362.333	6131
2364.322	6161
2366.309	5995
2368.295	6042
2370.282	6048
2372.27	6071
2374.256	6018
2376.24	6067
2378.225	6103
2380.208	6013
2382.194	6142
2384.177	6086
2386.159	6049
2388.142	5997
2390.122	6004
2392.105	6012
2394.085	5923
2396.066	6033
2398.044	6036
2400.024	5966
2402.002	5979
2403.982	6011
2405.959	6019
2407.935	6035
2409.913	5933
2411.888	6053
2413.865	6087
2415.84	6062
2417.814	6023
2419.788	5925
2421.762	6003
2423.735	6014
2425.708	6053
2427.68	5996
2429.651	6024
2431.623	5934
2433.593	6006
2435.564	6004
2437.533	6000
2439.502	5987
2441.47	5971
2443.438	5930
2445.406	5957
2447.373	6004
2449.34	5815
2451.305	5905
2453.271	6087
2455.235	6002
2457.201	5912
2459.165	5896
2461.129	6037
2463.092	5950
2465.054	5972
2467.018	5898
2468.978	5925
2470.939	5932
2472.899	5990
2474.86	6018
2476.819	5912
2478.778	5960
2480.737	5868
2482.695	5872
2484.653	5936
2486.609	5948
2488.567	6038
2490.524	5905
2492.478	5871
2494.433	5939
2496.387	5920
2498.343	5869
2500.297	5927
2502.249	5942
2504.202	5922
2506.153	5925
2508.105	5891
2510.057	5868
2512.008	5951
2513.957	5799
2515.906	5829
2517.855	5923
2519.805	5798
2521.754	5796
2523.7	5944
2525.647	5863
2527.594	5819
2529.54	5804
2531.486	5952
2533.431	5935
2535.376	5875
2537.32	5814
2539.263	5847
2541.207	5899
2543.151	5876
2545.093	5809
2547.034	5885
2548.975	5928
2550.917	5693
2552.856	5875
2554.796	5887
2556.735	5890
2558.673	5902
2560.611	5896
2562.55	5917
2564.487	5877
2566.424	5828
2568.36	5805
2570.296	5867
2572.232	5815
2574.167	5853
2576.101	5761
2578.035	5890
2579.969	5814
2581.902	5837
2583.834	5929
2585.766	5857
2587.698	5813
2589.628	5862
2591.557	5892
2593.489	5852
2595.419	5879
2597.348	5869
2599.275	5876
2601.204	5863
2603.131	5803
2605.059	5829
2606.986	5839
2608.911	5838
2610.837	5839
2612.76	5884
2614.687	5767
2616.61	5776
2618.534	5813
2620.457	5826
2622.38	5772
2624.302	5890
2626.225	5938
2628.145	5849
2630.067	5823
2631.986	5851
2633.906	5771
2635.827	5952
2637.745	5815
2639.662	5780
2641.581	5843
2643.498	5910
2645.415	5905
2647.331	5939
2649.248	5754
2651.163	5671
2653.077	5867
2654.993	5779
2656.906	5868
2658.821	5922
2660.733	5884
2662.646	5863
2664.557	5948
2666.47	5881
2668.381	5826
2670.291	5989
2672.201	5661
2674.11	5838
2676.021	5819
2677.929	5840
2679.837	5906
2681.745	5874
2683.652	5848
2685.56	5840
2687.466	5819
2689.371	5820
2691.276	5717
2693.181	5755
2695.085	5771
2696.991	5736
2698.893	5703
2700.796	5775
2702.698	5622
2704.601	5707
2706.502	5734
2708.404	5678
2710.304	5765
2712.203	5745
2714.103	5776
2716.003	5670
2717.902	5627
2719.8	5684
2721.697	5670
2723.594	5754
2725.49	5735
2727.389	5758
2729.283	5762
2731.179	5612
2733.073	5775
2734.968	5773
2736.863	5712
2738.757	5763
2740.649	5685
2742.541	5727
2744.433	5693
2746.324	5711
2748.216	5722
2750.107	5715
2751.997	5666
2753.886	5646
2755.776	5765
2757.666	5680
2759.553	5771
2761.44	5619
2763.327	5613
2765.215	5594
2767.102	5666
2768.988	5585
2770.873	5598
2772.757	5529
2774.641	5613
2776.525	5698
2778.41	5644
2780.292	5641
2782.175	5651
2784.057	5683
2785.938	5606
2787.821	5700
2789.701	5541
2791.581	5680
2793.461	5696
2795.34	5524
2797.219	5610
2799.099	5659
2800.975	5552
2802.853	5690
2804.73	5562
2806.606	5506
2808.484	5579
2810.358	5513
2812.233	5588
2814.108	5532
2815.981	5503
2817.857	5535
2819.73	5578
2821.602	5698
2823.474	5608
2825.346	5588
2827.217	5438
2829.089	5524
2830.959	5497
2832.829	5491
2834.698	5451
2836.567	5498
2838.436	5694
2840.305	5474
2842.172	5613
2844.04	5501
2845.905	5556
2847.772	5535
2849.639	5556
2851.503	5585
2853.369	5522
2855.232	5560
2857.096	5653
2858.961	5543
2860.824	5709
2862.686	5584
2864.547	5701
2866.41	5577
2868.272	5723
2870.132	5796
2871.992	5790
2873.851	5713
2875.711	5788
2877.57	5798
2879.429	5797
2881.287	5885
2883.144	6053
2885.001	5904
2886.857	5856
2888.714	5972
2890.57	5966
2892.425	5971
2894.279	5856
2896.133	5898
2897.987	5928
2899.842	5850
2901.694	5929
2903.547	5880
2905.397	5897
2907.249	5845
2909.101	5924
2910.952	5962
2912.802	5921
2914.652	6013
2916.5	5935
2918.35	5988
2920.198	6062
2922.045	6164
2923.893	6228
2925.74	6244
2927.585	6230
2929.433	6173
2931.279	6330
2933.123	6269
2934.968	6392
2936.811	6582
2938.656	6605
2940.5	6594
2942.342	6553
2944.185	6676
2946.026	6518
2947.87	6617
2949.71	6490
2951.549	6479
2953.39	6480
2955.229	6559
2957.069	6291
2958.908	6299
2960.746	6300
2962.584	6246
2964.421	6220
2966.257	6198
2968.094	6082
2969.931	6162
2971.766	6027
2973.601	6065
2975.435	6044
2977.27	5995
2979.105	6046
2980.938	5940
2982.77	5907
2984.602	5998
2986.434	5898
2988.267	6019
2990.097	5857
2991.927	5957
2993.757	5806
2995.587	5749
2997.417	5714
2999.246	5695
3001.074	5714
3002.902	5694
3004.729	5613
3006.556	5491
3008.384	5533
3010.21	5488
3012.036	5534
3013.861	5409
3015.684	5462
3017.51	5399
3019.334	5348
3021.157	5352
3022.981	5393
3024.802	5372
3026.624	5244
3028.448	5324
3030.267	5274
3032.088	5220
3033.909	5396
3035.728	5292
3037.549	5272
3039.368	5289
3041.186	5191
3043.004	5263
3044.821	5303
3046.64	5265
3048.455	5209
3050.272	5069
3052.087	5278
3053.903	5267
3055.717	5168
3057.534	5346
3059.347	5113
3061.16	5139
3062.974	5167
3064.785	5175
3066.598	5122
3068.411	5228
3070.222	5101
3072.032	5198
3073.844	5146
3075.653	5106
3077.463	5085
3079.272	5158
3081.08	5266
3082.889	5092
3084.697	5076
3086.505	5076
3088.312	5129
3090.118	5187
3091.924	5044
3093.729	5153
3095.535	4957
3097.34	5079
3099.144	5044
3100.947	4964
3102.75	5045
3104.553	5074
3106.357	4985
3108.159	5069
3109.961	5004
3111.762	4947
3113.562	5142
3115.365	4997
3117.164	4919
3118.964	4932
3120.761	4991
3122.56	4984
3124.36	4833
3126.158	4996
3127.954	5038
3129.75	4891
3131.547	4996
3133.343	4941
3135.139	5008
3136.934	4883
3138.729	4899
3140.522	4946
3142.317	4971
3144.11	4927
3145.904	5080
3147.695	4846
3149.488	4947
3151.28	4908
3153.07	4873
3154.863	4846
3156.652	4858
3158.441	4909
3160.231	4974
3162.019	4927
3163.81	4805
3165.597	4854
3167.384	4883
3169.172	4788
3170.958	4852
3172.745	4969
3174.532	4912
3176.317	4853
3178.101	4934
3179.885	4810
3181.67	4788
3183.455	4910
3185.238	4820
3187.02	4969
3188.802	4751
3190.585	4825
3192.368	4805
3194.149	4808
3195.929	4828
3197.709	4825
3199.489	4780
3201.268	4860
3203.048	4864
3204.826	4870
3206.604	4764
3208.382	4849
3210.159	4736
3211.937	4819
3213.713	4754
3215.489	4863
3217.263	4860
3219.038	4924
3220.815	4743
3222.589	4846
3224.363	4845
3226.136	4733
3227.908	4779
3229.681	4778
3231.454	4830
3233.226	4812
3234.996	4802
3236.767	4721
3238.538	4825
3240.308	4884
3242.078	4755
3243.847	4759
3245.615	4778
3247.384	4829
3249.15	4845
3250.92	4748
3252.686	4826
3254.453	4779
3256.218	4806
3257.984	4744
3259.75	4841
3261.515	4843
3263.279	4865
3265.044	4770
3266.806	4738
3268.57	4808
3270.334	4846
3272.095	4814
3273.856	4736
3275.619	4812
3277.379	4862
3279.14	4817
3280.9	4880
3282.661	4728
3284.419	4849
3286.178	4812
3287.937	4842
3289.695	4644
3291.453	4824
3293.21	4718
3294.967	4813
3296.723	4713
3298.48	4734
3300.235	4825
3301.99	4715
3303.744	4797
3305.498	4774
3307.253	4758
3309.006	4795
3310.759	4759
3312.511	4789
3314.263	4815
3316.017	4815
3317.768	4774
3319.519	4784
3321.268	4704
3323.018	4866
3324.767	4752
3326.518	4715
3328.267	4611
3330.014	4836
3331.762	4679
3333.509	4719
3335.258	4736
3337.003	4774
3338.75	4751
3340.496	4744
3342.24	4712
3343.987	4760
3345.732	4686
3347.475	4764
3349.219	4786
3350.961	4656
3352.705	4757
3354.448	4710
3356.19	4667
3357.931	4799
3359.672	4724
3361.412	4705
3363.155	4716
3364.894	4610
3366.633	4814
3368.372	4706
3370.11	4710
3371.849	4623
3373.588	4627
3375.325	4621
3377.061	4697
3378.799	4609
3380.534	4492
3382.271	4681
3384.006	4641
3385.741	4662
3387.475	4663
3389.209	4590
3390.944	4463
3392.677	4627
3394.409	4574
3396.143	4592
3397.874	4621
3399.606	4514
3401.338	4574
3403.069	4569
3404.799	4624
3406.528	4656
3408.258	4511
3409.988	4605
3411.717	4620
3413.445	4556
3415.173	4587
3416.899	4628
3418.626	4593
3420.354	4485
3422.08	4560
3423.806	4598
3425.531	4501
3427.255	4521
3428.981	4526
3430.705	4485
3432.429	4515
3434.151	4504
3435.875	4442
3437.599	4462
3439.321	4574
3441.042	4514
3442.763	4439
3444.483	4475
3446.204	4469
3447.926	4479
3449.645	4415
3451.364	4476
3453.082	4451
3454.801	4520
3456.52	4411
3458.238	4363
3459.954	4428
3461.671	4369
3463.387	4324
3465.104	4368
3466.82	4437
3468.534	4372
3470.25	4402
3471.963	4386
3473.676	4423
3475.392	4386
3477.104	4453
3478.817	4450
3480.528	4344
3482.241	4390
3483.954	4440
3485.664	4306
3487.374	4280
3489.084	4413
3490.795	4280
3492.504	4342
3494.214	4331
3495.922	4315
3497.63	4224
3499.338	4253
3501.045	4307
3502.753	4303
3504.459	4199
3506.166	4315
3507.871	4237
3509.576	4256
3511.283	4296
3512.987	4337
3514.691	4216
3516.395	4214
3518.098	4246
3519.8	4209
3521.504	4140
3523.206	4184
3524.908	4144
3526.609	4269
3528.309	4128
3530.011	4290
3531.711	4206
3533.411	4166
3535.109	4142
3536.808	4204
3538.507	4203
3540.206	4236
3541.904	4195
3543.601	4094
3545.297	4233
3546.994	4200
3548.69	4171
3550.387	4219
3552.081	4207
3553.776	4083
3555.47	4155
3557.166	4135
3558.859	4081
3560.553	4155
3562.245	4175
3563.938	4136
3565.629	4111
3567.322	4114
3569.014	4078
3570.704	4028
3572.394	4163
3574.084	4003
3575.775	4071
3577.464	4098
3579.152	4086
3580.842	4126
3582.529	4116
3584.216	4086
3585.905	3990
3587.591	4105
3589.279	4061
3590.964	4055
3592.649	4092
3594.336	4031
3596.021	3991
3597.705	4027
3599.388	4004
3601.072	3930
3602.757	4002
3604.439	3966
3606.122	3968
3607.803	3978
3609.485	3986
3611.167	3932
3612.849	3925
3614.529	3877
3616.208	3895
3617.888	3995
3619.567	3865
3621.247	3908
3622.926	3947
3624.603	3933
3626.281	3981
3627.958	3922
3629.635	3907
3631.312	3864
3632.989	3862
3634.665	3826
3636.339	3857
3638.014	3816
3639.691	3825
3641.364	3912
3643.038	3762
3644.71	3774
3646.384	3812
3648.058	3820
3649.729	3803
3651.402	3766
3653.073	3802
3654.744	3773
3656.414	3829
3658.085	3813
3659.755	3798
3661.424	3864
3663.094	3753
3664.762	3736
3666.431	3798
3668.099	3713
3669.766	3692
3671.433	3682
3673.099	3809
3674.768	3786
3676.433	3785
3678.098	3850
3679.763	3727
3681.428	3715
3683.093	3739
3684.757	3751
3686.421	3816
3688.083	3652
3689.746	3825
3691.408	3709
3693.071	3745
3694.733	3733
3696.394	3821
3698.054	3772
3699.715	3678
3701.375	3710
3703.036	3610
3704.695	3717
3706.354	3745
3708.012	3681
3709.67	3691
3711.329	3727
3712.987	3623
3714.644	3791
3716.299	3636
3717.955	3687
3719.613	3705
3721.268	3663
3722.923	3720
3724.577	3739
3726.231	3702
3727.885	3603
3729.539	3700
3731.192	3672
3732.845	3640
3734.497	3721
3736.149	3623
3737.802	3680
3739.453	3591
3741.104	3650
3742.753	3627
3744.404	3689
3746.052	3653
3747.704	3654
3749.352	3661
3751	3588
3752.648	3605
3754.296	3580
3755.944	3632
3757.59	3600
3759.238	3640
3760.883	3556
3762.528	3554
3764.176	3527
3765.82	3568
3767.464	3553
3769.109	3601
3770.753	3560
3772.396	3549
3774.04	3629
3775.683	3621
3777.325	3637
3778.967	3520
3780.608	3538
3782.25	3473
3783.89	3499
3785.531	3565
3787.17	3601
3788.81	3565
3790.45	3480
3792.09	3529
3793.729	3504
3795.366	3543
3797.003	3552
3798.64	3511
3800.278	3437
3801.915	3473
3803.551	3527
3805.187	3478
3806.822	3462
3808.458	3520
3810.093	3547
3811.726	3468
3813.36	3445
3814.994	3485
3816.627	3440
3818.262	3442
3819.893	3426
3821.525	3454
3823.157	3453
3824.787	3411
3826.42	3459
3828.051	3398
3829.68	3452
3831.31	3412
3832.938	3472
3834.569	3411
3836.198	3430
3837.825	3421
3839.454	3439
3841.08	3464
3842.708	3422
3844.335	3407
3845.962	3410
3847.587	3419
3849.212	3428
3850.838	3426
3852.463	3303
3854.089	3350
3855.712	3371
3857.335	3348
3858.959	3380
3860.582	3443
3862.205	3365
3863.827	3358
3865.449	3282
3867.07	3352
3868.691	3424
3870.312	3320
3871.933	3363
3873.553	3374
3875.173	3396
3876.792	3320
3878.411	3357
3880.03	3319
3881.647	3315
3883.265	3335
3884.882	3335
3886.499	3311
3888.116	3309
3889.732	3377
3891.348	3415
3892.964	3305
3894.579	3389
3896.195	3304
3897.809	3279
3899.423	3300
3901.036	3342
3902.648	3400
3904.261	3303
3905.875	3252
3907.487	3289
3909.099	3259
3910.709	3305
3912.321	3232
3913.933	3334
3915.542	3339
3917.152	3283
3918.762	3340
3920.37	3289
3921.98	3295
3923.589	3318
3925.196	3290
3926.804	3277
3928.41	3186
3930.018	3268
3931.626	3241
3933.231	3210
3934.838	3245
3936.442	3275
3938.046	3299
3939.653	3287
3941.257	3163
3942.861	3250
3944.464	3220
3946.068	3282
3947.67	3286
3949.273	3219
3950.876	3222
3952.477	3284
3954.078	3200
3955.678	3232
3957.281	3305
3958.881	3173
3960.48	3224
3962.079	3264
3963.678	3219
3965.279	3225
3966.877	3177
3968.475	3161
3970.072	3262
3971.669	3238
3973.266	3216
3974.864	3175
3976.459	3211
3978.055	3160
3979.65	3159
3981.245	3213
3982.841	3175
3984.436	3129
3986.03	3161
3987.623	3216
3989.216	3128
3990.809	3142
3992.403	3108
3993.995	3094
3995.586	3107
3997.177	3177
3998.768	3063
4000.361	3111
4001.951	3190
4003.54	3081
4005.13	3033
4006.719	3091
4008.31	3065
4009.897	3037
4011.485	3106
4013.073	3127
4014.66	3065
4016.247	3040
4017.834	3014
4019.421	3090
4021.006	3006
4022.592	3085
4024.178	3092
4025.763	3033
4027.348	3029
4028.932	3077
4030.515	3069
4032.099	3049
4033.682	3053
4035.266	3001
4036.847	2990
4038.429	3004
4040.011	2942
4041.592	3076
4043.173	2977
4044.755	2974
4046.334	2935
4047.913	3069
4049.494	3010
4051.074	2990
4052.652	2972
4054.23	2987
4055.807	3000
4057.385	2896
4058.963	2969
4060.541	2992
4062.117	2957
4063.693	2968
4065.269	2970
4066.844	2943
4068.42	2968
4069.995	2925
4071.569	2943
4073.143	2949
4074.716	2958
4076.291	3009
4077.864	2994
4079.436	2929
4081.009	2949
4082.58	2946
4084.152	2964
4085.723	2954
4087.294	2943
4088.865	2952
4090.435	2924
4092.005	2925
4093.574	2954
4095.143	2936
4096.712	2896
4098.279	2944
4099.848	2906
4101.416	2872
4102.984	2848
4104.55	2902
4106.117	2932
4107.682	2945
4109.248	2882
4110.815	2905
4112.379	2909
4113.945	2823
4115.508	2898
4117.073	2861
4118.637	2829
4120.201	2933
4121.763	2806
4123.325	2925
4124.888	2840
4126.449	2846
4128.013	2915
4129.573	2835
4131.133	2883
4132.694	2768
4134.254	2826
4135.814	2899
4137.374	2895
4138.933	2783
4140.491	2821
4142.049	2838
4143.607	2872
4145.167	2824
4146.724	2847
4148.28	2836
4149.836	2792
4151.392	2812
4152.949	2755
4154.504	2853
4156.059	2706
4157.614	2804
4159.168	2682
4160.723	2780
4162.277	2745
4163.83	2862
4165.383	2771
4166.936	2812
4168.488	2748
4170.041	2730
4171.593	2770
4173.144	2822
4174.695	2773
4176.246	2733
4177.796	2721
4179.346	2745
4180.896	2762
4182.445	2691
4183.994	2728
4185.542	2660
4187.091	2687
4188.639	2683
4190.185	2681
4191.732	2751
4193.279	2684
4194.826	2689
4196.373	2733
4197.918	2754
4199.463	2740
4201.008	2648
4202.553	2719
4204.098	2653
4205.641	2679
4207.185	2599
4208.728	2689
4210.271	2646
4211.814	2715
4213.357	2629
4214.898	2692
4216.439	2641
4217.98	2723
4219.522	2678
4221.062	2605
4222.603	2653
4224.142	2648
4225.681	2673
4227.222	2698
4228.76	2655
4230.298	2701
4231.835	2651
4233.373	2632
4234.911	2719
4236.449	2693
4237.985	2641
4239.521	2648
4241.057	2609
4242.592	2584
4244.128	2620
4245.663	2640
4247.197	2583
4248.731	2656
4250.265	2675
4251.798	2707
4253.333	2613
4254.865	2604
4256.397	2561
4257.93	2651
4259.461	2649
4260.994	2608
4262.525	2566
4264.056	2574
4265.586	2568
4267.115	2592
4268.646	2637
4270.176	2532
4271.705	2620
4273.232	2590
4274.761	2622
4276.289	2624
4277.818	2606
4279.345	2615
4280.872	2564
4282.399	2619
4283.924	2671
4285.452	2598
4286.976	2612
4288.502	2628
4290.026	2616
4291.551	2619
4293.074	2587
4294.6	2546
4296.123	2523
4297.646	2562
4299.168	2559
4300.691	2510
4302.214	2592
4303.736	2501
4305.257	2520
4306.778	2548
4308.299	2583
4309.82	2532
4311.34	2504
4312.86	2537
4314.379	2529
