400.0745	4368
402.597	4364
405.1208	4443
407.6419	4400
410.1623	4478
412.6819	4403
415.201	4405
417.7172	4509
420.2369	4466
422.7538	4500
425.2701	4604
427.7856	4564
430.3005	4555
432.8147	4631
435.3282	4631
437.841	4644
440.3511	4690
442.8625	4561
445.3753	4642
447.8854	4664
450.3927	4743
452.9014	4766
455.4073	4710
457.9146	4691
460.4233	4755
462.9272	4630
465.4325	4748
467.935	4665
470.4389	4766
472.9421	4758
475.4446	4733
477.9444	4778
480.4456	4748
482.944	4731
485.4417	4720
487.9429	4741
490.4393	4832
492.935	4809
495.4321	4848
497.9264	4895
500.4221	4784
502.9171	4892
505.4094	4763
507.9011	4896
510.392	4849
512.8864	4947
515.3759	4865
517.8649	5006
520.3531	4950
522.8406	4882
525.3275	4860
527.8178	4952
530.3033	4914
532.7881	4920
535.2723	4952
537.7558	4824
540.2407	4857
542.7228	4931
545.2043	4962
547.6851	4943
550.1652	4837
552.6467	4890
555.1255	4988
557.6016	4888
560.079	4947
562.5557	4959
565.0318	5094
567.5092	4998
569.984	5001
572.456	4961
574.9294	5046
577.4022	5050
579.8762	4992
582.3456	5079
584.8163	5085
587.2863	5097
589.7557	5108
592.2224	5039
594.6924	5219
597.1578	5184
599.6245	5173
602.0905	5039
604.5538	5052
607.0206	5066
609.4825	5125
611.9459	5103
614.4066	5068
616.8686	5076
619.33	5042
621.7906	5126
624.2487	5169
626.708	5177
629.1647	5100
631.6207	5177
634.0801	4977
636.5348	5078
638.9888	5137
641.4442	5177
643.8969	5098
646.3509	5192
648.8022	5173
651.255	5081
653.705	5046
656.1544	5185
658.6031	5211
661.0532	5242
663.5026	5246
665.9493	5072
668.3954	5310
670.8409	5261
673.2877	5243
675.7318	5294
678.1752	5361
680.618	5229
683.0601	5298
685.5035	5247
687.9444	5252
690.3845	5240
692.824	5278
695.2628	5335
697.701	5381
700.1406	5301
702.5774	5230
705.0116	5260
707.4472	5315
709.8821	5363
712.3183	5370
714.7519	5374
717.1829	5404
719.6151	5398
722.0468	5468
724.4777	5350
726.908	5376
729.3377	5488
731.7667	5402
734.1931	5493
736.6208	5475
739.0498	5601
741.4742	5571
743.9	5587
746.3231	5563
748.7476	5620
751.1713	5527
753.5945	5579
756.015	5606
758.4368	5636
760.856	5623
763.2766	5690
765.6965	5656
768.1157	5641
770.5323	5667
772.9483	5666
775.3656	5762
777.7822	5673
780.1963	5718
782.6116	5620
785.0244	5810
787.4365	5737
789.8499	5757
792.2626	5747
794.6728	5618
797.0823	5709
799.4911	5659
801.8994	5772
804.3109	5722
806.7178	5739
809.124	5771
811.5297	5815
813.9347	5748
816.341	5693
818.7447	5751
821.1478	5766
823.5502	5888
825.952	5786
828.3531	5644
830.7556	5755
833.1554	5805
835.5546	5763
837.9532	5779
840.3511	5918
842.7504	5848
845.1451	5837
847.5411	5805
849.9365	5796
852.3312	5839
854.7272	5881
857.1187	5839
859.5115	5987
861.9037	5922
864.2952	5876
866.6842	5931
869.0764	5870
871.4661	5861
873.8531	5983
876.2415	5937
878.6272	5826
881.0162	5920
883.4026	5877
885.7866	5849
888.1717	5887
890.5543	5836
892.9382	5956
895.3215	5777
897.7041	5838
900.0842	5800
902.4655	5762
904.8443	5907
907.2244	5923
909.6039	5927
911.9808	5897
914.357	6019
916.7346	5873
919.1115	5999
921.4859	6129
923.8616	5919
926.2347	6147
928.6071	6105
930.979	6122
933.3541	6068
935.7247	6050
938.0946	6095
940.4639	6006
942.8326	6182
945.2026	6310
947.5701	6275
949.9369	6315
952.305	6545
954.6705	6585
957.0355	6690
959.4017	6841
961.7654	6952
964.1284	6773
966.4908	6754
968.8527	6637
971.2138	6458
973.5743	6371
975.9343	6252
978.2936	6312
980.6522	6073
983.0122	6167
985.3696	6059
987.7245	6096
990.0807	6073
992.4362	6220
994.7911	6085
997.1474	6105
999.4991	6083
1001.852	6194
1004.205	6137
1006.555	6125
1008.908	6145
1011.258	6093
1013.606	6224
1015.956	6117
1018.302	6153
1020.652	6109
1022.998	6201
1025.345	6124
1027.691	6138
1030.035	6171
1032.378	6202
1034.724	6207
1037.066	6132
1039.409	6220
1041.75	6146
1044.092	6236
1046.433	6176
1048.771	6160
1051.112	6250
1053.449	6204
1055.786	6270
1058.124	6155
1060.462	6293
1062.797	6257
1065.131	6338
1067.467	6224
1069.8	6374
1072.135	6419
1074.467	6315
1076.798	6356
1079.129	6366
1081.459	6341
1083.792	6275
1086.121	6373
1088.449	6151
1090.777	6277
1093.104	6249
1095.431	6353
1097.759	6383
1100.084	6255
1102.408	6210
1104.732	6357
1107.056	6351
1109.379	6368
1111.701	6271
1114.022	6327
1116.343	6194
1118.664	6325
1120.983	6351
1123.303	6357
1125.621	6302
1127.939	6308
1130.256	6352
1132.573	6293
1134.889	6383
1137.205	6353
1139.52	6332
1141.832	6417
1144.146	6240
1146.461	6335
1148.771	6380
1151.083	6267
1153.392	6320
1155.703	6383
1158.011	6399
1160.323	6419
1162.629	6485
1164.938	6306
1167.243	6407
1169.55	6457
1171.857	6290
1174.163	6353
1176.466	6363
1178.769	6325
1181.073	6357
1183.374	6344
1185.677	6272
1187.979	6302
1190.279	6402
1192.578	6396
1194.878	6287
1197.178	6335
1199.476	6220
1201.772	6362
1204.068	6287
1206.366	6415
1208.663	6449
1210.957	6406
1213.251	6534
1215.544	6473
1217.836	6435
1220.128	6492
1222.421	6488
1224.712	6468
1227.002	6512
1229.292	6478
1231.581	6538
1233.871	6612
1236.159	6492
1238.446	6450
1240.732	6478
1243.018	6534
1245.304	6672
1247.59	6636
1249.874	6635
1252.156	6554
1254.439	6486
1256.721	6599
1259.005	6543
1261.286	6672
1263.565	6588
1265.845	6590
1268.125	6554
1270.403	6672
1272.682	6479
1274.959	6596
1277.234	6493
1279.511	6520
1281.787	6520
1284.062	6461
1286.337	6568
1288.609	6525
1290.882	6442
1293.153	6640
1295.428	6451
1297.698	6544
1299.969	6540
1302.237	6520
1304.507	6533
1306.777	6638
1309.044	6509
1311.312	6478
1313.578	6523
1315.844	6612
1318.109	6464
1320.375	6478
1322.638	6460
1324.903	6496
1327.165	6387
1329.427	6557
1331.69	6509
1333.952	6510
1336.212	6552
1338.471	6566
1340.73	6622
1342.988	6522
1345.248	6536
1347.505	6468
1349.763	6539
1352.019	6630
1354.274	6496
1356.53	6602
1358.784	6575
1361.038	6604
1363.291	6602
1365.543	6521
1367.797	6493
1370.048	6561
1372.296	6674
1374.546	6633
1376.796	6539
1379.045	6505
1381.295	6635
1383.542	6671
1385.787	6589
1388.034	6607
1390.28	6639
1392.527	6668
1394.772	6664
1397.014	6515
1399.258	6614
1401.501	6629
1403.741	6603
1405.985	6620
1408.226	6609
1410.465	6613
1412.705	6690
1414.943	6717
1417.184	6651
1419.42	6796
1421.658	6742
1423.894	6726
1426.13	6698
1428.366	6725
1430.602	6755
1432.835	6784
1435.069	6735
1437.301	6793
1439.535	6792
1441.767	6817
1443.997	6733
1446.229	6790
1448.458	6747
1450.687	6840
1452.916	6934
1455.146	6839
1457.372	6839
1459.599	6921
1461.824	6882
1464.051	6831
1466.277	6718
1468.501	6786
1470.725	6739
1472.948	6814
1475.17	6759
1477.393	6751
1479.614	6719
1481.837	6774
1484.057	6795
1486.276	6611
1488.497	6688
1490.715	6684
1492.932	6643
1495.148	6564
1497.364	6602
1499.58	6635
1501.798	6562
1504.012	6710
1506.227	6648
1508.44	6580
1510.653	6673
1512.866	6455
1515.078	6592
1517.289	6680
1519.5	6635
1521.711	6601
1523.92	6587
1526.13	6609
1528.338	6493
1530.544	6522
1532.752	6575
1534.959	6482
1537.165	6634
1539.371	6623
1541.574	6696
1543.779	6592
1545.983	6629
1548.187	6509
1550.39	6700
1552.59	6738
1554.792	6537
1556.991	6757
1559.19	6733
1561.392	6869
1563.59	6688
1565.789	6599
1567.986	6782
1570.182	6683
1572.381	6737
1574.576	6809
1576.771	6655
1578.966	6805
1581.16	6778
1583.354	6691
1585.546	6810
1587.74	6893
1589.931	6754
1592.121	6797
1594.311	6763
1596.502	6801
1598.693	6798
1600.881	6750
1603.069	6814
1605.256	6873
1607.445	6806
1609.631	6893
1611.816	6873
1614.001	6800
1616.186	6871
1618.37	6822
1620.555	6744
1622.737	6953
1624.919	6904
1627.101	6943
1629.282	6779
1631.463	6878
1633.643	6914
1635.822	6924
1638.001	6916
1640.179	6850
1642.359	6882
1644.534	6985
1646.711	6927
1648.887	6963
1651.062	6977
1653.235	6851
1655.412	6837
1657.586	6904
1659.757	6989
1661.93	6933
1664.1	6878
1666.274	6953
1668.445	7055
1670.614	7016
1672.784	7039
1674.951	6952
1677.12	6973
1679.289	6838
1681.457	6983
1683.622	6952
1685.789	6965
1687.953	7027
1690.121	7001
1692.284	6980
1694.447	6957
1696.611	6929
1698.772	6971
1700.935	6872
1703.098	6894
1705.258	6893
1707.417	6937
1709.576	6949
1711.736	6890
1713.896	6891
1716.053	6831
1718.21	6661
1720.366	6817
1722.522	6739
1724.68	6906
1726.835	6874
1728.989	6802
1731.142	6850
1733.295	6873
1735.449	6852
1737.601	6830
1739.753	6833
1741.903	7043
1744.054	6893
1746.203	6739
1748.354	6873
1750.503	6877
1752.651	6915
1754.798	6825
1756.944	6943
1759.092	6884
1761.238	7018
1763.383	7010
1765.528	6974
1767.672	6873
1769.814	6810
1771.959	6942
1774.102	6991
1776.242	6859
1778.384	6962
1780.525	6867
1782.665	6971
1784.805	6944
1786.945	6952
1789.082	6867
1791.22	6991
1793.36	7128
1795.495	6924
1797.632	7074
1799.766	6964
1801.902	6954
1804.035	7008
1806.172	6837
1808.304	6918
1810.436	6889
1812.569	6867
1814.699	6947
1816.833	6953
1818.963	6954
1821.092	6890
1823.222	6875
1825.35	6924
1827.478	6881
1829.608	6896
1831.734	6885
1833.86	6951
1835.986	6981
1838.11	6905
1840.238	6951
1842.362	6912
1844.485	6887
1846.608	6927
1848.73	6788
1850.853	6819
1852.974	6929
1855.097	6980
1857.217	6868
1859.336	6940
1861.455	6964
1863.576	6884
1865.693	6945
1867.811	7090
1869.926	6934
1872.042	6791
1874.16	6932
1876.275	6871
1878.39	6848
1880.504	6981
1882.618	6947
1884.731	6955
1886.843	6886
1888.956	6981
1891.067	6869
1893.178	7023
1895.287	7032
1897.399	6961
1899.508	6825
1901.617	6951
1903.724	6942
1905.832	6915
1907.941	6990
1910.046	7082
1912.152	6957
1914.256	7071
1916.361	6899
1918.464	7139
1920.57	7087
1922.672	7083
1924.775	7045
1926.876	7118
1928.978	7086
1931.08	7088
1933.181	7027
1935.28	6950
1937.38	7005
1939.478	6999
1941.577	6975
1943.675	7021
1945.771	7086
1947.867	7024
1949.964	7064
1952.058	6993
1954.154	7029
1956.248	6946
1958.343	7112
1960.435	7014
1962.527	7008
1964.62	7078
1966.711	7082
1968.802	7034
1970.892	6923
1972.983	6983
1975.072	6835
1977.162	6872
1979.25	6963
1981.337	6958
1983.424	6925
1985.51	7061
1987.598	6975
1989.683	6984
1991.768	7047
1993.852	7089
1995.934	6956
1998.019	7021
2000.102	6970
2002.184	7052
2004.266	6995
2006.347	6973
2008.427	6935
2010.508	6910
2012.587	7049
2014.666	7025
2016.745	7009
2018.821	7010
2020.9	6856
2022.977	6978
2025.052	7044
2027.128	6987
2029.204	6978
2031.277	6981
2033.353	6892
2035.425	6927
2037.499	6991
2039.57	6949
2041.642	6957
2043.714	7023
2045.786	6864
2047.855	6934
2049.925	6985
2051.993	7028
2054.064	6982
2056.132	6955
2058.2	7090
2060.266	6878
2062.332	6852
2064.398	6969
2066.465	6908
2068.529	7099
2070.592	7044
2072.657	6979
2074.719	6967
2076.783	6967
2078.845	6929
2080.907	6995
2082.968	7079
2085.028	7040
2087.087	6945
2089.148	7066
2091.207	7009
2093.264	7096
2095.322	6976
2097.379	6983
2099.439	7057
2101.495	6932
2103.55	7077
2105.605	7125
2107.658	7052
2109.713	7043
2111.767	6936
2113.82	7004
2115.872	6886
2117.924	6952
2119.975	7086
2122.028	7087
2124.078	7060
2126.126	7035
2128.176	7112
2130.225	7000
2132.275	6968
2134.321	6985
2136.368	6937
2138.415	7071
2140.461	7010
2142.505	7086
2144.552	6891
2146.597	6849
2148.64	6953
2150.684	6971
2152.725	7054
2154.77	6966
2156.811	7061
2158.852	6988
2160.894	7012
2162.933	7074
2164.973	6879
2167.013	6914
2169.051	6960
2171.089	6857
2173.126	6948
2175.164	6959
2177.201	6925
2179.236	6976
2181.273	7032
2183.307	6943
2185.341	6930
2187.377	6911
2189.41	6971
2191.442	6899
2193.473	6861
2195.506	6858
2197.539	6906
2199.569	6865
2201.598	6859
2203.628	6822
2205.656	6984
2207.686	6721
2209.716	6829
2211.743	6854
2213.769	6853
2215.796	6927
2217.821	6835
2219.848	6926
2221.873	6778
2223.897	6838
2225.921	6915
2227.944	6960
2229.967	6805
2231.991	6849
2234.011	6975
2236.032	6908
2238.053	6855
2240.073	6952
2242.094	6836
2244.114	6819
2246.131	6877
2248.149	6768
2250.167	6792
2252.186	6883
2254.201	6883
2256.218	6859
2258.233	6822
2260.247	6860
2262.262	6906
2264.278	6890
2266.29	6827
2268.303	6866
2270.315	6773
2272.327	6751
2274.341	6815
2276.35	6933
2278.361	7001
2280.37	6855
2282.38	6874
2284.388	6877
2286.397	6757
2288.405	6873
2290.412	6881
2292.419	6871
2294.425	6832
2296.431	6904
2298.437	6839
2300.441	6939
2302.445	6847
2304.449	6807
2306.453	6865
2308.455	6792
2310.457	6864
2312.459	6828
2314.46	6794
2316.46	6816
2318.461	6853
2320.46	6884
2322.458	6783
2324.458	6864
2326.456	6810
2328.455	6728
2330.451	6873
2332.447	6731
2334.443	6830
2336.438	6900
2338.433	6892
2340.429	6663
2342.422	6729
2344.416	6737
2346.408	6797
2348.399	6634
2350.393	6717
2352.384	6574
2354.375	6715
2356.365	6733
2358.355	6710
2360.344	6723
2362.333	6764
2364.322	6797
2366.309	6726
2368.295	6788
2370.282	6655
2372.27	6795
2374.256	6554
2376.24	6745
2378.225	6714
2380.208	6739
2382.194	6714
2384.177	6637
2386.159	6763
2388.142	6709
2390.122	6695
2392.105	6805
2394.085	6582
2396.066	6511
2398.044	6534
2400.024	6629
2402.002	6647
2403.982	6574
2405.959	6743
2407.935	6700
2409.913	6600
2411.888	6648
2413.865	6616
2415.84	6608
2417.814	6623
2419.788	6717
2421.762	6678
2423.735	6630
2425.708	6668
2427.68	6624
2429.651	6675
2431.623	6653
2433.593	6709
2435.564	6626
2437.533	6630
2439.502	6658
2441.47	6631
2443.438	6701
2445.406	6661
2447.373	6606
2449.34	6649
2451.305	6538
2453.271	6686
2455.235	6722
2457.201	6727
2459.165	6557
2461.129	6737
2463.092	6484
2465.054	6564
2467.018	6559
2468.978	6642
2470.939	6532
2472.899	6524
2474.86	6595
2476.819	6652
2478.778	6615
2480.737	6621
2482.695	6637
2484.653	6552
2486.609	6556
2488.567	6525
2490.524	6579
2492.478	6537
2494.433	6589
2496.387	6646
2498.343	6611
2500.297	6555
2502.249	6587
2504.202	6540
2506.153	6561
2508.105	6626
2510.057	6498
2512.008	6534
2513.957	6575
2515.906	6519
2517.855	6474
2519.805	6567
2521.754	6643
2523.7	6526
2525.647	6505
2527.594	6513
2529.54	6578
2531.486	6481
2533.431	6475
2535.376	6476
2537.32	6543
2539.263	6537
2541.207	6570
2543.151	6563
2545.093	6576
2547.034	6534
2548.975	6588
2550.917	6500
2552.856	6443
2554.796	6556
2556.735	6571
2558.673	6550
2560.611	6517
2562.55	6521
2564.487	6618
2566.424	6559
2568.36	6503
2570.296	6487
2572.232	6564
2574.167	6568
2576.101	6477
2578.035	6568
2579.969	6465
2581.902	6467
2583.834	6552
2585.766	6576
2587.698	6541
2589.628	6642
2591.557	6561
2593.489	6605
2595.419	6602
2597.348	6654
2599.275	6554
2601.204	6563
2603.131	6633
2605.059	6431
2606.986	6560
2608.911	6566
2610.837	6610
2612.76	6577
2614.687	6612
2616.61	6577
2618.534	6518
2620.457	6609
2622.38	6502
2624.302	6514
2626.225	6618
2628.145	6501
2630.067	6545
2631.986	6486
2633.906	6621
2635.827	6488
2637.745	6615
2639.662	6430
2641.581	6698
2643.498	6545
2645.415	6683
2647.331	6584
2649.248	6429
2651.163	6624
2653.077	6567
2654.993	6598
2656.906	6537
2658.821	6676
2660.733	6599
2662.646	6540
2664.557	6588
2666.47	6612
2668.381	6512
2670.291	6483
2672.201	6443
2674.11	6524
2676.021	6490
2677.929	6557
2679.837	6570
2681.745	6557
2683.652	6517
2685.56	6565
2687.466	6513
2689.371	6584
2691.276	6552
2693.181	6492
2695.085	6472
2696.991	6539
2698.893	6535
2700.796	6491
2702.698	6506
2704.601	6536
2706.502	6479
2708.404	6465
2710.304	6450
2712.203	6512
2714.103	6397
2716.003	6482
2717.902	6468
2719.8	6416
2721.697	6415
2723.594	6408
2725.49	6400
2727.389	6375
2729.283	6476
2731.179	6385
2733.073	6423
2734.968	6526
2736.863	6451
2738.757	6451
2740.649	6435
2742.541	6531
2744.433	6394
2746.324	6556
2748.216	6467
2750.107	6493
2751.997	6395
2753.886	6314
2755.776	6412
2757.666	6372
2759.553	6395
2761.44	6370
2763.327	6299
2765.215	6392
2767.102	6362
2768.988	6337
2770.873	6554
2772.757	6383
2774.641	6449
2776.525	6498
2778.41	6338
2780.292	6339
2782.175	6386
2784.057	6402
2785.938	6418
2787.821	6278
2789.701	6367
2791.581	6408
2793.461	6414
2795.34	6422
2797.219	6394
2799.099	6326
2800.975	6361
2802.853	6337
2804.73	6329
2806.606	6317
2808.484	6399
2810.358	6281
2812.233	6378
2814.108	6350
2815.981	6320
2817.857	6455
2819.73	6270
2821.602	6394
2823.474	6339
2825.346	6402
2827.217	6381
2829.089	6390
2830.959	6379
2832.829	6356
2834.698	6383
2836.567	6340
2838.436	6384
2840.305	6258
2842.172	6218
2844.04	6460
2845.905	6273
2847.772	6351
2849.639	6452
2851.503	6351
2853.369	6419
2855.232	6331
2857.096	6397
2858.961	6297
2860.824	6386
2862.686	6517
2864.547	6438
2866.41	6516
2868.272	6436
2870.132	6423
2871.992	6590
2873.851	6604
2875.711	6621
2877.57	6681
2879.429	6639
2881.287	6488
2883.144	6712
2885.001	6753
2886.857	6750
2888.714	6572
2890.57	6671
2892.425	6661
2894.279	6691
2896.133	6673
2897.987	6688
2899.842	6718
2901.694	6584
2903.547	6630
2905.397	6527
2907.249	6614
2909.101	6666
2910.952	6616
2912.802	6756
2914.652	6692
2916.5	6650
2918.35	6747
2920.198	6671
2922.045	6858
2923.893	6862
2925.74	6869
2927.585	6909
2929.433	6869
2931.279	6956
2933.123	6908
2934.968	7019
2936.811	7103
2938.656	6922
2940.5	7042
2942.342	7129
2944.185	6977
2946.026	6968
2947.87	7046
2949.71	7114
2951.549	7040
2953.39	6938
2955.229	6857
2957.069	6928
2958.908	6801
2960.746	6972
2962.584	6894
2964.421	6807
2966.257	6864
2968.094	6871
2969.931	6621
2971.766	6791
2973.601	6744
2975.435	6708
2977.27	6680
2979.105	6715
2980.938	6655
2982.77	6661
2984.602	6576
2986.434	6595
2988.267	6662
2990.097	6514
2991.927	6554
2993.757	6605
2995.587	6586
2997.417	6446
2999.246	6464
3001.074	6432
3002.902	6377
3004.729	6426
3006.556	6302
3008.384	6332
3010.21	6269
3012.036	6288
3013.861	6272
3015.684	6224
3017.51	6138
3019.334	6180
3021.157	6278
3022.981	6006
3024.802	6216
3026.624	6293
3028.448	6092
3030.267	6048
3032.088	6103
3033.909	6069
3035.728	6028
3037.549	6084
3039.368	6048
3041.186	6026
3043.004	6083
3044.821	6056
3046.64	6051
3048.455	5996
3050.272	5984
3052.087	6060
3053.903	6086
3055.717	5996
3057.534	6097
3059.347	6054
3061.16	6041
3062.974	5995
3064.785	5900
3066.598	5873
3068.411	5946
3070.222	5970
3072.032	5848
3073.844	5897
3075.653	6046
3077.463	5949
3079.272	5899
3081.08	5979
3082.889	5932
3084.697	5881
3086.505	6029
3088.312	5886
3090.118	5793
3091.924	5865
3093.729	5982
3095.535	5787
3097.34	5888
3099.144	5930
3100.947	5892
3102.75	5960
3104.553	5826
3106.357	5971
3108.159	5849
3109.961	5834
3111.762	5817
3113.562	5839
3115.365	5756
3117.164	5861
3118.964	5901
3120.761	5822
3122.56	5755
3124.36	5861
3126.158	5775
3127.954	5814
3129.75	5728
3131.547	5772
3133.343	5798
3135.139	5689
3136.934	5792
3138.729	5704
3140.522	5685
3142.317	5742
3144.11	5753
3145.904	5597
3147.695	5568
3149.488	5705
3151.28	5780
3153.07	5781
3154.863	5768
3156.652	5679
3158.441	5682
3160.231	5750
3162.019	5559
3163.81	5579
3165.597	5658
3167.384	5626
3169.172	5730
3170.958	5598
3172.745	5673
3174.532	5678
3176.317	5689
3178.101	5720
3179.885	5688
3181.67	5623
3183.455	5693
3185.238	5750
3187.02	5620
3188.802	5616
3190.585	5635
3192.368	5574
3194.149	5624
3195.929	5566
3197.709	5649
3199.489	5586
3201.268	5524
3203.048	5695
3204.826	5645
3206.604	5587
3208.382	5539
3210.159	5603
3211.937	5602
3213.713	5582
3215.489	5667
3217.263	5627
3219.038	5573
3220.815	5609
3222.589	5572
3224.363	5521
3226.136	5562
3227.908	5611
3229.681	5563
3231.454	5562
3233.226	5595
3234.996	5576
3236.767	5478
3238.538	5578
3240.308	5582
3242.078	5638
3243.847	5567
3245.615	5604
3247.384	5510
3249.15	5552
3250.92	5477
3252.686	5494
3254.453	5577
3256.218	5598
3257.984	5631
3259.75	5528
3261.515	5555
3263.279	5556
3265.044	5575
3266.806	5557
3268.57	5611
3270.334	5561
3272.095	5489
3273.856	5468
3275.619	5579
3277.379	5630
3279.14	5502
3280.9	5544
3282.661	5493
3284.419	5570
3286.178	5599
3287.937	5471
3289.695	5561
3291.453	5532
3293.21	5564
3294.967	5548
3296.723	5556
3298.48	5519
3300.235	5586
3301.99	5448
3303.744	5538
3305.498	5540
3307.253	5525
3309.006	5528
3310.759	5484
3312.511	5577
3314.263	5477
3316.017	5475
3317.768	5523
3319.519	5556
3321.268	5558
3323.018	5490
3324.767	5528
3326.518	5560
3328.267	5493
3330.014	5483
3331.762	5484
3333.509	5550
3335.258	5579
3337.003	5489
3338.75	5387
3340.496	5440
3342.24	5551
3343.987	5512
3345.732	5554
3347.475	5464
3349.219	5500
3350.961	5436
3352.705	5460
3354.448	5382
3356.19	5440
3357.931	5478
3359.672	5567
3361.412	5557
3363.155	5424
3364.894	5550
3366.633	5555
3368.372	5414
3370.11	5497
3371.849	5348
3373.588	5428
3375.325	5402
3377.061	5421
3378.799	5426
3380.534	5419
3382.271	5474
3384.006	5451
3385.741	5307
3387.475	5328
3389.209	5506
3390.944	5408
3392.677	5473
3394.409	5387
3396.143	5365
3397.874	5326
3399.606	5359
3401.338	5357
3403.069	5433
3404.799	5321
3406.528	5469
3408.258	5345
3409.988	5433
3411.717	5412
3413.445	5354
3415.173	5314
3416.899	5436
3418.626	5354
3420.354	5286
3422.08	5277
3423.806	5301
3425.531	5242
3427.255	5281
3428.981	5243
3430.705	5303
3432.429	5256
3434.151	5332
3435.875	5318
3437.599	5262
3439.321	5220
3441.042	5237
3442.763	5193
3444.483	5204
3446.204	5290
3447.926	5232
3449.645	5243
3451.364	5258
3453.082	5193
3454.801	5232
3456.52	5220
3458.238	5165
3459.954	5200
3461.671	5136
3463.387	5222
3465.104	5116
3466.82	5076
3468.534	5088
3470.25	5150
3471.963	5139
3473.676	5205
3475.392	5163
3477.104	5164
3478.817	5178
3480.528	5161
3482.241	5102
3483.954	5125
3485.664	5264
3487.374	5087
3489.084	5211
3490.795	5098
3492.504	5154
3494.214	5023
3495.922	5166
3497.63	5059
3499.338	5049
3501.045	5063
3502.753	5128
3504.459	5067
3506.166	5036
3507.871	5112
3509.576	5025
3511.283	5170
3512.987	5054
3514.691	4990
3516.395	5083
3518.098	5054
3519.8	5084
3521.504	5069
3523.206	5011
3524.908	5053
3526.609	5023
3528.309	5060
3530.011	5015
3531.711	5088
3533.411	5021
3535.109	5018
3536.808	5068
3538.507	4912
3540.206	4915
3541.904	4937
3543.601	5033
3545.297	5050
3546.994	5055
3548.69	5028
3550.387	4981
3552.081	4993
3553.776	4953
3555.47	4939
3557.166	5007
3558.859	5001
3560.553	4907
3562.245	4972
3563.938	4960
3565.629	4897
3567.322	5005
3569.014	4903
3570.704	5010
3572.394	4942
3574.084	4939
3575.775	4976
3577.464	4971
3579.152	4934
3580.842	4867
3582.529	4967
3584.216	4916
3585.905	4952
3587.591	4924
3589.279	4888
3590.964	4927
3592.649	4875
3594.336	4878
3596.021	4833
3597.705	4846
3599.388	4871
3601.072	4811
3602.757	4946
3604.439	4866
3606.122	4795
3607.803	4903
3609.485	4814
3611.167	4784
3612.849	4836
3614.529	4853
3616.208	4842
3617.888	4811
3619.567	4857
3621.247	4813
3622.926	4790
3624.603	4741
3626.281	4767
3627.958	4835
3629.635	4794
3631.312	4723
3632.989	4744
3634.665	4811
3636.339	4795
3638.014	4646
3639.691	4797
3641.364	4681
3643.038	4719
3644.71	4787
3646.384	4805
3648.058	4765
3649.729	4650
3651.402	4693
3653.073	4839
3654.744	4740
3656.414	4765
3658.085	4693
3659.755	4723
3661.424	4711
3663.094	4651
3664.762	4695
3666.431	4689
3668.099	4732
3669.766	4663
3671.433	4746
3673.099	4677
3674.768	4648
3676.433	4688
3678.098	4655
3679.763	4788
3681.428	4712
3683.093	4582
3684.757	4719
3686.421	4737
3688.083	4676
3689.746	4686
3691.408	4661
3693.071	4661
3694.733	4597
3696.394	4653
3698.054	4790
3699.715	4639
3701.375	4691
3703.036	4636
3704.695	4668
3706.354	4638
3708.012	4638
3709.67	4608
3711.329	4623
3712.987	4556
3714.644	4663
3716.299	4626
3717.955	4710
3719.613	4564
3721.268	4557
3722.923	4614
3724.577	4621
3726.231	4535
3727.885	4630
3729.539	4573
3731.192	4569
3732.845	4548
3734.497	4647
3736.149	4518
3737.802	4651
3739.453	4597
3741.104	4564
3742.753	4491
3744.404	4541
3746.052	4578
3747.704	4628
3749.352	4577
3751	4580
3752.648	4572
3754.296	4674
3755.944	4542
3757.59	4498
3759.238	4569
3760.883	4550
3762.528	4574
3764.176	4455
3765.82	4552
3767.464	4521
3769.109	4564
3770.753	4471
3772.396	4491
3774.04	4567
3775.683	4410
3777.325	4556
3778.967	4448
3780.608	4584
3782.25	4516
3783.89	4474
3785.531	4485
3787.17	4484
3788.81	4512
3790.45	4524
3792.09	4432
3793.729	4497
3795.366	4434
3797.003	4434
3798.64	4545
3800.278	4408
3801.915	4433
3803.551	4448
3805.187	4451
3806.822	4536
3808.458	4448
3810.093	4428
3811.726	4400
3813.36	4415
3814.994	4427
3816.627	4410
3818.262	4502
3819.893	4485
3821.525	4388
3823.157	4399
3824.787	4443
3826.42	4406
3828.051	4404
3829.68	4369
3831.31	4341
3832.938	4386
3834.569	4401
3836.198	4418
3837.825	4425
3839.454	4364
3841.08	4350
3842.708	4401
3844.335	4398
3845.962	4462
3847.587	4307
3849.212	4387
3850.838	4336
3852.463	4345
3854.089	4381
3855.712	4356
3857.335	4337
3858.959	4292
3860.582	4302
3862.205	4315
3863.827	4425
3865.449	4336
3867.07	4232
3868.691	4324
3870.312	4283
3871.933	4282
3873.553	4285
3875.173	4273
3876.792	4359
3878.411	4238
3880.03	4319
3881.647	4252
3883.265	4345
3884.882	4270
3886.499	4287
3888.116	4276
3889.732	4283
3891.348	4320
3892.964	4230
3894.579	4262
3896.195	4316
3897.809	4233
3899.423	4194
3901.036	4209
3902.648	4287
3904.261	4259
3905.875	4271
3907.487	4196
3909.099	4240
3910.709	4293
3912.321	4258
3913.933	4247
3915.542	4229
3917.152	4258
3918.762	4226
3920.37	4259
3921.98	4320
3923.589	4178
3925.196	4276
3926.804	4188
3928.41	4124
3930.018	4261
3931.626	4257
3933.231	4196
3934.838	4270
3936.442	4157
3938.046	4211
3939.653	4184
3941.257	4266
3942.861	4160
3944.464	4278
3946.068	4225
3947.67	4180
3949.273	4237
3950.876	4148
3952.477	4222
3954.078	4151
3955.678	4148
3957.281	4181
3958.881	4274
3960.48	4229
3962.079	4203
3963.678	4222
3965.279	4180
3966.877	4073
3968.475	4188
3970.072	4109
3971.669	4179
3973.266	4195
3974.864	4211
3976.459	4062
3978.055	4020
3979.65	4191
3981.245	4018
3982.841	4128
3984.436	4021
3986.03	4211
3987.623	4098
3989.216	4121
3990.809	4077
3992.403	4057
3993.995	4094
3995.586	4055
3997.177	3965
3998.768	4125
4000.361	4065
4001.951	4069
4003.54	4025
4005.13	4070
4006.719	4035
4008.31	3997
4009.897	4020
4011.485	4038
4013.073	4059
4014.66	3964
4016.247	4014
4017.834	4009
4019.421	3959
4021.006	4000
4022.592	3976
4024.178	4076
4025.763	4005
4027.348	4088
4028.932	4004
4030.515	4009
4032.099	3931
4033.682	4038
4035.266	3949
4036.847	3978
4038.429	3938
4040.011	3931
4041.592	3930
4043.173	3980
4044.755	3886
4046.334	3949
4047.913	3991
4049.494	3921
4051.074	3978
4052.652	3947
4054.23	3937
4055.807	3914
4057.385	3897
4058.963	3926
4060.541	3929
4062.117	3839
4063.693	3993
4065.269	3810
4066.844	4019
4068.42	3853
4069.995	3823
4071.569	3903
4073.143	3859
4074.716	3856
4076.291	3932
4077.864	3871
4079.436	3922
4081.009	3905
4082.58	3921
4084.152	3856
4085.723	3862
4087.294	3816
4088.865	3816
4090.435	3811
4092.005	3879
4093.574	3866
4095.143	3962
4096.712	3824
4098.279	3859
4099.848	3764
4101.416	3861
4102.984	3784
4104.55	3789
4106.117	3857
4107.682	3786
4109.248	3791
4110.815	3759
4112.379	3763
4113.945	3844
4115.508	3818
4117.073	3876
4118.637	3787
4120.201	3764
4121.763	3847
4123.325	3777
4124.888	3820
4126.449	3860
4128.013	3745
4129.573	3786
4131.133	3725
4132.694	3750
4134.254	3859
4135.814	3816
4137.374	3677
4138.933	3764
4140.491	3738
4142.049	3800
4143.607	3875
4145.167	3660
4146.724	3725
4148.28	3725
4149.836	3695
4151.392	3674
4152.949	3729
4154.504	3743
4156.059	3744
4157.614	3739
4159.168	3736
4160.723	3594
4162.277	3649
4163.83	3695
4165.383	3737
4166.936	3714
4168.488	3599
4170.041	3732
4171.593	3706
4173.144	3694
4174.695	3672
4176.246	3630
4177.796	3600
4179.346	3616
4180.896	3654
4182.445	3580
4183.994	3616
4185.542	3668
4187.091	3663
4188.639	3653
4190.185	3576
4191.732	3626
4193.279	3592
4194.826	3611
4196.373	3616
4197.918	3700
4199.463	3534
4201.008	3595
4202.553	3661
4204.098	3617
4205.641	3646
4207.185	3580
4208.728	3653
4210.271	3593
4211.814	3502
4213.357	3599
4214.898	3572
4216.439	3640
4217.98	3572
4219.522	3667
4221.062	3587
4222.603	3594
4224.142	3592
4225.681	3696
4227.222	3538
4228.76	3563
4230.298	3555
4231.835	3533
4233.373	3540
4234.911	3541
4236.449	3538
4237.985	3548
4239.521	3517
4241.057	3611
4242.592	3596
4244.128	3533
4245.663	3547
4247.197	3550
4248.731	3582
4250.265	3561
4251.798	3513
4253.333	3517
4254.865	3583
4256.397	3509
4257.93	3495
4259.461	3642
4260.994	3500
4262.525	3566
4264.056	3616
4265.586	3487
4267.115	3496
4268.646	3547
4270.176	3500
4271.705	3439
4273.232	3536
4274.761	3560
4276.289	3472
4277.818	3483
4279.345	3559
4280.872	3553
4282.399	3527
4283.924	3440
4285.452	3441
4286.976	3476
4288.502	3436
4290.026	3568
4291.551	3466
4293.074	3380
4294.6	3469
4296.123	3526
4297.646	3423
4299.168	3486
4300.691	3464
4302.214	3406
4303.736	3464
4305.257	3485
4306.778	3378
4308.299	3422
4309.82	3423
4311.34	3400
4312.86	3382
4314.379	3414
