400.0745	3903
402.597	3887
405.1208	3880
407.6419	3990
410.1623	3925
412.6819	3987
415.201	3966
417.7172	3990
420.2369	4121
422.7538	4105
425.2701	4076
427.7856	4183
430.3005	4153
432.8147	4194
435.3282	4172
437.841	4176
440.3511	4254
442.8625	4116
445.3753	4201
447.8854	4191
450.3927	4187
452.9014	4196
455.4073	4222
457.9146	4270
460.4233	4211
462.9272	4291
465.4325	4194
467.935	4261
470.4389	4301
472.9421	4258
475.4446	4327
477.9444	4148
480.4456	4313
482.944	4208
485.4417	4326
487.9429	4385
490.4393	4304
492.935	4338
495.4321	4283
497.9264	4287
500.4221	4386
502.9171	4334
505.4094	4325
507.9011	4401
510.392	4304
512.8864	4374
515.3759	4415
517.8649	4417
520.3531	4390
522.8406	4399
525.3275	4401
527.8178	4366
530.3033	4446
532.7881	4458
535.2723	4357
537.7558	4386
540.2407	4453
542.7228	4390
545.2043	4441
547.6851	4415
550.1652	4390
552.6467	4429
555.1255	4461
557.6016	4465
560.079	4455
562.5557	4553
565.0318	4440
567.5092	4514
569.984	4503
572.456	4535
574.9294	4599
577.4022	4593
579.8762	4608
582.3456	4501
584.8163	4589
587.2863	4585
589.7557	4564
592.2224	4592
594.6924	4559
597.1578	4511
599.6245	4620
602.0905	4508
604.5538	4593
607.0206	4561
609.4825	4522
611.9459	4567
614.4066	4591
616.8686	4599
619.33	4571
621.7906	4621
624.2487	4629
626.708	4541
629.1647	4549
631.6207	4566
634.0801	4536
636.5348	4520
638.9888	4684
641.4442	4522
643.8969	4647
646.3509	4650
648.8022	4702
651.255	4598
653.705	4625
656.1544	4737
658.6031	4674
661.0532	4675
663.5026	4717
665.9493	4656
668.3954	4728
670.8409	4743
673.2877	4740
675.7318	4701
678.1752	4690
680.618	4715
683.0601	4784
685.5035	4679
687.9444	4831
690.3845	4829
692.824	4681
695.2628	4828
697.701	4830
700.1406	4884
702.5774	4767
705.0116	4729
707.4472	4800
709.8821	4849
712.3183	4783
714.7519	4865
717.1829	4849
719.6151	4963
722.0468	4841
724.4777	4835
726.908	4917
729.3377	4956
731.7667	4884
734.1931	4955
736.6208	4885
739.0498	5022
741.4742	4945
743.9	4964
746.3231	4981
748.7476	4961
751.1713	5112
753.5945	4985
756.015	5002
758.4368	4982
760.856	5056
763.2766	5016
765.6965	5063
768.1157	5101
770.5323	5060
772.9483	5095
775.3656	5000
777.7822	5068
780.1963	5131
782.6116	5041
785.0244	5136
787.4365	5056
789.8499	5040
792.2626	5063
794.6728	5114
797.0823	5103
799.4911	5193
801.8994	5126
804.3109	5088
806.7178	5179
809.124	5106
811.5297	5151
813.9347	5196
816.341	5232
818.7447	5152
821.1478	5125
823.5502	5108
825.952	5130
828.3531	5131
830.7556	5197
833.1554	5138
835.5546	5121
837.9532	5235
840.3511	5215
842.7504	5260
845.1451	5247
847.5411	5190
849.9365	5227
852.3312	5227
854.7272	5267
857.1187	5218
859.5115	5373
861.9037	5145
864.2952	5221
866.6842	5214
869.0764	5131
871.4661	5259
873.8531	5243
876.2415	5254
878.6272	5204
881.0162	5215
883.4026	5197
885.7866	5206
888.1717	5289
890.5543	5344
892.9382	5243
895.3215	5252
897.7041	5262
900.0842	5227
902.4655	5354
904.8443	5228
907.2244	5231
909.6039	5249
911.9808	5206
914.357	5266
916.7346	5302
919.1115	5378
921.4859	5288
923.8616	5447
926.2347	5416
928.6071	5350
930.979	5487
933.3541	5439
935.7247	5447
938.0946	5476
940.4639	5573
942.8326	5559
945.2026	5561
947.5701	5700
949.9369	5634
952.305	5826
954.6705	5987
957.0355	6151
959.4017	6137
961.7654	6242
964.1284	6288
966.4908	6221
968.8527	5949
971.2138	5780
973.5743	5667
975.9343	5570
978.2936	5533
980.6522	5432
983.0122	5479
985.3696	5493
987.7245	5489
990.0807	5462
992.4362	5432
994.7911	5416
997.1474	5478
999.4991	5319
1001.852	5403
1004.205	5462
1006.555	5442
1008.908	5471
1011.258	5476
1013.606	5357
1015.956	5597
1018.302	5517
1020.652	5427
1022.998	5483
1025.345	5449
1027.691	5504
1030.035	5496
1032.378	5508
1034.724	5525
1037.066	5521
1039.409	5633
1041.75	5536
1044.092	5483
1046.433	5581
1048.771	5504
1051.112	5530
1053.449	5465
1055.786	5532
1058.124	5565
1060.462	5482
1062.797	5538
1065.131	5558
1067.467	5581
1069.8	5656
1072.135	5709
1074.467	5738
1076.798	5534
1079.129	5577
1081.459	5549
1083.792	5612
1086.121	5645
1088.449	5499
1090.777	5556
1093.104	5528
1095.431	5597
1097.759	5539
1100.084	5523
1102.408	5550
1104.732	5620
1107.056	5615
1109.379	5559
1111.701	5562
1114.022	5536
1116.343	5669
1118.664	5576
1120.983	5636
1123.303	5504
1125.621	5594
1127.939	5769
1130.256	5591
1132.573	5624
1134.889	5545
1137.205	5613
1139.52	5566
1141.832	5608
1144.146	5596
1146.461	5524
1148.771	5535
1151.083	5626
1153.392	5715
1155.703	5471
1158.011	5617
1160.323	5684
1162.629	5571
1164.938	5551
1167.243	5733
1169.55	5562
1171.857	5617
1174.163	5653
1176.466	5544
1178.769	5582
1181.073	5660
1183.374	5555
1185.677	5532
1187.979	5624
1190.279	5553
1192.578	5653
1194.878	5631
1197.178	5618
1199.476	5609
1201.772	5562
1204.068	5651
1206.366	5637
1208.663	5594
1210.957	5724
1213.251	5644
1215.544	5629
1217.836	5658
1220.128	5680
1222.421	5641
1224.712	5728
1227.002	5764
1229.292	5706
1231.581	5718
1233.871	5689
1236.159	5695
1238.446	5799
1240.732	5749
1243.018	5814
1245.304	5866
1247.59	5820
1249.874	5788
1252.156	5791
1254.439	5839
1256.721	5760
1259.005	5855
1261.286	5763
1263.565	5751
1265.845	5738
1268.125	5925
1270.403	5740
1272.682	5739
1274.959	5773
1277.234	5892
1279.511	5760
1281.787	5698
1284.062	5808
1286.337	5767
1288.609	5750
1290.882	5769
1293.153	5658
1295.428	5668
1297.698	5747
1299.969	5832
1302.237	5735
1304.507	5574
1306.777	5716
1309.044	5704
1311.312	5701
1313.578	5762
1315.844	5637
1318.109	5711
1320.375	5680
1322.638	5738
1324.903	5759
1327.165	5788
1329.427	5667
1331.69	5747
1333.952	5776
1336.212	5725
1338.471	5733
1340.73	5697
1342.988	5778
1345.248	5781
1347.505	5841
1349.763	5712
1352.019	5798
1354.274	5760
1356.53	5686
1358.784	5661
1361.038	5753
1363.291	5705
1365.543	5639
1367.797	5768
1370.048	5717
1372.296	5692
1374.546	5765
1376.796	5830
1379.045	5675
1381.295	5680
1383.542	5821
1385.787	5795
1388.034	5788
1390.28	5747
1392.527	5853
1394.772	5815
1397.014	5834
1399.258	5841
1401.501	5819
1403.741	5883
1405.985	5834
1408.226	5871
1410.465	5771
1412.705	5710
1414.943	5697
1417.184	5869
1419.42	5758
1421.658	5864
1423.894	5924
1426.13	5957
1428.366	5900
1430.602	5849
1432.835	5830
1435.069	5829
1437.301	5835
1439.535	5895
1441.767	5998
1443.997	5883
1446.229	6009
1448.458	5871
1450.687	5970
1452.916	5810
1455.146	5997
1457.372	5994
1459.599	5879
1461.824	5850
1464.051	5916
1466.277	5945
1468.501	5871
1470.725	5979
1472.948	5883
1475.17	5881
1477.393	5960
1479.614	5855
1481.837	5952
1484.057	5797
1486.276	5809
1488.497	5792
1490.715	5843
1492.932	5800
1495.148	5758
1497.364	5754
1499.58	5791
1501.798	5766
1504.012	5792
1506.227	5741
1508.44	5852
1510.653	5783
1512.866	5887
1515.078	5744
1517.289	5728
1519.5	5741
1521.711	5720
1523.92	5666
1526.13	5695
1528.338	5748
1530.544	5835
1532.752	5771
1534.959	5757
1537.165	5796
1539.371	5781
1541.574	5692
1543.779	5787
1545.983	5756
1548.187	5805
1550.39	5713
1552.59	5773
1554.792	5770
1556.991	5737
1559.19	5769
1561.392	5816
1563.59	5844
1565.789	5802
1567.986	5872
1570.182	5863
1572.381	5843
1574.576	5827
1576.771	5969
1578.966	5932
1581.16	5981
1583.354	5912
1585.546	5907
1587.74	5917
1589.931	5996
1592.121	5942
1594.311	5886
1596.502	5834
1598.693	5930
1600.881	5826
1603.069	5912
1605.256	5971
1607.445	5937
1609.631	5862
1611.816	5903
1614.001	5958
1616.186	5950
1618.37	6022
1620.555	5955
1622.737	5960
1624.919	5933
1627.101	5961
1629.282	6005
1631.463	6034
1633.643	5866
1635.822	6022
1638.001	5951
1640.179	6056
1642.359	6046
1644.534	5977
1646.711	5953
1648.887	5871
1651.062	5972
1653.235	6038
1655.412	6084
1657.586	6042
1659.757	6031
1661.93	5893
1664.1	5978
1666.274	5963
1668.445	5945
1670.614	5982
1672.784	5965
1674.951	5989
1677.12	6056
1679.289	5990
1681.457	5975
1683.622	5883
1685.789	5969
1687.953	6089
1690.121	6074
1692.284	6082
1694.447	5828
1696.611	5940
1698.772	6145
1700.935	5948
1703.098	5919
1705.258	5913
1707.417	5971
1709.576	5876
1711.736	5889
1713.896	5907
1716.053	5960
1718.21	5952
1720.366	5921
1722.522	5849
1724.68	5949
1726.835	5846
1728.989	5933
1731.142	5878
1733.295	6023
1735.449	5863
1737.601	6011
1739.753	5814
1741.903	5935
1744.054	5858
1746.203	5908
1748.354	5893
1750.503	5962
1752.651	5876
1754.798	5852
1756.944	5917
1759.092	5887
1761.238	5901
1763.383	5962
1765.528	5893
1767.672	5980
1769.814	5905
1771.959	5978
1774.102	5975
1776.242	6053
1778.384	6032
1780.525	6060
1782.665	5931
1784.805	5943
1786.945	5961
1789.082	5893
1791.22	5974
1793.36	5912
1795.495	5935
1797.632	5990
1799.766	5908
1801.902	5992
1804.035	6000
1806.172	5926
1808.304	5990
1810.436	6070
1812.569	5991
1814.699	6024
1816.833	6032
1818.963	6039
1821.092	5961
1823.222	6010
1825.35	5965
1827.478	5975
1829.608	5910
1831.734	5991
1833.86	6002
1835.986	5881
1838.11	5844
1840.238	5898
1842.362	6001
1844.485	5868
1846.608	5943
1848.73	5931
1850.853	5936
1852.974	5911
1855.097	5823
1857.217	5872
1859.336	5906
1861.455	5852
1863.576	5962
1865.693	5986
1867.811	5893
1869.926	5811
1872.042	5841
1874.16	5928
1876.275	5889
1878.39	5834
1880.504	5974
1882.618	5928
1884.731	5924
1886.843	6021
1888.956	5989
1891.067	5915
1893.178	5916
1895.287	5982
1897.399	5965
1899.508	5972
1901.617	5872
1903.724	5953
1905.832	5971
1907.941	5995
1910.046	5964
1912.152	5886
1914.256	6030
1916.361	5971
1918.464	6001
1920.57	6007
1922.672	5981
1924.775	6013
1926.876	5964
1928.978	6023
1931.08	5915
1933.181	6005
1935.28	5935
1937.38	5962
1939.478	6001
1941.577	6020
1943.675	5967
1945.771	6046
1947.867	5999
1949.964	5984
1952.058	5984
1954.154	6097
1956.248	6001
1958.343	5974
1960.435	6004
1962.527	6058
1964.62	5976
1966.711	5924
1968.802	5989
1970.892	5978
1972.983	5959
1975.072	6047
1977.162	5864
1979.25	5937
1981.337	6031
1983.424	5867
1985.51	5972
1987.598	5955
1989.683	5868
1991.768	5913
1993.852	6026
1995.934	5934
1998.019	6001
2000.102	5897
2002.184	5877
2004.266	6027
2006.347	5996
2008.427	6010
2010.508	5846
2012.587	5907
2014.666	5852
2016.745	5928
2018.821	5833
2020.9	5861
2022.977	6005
2025.052	5984
2027.128	6004
2029.204	5873
2031.277	5889
2033.353	5952
2035.425	5833
2037.499	5939
2039.57	5842
2041.642	5912
2043.714	5945
2045.786	5877
2047.855	5902
2049.925	6005
2051.993	5861
2054.064	5918
2056.132	6061
2058.2	5873
2060.266	6037
2062.332	6007
2064.398	5878
2066.465	5857
2068.529	6052
2070.592	5970
2072.657	5901
2074.719	5945
2076.783	5861
2078.845	6021
2080.907	5965
2082.968	5914
2085.028	6031
2087.087	5846
2089.148	5943
2091.207	5882
2093.264	6011
2095.322	5979
2097.379	5937
2099.439	5957
2101.495	5885
2103.55	5824
2105.605	6030
2107.658	6007
2109.713	5819
2111.767	5911
2113.82	5914
2115.872	5976
2117.924	5969
2119.975	5942
2122.028	5877
2124.078	5917
2126.126	6022
2128.176	5863
2130.225	5883
2132.275	5877
2134.321	5870
2136.368	5813
2138.415	5904
2140.461	5982
2142.505	5814
2144.552	5841
2146.597	5982
2148.64	5941
2150.684	5829
2152.725	5918
2154.77	6000
2156.811	5907
2158.852	5854
2160.894	5911
2162.933	5839
2164.973	5842
2167.013	5873
2169.051	5786
2171.089	5815
2173.126	5810
2175.164	5850
2177.201	5949
2179.236	5864
2181.273	5938
2183.307	5830
2185.341	5803
2187.377	5784
2189.41	5761
2191.442	5808
2193.473	5796
2195.506	5742
2197.539	5710
2199.569	5768
2201.598	5745
2203.628	5782
2205.656	5836
2207.686	5757
2209.716	5641
2211.743	5785
2213.769	5689
2215.796	5729
2217.821	5698
2219.848	5786
2221.873	5737
2223.897	5712
2225.921	5817
2227.944	5681
2229.967	5667
2231.991	5640
2234.011	5835
2236.032	5826
2238.053	5579
2240.073	5869
2242.094	5747
2244.114	5704
2246.131	5689
2248.149	5795
2250.167	5790
2252.186	5684
2254.201	5733
2256.218	5712
2258.233	5758
2260.247	5770
2262.262	5674
2264.278	5694
2266.29	5726
2268.303	5818
2270.315	5639
2272.327	5734
2274.341	5702
2276.35	5832
2278.361	5679
2280.37	5788
2282.38	5788
2284.388	5788
2286.397	5775
2288.405	5722
2290.412	5807
2292.419	5816
2294.425	5769
2296.431	5662
2298.437	5747
2300.441	5684
2302.445	5765
2304.449	5679
2306.453	5798
2308.455	5620
2310.457	5633
2312.459	5689
2314.46	5610
2316.46	5714
2318.461	5659
2320.46	5710
2322.458	5795
2324.458	5703
2326.456	5729
2328.455	5614
2330.451	5754
2332.447	5601
2334.443	5601
2336.438	5632
2338.433	5705
2340.429	5709
2342.422	5616
2344.416	5725
2346.408	5615
2348.399	5615
2350.393	5692
2352.384	5619
2354.375	5593
2356.365	5569
2358.355	5677
2360.344	5644
2362.333	5597
2364.322	5620
2366.309	5576
2368.295	5550
2370.282	5564
2372.27	5623
2374.256	5645
2376.24	5692
2378.225	5614
2380.208	5663
2382.194	5578
2384.177	5604
2386.159	5517
2388.142	5552
2390.122	5528
2392.105	5511
2394.085	5556
2396.066	5568
2398.044	5479
2400.024	5546
2402.002	5649
2403.982	5546
2405.959	5556
2407.935	5501
2409.913	5523
2411.888	5544
2413.865	5420
2415.84	5515
2417.814	5578
2419.788	5506
2421.762	5559
2423.735	5465
2425.708	5609
2427.68	5529
2429.651	5600
2431.623	5585
2433.593	5487
2435.564	5435
2437.533	5568
2439.502	5541
2441.47	5459
2443.438	5516
2445.406	5485
2447.373	5442
2449.34	5593
2451.305	5496
2453.271	5501
2455.235	5555
2457.201	5481
2459.165	5545
2461.129	5483
2463.092	5446
2465.054	5452
2467.018	5548
2468.978	5381
2470.939	5393
2472.899	5411
2474.86	5506
2476.819	5425
2478.778	5482
2480.737	5499
2482.695	5404
2484.653	5497
2486.609	5385
2488.567	5438
2490.524	5485
2492.478	5491
2494.433	5396
2496.387	5435
2498.343	5415
2500.297	5467
2502.249	5363
2504.202	5427
2506.153	5406
2508.105	5384
2510.057	5433
2512.008	5423
2513.957	5461
2515.906	5405
2517.855	5351
2519.805	5410
2521.754	5439
2523.7	5270
2525.647	5463
2527.594	5255
2529.54	5476
2531.486	5352
2533.431	5454
2535.376	5403
2537.32	5322
2539.263	5442
2541.207	5382
2543.151	5419
2545.093	5299
2547.034	5472
2548.975	5367
2550.917	5383
2552.856	5437
2554.796	5372
2556.735	5370
2558.673	5347
2560.611	5458
2562.55	5367
2564.487	5331
2566.424	5288
2568.36	5327
2570.296	5328
2572.232	5384
2574.167	5460
2576.101	5366
2578.035	5224
2579.969	5424
2581.902	5230
2583.834	5411
2585.766	5329
2587.698	5475
2589.628	5340
2591.557	5367
2593.489	5302
2595.419	5344
2597.348	5296
2599.275	5373
2601.204	5314
2603.131	5293
2605.059	5328
2606.986	5360
2608.911	5367
2610.837	5336
2612.76	5332
2614.687	5330
2616.61	5365
2618.534	5423
2620.457	5314
2622.38	5411
2624.302	5402
2626.225	5328
2628.145	5348
2630.067	5343
2631.986	5381
2633.906	5532
2635.827	5454
2637.745	5457
2639.662	5391
2641.581	5322
2643.498	5381
2645.415	5432
2647.331	5342
2649.248	5239
2651.163	5433
2653.077	5304
2654.993	5374
2656.906	5409
2658.821	5404
2660.733	5278
2662.646	5394
2664.557	5214
2666.47	5327
2668.381	5348
2670.291	5293
2672.201	5368
2674.11	5410
2676.021	5408
2677.929	5318
2679.837	5296
2681.745	5281
2683.652	5350
2685.56	5218
2687.466	5284
2689.371	5233
2691.276	5277
2693.181	5339
2695.085	5186
2696.991	5359
2698.893	5259
2700.796	5264
2702.698	5281
2704.601	5181
2706.502	5299
2708.404	5230
2710.304	5214
2712.203	5343
2714.103	5290
2716.003	5229
2717.902	5224
2719.8	5255
2721.697	5244
2723.594	5210
2725.49	5255
2727.389	5185
2729.283	5303
2731.179	5228
2733.073	5276
2734.968	5196
2736.863	5160
2738.757	5055
2740.649	5215
2742.541	5178
2744.433	5296
2746.324	5119
2748.216	5211
2750.107	5098
2751.997	5256
2753.886	5116
2755.776	5216
2757.666	5183
2759.553	5128
2761.44	5245
2763.327	5179
2765.215	5188
2767.102	5200
2768.988	5230
2770.873	5249
2772.757	5275
2774.641	5116
2776.525	5148
2778.41	5139
2780.292	5115
2782.175	5142
2784.057	5134
2785.938	5031
2787.821	5031
2789.701	5124
2791.581	5206
2793.461	5031
2795.34	5224
2797.219	5127
2799.099	5092
2800.975	5162
2802.853	5099
2804.73	5117
2806.606	5066
2808.484	5243
2810.358	5165
2812.233	5120
2814.108	5057
2815.981	5095
2817.857	4982
2819.73	5124
2821.602	5157
2823.474	5138
2825.346	5113
2827.217	5082
2829.089	5042
2830.959	4997
2832.829	5052
2834.698	5070
2836.567	5086
2838.436	5069
2840.305	5061
2842.172	5059
2844.04	5107
2845.905	5105
2847.772	5108
2849.639	5049
2851.503	5099
2853.369	5115
2855.232	5132
2857.096	5109
2858.961	5154
2860.824	5118
2862.686	5077
2864.547	5198
2866.41	5066
2868.272	5140
2870.132	5107
2871.992	5148
2873.851	5118
2875.711	5127
2877.57	5279
2879.429	5206
2881.287	5265
2883.144	5234
2885.001	5222
2886.857	5266
2888.714	5245
2890.57	5222
2892.425	5331
2894.279	5161
2896.133	5165
2897.987	5236
2899.842	5224
2901.694	5216
2903.547	5182
2905.397	5112
2907.249	5155
2909.101	5276
2910.952	5237
2912.802	5285
2914.652	5271
2916.5	5322
2918.35	5300
2920.198	5215
2922.045	5346
2923.893	5393
2925.74	5446
2927.585	5436
2929.433	5452
2931.279	5413
2933.123	5554
2934.968	5435
2936.811	5451
2938.656	5485
2940.5	5360
2942.342	5487
2944.185	5486
2946.026	5519
2947.87	5456
2949.71	5472
2951.549	5522
2953.39	5525
2955.229	5473
2957.069	5433
2958.908	5411
2960.746	5434
2962.584	5331
2964.421	5284
2966.257	5321
2968.094	5319
2969.931	5233
2971.766	5307
2973.601	5145
2975.435	5252
2977.27	5110
2979.105	5240
2980.938	5243
2982.77	5247
2984.602	5127
2986.434	5201
2988.267	5174
2990.097	5112
2991.927	5172
2993.757	5113
2995.587	5027
2997.417	5048
2999.246	5087
3001.074	5008
3002.902	4979
3004.729	5061
3006.556	4969
3008.384	4963
3010.21	4964
3012.036	4853
3013.861	4870
3015.684	4844
3017.51	4852
3019.334	4806
3021.157	4941
3022.981	4799
3024.802	4759
3026.624	4827
3028.448	4745
3030.267	4744
3032.088	4815
3033.909	4816
3035.728	4725
3037.549	4767
3039.368	4781
3041.186	4766
3043.004	4796
3044.821	4677
3046.64	4722
3048.455	4767
3050.272	4695
3052.087	4749
3053.903	4729
3055.717	4720
3057.534	4704
3059.347	4780
3061.16	4718
3062.974	4648
3064.785	4763
3066.598	4746
3068.411	4761
3070.222	4676
3072.032	4708
3073.844	4680
3075.653	4689
3077.463	4589
3079.272	4741
3081.08	4666
3082.889	4648
3084.697	4544
3086.505	4687
3088.312	4729
3090.118	4617
3091.924	4635
3093.729	4648
3095.535	4563
3097.34	4620
3099.144	4648
3100.947	4611
3102.75	4535
3104.553	4556
3106.357	4665
3108.159	4598
3109.961	4557
3111.762	4577
3113.562	4495
3115.365	4456
3117.164	4586
3118.964	4596
3120.761	4591
3122.56	4580
3124.36	4445
3126.158	4497
3127.954	4527
3129.75	4566
3131.547	4460
3133.343	4468
3135.139	4527
3136.934	4422
3138.729	4465
3140.522	4531
3142.317	4576
3144.11	4521
3145.904	4318
3147.695	4492
3149.488	4470
3151.28	4516
3153.07	4346
3154.863	4434
3156.652	4444
3158.441	4512
3160.231	4409
3162.019	4449
3163.81	4423
3165.597	4441
3167.384	4514
3169.172	4593
3170.958	4415
3172.745	4382
3174.532	4355
3176.317	4456
3178.101	4429
3179.885	4323
3181.67	4367
3183.455	4378
3185.238	4436
3187.02	4391
3188.802	4310
3190.585	4418
3192.368	4398
3194.149	4375
3195.929	4366
3197.709	4431
3199.489	4351
3201.268	4298
3203.048	4353
3204.826	4335
3206.604	4350
3208.382	4393
3210.159	4348
3211.937	4392
3213.713	4328
3215.489	4328
3217.263	4275
3219.038	4337
3220.815	4330
3222.589	4314
3224.363	4348
3226.136	4322
3227.908	4257
3229.681	4489
3231.454	4354
3233.226	4254
3234.996	4263
3236.767	4334
3238.538	4367
3240.308	4356
3242.078	4253
3243.847	4233
3245.615	4318
3247.384	4328
3249.15	4350
3250.92	4303
3252.686	4306
3254.453	4369
3256.218	4245
3257.984	4211
3259.75	4261
3261.515	4304
3263.279	4327
3265.044	4319
3266.806	4209
3268.57	4311
3270.334	4330
3272.095	4252
3273.856	4301
3275.619	4299
3277.379	4340
3279.14	4221
3280.9	4279
3282.661	4258
3284.419	4368
3286.178	4291
3287.937	4298
3289.695	4195
3291.453	4296
3293.21	4321
3294.967	4313
3296.723	4271
3298.48	4256
3300.235	4348
3301.99	4324
3303.744	4252
3305.498	4203
3307.253	4246
3309.006	4214
3310.759	4278
3312.511	4227
3314.263	4186
3316.017	4219
3317.768	4318
3319.519	4330
3321.268	4260
3323.018	4320
3324.767	4196
3326.518	4252
3328.267	4209
3330.014	4232
3331.762	4239
3333.509	4241
3335.258	4253
3337.003	4211
3338.75	4261
3340.496	4235
3342.24	4181
3343.987	4201
3345.732	4286
3347.475	4226
3349.219	4199
3350.961	4220
3352.705	4252
3354.448	4267
3356.19	4151
3357.931	4193
3359.672	4121
3361.412	4195
3363.155	4257
3364.894	4114
3366.633	4094
3368.372	4069
3370.11	4205
3371.849	4078
3373.588	4178
3375.325	4187
3377.061	4177
3378.799	4113
3380.534	4112
3382.271	4082
3384.006	4077
3385.741	4134
3387.475	4268
3389.209	4149
3390.944	4135
3392.677	4227
3394.409	4205
3396.143	4073
3397.874	4140
3399.606	4047
3401.338	4063
3403.069	4131
3404.799	4127
3406.528	4024
3408.258	3970
3409.988	4189
3411.717	4146
3413.445	4096
3415.173	4095
3416.899	4078
3418.626	4091
3420.354	4020
3422.08	4074
3423.806	4159
3425.531	3978
3427.255	4010
3428.981	4147
3430.705	4034
3432.429	4047
3434.151	3985
3435.875	4002
3437.599	4019
3439.321	4060
3441.042	4018
3442.763	3987
3444.483	3997
3446.204	3938
3447.926	4019
3449.645	3839
3451.364	3998
3453.082	3956
3454.801	3993
3456.52	4038
3458.238	3958
3459.954	3893
3461.671	3877
3463.387	3976
3465.104	3955
3466.82	3936
3468.534	3925
3470.25	3927
3471.963	3947
3473.676	3915
3475.392	3896
3477.104	3910
3478.817	3950
3480.528	3958
3482.241	3997
3483.954	3891
3485.664	3904
3487.374	3816
3489.084	3883
3490.795	3902
3492.504	3863
3494.214	3894
3495.922	3975
3497.63	3852
3499.338	3895
3501.045	3804
3502.753	3832
3504.459	3874
3506.166	3910
3507.871	3844
3509.576	3782
3511.283	3851
3512.987	3782
3514.691	3795
3516.395	3783
3518.098	3825
3519.8	3902
3521.504	3837
3523.206	3890
3524.908	3790
3526.609	3805
3528.309	3767
3530.011	3790
3531.711	3793
3533.411	3761
3535.109	3719
3536.808	3766
3538.507	3784
3540.206	3767
3541.904	3766
3543.601	3864
3545.297	3700
3546.994	3788
3548.69	3716
3550.387	3741
3552.081	3733
3553.776	3723
3555.47	3837
3557.166	3703
3558.859	3736
3560.553	3715
3562.245	3863
3563.938	3705
3565.629	3716
3567.322	3776
3569.014	3790
3570.704	3689
3572.394	3772
3574.084	3659
3575.775	3710
3577.464	3734
3579.152	3649
3580.842	3699
3582.529	3675
3584.216	3740
3585.905	3690
3587.591	3688
3589.279	3727
3590.964	3724
3592.649	3626
3594.336	3728
3596.021	3661
3597.705	3597
3599.388	3709
3601.072	3612
3602.757	3608
3604.439	3673
3606.122	3615
3607.803	3587
3609.485	3606
3611.167	3635
3612.849	3549
3614.529	3635
3616.208	3601
3617.888	3672
3619.567	3571
3621.247	3517
3622.926	3603
3624.603	3549
3626.281	3601
3627.958	3505
3629.635	3563
3631.312	3586
3632.989	3578
3634.665	3595
3636.339	3531
3638.014	3539
3639.691	3514
3641.364	3553
3643.038	3456
3644.71	3534
3646.384	3587
3648.058	3502
3649.729	3507
3651.402	3492
3653.073	3477
3654.744	3498
3656.414	3503
3658.085	3535
3659.755	3459
3661.424	3536
3663.094	3442
3664.762	3543
3666.431	3418
3668.099	3470
3669.766	3399
3671.433	3476
3673.099	3440
3674.768	3493
3676.433	3516
3678.098	3523
3679.763	3519
3681.428	3450
3683.093	3498
3684.757	3453
3686.421	3413
3688.083	3508
3689.746	3486
3691.408	3449
3693.071	3443
3694.733	3473
3696.394	3468
3698.054	3451
3699.715	3435
3701.375	3386
3703.036	3403
3704.695	3462
3706.354	3429
3708.012	3498
3709.67	3267
3711.329	3423
3712.987	3381
3714.644	3426
3716.299	3463
3717.955	3427
3719.613	3378
3721.268	3449
3722.923	3360
3724.577	3386
3726.231	3337
3727.885	3341
3729.539	3382
3731.192	3438
3732.845	3377
3734.497	3407
3736.149	3380
3737.802	3479
3739.453	3407
3741.104	3319
3742.753	3353
3744.404	3377
3746.052	3376
3747.704	3344
3749.352	3396
3751	3334
3752.648	3338
3754.296	3323
3755.944	3415
3757.59	3332
3759.238	3373
3760.883	3312
3762.528	3286
3764.176	3341
3765.82	3249
3767.464	3303
3769.109	3365
3770.753	3368
3772.396	3330
3774.04	3267
3775.683	3219
3777.325	3285
3778.967	3250
3780.608	3398
3782.25	3288
3783.89	3215
3785.531	3358
3787.17	3219
3788.81	3230
3790.45	3216
3792.09	3224
3793.729	3307
3795.366	3244
3797.003	3263
3798.64	3221
3800.278	3262
3801.915	3185
3803.551	3215
3805.187	3185
3806.822	3270
3808.458	3307
3810.093	3218
3811.726	3258
3813.36	3152
3814.994	3175
3816.627	3281
3818.262	3209
3819.893	3226
3821.525	3134
3823.157	3200
3824.787	3142
3826.42	3161
3828.051	3276
3829.68	3195
3831.31	3215
3832.938	3190
3834.569	3217
3836.198	3172
3837.825	3164
3839.454	3192
3841.08	3179
3842.708	3143
3844.335	3169
3845.962	3134
3847.587	3137
3849.212	3118
3850.838	3134
3852.463	3109
3854.089	3157
3855.712	3153
3857.335	3104
3858.959	3160
3860.582	3185
3862.205	3035
3863.827	3075
3865.449	3067
3867.07	3108
3868.691	3157
3870.312	3123
3871.933	3116
3873.553	3155
3875.173	3055
3876.792	3183
3878.411	3191
3880.03	3118
3881.647	3076
3883.265	3104
3884.882	3051
3886.499	3055
3888.116	3103
3889.732	3072
3891.348	3130
3892.964	3050
3894.579	3114
3896.195	3083
3897.809	3067
3899.423	3155
3901.036	3167
3902.648	3030
3904.261	3100
3905.875	3086
3907.487	3063
3909.099	3055
3910.709	3012
3912.321	3044
3913.933	3059
3915.542	3025
3917.152	3026
3918.762	3025
3920.37	3048
3921.98	2968
3923.589	3097
3925.196	3054
3926.804	2967
3928.41	3029
3930.018	2995
3931.626	3029
3933.231	2993
3934.838	3033
3936.442	2972
3938.046	3014
3939.653	3007
3941.257	3012
3942.861	3068
3944.464	2985
3946.068	3040
3947.67	3002
3949.273	3048
3950.876	2941
3952.477	3036
3954.078	2925
3955.678	2984
3957.281	2943
3958.881	2958
3960.48	2971
3962.079	3006
3963.678	3019
3965.279	2930
3966.877	2925
3968.475	3039
3970.072	2923
3971.669	2935
3973.266	2936
3974.864	2920
3976.459	2885
3978.055	2971
3979.65	2974
3981.245	2883
3982.841	2910
3984.436	2890
3986.03	2935
3987.623	2908
3989.216	2906
3990.809	2881
3992.403	2860
3993.995	2913
3995.586	2827
3997.177	2902
3998.768	2900
4000.361	2889
4001.951	2859
4003.54	2933
4005.13	2899
4006.719	2809
4008.31	2838
4009.897	2875
4011.485	2834
4013.073	2861
4014.66	2896
4016.247	2899
4017.834	2866
4019.421	2809
4021.006	2946
4022.592	2776
4024.178	2895
4025.763	2795
4027.348	2804
4028.932	2832
4030.515	2838
4032.099	2779
4033.682	2836
4035.266	2812
4036.847	2796
4038.429	2789
4040.011	2811
4041.592	2781
4043.173	2831
4044.755	2808
4046.334	2754
4047.913	2776
4049.494	2763
4051.074	2755
4052.652	2805
4054.23	2707
4055.807	2819
4057.385	2724
4058.963	2793
4060.541	2791
4062.117	2739
4063.693	2761
4065.269	2750
4066.844	2761
4068.42	2783
4069.995	2779
4071.569	2779
4073.143	2768
4074.716	2712
4076.291	2746
4077.864	2707
4079.436	2744
4081.009	2775
4082.58	2696
4084.152	2764
4085.723	2650
4087.294	2724
4088.865	2759
4090.435	2756
4092.005	2712
4093.574	2735
4095.143	2766
4096.712	2692
4098.279	2763
4099.848	2764
4101.416	2644
4102.984	2704
4104.55	2761
4106.117	2671
4107.682	2674
4109.248	2720
4110.815	2718
4112.379	2647
4113.945	2736
4115.508	2658
4117.073	2699
4118.637	2688
4120.201	2675
4121.763	2670
4123.325	2684
4124.888	2669
4126.449	2686
4128.013	2672
4129.573	2664
4131.133	2629
4132.694	2644
4134.254	2638
4135.814	2646
4137.374	2586
4138.933	2641
4140.491	2642
4142.049	2665
4143.607	2622
4145.167	2629
4146.724	2660
4148.28	2612
4149.836	2598
4151.392	2569
4152.949	2614
4154.504	2661
4156.059	2642
4157.614	2613
4159.168	2558
4160.723	2594
4162.277	2608
4163.83	2555
4165.383	2556
4166.936	2610
4168.488	2656
4170.041	2580
4171.593	2560
4173.144	2528
4174.695	2579
4176.246	2574
4177.796	2531
4179.346	2563
4180.896	2508
4182.445	2566
4183.994	2513
4185.542	2547
4187.091	2490
4188.639	2552
4190.185	2533
4191.732	2545
4193.279	2572
4194.826	2550
4196.373	2570
4197.918	2476
4199.463	2527
4201.008	2511
4202.553	2559
4204.098	2544
4205.641	2576
4207.185	2500
4208.728	2519
4210.271	2500
4211.814	2497
4213.357	2520
4214.898	2500
4216.439	2528
4217.98	2398
4219.522	2501
4221.062	2492
4222.603	2467
4224.142	2452
4225.681	2462
4227.222	2508
4228.76	2472
4230.298	2471
4231.835	2505
4233.373	2486
4234.911	2421
4236.449	2466
4237.985	2470
4239.521	2444
4241.057	2453
4242.592	2479
4244.128	2348
4245.663	2386
4247.197	2441
4248.731	2472
4250.265	2408
4251.798	2444
4253.333	2411
4254.865	2371
4256.397	2442
4257.93	2443
4259.461	2426
4260.994	2432
4262.525	2448
4264.056	2397
4265.586	2360
4267.115	2438
4268.646	2533
4270.176	2400
4271.705	2409
4273.232	2421
4274.761	2335
4276.289	2379
4277.818	2349
4279.345	2368
4280.872	2419
4282.399	2387
4283.924	2431
4285.452	2452
4286.976	2395
4288.502	2350
4290.026	2398
4291.551	2400
4293.074	2388
4294.6	2409
4296.123	2364
4297.646	2383
4299.168	2368
4300.691	2371
4302.214	2384
4303.736	2385
4305.257	2364
4306.778	2365
4308.299	2418
4309.82	2392
4311.34	2327
4312.86	2340
4314.379	2314
