400.0745	4749
402.597	4755
405.1208	4797
407.6419	4773
410.1623	4868
412.6819	4862
415.201	4849
417.7172	4837
420.2369	5011
422.7538	5018
425.2701	5039
427.7856	5112
430.3005	5050
432.8147	5178
435.3282	5216
437.841	5230
440.3511	5151
442.8625	5215
445.3753	5319
447.8854	5173
450.3927	5137
452.9014	5171
455.4073	5157
457.9146	5116
460.4233	5200
462.9272	5132
465.4325	5145
467.935	5138
470.4389	5194
472.9421	5239
475.4446	5249
477.9444	5056
480.4456	5267
482.944	5212
485.4417	5191
487.9429	5213
490.4393	5271
492.935	5200
495.4321	5162
497.9264	5249
500.4221	5215
502.9171	5294
505.4094	5255
507.9011	5427
510.392	5402
512.8864	5390
515.3759	5321
517.8649	5393
520.3531	5293
522.8406	5375
525.3275	5362
527.8178	5398
530.3033	5305
532.7881	5387
535.2723	5488
537.7558	5356
540.2407	5444
542.7228	5354
545.2043	5460
547.6851	5401
550.1652	5440
552.6467	5431
555.1255	5380
557.6016	5349
560.079	5427
562.5557	5515
565.0318	5472
567.5092	5499
569.984	5511
572.456	5625
574.9294	5594
577.4022	5600
579.8762	5602
582.3456	5645
584.8163	5691
587.2863	5620
589.7557	5574
592.2224	5714
594.6924	5639
597.1578	5658
599.6245	5546
602.0905	5649
604.5538	5591
607.0206	5627
609.4825	5471
611.9459	5500
614.4066	5617
616.8686	5523
619.33	5604
621.7906	5548
624.2487	5653
626.708	5574
629.1647	5564
631.6207	5559
634.0801	5577
636.5348	5643
638.9888	5618
641.4442	5654
643.8969	5587
646.3509	5630
648.8022	5635
651.255	5597
653.705	5740
656.1544	5592
658.6031	5685
661.0532	5638
663.5026	5695
665.9493	5698
668.3954	5725
670.8409	5746
673.2877	5670
675.7318	5728
678.1752	5720
680.618	5674
683.0601	5755
685.5035	5665
687.9444	5746
690.3845	5856
692.824	5827
695.2628	5763
697.701	5729
700.1406	5838
702.5774	5784
705.0116	5861
707.4472	5746
709.8821	5824
712.3183	5836
714.7519	5814
717.1829	5812
719.6151	5915
722.0468	5822
724.4777	5871
726.908	5865
729.3377	6007
731.7667	6004
734.1931	6032
736.6208	6008
739.0498	6043
741.4742	6093
743.9	6050
746.3231	6035
748.7476	6177
751.1713	6028
753.5945	6116
756.015	6111
758.4368	6231
760.856	6172
763.2766	6246
765.6965	6170
768.1157	6240
770.5323	6236
772.9483	6334
775.3656	6227
777.7822	6197
780.1963	6144
782.6116	6298
785.0244	6220
787.4365	6221
789.8499	6271
792.2626	6237
794.6728	6227
797.0823	6198
799.4911	6090
801.8994	6205
804.3109	6156
806.7178	6224
809.124	6313
811.5297	6209
813.9347	6259
816.341	6238
818.7447	6341
821.1478	6384
823.5502	6345
825.952	6350
828.3531	6378
830.7556	6354
833.1554	6353
835.5546	6378
837.9532	6381
840.3511	6344
842.7504	6366
845.1451	6369
847.5411	6516
849.9365	6459
852.3312	6508
854.7272	6439
857.1187	6471
859.5115	6551
861.9037	6519
864.2952	6500
866.6842	6464
869.0764	6347
871.4661	6429
873.8531	6373
876.2415	6483
878.6272	6427
881.0162	6400
883.4026	6357
885.7866	6379
888.1717	6461
890.5543	6422
892.9382	6407
895.3215	6458
897.7041	6380
900.0842	6424
902.4655	6420
904.8443	6387
907.2244	6425
909.6039	6601
911.9808	6503
914.357	6590
916.7346	6611
919.1115	6781
921.4859	6787
923.8616	6766
926.2347	6753
928.6071	6758
930.979	6815
933.3541	6810
935.7247	6825
938.0946	6838
940.4639	6841
942.8326	6864
945.2026	6986
947.5701	6991
949.9369	7217
952.305	7290
954.6705	7632
957.0355	7738
959.4017	8121
961.7654	8100
964.1284	7930
966.4908	7814
968.8527	7586
971.2138	7439
973.5743	7107
975.9343	6953
978.2936	6887
980.6522	6857
983.0122	6741
985.3696	6615
987.7245	6694
990.0807	6682
992.4362	6684
994.7911	6681
997.1474	6680
999.4991	6597
1001.852	6811
1004.205	6721
1006.555	6655
1008.908	6672
1011.258	6730
1013.606	6638
1015.956	6787
1018.302	6778
1020.652	6642
1022.998	6767
1025.345	6813
1027.691	6641
1030.035	6766
1032.378	6811
1034.724	6898
1037.066	6867
1039.409	6859
1041.75	6900
1044.092	6818
1046.433	6774
1048.771	6771
1051.112	6748
1053.449	6838
1055.786	6864
1058.124	6822
1060.462	6847
1062.797	6872
1065.131	6769
1067.467	6993
1069.8	6829
1072.135	6992
1074.467	6954
1076.798	6885
1079.129	6884
1081.459	6836
1083.792	6885
1086.121	6883
1088.449	6824
1090.777	6821
1093.104	6782
1095.431	6864
1097.759	6789
1100.084	6803
1102.408	6752
1104.732	6887
1107.056	6653
1109.379	6865
1111.701	6853
1114.022	6814
1116.343	6823
1118.664	6853
1120.983	6902
1123.303	6871
1125.621	6833
1127.939	6860
1130.256	6914
1132.573	6772
1134.889	6765
1137.205	6811
1139.52	6835
1141.832	6688
1144.146	6759
1146.461	6728
1148.771	6889
1151.083	6798
1153.392	6861
1155.703	6804
1158.011	6836
1160.323	6828
1162.629	6809
1164.938	6902
1167.243	6905
1169.55	6820
1171.857	6793
1174.163	6734
1176.466	6774
1178.769	6804
1181.073	6889
1183.374	6870
1185.677	6904
1187.979	6892
1190.279	6887
1192.578	6788
1194.878	6775
1197.178	6762
1199.476	6938
1201.772	6810
1204.068	6902
1206.366	6873
1208.663	6912
1210.957	6717
1213.251	6812
1215.544	6829
1217.836	6835
1220.128	6792
1222.421	6900
1224.712	6906
1227.002	6909
1229.292	7039
1231.581	7044
1233.871	7005
1236.159	6955
1238.446	6946
1240.732	7186
1243.018	7046
1245.304	7164
1247.59	7127
1249.874	7279
1252.156	7145
1254.439	7097
1256.721	7243
1259.005	7046
1261.286	7182
1263.565	7101
1265.845	7100
1268.125	7200
1270.403	7069
1272.682	7140
1274.959	7099
1277.234	7074
1279.511	7193
1281.787	7158
1284.062	7070
1286.337	7056
1288.609	6876
1290.882	7040
1293.153	6883
1295.428	6994
1297.698	7019
1299.969	6928
1302.237	6964
1304.507	6945
1306.777	6995
1309.044	6897
1311.312	7030
1313.578	6944
1315.844	6999
1318.109	7036
1320.375	6944
1322.638	6962
1324.903	7024
1327.165	6888
1329.427	7011
1331.69	6927
1333.952	7050
1336.212	6996
1338.471	6925
1340.73	6928
1342.988	6958
1345.248	6977
1347.505	6969
1349.763	6979
1352.019	7084
1354.274	6913
1356.53	6965
1358.784	6804
1361.038	7001
1363.291	6882
1365.543	6917
1367.797	6898
1370.048	7002
1372.296	6990
1374.546	6917
1376.796	7032
1379.045	6892
1381.295	7073
1383.542	6999
1385.787	7046
1388.034	7086
1390.28	7033
1392.527	7031
1394.772	6986
1397.014	7149
1399.258	7218
1401.501	7260
1403.741	7036
1405.985	7091
1408.226	7242
1410.465	7124
1412.705	7113
1414.943	7077
1417.184	7084
1419.42	7249
1421.658	7202
1423.894	7299
1426.13	7293
1428.366	7226
1430.602	7156
1432.835	7243
1435.069	7212
1437.301	7251
1439.535	7300
1441.767	7260
1443.997	7218
1446.229	7432
1448.458	7312
1450.687	7170
1452.916	7356
1455.146	7278
1457.372	7333
1459.599	7396
1461.824	7327
1464.051	7424
1466.277	7305
1468.501	7314
1470.725	7204
1472.948	7242
1475.17	7086
1477.393	7088
1479.614	7122
1481.837	7101
1484.057	7091
1486.276	7015
1488.497	7025
1490.715	7075
1492.932	7045
1495.148	7011
1497.364	6849
1499.58	6902
1501.798	6975
1504.012	6998
1506.227	7004
1508.44	6891
1510.653	6985
1512.866	6920
1515.078	6890
1517.289	6833
1519.5	6864
1521.711	6881
1523.92	7010
1526.13	6961
1528.338	6986
1530.544	6796
1532.752	6905
1534.959	6825
1537.165	6967
1539.371	6900
1541.574	6930
1543.779	7043
1545.983	6918
1548.187	7001
1550.39	6895
1552.59	7028
1554.792	7059
1556.991	6929
1559.19	7083
1561.392	7049
1563.59	7074
1565.789	7103
1567.986	6974
1570.182	7003
1572.381	7153
1574.576	6937
1576.771	7049
1578.966	7204
1581.16	7017
1583.354	7069
1585.546	6993
1587.74	7184
1589.931	7108
1592.121	7201
1594.311	7133
1596.502	7082
1598.693	7210
1600.881	7063
1603.069	7234
1605.256	7346
1607.445	7249
1609.631	7189
1611.816	7310
1614.001	7137
1616.186	7035
1618.37	7207
1620.555	7128
1622.737	7286
1624.919	7291
1627.101	7188
1629.282	7190
1631.463	7286
1633.643	7293
1635.822	7217
1638.001	7250
1640.179	7161
1642.359	7113
1644.534	7238
1646.711	7251
1648.887	7326
1651.062	7387
1653.235	7219
1655.412	7312
1657.586	7354
1659.757	7295
1661.93	7281
1664.1	7355
1666.274	7334
1668.445	7386
1670.614	7409
1672.784	7428
1674.951	7370
1677.12	7343
1679.289	7412
1681.457	7301
1683.622	7323
1685.789	7405
1687.953	7449
1690.121	7241
1692.284	7157
1694.447	7255
1696.611	7273
1698.772	7225
1700.935	7284
1703.098	7209
1705.258	7224
1707.417	7179
1709.576	7238
1711.736	7046
1713.896	7091
1716.053	7112
1718.21	7239
1720.366	7089
1722.522	7039
1724.68	7134
1726.835	7099
1728.989	7169
1731.142	7151
1733.295	7157
1735.449	7175
1737.601	7053
1739.753	7134
1741.903	7122
1744.054	7138
1746.203	7138
1748.354	7032
1750.503	7206
1752.651	7153
1754.798	7174
1756.944	7252
1759.092	7091
1761.238	7092
1763.383	7142
1765.528	7176
1767.672	7049
1769.814	7028
1771.959	7266
1774.102	7116
1776.242	7142
1778.384	7117
1780.525	7108
1782.665	7033
1784.805	7114
1786.945	7205
1789.082	7197
1791.22	7327
1793.36	7237
1795.495	7160
1797.632	7064
1799.766	7168
1801.902	7125
1804.035	7235
1806.172	6903
1808.304	7193
1810.436	7145
1812.569	7088
1814.699	7219
1816.833	7073
1818.963	7140
1821.092	7106
1823.222	7133
1825.35	7140
1827.478	7097
1829.608	7082
1831.734	7017
1833.86	7130
1835.986	7082
1838.11	7074
1840.238	7089
1842.362	7041
1844.485	7174
1846.608	7191
1848.73	7015
1850.853	7199
1852.974	6983
1855.097	7017
1857.217	7078
1859.336	7077
1861.455	7017
1863.576	7060
1865.693	7059
1867.811	7122
1869.926	7086
1872.042	7081
1874.16	7049
1876.275	7141
1878.39	7064
1880.504	7137
1882.618	7059
1884.731	7086
1886.843	7048
1888.956	7212
1891.067	7031
1893.178	7060
1895.287	7067
1897.399	7156
1899.508	7024
1901.617	7119
1903.724	6991
1905.832	7195
1907.941	7143
1910.046	7119
1912.152	7166
1914.256	7154
1916.361	7135
1918.464	7101
1920.57	7092
1922.672	7227
1924.775	7181
1926.876	7044
1928.978	7234
1931.08	7115
1933.181	7158
1935.28	7318
1937.38	7086
1939.478	7194
1941.577	7160
1943.675	7242
1945.771	7202
1947.867	7180
1949.964	7171
1952.058	7149
1954.154	7121
1956.248	7174
1958.343	7215
1960.435	7102
1962.527	7301
1964.62	7064
1966.711	7228
1968.802	7089
1970.892	7149
1972.983	7171
1975.072	7098
1977.162	7123
1979.25	7088
1981.337	6997
1983.424	7078
1985.51	7169
1987.598	7228
1989.683	7069
1991.768	7221
1993.852	7110
1995.934	7219
1998.019	7009
2000.102	7057
2002.184	7053
2004.266	7181
2006.347	6965
2008.427	7104
2010.508	7119
2012.587	7208
2014.666	7046
2016.745	7106
2018.821	7090
2020.9	7038
2022.977	7080
2025.052	7078
2027.128	7230
2029.204	7103
2031.277	7079
2033.353	7078
2035.425	7051
2037.499	6981
2039.57	7070
2041.642	7166
2043.714	7104
2045.786	7005
2047.855	7050
2049.925	7037
2051.993	7086
2054.064	7057
2056.132	7033
2058.2	7136
2060.266	7073
2062.332	7048
2064.398	7171
2066.465	7090
2068.529	7116
2070.592	6984
2072.657	7068
2074.719	7117
2076.783	7004
2078.845	7125
2080.907	7082
2082.968	7042
2085.028	6984
2087.087	7068
2089.148	7072
2091.207	7004
2093.264	7079
2095.322	7138
2097.379	7077
2099.439	7101
2101.495	6947
2103.55	7058
2105.605	7023
2107.658	7013
2109.713	7189
2111.767	7003
2113.82	7109
2115.872	7032
2117.924	7151
2119.975	7091
2122.028	7048
2124.078	7049
2126.126	7167
2128.176	6973
2130.225	7005
2132.275	7022
2134.321	7119
2136.368	6953
2138.415	7019
2140.461	7041
2142.505	7076
2144.552	7003
2146.597	6996
2148.64	7121
2150.684	6928
2152.725	7086
2154.77	7005
2156.811	7045
2158.852	6927
2160.894	6912
2162.933	6992
2164.973	7206
2167.013	6961
2169.051	6957
2171.089	6940
2173.126	7032
2175.164	7008
2177.201	6940
2179.236	6893
2181.273	6942
2183.307	6945
2185.341	7047
2187.377	6890
2189.41	6930
2191.442	6886
2193.473	6890
2195.506	6903
2197.539	6917
2199.569	6989
2201.598	6865
2203.628	6899
2205.656	6792
2207.686	7008
2209.716	7032
2211.743	6838
2213.769	6906
2215.796	6906
2217.821	6822
2219.848	6837
2221.873	6845
2223.897	6872
2225.921	6779
2227.944	6841
2229.967	6831
2231.991	6796
2234.011	6859
2236.032	6870
2238.053	6687
2240.073	6915
2242.094	6832
2244.114	6815
2246.131	6841
2248.149	6885
2250.167	6809
2252.186	6789
2254.201	6783
2256.218	6774
2258.233	6794
2260.247	6782
2262.262	6870
2264.278	6892
2266.29	6834
2268.303	6734
2270.315	6839
2272.327	6822
2274.341	6925
2276.35	6826
2278.361	6785
2280.37	6810
2282.38	6774
2284.388	6730
2286.397	6803
2288.405	6762
2290.412	6860
2292.419	6766
2294.425	6830
2296.431	6808
2298.437	6727
2300.441	6833
2302.445	6759
2304.449	6720
2306.453	6767
2308.455	6816
2310.457	6725
2312.459	6827
2314.46	6773
2316.46	6752
2318.461	6765
2320.46	6744
2322.458	6794
2324.458	6647
2326.456	6831
2328.455	6694
2330.451	6771
2332.447	6762
2334.443	6772
2336.438	6739
2338.433	6735
2340.429	6687
2342.422	6727
2344.416	6670
2346.408	6782
2348.399	6617
2350.393	6632
2352.384	6741
2354.375	6665
2356.365	6656
2358.355	6621
2360.344	6746
2362.333	6594
2364.322	6630
2366.309	6675
2368.295	6646
2370.282	6533
2372.27	6642
2374.256	6651
2376.24	6674
2378.225	6606
2380.208	6646
2382.194	6494
2384.177	6698
2386.159	6589
2388.142	6550
2390.122	6458
2392.105	6587
2394.085	6517
2396.066	6510
2398.044	6476
2400.024	6616
2402.002	6488
2403.982	6493
2405.959	6574
2407.935	6479
2409.913	6583
2411.888	6465
2413.865	6556
2415.84	6527
2417.814	6607
2419.788	6577
2421.762	6593
2423.735	6527
2425.708	6472
2427.68	6532
2429.651	6522
2431.623	6571
2433.593	6578
2435.564	6501
2437.533	6497
2439.502	6486
2441.47	6439
2443.438	6540
2445.406	6531
2447.373	6531
2449.34	6547
2451.305	6579
2453.271	6480
2455.235	6609
2457.201	6582
2459.165	6519
2461.129	6396
2463.092	6526
2465.054	6481
2467.018	6554
2468.978	6450
2470.939	6561
2472.899	6460
2474.86	6458
2476.819	6423
2478.778	6465
2480.737	6522
2482.695	6400
2484.653	6384
2486.609	6440
2488.567	6425
2490.524	6413
2492.478	6374
2494.433	6458
2496.387	6485
2498.343	6344
2500.297	6357
2502.249	6421
2504.202	6303
2506.153	6482
2508.105	6505
2510.057	6412
2512.008	6320
2513.957	6364
2515.906	6299
2517.855	6356
2519.805	6309
2521.754	6331
2523.7	6420
2525.647	6486
2527.594	6479
2529.54	6364
2531.486	6390
2533.431	6448
2535.376	6352
2537.32	6389
2539.263	6331
2541.207	6429
2543.151	6336
2545.093	6312
2547.034	6414
2548.975	6315
2550.917	6297
2552.856	6471
2554.796	6425
2556.735	6444
2558.673	6410
2560.611	6400
2562.55	6334
2564.487	6296
2566.424	6406
2568.36	6409
2570.296	6233
2572.232	6374
2574.167	6369
2576.101	6312
2578.035	6452
2579.969	6271
2581.902	6289
2583.834	6367
2585.766	6462
2587.698	6322
2589.628	6476
2591.557	6311
2593.489	6419
2595.419	6383
2597.348	6275
2599.275	6330
2601.204	6194
2603.131	6383
2605.059	6391
2606.986	6332
2608.911	6310
2610.837	6293
2612.76	6369
2614.687	6359
2616.61	6339
2618.534	6359
2620.457	6339
2622.38	6305
2624.302	6318
2626.225	6291
2628.145	6342
2630.067	6375
2631.986	6350
2633.906	6419
2635.827	6382
2637.745	6252
2639.662	6319
2641.581	6373
2643.498	6373
2645.415	6284
2647.331	6366
2649.248	6339
2651.163	6326
2653.077	6310
2654.993	6334
2656.906	6416
2658.821	6361
2660.733	6261
2662.646	6356
2664.557	6365
2666.47	6356
2668.381	6260
2670.291	6284
2672.201	6347
2674.11	6357
2676.021	6335
2677.929	6294
2679.837	6182
2681.745	6290
2683.652	6359
2685.56	6218
2687.466	6300
2689.371	6258
2691.276	6293
2693.181	6158
2695.085	6158
2696.991	6257
2698.893	6261
2700.796	6248
2702.698	6167
2704.601	6298
2706.502	6273
2708.404	6194
2710.304	6286
2712.203	6262
2714.103	6114
2716.003	6145
2717.902	6127
2719.8	6195
2721.697	6193
2723.594	6172
2725.49	6195
2727.389	6185
2729.283	6173
2731.179	6195
2733.073	6152
2734.968	6245
2736.863	6131
2738.757	6309
2740.649	6147
2742.541	6075
2744.433	6215
2746.324	6191
2748.216	6163
2750.107	6138
2751.997	6150
2753.886	6099
2755.776	6021
2757.666	6120
2759.553	6120
2761.44	6104
2763.327	6165
2765.215	6185
2767.102	6149
2768.988	6239
2770.873	6094
2772.757	6192
2774.641	6109
2776.525	6165
2778.41	6023
2780.292	6059
2782.175	6169
2784.057	6125
2785.938	6013
2787.821	6054
2789.701	6180
2791.581	6074
2793.461	6102
2795.34	6080
2797.219	6091
2799.099	6116
2800.975	6152
2802.853	5964
2804.73	6150
2806.606	5957
2808.484	6110
2810.358	6130
2812.233	6047
2814.108	6081
2815.981	6057
2817.857	6119
2819.73	6058
2821.602	6017
2823.474	6139
2825.346	6063
2827.217	6039
2829.089	6149
2830.959	6067
2832.829	6053
2834.698	6031
2836.567	6102
2838.436	6087
2840.305	6153
2842.172	6115
2844.04	6123
2845.905	6018
2847.772	6017
2849.639	6207
2851.503	6129
2853.369	6116
2855.232	6124
2857.096	6206
2858.961	6341
2860.824	6133
2862.686	6126
2864.547	6324
2866.41	6288
2868.272	6432
2870.132	6396
2871.992	6552
2873.851	6534
2875.711	6618
2877.57	6649
2879.429	6677
2881.287	6691
2883.144	6656
2885.001	6730
2886.857	6827
2888.714	6894
2890.57	6791
2892.425	6803
2894.279	6811
2896.133	6791
2897.987	6797
2899.842	6774
2901.694	6700
2903.547	6766
2905.397	6777
2907.249	6774
2909.101	6650
2910.952	6765
2912.802	6775
2914.652	6775
2916.5	6846
2918.35	7021
2920.198	6966
2922.045	7084
2923.893	7056
2925.74	7206
2927.585	7213
2929.433	7260
2931.279	7462
2933.123	7472
2934.968	7457
2936.811	7426
2938.656	7505
2940.5	7606
2942.342	7707
2944.185	7780
2946.026	7608
2947.87	7740
2949.71	7781
2951.549	7698
2953.39	7587
2955.229	7592
2957.069	7515
2958.908	7408
2960.746	7482
2962.584	7265
2964.421	7374
2966.257	7306
2968.094	7139
2969.931	7127
2971.766	7146
2973.601	6965
2975.435	6912
2977.27	6929
2979.105	6828
2980.938	6935
2982.77	6806
2984.602	6729
2986.434	6795
2988.267	6690
2990.097	6603
2991.927	6682
2993.757	6314
2995.587	6482
2997.417	6590
2999.246	6435
3001.074	6412
3002.902	6341
3004.729	6289
3006.556	6306
3008.384	6009
3010.21	6020
3012.036	6082
3013.861	6072
3015.684	5985
3017.51	5984
3019.334	5969
3021.157	5806
3022.981	5819
3024.802	5895
3026.624	5802
3028.448	5761
3030.267	5723
3032.088	5764
3033.909	5831
3035.728	5810
3037.549	5652
3039.368	5720
3041.186	5731
3043.004	5603
3044.821	5764
3046.64	5624
3048.455	5654
3050.272	5638
3052.087	5722
3053.903	5624
3055.717	5639
3057.534	5704
3059.347	5774
3061.16	5670
3062.974	5656
3064.785	5710
3066.598	5692
3068.411	5617
3070.222	5639
3072.032	5546
3073.844	5604
3075.653	5653
3077.463	5640
3079.272	5641
3081.08	5592
3082.889	5615
3084.697	5590
3086.505	5553
3088.312	5523
3090.118	5550
3091.924	5525
3093.729	5486
3095.535	5512
3097.34	5507
3099.144	5454
3100.947	5511
3102.75	5536
3104.553	5500
3106.357	5534
3108.159	5482
3109.961	5355
3111.762	5491
3113.562	5427
3115.365	5335
3117.164	5476
3118.964	5429
3120.761	5506
3122.56	5404
3124.36	5387
3126.158	5486
3127.954	5381
3129.75	5436
3131.547	5380
3133.343	5437
3135.139	5353
3136.934	5458
3138.729	5463
3140.522	5373
3142.317	5452
3144.11	5318
3145.904	5381
3147.695	5391
3149.488	5370
3151.28	5302
3153.07	5339
3154.863	5328
3156.652	5351
3158.441	5354
3160.231	5343
3162.019	5309
3163.81	5337
3165.597	5376
3167.384	5423
3169.172	5369
3170.958	5258
3172.745	5275
3174.532	5293
3176.317	5276
3178.101	5240
3179.885	5209
3181.67	5245
3183.455	5294
3185.238	5231
3187.02	5229
3188.802	5247
3190.585	5228
3192.368	5235
3194.149	5191
3195.929	5261
3197.709	5251
3199.489	5304
3201.268	5229
3203.048	5315
3204.826	5152
3206.604	5274
3208.382	5266
3210.159	5139
3211.937	5268
3213.713	5350
3215.489	5243
3217.263	5141
3219.038	5221
3220.815	5280
3222.589	5217
3224.363	5150
3226.136	5178
3227.908	5242
3229.681	5232
3231.454	5191
3233.226	5283
3234.996	5151
3236.767	5262
3238.538	5292
3240.308	5117
3242.078	5169
3243.847	5299
3245.615	5144
3247.384	5152
3249.15	5213
3250.92	5155
3252.686	5238
3254.453	5229
3256.218	5190
3257.984	5269
3259.75	5187
3261.515	5262
3263.279	5271
3265.044	5277
3266.806	5193
3268.57	5270
3270.334	5294
3272.095	5320
3273.856	5200
3275.619	5175
3277.379	5211
3279.14	5159
3280.9	5197
3282.661	5235
3284.419	5377
3286.178	5238
3287.937	5111
3289.695	5096
3291.453	5281
3293.21	5192
3294.967	5202
3296.723	5248
3298.48	5256
3300.235	5259
3301.99	5252
3303.744	5131
3305.498	5223
3307.253	5160
3309.006	5243
3310.759	5249
3312.511	5220
3314.263	5249
3316.017	5228
3317.768	5249
3319.519	5220
3321.268	5155
3323.018	5217
3324.767	5280
3326.518	5237
3328.267	5206
3330.014	5302
3331.762	5239
3333.509	5236
3335.258	5128
3337.003	5220
3338.75	5331
3340.496	5204
3342.24	5248
3343.987	5223
3345.732	5204
3347.475	5173
3349.219	5116
3350.961	5173
3352.705	5118
3354.448	5175
3356.19	5178
3357.931	5071
3359.672	5213
3361.412	5067
3363.155	4995
3364.894	5124
3366.633	5172
3368.372	5025
3370.11	5149
3371.849	5077
3373.588	5096
3375.325	5117
3377.061	5090
3378.799	5095
3380.534	5176
3382.271	5000
3384.006	5103
3385.741	5018
3387.475	5077
3389.209	5027
3390.944	5040
3392.677	5034
3394.409	4924
3396.143	5019
3397.874	4964
3399.606	4975
3401.338	4974
3403.069	4966
3404.799	4882
3406.528	5084
3408.258	4966
3409.988	4959
3411.717	4964
3413.445	5033
3415.173	4940
3416.899	4896
3418.626	4946
3420.354	4828
3422.08	4856
3423.806	5037
3425.531	4934
3427.255	4974
3428.981	4905
3430.705	4868
3432.429	4976
3434.151	4899
3435.875	4926
3437.599	4815
3439.321	4865
3441.042	4958
3442.763	4831
3444.483	4744
3446.204	4868
3447.926	4917
3449.645	4851
3451.364	4857
3453.082	4835
3454.801	4826
3456.52	4856
3458.238	4762
3459.954	4823
3461.671	4806
3463.387	4816
3465.104	4752
3466.82	4847
3468.534	4739
3470.25	4745
3471.963	4673
3473.676	4623
3475.392	4718
3477.104	4695
3478.817	4718
3480.528	4737
3482.241	4756
3483.954	4703
3485.664	4682
3487.374	4627
3489.084	4697
3490.795	4688
3492.504	4626
3494.214	4519
3495.922	4690
3497.63	4716
3499.338	4664
3501.045	4616
3502.753	4583
3504.459	4589
3506.166	4670
3507.871	4719
3509.576	4611
3511.283	4612
3512.987	4669
3514.691	4553
3516.395	4467
3518.098	4610
3519.8	4522
3521.504	4533
3523.206	4494
3524.908	4563
3526.609	4411
3528.309	4540
3530.011	4551
3531.711	4521
3533.411	4435
3535.109	4457
3536.808	4468
3538.507	4499
3540.206	4500
3541.904	4490
3543.601	4523
3545.297	4426
3546.994	4464
3548.69	4488
3550.387	4436
3552.081	4497
3553.776	4451
3555.47	4427
3557.166	4467
3558.859	4451
3560.553	4372
3562.245	4387
3563.938	4545
3565.629	4403
3567.322	4436
3569.014	4465
3570.704	4336
3572.394	4455
3574.084	4387
3575.775	4478
3577.464	4401
3579.152	4410
3580.842	4384
3582.529	4317
3584.216	4366
3585.905	4366
3587.591	4310
3589.279	4409
3590.964	4351
3592.649	4350
3594.336	4190
3596.021	4293
3597.705	4272
3599.388	4303
3601.072	4229
3602.757	4338
3604.439	4218
3606.122	4216
3607.803	4229
3609.485	4316
3611.167	4248
3612.849	4214
3614.529	4158
3616.208	4248
3617.888	4214
3619.567	4242
3621.247	4241
3622.926	4246
3624.603	4309
3626.281	4187
3627.958	4122
3629.635	4103
3631.312	4202
3632.989	4172
3634.665	4129
3636.339	4095
3638.014	4155
3639.691	4109
3641.364	4177
3643.038	4197
3644.71	4047
3646.384	4057
3648.058	4073
3649.729	4099
3651.402	3993
3653.073	4046
3654.744	4168
3656.414	4061
3658.085	4016
3659.755	4121
3661.424	4070
3663.094	4079
3664.762	4012
3666.431	4066
3668.099	4082
3669.766	4050
3671.433	4064
3673.099	3992
3674.768	4014
3676.433	4038
3678.098	4131
3679.763	3938
3681.428	3983
3683.093	4011
3684.757	4035
3686.421	3975
3688.083	4011
3689.746	3990
3691.408	3977
3693.071	3928
3694.733	3852
3696.394	3972
3698.054	3974
3699.715	3964
3701.375	3935
3703.036	4032
3704.695	4004
3706.354	3951
3708.012	3945
3709.67	3974
3711.329	3962
3712.987	3949
3714.644	3994
3716.299	3901
3717.955	3816
3719.613	3898
3721.268	3849
3722.923	3936
3724.577	3913
3726.231	3876
3727.885	3920
3729.539	3940
3731.192	3834
3732.845	3968
3734.497	3859
3736.149	3824
3737.802	3950
3739.453	3897
3741.104	3822
3742.753	3845
3744.404	3880
3746.052	3880
3747.704	3893
3749.352	3855
3751	3825
3752.648	3808
3754.296	3793
3755.944	3890
3757.59	3798
3759.238	3940
3760.883	3770
3762.528	3871
3764.176	3848
3765.82	3842
3767.464	3882
3769.109	3815
3770.753	3745
3772.396	3769
3774.04	3807
3775.683	3735
3777.325	3738
3778.967	3787
3780.608	3810
3782.25	3831
3783.89	3715
3785.531	3816
3787.17	3821
3788.81	3814
3790.45	3747
3792.09	3803
3793.729	3765
3795.366	3768
3797.003	3793
3798.64	3603
3800.278	3788
3801.915	3828
3803.551	3797
3805.187	3732
3806.822	3698
3808.458	3690
3810.093	3635
3811.726	3703
3813.36	3742
3814.994	3719
3816.627	3674
3818.262	3667
3819.893	3671
3821.525	3593
3823.157	3715
3824.787	3607
3826.42	3689
3828.051	3738
3829.68	3654
3831.31	3705
3832.938	3622
3834.569	3605
3836.198	3606
3837.825	3723
3839.454	3689
3841.08	3607
3842.708	3694
3844.335	3635
3845.962	3611
3847.587	3629
3849.212	3682
3850.838	3683
3852.463	3675
3854.089	3610
3855.712	3579
3857.335	3649
3858.959	3641
3860.582	3655
3862.205	3632
3863.827	3574
3865.449	3703
3867.07	3558
3868.691	3607
3870.312	3641
3871.933	3606
3873.553	3622
3875.173	3511
3876.792	3530
3878.411	3598
3880.03	3516
3881.647	3552
3883.265	3629
3884.882	3621
3886.499	3555
3888.116	3489
3889.732	3551
3891.348	3616
3892.964	3544
3894.579	3545
3896.195	3599
3897.809	3506
3899.423	3526
3901.036	3492
3902.648	3579
3904.261	3537
3905.875	3512
3907.487	3583
3909.099	3464
3910.709	3518
3912.321	3515
3913.933	3588
3915.542	3504
3917.152	3463
3918.762	3552
3920.37	3461
3921.98	3521
3923.589	3563
3925.196	3557
3926.804	3447
3928.41	3506
3930.018	3433
3931.626	3550
3933.231	3462
3934.838	3548
3936.442	3488
3938.046	3389
3939.653	3539
3941.257	3415
3942.861	3463
3944.464	3542
3946.068	3425
3947.67	3410
3949.273	3410
3950.876	3448
3952.477	3498
3954.078	3437
3955.678	3455
3957.281	3381
3958.881	3375
3960.48	3444
3962.079	3418
3963.678	3365
3965.279	3399
3966.877	3327
3968.475	3463
3970.072	3360
3971.669	3381
3973.266	3352
3974.864	3448
3976.459	3446
3978.055	3376
3979.65	3371
3981.245	3345
3982.841	3380
3984.436	3384
3986.03	3362
3987.623	3367
3989.216	3286
3990.809	3268
3992.403	3305
3993.995	3353
3995.586	3304
3997.177	3289
3998.768	3326
4000.361	3325
4001.951	3316
4003.54	3268
4005.13	3260
4006.719	3222
4008.31	3311
4009.897	3314
4011.485	3259
4013.073	3273
4014.66	3359
4016.247	3200
4017.834	3252
4019.421	3295
4021.006	3260
4022.592	3245
4024.178	3192
4025.763	3256
4027.348	3225
4028.932	3285
4030.515	3156
4032.099	3214
4033.682	3245
4035.266	3193
4036.847	3267
4038.429	3237
4040.011	3220
4041.592	3131
4043.173	3161
4044.755	3165
4046.334	3141
4047.913	3232
4049.494	3192
4051.074	3138
4052.652	3152
4054.23	3105
4055.807	3200
4057.385	3297
4058.963	3195
4060.541	3145
4062.117	3243
4063.693	3119
4065.269	3220
4066.844	3183
4068.42	3136
4069.995	3130
4071.569	3149
4073.143	3166
4074.716	3117
4076.291	3176
4077.864	3114
4079.436	3153
4081.009	3165
4082.58	3092
4084.152	3182
4085.723	3200
4087.294	3149
4088.865	3106
4090.435	3039
4092.005	3101
4093.574	3141
4095.143	3116
4096.712	3123
4098.279	3122
4099.848	3094
4101.416	3160
4102.984	3104
4104.55	3056
4106.117	3103
4107.682	3078
4109.248	3017
4110.815	3119
4112.379	3075
4113.945	3088
4115.508	3025
4117.073	3010
4118.637	3088
4120.201	3111
4121.763	3090
4123.325	3045
4124.888	3061
4126.449	3012
4128.013	3053
4129.573	3007
4131.133	3027
4132.694	2966
4134.254	3029
4135.814	3008
4137.374	3039
4138.933	3006
4140.491	2976
4142.049	3029
4143.607	2995
4145.167	3020
4146.724	2969
4148.28	2981
4149.836	3002
4151.392	2995
4152.949	3035
4154.504	2938
4156.059	2936
4157.614	2943
4159.168	2935
4160.723	2930
4162.277	2964
4163.83	2941
4165.383	2940
4166.936	2976
4168.488	2936
4170.041	2863
4171.593	2990
4173.144	2899
4174.695	2929
4176.246	2873
4177.796	2930
4179.346	2878
4180.896	2884
4182.445	2982
4183.994	2874
4185.542	2889
4187.091	3001
4188.639	2850
4190.185	2874
4191.732	2894
4193.279	2898
4194.826	2905
4196.373	2911
4197.918	2925
4199.463	2805
4201.008	2908
4202.553	2879
4204.098	2842
4205.641	2881
4207.185	2779
4208.728	2927
4210.271	2825
4211.814	2860
4213.357	2871
4214.898	2766
4216.439	2786
4217.98	2793
4219.522	2910
4221.062	2841
4222.603	2755
4224.142	2791
4225.681	2848
4227.222	2870
4228.76	2814
4230.298	2873
4231.835	2826
4233.373	2837
4234.911	2801
4236.449	2768
4237.985	2825
4239.521	2766
4241.057	2842
4242.592	2703
4244.128	2835
4245.663	2804
4247.197	2826
4248.731	2776
4250.265	2754
4251.798	2821
4253.333	2769
4254.865	2744
4256.397	2772
4257.93	2816
4259.461	2819
4260.994	2745
4262.525	2805
4264.056	2738
4265.586	2774
4267.115	2800
4268.646	2743
4270.176	2748
4271.705	2749
4273.232	2705
4274.761	2750
4276.289	2773
4277.818	2765
4279.345	2747
4280.872	2731
4282.399	2680
4283.924	2749
4285.452	2769
4286.976	2795
4288.502	2721
4290.026	2754
4291.551	2677
4293.074	2729
4294.6	2729
4296.123	2666
4297.646	2675
4299.168	2628
4300.691	2690
4302.214	2715
4303.736	2659
4305.257	2685
4306.778	2622
4308.299	2653
4309.82	2701
4311.34	2687
4312.86	2665
4314.379	2661
