400.0745	4615
402.597	4662
405.1208	4615
407.6419	4640
410.1623	4627
412.6819	4687
415.201	4659
417.7172	4646
420.2369	4661
422.7538	4728
425.2701	4871
427.7856	4772
430.3005	4851
432.8147	4877
435.3282	4858
437.841	4851
440.3511	4814
442.8625	4884
445.3753	4883
447.8854	4911
450.3927	4886
452.9014	4890
455.4073	4921
457.9146	4982
460.4233	4979
462.9272	4947
465.4325	4996
467.935	4944
470.4389	4972
472.9421	4970
475.4446	5056
477.9444	4974
480.4456	4988
482.944	5090
485.4417	5091
487.9429	5089
490.4393	5155
492.935	5140
495.4321	5109
497.9264	5093
500.4221	5096
502.9171	5211
505.4094	5177
507.9011	5133
510.392	5220
512.8864	5261
515.3759	5104
517.8649	5092
520.3531	5196
522.8406	5223
525.3275	5289
527.8178	5328
530.3033	5294
532.7881	5234
535.2723	5112
537.7558	5212
540.2407	5220
542.7228	5222
545.2043	5205
547.6851	5160
550.1652	5261
552.6467	5189
555.1255	5213
557.6016	5292
560.079	5243
562.5557	5298
565.0318	5370
567.5092	5255
569.984	5369
572.456	5344
574.9294	5286
577.4022	5425
579.8762	5346
582.3456	5368
584.8163	5370
587.2863	5356
589.7557	5433
592.2224	5375
594.6924	5477
597.1578	5443
599.6245	5453
602.0905	5399
604.5538	5394
607.0206	5470
609.4825	5312
611.9459	5435
614.4066	5375
616.8686	5399
619.33	5389
621.7906	5356
624.2487	5494
626.708	5389
629.1647	5423
631.6207	5343
634.0801	5393
636.5348	5387
638.9888	5358
641.4442	5531
643.8969	5482
646.3509	5441
648.8022	5472
651.255	5443
653.705	5489
656.1544	5515
658.6031	5565
661.0532	5467
663.5026	5616
665.9493	5447
668.3954	5597
670.8409	5510
673.2877	5586
675.7318	5547
678.1752	5652
680.618	5517
683.0601	5620
685.5035	5606
687.9444	5595
690.3845	5623
692.824	5683
695.2628	5581
697.701	5625
700.1406	5607
702.5774	5662
705.0116	5573
707.4472	5629
709.8821	5667
712.3183	5728
714.7519	5648
717.1829	5781
719.6151	5835
722.0468	5715
724.4777	5712
726.908	5915
729.3377	5734
731.7667	5788
734.1931	5842
736.6208	5839
739.0498	5988
741.4742	5864
743.9	5841
746.3231	5867
748.7476	5961
751.1713	5827
753.5945	5948
756.015	6050
758.4368	6033
760.856	5987
763.2766	5963
765.6965	5995
768.1157	5987
770.5323	5999
772.9483	6016
775.3656	5978
777.7822	6025
780.1963	5932
782.6116	6023
785.0244	6087
787.4365	6164
789.8499	6110
792.2626	5999
794.6728	6055
797.0823	6055
799.4911	6079
801.8994	6024
804.3109	6064
806.7178	6141
809.124	6128
811.5297	6141
813.9347	6132
816.341	6203
818.7447	6090
821.1478	6096
823.5502	6142
825.952	6101
828.3531	6044
830.7556	6152
833.1554	6102
835.5546	6119
837.9532	6140
840.3511	6024
842.7504	6176
845.1451	6172
847.5411	6232
849.9365	6275
852.3312	6143
854.7272	6181
857.1187	6155
859.5115	6249
861.9037	6178
864.2952	6257
866.6842	6264
869.0764	6127
871.4661	6111
873.8531	6226
876.2415	6247
878.6272	6241
881.0162	6116
883.4026	6205
885.7866	6110
888.1717	6198
890.5543	6179
892.9382	6166
895.3215	6192
897.7041	6145
900.0842	6230
902.4655	6237
904.8443	6247
907.2244	6253
909.6039	6180
911.9808	6170
914.357	6244
916.7346	6330
919.1115	6375
921.4859	6307
923.8616	6330
926.2347	6335
928.6071	6485
930.979	6315
933.3541	6469
935.7247	6424
938.0946	6399
940.4639	6442
942.8326	6429
945.2026	6503
947.5701	6495
949.9369	6598
952.305	6657
954.6705	6754
957.0355	6793
959.4017	6886
961.7654	6856
964.1284	6885
966.4908	6849
968.8527	6839
971.2138	6679
973.5743	6546
975.9343	6591
978.2936	6382
980.6522	6454
983.0122	6410
985.3696	6428
987.7245	6524
990.0807	6463
992.4362	6341
994.7911	6561
997.1474	6277
999.4991	6340
1001.852	6381
1004.205	6479
1006.555	6379
1008.908	6328
1011.258	6486
1013.606	6421
1015.956	6387
1018.302	6314
1020.652	6452
1022.998	6456
1025.345	6436
1027.691	6418
1030.035	6395
1032.378	6513
1034.724	6550
1037.066	6475
1039.409	6399
1041.75	6498
1044.092	6501
1046.433	6400
1048.771	6492
1051.112	6494
1053.449	6607
1055.786	6556
1058.124	6456
1060.462	6517
1062.797	6453
1065.131	6530
1067.467	6499
1069.8	6461
1072.135	6432
1074.467	6567
1076.798	6631
1079.129	6543
1081.459	6566
1083.792	6674
1086.121	6578
1088.449	6555
1090.777	6567
1093.104	6550
1095.431	6557
1097.759	6539
1100.084	6582
1102.408	6564
1104.732	6591
1107.056	6573
1109.379	6596
1111.701	6609
1114.022	6680
1116.343	6636
1118.664	6532
1120.983	6677
1123.303	6556
1125.621	6649
1127.939	6583
1130.256	6676
1132.573	6604
1134.889	6716
1137.205	6629
1139.52	6651
1141.832	6560
1144.146	6643
1146.461	6626
1148.771	6732
1151.083	6597
1153.392	6692
1155.703	6574
1158.011	6733
1160.323	6723
1162.629	6783
1164.938	6699
1167.243	6652
1169.55	6711
1171.857	6633
1174.163	6617
1176.466	6487
1178.769	6683
1181.073	6670
1183.374	6587
1185.677	6609
1187.979	6644
1190.279	6626
1192.578	6650
1194.878	6670
1197.178	6606
1199.476	6609
1201.772	6743
1204.068	6674
1206.366	6684
1208.663	6637
1210.957	6746
1213.251	6640
1215.544	6760
1217.836	6725
1220.128	6668
1222.421	6648
1224.712	6777
1227.002	6718
1229.292	6705
1231.581	6863
1233.871	6688
1236.159	6762
1238.446	6657
1240.732	6757
1243.018	6855
1245.304	6834
1247.59	6803
1249.874	6937
1252.156	6748
1254.439	6822
1256.721	6906
1259.005	6857
1261.286	6870
1263.565	6792
1265.845	6834
1268.125	6915
1270.403	6901
1272.682	6820
1274.959	6913
1277.234	6744
1279.511	6930
1281.787	6771
1284.062	6822
1286.337	6742
1288.609	6855
1290.882	6723
1293.153	6826
1295.428	6739
1297.698	6850
1299.969	6700
1302.237	6735
1304.507	6817
1306.777	6872
1309.044	6750
1311.312	6716
1313.578	6821
1315.844	6804
1318.109	6869
1320.375	6707
1322.638	6873
1324.903	6820
1327.165	6730
1329.427	6867
1331.69	6651
1333.952	6797
1336.212	6781
1338.471	6848
1340.73	6810
1342.988	6817
1345.248	6834
1347.505	6830
1349.763	6800
1352.019	6832
1354.274	6763
1356.53	6826
1358.784	6733
1361.038	6761
1363.291	6855
1365.543	6751
1367.797	6853
1370.048	6922
1372.296	6879
1374.546	6819
1376.796	6862
1379.045	6694
1381.295	6901
1383.542	6861
1385.787	6712
1388.034	6755
1390.28	6822
1392.527	6848
1394.772	6810
1397.014	6922
1399.258	6779
1401.501	7009
1403.741	6904
1405.985	6908
1408.226	6931
1410.465	6780
1412.705	6811
1414.943	6919
1417.184	6871
1419.42	6911
1421.658	6819
1423.894	6960
1426.13	6960
1428.366	7068
1430.602	6924
1432.835	7039
1435.069	7016
1437.301	7132
1439.535	6968
1441.767	7047
1443.997	6875
1446.229	7041
1448.458	7036
1450.687	6953
1452.916	7087
1455.146	7017
1457.372	7104
1459.599	6962
1461.824	6866
1464.051	6876
1466.277	7018
1468.501	7074
1470.725	7076
1472.948	7010
1475.17	6947
1477.393	6880
1479.614	6916
1481.837	7019
1484.057	6961
1486.276	6839
1488.497	6923
1490.715	6865
1492.932	6843
1495.148	6824
1497.364	6880
1499.58	6852
1501.798	6877
1504.012	6712
1506.227	6862
1508.44	6969
1510.653	6848
1512.866	6841
1515.078	6756
1517.289	6938
1519.5	6789
1521.711	6765
1523.92	6846
1526.13	6865
1528.338	6831
1530.544	6871
1532.752	6804
1534.959	6874
1537.165	6896
1539.371	6829
1541.574	6879
1543.779	6905
1545.983	6933
1548.187	6921
1550.39	6868
1552.59	6892
1554.792	6856
1556.991	6862
1559.19	6891
1561.392	6924
1563.59	7040
1565.789	6976
1567.986	6924
1570.182	6980
1572.381	6844
1574.576	6963
1576.771	6895
1578.966	7014
1581.16	7011
1583.354	6952
1585.546	7033
1587.74	7109
1589.931	7139
1592.121	7119
1594.311	6851
1596.502	7140
1598.693	7039
1600.881	6940
1603.069	7010
1605.256	6974
1607.445	7065
1609.631	7109
1611.816	7021
1614.001	7057
1616.186	7021
1618.37	6999
1620.555	7001
1622.737	7140
1624.919	7007
1627.101	7110
1629.282	7011
1631.463	7177
1633.643	7089
1635.822	7040
1638.001	7104
1640.179	7018
1642.359	7149
1644.534	7086
1646.711	7055
1648.887	7015
1651.062	7073
1653.235	7039
1655.412	7047
1657.586	7111
1659.757	7145
1661.93	6931
1664.1	7089
1666.274	7157
1668.445	6975
1670.614	6969
1672.784	7111
1674.951	7048
1677.12	7155
1679.289	7130
1681.457	6974
1683.622	7126
1685.789	7021
1687.953	6976
1690.121	7253
1692.284	7019
1694.447	6945
1696.611	6994
1698.772	6991
1700.935	7035
1703.098	6974
1705.258	7087
1707.417	7051
1709.576	7105
1711.736	6965
1713.896	7122
1716.053	7105
1718.21	7186
1720.366	6990
1722.522	7100
1724.68	7052
1726.835	6943
1728.989	7063
1731.142	7015
1733.295	7013
1735.449	7077
1737.601	6936
1739.753	7045
1741.903	7170
1744.054	7057
1746.203	7127
1748.354	7076
1750.503	7104
1752.651	7225
1754.798	7104
1756.944	7172
1759.092	7106
1761.238	6997
1763.383	7192
1765.528	7183
1767.672	7065
1769.814	7146
1771.959	7076
1774.102	7090
1776.242	6961
1778.384	6985
1780.525	7159
1782.665	7097
1784.805	7100
1786.945	7054
1789.082	7092
1791.22	7178
1793.36	7064
1795.495	7145
1797.632	7202
1799.766	7168
1801.902	7155
1804.035	7182
1806.172	7104
1808.304	7127
1810.436	7090
1812.569	7132
1814.699	7130
1816.833	7175
1818.963	7038
1821.092	7182
1823.222	7083
1825.35	7171
1827.478	7161
1829.608	7198
1831.734	6967
1833.86	7140
1835.986	7013
1838.11	7046
1840.238	7178
1842.362	7056
1844.485	6981
1846.608	7053
1848.73	7066
1850.853	7112
1852.974	7106
1855.097	6966
1857.217	7087
1859.336	7040
1861.455	7084
1863.576	7132
1865.693	6999
1867.811	7018
1869.926	6979
1872.042	7114
1874.16	7195
1876.275	7010
1878.39	7023
1880.504	7062
1882.618	7114
1884.731	7041
1886.843	7034
1888.956	7183
1891.067	6996
1893.178	7095
1895.287	7113
1897.399	7066
1899.508	7129
1901.617	7196
1903.724	7126
1905.832	7108
1907.941	7283
1910.046	7037
1912.152	7063
1914.256	7105
1916.361	7107
1918.464	7110
1920.57	7092
1922.672	7173
1924.775	7151
1926.876	7261
1928.978	7281
1931.08	7166
1933.181	7201
1935.28	7137
1937.38	7164
1939.478	7213
1941.577	7111
1943.675	7237
1945.771	7157
1947.867	7157
1949.964	7162
1952.058	7229
1954.154	7235
1956.248	7143
1958.343	7077
1960.435	7211
1962.527	7162
1964.62	7193
1966.711	7211
1968.802	7150
1970.892	7172
1972.983	7093
1975.072	7104
1977.162	7120
1979.25	7158
1981.337	7210
1983.424	7111
1985.51	7140
1987.598	7059
1989.683	7143
1991.768	6995
1993.852	7102
1995.934	7101
1998.019	7124
2000.102	7137
2002.184	7082
2004.266	7097
2006.347	7147
2008.427	7091
2010.508	7149
2012.587	7020
2014.666	7188
2016.745	7045
2018.821	7076
2020.9	7094
2022.977	7045
2025.052	7045
2027.128	7020
2029.204	6968
2031.277	7010
2033.353	7050
2035.425	7129
2037.499	7030
2039.57	7145
2041.642	7072
2043.714	7037
2045.786	7014
2047.855	7107
2049.925	7045
2051.993	7108
2054.064	7066
2056.132	7037
2058.2	7151
2060.266	7007
2062.332	7037
2064.398	7100
2066.465	7107
2068.529	7102
2070.592	6993
2072.657	7112
2074.719	7008
2076.783	7055
2078.845	7108
2080.907	7092
2082.968	7040
2085.028	7001
2087.087	6998
2089.148	7022
2091.207	7072
2093.264	7052
2095.322	7238
2097.379	7142
2099.439	7095
2101.495	7102
2103.55	7056
2105.605	7125
2107.658	7099
2109.713	7149
2111.767	7003
2113.82	7088
2115.872	7129
2117.924	6995
2119.975	7109
2122.028	7008
2124.078	7055
2126.126	7103
2128.176	6984
2130.225	7064
2132.275	7006
2134.321	7021
2136.368	7080
2138.415	7040
2140.461	6998
2142.505	7024
2144.552	7030
2146.597	6975
2148.64	7055
2150.684	7055
2152.725	7041
2154.77	6945
2156.811	7111
2158.852	7046
2160.894	6864
2162.933	6934
2164.973	7069
2167.013	7028
2169.051	6876
2171.089	7024
2173.126	7063
2175.164	7081
2177.201	6953
2179.236	6865
2181.273	7027
2183.307	6929
2185.341	6927
2187.377	6841
2189.41	6989
2191.442	6882
2193.473	6927
2195.506	6951
2197.539	6850
2199.569	6918
2201.598	6841
2203.628	6800
2205.656	6765
2207.686	6744
2209.716	6908
2211.743	6858
2213.769	6895
2215.796	6822
2217.821	6856
2219.848	6988
2221.873	6884
2223.897	6827
2225.921	6889
2227.944	6768
2229.967	6777
2231.991	6735
2234.011	6964
2236.032	6785
2238.053	6923
2240.073	6921
2242.094	6703
2244.114	6941
2246.131	6853
2248.149	6823
2250.167	6749
2252.186	6722
2254.201	6813
2256.218	6878
2258.233	6814
2260.247	6830
2262.262	6935
2264.278	6829
2266.29	6896
2268.303	6766
2270.315	6789
2272.327	6733
2274.341	6787
2276.35	6843
2278.361	6849
2280.37	6888
2282.38	6870
2284.388	6849
2286.397	6742
2288.405	6762
2290.412	6854
2292.419	6868
2294.425	6844
2296.431	6858
2298.437	6750
2300.441	6814
2302.445	6791
2304.449	6714
2306.453	6854
2308.455	6856
2310.457	6830
2312.459	6744
2314.46	6732
2316.46	6733
2318.461	6736
2320.46	6768
2322.458	6744
2324.458	6745
2326.456	6574
2328.455	6712
2330.451	6863
2332.447	6611
2334.443	6748
2336.438	6770
2338.433	6664
2340.429	6764
2342.422	6726
2344.416	6762
2346.408	6715
2348.399	6652
2350.393	6695
2352.384	6687
2354.375	6722
2356.365	6592
2358.355	6621
2360.344	6661
2362.333	6659
2364.322	6677
2366.309	6685
2368.295	6677
2370.282	6538
2372.27	6658
2374.256	6547
2376.24	6598
2378.225	6646
2380.208	6632
2382.194	6676
2384.177	6630
2386.159	6617
2388.142	6567
2390.122	6592
2392.105	6706
2394.085	6557
2396.066	6592
2398.044	6541
2400.024	6557
2402.002	6621
2403.982	6469
2405.959	6608
2407.935	6484
2409.913	6502
2411.888	6522
2413.865	6588
2415.84	6529
2417.814	6514
2419.788	6683
2421.762	6463
2423.735	6534
2425.708	6529
2427.68	6562
2429.651	6517
2431.623	6556
2433.593	6619
2435.564	6598
2437.533	6592
2439.502	6521
2441.47	6457
2443.438	6618
2445.406	6651
2447.373	6502
2449.34	6546
2451.305	6526
2453.271	6405
2455.235	6540
2457.201	6565
2459.165	6440
2461.129	6444
2463.092	6530
2465.054	6556
2467.018	6556
2468.978	6525
2470.939	6563
2472.899	6620
2474.86	6623
2476.819	6367
2478.778	6576
2480.737	6588
2482.695	6384
2484.653	6416
2486.609	6539
2488.567	6475
2490.524	6486
2492.478	6392
2494.433	6387
2496.387	6416
2498.343	6435
2500.297	6346
2502.249	6407
2504.202	6483
2506.153	6425
2508.105	6423
2510.057	6476
2512.008	6320
2513.957	6434
2515.906	6465
2517.855	6417
2519.805	6397
2521.754	6445
2523.7	6432
2525.647	6332
2527.594	6494
2529.54	6345
2531.486	6302
2533.431	6329
2535.376	6400
2537.32	6379
2539.263	6384
2541.207	6366
2543.151	6305
2545.093	6458
2547.034	6384
2548.975	6380
2550.917	6414
2552.856	6264
2554.796	6429
2556.735	6373
2558.673	6426
2560.611	6431
2562.55	6396
2564.487	6284
2566.424	6377
2568.36	6411
2570.296	6362
2572.232	6401
2574.167	6392
2576.101	6266
2578.035	6335
2579.969	6349
2581.902	6294
2583.834	6404
2585.766	6439
2587.698	6337
2589.628	6386
2591.557	6409
2593.489	6373
2595.419	6414
2597.348	6379
2599.275	6384
2601.204	6312
2603.131	6366
2605.059	6349
2606.986	6429
2608.911	6257
2610.837	6377
2612.76	6322
2614.687	6452
2616.61	6381
2618.534	6300
2620.457	6325
2622.38	6389
2624.302	6258
2626.225	6326
2628.145	6439
2630.067	6402
2631.986	6395
2633.906	6303
2635.827	6443
2637.745	6458
2639.662	6284
2641.581	6419
2643.498	6320
2645.415	6260
2647.331	6368
2649.248	6322
2651.163	6255
2653.077	6318
2654.993	6287
2656.906	6325
2658.821	6363
2660.733	6272
2662.646	6335
2664.557	6366
2666.47	6258
2668.381	6155
2670.291	6327
2672.201	6267
2674.11	6414
2676.021	6357
2677.929	6398
2679.837	6251
2681.745	6187
2683.652	6237
2685.56	6188
2687.466	6230
2689.371	6267
2691.276	6301
2693.181	6267
2695.085	6282
2696.991	6327
2698.893	6318
2700.796	6128
2702.698	6314
2704.601	6260
2706.502	6150
2708.404	6188
2710.304	6284
2712.203	6175
2714.103	6211
2716.003	6293
2717.902	6152
2719.8	6161
2721.697	6149
2723.594	6159
2725.49	6200
2727.389	6239
2729.283	6209
2731.179	6164
2733.073	6178
2734.968	6207
2736.863	6209
2738.757	6138
2740.649	6132
2742.541	6150
2744.433	6220
2746.324	6125
2748.216	6161
2750.107	6152
2751.997	6095
2753.886	6123
2755.776	6181
2757.666	6181
2759.553	6177
2761.44	6170
2763.327	6128
2765.215	6074
2767.102	6083
2768.988	6098
2770.873	6104
2772.757	6028
2774.641	6107
2776.525	6122
2778.41	6107
2780.292	6086
2782.175	6046
2784.057	6138
2785.938	5975
2787.821	6157
2789.701	6154
2791.581	6115
2793.461	6050
2795.34	5992
2797.219	6065
2799.099	6021
2800.975	6027
2802.853	6024
2804.73	6101
2806.606	6045
2808.484	6214
2810.358	6058
2812.233	6021
2814.108	5994
2815.981	6154
2817.857	5953
2819.73	6080
2821.602	5965
2823.474	6083
2825.346	5984
2827.217	5960
2829.089	5988
2830.959	5982
2832.829	5995
2834.698	6013
2836.567	6060
2838.436	5991
2840.305	5959
2842.172	6045
2844.04	5931
2845.905	5965
2847.772	6023
2849.639	5981
2851.503	5877
2853.369	5915
2855.232	5999
2857.096	6029
2858.961	5978
2860.824	5899
2862.686	5999
2864.547	5949
2866.41	5936
2868.272	5908
2870.132	6018
2871.992	6017
2873.851	5966
2875.711	5951
2877.57	6081
2879.429	6099
2881.287	5963
2883.144	6125
2885.001	6006
2886.857	6168
2888.714	5933
2890.57	5995
2892.425	6023
2894.279	5999
2896.133	6181
2897.987	6022
2899.842	6063
2901.694	6029
2903.547	5984
2905.397	5985
2907.249	5970
2909.101	6068
2910.952	5949
2912.802	5969
2914.652	6010
2916.5	5949
2918.35	6038
2920.198	6139
2922.045	6033
2923.893	6023
2925.74	6024
2927.585	6045
2929.433	5989
2931.279	6148
2933.123	6164
2934.968	6041
2936.811	6096
2938.656	5995
2940.5	6092
2942.342	6207
2944.185	6011
2946.026	6188
2947.87	6221
2949.71	6231
2951.549	6081
2953.39	6134
2955.229	5954
2957.069	6007
2958.908	6022
2960.746	6126
2962.584	6089
2964.421	5917
2966.257	5978
2968.094	5958
2969.931	5942
2971.766	5885
2973.601	6004
2975.435	5818
2977.27	5905
2979.105	5870
2980.938	5862
2982.77	5879
2984.602	5885
2986.434	5906
2988.267	5910
2990.097	5843
2991.927	5853
2993.757	5850
2995.587	5842
2997.417	5791
2999.246	5722
3001.074	5859
3002.902	5769
3004.729	5795
3006.556	5691
3008.384	5761
3010.21	5716
3012.036	5784
3013.861	5675
3015.684	5805
3017.51	5745
3019.334	5643
3021.157	5699
3022.981	5636
3024.802	5629
3026.624	5594
3028.448	5705
3030.267	5620
3032.088	5703
3033.909	5556
3035.728	5597
3037.549	5606
3039.368	5586
3041.186	5623
3043.004	5477
3044.821	5587
3046.64	5587
3048.455	5552
3050.272	5492
3052.087	5540
3053.903	5478
3055.717	5557
3057.534	5651
3059.347	5553
3061.16	5428
3062.974	5531
3064.785	5504
3066.598	5596
3068.411	5538
3070.222	5438
3072.032	5515
3073.844	5503
3075.653	5485
3077.463	5504
3079.272	5506
3081.08	5509
3082.889	5460
3084.697	5461
3086.505	5438
3088.312	5452
3090.118	5345
3091.924	5477
3093.729	5387
3095.535	5433
3097.34	5457
3099.144	5396
3100.947	5475
3102.75	5481
3104.553	5371
3106.357	5415
3108.159	5338
3109.961	5355
3111.762	5379
3113.562	5398
3115.365	5289
3117.164	5389
3118.964	5417
3120.761	5286
3122.56	5300
3124.36	5477
3126.158	5349
3127.954	5281
3129.75	5381
3131.547	5317
3133.343	5233
3135.139	5297
3136.934	5247
3138.729	5246
3140.522	5250
3142.317	5292
3144.11	5264
3145.904	5236
3147.695	5262
3149.488	5255
3151.28	5217
3153.07	5240
3154.863	5266
3156.652	5248
3158.441	5179
3160.231	5113
3162.019	5251
3163.81	5290
3165.597	5207
3167.384	5311
3169.172	5170
3170.958	5138
3172.745	5213
3174.532	5205
3176.317	5079
3178.101	5197
3179.885	5166
3181.67	5118
3183.455	5159
3185.238	5246
3187.02	5161
3188.802	5120
3190.585	5104
3192.368	5099
3194.149	5050
3195.929	5176
3197.709	5107
3199.489	5177
3201.268	5097
3203.048	5141
3204.826	5102
3206.604	4959
3208.382	5063
3210.159	5051
3211.937	5082
3213.713	5107
3215.489	4959
3217.263	5026
3219.038	5079
3220.815	5042
3222.589	5041
3224.363	5095
3226.136	5132
3227.908	5059
3229.681	5156
3231.454	5076
3233.226	4986
3234.996	5115
3236.767	5089
3238.538	5101
3240.308	5031
3242.078	5057
3243.847	5103
3245.615	4981
3247.384	4945
3249.15	5041
3250.92	5020
3252.686	4933
3254.453	5075
3256.218	5066
3257.984	5053
3259.75	5051
3261.515	5055
3263.279	4949
3265.044	4999
3266.806	5027
3268.57	5026
3270.334	4998
3272.095	5093
3273.856	5020
3275.619	5021
3277.379	4978
3279.14	4996
3280.9	5015
3282.661	4907
3284.419	4888
3286.178	5066
3287.937	4939
3289.695	4941
3291.453	4893
3293.21	4985
3294.967	4951
3296.723	4937
3298.48	4959
3300.235	4967
3301.99	4970
3303.744	4980
3305.498	5023
3307.253	4964
3309.006	4985
3310.759	4896
3312.511	4950
3314.263	4918
3316.017	4971
3317.768	4945
3319.519	4949
3321.268	4916
3323.018	4903
3324.767	5035
3326.518	5015
3328.267	4873
3330.014	5001
3331.762	4840
3333.509	4990
3335.258	4958
3337.003	4887
3338.75	4864
3340.496	4899
3342.24	4887
3343.987	4970
3345.732	4843
3347.475	4758
3349.219	4852
3350.961	4929
3352.705	4941
3354.448	4810
3356.19	4813
3357.931	4738
3359.672	4853
3361.412	4851
3363.155	4801
3364.894	4885
3366.633	4889
3368.372	4844
3370.11	4868
3371.849	4862
3373.588	4842
3375.325	4831
3377.061	4775
3378.799	4776
3380.534	4860
3382.271	4805
3384.006	4779
3385.741	4860
3387.475	4829
3389.209	4883
3390.944	4828
3392.677	4783
3394.409	4821
3396.143	4721
3397.874	4842
3399.606	4715
3401.338	4865
3403.069	4769
3404.799	4694
3406.528	4639
3408.258	4757
3409.988	4779
3411.717	4706
3413.445	4708
3415.173	4700
3416.899	4779
3418.626	4785
3420.354	4664
3422.08	4772
3423.806	4642
3425.531	4739
3427.255	4639
3428.981	4704
3430.705	4637
3432.429	4647
3434.151	4716
3435.875	4675
3437.599	4693
3439.321	4642
3441.042	4694
3442.763	4758
3444.483	4593
3446.204	4703
3447.926	4671
3449.645	4624
3451.364	4553
3453.082	4623
3454.801	4624
3456.52	4636
3458.238	4595
3459.954	4570
3461.671	4640
3463.387	4688
3465.104	4620
3466.82	4535
3468.534	4622
3470.25	4546
3471.963	4625
3473.676	4564
3475.392	4633
3477.104	4551
3478.817	4538
3480.528	4623
3482.241	4437
3483.954	4553
3485.664	4584
3487.374	4377
3489.084	4537
3490.795	4502
3492.504	4580
3494.214	4508
3495.922	4522
3497.63	4481
3499.338	4490
3501.045	4516
3502.753	4410
3504.459	4616
3506.166	4427
3507.871	4546
3509.576	4448
3511.283	4515
3512.987	4476
3514.691	4515
3516.395	4447
3518.098	4485
3519.8	4450
3521.504	4441
3523.206	4473
3524.908	4389
3526.609	4415
3528.309	4362
3530.011	4402
3531.711	4491
3533.411	4473
3535.109	4351
3536.808	4388
3538.507	4433
3540.206	4376
3541.904	4320
3543.601	4435
3545.297	4381
3546.994	4394
3548.69	4435
3550.387	4409
3552.081	4341
3553.776	4438
3555.47	4310
3557.166	4391
3558.859	4419
3560.553	4389
3562.245	4432
3563.938	4404
3565.629	4375
3567.322	4378
3569.014	4347
3570.704	4321
3572.394	4299
3574.084	4339
3575.775	4306
3577.464	4371
3579.152	4330
3580.842	4240
3582.529	4326
3584.216	4276
3585.905	4299
3587.591	4272
3589.279	4282
3590.964	4229
3592.649	4206
3594.336	4247
3596.021	4270
3597.705	4251
3599.388	4296
3601.072	4254
3602.757	4349
3604.439	4275
3606.122	4293
3607.803	4243
3609.485	4337
3611.167	4210
3612.849	4141
3614.529	4273
3616.208	4276
3617.888	4213
3619.567	4149
3621.247	4223
3622.926	4264
3624.603	4107
3626.281	4169
3627.958	4138
3629.635	4140
3631.312	4144
3632.989	4044
3634.665	4126
3636.339	4099
3638.014	4136
3639.691	4165
3641.364	4162
3643.038	4147
3644.71	4118
3646.384	4099
3648.058	4221
3649.729	4185
3651.402	4203
3653.073	4148
3654.744	4152
3656.414	4088
3658.085	4068
3659.755	4114
3661.424	4107
3663.094	4074
3664.762	4110
3666.431	4114
3668.099	4120
3669.766	4057
3671.433	4083
3673.099	4095
3674.768	4020
3676.433	4088
3678.098	4073
3679.763	4058
3681.428	3975
3683.093	4154
3684.757	4048
3686.421	4066
3688.083	4047
3689.746	4019
3691.408	4038
3693.071	4036
3694.733	4023
3696.394	4069
3698.054	4048
3699.715	4033
3701.375	4023
3703.036	4115
3704.695	3960
3706.354	4073
3708.012	4117
3709.67	4043
3711.329	3950
3712.987	4002
3714.644	3997
3716.299	3936
3717.955	3999
3719.613	4022
3721.268	4003
3722.923	4011
3724.577	3968
3726.231	3981
3727.885	4001
3729.539	3967
3731.192	3981
3732.845	3988
3734.497	3981
3736.149	4001
3737.802	3937
3739.453	4022
3741.104	3946
3742.753	3885
3744.404	3994
3746.052	4016
3747.704	3876
3749.352	3848
3751	3926
3752.648	3902
3754.296	3980
3755.944	3872
3757.59	3948
3759.238	3872
3760.883	3915
3762.528	3922
3764.176	3990
3765.82	3927
3767.464	3818
3769.109	3957
3770.753	3920
3772.396	3968
3774.04	3821
3775.683	3880
3777.325	3835
3778.967	3800
3780.608	3853
3782.25	3910
3783.89	3822
3785.531	3875
3787.17	3891
3788.81	3850
3790.45	3833
3792.09	3804
3793.729	3815
3795.366	3834
3797.003	3869
3798.64	3769
3800.278	3831
3801.915	3775
3803.551	3907
3805.187	3723
3806.822	3753
3808.458	3785
3810.093	3768
3811.726	3744
3813.36	3838
3814.994	3710
3816.627	3747
3818.262	3810
3819.893	3769
3821.525	3811
3823.157	3838
3824.787	3739
3826.42	3649
3828.051	3753
3829.68	3740
3831.31	3725
3832.938	3777
3834.569	3675
3836.198	3699
3837.825	3695
3839.454	3737
3841.08	3698
3842.708	3679
3844.335	3771
3845.962	3689
3847.587	3663
3849.212	3666
3850.838	3746
3852.463	3745
3854.089	3783
3855.712	3700
3857.335	3696
3858.959	3677
3860.582	3654
3862.205	3741
3863.827	3637
3865.449	3682
3867.07	3641
3868.691	3687
3870.312	3691
3871.933	3644
3873.553	3666
3875.173	3612
3876.792	3644
3878.411	3642
3880.03	3639
3881.647	3616
3883.265	3601
3884.882	3615
3886.499	3601
3888.116	3632
3889.732	3632
3891.348	3600
3892.964	3651
3894.579	3617
3896.195	3654
3897.809	3652
3899.423	3601
3901.036	3579
3902.648	3645
3904.261	3690
3905.875	3575
3907.487	3594
3909.099	3556
3910.709	3513
3912.321	3662
3913.933	3613
3915.542	3479
3917.152	3609
3918.762	3509
3920.37	3610
3921.98	3579
3923.589	3497
3925.196	3586
3926.804	3573
3928.41	3563
3930.018	3516
3931.626	3573
3933.231	3603
3934.838	3431
3936.442	3595
3938.046	3534
3939.653	3504
3941.257	3515
3942.861	3546
3944.464	3457
3946.068	3522
3947.67	3480
3949.273	3541
3950.876	3555
3952.477	3501
3954.078	3482
3955.678	3541
3957.281	3544
3958.881	3554
3960.48	3481
3962.079	3570
3963.678	3497
3965.279	3466
3966.877	3520
3968.475	3503
3970.072	3474
3971.669	3462
3973.266	3488
3974.864	3485
3976.459	3385
3978.055	3416
3979.65	3382
3981.245	3456
3982.841	3450
3984.436	3386
3986.03	3499
3987.623	3403
3989.216	3451
3990.809	3471
3992.403	3370
3993.995	3411
3995.586	3405
3997.177	3422
3998.768	3370
4000.361	3335
4001.951	3352
4003.54	3366
4005.13	3291
4006.719	3310
4008.31	3430
4009.897	3348
4011.485	3369
4013.073	3366
4014.66	3320
4016.247	3244
4017.834	3338
4019.421	3281
4021.006	3302
4022.592	3308
4024.178	3309
4025.763	3311
4027.348	3292
4028.932	3297
4030.515	3262
4032.099	3283
4033.682	3273
4035.266	3265
4036.847	3306
4038.429	3301
4040.011	3282
4041.592	3326
4043.173	3255
4044.755	3254
4046.334	3287
4047.913	3294
4049.494	3217
4051.074	3249
4052.652	3322
4054.23	3152
4055.807	3311
4057.385	3269
4058.963	3261
4060.541	3260
4062.117	3193
4063.693	3240
4065.269	3113
4066.844	3231
4068.42	3184
4069.995	3265
4071.569	3231
4073.143	3223
4074.716	3190
4076.291	3260
4077.864	3100
4079.436	3238
4081.009	3198
4082.58	3284
4084.152	3174
4085.723	3162
4087.294	3133
4088.865	3202
4090.435	3207
4092.005	3149
4093.574	3248
4095.143	3139
4096.712	3189
4098.279	3205
4099.848	3130
4101.416	3158
4102.984	3137
4104.55	3088
4106.117	3118
4107.682	3130
4109.248	3125
4110.815	3185
4112.379	3179
4113.945	3166
4115.508	3154
4117.073	3109
4118.637	3140
4120.201	3123
4121.763	3100
4123.325	3101
4124.888	3120
4126.449	3025
4128.013	3104
4129.573	3105
4131.133	3119
4132.694	3100
4134.254	3047
4135.814	3021
4137.374	3106
4138.933	3110
4140.491	3081
4142.049	3024
4143.607	3060
4145.167	3087
4146.724	3008
4148.28	3084
4149.836	3074
4151.392	2992
4152.949	3057
4154.504	3046
4156.059	3073
4157.614	3032
4159.168	3041
4160.723	2988
4162.277	2976
4163.83	2987
4165.383	3010
4166.936	2979
4168.488	3030
4170.041	2994
4171.593	3050
4173.144	2985
4174.695	2917
4176.246	2946
4177.796	3063
4179.346	2978
4180.896	2993
4182.445	2966
4183.994	3005
4185.542	3046
4187.091	2954
4188.639	2930
4190.185	2952
4191.732	2946
4193.279	3002
4194.826	2943
4196.373	2898
4197.918	2946
4199.463	2925
4201.008	2972
4202.553	2955
4204.098	2971
4205.641	2875
4207.185	2908
4208.728	2869
4210.271	2885
4211.814	2905
4213.357	2992
4214.898	2917
4216.439	2847
4217.98	2910
4219.522	2914
4221.062	2923
4222.603	2906
4224.142	2891
4225.681	2898
4227.222	2869
4228.76	2860
4230.298	2894
4231.835	2824
4233.373	2803
4234.911	2887
4236.449	2854
4237.985	2824
4239.521	2877
4241.057	2912
4242.592	2839
4244.128	2871
4245.663	2823
4247.197	2857
4248.731	2799
4250.265	2831
4251.798	2850
4253.333	2891
4254.865	2801
4256.397	2926
4257.93	2896
4259.461	2818
4260.994	2837
4262.525	2777
4264.056	2847
4265.586	2835
4267.115	2849
4268.646	2802
4270.176	2781
4271.705	2845
4273.232	2796
4274.761	2822
4276.289	2798
4277.818	2745
4279.345	2795
4280.872	2756
4282.399	2827
4283.924	2732
4285.452	2788
4286.976	2778
4288.502	2712
4290.026	2802
4291.551	2749
4293.074	2786
4294.6	2771
4296.123	2786
4297.646	2805
4299.168	2745
4300.691	2757
4302.214	2732
4303.736	2764
4305.257	2758
4306.778	2776
4308.299	2799
4309.82	2733
4311.34	2764
4312.86	2750
4314.379	2706
