400.0745	5569
402.597	5565
405.1208	5668
407.6419	5700
410.1623	5669
412.6819	5708
415.201	5854
417.7172	5960
420.2369	5836
422.7538	6016
425.2701	5943
427.7856	5881
430.3005	5939
432.8147	6075
435.3282	6074
437.841	5990
440.3511	6027
442.8625	6120
445.3753	6169
447.8854	6189
450.3927	6116
452.9014	6070
455.4073	6002
457.9146	6106
460.4233	6151
462.9272	6236
465.4325	6083
467.935	6044
470.4389	6184
472.9421	6090
475.4446	6125
477.9444	6099
480.4456	6229
482.944	6219
485.4417	6113
487.9429	6197
490.4393	6247
492.935	6235
495.4321	6270
497.9264	6228
500.4221	6374
502.9171	6357
505.4094	6316
507.9011	6339
510.392	6314
512.8864	6359
515.3759	6326
517.8649	6452
520.3531	6449
522.8406	6386
525.3275	6356
527.8178	6458
530.3033	6305
532.7881	6407
535.2723	6419
537.7558	6506
540.2407	6491
542.7228	6246
545.2043	6320
547.6851	6378
550.1652	6429
552.6467	6323
555.1255	6486
557.6016	6486
560.079	6495
562.5557	6477
565.0318	6461
567.5092	6528
569.984	6599
572.456	6604
574.9294	6649
577.4022	6606
579.8762	6645
582.3456	6728
584.8163	6641
587.2863	6668
589.7557	6683
592.2224	6707
594.6924	6677
597.1578	6797
599.6245	6528
602.0905	6642
604.5538	6587
607.0206	6594
609.4825	6632
611.9459	6791
614.4066	6700
616.8686	6662
619.33	6695
621.7906	6679
624.2487	6717
626.708	6632
629.1647	6639
631.6207	6493
634.0801	6588
636.5348	6655
638.9888	6569
641.4442	6625
643.8969	6698
646.3509	6697
648.8022	6784
651.255	6799
653.705	6772
656.1544	6737
658.6031	6757
661.0532	6771
663.5026	6676
665.9493	6775
668.3954	6883
670.8409	6908
673.2877	6800
675.7318	6778
678.1752	6820
680.618	6842
683.0601	6846
685.5035	6731
687.9444	6931
690.3845	6789
692.824	6897
695.2628	6908
697.701	6876
700.1406	7010
702.5774	6902
705.0116	6914
707.4472	6897
709.8821	7010
712.3183	6999
714.7519	7015
717.1829	6927
719.6151	7188
722.0468	7027
724.4777	7069
726.908	7174
729.3377	7126
731.7667	7024
734.1931	7132
736.6208	7105
739.0498	7107
741.4742	7185
743.9	7132
746.3231	7243
748.7476	7186
751.1713	7375
753.5945	7366
756.015	7270
758.4368	7325
760.856	7430
763.2766	7333
765.6965	7379
768.1157	7365
770.5323	7449
772.9483	7363
775.3656	7309
777.7822	7438
780.1963	7373
782.6116	7419
785.0244	7524
787.4365	7493
789.8499	7417
792.2626	7316
794.6728	7428
797.0823	7415
799.4911	7480
801.8994	7437
804.3109	7491
806.7178	7428
809.124	7447
811.5297	7460
813.9347	7506
816.341	7526
818.7447	7483
821.1478	7462
823.5502	7426
825.952	7582
828.3531	7521
830.7556	7487
833.1554	7495
835.5546	7542
837.9532	7618
840.3511	7561
842.7504	7630
845.1451	7546
847.5411	7638
849.9365	7706
852.3312	7678
854.7272	7676
857.1187	7655
859.5115	7558
861.9037	7562
864.2952	7613
866.6842	7540
869.0764	7794
871.4661	7508
873.8531	7617
876.2415	7682
878.6272	7615
881.0162	7656
883.4026	7560
885.7866	7615
888.1717	7593
890.5543	7514
892.9382	7654
895.3215	7502
897.7041	7664
900.0842	7527
902.4655	7610
904.8443	7593
907.2244	7654
909.6039	7690
911.9808	7759
914.357	7772
916.7346	7787
919.1115	7806
921.4859	7857
923.8616	7912
926.2347	7737
928.6071	7973
930.979	7866
933.3541	8034
935.7247	7897
938.0946	7976
940.4639	8016
942.8326	8059
945.2026	8161
947.5701	8359
949.9369	8538
952.305	8586
954.6705	8792
957.0355	9152
959.4017	9326
961.7654	9337
964.1284	9236
966.4908	9124
968.8527	8794
971.2138	8589
973.5743	8428
975.9343	8170
978.2936	8051
980.6522	7958
983.0122	7922
985.3696	7892
987.7245	7966
990.0807	7807
992.4362	7838
994.7911	7836
997.1474	7831
999.4991	7950
1001.852	7989
1004.205	7979
1006.555	7976
1008.908	7812
1011.258	7799
1013.606	7927
1015.956	7914
1018.302	7929
1020.652	7901
1022.998	7903
1025.345	7895
1027.691	7999
1030.035	7972
1032.378	8007
1034.724	7934
1037.066	8060
1039.409	8023
1041.75	8066
1044.092	7962
1046.433	7993
1048.771	7976
1051.112	8007
1053.449	8053
1055.786	7974
1058.124	7920
1060.462	7981
1062.797	8040
1065.131	8024
1067.467	8052
1069.8	8195
1072.135	8164
1074.467	8194
1076.798	8099
1079.129	8096
1081.459	8243
1083.792	8132
1086.121	8119
1088.449	7915
1090.777	7969
1093.104	8026
1095.431	7990
1097.759	8035
1100.084	8139
1102.408	8084
1104.732	8105
1107.056	7981
1109.379	7966
1111.701	8013
1114.022	8044
1116.343	8042
1118.664	8073
1120.983	8097
1123.303	8079
1125.621	8207
1127.939	8083
1130.256	8051
1132.573	8047
1134.889	8165
1137.205	8147
1139.52	7999
1141.832	8146
1144.146	8082
1146.461	8043
1148.771	8203
1151.083	8092
1153.392	8031
1155.703	8014
1158.011	8171
1160.323	8070
1162.629	8224
1164.938	8134
1167.243	8175
1169.55	8101
1171.857	8078
1174.163	8029
1176.466	8083
1178.769	8138
1181.073	8145
1183.374	8109
1185.677	8115
1187.979	8105
1190.279	8069
1192.578	8135
1194.878	8111
1197.178	8016
1199.476	8055
1201.772	8043
1204.068	8143
1206.366	8099
1208.663	8101
1210.957	8127
1213.251	8091
1215.544	8194
1217.836	8194
1220.128	8135
1222.421	8053
1224.712	8185
1227.002	8105
1229.292	8100
1231.581	8298
1233.871	8142
1236.159	8367
1238.446	8277
1240.732	8322
1243.018	8515
1245.304	8378
1247.59	8301
1249.874	8287
1252.156	8226
1254.439	8423
1256.721	8322
1259.005	8306
1261.286	8288
1263.565	8331
1265.845	8352
1268.125	8287
1270.403	8472
1272.682	8387
1274.959	8526
1277.234	8199
1279.511	8360
1281.787	8300
1284.062	8441
1286.337	8270
1288.609	8453
1290.882	8341
1293.153	8282
1295.428	8303
1297.698	8131
1299.969	8158
1302.237	8249
1304.507	8168
1306.777	8317
1309.044	8322
1311.312	8194
1313.578	8241
1315.844	8193
1318.109	8422
1320.375	8145
1322.638	8155
1324.903	8222
1327.165	8264
1329.427	8196
1331.69	8243
1333.952	8174
1336.212	8213
1338.471	8373
1340.73	8188
1342.988	8215
1345.248	8316
1347.505	8392
1349.763	8254
1352.019	8225
1354.274	8132
1356.53	8161
1358.784	8102
1361.038	8195
1363.291	8283
1365.543	8352
1367.797	8206
1370.048	8060
1372.296	8275
1374.546	8257
1376.796	8332
1379.045	8413
1381.295	8321
1383.542	8243
1385.787	8382
1388.034	8358
1390.28	8398
1392.527	8292
1394.772	8353
1397.014	8354
1399.258	8353
1401.501	8421
1403.741	8498
1405.985	8336
1408.226	8315
1410.465	8381
1412.705	8480
1414.943	8358
1417.184	8224
1419.42	8500
1421.658	8391
1423.894	8477
1426.13	8550
1428.366	8365
1430.602	8448
1432.835	8446
1435.069	8453
1437.301	8619
1439.535	8634
1441.767	8647
1443.997	8597
1446.229	8508
1448.458	8670
1450.687	8620
1452.916	8620
1455.146	8604
1457.372	8606
1459.599	8681
1461.824	8488
1464.051	8571
1466.277	8452
1468.501	8564
1470.725	8515
1472.948	8497
1475.17	8469
1477.393	8444
1479.614	8395
1481.837	8344
1484.057	8412
1486.276	8232
1488.497	8305
1490.715	8384
1492.932	8218
1495.148	8131
1497.364	8143
1499.58	8219
1501.798	8165
1504.012	8218
1506.227	8301
1508.44	8199
1510.653	8097
1512.866	8221
1515.078	8237
1517.289	8270
1519.5	8227
1521.711	8193
1523.92	8258
1526.13	8162
1528.338	8164
1530.544	8179
1532.752	8086
1534.959	8180
1537.165	8073
1539.371	8284
1541.574	8221
1543.779	8223
1545.983	8360
1548.187	8272
1550.39	8340
1552.59	8353
1554.792	8190
1556.991	8275
1559.19	8315
1561.392	8362
1563.59	8261
1565.789	8296
1567.986	8404
1570.182	8387
1572.381	8441
1574.576	8390
1576.771	8393
1578.966	8385
1581.16	8414
1583.354	8429
1585.546	8386
1587.74	8283
1589.931	8433
1592.121	8465
1594.311	8252
1596.502	8528
1598.693	8388
1600.881	8478
1603.069	8454
1605.256	8469
1607.445	8365
1609.631	8482
1611.816	8478
1614.001	8505
1616.186	8474
1618.37	8392
1620.555	8376
1622.737	8527
1624.919	8440
1627.101	8618
1629.282	8586
1631.463	8431
1633.643	8549
1635.822	8530
1638.001	8643
1640.179	8413
1642.359	8502
1644.534	8465
1646.711	8639
1648.887	8502
1651.062	8574
1653.235	8580
1655.412	8536
1657.586	8411
1659.757	8667
1661.93	8612
1664.1	8652
1666.274	8621
1668.445	8625
1670.614	8554
1672.784	8666
1674.951	8476
1677.12	8707
1679.289	8461
1681.457	8434
1683.622	8411
1685.789	8652
1687.953	8580
1690.121	8643
1692.284	8495
1694.447	8625
1696.611	8481
1698.772	8553
1700.935	8365
1703.098	8488
1705.258	8407
1707.417	8439
1709.576	8470
1711.736	8387
1713.896	8365
1716.053	8319
1718.21	8391
1720.366	8334
1722.522	8259
1724.68	8321
1726.835	8454
1728.989	8309
1731.142	8321
1733.295	8318
1735.449	8316
1737.601	8237
1739.753	8397
1741.903	8404
1744.054	8480
1746.203	8364
1748.354	8401
1750.503	8362
1752.651	8370
1754.798	8461
1756.944	8604
1759.092	8366
1761.238	8604
1763.383	8405
1765.528	8446
1767.672	8465
1769.814	8513
1771.959	8447
1774.102	8502
1776.242	8407
1778.384	8484
1780.525	8551
1782.665	8399
1784.805	8548
1786.945	8356
1789.082	8502
1791.22	8521
1793.36	8373
1795.495	8512
1797.632	8555
1799.766	8437
1801.902	8518
1804.035	8535
1806.172	8375
1808.304	8432
1810.436	8475
1812.569	8399
1814.699	8522
1816.833	8515
1818.963	8420
1821.092	8452
1823.222	8682
1825.35	8504
1827.478	8426
1829.608	8525
1831.734	8387
1833.86	8360
1835.986	8460
1838.11	8483
1840.238	8410
1842.362	8344
1844.485	8275
1846.608	8375
1848.73	8302
1850.853	8397
1852.974	8494
1855.097	8325
1857.217	8294
1859.336	8271
1861.455	8358
1863.576	8360
1865.693	8184
1867.811	8408
1869.926	8264
1872.042	8357
1874.16	8452
1876.275	8240
1878.39	8325
1880.504	8520
1882.618	8214
1884.731	8380
1886.843	8341
1888.956	8295
1891.067	8500
1893.178	8433
1895.287	8301
1897.399	8450
1899.508	8301
1901.617	8397
1903.724	8341
1905.832	8511
1907.941	8274
1910.046	8333
1912.152	8551
1914.256	8521
1916.361	8320
1918.464	8389
1920.57	8468
1922.672	8522
1924.775	8411
1926.876	8439
1928.978	8549
1931.08	8422
1933.181	8417
1935.28	8529
1937.38	8419
1939.478	8470
1941.577	8606
1943.675	8457
1945.771	8551
1947.867	8349
1949.964	8577
1952.058	8589
1954.154	8435
1956.248	8534
1958.343	8412
1960.435	8528
1962.527	8483
1964.62	8326
1966.711	8456
1968.802	8553
1970.892	8393
1972.983	8475
1975.072	8436
1977.162	8555
1979.25	8267
1981.337	8432
1983.424	8354
1985.51	8510
1987.598	8372
1989.683	8377
1991.768	8216
1993.852	8342
1995.934	8377
1998.019	8153
2000.102	8351
2002.184	8276
2004.266	8465
2006.347	8247
2008.427	8430
2010.508	8379
2012.587	8279
2014.666	8254
2016.745	8290
2018.821	8287
2020.9	8298
2022.977	8316
2025.052	8274
2027.128	8274
2029.204	8405
2031.277	8242
2033.353	8282
2035.425	8299
2037.499	8269
2039.57	8386
2041.642	8321
2043.714	8404
2045.786	8414
2047.855	8362
2049.925	8125
2051.993	8243
2054.064	8298
2056.132	8364
2058.2	8324
2060.266	8390
2062.332	8262
2064.398	8522
2066.465	8248
2068.529	8292
2070.592	8333
2072.657	8366
2074.719	8207
2076.783	8240
2078.845	8322
2080.907	8339
2082.968	8306
2085.028	8460
2087.087	8372
2089.148	8282
2091.207	8254
2093.264	8363
2095.322	8420
2097.379	8346
2099.439	8263
2101.495	8419
2103.55	8284
2105.605	8313
2107.658	8189
2109.713	8295
2111.767	8328
2113.82	8368
2115.872	8211
2117.924	8361
2119.975	8202
2122.028	8269
2124.078	8289
2126.126	8304
2128.176	8189
2130.225	8419
2132.275	8169
2134.321	8188
2136.368	8253
2138.415	8353
2140.461	8468
2142.505	8128
2144.552	8257
2146.597	8151
2148.64	8349
2150.684	8440
2152.725	8316
2154.77	8160
2156.811	8227
2158.852	8294
2160.894	8182
2162.933	8159
2164.973	8198
2167.013	8192
2169.051	8136
2171.089	8204
2173.126	8157
2175.164	8149
2177.201	8246
2179.236	8138
2181.273	8112
2183.307	8177
2185.341	8099
2187.377	7975
2189.41	8030
2191.442	8142
2193.473	8125
2195.506	8131
2197.539	8191
2199.569	8073
2201.598	8016
2203.628	8104
2205.656	7923
2207.686	8035
2209.716	8054
2211.743	8066
2213.769	7925
2215.796	7966
2217.821	8161
2219.848	7991
2221.873	8092
2223.897	8040
2225.921	8030
2227.944	8018
2229.967	8133
2231.991	8093
2234.011	8114
2236.032	7934
2238.053	7896
2240.073	7971
2242.094	8055
2244.114	8023
2246.131	8022
2248.149	7929
2250.167	8097
2252.186	7957
2254.201	7976
2256.218	7877
2258.233	8088
2260.247	7913
2262.262	7959
2264.278	7995
2266.29	8077
2268.303	8020
2270.315	7958
2272.327	8152
2274.341	8038
2276.35	8119
2278.361	7909
2280.37	7999
2282.38	8148
2284.388	7982
2286.397	7923
2288.405	7871
2290.412	7990
2292.419	8114
2294.425	7944
2296.431	8008
2298.437	7873
2300.441	8030
2302.445	7995
2304.449	7945
2306.453	7869
2308.455	8001
2310.457	8079
2312.459	7966
2314.46	7875
2316.46	7900
2318.461	7904
2320.46	7947
2322.458	7937
2324.458	7930
2326.456	7930
2328.455	7912
2330.451	7918
2332.447	7841
2334.443	7945
2336.438	7850
2338.433	7754
2340.429	7928
2342.422	7781
2344.416	7821
2346.408	7834
2348.399	7778
2350.393	7876
2352.384	7740
2354.375	7882
2356.365	7743
2358.355	7811
2360.344	7747
2362.333	7779
2364.322	7797
2366.309	7752
2368.295	7871
2370.282	7754
2372.27	7816
2374.256	7719
2376.24	7725
2378.225	7706
2380.208	7722
2382.194	7773
2384.177	7652
2386.159	7704
2388.142	7564
2390.122	7728
2392.105	7650
2394.085	7687
2396.066	7630
2398.044	7743
2400.024	7751
2402.002	7643
2403.982	7601
2405.959	7699
2407.935	7760
2409.913	7690
2411.888	7660
2413.865	7646
2415.84	7602
2417.814	7581
2419.788	7645
2421.762	7618
2423.735	7603
2425.708	7547
2427.68	7616
2429.651	7731
2431.623	7638
2433.593	7640
2435.564	7586
2437.533	7733
2439.502	7662
2441.47	7619
2443.438	7657
2445.406	7521
2447.373	7682
2449.34	7660
2451.305	7580
2453.271	7613
2455.235	7522
2457.201	7626
2459.165	7537
2461.129	7593
2463.092	7688
2465.054	7573
2467.018	7625
2468.978	7573
2470.939	7508
2472.899	7535
2474.86	7613
2476.819	7419
2478.778	7478
2480.737	7543
2482.695	7533
2484.653	7617
2486.609	7579
2488.567	7399
2490.524	7586
2492.478	7486
2494.433	7574
2496.387	7515
2498.343	7583
2500.297	7683
2502.249	7513
2504.202	7445
2506.153	7443
2508.105	7428
2510.057	7413
2512.008	7520
2513.957	7513
2515.906	7441
2517.855	7443
2519.805	7466
2521.754	7463
2523.7	7410
2525.647	7386
2527.594	7395
2529.54	7416
2531.486	7498
2533.431	7532
2535.376	7474
2537.32	7417
2539.263	7450
2541.207	7415
2543.151	7529
2545.093	7382
2547.034	7364
2548.975	7375
2550.917	7401
2552.856	7358
2554.796	7504
2556.735	7332
2558.673	7407
2560.611	7466
2562.55	7362
2564.487	7384
2566.424	7470
2568.36	7454
2570.296	7323
2572.232	7408
2574.167	7378
2576.101	7372
2578.035	7386
2579.969	7368
2581.902	7350
2583.834	7475
2585.766	7327
2587.698	7404
2589.628	7320
2591.557	7394
2593.489	7355
2595.419	7349
2597.348	7227
2599.275	7406
2601.204	7381
2603.131	7439
2605.059	7381
2606.986	7394
2608.911	7388
2610.837	7431
2612.76	7372
2614.687	7443
2616.61	7319
2618.534	7330
2620.457	7382
2622.38	7341
2624.302	7444
2626.225	7431
2628.145	7411
2630.067	7486
2631.986	7477
2633.906	7458
2635.827	7434
2637.745	7356
2639.662	7495
2641.581	7357
2643.498	7336
2645.415	7393
2647.331	7331
2649.248	7302
2651.163	7360
2653.077	7476
2654.993	7239
2656.906	7392
2658.821	7462
2660.733	7360
2662.646	7479
2664.557	7231
2666.47	7343
2668.381	7333
2670.291	7273
2672.201	7293
2674.11	7256
2676.021	7350
2677.929	7250
2679.837	7275
2681.745	7293
2683.652	7380
2685.56	7213
2687.466	7308
2689.371	7376
2691.276	7232
2693.181	7308
2695.085	7244
2696.991	7363
2698.893	7140
2700.796	7287
2702.698	7204
2704.601	7379
2706.502	7273
2708.404	7168
2710.304	7232
2712.203	7219
2714.103	7154
2716.003	7196
2717.902	7212
2719.8	7272
2721.697	7195
2723.594	7133
2725.49	7162
2727.389	7102
2729.283	7191
2731.179	7107
2733.073	7127
2734.968	7041
2736.863	7255
2738.757	7209
2740.649	7153
2742.541	7173
2744.433	7171
2746.324	7170
2748.216	7151
2750.107	7171
2751.997	7126
2753.886	7009
2755.776	7076
2757.666	7082
2759.553	7024
2761.44	6886
2763.327	7127
2765.215	7018
2767.102	7123
2768.988	7046
2770.873	7089
2772.757	7078
2774.641	7230
2776.525	7161
2778.41	7045
2780.292	7163
2782.175	6957
2784.057	7155
2785.938	6940
2787.821	7058
2789.701	7054
2791.581	7034
2793.461	7097
2795.34	7098
2797.219	7068
2799.099	7038
2800.975	7034
2802.853	7118
2804.73	6941
2806.606	7065
2808.484	7037
2810.358	6999
2812.233	7006
2814.108	6950
2815.981	6910
2817.857	6965
2819.73	6918
2821.602	6879
2823.474	7023
2825.346	7039
2827.217	6913
2829.089	7050
2830.959	7019
2832.829	7101
2834.698	6881
2836.567	6980
2838.436	7111
2840.305	6863
2842.172	7018
2844.04	7026
2845.905	6969
2847.772	7077
2849.639	7075
2851.503	7017
2853.369	6985
2855.232	7051
2857.096	6958
2858.961	7085
2860.824	6941
2862.686	7060
2864.547	7114
2866.41	7163
2868.272	7190
2870.132	7246
2871.992	7248
2873.851	7230
2875.711	7259
2877.57	7343
2879.429	7324
2881.287	7382
2883.144	7363
2885.001	7381
2886.857	7410
2888.714	7500
2890.57	7328
2892.425	7407
2894.279	7532
2896.133	7392
2897.987	7423
2899.842	7442
2901.694	7371
2903.547	7335
2905.397	7277
2907.249	7335
2909.101	7383
2910.952	7297
2912.802	7391
2914.652	7466
2916.5	7531
2918.35	7503
2920.198	7600
2922.045	7465
2923.893	7619
2925.74	7691
2927.585	7670
2929.433	7819
2931.279	7880
2933.123	7932
2934.968	7771
2936.811	7995
2938.656	7931
2940.5	8012
2942.342	8185
2944.185	8073
2946.026	8091
2947.87	8107
2949.71	8068
2951.549	7886
2953.39	8124
2955.229	7841
2957.069	7834
2958.908	7818
2960.746	7806
2962.584	7711
2964.421	7715
2966.257	7729
2968.094	7509
2969.931	7461
2971.766	7479
2973.601	7410
2975.435	7406
2977.27	7362
2979.105	7437
2980.938	7488
2982.77	7322
2984.602	7309
2986.434	7184
2988.267	7397
2990.097	7173
2991.927	7198
2993.757	7284
2995.587	7149
2997.417	7086
2999.246	7008
3001.074	7142
3002.902	6981
3004.729	6917
3006.556	6965
3008.384	6906
3010.21	6779
3012.036	6909
3013.861	6728
3015.684	6785
3017.51	6768
3019.334	6707
3021.157	6796
3022.981	6638
3024.802	6685
3026.624	6680
3028.448	6570
3030.267	6560
3032.088	6593
3033.909	6644
3035.728	6486
3037.549	6479
3039.368	6460
3041.186	6548
3043.004	6409
3044.821	6455
3046.64	6500
3048.455	6379
3050.272	6455
3052.087	6437
3053.903	6547
3055.717	6409
3057.534	6366
3059.347	6512
3061.16	6453
3062.974	6466
3064.785	6432
3066.598	6400
3068.411	6427
3070.222	6418
3072.032	6418
3073.844	6353
3075.653	6457
3077.463	6413
3079.272	6421
3081.08	6386
3082.889	6216
3084.697	6247
3086.505	6312
3088.312	6374
3090.118	6350
3091.924	6226
3093.729	6336
3095.535	6353
3097.34	6340
3099.144	6353
3100.947	6150
3102.75	6268
3104.553	6325
3106.357	6213
3108.159	6265
3109.961	6236
3111.762	6178
3113.562	6179
3115.365	6231
3117.164	6167
3118.964	6130
3120.761	6067
3122.56	6267
3124.36	6137
3126.158	6243
3127.954	6153
3129.75	6164
3131.547	6080
3133.343	6116
3135.139	6127
3136.934	6191
3138.729	6074
3140.522	6053
3142.317	6049
3144.11	6038
3145.904	6113
3147.695	5989
3149.488	6108
3151.28	6113
3153.07	6063
3154.863	6066
3156.652	6017
3158.441	6054
3160.231	6060
3162.019	6073
3163.81	6042
3165.597	5962
3167.384	6043
3169.172	6050
3170.958	6028
3172.745	6047
3174.532	6072
3176.317	6030
3178.101	5969
3179.885	6025
3181.67	5928
3183.455	6066
3185.238	5973
3187.02	5966
3188.802	5991
3190.585	5947
3192.368	5966
3194.149	6016
3195.929	6031
3197.709	5851
3199.489	5974
3201.268	5900
3203.048	5921
3204.826	5899
3206.604	5975
3208.382	5817
3210.159	5924
3211.937	5949
3213.713	5929
3215.489	5893
3217.263	5928
3219.038	5823
3220.815	5899
3222.589	5895
3224.363	5993
3226.136	5945
3227.908	5886
3229.681	5872
3231.454	5910
3233.226	5874
3234.996	5846
3236.767	5801
3238.538	5893
3240.308	5905
3242.078	5878
3243.847	5870
3245.615	5827
3247.384	5867
3249.15	5830
3250.92	5840
3252.686	5705
3254.453	5893
3256.218	5934
3257.984	5789
3259.75	5842
3261.515	5793
3263.279	5863
3265.044	5798
3266.806	5885
3268.57	5784
3270.334	5820
3272.095	5807
3273.856	5915
3275.619	5872
3277.379	5806
3279.14	5809
3280.9	5887
3282.661	5859
3284.419	5830
3286.178	5761
3287.937	5839
3289.695	5870
3291.453	5782
3293.21	5841
3294.967	5852
3296.723	5788
3298.48	5863
3300.235	5751
3301.99	5836
3303.744	5922
3305.498	5792
3307.253	5823
3309.006	5798
3310.759	5875
3312.511	5903
3314.263	5761
3316.017	5864
3317.768	5884
3319.519	5684
3321.268	5833
3323.018	5898
3324.767	5769
3326.518	5877
3328.267	5866
3330.014	5808
3331.762	5704
3333.509	5848
3335.258	5984
3337.003	5764
3338.75	5669
3340.496	5752
3342.24	5791
3343.987	5767
3345.732	5704
3347.475	5666
3349.219	5820
3350.961	5682
3352.705	5636
3354.448	5748
3356.19	5719
3357.931	5712
3359.672	5685
3361.412	5712
3363.155	5640
3364.894	5777
3366.633	5641
3368.372	5729
3370.11	5604
3371.849	5567
3373.588	5520
3375.325	5609
3377.061	5695
3378.799	5612
3380.534	5644
3382.271	5660
3384.006	5609
3385.741	5529
3387.475	5582
3389.209	5649
3390.944	5514
3392.677	5582
3394.409	5499
3396.143	5572
3397.874	5635
3399.606	5512
3401.338	5568
3403.069	5538
3404.799	5594
3406.528	5545
3408.258	5679
3409.988	5560
3411.717	5486
3413.445	5581
3415.173	5550
3416.899	5493
3418.626	5611
3420.354	5493
3422.08	5550
3423.806	5553
3425.531	5499
3427.255	5595
3428.981	5518
3430.705	5557
3432.429	5428
3434.151	5483
3435.875	5526
3437.599	5531
3439.321	5410
3441.042	5485
3442.763	5403
3444.483	5398
3446.204	5488
3447.926	5457
3449.645	5371
3451.364	5425
3453.082	5333
3454.801	5205
3456.52	5381
3458.238	5383
3459.954	5340
3461.671	5253
3463.387	5312
3465.104	5379
3466.82	5304
3468.534	5325
3470.25	5307
3471.963	5318
3473.676	5372
3475.392	5293
3477.104	5332
3478.817	5231
3480.528	5260
3482.241	5317
3483.954	5325
3485.664	5302
3487.374	5193
3489.084	5310
3490.795	5202
3492.504	5255
3494.214	5217
3495.922	5201
3497.63	5180
3499.338	5191
3501.045	5182
3502.753	5236
3504.459	5122
3506.166	5216
3507.871	5112
3509.576	5160
3511.283	5172
3512.987	5125
3514.691	5161
3516.395	4938
3518.098	5032
3519.8	5098
3521.504	5046
3523.206	5125
3524.908	5080
3526.609	5103
3528.309	5073
3530.011	5002
3531.711	5087
3533.411	5077
3535.109	5072
3536.808	5041
3538.507	5079
3540.206	5153
3541.904	5055
3543.601	5128
3545.297	4935
3546.994	5009
3548.69	4941
3550.387	4986
3552.081	4929
3553.776	4994
3555.47	5051
3557.166	4880
3558.859	5101
3560.553	5054
3562.245	4926
3563.938	4895
3565.629	5008
3567.322	4926
3569.014	4924
3570.704	4923
3572.394	5035
3574.084	4931
3575.775	4923
3577.464	4987
3579.152	4896
3580.842	4859
3582.529	4936
3584.216	4902
3585.905	4957
3587.591	4926
3589.279	4822
3590.964	4863
3592.649	4837
3594.336	4778
3596.021	4923
3597.705	4823
3599.388	4814
3601.072	4793
3602.757	4696
3604.439	4943
3606.122	4905
3607.803	4807
3609.485	4855
3611.167	4747
3612.849	4694
3614.529	4852
3616.208	4744
3617.888	4765
3619.567	4750
3621.247	4696
3622.926	4772
3624.603	4816
3626.281	4732
3627.958	4728
3629.635	4683
3631.312	4784
3632.989	4673
3634.665	4701
3636.339	4772
3638.014	4628
3639.691	4718
3641.364	4721
3643.038	4716
3644.71	4555
3646.384	4672
3648.058	4678
3649.729	4610
3651.402	4656
3653.073	4640
3654.744	4664
3656.414	4572
3658.085	4654
3659.755	4565
3661.424	4681
3663.094	4585
3664.762	4538
3666.431	4598
3668.099	4596
3669.766	4617
3671.433	4527
3673.099	4470
3674.768	4605
3676.433	4494
3678.098	4611
3679.763	4481
3681.428	4471
3683.093	4495
3684.757	4633
3686.421	4498
3688.083	4504
3689.746	4610
3691.408	4520
3693.071	4497
3694.733	4556
3696.394	4457
3698.054	4532
3699.715	4495
3701.375	4515
3703.036	4536
3704.695	4425
3706.354	4468
3708.012	4570
3709.67	4422
3711.329	4462
3712.987	4543
3714.644	4497
3716.299	4424
3717.955	4472
3719.613	4532
3721.268	4488
3722.923	4459
3724.577	4346
3726.231	4433
3727.885	4328
3729.539	4433
3731.192	4460
3732.845	4446
3734.497	4429
3736.149	4394
3737.802	4448
3739.453	4424
3741.104	4364
3742.753	4404
3744.404	4381
3746.052	4456
3747.704	4348
3749.352	4399
3751	4465
3752.648	4421
3754.296	4302
3755.944	4299
3757.59	4314
3759.238	4281
3760.883	4378
3762.528	4351
3764.176	4355
3765.82	4243
3767.464	4325
3769.109	4312
3770.753	4269
3772.396	4231
3774.04	4265
3775.683	4380
3777.325	4348
3778.967	4378
3780.608	4294
3782.25	4245
3783.89	4227
3785.531	4351
3787.17	4259
3788.81	4326
3790.45	4309
3792.09	4331
3793.729	4300
3795.366	4266
3797.003	4220
3798.64	4216
3800.278	4269
3801.915	4223
3803.551	4220
3805.187	4256
3806.822	4323
3808.458	4199
3810.093	4148
3811.726	4126
3813.36	4229
3814.994	4207
3816.627	4164
3818.262	4187
3819.893	4166
3821.525	4213
3823.157	4214
3824.787	4255
3826.42	4271
3828.051	4159
3829.68	4202
3831.31	4268
3832.938	4157
3834.569	4151
3836.198	4171
3837.825	4130
3839.454	4175
3841.08	4070
3842.708	4038
3844.335	4088
3845.962	4097
3847.587	4195
3849.212	4118
3850.838	4178
3852.463	4068
3854.089	4031
3855.712	4100
3857.335	3962
3858.959	4065
3860.582	4052
3862.205	4085
3863.827	4034
3865.449	4016
3867.07	4051
3868.691	4075
3870.312	3993
3871.933	4094
3873.553	4049
3875.173	3993
3876.792	4055
3878.411	3963
3880.03	4089
3881.647	4021
3883.265	4063
3884.882	3974
3886.499	3991
3888.116	4115
3889.732	3990
3891.348	3986
3892.964	4077
3894.579	3944
3896.195	3974
3897.809	4011
3899.423	4007
3901.036	4007
3902.648	3939
3904.261	4052
3905.875	3969
3907.487	3949
3909.099	3948
3910.709	4004
3912.321	4010
3913.933	3948
3915.542	3963
3917.152	3979
3918.762	3968
3920.37	3999
3921.98	3953
3923.589	3888
3925.196	3971
3926.804	3933
3928.41	3889
3930.018	3878
3931.626	3959
3933.231	3961
3934.838	3880
3936.442	3998
3938.046	4009
3939.653	4022
3941.257	3933
3942.861	3911
3944.464	3906
3946.068	3902
3947.67	3903
3949.273	3977
3950.876	3951
3952.477	3901
3954.078	3884
3955.678	3812
3957.281	3905
3958.881	3878
3960.48	3861
3962.079	3897
3963.678	3891
3965.279	3859
3966.877	3830
3968.475	3899
3970.072	3749
3971.669	3890
3973.266	3823
3974.864	3858
3976.459	3836
3978.055	3851
3979.65	3786
3981.245	3873
3982.841	3800
3984.436	3809
3986.03	3762
3987.623	3794
3989.216	3769
3990.809	3705
3992.403	3780
3993.995	3723
3995.586	3776
3997.177	3716
3998.768	3743
4000.361	3722
4001.951	3804
4003.54	3735
4005.13	3730
4006.719	3689
4008.31	3706
4009.897	3655
4011.485	3691
4013.073	3725
4014.66	3692
4016.247	3730
4017.834	3673
4019.421	3656
4021.006	3610
4022.592	3685
4024.178	3595
4025.763	3662
4027.348	3670
4028.932	3645
4030.515	3664
4032.099	3637
4033.682	3675
4035.266	3722
4036.847	3567
4038.429	3679
4040.011	3655
4041.592	3569
4043.173	3645
4044.755	3671
4046.334	3637
4047.913	3644
4049.494	3654
4051.074	3567
4052.652	3581
4054.23	3598
4055.807	3556
4057.385	3543
4058.963	3628
4060.541	3580
4062.117	3608
4063.693	3599
4065.269	3529
4066.844	3544
4068.42	3655
4069.995	3602
4071.569	3567
4073.143	3476
4074.716	3520
4076.291	3522
4077.864	3453
4079.436	3521
4081.009	3590
4082.58	3592
4084.152	3445
4085.723	3564
4087.294	3502
4088.865	3444
4090.435	3560
4092.005	3494
4093.574	3566
4095.143	3511
4096.712	3521
4098.279	3526
4099.848	3494
4101.416	3482
4102.984	3504
4104.55	3414
4106.117	3421
4107.682	3510
4109.248	3481
4110.815	3480
4112.379	3452
4113.945	3474
4115.508	3444
4117.073	3447
4118.637	3405
4120.201	3460
4121.763	3436
4123.325	3353
4124.888	3340
4126.449	3372
4128.013	3407
4129.573	3494
4131.133	3421
4132.694	3392
4134.254	3477
4135.814	3402
4137.374	3412
4138.933	3381
4140.491	3375
4142.049	3441
4143.607	3362
4145.167	3334
4146.724	3479
4148.28	3374
4149.836	3371
4151.392	3250
4152.949	3388
4154.504	3298
4156.059	3384
4157.614	3361
4159.168	3443
4160.723	3274
4162.277	3393
4163.83	3400
4165.383	3315
4166.936	3345
4168.488	3359
4170.041	3362
4171.593	3279
4173.144	3244
4174.695	3220
4176.246	3255
4177.796	3212
4179.346	3213
4180.896	3262
4182.445	3271
4183.994	3278
4185.542	3265
4187.091	3292
4188.639	3257
4190.185	3241
4191.732	3263
4193.279	3213
4194.826	3263
4196.373	3269
4197.918	3288
4199.463	3226
4201.008	3201
4202.553	3214
4204.098	3254
4205.641	3203
4207.185	3223
4208.728	3211
4210.271	3219
4211.814	3175
4213.357	3298
4214.898	3218
4216.439	3232
4217.98	3228
4219.522	3197
4221.062	3175
4222.603	3157
4224.142	3232
4225.681	3187
4227.222	3195
4228.76	3186
4230.298	3166
4231.835	3106
4233.373	3158
4234.911	3132
4236.449	3135
4237.985	3185
4239.521	3163
4241.057	3120
4242.592	3099
4244.128	3170
4245.663	3180
4247.197	3185
4248.731	3101
4250.265	3138
4251.798	3144
4253.333	3095
4254.865	3088
4256.397	3111
4257.93	3132
4259.461	3187
4260.994	3165
4262.525	3092
4264.056	3084
4265.586	3124
4267.115	3103
4268.646	3102
4270.176	3068
4271.705	3142
4273.232	3086
4274.761	3051
4276.289	3063
4277.818	3077
4279.345	3097
4280.872	3032
4282.399	3049
4283.924	3054
4285.452	3073
4286.976	3034
4288.502	3054
4290.026	3052
4291.551	3056
4293.074	3077
4294.6	2963
4296.123	3013
4297.646	3056
4299.168	3037
4300.691	2996
4302.214	3062
4303.736	2952
4305.257	2970
4306.778	3021
4308.299	2970
4309.82	2986
4311.34	2963
4312.86	2993
4314.379	3000
