400.0745	4270
402.597	4175
405.1208	4327
407.6419	4286
410.1623	4406
412.6819	4199
415.201	4343
417.7172	4237
420.2369	4336
422.7538	4383
425.2701	4334
427.7856	4385
430.3005	4456
432.8147	4388
435.3282	4437
437.841	4449
440.3511	4419
442.8625	4430
445.3753	4446
447.8854	4508
450.3927	4578
452.9014	4427
455.4073	4401
457.9146	4379
460.4233	4578
462.9272	4540
465.4325	4483
467.935	4546
470.4389	4507
472.9421	4567
475.4446	4626
477.9444	4546
480.4456	4579
482.944	4680
485.4417	4653
487.9429	4658
490.4393	4668
492.935	4603
495.4321	4707
497.9264	4656
500.4221	4693
502.9171	4761
505.4094	4701
507.9011	4660
510.392	4733
512.8864	4741
515.3759	4700
517.8649	4701
520.3531	4703
522.8406	4706
525.3275	4766
527.8178	4716
530.3033	4737
532.7881	4898
535.2723	4694
537.7558	4820
540.2407	4817
542.7228	4814
545.2043	4777
547.6851	4784
550.1652	4784
552.6467	4757
555.1255	4744
557.6016	4827
560.079	4941
562.5557	5007
565.0318	4791
567.5092	4818
569.984	4857
572.456	4871
574.9294	4880
577.4022	4913
579.8762	4872
582.3456	5004
584.8163	4892
587.2863	4925
589.7557	4996
592.2224	4957
594.6924	4920
597.1578	4939
599.6245	4935
602.0905	4980
604.5538	4944
607.0206	4935
609.4825	4938
611.9459	4910
614.4066	4904
616.8686	4922
619.33	4978
621.7906	4946
624.2487	5049
626.708	4940
629.1647	4944
631.6207	4935
634.0801	4926
636.5348	4992
638.9888	4976
641.4442	4990
643.8969	4932
646.3509	4991
648.8022	5031
651.255	4998
653.705	5041
656.1544	5027
658.6031	4987
661.0532	4984
663.5026	5169
665.9493	5042
668.3954	5045
670.8409	5125
673.2877	5163
675.7318	5074
678.1752	5206
680.618	5136
683.0601	5162
685.5035	5102
687.9444	5135
690.3845	5192
692.824	5200
695.2628	5037
697.701	5136
700.1406	5243
702.5774	5162
705.0116	5263
707.4472	5257
709.8821	5262
712.3183	5248
714.7519	5196
717.1829	5120
719.6151	5306
722.0468	5198
724.4777	5438
726.908	5285
729.3377	5248
731.7667	5365
734.1931	5330
736.6208	5326
739.0498	5432
741.4742	5335
743.9	5455
746.3231	5352
748.7476	5405
751.1713	5322
753.5945	5473
756.015	5416
758.4368	5511
760.856	5345
763.2766	5598
765.6965	5438
768.1157	5521
770.5323	5493
772.9483	5562
775.3656	5458
777.7822	5564
780.1963	5542
782.6116	5531
785.0244	5489
787.4365	5543
789.8499	5509
792.2626	5511
794.6728	5478
797.0823	5568
799.4911	5594
801.8994	5576
804.3109	5556
806.7178	5618
809.124	5668
811.5297	5628
813.9347	5488
816.341	5519
818.7447	5458
821.1478	5662
823.5502	5489
825.952	5667
828.3531	5648
830.7556	5544
833.1554	5626
835.5546	5627
837.9532	5630
840.3511	5627
842.7504	5601
845.1451	5648
847.5411	5554
849.9365	5749
852.3312	5743
854.7272	5690
857.1187	5652
859.5115	5596
861.9037	5652
864.2952	5623
866.6842	5690
869.0764	5688
871.4661	5632
873.8531	5640
876.2415	5719
878.6272	5686
881.0162	5610
883.4026	5675
885.7866	5590
888.1717	5683
890.5543	5610
892.9382	5649
895.3215	5719
897.7041	5661
900.0842	5626
902.4655	5624
904.8443	5770
907.2244	5659
909.6039	5683
911.9808	5734
914.357	5764
916.7346	5772
919.1115	5789
921.4859	5884
923.8616	5777
926.2347	5788
928.6071	5852
930.979	5818
933.3541	5879
935.7247	5793
938.0946	5776
940.4639	5893
942.8326	5920
945.2026	5957
947.5701	5938
949.9369	5938
952.305	6051
954.6705	6092
957.0355	6104
959.4017	6236
961.7654	6146
964.1284	6271
966.4908	6234
968.8527	6140
971.2138	6003
973.5743	6152
975.9343	6018
978.2936	5933
980.6522	5879
983.0122	5840
985.3696	5861
987.7245	5874
990.0807	5836
992.4362	5839
994.7911	5819
997.1474	5854
999.4991	5789
1001.852	5916
1004.205	5786
1006.555	5852
1008.908	5844
1011.258	5902
1013.606	5828
1015.956	5890
1018.302	5896
1020.652	5956
1022.998	5904
1025.345	5929
1027.691	5892
1030.035	5871
1032.378	5962
1034.724	5884
1037.066	5966
1039.409	5896
1041.75	5927
1044.092	5969
1046.433	5980
1048.771	6077
1051.112	5975
1053.449	5861
1055.786	5869
1058.124	6022
1060.462	5888
1062.797	5973
1065.131	5920
1067.467	5983
1069.8	6080
1072.135	6012
1074.467	5933
1076.798	5985
1079.129	5887
1081.459	6067
1083.792	6014
1086.121	5924
1088.449	6064
1090.777	6025
1093.104	5908
1095.431	6096
1097.759	6034
1100.084	6024
1102.408	5957
1104.732	6063
1107.056	5984
1109.379	6124
1111.701	5990
1114.022	6082
1116.343	6089
1118.664	6042
1120.983	5998
1123.303	6059
1125.621	6031
1127.939	6115
1130.256	6099
1132.573	6015
1134.889	6032
1137.205	6141
1139.52	6029
1141.832	6120
1144.146	6084
1146.461	6059
1148.771	6095
1151.083	6108
1153.392	5901
1155.703	6129
1158.011	6099
1160.323	6076
1162.629	6139
1164.938	6120
1167.243	6101
1169.55	6049
1171.857	6054
1174.163	5963
1176.466	6052
1178.769	6018
1181.073	6172
1183.374	5927
1185.677	6157
1187.979	6129
1190.279	6044
1192.578	6113
1194.878	6044
1197.178	6021
1199.476	6047
1201.772	6120
1204.068	6013
1206.366	6046
1208.663	6027
1210.957	6178
1213.251	6079
1215.544	6134
1217.836	6097
1220.128	6120
1222.421	6077
1224.712	6063
1227.002	6174
1229.292	6109
1231.581	6213
1233.871	6216
1236.159	6139
1238.446	6235
1240.732	6244
1243.018	6182
1245.304	6230
1247.59	6109
1249.874	6323
1252.156	6228
1254.439	6262
1256.721	6310
1259.005	6302
1261.286	6155
1263.565	6261
1265.845	6060
1268.125	6181
1270.403	6153
1272.682	6278
1274.959	6224
1277.234	6200
1279.511	6218
1281.787	6179
1284.062	6180
1286.337	6205
1288.609	6134
1290.882	6122
1293.153	6145
1295.428	6298
1297.698	6240
1299.969	6137
1302.237	6257
1304.507	6213
1306.777	6252
1309.044	6175
1311.312	6251
1313.578	6239
1315.844	6225
1318.109	6229
1320.375	6148
1322.638	6219
1324.903	6129
1327.165	6039
1329.427	6212
1331.69	6331
1333.952	6148
1336.212	6111
1338.471	6278
1340.73	6307
1342.988	6270
1345.248	6246
1347.505	6249
1349.763	6195
1352.019	6156
1354.274	6300
1356.53	6298
1358.784	6154
1361.038	6240
1363.291	6234
1365.543	6284
1367.797	6250
1370.048	6211
1372.296	6235
1374.546	6101
1376.796	6289
1379.045	6169
1381.295	6250
1383.542	6247
1385.787	6222
1388.034	6304
1390.28	6259
1392.527	6219
1394.772	6365
1397.014	6278
1399.258	6183
1401.501	6226
1403.741	6305
1405.985	6367
1408.226	6346
1410.465	6286
1412.705	6391
1414.943	6325
1417.184	6339
1419.42	6352
1421.658	6373
1423.894	6260
1426.13	6337
1428.366	6440
1430.602	6337
1432.835	6352
1435.069	6318
1437.301	6346
1439.535	6433
1441.767	6328
1443.997	6423
1446.229	6456
1448.458	6372
1450.687	6472
1452.916	6463
1455.146	6425
1457.372	6420
1459.599	6337
1461.824	6460
1464.051	6403
1466.277	6460
1468.501	6432
1470.725	6373
1472.948	6409
1475.17	6352
1477.393	6405
1479.614	6260
1481.837	6245
1484.057	6252
1486.276	6308
1488.497	6269
1490.715	6269
1492.932	6220
1495.148	6381
1497.364	6334
1499.58	6214
1501.798	6118
1504.012	6212
1506.227	6194
1508.44	6225
1510.653	6252
1512.866	6188
1515.078	6237
1517.289	6271
1519.5	6189
1521.711	6164
1523.92	6153
1526.13	6298
1528.338	6214
1530.544	6228
1532.752	6085
1534.959	6361
1537.165	6256
1539.371	6265
1541.574	6320
1543.779	6201
1545.983	6279
1548.187	6214
1550.39	6225
1552.59	6252
1554.792	6228
1556.991	6286
1559.19	6201
1561.392	6407
1563.59	6286
1565.789	6328
1567.986	6401
1570.182	6354
1572.381	6314
1574.576	6477
1576.771	6394
1578.966	6379
1581.16	6428
1583.354	6373
1585.546	6388
1587.74	6305
1589.931	6456
1592.121	6374
1594.311	6487
1596.502	6298
1598.693	6392
1600.881	6385
1603.069	6319
1605.256	6451
1607.445	6423
1609.631	6393
1611.816	6381
1614.001	6565
1616.186	6399
1618.37	6444
1620.555	6458
1622.737	6411
1624.919	6425
1627.101	6456
1629.282	6422
1631.463	6461
1633.643	6440
1635.822	6432
1638.001	6419
1640.179	6531
1642.359	6453
1644.534	6605
1646.711	6439
1648.887	6252
1651.062	6500
1653.235	6421
1655.412	6444
1657.586	6347
1659.757	6424
1661.93	6379
1664.1	6429
1666.274	6484
1668.445	6487
1670.614	6475
1672.784	6430
1674.951	6403
1677.12	6403
1679.289	6404
1681.457	6436
1683.622	6455
1685.789	6434
1687.953	6410
1690.121	6466
1692.284	6460
1694.447	6440
1696.611	6453
1698.772	6437
1700.935	6431
1703.098	6399
1705.258	6455
1707.417	6448
1709.576	6451
1711.736	6441
1713.896	6459
1716.053	6509
1718.21	6354
1720.366	6308
1722.522	6336
1724.68	6383
1726.835	6383
1728.989	6420
1731.142	6470
1733.295	6287
1735.449	6259
1737.601	6433
1739.753	6337
1741.903	6403
1744.054	6432
1746.203	6408
1748.354	6323
1750.503	6447
1752.651	6492
1754.798	6408
1756.944	6508
1759.092	6442
1761.238	6346
1763.383	6426
1765.528	6528
1767.672	6369
1769.814	6409
1771.959	6354
1774.102	6523
1776.242	6374
1778.384	6434
1780.525	6389
1782.665	6374
1784.805	6505
1786.945	6556
1789.082	6437
1791.22	6515
1793.36	6589
1795.495	6494
1797.632	6429
1799.766	6536
1801.902	6453
1804.035	6493
1806.172	6452
1808.304	6381
1810.436	6408
1812.569	6476
1814.699	6536
1816.833	6405
1818.963	6518
1821.092	6423
1823.222	6441
1825.35	6479
1827.478	6384
1829.608	6524
1831.734	6348
1833.86	6442
1835.986	6473
1838.11	6376
1840.238	6414
1842.362	6421
1844.485	6419
1846.608	6422
1848.73	6517
1850.853	6379
1852.974	6401
1855.097	6402
1857.217	6520
1859.336	6334
1861.455	6407
1863.576	6340
1865.693	6367
1867.811	6361
1869.926	6461
1872.042	6455
1874.16	6432
1876.275	6451
1878.39	6400
1880.504	6341
1882.618	6469
1884.731	6404
1886.843	6319
1888.956	6326
1891.067	6359
1893.178	6437
1895.287	6436
1897.399	6405
1899.508	6275
1901.617	6435
1903.724	6434
1905.832	6489
1907.941	6418
1910.046	6448
1912.152	6416
1914.256	6467
1916.361	6455
1918.464	6418
1920.57	6472
1922.672	6510
1924.775	6506
1926.876	6433
1928.978	6538
1931.08	6447
1933.181	6351
1935.28	6521
1937.38	6477
1939.478	6512
1941.577	6506
1943.675	6502
1945.771	6441
1947.867	6554
1949.964	6447
1952.058	6520
1954.154	6391
1956.248	6404
1958.343	6492
1960.435	6465
1962.527	6423
1964.62	6502
1966.711	6495
1968.802	6523
1970.892	6318
1972.983	6462
1975.072	6445
1977.162	6416
1979.25	6394
1981.337	6419
1983.424	6339
1985.51	6411
1987.598	6374
1989.683	6403
1991.768	6562
1993.852	6490
1995.934	6422
1998.019	6545
2000.102	6405
2002.184	6394
2004.266	6516
2006.347	6494
2008.427	6379
2010.508	6418
2012.587	6259
2014.666	6414
2016.745	6333
2018.821	6474
2020.9	6345
2022.977	6332
2025.052	6388
2027.128	6481
2029.204	6285
2031.277	6434
2033.353	6428
2035.425	6519
2037.499	6484
2039.57	6400
2041.642	6354
2043.714	6415
2045.786	6409
2047.855	6290
2049.925	6468
2051.993	6355
2054.064	6245
2056.132	6362
2058.2	6352
2060.266	6290
2062.332	6370
2064.398	6407
2066.465	6359
2068.529	6427
2070.592	6433
2072.657	6392
2074.719	6334
2076.783	6433
2078.845	6367
2080.907	6333
2082.968	6289
2085.028	6432
2087.087	6388
2089.148	6449
2091.207	6302
2093.264	6387
2095.322	6393
2097.379	6445
2099.439	6406
2101.495	6338
2103.55	6315
2105.605	6327
2107.658	6366
2109.713	6494
2111.767	6321
2113.82	6391
2115.872	6424
2117.924	6336
2119.975	6370
2122.028	6231
2124.078	6315
2126.126	6387
2128.176	6361
2130.225	6319
2132.275	6352
2134.321	6395
2136.368	6461
2138.415	6423
2140.461	6432
2142.505	6353
2144.552	6314
2146.597	6427
2148.64	6246
2150.684	6329
2152.725	6418
2154.77	6402
2156.811	6313
2158.852	6313
2160.894	6341
2162.933	6295
2164.973	6353
2167.013	6239
2169.051	6244
2171.089	6272
2173.126	6315
2175.164	6326
2177.201	6214
2179.236	6248
2181.273	6296
2183.307	6150
2185.341	6307
2187.377	6197
2189.41	6266
2191.442	6277
2193.473	6261
2195.506	6233
2197.539	6269
2199.569	6231
2201.598	6171
2203.628	6305
2205.656	6208
2207.686	6146
2209.716	6259
2211.743	6162
2213.769	6195
2215.796	6254
2217.821	6170
2219.848	6194
2221.873	6246
2223.897	6220
2225.921	6207
2227.944	6061
2229.967	6191
2231.991	6220
2234.011	6287
2236.032	6241
2238.053	6262
2240.073	6138
2242.094	6210
2244.114	6266
2246.131	6177
2248.149	5984
2250.167	6229
2252.186	6116
2254.201	6118
2256.218	6126
2258.233	6208
2260.247	6095
2262.262	6152
2264.278	6182
2266.29	6249
2268.303	6088
2270.315	6074
2272.327	6250
2274.341	6163
2276.35	6218
2278.361	6157
2280.37	6125
2282.38	6150
2284.388	6204
2286.397	6146
2288.405	6207
2290.412	6193
2292.419	6195
2294.425	6158
2296.431	6205
2298.437	6168
2300.441	6297
2302.445	6103
2304.449	6246
2306.453	6112
2308.455	6076
2310.457	6086
2312.459	6138
2314.46	6067
2316.46	6085
2318.461	6049
2320.46	6149
2322.458	6115
2324.458	6127
2326.456	6174
2328.455	6003
2330.451	6033
2332.447	6045
2334.443	5959
2336.438	6067
2338.433	6081
2340.429	6113
2342.422	6087
2344.416	5998
2346.408	6090
2348.399	6072
2350.393	5972
2352.384	6028
2354.375	6115
2356.365	5984
2358.355	5896
2360.344	6025
2362.333	6029
2364.322	6008
2366.309	6058
2368.295	6104
2370.282	6025
2372.27	5971
2374.256	5892
2376.24	5936
2378.225	5975
2380.208	5947
2382.194	5961
2384.177	5953
2386.159	5981
2388.142	5955
2390.122	5997
2392.105	5864
2394.085	5899
2396.066	6049
2398.044	5882
2400.024	5895
2402.002	5995
2403.982	5923
2405.959	5917
2407.935	5890
2409.913	5956
2411.888	5889
2413.865	5983
2415.84	5789
2417.814	5912
2419.788	5911
2421.762	5912
2423.735	5872
2425.708	5928
2427.68	5959
2429.651	5929
2431.623	5994
2433.593	5874
2435.564	5906
2437.533	5930
2439.502	5908
2441.47	5912
2443.438	5883
2445.406	5839
2447.373	5841
2449.34	5953
2451.305	5771
2453.271	5848
2455.235	5843
2457.201	5856
2459.165	5895
2461.129	5801
2463.092	5867
2465.054	5777
2467.018	5714
2468.978	5926
2470.939	5751
2472.899	5834
2474.86	5826
2476.819	5783
2478.778	5761
2480.737	5826
2482.695	5792
2484.653	5774
2486.609	5730
2488.567	5838
2490.524	5729
2492.478	5702
2494.433	5799
2496.387	5791
2498.343	5852
2500.297	5859
2502.249	5773
2504.202	5736
2506.153	5906
2508.105	5742
2510.057	5797
2512.008	5896
2513.957	5779
2515.906	5801
2517.855	5853
2519.805	5725
2521.754	5698
2523.7	5614
2525.647	5723
2527.594	5682
2529.54	5819
2531.486	5800
2533.431	5805
2535.376	5799
2537.32	5834
2539.263	5711
2541.207	5591
2543.151	5785
2545.093	5782
2547.034	5786
2548.975	5663
2550.917	5764
2552.856	5700
2554.796	5783
2556.735	5733
2558.673	5782
2560.611	5786
2562.55	5693
2564.487	5760
2566.424	5753
2568.36	5713
2570.296	5684
2572.232	5680
2574.167	5721
2576.101	5737
2578.035	5713
2579.969	5718
2581.902	5656
2583.834	5776
2585.766	5654
2587.698	5710
2589.628	5846
2591.557	5722
2593.489	5703
2595.419	5698
2597.348	5664
2599.275	5710
2601.204	5702
2603.131	5687
2605.059	5824
2606.986	5655
2608.911	5658
2610.837	5754
2612.76	5742
2614.687	5749
2616.61	5747
2618.534	5798
2620.457	5744
2622.38	5712
2624.302	5702
2626.225	5762
2628.145	5829
2630.067	5741
2631.986	5741
2633.906	5725
2635.827	5701
2637.745	5698
2639.662	5793
2641.581	5687
2643.498	5642
2645.415	5728
2647.331	5729
2649.248	5803
2651.163	5736
2653.077	5781
2654.993	5737
2656.906	5684
2658.821	5822
2660.733	5642
2662.646	5740
2664.557	5598
2666.47	5679
2668.381	5668
2670.291	5776
2672.201	5706
2674.11	5687
2676.021	5697
2677.929	5600
2679.837	5609
2681.745	5681
2683.652	5664
2685.56	5540
2687.466	5577
2689.371	5680
2691.276	5542
2693.181	5676
2695.085	5657
2696.991	5542
2698.893	5669
2700.796	5503
2702.698	5663
2704.601	5628
2706.502	5613
2708.404	5590
2710.304	5635
2712.203	5690
2714.103	5464
2716.003	5511
2717.902	5574
2719.8	5543
2721.697	5543
2723.594	5587
2725.49	5650
2727.389	5544
2729.283	5579
2731.179	5591
2733.073	5529
2734.968	5583
2736.863	5525
2738.757	5594
2740.649	5547
2742.541	5561
2744.433	5532
2746.324	5561
2748.216	5540
2750.107	5536
2751.997	5563
2753.886	5461
2755.776	5459
2757.666	5606
2759.553	5518
2761.44	5565
2763.327	5531
2765.215	5579
2767.102	5442
2768.988	5477
2770.873	5494
2772.757	5604
2774.641	5433
2776.525	5473
2778.41	5497
2780.292	5461
2782.175	5486
2784.057	5504
2785.938	5445
2787.821	5565
2789.701	5535
2791.581	5492
2793.461	5471
2795.34	5438
2797.219	5475
2799.099	5432
2800.975	5522
2802.853	5469
2804.73	5468
2806.606	5556
2808.484	5511
2810.358	5428
2812.233	5465
2814.108	5488
2815.981	5455
2817.857	5411
2819.73	5444
2821.602	5525
2823.474	5348
2825.346	5488
2827.217	5424
2829.089	5407
2830.959	5430
2832.829	5324
2834.698	5452
2836.567	5372
2838.436	5428
2840.305	5357
2842.172	5393
2844.04	5390
2845.905	5412
2847.772	5408
2849.639	5415
2851.503	5396
2853.369	5436
2855.232	5374
2857.096	5311
2858.961	5431
2860.824	5365
2862.686	5388
2864.547	5450
2866.41	5437
2868.272	5479
2870.132	5505
2871.992	5422
2873.851	5425
2875.711	5406
2877.57	5469
2879.429	5455
2881.287	5613
2883.144	5541
2885.001	5543
2886.857	5437
2888.714	5519
2890.57	5496
2892.425	5506
2894.279	5611
2896.133	5547
2897.987	5543
2899.842	5576
2901.694	5529
2903.547	5422
2905.397	5448
2907.249	5591
2909.101	5460
2910.952	5645
2912.802	5441
2914.652	5492
2916.5	5485
2918.35	5682
2920.198	5607
2922.045	5525
2923.893	5477
2925.74	5590
2927.585	5591
2929.433	5544
2931.279	5603
2933.123	5716
2934.968	5730
2936.811	5747
2938.656	5740
2940.5	5740
2942.342	5805
2944.185	5727
2946.026	5793
2947.87	5658
2949.71	5703
2951.549	5596
2953.39	5608
2955.229	5645
2957.069	5595
2958.908	5604
2960.746	5617
2962.584	5649
2964.421	5555
2966.257	5507
2968.094	5641
2969.931	5521
2971.766	5542
2973.601	5491
2975.435	5430
2977.27	5554
2979.105	5471
2980.938	5363
2982.77	5395
2984.602	5369
2986.434	5417
2988.267	5395
2990.097	5349
2991.927	5357
2993.757	5331
2995.587	5424
2997.417	5340
2999.246	5287
3001.074	5194
3002.902	5313
3004.729	5294
3006.556	5256
3008.384	5251
3010.21	5184
3012.036	5249
3013.861	5202
3015.684	5173
3017.51	5039
3019.334	5144
3021.157	5035
3022.981	5091
3024.802	5108
3026.624	5101
3028.448	5102
3030.267	5127
3032.088	5039
3033.909	5063
3035.728	5006
3037.549	5019
3039.368	5027
3041.186	4952
3043.004	5036
3044.821	5045
3046.64	4927
3048.455	5014
3050.272	4998
3052.087	4980
3053.903	4891
3055.717	4991
3057.534	4989
3059.347	4919
3061.16	4996
3062.974	4999
3064.785	4901
3066.598	5034
3068.411	4964
3070.222	4936
3072.032	4993
3073.844	4991
3075.653	4946
3077.463	5003
3079.272	4891
3081.08	4950
3082.889	4976
3084.697	4933
3086.505	4926
3088.312	4928
3090.118	4975
3091.924	4900
3093.729	4807
3095.535	4865
3097.34	4895
3099.144	4809
3100.947	4827
3102.75	4867
3104.553	4874
3106.357	4879
3108.159	4816
3109.961	4870
3111.762	4935
3113.562	4889
3115.365	4898
3117.164	4774
3118.964	4851
3120.761	4807
3122.56	4774
3124.36	4781
3126.158	4867
3127.954	4823
3129.75	4572
3131.547	4754
3133.343	4777
3135.139	4743
3136.934	4804
3138.729	4680
3140.522	4750
3142.317	4755
3144.11	4737
3145.904	4798
3147.695	4768
3149.488	4677
3151.28	4748
3153.07	4699
3154.863	4678
3156.652	4708
3158.441	4709
3160.231	4703
3162.019	4601
3163.81	4733
3165.597	4652
3167.384	4653
3169.172	4730
3170.958	4682
3172.745	4760
3174.532	4621
3176.317	4672
3178.101	4746
3179.885	4717
3181.67	4604
3183.455	4575
3185.238	4576
3187.02	4563
3188.802	4726
3190.585	4569
3192.368	4528
3194.149	4571
3195.929	4632
3197.709	4636
3199.489	4597
3201.268	4664
3203.048	4604
3204.826	4501
3206.604	4662
3208.382	4575
3210.159	4611
3211.937	4558
3213.713	4579
3215.489	4651
3217.263	4616
3219.038	4654
3220.815	4477
3222.589	4489
3224.363	4531
3226.136	4521
3227.908	4579
3229.681	4589
3231.454	4569
3233.226	4565
3234.996	4487
3236.767	4549
3238.538	4540
3240.308	4484
3242.078	4517
3243.847	4504
3245.615	4572
3247.384	4524
3249.15	4544
3250.92	4519
3252.686	4492
3254.453	4478
3256.218	4489
3257.984	4484
3259.75	4530
3261.515	4634
3263.279	4525
3265.044	4523
3266.806	4456
3268.57	4506
3270.334	4479
3272.095	4449
3273.856	4452
3275.619	4539
3277.379	4504
3279.14	4517
3280.9	4423
3282.661	4564
3284.419	4566
3286.178	4479
3287.937	4579
3289.695	4420
3291.453	4482
3293.21	4396
3294.967	4465
3296.723	4530
3298.48	4463
3300.235	4412
3301.99	4463
3303.744	4476
3305.498	4474
3307.253	4400
3309.006	4445
3310.759	4419
3312.511	4434
3314.263	4518
3316.017	4373
3317.768	4458
3319.519	4435
3321.268	4444
3323.018	4386
3324.767	4406
3326.518	4384
3328.267	4490
3330.014	4460
3331.762	4509
3333.509	4327
3335.258	4385
3337.003	4392
3338.75	4422
3340.496	4432
3342.24	4390
3343.987	4468
3345.732	4435
3347.475	4397
3349.219	4311
3350.961	4382
3352.705	4416
3354.448	4325
3356.19	4277
3357.931	4404
3359.672	4338
3361.412	4360
3363.155	4340
3364.894	4294
3366.633	4372
3368.372	4475
3370.11	4385
3371.849	4301
3373.588	4390
3375.325	4367
3377.061	4291
3378.799	4321
3380.534	4415
3382.271	4361
3384.006	4321
3385.741	4297
3387.475	4319
3389.209	4334
3390.944	4340
3392.677	4298
3394.409	4235
3396.143	4282
3397.874	4306
3399.606	4331
3401.338	4312
3403.069	4324
3404.799	4321
3406.528	4254
3408.258	4294
3409.988	4251
3411.717	4281
3413.445	4273
3415.173	4329
3416.899	4256
3418.626	4227
3420.354	4325
3422.08	4176
3423.806	4327
3425.531	4250
3427.255	4198
3428.981	4258
3430.705	4179
3432.429	4265
3434.151	4221
3435.875	4169
3437.599	4221
3439.321	4197
3441.042	4183
3442.763	4161
3444.483	4210
3446.204	4228
3447.926	4195
3449.645	4170
3451.364	4230
3453.082	4180
3454.801	4088
3456.52	4225
3458.238	4166
3459.954	4175
3461.671	4189
3463.387	4084
3465.104	4112
3466.82	4167
3468.534	4204
3470.25	4287
3471.963	4048
3473.676	4094
3475.392	4084
3477.104	4126
3478.817	4083
3480.528	4120
3482.241	4043
3483.954	4054
3485.664	4070
3487.374	4053
3489.084	3967
3490.795	4025
3492.504	4025
3494.214	4058
3495.922	4039
3497.63	3973
3499.338	4060
3501.045	4022
3502.753	4064
3504.459	3985
3506.166	3934
3507.871	4078
3509.576	3920
3511.283	4017
3512.987	3846
3514.691	3957
3516.395	4028
3518.098	4024
3519.8	3991
3521.504	3946
3523.206	3952
3524.908	3998
3526.609	3928
3528.309	3948
3530.011	4001
3531.711	3956
3533.411	3934
3535.109	3928
3536.808	3953
3538.507	4071
3540.206	3922
3541.904	3857
3543.601	3924
3545.297	3881
3546.994	3959
3548.69	3883
3550.387	3914
3552.081	4015
3553.776	3921
3555.47	3948
3557.166	3885
3558.859	3945
3560.553	3938
3562.245	3832
3563.938	3923
3565.629	3900
3567.322	3884
3569.014	3896
3570.704	3953
3572.394	3930
3574.084	3822
3575.775	3874
3577.464	3909
3579.152	3857
3580.842	3836
3582.529	3854
3584.216	3891
3585.905	3792
3587.591	3862
3589.279	3874
3590.964	3762
3592.649	3859
3594.336	3790
3596.021	3840
3597.705	3778
3599.388	3888
3601.072	3758
3602.757	3822
3604.439	3816
3606.122	3750
3607.803	3835
3609.485	3807
3611.167	3835
3612.849	3759
3614.529	3794
3616.208	3769
3617.888	3781
3619.567	3758
3621.247	3739
3622.926	3680
3624.603	3709
3626.281	3699
3627.958	3744
3629.635	3724
3631.312	3679
3632.989	3748
3634.665	3735
3636.339	3742
3638.014	3747
3639.691	3673
3641.364	3661
3643.038	3658
3644.71	3707
3646.384	3658
3648.058	3689
3649.729	3763
3651.402	3649
3653.073	3698
3654.744	3642
3656.414	3705
3658.085	3667
3659.755	3763
3661.424	3645
3663.094	3617
3664.762	3636
3666.431	3649
3668.099	3648
3669.766	3728
3671.433	3639
3673.099	3590
3674.768	3672
3676.433	3606
3678.098	3548
3679.763	3670
3681.428	3664
3683.093	3587
3684.757	3630
3686.421	3603
3688.083	3590
3689.746	3640
3691.408	3637
3693.071	3544
3694.733	3591
3696.394	3629
3698.054	3649
3699.715	3612
3701.375	3545
3703.036	3550
3704.695	3584
3706.354	3596
3708.012	3615
3709.67	3712
3711.329	3582
3712.987	3598
3714.644	3544
3716.299	3534
3717.955	3593
3719.613	3587
3721.268	3469
3722.923	3548
3724.577	3516
3726.231	3595
3727.885	3553
3729.539	3583
3731.192	3606
3732.845	3547
3734.497	3541
3736.149	3540
3737.802	3542
3739.453	3543
3741.104	3562
3742.753	3488
3744.404	3548
3746.052	3520
3747.704	3509
3749.352	3441
3751	3486
3752.648	3470
3754.296	3538
3755.944	3578
3757.59	3507
3759.238	3505
3760.883	3468
3762.528	3509
3764.176	3475
3765.82	3473
3767.464	3467
3769.109	3487
3770.753	3496
3772.396	3482
3774.04	3457
3775.683	3412
3777.325	3441
3778.967	3407
3780.608	3481
3782.25	3424
3783.89	3456
3785.531	3402
3787.17	3400
3788.81	3465
3790.45	3478
3792.09	3389
3793.729	3404
3795.366	3443
3797.003	3410
3798.64	3415
3800.278	3336
3801.915	3408
3803.551	3448
3805.187	3473
3806.822	3460
3808.458	3428
3810.093	3339
3811.726	3340
3813.36	3385
3814.994	3411
3816.627	3430
3818.262	3356
3819.893	3376
3821.525	3393
3823.157	3444
3824.787	3331
3826.42	3380
3828.051	3293
3829.68	3355
3831.31	3338
3832.938	3338
3834.569	3302
3836.198	3345
3837.825	3317
3839.454	3284
3841.08	3340
3842.708	3270
3844.335	3297
3845.962	3264
3847.587	3338
3849.212	3302
3850.838	3222
3852.463	3270
3854.089	3261
3855.712	3301
3857.335	3246
3858.959	3265
3860.582	3329
3862.205	3300
3863.827	3277
3865.449	3276
3867.07	3245
3868.691	3256
3870.312	3260
3871.933	3234
3873.553	3186
3875.173	3259
3876.792	3235
3878.411	3228
3880.03	3264
3881.647	3257
3883.265	3286
3884.882	3246
3886.499	3281
3888.116	3200
3889.732	3236
3891.348	3254
3892.964	3172
3894.579	3153
3896.195	3205
3897.809	3184
3899.423	3200
3901.036	3233
3902.648	3205
3904.261	3231
3905.875	3191
3907.487	3150
3909.099	3191
3910.709	3209
3912.321	3165
3913.933	3235
3915.542	3242
3917.152	3189
3918.762	3143
3920.37	3148
3921.98	3208
3923.589	3151
3925.196	3170
3926.804	3268
3928.41	3231
3930.018	3210
3931.626	3187
3933.231	3201
3934.838	3152
3936.442	3209
3938.046	3198
3939.653	3191
3941.257	3108
3942.861	3151
3944.464	3168
3946.068	3186
3947.67	3177
3949.273	3102
3950.876	3175
3952.477	3187
3954.078	3147
3955.678	3084
3957.281	3070
3958.881	3130
3960.48	3095
3962.079	3157
3963.678	3117
3965.279	3158
3966.877	3156
3968.475	3086
3970.072	3101
3971.669	3145
3973.266	3131
3974.864	3083
3976.459	3125
3978.055	3061
3979.65	3037
3981.245	3045
3982.841	3104
3984.436	3086
3986.03	3001
3987.623	3053
3989.216	3061
3990.809	3003
3992.403	2973
3993.995	3030
3995.586	3027
3997.177	3035
3998.768	2985
4000.361	3119
4001.951	2988
4003.54	3036
4005.13	3011
4006.719	3002
4008.31	3040
4009.897	2984
4011.485	2927
4013.073	2977
4014.66	2957
4016.247	3016
4017.834	2946
4019.421	2938
4021.006	2964
4022.592	2982
4024.178	2981
4025.763	2974
4027.348	2998
4028.932	2911
4030.515	2963
4032.099	2945
4033.682	2987
4035.266	2903
4036.847	2832
4038.429	2962
4040.011	2921
4041.592	2953
4043.173	2970
4044.755	2915
4046.334	2904
4047.913	2934
4049.494	2862
4051.074	2876
4052.652	2932
4054.23	2908
4055.807	2965
4057.385	2895
4058.963	2873
4060.541	2857
4062.117	2949
4063.693	2871
4065.269	2885
4066.844	2838
4068.42	2875
4069.995	2891
4071.569	2928
4073.143	2893
4074.716	2818
4076.291	2853
4077.864	2908
4079.436	2831
4081.009	2798
4082.58	2925
4084.152	2841
4085.723	2855
4087.294	2850
4088.865	2824
4090.435	2838
4092.005	2856
4093.574	2834
4095.143	2839
4096.712	2808
4098.279	2805
4099.848	2832
4101.416	2812
4102.984	2824
4104.55	2839
4106.117	2852
4107.682	2818
4109.248	2837
4110.815	2809
4112.379	2805
4113.945	2818
4115.508	2843
4117.073	2751
4118.637	2780
4120.201	2760
4121.763	2803
4123.325	2758
4124.888	2804
4126.449	2703
4128.013	2770
4129.573	2839
4131.133	2678
4132.694	2730
4134.254	2752
4135.814	2730
4137.374	2747
4138.933	2718
4140.491	2783
4142.049	2667
4143.607	2789
4145.167	2732
4146.724	2747
4148.28	2709
4149.836	2744
4151.392	2703
4152.949	2717
4154.504	2725
4156.059	2709
4157.614	2668
4159.168	2723
4160.723	2702
4162.277	2695
4163.83	2711
4165.383	2737
4166.936	2617
4168.488	2692
4170.041	2671
4171.593	2674
4173.144	2676
4174.695	2646
4176.246	2705
4177.796	2670
4179.346	2675
4180.896	2666
4182.445	2636
4183.994	2634
4185.542	2610
4187.091	2634
4188.639	2653
4190.185	2683
4191.732	2556
4193.279	2627
4194.826	2688
4196.373	2637
4197.918	2657
4199.463	2609
4201.008	2589
4202.553	2663
4204.098	2609
4205.641	2596
4207.185	2625
4208.728	2689
4210.271	2617
4211.814	2591
4213.357	2596
4214.898	2521
4216.439	2596
4217.98	2622
4219.522	2616
4221.062	2546
4222.603	2579
4224.142	2612
4225.681	2637
4227.222	2595
4228.76	2580
4230.298	2613
4231.835	2535
4233.373	2516
4234.911	2583
4236.449	2596
4237.985	2545
4239.521	2594
4241.057	2620
4242.592	2541
4244.128	2532
4245.663	2590
4247.197	2574
4248.731	2540
4250.265	2569
4251.798	2518
4253.333	2601
4254.865	2532
4256.397	2514
4257.93	2493
4259.461	2565
4260.994	2488
4262.525	2559
4264.056	2578
4265.586	2507
4267.115	2507
4268.646	2495
4270.176	2537
4271.705	2537
4273.232	2533
4274.761	2564
4276.289	2520
4277.818	2536
4279.345	2496
4280.872	2514
4282.399	2466
4283.924	2575
4285.452	2411
4286.976	2528
4288.502	2461
4290.026	2520
4291.551	2476
4293.074	2469
4294.6	2461
4296.123	2475
4297.646	2442
4299.168	2454
4300.691	2494
4302.214	2481
4303.736	2462
4305.257	2481
4306.778	2428
4308.299	2460
4309.82	2444
4311.34	2477
4312.86	2414
4314.379	2485
