400.0745	4110
402.597	4129
405.1208	4241
407.6419	4203
410.1623	4253
412.6819	4201
415.201	4178
417.7172	4353
420.2369	4300
422.7538	4393
425.2701	4449
427.7856	4497
430.3005	4532
432.8147	4463
435.3282	4568
437.841	4347
440.3511	4509
442.8625	4575
445.3753	4465
447.8854	4489
450.3927	4437
452.9014	4554
455.4073	4445
457.9146	4480
460.4233	4506
462.9272	4476
465.4325	4470
467.935	4394
470.4389	4444
472.9421	4399
475.4446	4447
477.9444	4355
480.4456	4399
482.944	4451
485.4417	4397
487.9429	4433
490.4393	4369
492.935	4488
495.4321	4458
497.9264	4482
500.4221	4477
502.9171	4474
505.4094	4519
507.9011	4458
510.392	4439
512.8864	4499
515.3759	4539
517.8649	4489
520.3531	4497
522.8406	4438
525.3275	4596
527.8178	4654
530.3033	4572
532.7881	4577
535.2723	4662
537.7558	4601
540.2407	4476
542.7228	4633
545.2043	4517
547.6851	4561
550.1652	4629
552.6467	4528
555.1255	4550
557.6016	4659
560.079	4559
562.5557	4690
565.0318	4670
567.5092	4768
569.984	4739
572.456	4741
574.9294	4679
577.4022	4850
579.8762	4906
582.3456	4888
584.8163	4816
587.2863	4823
589.7557	4998
592.2224	4907
594.6924	4852
597.1578	4886
599.6245	4832
602.0905	4762
604.5538	4738
607.0206	4778
609.4825	4792
611.9459	4782
614.4066	4767
616.8686	4804
619.33	4816
621.7906	4699
624.2487	4735
626.708	4684
629.1647	4675
631.6207	4669
634.0801	4629
636.5348	4547
638.9888	4620
641.4442	4743
643.8969	4682
646.3509	4687
648.8022	4729
651.255	4754
653.705	4739
656.1544	4718
658.6031	4790
661.0532	4828
663.5026	4758
665.9493	4707
668.3954	4785
670.8409	4844
673.2877	4768
675.7318	4892
678.1752	4816
680.618	4785
683.0601	4774
685.5035	4828
687.9444	4846
690.3845	4911
692.824	4898
695.2628	4884
697.701	4824
700.1406	4953
702.5774	4807
705.0116	4768
707.4472	4921
709.8821	4917
712.3183	4885
714.7519	4898
717.1829	4999
719.6151	5082
722.0468	4905
724.4777	5003
726.908	5019
729.3377	5015
731.7667	5042
734.1931	5083
736.6208	5038
739.0498	4982
741.4742	5096
743.9	5083
746.3231	5052
748.7476	5097
751.1713	5145
753.5945	5230
756.015	5188
758.4368	5174
760.856	5155
763.2766	5202
765.6965	5189
768.1157	5158
770.5323	5227
772.9483	5163
775.3656	5146
777.7822	5265
780.1963	5209
782.6116	5172
785.0244	5194
787.4365	5228
789.8499	5216
792.2626	5224
794.6728	5191
797.0823	5240
799.4911	5185
801.8994	5294
804.3109	5143
806.7178	5145
809.124	5311
811.5297	5359
813.9347	5285
816.341	5376
818.7447	5299
821.1478	5350
823.5502	5308
825.952	5281
828.3531	5278
830.7556	5294
833.1554	5267
835.5546	5309
837.9532	5371
840.3511	5305
842.7504	5356
845.1451	5380
847.5411	5519
849.9365	5531
852.3312	5424
854.7272	5482
857.1187	5451
859.5115	5526
861.9037	5528
864.2952	5491
866.6842	5456
869.0764	5436
871.4661	5411
873.8531	5413
876.2415	5461
878.6272	5486
881.0162	5401
883.4026	5470
885.7866	5444
888.1717	5352
890.5543	5324
892.9382	5346
895.3215	5371
897.7041	5439
900.0842	5453
902.4655	5513
904.8443	5412
907.2244	5523
909.6039	5431
911.9808	5568
914.357	5594
916.7346	5547
919.1115	5589
921.4859	5651
923.8616	5689
926.2347	5624
928.6071	5710
930.979	5768
933.3541	5787
935.7247	5817
938.0946	5752
940.4639	5913
942.8326	6027
945.2026	6145
947.5701	6365
949.9369	6638
952.305	6741
954.6705	7237
957.0355	7550
959.4017	7966
961.7654	8053
964.1284	8086
966.4908	7820
968.8527	7350
971.2138	6713
973.5743	6454
975.9343	6174
978.2936	5968
980.6522	5809
983.0122	5838
985.3696	5769
987.7245	5648
990.0807	5614
992.4362	5522
994.7911	5621
997.1474	5597
999.4991	5737
1001.852	5665
1004.205	5776
1006.555	5684
1008.908	5619
1011.258	5640
1013.606	5654
1015.956	5740
1018.302	5800
1020.652	5698
1022.998	5738
1025.345	5858
1027.691	5741
1030.035	5799
1032.378	5760
1034.724	5733
1037.066	5827
1039.409	5820
1041.75	5717
1044.092	5844
1046.433	5755
1048.771	5920
1051.112	5812
1053.449	5807
1055.786	5845
1058.124	5749
1060.462	5972
1062.797	5848
1065.131	5825
1067.467	5960
1069.8	6090
1072.135	5966
1074.467	6022
1076.798	6008
1079.129	5997
1081.459	5775
1083.792	5874
1086.121	5819
1088.449	5838
1090.777	5802
1093.104	5781
1095.431	5781
1097.759	5667
1100.084	5789
1102.408	5830
1104.732	5839
1107.056	5872
1109.379	5793
1111.701	5716
1114.022	5774
1116.343	5746
1118.664	5617
1120.983	5714
1123.303	5677
1125.621	5634
1127.939	5793
1130.256	5678
1132.573	5635
1134.889	5856
1137.205	5594
1139.52	5785
1141.832	5705
1144.146	5681
1146.461	5726
1148.771	5717
1151.083	5615
1153.392	5686
1155.703	5648
1158.011	5681
1160.323	5703
1162.629	5738
1164.938	5723
1167.243	5777
1169.55	5750
1171.857	5800
1174.163	5705
1176.466	5696
1178.769	5758
1181.073	5842
1183.374	5674
1185.677	5707
1187.979	5807
1190.279	5632
1192.578	5697
1194.878	5653
1197.178	5788
1199.476	5770
1201.772	5750
1204.068	5768
1206.366	5812
1208.663	5702
1210.957	5809
1213.251	5712
1215.544	5668
1217.836	5800
1220.128	5755
1222.421	5705
1224.712	5820
1227.002	5858
1229.292	5843
1231.581	5901
1233.871	5957
1236.159	5890
1238.446	5924
1240.732	6096
1243.018	5932
1245.304	6042
1247.59	5935
1249.874	5994
1252.156	6021
1254.439	6037
1256.721	5968
1259.005	5926
1261.286	5972
1263.565	5982
1265.845	5981
1268.125	6108
1270.403	5982
1272.682	6042
1274.959	5868
1277.234	6051
1279.511	5973
1281.787	5893
1284.062	5997
1286.337	5816
1288.609	5852
1290.882	5784
1293.153	5864
1295.428	5875
1297.698	5955
1299.969	5817
1302.237	5899
1304.507	5886
1306.777	5892
1309.044	5902
1311.312	5722
1313.578	5910
1315.844	5893
1318.109	5857
1320.375	5902
1322.638	5788
1324.903	5910
1327.165	5862
1329.427	5947
1331.69	5904
1333.952	5965
1336.212	5868
1338.471	5876
1340.73	5888
1342.988	5835
1345.248	5761
1347.505	5943
1349.763	5863
1352.019	5777
1354.274	5792
1356.53	5909
1358.784	5746
1361.038	5831
1363.291	5775
1365.543	5802
1367.797	5929
1370.048	5802
1372.296	5835
1374.546	5783
1376.796	5940
1379.045	5911
1381.295	5856
1383.542	5890
1385.787	5866
1388.034	5884
1390.28	5899
1392.527	5899
1394.772	6036
1397.014	5909
1399.258	5925
1401.501	5876
1403.741	5902
1405.985	5945
1408.226	6078
1410.465	5943
1412.705	6065
1414.943	5888
1417.184	6009
1419.42	5960
1421.658	6008
1423.894	6088
1426.13	6075
1428.366	6048
1430.602	6065
1432.835	6048
1435.069	6050
1437.301	6107
1439.535	6087
1441.767	6035
1443.997	6021
1446.229	6089
1448.458	6097
1450.687	6211
1452.916	6173
1455.146	6194
1457.372	6183
1459.599	6263
1461.824	6125
1464.051	6251
1466.277	6148
1468.501	6087
1470.725	6046
1472.948	6117
1475.17	5984
1477.393	6015
1479.614	5943
1481.837	5984
1484.057	5976
1486.276	5928
1488.497	5954
1490.715	5945
1492.932	5877
1495.148	5793
1497.364	5803
1499.58	5777
1501.798	5775
1504.012	5870
1506.227	5885
1508.44	5790
1510.653	5826
1512.866	5809
1515.078	5765
1517.289	5735
1519.5	5746
1521.711	5698
1523.92	5821
1526.13	5701
1528.338	5757
1530.544	5761
1532.752	5804
1534.959	5740
1537.165	5812
1539.371	5818
1541.574	5869
1543.779	5745
1545.983	5772
1548.187	5694
1550.39	5875
1552.59	5903
1554.792	5789
1556.991	5845
1559.19	5817
1561.392	5832
1563.59	5836
1565.789	5968
1567.986	5840
1570.182	5925
1572.381	5932
1574.576	5897
1576.771	5949
1578.966	5899
1581.16	5903
1583.354	5890
1585.546	5893
1587.74	5968
1589.931	6037
1592.121	5872
1594.311	5987
1596.502	6115
1598.693	5986
1600.881	6022
1603.069	6002
1605.256	5963
1607.445	5981
1609.631	5923
1611.816	6011
1614.001	5962
1616.186	5983
1618.37	6048
1620.555	6012
1622.737	6105
1624.919	6073
1627.101	5998
1629.282	6150
1631.463	6103
1633.643	6039
1635.822	6111
1638.001	6088
1640.179	6104
1642.359	6097
1644.534	6033
1646.711	6131
1648.887	6094
1651.062	6127
1653.235	6166
1655.412	6117
1657.586	6152
1659.757	6252
1661.93	6233
1664.1	6305
1666.274	6207
1668.445	6215
1670.614	6217
1672.784	6240
1674.951	6185
1677.12	6177
1679.289	6196
1681.457	6107
1683.622	6266
1685.789	6206
1687.953	6223
1690.121	6204
1692.284	6163
1694.447	6072
1696.611	6088
1698.772	6152
1700.935	5926
1703.098	6099
1705.258	5938
1707.417	6006
1709.576	5859
1711.736	5963
1713.896	5897
1716.053	6010
1718.21	5924
1720.366	5828
1722.522	5876
1724.68	5955
1726.835	5902
1728.989	6045
1731.142	5960
1733.295	5854
1735.449	5968
1737.601	5804
1739.753	5946
1741.903	5911
1744.054	5893
1746.203	5866
1748.354	5813
1750.503	5981
1752.651	5892
1754.798	5881
1756.944	5888
1759.092	5801
1761.238	5906
1763.383	5930
1765.528	5896
1767.672	5981
1769.814	5969
1771.959	5835
1774.102	5991
1776.242	6016
1778.384	5953
1780.525	5999
1782.665	5948
1784.805	5948
1786.945	5977
1789.082	5970
1791.22	6011
1793.36	5978
1795.495	5897
1797.632	5889
1799.766	5938
1801.902	5928
1804.035	6031
1806.172	5932
1808.304	5964
1810.436	6050
1812.569	6056
1814.699	6063
1816.833	5963
1818.963	5981
1821.092	6028
1823.222	5850
1825.35	5906
1827.478	5898
1829.608	5864
1831.734	5952
1833.86	5930
1835.986	5860
1838.11	5848
1840.238	5966
1842.362	5918
1844.485	5862
1846.608	5952
1848.73	5861
1850.853	5936
1852.974	5934
1855.097	5860
1857.217	5852
1859.336	5937
1861.455	5852
1863.576	5870
1865.693	5862
1867.811	5844
1869.926	5863
1872.042	5911
1874.16	5902
1876.275	5913
1878.39	5891
1880.504	5986
1882.618	5911
1884.731	5950
1886.843	5908
1888.956	5868
1891.067	5879
1893.178	5853
1895.287	5892
1897.399	5977
1899.508	5920
1901.617	5992
1903.724	5861
1905.832	6027
1907.941	6065
1910.046	5957
1912.152	5883
1914.256	5996
1916.361	6041
1918.464	5922
1920.57	5968
1922.672	5984
1924.775	5996
1926.876	5988
1928.978	5963
1931.08	5934
1933.181	5926
1935.28	6037
1937.38	5988
1939.478	5961
1941.577	5988
1943.675	6017
1945.771	5950
1947.867	5985
1949.964	5987
1952.058	6084
1954.154	6054
1956.248	5979
1958.343	5898
1960.435	5945
1962.527	6022
1964.62	5982
1966.711	5961
1968.802	5970
1970.892	6002
1972.983	5940
1975.072	5951
1977.162	5974
1979.25	6060
1981.337	5974
1983.424	6104
1985.51	6017
1987.598	5848
1989.683	6052
1991.768	5925
1993.852	5919
1995.934	5896
1998.019	5914
2000.102	5844
2002.184	5900
2004.266	5853
2006.347	5826
2008.427	5982
2010.508	5926
2012.587	5947
2014.666	5904
2016.745	5861
2018.821	5930
2020.9	5917
2022.977	5898
2025.052	5960
2027.128	5884
2029.204	5764
2031.277	5900
2033.353	6032
2035.425	5930
2037.499	5924
2039.57	5985
2041.642	5859
2043.714	5855
2045.786	5917
2047.855	5873
2049.925	5888
2051.993	5810
2054.064	5915
2056.132	5868
2058.2	6000
2060.266	5922
2062.332	5868
2064.398	5875
2066.465	5911
2068.529	5940
2070.592	5949
2072.657	5939
2074.719	5821
2076.783	5804
2078.845	5964
2080.907	6057
2082.968	5885
2085.028	5794
2087.087	5907
2089.148	5946
2091.207	5871
2093.264	5901
2095.322	5992
2097.379	5860
2099.439	5945
2101.495	5944
2103.55	5937
2105.605	5967
2107.658	5882
2109.713	5911
2111.767	5818
2113.82	5856
2115.872	5842
2117.924	5928
2119.975	5896
2122.028	5916
2124.078	5876
2126.126	5964
2128.176	5915
2130.225	5886
2132.275	5854
2134.321	6003
2136.368	5839
2138.415	5885
2140.461	5825
2142.505	5835
2144.552	5978
2146.597	5927
2148.64	5853
2150.684	5877
2152.725	5919
2154.77	5861
2156.811	5894
2158.852	5934
2160.894	5835
2162.933	5829
2164.973	5830
2167.013	5884
2169.051	5841
2171.089	5761
2173.126	5787
2175.164	5772
2177.201	5826
2179.236	5790
2181.273	5878
2183.307	5865
2185.341	5836
2187.377	5798
2189.41	5821
2191.442	5752
2193.473	5763
2195.506	5758
2197.539	5742
2199.569	5726
2201.598	5699
2203.628	5817
2205.656	5771
2207.686	5750
2209.716	5731
2211.743	5708
2213.769	5693
2215.796	5683
2217.821	5692
2219.848	5693
2221.873	5717
2223.897	5747
2225.921	5715
2227.944	5626
2229.967	5705
2231.991	5697
2234.011	5728
2236.032	5792
2238.053	5653
2240.073	5713
2242.094	5724
2244.114	5683
2246.131	5803
2248.149	5657
2250.167	5699
2252.186	5625
2254.201	5713
2256.218	5737
2258.233	5647
2260.247	5694
2262.262	5767
2264.278	5780
2266.29	5705
2268.303	5693
2270.315	5696
2272.327	5707
2274.341	5719
2276.35	5751
2278.361	5663
2280.37	5662
2282.38	5773
2284.388	5666
2286.397	5690
2288.405	5822
2290.412	5776
2292.419	5786
2294.425	5688
2296.431	5691
2298.437	5725
2300.441	5634
2302.445	5707
2304.449	5695
2306.453	5600
2308.455	5740
2310.457	5699
2312.459	5725
2314.46	5625
2316.46	5651
2318.461	5573
2320.46	5588
2322.458	5637
2324.458	5700
2326.456	5554
2328.455	5625
2330.451	5643
2332.447	5651
2334.443	5714
2336.438	5597
2338.433	5623
2340.429	5548
2342.422	5568
2344.416	5598
2346.408	5626
2348.399	5496
2350.393	5515
2352.384	5724
2354.375	5588
2356.365	5596
2358.355	5505
2360.344	5637
2362.333	5652
2364.322	5478
2366.309	5628
2368.295	5593
2370.282	5560
2372.27	5618
2374.256	5522
2376.24	5683
2378.225	5450
2380.208	5536
2382.194	5478
2384.177	5576
2386.159	5560
2388.142	5536
2390.122	5530
2392.105	5576
2394.085	5454
2396.066	5473
2398.044	5452
2400.024	5577
2402.002	5475
2403.982	5395
2405.959	5469
2407.935	5500
2409.913	5592
2411.888	5550
2413.865	5537
2415.84	5370
2417.814	5440
2419.788	5512
2421.762	5465
2423.735	5496
2425.708	5460
2427.68	5545
2429.651	5451
2431.623	5446
2433.593	5460
2435.564	5387
2437.533	5470
2439.502	5500
2441.47	5448
2443.438	5497
2445.406	5370
2447.373	5412
2449.34	5479
2451.305	5483
2453.271	5483
2455.235	5471
2457.201	5456
2459.165	5576
2461.129	5425
2463.092	5410
2465.054	5475
2467.018	5396
2468.978	5420
2470.939	5393
2472.899	5469
2474.86	5406
2476.819	5418
2478.778	5466
2480.737	5416
2482.695	5437
2484.653	5426
2486.609	5322
2488.567	5424
2490.524	5516
2492.478	5354
2494.433	5514
2496.387	5382
2498.343	5448
2500.297	5395
2502.249	5307
2504.202	5345
2506.153	5471
2508.105	5364
2510.057	5389
2512.008	5307
2513.957	5361
2515.906	5331
2517.855	5341
2519.805	5373
2521.754	5357
2523.7	5327
2525.647	5268
2527.594	5305
2529.54	5248
2531.486	5288
2533.431	5430
2535.376	5520
2537.32	5275
2539.263	5401
2541.207	5364
2543.151	5318
2545.093	5256
2547.034	5450
2548.975	5341
2550.917	5280
2552.856	5390
2554.796	5320
2556.735	5513
2558.673	5354
2560.611	5452
2562.55	5315
2564.487	5358
2566.424	5294
2568.36	5343
2570.296	5399
2572.232	5302
2574.167	5341
2576.101	5264
2578.035	5323
2579.969	5384
2581.902	5337
2583.834	5388
2585.766	5441
2587.698	5217
2589.628	5398
2591.557	5401
2593.489	5416
2595.419	5377
2597.348	5327
2599.275	5311
2601.204	5336
2603.131	5264
2605.059	5419
2606.986	5322
2608.911	5329
2610.837	5346
2612.76	5333
2614.687	5322
2616.61	5376
2618.534	5309
2620.457	5385
2622.38	5370
2624.302	5421
2626.225	5346
2628.145	5335
2630.067	5311
2631.986	5396
2633.906	5397
2635.827	5380
2637.745	5258
2639.662	5375
2641.581	5397
2643.498	5369
2645.415	5445
2647.331	5372
2649.248	5249
2651.163	5324
2653.077	5372
2654.993	5267
2656.906	5384
2658.821	5462
2660.733	5414
2662.646	5345
2664.557	5371
2666.47	5345
2668.381	5229
2670.291	5324
2672.201	5361
2674.11	5239
2676.021	5300
2677.929	5280
2679.837	5244
2681.745	5365
2683.652	5366
2685.56	5141
2687.466	5232
2689.371	5360
2691.276	5291
2693.181	5262
2695.085	5182
2696.991	5254
2698.893	5339
2700.796	5213
2702.698	5320
2704.601	5232
2706.502	5351
2708.404	5341
2710.304	5217
2712.203	5243
2714.103	5219
2716.003	5163
2717.902	5287
2719.8	5098
2721.697	5282
2723.594	5214
2725.49	5319
2727.389	5252
2729.283	5236
2731.179	5250
2733.073	5183
2734.968	5232
2736.863	5277
2738.757	5249
2740.649	5259
2742.541	5235
2744.433	5254
2746.324	5195
2748.216	5271
2750.107	5223
2751.997	5199
2753.886	5189
2755.776	5142
2757.666	5205
2759.553	5142
2761.44	5220
2763.327	5269
2765.215	5280
2767.102	5191
2768.988	5182
2770.873	5270
2772.757	5052
2774.641	5095
2776.525	5222
2778.41	5188
2780.292	5263
2782.175	5206
2784.057	5164
2785.938	5106
2787.821	5288
2789.701	5104
2791.581	5178
2793.461	5114
2795.34	5234
2797.219	5136
2799.099	5152
2800.975	5094
2802.853	5229
2804.73	5137
2806.606	5166
2808.484	5156
2810.358	5071
2812.233	5078
2814.108	5009
2815.981	5204
2817.857	5090
2819.73	5245
2821.602	5127
2823.474	5158
2825.346	5128
2827.217	5141
2829.089	5070
2830.959	5053
2832.829	5179
2834.698	5149
2836.567	5214
2838.436	5174
2840.305	5114
2842.172	5076
2844.04	5251
2845.905	5174
2847.772	5130
2849.639	5188
2851.503	5257
2853.369	5254
2855.232	5197
2857.096	5221
2858.961	5111
2860.824	5258
2862.686	5282
2864.547	5260
2866.41	5399
2868.272	5445
2870.132	5348
2871.992	5613
2873.851	5625
2875.711	5570
2877.57	5619
2879.429	5663
2881.287	5785
2883.144	5819
2885.001	5810
2886.857	5761
2888.714	5788
2890.57	5757
2892.425	5700
2894.279	5692
2896.133	5783
2897.987	5729
2899.842	5642
2901.694	5687
2903.547	5820
2905.397	5716
2907.249	5770
2909.101	5808
2910.952	5851
2912.802	5807
2914.652	5868
2916.5	5944
2918.35	5980
2920.198	6001
2922.045	6111
2923.893	6252
2925.74	6286
2927.585	6418
2929.433	6349
2931.279	6565
2933.123	6564
2934.968	6546
2936.811	6673
2938.656	6651
2940.5	6933
2942.342	6756
2944.185	6863
2946.026	6951
2947.87	6793
2949.71	6672
2951.549	6723
2953.39	6691
2955.229	6539
2957.069	6519
2958.908	6496
2960.746	6409
2962.584	6363
2964.421	6215
2966.257	6224
2968.094	6314
2969.931	6039
2971.766	5977
2973.601	6026
2975.435	5867
2977.27	5978
2979.105	5968
2980.938	5995
2982.77	5961
2984.602	5805
2986.434	5908
2988.267	5912
2990.097	5869
2991.927	5883
2993.757	5642
2995.587	5729
2997.417	5686
2999.246	5653
3001.074	5495
3002.902	5503
3004.729	5362
3006.556	5444
3008.384	5420
3010.21	5351
3012.036	5272
3013.861	5250
3015.684	5198
3017.51	5134
3019.334	5233
3021.157	4993
3022.981	4999
3024.802	5028
3026.624	4977
3028.448	4919
3030.267	5016
3032.088	4947
3033.909	4939
3035.728	4953
3037.549	4936
3039.368	4863
3041.186	4891
3043.004	4962
3044.821	4937
3046.64	4863
3048.455	4897
3050.272	4876
3052.087	4871
3053.903	4856
3055.717	4816
3057.534	4885
3059.347	4898
3061.16	4883
3062.974	4816
3064.785	4858
3066.598	4861
3068.411	4893
3070.222	4904
3072.032	4851
3073.844	4852
3075.653	4837
3077.463	4827
3079.272	4795
3081.08	4868
3082.889	4812
3084.697	4845
3086.505	4877
3088.312	4795
3090.118	4752
3091.924	4808
3093.729	4760
3095.535	4633
3097.34	4806
3099.144	4760
3100.947	4692
3102.75	4665
3104.553	4699
3106.357	4632
3108.159	4677
3109.961	4703
3111.762	4704
3113.562	4747
3115.365	4595
3117.164	4663
3118.964	4619
3120.761	4674
3122.56	4657
3124.36	4639
3126.158	4732
3127.954	4612
3129.75	4642
3131.547	4658
3133.343	4584
3135.139	4560
3136.934	4631
3138.729	4613
3140.522	4648
3142.317	4643
3144.11	4612
3145.904	4559
3147.695	4556
3149.488	4580
3151.28	4663
3153.07	4595
3154.863	4628
3156.652	4621
3158.441	4613
3160.231	4561
3162.019	4629
3163.81	4547
3165.597	4564
3167.384	4558
3169.172	4502
3170.958	4560
3172.745	4531
3174.532	4599
3176.317	4677
3178.101	4575
3179.885	4592
3181.67	4531
3183.455	4556
3185.238	4522
3187.02	4500
3188.802	4644
3190.585	4499
3192.368	4519
3194.149	4620
3195.929	4661
3197.709	4624
3199.489	4588
3201.268	4589
3203.048	4572
3204.826	4541
3206.604	4573
3208.382	4496
3210.159	4526
3211.937	4498
3213.713	4537
3215.489	4529
3217.263	4449
3219.038	4530
3220.815	4487
3222.589	4486
3224.363	4580
3226.136	4571
3227.908	4577
3229.681	4565
3231.454	4542
3233.226	4494
3234.996	4483
3236.767	4600
3238.538	4545
3240.308	4554
3242.078	4522
3243.847	4571
3245.615	4565
3247.384	4599
3249.15	4632
3250.92	4498
3252.686	4590
3254.453	4524
3256.218	4505
3257.984	4585
3259.75	4476
3261.515	4555
3263.279	4535
3265.044	4537
3266.806	4513
3268.57	4554
3270.334	4553
3272.095	4443
3273.856	4569
3275.619	4544
3277.379	4637
3279.14	4604
3280.9	4445
3282.661	4546
3284.419	4620
3286.178	4608
3287.937	4517
3289.695	4531
3291.453	4491
3293.21	4539
3294.967	4577
3296.723	4569
3298.48	4580
3300.235	4602
3301.99	4585
3303.744	4533
3305.498	4544
3307.253	4539
3309.006	4552
3310.759	4555
3312.511	4594
3314.263	4572
3316.017	4442
3317.768	4637
3319.519	4527
3321.268	4586
3323.018	4548
3324.767	4593
3326.518	4627
3328.267	4587
3330.014	4589
3331.762	4518
3333.509	4548
3335.258	4577
3337.003	4463
3338.75	4642
3340.496	4547
3342.24	4456
3343.987	4596
3345.732	4621
3347.475	4512
3349.219	4461
3350.961	4500
3352.705	4513
3354.448	4549
3356.19	4489
3357.931	4470
3359.672	4521
3361.412	4541
3363.155	4603
3364.894	4404
3366.633	4405
3368.372	4534
3370.11	4424
3371.849	4393
3373.588	4286
3375.325	4488
3377.061	4442
3378.799	4338
3380.534	4447
3382.271	4503
3384.006	4363
3385.741	4472
3387.475	4457
3389.209	4364
3390.944	4393
3392.677	4376
3394.409	4347
3396.143	4450
3397.874	4366
3399.606	4303
3401.338	4360
3403.069	4319
3404.799	4391
3406.528	4446
3408.258	4371
3409.988	4445
3411.717	4368
3413.445	4463
3415.173	4390
3416.899	4386
3418.626	4410
3420.354	4341
3422.08	4300
3423.806	4331
3425.531	4349
3427.255	4293
3428.981	4311
3430.705	4344
3432.429	4320
3434.151	4319
3435.875	4350
3437.599	4371
3439.321	4227
3441.042	4288
3442.763	4289
3444.483	4184
3446.204	4257
3447.926	4279
3449.645	4186
3451.364	4225
3453.082	4200
3454.801	4229
3456.52	4158
3458.238	4246
3459.954	4127
3461.671	4195
3463.387	4174
3465.104	4213
3466.82	4081
3468.534	4206
3470.25	4130
3471.963	4238
3473.676	4086
3475.392	4112
3477.104	4196
3478.817	4127
3480.528	4086
3482.241	4211
3483.954	4140
3485.664	4238
3487.374	4093
3489.084	4062
3490.795	4093
3492.504	4087
3494.214	4085
3495.922	4041
3497.63	4078
3499.338	4122
3501.045	4056
3502.753	4129
3504.459	4028
3506.166	4156
3507.871	4128
3509.576	3974
3511.283	4015
3512.987	3988
3514.691	4017
3516.395	3943
3518.098	4055
3519.8	3982
3521.504	4034
3523.206	3933
3524.908	4032
3526.609	3923
3528.309	3895
3530.011	4025
3531.711	3948
3533.411	3867
3535.109	3885
3536.808	3913
3538.507	3921
3540.206	3919
3541.904	3916
3543.601	3947
3545.297	3893
3546.994	3884
3548.69	3854
3550.387	3914
3552.081	3887
3553.776	3817
3555.47	3885
3557.166	3868
3558.859	3854
3560.553	3933
3562.245	3886
3563.938	3793
3565.629	3819
3567.322	3923
3569.014	3809
3570.704	3804
3572.394	3852
3574.084	3791
3575.775	3844
3577.464	3745
3579.152	3815
3580.842	3778
3582.529	3800
3584.216	3853
3585.905	3781
3587.591	3862
3589.279	3757
3590.964	3887
3592.649	3747
3594.336	3800
3596.021	3823
3597.705	3777
3599.388	3752
3601.072	3599
3602.757	3710
3604.439	3611
3606.122	3708
3607.803	3712
3609.485	3700
3611.167	3673
3612.849	3706
3614.529	3640
3616.208	3603
3617.888	3665
3619.567	3656
3621.247	3649
3622.926	3647
3624.603	3674
3626.281	3661
3627.958	3606
3629.635	3576
3631.312	3650
3632.989	3608
3634.665	3619
3636.339	3609
3638.014	3675
3639.691	3529
3641.364	3524
3643.038	3654
3644.71	3490
3646.384	3518
3648.058	3585
3649.729	3620
3651.402	3462
3653.073	3566
3654.744	3556
3656.414	3516
3658.085	3504
3659.755	3589
3661.424	3573
3663.094	3476
3664.762	3502
3666.431	3584
3668.099	3457
3669.766	3461
3671.433	3493
3673.099	3573
3674.768	3518
3676.433	3470
3678.098	3453
3679.763	3423
3681.428	3468
3683.093	3502
3684.757	3510
3686.421	3480
3688.083	3394
3689.746	3398
3691.408	3465
3693.071	3410
3694.733	3380
3696.394	3488
3698.054	3481
3699.715	3416
3701.375	3331
3703.036	3422
3704.695	3440
3706.354	3448
3708.012	3476
3709.67	3485
3711.329	3384
3712.987	3457
3714.644	3379
3716.299	3343
3717.955	3477
3719.613	3432
3721.268	3382
3722.923	3435
3724.577	3394
3726.231	3424
3727.885	3399
3729.539	3407
3731.192	3361
3732.845	3411
3734.497	3377
3736.149	3392
3737.802	3375
3739.453	3343
3741.104	3426
3742.753	3329
3744.404	3297
3746.052	3356
3747.704	3371
3749.352	3378
3751	3272
3752.648	3386
3754.296	3377
3755.944	3306
3757.59	3294
3759.238	3283
3760.883	3357
3762.528	3274
3764.176	3294
3765.82	3325
3767.464	3278
3769.109	3325
3770.753	3260
3772.396	3312
3774.04	3277
3775.683	3274
3777.325	3280
3778.967	3263
3780.608	3293
3782.25	3316
3783.89	3302
3785.531	3291
3787.17	3209
3788.81	3285
3790.45	3256
3792.09	3206
3793.729	3264
3795.366	3239
3797.003	3184
3798.64	3233
3800.278	3262
3801.915	3187
3803.551	3203
3805.187	3213
3806.822	3217
3808.458	3270
3810.093	3188
3811.726	3202
3813.36	3230
3814.994	3175
3816.627	3216
3818.262	3196
3819.893	3281
3821.525	3179
3823.157	3171
3824.787	3128
3826.42	3207
3828.051	3149
3829.68	3208
3831.31	3203
3832.938	3178
3834.569	3190
3836.198	3167
3837.825	3199
3839.454	3247
3841.08	3078
3842.708	3174
3844.335	3175
3845.962	3078
3847.587	3119
3849.212	3119
3850.838	3089
3852.463	3155
3854.089	3154
3855.712	3179
3857.335	3161
3858.959	3181
3860.582	3154
3862.205	3152
3863.827	3164
3865.449	3039
3867.07	3121
3868.691	3180
3870.312	3078
3871.933	3127
3873.553	3095
3875.173	3105
3876.792	3042
3878.411	3066
3880.03	3057
3881.647	3157
3883.265	3069
3884.882	3084
3886.499	3002
3888.116	3069
3889.732	3125
3891.348	3088
3892.964	3110
3894.579	2974
3896.195	3082
3897.809	3074
3899.423	3089
3901.036	3124
3902.648	3046
3904.261	3056
3905.875	3046
3907.487	3032
3909.099	3086
3910.709	3071
3912.321	3134
3913.933	3018
3915.542	3015
3917.152	3060
3918.762	3010
3920.37	3075
3921.98	3009
3923.589	2996
3925.196	3056
3926.804	3129
3928.41	2989
3930.018	3048
3931.626	3057
3933.231	3028
3934.838	2979
3936.442	3088
3938.046	2950
3939.653	3005
3941.257	3001
3942.861	2942
3944.464	2980
3946.068	3039
3947.67	3032
3949.273	2977
3950.876	2965
3952.477	3009
3954.078	2962
3955.678	2967
3957.281	3013
3958.881	3013
3960.48	2963
3962.079	2969
3963.678	2965
3965.279	2925
3966.877	2931
3968.475	2970
3970.072	3008
3971.669	2973
3973.266	2947
3974.864	2893
3976.459	2905
3978.055	2928
3979.65	2948
3981.245	2947
3982.841	3029
3984.436	2976
3986.03	2944
3987.623	2925
3989.216	2930
3990.809	2904
3992.403	2886
3993.995	2820
3995.586	2979
3997.177	2943
3998.768	2840
4000.361	2886
4001.951	2842
4003.54	2904
4005.13	2913
4006.719	2879
4008.31	2890
4009.897	2867
4011.485	2897
4013.073	2875
4014.66	2808
4016.247	2841
4017.834	2815
4019.421	2844
4021.006	2814
4022.592	2829
4024.178	2814
4025.763	2813
4027.348	2854
4028.932	2787
4030.515	2845
4032.099	2839
4033.682	2858
4035.266	2806
4036.847	2777
4038.429	2833
4040.011	2772
4041.592	2780
4043.173	2756
4044.755	2807
4046.334	2733
4047.913	2801
4049.494	2731
4051.074	2747
4052.652	2811
4054.23	2692
4055.807	2730
4057.385	2713
4058.963	2832
4060.541	2726
4062.117	2764
4063.693	2716
4065.269	2737
4066.844	2814
4068.42	2725
4069.995	2752
4071.569	2702
4073.143	2765
4074.716	2690
4076.291	2762
4077.864	2738
4079.436	2693
4081.009	2708
4082.58	2749
4084.152	2719
4085.723	2718
4087.294	2796
4088.865	2716
4090.435	2744
4092.005	2692
4093.574	2697
4095.143	2711
4096.712	2663
4098.279	2705
4099.848	2660
4101.416	2668
4102.984	2696
4104.55	2663
4106.117	2699
4107.682	2664
4109.248	2803
4110.815	2692
4112.379	2680
4113.945	2661
4115.508	2737
4117.073	2647
4118.637	2707
4120.201	2661
4121.763	2667
4123.325	2681
4124.888	2715
4126.449	2683
4128.013	2627
4129.573	2645
4131.133	2681
4132.694	2676
4134.254	2655
4135.814	2644
4137.374	2679
4138.933	2613
4140.491	2655
4142.049	2620
4143.607	2624
4145.167	2665
4146.724	2552
4148.28	2557
4149.836	2611
4151.392	2608
4152.949	2556
4154.504	2598
4156.059	2621
4157.614	2593
4159.168	2597
4160.723	2574
4162.277	2550
4163.83	2571
4165.383	2587
4166.936	2606
4168.488	2557
4170.041	2574
4171.593	2595
4173.144	2607
4174.695	2518
4176.246	2552
4177.796	2536
4179.346	2545
4180.896	2544
4182.445	2516
4183.994	2569
4185.542	2540
4187.091	2519
4188.639	2520
4190.185	2526
4191.732	2459
4193.279	2495
4194.826	2527
4196.373	2582
4197.918	2543
4199.463	2482
4201.008	2526
4202.553	2512
4204.098	2515
4205.641	2563
4207.185	2483
4208.728	2496
4210.271	2522
4211.814	2517
4213.357	2506
4214.898	2437
4216.439	2558
4217.98	2541
4219.522	2496
4221.062	2480
4222.603	2555
4224.142	2418
4225.681	2473
4227.222	2501
4228.76	2462
4230.298	2533
4231.835	2483
4233.373	2425
4234.911	2432
4236.449	2401
4237.985	2439
4239.521	2427
4241.057	2469
4242.592	2434
4244.128	2421
4245.663	2445
4247.197	2464
4248.731	2400
4250.265	2413
4251.798	2493
4253.333	2496
4254.865	2451
4256.397	2492
4257.93	2426
4259.461	2464
4260.994	2369
4262.525	2452
4264.056	2460
4265.586	2398
4267.115	2463
4268.646	2505
4270.176	2448
4271.705	2438
4273.232	2417
4274.761	2380
4276.289	2400
4277.818	2312
4279.345	2394
4280.872	2382
4282.399	2357
4283.924	2430
4285.452	2383
4286.976	2391
4288.502	2477
4290.026	2427
4291.551	2366
4293.074	2384
4294.6	2367
4296.123	2352
4297.646	2369
4299.168	2370
4300.691	2360
4302.214	2335
4303.736	2394
4305.257	2360
4306.778	2345
4308.299	2347
4309.82	2381
4311.34	2327
4312.86	2407
4314.379	2272
