400.0745	6036
402.597	6044
405.1208	6123
407.6419	6052
410.1623	6147
412.6819	6220
415.201	6176
417.7172	6143
420.2369	6251
422.7538	6291
425.2701	6297
427.7856	6419
430.3005	6480
432.8147	6543
435.3282	6507
437.841	6335
440.3511	6384
442.8625	6465
445.3753	6545
447.8854	6431
450.3927	6489
452.9014	6496
455.4073	6540
457.9146	6451
460.4233	6539
462.9272	6499
465.4325	6566
467.935	6489
470.4389	6511
472.9421	6525
475.4446	6603
477.9444	6571
480.4456	6459
482.944	6718
485.4417	6639
487.9429	6681
490.4393	6733
492.935	6616
495.4321	6650
497.9264	6726
500.4221	6665
502.9171	6828
505.4094	6769
507.9011	6673
510.392	6870
512.8864	6805
515.3759	6770
517.8649	6789
520.3531	6747
522.8406	6905
525.3275	6874
527.8178	6748
530.3033	6963
532.7881	6853
535.2723	6850
537.7558	6772
540.2407	6873
542.7228	6842
545.2043	6817
547.6851	6787
550.1652	6906
552.6467	6780
555.1255	6800
557.6016	6922
560.079	7043
562.5557	6880
565.0318	6989
567.5092	6938
569.984	6927
572.456	6898
574.9294	7086
577.4022	7116
579.8762	7066
582.3456	7062
584.8163	7144
587.2863	7056
589.7557	7140
592.2224	7079
594.6924	7241
597.1578	7129
599.6245	7176
602.0905	7110
604.5538	7017
607.0206	7012
609.4825	7038
611.9459	7133
614.4066	6996
616.8686	7109
619.33	7037
621.7906	7011
624.2487	7073
626.708	6995
629.1647	7173
631.6207	6968
634.0801	7113
636.5348	6982
638.9888	7020
641.4442	7062
643.8969	7082
646.3509	7058
648.8022	7142
651.255	7194
653.705	7123
656.1544	7166
658.6031	7175
661.0532	7173
663.5026	7155
665.9493	7111
668.3954	7301
670.8409	7195
673.2877	7232
675.7318	7190
678.1752	7246
680.618	7415
683.0601	7296
685.5035	7263
687.9444	7327
690.3845	7302
692.824	7427
695.2628	7370
697.701	7281
700.1406	7415
702.5774	7384
705.0116	7340
707.4472	7582
709.8821	7481
712.3183	7501
714.7519	7360
717.1829	7585
719.6151	7521
722.0468	7645
724.4777	7459
726.908	7509
729.3377	7542
731.7667	7614
734.1931	7544
736.6208	7721
739.0498	7720
741.4742	7647
743.9	7776
746.3231	7739
748.7476	7863
751.1713	7728
753.5945	7768
756.015	7757
758.4368	7871
760.856	7897
763.2766	7972
765.6965	7876
768.1157	7951
770.5323	7972
772.9483	7816
775.3656	7900
777.7822	7841
780.1963	7819
782.6116	7950
785.0244	7904
787.4365	7934
789.8499	7796
792.2626	7915
794.6728	7950
797.0823	7950
799.4911	7887
801.8994	7818
804.3109	7918
806.7178	7960
809.124	7939
811.5297	8004
813.9347	7922
816.341	7958
818.7447	7962
821.1478	8041
823.5502	8065
825.952	8066
828.3531	7961
830.7556	8037
833.1554	8078
835.5546	7974
837.9532	7985
840.3511	8080
842.7504	8204
845.1451	8053
847.5411	7989
849.9365	8176
852.3312	8223
854.7272	8172
857.1187	8079
859.5115	8200
861.9037	8155
864.2952	8037
866.6842	8153
869.0764	8053
871.4661	8118
873.8531	8132
876.2415	8146
878.6272	8022
881.0162	8164
883.4026	8017
885.7866	7970
888.1717	8106
890.5543	8000
892.9382	8145
895.3215	8148
897.7041	8119
900.0842	8158
902.4655	8151
904.8443	8016
907.2244	8192
909.6039	8136
911.9808	8281
914.357	8043
916.7346	8338
919.1115	8366
921.4859	8284
923.8616	8433
926.2347	8412
928.6071	8460
930.979	8470
933.3541	8339
935.7247	8580
938.0946	8573
940.4639	8649
942.8326	8600
945.2026	8800
947.5701	8815
949.9369	9165
952.305	9063
954.6705	9460
957.0355	9818
959.4017	10004
961.7654	10005
964.1284	9949
966.4908	9974
968.8527	9477
971.2138	9246
973.5743	8847
975.9343	8826
978.2936	8609
980.6522	8491
983.0122	8504
985.3696	8368
987.7245	8502
990.0807	8310
992.4362	8358
994.7911	8305
997.1474	8368
999.4991	8472
1001.852	8440
1004.205	8503
1006.555	8495
1008.908	8509
1011.258	8358
1013.606	8355
1015.956	8482
1018.302	8374
1020.652	8568
1022.998	8518
1025.345	8602
1027.691	8440
1030.035	8452
1032.378	8600
1034.724	8570
1037.066	8574
1039.409	8591
1041.75	8509
1044.092	8486
1046.433	8607
1048.771	8527
1051.112	8588
1053.449	8542
1055.786	8574
1058.124	8695
1060.462	8593
1062.797	8664
1065.131	8753
1067.467	8528
1069.8	8728
1072.135	8677
1074.467	8673
1076.798	8686
1079.129	8652
1081.459	8842
1083.792	8863
1086.121	8752
1088.449	8690
1090.777	8655
1093.104	8647
1095.431	8557
1097.759	8545
1100.084	8600
1102.408	8662
1104.732	8629
1107.056	8787
1109.379	8724
1111.701	8573
1114.022	8700
1116.343	8737
1118.664	8656
1120.983	8698
1123.303	8630
1125.621	8697
1127.939	8617
1130.256	8733
1132.573	8757
1134.889	8706
1137.205	8714
1139.52	8720
1141.832	8713
1144.146	8706
1146.461	8752
1148.771	8699
1151.083	8606
1153.392	8690
1155.703	8826
1158.011	8726
1160.323	8475
1162.629	8646
1164.938	8629
1167.243	8708
1169.55	8664
1171.857	8759
1174.163	8668
1176.466	8701
1178.769	8756
1181.073	8695
1183.374	8619
1185.677	8689
1187.979	8784
1190.279	8751
1192.578	8684
1194.878	8652
1197.178	8720
1199.476	8784
1201.772	8700
1204.068	8726
1206.366	8623
1208.663	8723
1210.957	8662
1213.251	8684
1215.544	8871
1217.836	8731
1220.128	8721
1222.421	8801
1224.712	8757
1227.002	8820
1229.292	8636
1231.581	8922
1233.871	8789
1236.159	8991
1238.446	9000
1240.732	9073
1243.018	8869
1245.304	8863
1247.59	9056
1249.874	9094
1252.156	9034
1254.439	8953
1256.721	9128
1259.005	9054
1261.286	9044
1263.565	8937
1265.845	8961
1268.125	8913
1270.403	8942
1272.682	8977
1274.959	9014
1277.234	9009
1279.511	9035
1281.787	8953
1284.062	8943
1286.337	8986
1288.609	8950
1290.882	8925
1293.153	8969
1295.428	8908
1297.698	8904
1299.969	8935
1302.237	8875
1304.507	8893
1306.777	8851
1309.044	8956
1311.312	8921
1313.578	8847
1315.844	8909
1318.109	8929
1320.375	8847
1322.638	8860
1324.903	8910
1327.165	8887
1329.427	8801
1331.69	8900
1333.952	8877
1336.212	9019
1338.471	8989
1340.73	8834
1342.988	8807
1345.248	8903
1347.505	8982
1349.763	8836
1352.019	8991
1354.274	8924
1356.53	8825
1358.784	8881
1361.038	8927
1363.291	8909
1365.543	8960
1367.797	8957
1370.048	8979
1372.296	8843
1374.546	8928
1376.796	9168
1379.045	9043
1381.295	8952
1383.542	9127
1385.787	9069
1388.034	8953
1390.28	9160
1392.527	8948
1394.772	9066
1397.014	8934
1399.258	9039
1401.501	9026
1403.741	9056
1405.985	9040
1408.226	9135
1410.465	9112
1412.705	9001
1414.943	9165
1417.184	9048
1419.42	9155
1421.658	9046
1423.894	9098
1426.13	9182
1428.366	9164
1430.602	9059
1432.835	9229
1435.069	9162
1437.301	9146
1439.535	9201
1441.767	9312
1443.997	9270
1446.229	9221
1448.458	9296
1450.687	9333
1452.916	9306
1455.146	9346
1457.372	9287
1459.599	9300
1461.824	9393
1464.051	9113
1466.277	9385
1468.501	9163
1470.725	9231
1472.948	9195
1475.17	9207
1477.393	9059
1479.614	9101
1481.837	9068
1484.057	9131
1486.276	9104
1488.497	9079
1490.715	9214
1492.932	9143
1495.148	9109
1497.364	8953
1499.58	9091
1501.798	8916
1504.012	8907
1506.227	9056
1508.44	8997
1510.653	8842
1512.866	8989
1515.078	8991
1517.289	9059
1519.5	9039
1521.711	8896
1523.92	8959
1526.13	9019
1528.338	9107
1530.544	8943
1532.752	8952
1534.959	9044
1537.165	9039
1539.371	8941
1541.574	9051
1543.779	9115
1545.983	9063
1548.187	9030
1550.39	8973
1552.59	9222
1554.792	9152
1556.991	9073
1559.19	9154
1561.392	9121
1563.59	9111
1565.789	9214
1567.986	9310
1570.182	9187
1572.381	9160
1574.576	9183
1576.771	9164
1578.966	9268
1581.16	9228
1583.354	9308
1585.546	9443
1587.74	9369
1589.931	9283
1592.121	9335
1594.311	9252
1596.502	9225
1598.693	9314
1600.881	9292
1603.069	9292
1605.256	9346
1607.445	9285
1609.631	9290
1611.816	9385
1614.001	9323
1616.186	9293
1618.37	9378
1620.555	9416
1622.737	9448
1624.919	9421
1627.101	9461
1629.282	9356
1631.463	9324
1633.643	9443
1635.822	9464
1638.001	9544
1640.179	9438
1642.359	9555
1644.534	9471
1646.711	9455
1648.887	9457
1651.062	9569
1653.235	9364
1655.412	9424
1657.586	9441
1659.757	9484
1661.93	9391
1664.1	9386
1666.274	9438
1668.445	9472
1670.614	9511
1672.784	9689
1674.951	9486
1677.12	9629
1679.289	9477
1681.457	9499
1683.622	9537
1685.789	9552
1687.953	9418
1690.121	9572
1692.284	9371
1694.447	9487
1696.611	9353
1698.772	9392
1700.935	9299
1703.098	9400
1705.258	9382
1707.417	9364
1709.576	9269
1711.736	9262
1713.896	9336
1716.053	9315
1718.21	9161
1720.366	9335
1722.522	9319
1724.68	9345
1726.835	9318
1728.989	9271
1731.142	9396
1733.295	9283
1735.449	9345
1737.601	9308
1739.753	9334
1741.903	9227
1744.054	9345
1746.203	9280
1748.354	9393
1750.503	9260
1752.651	9441
1754.798	9408
1756.944	9279
1759.092	9252
1761.238	9392
1763.383	9353
1765.528	9317
1767.672	9209
1769.814	9330
1771.959	9427
1774.102	9351
1776.242	9445
1778.384	9466
1780.525	9297
1782.665	9467
1784.805	9239
1786.945	9372
1789.082	9427
1791.22	9554
1793.36	9393
1795.495	9405
1797.632	9369
1799.766	9328
1801.902	9448
1804.035	9417
1806.172	9438
1808.304	9427
1810.436	9498
1812.569	9460
1814.699	9335
1816.833	9407
1818.963	9309
1821.092	9462
1823.222	9338
1825.35	9319
1827.478	9287
1829.608	9207
1831.734	9257
1833.86	9251
1835.986	9426
1838.11	9348
1840.238	9325
1842.362	9172
1844.485	9397
1846.608	9332
1848.73	9291
1850.853	9293
1852.974	9389
1855.097	9311
1857.217	9287
1859.336	9294
1861.455	9293
1863.576	9259
1865.693	9379
1867.811	9346
1869.926	9392
1872.042	9290
1874.16	9261
1876.275	9278
1878.39	9147
1880.504	9254
1882.618	9462
1884.731	9315
1886.843	9159
1888.956	9271
1891.067	9315
1893.178	9172
1895.287	9408
1897.399	9392
1899.508	9280
1901.617	9245
1903.724	9255
1905.832	9379
1907.941	9550
1910.046	9339
1912.152	9487
1914.256	9462
1916.361	9420
1918.464	9543
1920.57	9432
1922.672	9406
1924.775	9317
1926.876	9475
1928.978	9321
1931.08	9393
1933.181	9393
1935.28	9498
1937.38	9334
1939.478	9480
1941.577	9476
1943.675	9374
1945.771	9302
1947.867	9422
1949.964	9441
1952.058	9478
1954.154	9411
1956.248	9499
1958.343	9422
1960.435	9363
1962.527	9502
1964.62	9456
1966.711	9583
1968.802	9407
1970.892	9352
1972.983	9390
1975.072	9450
1977.162	9379
1979.25	9301
1981.337	9341
1983.424	9394
1985.51	9339
1987.598	9360
1989.683	9465
1991.768	9418
1993.852	9295
1995.934	9404
1998.019	9318
2000.102	9286
2002.184	9328
2004.266	9271
2006.347	9312
2008.427	9249
2010.508	9220
2012.587	9245
2014.666	9232
2016.745	9254
2018.821	9178
2020.9	9288
2022.977	9271
2025.052	9401
2027.128	9117
2029.204	9213
2031.277	9321
2033.353	9383
2035.425	9251
2037.499	9277
2039.57	9202
2041.642	9323
2043.714	9356
2045.786	9167
2047.855	9221
2049.925	9270
2051.993	9299
2054.064	9384
2056.132	9388
2058.2	9330
2060.266	9420
2062.332	9333
2064.398	9380
2066.465	9518
2068.529	9445
2070.592	9397
2072.657	9336
2074.719	9386
2076.783	9483
2078.845	9311
2080.907	9226
2082.968	9269
2085.028	9290
2087.087	9421
2089.148	9371
2091.207	9321
2093.264	9347
2095.322	9254
2097.379	9411
2099.439	9395
2101.495	9404
2103.55	9432
2105.605	9326
2107.658	9342
2109.713	9450
2111.767	9232
2113.82	9310
2115.872	9386
2117.924	9411
2119.975	9374
2122.028	9265
2124.078	9261
2126.126	9303
2128.176	9299
2130.225	9234
2132.275	9336
2134.321	9264
2136.368	9270
2138.415	9274
2140.461	9320
2142.505	9276
2144.552	9280
2146.597	9224
2148.64	9246
2150.684	9200
2152.725	9327
2154.77	9251
2156.811	9228
2158.852	9260
2160.894	9328
2162.933	9223
2164.973	9274
2167.013	9244
2169.051	9282
2171.089	9322
2173.126	9330
2175.164	9114
2177.201	9152
2179.236	9151
2181.273	9212
2183.307	9197
2185.341	9239
2187.377	9168
2189.41	9358
2191.442	9162
2193.473	9253
2195.506	9120
2197.539	9105
2199.569	9063
2201.598	9067
2203.628	9089
2205.656	9103
2207.686	9157
2209.716	9191
2211.743	9004
2213.769	9213
2215.796	9040
2217.821	9177
2219.848	9032
2221.873	9012
2223.897	9027
2225.921	9083
2227.944	9021
2229.967	9142
2231.991	9006
2234.011	9158
2236.032	9257
2238.053	9115
2240.073	9048
2242.094	9094
2244.114	9035
2246.131	9112
2248.149	9037
2250.167	9103
2252.186	8987
2254.201	8987
2256.218	9044
2258.233	9267
2260.247	9073
2262.262	8966
2264.278	9125
2266.29	9096
2268.303	9096
2270.315	9026
2272.327	9115
2274.341	9011
2276.35	9113
2278.361	9140
2280.37	9074
2282.38	9072
2284.388	9163
2286.397	9119
2288.405	9115
2290.412	8935
2292.419	9053
2294.425	9057
2296.431	9111
2298.437	9034
2300.441	9159
2302.445	8959
2304.449	8899
2306.453	9021
2308.455	9019
2310.457	8889
2312.459	9035
2314.46	8963
2316.46	9123
2318.461	9021
2320.46	8997
2322.458	8961
2324.458	9008
2326.456	8921
2328.455	8921
2330.451	9033
2332.447	9031
2334.443	8982
2336.438	9101
2338.433	8857
2340.429	9007
2342.422	8900
2344.416	8920
2346.408	8942
2348.399	8892
2350.393	8803
2352.384	9001
2354.375	8878
2356.365	8948
2358.355	8924
2360.344	8885
2362.333	8904
2364.322	8954
2366.309	8871
2368.295	9009
2370.282	8846
2372.27	8908
2374.256	8842
2376.24	8838
2378.225	8766
2380.208	8936
2382.194	8911
2384.177	8777
2386.159	8740
2388.142	8731
2390.122	8747
2392.105	8907
2394.085	8692
2396.066	8747
2398.044	8776
2400.024	8704
2402.002	8684
2403.982	8830
2405.959	8690
2407.935	8826
2409.913	8652
2411.888	8733
2413.865	8680
2415.84	8714
2417.814	8737
2419.788	8696
2421.762	8714
2423.735	8721
2425.708	8672
2427.68	8762
2429.651	8813
2431.623	8806
2433.593	8680
2435.564	8709
2437.533	8718
2439.502	8779
2441.47	8770
2443.438	8765
2445.406	8761
2447.373	8736
2449.34	8658
2451.305	8588
2453.271	8639
2455.235	8679
2457.201	8731
2459.165	8710
2461.129	8576
2463.092	8686
2465.054	8677
2467.018	8611
2468.978	8715
2470.939	8621
2472.899	8626
2474.86	8660
2476.819	8655
2478.778	8612
2480.737	8476
2482.695	8485
2484.653	8584
2486.609	8577
2488.567	8548
2490.524	8536
2492.478	8524
2494.433	8485
2496.387	8556
2498.343	8614
2500.297	8602
2502.249	8643
2504.202	8519
2506.153	8477
2508.105	8478
2510.057	8440
2512.008	8590
2513.957	8489
2515.906	8469
2517.855	8510
2519.805	8508
2521.754	8468
2523.7	8516
2525.647	8372
2527.594	8379
2529.54	8494
2531.486	8470
2533.431	8613
2535.376	8484
2537.32	8469
2539.263	8541
2541.207	8591
2543.151	8528
2545.093	8505
2547.034	8623
2548.975	8548
2550.917	8454
2552.856	8327
2554.796	8445
2556.735	8702
2558.673	8542
2560.611	8462
2562.55	8451
2564.487	8560
2566.424	8366
2568.36	8397
2570.296	8483
2572.232	8284
2574.167	8400
2576.101	8456
2578.035	8488
2579.969	8445
2581.902	8406
2583.834	8425
2585.766	8440
2587.698	8394
2589.628	8500
2591.557	8329
2593.489	8463
2595.419	8477
2597.348	8433
2599.275	8393
2601.204	8515
2603.131	8436
2605.059	8494
2606.986	8495
2608.911	8522
2610.837	8505
2612.76	8465
2614.687	8445
2616.61	8546
2618.534	8322
2620.457	8398
2622.38	8410
2624.302	8490
2626.225	8317
2628.145	8462
2630.067	8530
2631.986	8457
2633.906	8460
2635.827	8407
2637.745	8463
2639.662	8505
2641.581	8494
2643.498	8425
2645.415	8423
2647.331	8504
2649.248	8386
2651.163	8414
2653.077	8471
2654.993	8371
2656.906	8585
2658.821	8428
2660.733	8414
2662.646	8364
2664.557	8403
2666.47	8424
2668.381	8362
2670.291	8400
2672.201	8487
2674.11	8439
2676.021	8366
2677.929	8291
2679.837	8399
2681.745	8311
2683.652	8250
2685.56	8370
2687.466	8364
2689.371	8415
2691.276	8373
2693.181	8409
2695.085	8314
2696.991	8454
2698.893	8285
2700.796	8250
2702.698	8306
2704.601	8108
2706.502	8291
2708.404	8192
2710.304	8131
2712.203	8322
2714.103	8223
2716.003	8488
2717.902	8296
2719.8	8142
2721.697	8202
2723.594	8352
2725.49	8182
2727.389	8163
2729.283	8290
2731.179	8099
2733.073	8190
2734.968	8286
2736.863	8245
2738.757	8310
2740.649	8124
2742.541	8180
2744.433	8329
2746.324	8159
2748.216	8165
2750.107	8107
2751.997	8224
2753.886	8181
2755.776	8198
2757.666	8078
2759.553	8297
2761.44	8180
2763.327	8092
2765.215	8075
2767.102	8285
2768.988	8164
2770.873	8127
2772.757	8025
2774.641	8173
2776.525	8178
2778.41	8134
2780.292	8139
2782.175	8066
2784.057	8168
2785.938	8088
2787.821	8265
2789.701	8034
2791.581	8026
2793.461	8125
2795.34	8100
2797.219	8174
2799.099	8119
2800.975	8061
2802.853	8084
2804.73	8027
2806.606	7970
2808.484	8138
2810.358	7923
2812.233	8124
2814.108	8073
2815.981	8128
2817.857	7920
2819.73	7986
2821.602	7988
2823.474	7974
2825.346	8021
2827.217	8043
2829.089	8046
2830.959	8082
2832.829	8002
2834.698	7997
2836.567	7878
2838.436	8151
2840.305	7934
2842.172	8061
2844.04	7929
2845.905	8027
2847.772	8062
2849.639	8069
2851.503	8054
2853.369	8082
2855.232	8075
2857.096	8023
2858.961	8118
2860.824	8090
2862.686	8205
2864.547	8108
2866.41	8175
2868.272	8302
2870.132	8210
2871.992	8161
2873.851	8192
2875.711	8254
2877.57	8493
2879.429	8336
2881.287	8504
2883.144	8469
2885.001	8511
2886.857	8469
2888.714	8402
2890.57	8535
2892.425	8459
2894.279	8433
2896.133	8542
2897.987	8405
2899.842	8361
2901.694	8410
2903.547	8414
2905.397	8392
2907.249	8413
2909.101	8466
2910.952	8319
2912.802	8540
2914.652	8432
2916.5	8519
2918.35	8677
2920.198	8581
2922.045	8568
2923.893	8810
2925.74	8780
2927.585	8868
2929.433	8889
2931.279	8993
2933.123	9055
2934.968	9114
2936.811	9039
2938.656	9060
2940.5	9132
2942.342	9142
2944.185	9311
2946.026	9101
2947.87	9320
2949.71	9046
2951.549	9078
2953.39	8979
2955.229	9005
2957.069	8837
2958.908	8793
2960.746	8760
2962.584	8700
2964.421	8651
2966.257	8677
2968.094	8663
2969.931	8548
2971.766	8583
2973.601	8455
2975.435	8476
2977.27	8409
2979.105	8373
2980.938	8369
2982.77	8359
2984.602	8432
2986.434	8475
2988.267	8381
2990.097	8205
2991.927	8273
2993.757	8208
2995.587	8238
2997.417	8157
2999.246	8079
3001.074	8178
3002.902	8124
3004.729	7915
3006.556	7989
3008.384	7998
3010.21	7814
3012.036	7865
3013.861	7849
3015.684	7851
3017.51	7757
3019.334	7662
3021.157	7626
3022.981	7620
3024.802	7569
3026.624	7724
3028.448	7746
3030.267	7628
3032.088	7485
3033.909	7608
3035.728	7530
3037.549	7565
3039.368	7544
3041.186	7440
3043.004	7423
3044.821	7608
3046.64	7540
3048.455	7544
3050.272	7377
3052.087	7492
3053.903	7558
3055.717	7371
3057.534	7379
3059.347	7357
3061.16	7489
3062.974	7457
3064.785	7402
3066.598	7497
3068.411	7312
3070.222	7531
3072.032	7406
3073.844	7361
3075.653	7339
3077.463	7408
3079.272	7395
3081.08	7414
3082.889	7324
3084.697	7260
3086.505	7300
3088.312	7356
3090.118	7269
3091.924	7209
3093.729	7269
3095.535	7311
3097.34	7258
3099.144	7337
3100.947	7245
3102.75	7302
3104.553	7162
3106.357	7288
3108.159	7255
3109.961	7178
3111.762	7129
3113.562	7310
3115.365	7238
3117.164	7196
3118.964	7177
3120.761	7111
3122.56	7173
3124.36	7170
3126.158	7111
3127.954	7119
3129.75	7097
3131.547	7133
3133.343	7034
3135.139	7144
3136.934	7012
3138.729	6969
3140.522	7147
3142.317	7046
3144.11	7102
3145.904	7076
3147.695	6904
3149.488	7036
3151.28	7003
3153.07	7059
3154.863	7084
3156.652	7058
3158.441	7040
3160.231	7057
3162.019	6954
3163.81	7004
3165.597	6959
3167.384	7011
3169.172	7006
3170.958	7001
3172.745	6922
3174.532	6963
3176.317	6919
3178.101	6909
3179.885	6899
3181.67	6942
3183.455	7114
3185.238	6933
3187.02	6943
3188.802	6978
3190.585	6880
3192.368	6898
3194.149	6862
3195.929	6824
3197.709	6831
3199.489	6928
3201.268	6903
3203.048	6916
3204.826	6823
3206.604	6919
3208.382	6822
3210.159	6851
3211.937	6859
3213.713	6939
3215.489	6807
3217.263	6867
3219.038	6932
3220.815	6827
3222.589	6894
3224.363	6755
3226.136	6816
3227.908	6857
3229.681	6853
3231.454	6803
3233.226	6864
3234.996	6899
3236.767	6989
3238.538	6870
3240.308	6792
3242.078	6879
3243.847	6792
3245.615	6863
3247.384	6700
3249.15	6801
3250.92	6687
3252.686	6742
3254.453	6702
3256.218	6767
3257.984	6767
3259.75	6708
3261.515	6591
3263.279	6815
3265.044	6823
3266.806	6808
3268.57	6801
3270.334	6862
3272.095	6680
3273.856	6673
3275.619	6888
3277.379	6814
3279.14	6828
3280.9	6839
3282.661	6746
3284.419	6850
3286.178	6911
3287.937	6801
3289.695	6643
3291.453	6787
3293.21	6894
3294.967	6842
3296.723	6744
3298.48	6782
3300.235	6717
3301.99	6745
3303.744	6767
3305.498	6837
3307.253	6642
3309.006	6831
3310.759	6773
3312.511	6734
3314.263	6652
3316.017	6843
3317.768	6812
3319.519	6773
3321.268	6613
3323.018	6801
3324.767	6794
3326.518	6728
3328.267	6696
3330.014	6631
3331.762	6676
3333.509	6788
3335.258	6722
3337.003	6701
3338.75	6762
3340.496	6680
3342.24	6782
3343.987	6620
3345.732	6795
3347.475	6596
3349.219	6601
3350.961	6636
3352.705	6661
3354.448	6699
3356.19	6642
3357.931	6689
3359.672	6768
3361.412	6583
3363.155	6668
3364.894	6667
3366.633	6543
3368.372	6508
3370.11	6552
3371.849	6559
3373.588	6577
3375.325	6581
3377.061	6514
3378.799	6604
3380.534	6659
3382.271	6601
3384.006	6420
3385.741	6554
3387.475	6593
3389.209	6607
3390.944	6569
3392.677	6374
3394.409	6429
3396.143	6450
3397.874	6390
3399.606	6373
3401.338	6418
3403.069	6561
3404.799	6480
3406.528	6412
3408.258	6336
3409.988	6474
3411.717	6537
3413.445	6498
3415.173	6470
3416.899	6431
3418.626	6539
3420.354	6515
3422.08	6350
3423.806	6422
3425.531	6454
3427.255	6405
3428.981	6422
3430.705	6316
3432.429	6400
3434.151	6401
3435.875	6427
3437.599	6402
3439.321	6328
3441.042	6404
3442.763	6241
3444.483	6271
3446.204	6196
3447.926	6314
3449.645	6290
3451.364	6343
3453.082	6171
3454.801	6285
3456.52	6231
3458.238	6279
3459.954	6208
3461.671	6285
3463.387	6261
3465.104	6146
3466.82	6126
3468.534	6259
3470.25	6205
3471.963	6196
3473.676	6184
3475.392	6178
3477.104	6255
3478.817	6122
3480.528	6238
3482.241	6064
3483.954	6185
3485.664	6080
3487.374	6077
3489.084	6162
3490.795	6102
3492.504	6052
3494.214	6133
3495.922	6111
3497.63	6096
3499.338	6035
3501.045	5991
3502.753	6137
3504.459	5999
3506.166	6115
3507.871	6084
3509.576	5963
3511.283	5982
3512.987	5962
3514.691	5984
3516.395	5930
3518.098	6070
3519.8	5992
3521.504	6007
3523.206	5947
3524.908	6019
3526.609	6031
3528.309	6062
3530.011	6065
3531.711	5972
3533.411	6007
3535.109	6040
3536.808	5921
3538.507	5919
3540.206	5918
3541.904	5933
3543.601	5866
3545.297	5949
3546.994	5886
3548.69	5828
3550.387	5879
3552.081	5938
3553.776	5769
3555.47	5953
3557.166	5883
3558.859	5846
3560.553	5802
3562.245	5876
3563.938	5904
3565.629	5774
3567.322	5854
3569.014	5826
3570.704	5878
3572.394	5779
3574.084	5966
3575.775	5807
3577.464	5832
3579.152	5875
3580.842	5856
3582.529	5697
3584.216	5737
3585.905	5846
3587.591	5738
3589.279	5641
3590.964	5790
3592.649	5697
3594.336	5807
3596.021	5679
3597.705	5727
3599.388	5731
3601.072	5702
3602.757	5667
3604.439	5655
3606.122	5739
3607.803	5724
3609.485	5560
3611.167	5617
3612.849	5652
3614.529	5624
3616.208	5639
3617.888	5587
3619.567	5616
3621.247	5672
3622.926	5622
3624.603	5554
3626.281	5709
3627.958	5399
3629.635	5552
3631.312	5607
3632.989	5629
3634.665	5506
3636.339	5524
3638.014	5419
3639.691	5535
3641.364	5415
3643.038	5469
3644.71	5472
3646.384	5467
3648.058	5565
3649.729	5547
3651.402	5454
3653.073	5423
3654.744	5370
3656.414	5445
3658.085	5429
3659.755	5375
3661.424	5454
3663.094	5497
3664.762	5417
3666.431	5445
3668.099	5405
3669.766	5407
3671.433	5479
3673.099	5386
3674.768	5374
3676.433	5504
3678.098	5462
3679.763	5397
3681.428	5286
3683.093	5494
3684.757	5362
3686.421	5291
3688.083	5390
3689.746	5389
3691.408	5260
3693.071	5351
3694.733	5364
3696.394	5345
3698.054	5407
3699.715	5338
3701.375	5412
3703.036	5339
3704.695	5369
3706.354	5290
3708.012	5384
3709.67	5321
3711.329	5276
3712.987	5208
3714.644	5325
3716.299	5295
3717.955	5275
3719.613	5364
3721.268	5231
3722.923	5246
3724.577	5226
3726.231	5305
3727.885	5273
3729.539	5176
3731.192	5280
3732.845	5277
3734.497	5138
3736.149	5147
3737.802	5194
3739.453	5231
3741.104	5224
3742.753	5118
3744.404	5245
3746.052	5200
3747.704	5129
3749.352	5305
3751	5098
3752.648	5231
3754.296	5212
3755.944	5122
3757.59	5147
3759.238	5175
3760.883	5186
3762.528	5277
3764.176	5230
3765.82	5146
3767.464	5128
3769.109	5197
3770.753	5137
3772.396	5047
3774.04	5131
3775.683	5151
3777.325	5137
3778.967	5124
3780.608	5096
3782.25	5099
3783.89	5129
3785.531	5097
3787.17	5084
3788.81	5081
3790.45	4997
3792.09	5056
3793.729	5081
3795.366	5098
3797.003	4990
3798.64	5089
3800.278	5041
3801.915	4924
3803.551	5034
3805.187	4965
3806.822	5020
3808.458	5011
3810.093	4899
3811.726	5031
3813.36	5132
3814.994	4924
3816.627	4946
3818.262	5043
3819.893	5023
3821.525	5001
3823.157	5003
3824.787	4970
3826.42	4942
3828.051	5041
3829.68	4986
3831.31	5006
3832.938	5005
3834.569	4897
3836.198	4942
3837.825	4899
3839.454	4946
3841.08	4913
3842.708	4815
3844.335	5014
3845.962	4889
3847.587	4860
3849.212	4885
3850.838	4841
3852.463	4877
3854.089	4848
3855.712	4871
3857.335	4854
3858.959	4860
3860.582	4867
3862.205	4872
3863.827	4890
3865.449	4841
3867.07	4791
3868.691	4889
3870.312	4798
3871.933	4792
3873.553	4864
3875.173	4826
3876.792	4796
3878.411	4781
3880.03	4758
3881.647	4704
3883.265	4830
3884.882	4815
3886.499	4776
3888.116	4778
3889.732	4725
3891.348	4739
3892.964	4793
3894.579	4755
3896.195	4668
3897.809	4688
3899.423	4870
3901.036	4718
3902.648	4720
3904.261	4776
3905.875	4739
3907.487	4733
3909.099	4720
3910.709	4752
3912.321	4678
3913.933	4750
3915.542	4802
3917.152	4682
3918.762	4681
3920.37	4695
3921.98	4732
3923.589	4692
3925.196	4632
3926.804	4687
3928.41	4726
3930.018	4644
3931.626	4720
3933.231	4740
3934.838	4786
3936.442	4623
3938.046	4721
3939.653	4702
3941.257	4680
3942.861	4758
3944.464	4622
3946.068	4645
3947.67	4623
3949.273	4673
3950.876	4698
3952.477	4575
3954.078	4605
3955.678	4527
3957.281	4588
3958.881	4579
3960.48	4610
3962.079	4538
3963.678	4631
3965.279	4619
3966.877	4462
3968.475	4612
3970.072	4606
3971.669	4460
3973.266	4601
3974.864	4579
3976.459	4527
3978.055	4538
3979.65	4614
3981.245	4543
3982.841	4472
3984.436	4594
3986.03	4418
3987.623	4494
3989.216	4464
3990.809	4440
3992.403	4494
3993.995	4496
3995.586	4487
3997.177	4479
3998.768	4511
4000.361	4557
4001.951	4413
4003.54	4429
4005.13	4447
4006.719	4453
4008.31	4526
4009.897	4363
4011.485	4388
4013.073	4338
4014.66	4358
4016.247	4421
4017.834	4315
4019.421	4356
4021.006	4314
4022.592	4302
4024.178	4406
4025.763	4293
4027.348	4358
4028.932	4336
4030.515	4353
4032.099	4378
4033.682	4343
4035.266	4386
4036.847	4326
4038.429	4373
4040.011	4258
4041.592	4324
4043.173	4313
4044.755	4248
4046.334	4422
4047.913	4338
4049.494	4307
4051.074	4339
4052.652	4219
4054.23	4209
4055.807	4363
4057.385	4279
4058.963	4311
4060.541	4231
4062.117	4187
4063.693	4258
4065.269	4250
4066.844	4280
4068.42	4257
4069.995	4316
4071.569	4146
4073.143	4154
4074.716	4193
4076.291	4212
4077.864	4292
4079.436	4224
4081.009	4230
4082.58	4129
4084.152	4205
4085.723	4184
4087.294	4123
4088.865	4233
4090.435	4186
4092.005	4183
4093.574	4215
4095.143	4275
4096.712	4182
4098.279	4170
4099.848	4153
4101.416	4122
4102.984	4171
4104.55	4122
4106.117	4060
4107.682	4154
4109.248	4122
4110.815	4035
4112.379	4175
4113.945	4164
4115.508	4043
4117.073	4116
4118.637	4168
4120.201	4083
4121.763	4100
4123.325	4077
4124.888	4025
4126.449	4108
4128.013	4060
4129.573	4098
4131.133	4080
4132.694	4021
4134.254	4005
4135.814	4051
4137.374	3989
4138.933	4084
4140.491	4005
4142.049	4029
4143.607	4083
4145.167	3969
4146.724	4000
4148.28	3999
4149.836	4034
4151.392	4013
4152.949	4021
4154.504	4063
4156.059	4090
4157.614	4015
4159.168	4028
4160.723	4029
4162.277	3873
4163.83	3973
4165.383	3895
4166.936	3884
4168.488	3964
4170.041	3952
4171.593	3917
4173.144	3890
4174.695	3907
4176.246	3919
4177.796	3938
4179.346	3905
4180.896	3896
4182.445	3785
4183.994	3969
4185.542	3883
4187.091	3893
4188.639	3870
4190.185	3921
4191.732	3949
4193.279	3938
4194.826	3879
4196.373	3900
4197.918	3877
4199.463	3852
4201.008	3858
4202.553	3872
4204.098	3754
4205.641	3938
4207.185	3860
4208.728	3750
4210.271	3829
4211.814	3910
4213.357	3674
4214.898	3842
4216.439	3820
4217.98	3752
4219.522	3785
4221.062	3741
4222.603	3802
4224.142	3786
4225.681	3840
4227.222	3854
4228.76	3714
4230.298	3785
4231.835	3702
4233.373	3738
4234.911	3802
4236.449	3753
4237.985	3754
4239.521	3787
4241.057	3736
4242.592	3748
4244.128	3848
4245.663	3733
4247.197	3776
4248.731	3746
4250.265	3850
4251.798	3706
4253.333	3718
4254.865	3707
4256.397	3673
4257.93	3706
4259.461	3734
4260.994	3686
4262.525	3706
4264.056	3686
4265.586	3740
4267.115	3707
4268.646	3745
4270.176	3622
4271.705	3719
4273.232	3699
4274.761	3662
4276.289	3603
4277.818	3682
4279.345	3719
4280.872	3682
4282.399	3700
4283.924	3656
4285.452	3645
4286.976	3632
4288.502	3652
4290.026	3685
4291.551	3687
4293.074	3679
4294.6	3598
4296.123	3612
4297.646	3657
4299.168	3686
4300.691	3632
4302.214	3615
4303.736	3583
4305.257	3626
4306.778	3608
4308.299	3591
4309.82	3688
4311.34	3536
4312.86	3578
4314.379	3526
