400.0745	4025
402.597	4039
405.1208	4090
407.6419	4023
410.1623	4053
412.6819	4037
415.201	4155
417.7172	4141
420.2369	4098
422.7538	4116
425.2701	4236
427.7856	4225
430.3005	4324
432.8147	4275
435.3282	4207
437.841	4281
440.3511	4321
442.8625	4304
445.3753	4333
447.8854	4358
450.3927	4361
452.9014	4303
455.4073	4258
457.9146	4313
460.4233	4386
462.9272	4330
465.4325	4370
467.935	4297
470.4389	4356
472.9421	4316
475.4446	4329
477.9444	4381
480.4456	4279
482.944	4392
485.4417	4407
487.9429	4449
490.4393	4469
492.935	4431
495.4321	4402
497.9264	4388
500.4221	4463
502.9171	4529
505.4094	4501
507.9011	4486
510.392	4485
512.8864	4470
515.3759	4473
517.8649	4452
520.3531	4507
522.8406	4464
525.3275	4504
527.8178	4486
530.3033	4570
532.7881	4589
535.2723	4447
537.7558	4493
540.2407	4573
542.7228	4505
545.2043	4507
547.6851	4602
550.1652	4625
552.6467	4565
555.1255	4478
557.6016	4590
560.079	4620
562.5557	4594
565.0318	4618
567.5092	4756
569.984	4684
572.456	4649
574.9294	4752
577.4022	4667
579.8762	4706
582.3456	4744
584.8163	4802
587.2863	4737
589.7557	4725
592.2224	4825
594.6924	4801
597.1578	4695
599.6245	4706
602.0905	4705
604.5538	4669
607.0206	4702
609.4825	4652
611.9459	4706
614.4066	4683
616.8686	4606
619.33	4733
621.7906	4733
624.2487	4594
626.708	4672
629.1647	4600
631.6207	4592
634.0801	4687
636.5348	4676
638.9888	4642
641.4442	4716
643.8969	4748
646.3509	4688
648.8022	4852
651.255	4680
653.705	4692
656.1544	4725
658.6031	4793
661.0532	4730
663.5026	4781
665.9493	4707
668.3954	4857
670.8409	4838
673.2877	4843
675.7318	4734
678.1752	4755
680.618	4775
683.0601	4865
685.5035	4865
687.9444	4765
690.3845	4916
692.824	4866
695.2628	4796
697.701	4870
700.1406	4916
702.5774	4800
705.0116	4957
707.4472	4891
709.8821	4944
712.3183	4907
714.7519	4981
717.1829	4922
719.6151	5018
722.0468	5056
724.4777	4975
726.908	4983
729.3377	4948
731.7667	5046
734.1931	5096
736.6208	5030
739.0498	5200
741.4742	5055
743.9	5083
746.3231	5201
748.7476	5128
751.1713	5185
753.5945	5093
756.015	5174
758.4368	5186
760.856	5162
763.2766	5220
765.6965	5206
768.1157	5165
770.5323	5178
772.9483	5186
775.3656	5147
777.7822	5215
780.1963	5225
782.6116	5175
785.0244	5113
787.4365	5158
789.8499	5119
792.2626	5129
794.6728	5209
797.0823	5226
799.4911	5247
801.8994	5299
804.3109	5301
806.7178	5245
809.124	5142
811.5297	5227
813.9347	5235
816.341	5263
818.7447	5202
821.1478	5388
823.5502	5243
825.952	5174
828.3531	5239
830.7556	5178
833.1554	5274
835.5546	5206
837.9532	5221
840.3511	5279
842.7504	5340
845.1451	5419
847.5411	5300
849.9365	5364
852.3312	5365
854.7272	5444
857.1187	5369
859.5115	5368
861.9037	5349
864.2952	5325
866.6842	5343
869.0764	5408
871.4661	5325
873.8531	5385
876.2415	5395
878.6272	5344
881.0162	5265
883.4026	5313
885.7866	5313
888.1717	5282
890.5543	5264
892.9382	5396
895.3215	5373
897.7041	5382
900.0842	5453
902.4655	5493
904.8443	5378
907.2244	5397
909.6039	5423
911.9808	5350
914.357	5422
916.7346	5457
919.1115	5556
921.4859	5466
923.8616	5607
926.2347	5624
928.6071	5521
930.979	5549
933.3541	5590
935.7247	5672
938.0946	5607
940.4639	5737
942.8326	5694
945.2026	5707
947.5701	5845
949.9369	5841
952.305	6022
954.6705	6101
957.0355	6236
959.4017	6375
961.7654	6459
964.1284	6451
966.4908	6379
968.8527	6307
971.2138	6075
973.5743	5910
975.9343	5859
978.2936	5725
980.6522	5612
983.0122	5567
985.3696	5638
987.7245	5554
990.0807	5519
992.4362	5468
994.7911	5514
997.1474	5554
999.4991	5536
1001.852	5589
1004.205	5702
1006.555	5567
1008.908	5649
1011.258	5593
1013.606	5605
1015.956	5560
1018.302	5562
1020.652	5622
1022.998	5602
1025.345	5628
1027.691	5750
1030.035	5614
1032.378	5625
1034.724	5638
1037.066	5706
1039.409	5568
1041.75	5614
1044.092	5809
1046.433	5568
1048.771	5674
1051.112	5665
1053.449	5702
1055.786	5654
1058.124	5742
1060.462	5681
1062.797	5716
1065.131	5719
1067.467	5785
1069.8	5675
1072.135	5792
1074.467	5728
1076.798	5700
1079.129	5658
1081.459	5566
1083.792	5754
1086.121	5693
1088.449	5765
1090.777	5665
1093.104	5554
1095.431	5750
1097.759	5641
1100.084	5589
1102.408	5647
1104.732	5739
1107.056	5702
1109.379	5657
1111.701	5668
1114.022	5815
1116.343	5667
1118.664	5747
1120.983	5662
1123.303	5726
1125.621	5664
1127.939	5680
1130.256	5649
1132.573	5736
1134.889	5717
1137.205	5709
1139.52	5744
1141.832	5662
1144.146	5760
1146.461	5709
1148.771	5763
1151.083	5646
1153.392	5778
1155.703	5736
1158.011	5698
1160.323	5731
1162.629	5728
1164.938	5745
1167.243	5726
1169.55	5755
1171.857	5722
1174.163	5699
1176.466	5680
1178.769	5717
1181.073	5686
1183.374	5683
1185.677	5750
1187.979	5677
1190.279	5738
1192.578	5664
1194.878	5751
1197.178	5711
1199.476	5786
1201.772	5719
1204.068	5765
1206.366	5654
1208.663	5831
1210.957	5787
1213.251	5779
1215.544	5764
1217.836	5750
1220.128	5637
1222.421	5827
1224.712	5700
1227.002	5819
1229.292	5741
1231.581	5892
1233.871	5799
1236.159	5907
1238.446	5800
1240.732	6025
1243.018	5891
1245.304	5931
1247.59	5855
1249.874	5978
1252.156	5863
1254.439	5918
1256.721	5877
1259.005	5931
1261.286	5798
1263.565	5838
1265.845	5844
1268.125	5931
1270.403	5931
1272.682	5949
1274.959	5994
1277.234	6022
1279.511	5919
1281.787	5864
1284.062	5857
1286.337	5908
1288.609	5804
1290.882	5797
1293.153	5809
1295.428	5847
1297.698	5775
1299.969	5805
1302.237	5835
1304.507	5855
1306.777	5789
1309.044	5876
1311.312	5890
1313.578	5812
1315.844	5868
1318.109	5857
1320.375	5903
1322.638	5730
1324.903	5943
1327.165	5807
1329.427	5832
1331.69	5784
1333.952	5790
1336.212	5731
1338.471	5871
1340.73	5827
1342.988	5822
1345.248	5883
1347.505	5800
1349.763	5763
1352.019	5762
1354.274	5828
1356.53	5840
1358.784	5836
1361.038	5926
1363.291	5813
1365.543	5787
1367.797	5831
1370.048	5980
1372.296	5810
1374.546	5814
1376.796	5916
1379.045	5879
1381.295	5849
1383.542	5884
1385.787	6028
1388.034	5942
1390.28	5937
1392.527	5994
1394.772	6003
1397.014	5832
1399.258	5892
1401.501	5904
1403.741	5993
1405.985	5972
1408.226	6025
1410.465	5971
1412.705	5937
1414.943	5933
1417.184	6001
1419.42	6015
1421.658	6036
1423.894	5958
1426.13	5916
1428.366	5933
1430.602	6021
1432.835	6031
1435.069	6067
1437.301	6071
1439.535	6119
1441.767	6049
1443.997	6034
1446.229	6075
1448.458	6082
1450.687	6085
1452.916	6177
1455.146	6184
1457.372	6142
1459.599	6093
1461.824	6190
1464.051	6079
1466.277	6108
1468.501	6114
1470.725	6055
1472.948	6020
1475.17	5941
1477.393	5996
1479.614	5934
1481.837	5977
1484.057	5958
1486.276	5959
1488.497	5949
1490.715	5891
1492.932	5913
1495.148	5767
1497.364	5890
1499.58	5869
1501.798	5946
1504.012	5974
1506.227	5682
1508.44	5812
1510.653	5869
1512.866	5806
1515.078	5756
1517.289	5869
1519.5	5805
1521.711	5748
1523.92	5889
1526.13	5822
1528.338	5820
1530.544	5892
1532.752	5840
1534.959	5837
1537.165	5715
1539.371	5869
1541.574	5910
1543.779	5778
1545.983	5823
1548.187	5824
1550.39	5871
1552.59	6008
1554.792	5983
1556.991	5864
1559.19	5865
1561.392	5964
1563.59	5987
1565.789	5925
1567.986	5951
1570.182	5922
1572.381	5928
1574.576	6044
1576.771	5934
1578.966	5901
1581.16	5934
1583.354	5985
1585.546	6015
1587.74	5896
1589.931	6068
1592.121	6004
1594.311	5940
1596.502	6042
1598.693	5911
1600.881	5938
1603.069	6003
1605.256	6042
1607.445	5989
1609.631	6098
1611.816	6033
1614.001	6023
1616.186	5950
1618.37	6049
1620.555	6068
1622.737	6147
1624.919	6034
1627.101	5965
1629.282	6042
1631.463	6151
1633.643	6067
1635.822	6023
1638.001	6015
1640.179	5991
1642.359	6058
1644.534	6042
1646.711	6060
1648.887	5960
1651.062	6114
1653.235	6204
1655.412	6041
1657.586	6019
1659.757	6123
1661.93	6037
1664.1	6164
1666.274	6133
1668.445	6103
1670.614	6124
1672.784	6006
1674.951	6144
1677.12	6071
1679.289	6126
1681.457	6114
1683.622	6018
1685.789	6051
1687.953	6155
1690.121	6148
1692.284	6116
1694.447	6013
1696.611	6093
1698.772	6003
1700.935	6176
1703.098	5969
1705.258	6050
1707.417	5995
1709.576	6073
1711.736	6071
1713.896	5969
1716.053	5887
1718.21	5924
1720.366	5947
1722.522	6053
1724.68	5982
1726.835	5993
1728.989	6048
1731.142	5944
1733.295	5911
1735.449	6009
1737.601	6014
1739.753	5982
1741.903	6036
1744.054	6022
1746.203	6025
1748.354	5959
1750.503	5981
1752.651	5945
1754.798	6096
1756.944	6022
1759.092	5958
1761.238	6049
1763.383	6078
1765.528	5989
1767.672	6041
1769.814	6005
1771.959	5997
1774.102	6172
1776.242	6112
1778.384	6061
1780.525	6103
1782.665	6084
1784.805	6006
1786.945	6014
1789.082	5894
1791.22	5961
1793.36	5997
1795.495	6109
1797.632	6062
1799.766	6121
1801.902	5976
1804.035	6069
1806.172	5957
1808.304	5962
1810.436	6046
1812.569	6071
1814.699	6169
1816.833	5961
1818.963	6162
1821.092	6109
1823.222	5925
1825.35	5957
1827.478	6010
1829.608	6074
1831.734	5984
1833.86	5980
1835.986	5969
1838.11	6058
1840.238	6041
1842.362	6025
1844.485	5921
1846.608	6055
1848.73	5910
1850.853	6018
1852.974	6016
1855.097	5927
1857.217	5909
1859.336	5921
1861.455	5929
1863.576	5972
1865.693	6025
1867.811	5888
1869.926	5897
1872.042	5927
1874.16	5820
1876.275	5981
1878.39	5967
1880.504	6082
1882.618	6026
1884.731	5994
1886.843	6047
1888.956	5909
1891.067	5994
1893.178	5991
1895.287	5998
1897.399	5890
1899.508	5968
1901.617	6070
1903.724	5989
1905.832	6010
1907.941	6152
1910.046	6021
1912.152	5995
1914.256	6019
1916.361	6122
1918.464	6028
1920.57	5996
1922.672	6027
1924.775	6021
1926.876	6002
1928.978	5986
1931.08	5958
1933.181	6053
1935.28	6120
1937.38	5983
1939.478	6154
1941.577	6018
1943.675	6010
1945.771	6030
1947.867	6091
1949.964	6170
1952.058	6074
1954.154	5931
1956.248	6050
1958.343	6004
1960.435	6036
1962.527	6013
1964.62	5914
1966.711	6028
1968.802	6064
1970.892	6077
1972.983	6045
1975.072	5984
1977.162	6094
1979.25	5937
1981.337	6083
1983.424	6022
1985.51	6041
1987.598	6045
1989.683	5966
1991.768	5929
1993.852	5988
1995.934	5889
1998.019	6057
2000.102	5963
2002.184	5982
2004.266	5914
2006.347	5988
2008.427	5911
2010.508	5966
2012.587	6052
2014.666	5876
2016.745	5883
2018.821	5892
2020.9	5960
2022.977	5904
2025.052	5876
2027.128	5974
2029.204	5992
2031.277	5921
2033.353	5948
2035.425	5926
2037.499	5914
2039.57	5940
2041.642	6104
2043.714	5944
2045.786	6023
2047.855	5903
2049.925	5962
2051.993	5973
2054.064	5914
2056.132	5936
2058.2	6009
2060.266	5977
2062.332	5949
2064.398	5847
2066.465	5960
2068.529	5966
2070.592	5988
2072.657	5923
2074.719	5899
2076.783	5829
2078.845	6106
2080.907	6008
2082.968	5928
2085.028	5936
2087.087	5948
2089.148	5936
2091.207	5997
2093.264	5944
2095.322	6066
2097.379	5930
2099.439	6007
2101.495	5980
2103.55	5914
2105.605	6016
2107.658	5984
2109.713	5852
2111.767	5927
2113.82	5991
2115.872	6029
2117.924	5965
2119.975	5898
2122.028	5967
2124.078	5972
2126.126	5914
2128.176	6001
2130.225	6009
2132.275	5952
2134.321	5943
2136.368	5964
2138.415	5915
2140.461	6009
2142.505	5987
2144.552	5997
2146.597	5843
2148.64	5853
2150.684	5916
2152.725	5930
2154.77	5844
2156.811	5920
2158.852	6019
2160.894	5849
2162.933	5931
2164.973	5850
2167.013	5888
2169.051	5921
2171.089	5857
2173.126	5889
2175.164	5863
2177.201	5925
2179.236	6004
2181.273	5826
2183.307	5929
2185.341	5873
2187.377	5845
2189.41	5868
2191.442	5831
2193.473	5830
2195.506	5796
2197.539	5779
2199.569	5842
2201.598	5793
2203.628	5803
2205.656	5761
2207.686	5811
2209.716	5714
2211.743	5822
2213.769	5782
2215.796	5853
2217.821	5792
2219.848	5888
2221.873	5782
2223.897	5728
2225.921	5807
2227.944	5809
2229.967	5776
2231.991	5769
2234.011	5717
2236.032	5806
2238.053	5766
2240.073	5753
2242.094	5763
2244.114	5684
2246.131	5840
2248.149	5729
2250.167	5706
2252.186	5647
2254.201	5827
2256.218	5801
2258.233	5703
2260.247	5671
2262.262	5845
2264.278	5761
2266.29	5672
2268.303	5773
2270.315	5780
2272.327	5766
2274.341	5779
2276.35	5802
2278.361	5792
2280.37	5727
2282.38	5809
2284.388	5788
2286.397	5859
2288.405	5806
2290.412	5764
2292.419	5791
2294.425	5783
2296.431	5722
2298.437	5740
2300.441	5748
2302.445	5717
2304.449	5725
2306.453	5691
2308.455	5707
2310.457	5786
2312.459	5720
2314.46	5784
2316.46	5715
2318.461	5713
2320.46	5738
2322.458	5743
2324.458	5655
2326.456	5710
2328.455	5716
2330.451	5737
2332.447	5664
2334.443	5643
2336.438	5651
2338.433	5614
2340.429	5709
2342.422	5604
2344.416	5736
2346.408	5645
2348.399	5721
2350.393	5624
2352.384	5757
2354.375	5733
2356.365	5684
2358.355	5647
2360.344	5552
2362.333	5510
2364.322	5539
2366.309	5650
2368.295	5747
2370.282	5493
2372.27	5583
2374.256	5658
2376.24	5660
2378.225	5689
2380.208	5615
2382.194	5602
2384.177	5500
2386.159	5658
2388.142	5627
2390.122	5449
2392.105	5458
2394.085	5663
2396.066	5520
2398.044	5484
2400.024	5592
2402.002	5544
2403.982	5561
2405.959	5544
2407.935	5585
2409.913	5550
2411.888	5486
2413.865	5571
2415.84	5618
2417.814	5633
2419.788	5542
2421.762	5589
2423.735	5412
2425.708	5549
2427.68	5485
2429.651	5571
2431.623	5489
2433.593	5502
2435.564	5543
2437.533	5496
2439.502	5582
2441.47	5524
2443.438	5512
2445.406	5615
2447.373	5593
2449.34	5566
2451.305	5489
2453.271	5453
2455.235	5476
2457.201	5528
2459.165	5489
2461.129	5379
2463.092	5571
2465.054	5308
2467.018	5416
2468.978	5521
2470.939	5469
2472.899	5363
2474.86	5509
2476.819	5464
2478.778	5390
2480.737	5383
2482.695	5395
2484.653	5443
2486.609	5543
2488.567	5545
2490.524	5536
2492.478	5419
2494.433	5485
2496.387	5603
2498.343	5370
2500.297	5393
2502.249	5401
2504.202	5301
2506.153	5506
2508.105	5451
2510.057	5392
2512.008	5340
2513.957	5488
2515.906	5517
2517.855	5334
2519.805	5414
2521.754	5314
2523.7	5383
2525.647	5449
2527.594	5482
2529.54	5376
2531.486	5375
2533.431	5360
2535.376	5400
2537.32	5402
2539.263	5451
2541.207	5412
2543.151	5398
2545.093	5370
2547.034	5395
2548.975	5390
2550.917	5341
2552.856	5336
2554.796	5345
2556.735	5394
2558.673	5313
2560.611	5403
2562.55	5322
2564.487	5427
2566.424	5347
2568.36	5376
2570.296	5350
2572.232	5414
2574.167	5360
2576.101	5364
2578.035	5335
2579.969	5356
2581.902	5309
2583.834	5338
2585.766	5443
2587.698	5314
2589.628	5382
2591.557	5393
2593.489	5279
2595.419	5440
2597.348	5434
2599.275	5493
2601.204	5375
2603.131	5291
2605.059	5490
2606.986	5313
2608.911	5307
2610.837	5416
2612.76	5365
2614.687	5364
2616.61	5479
2618.534	5431
2620.457	5394
2622.38	5370
2624.302	5427
2626.225	5343
2628.145	5342
2630.067	5385
2631.986	5392
2633.906	5371
2635.827	5343
2637.745	5414
2639.662	5354
2641.581	5346
2643.498	5377
2645.415	5384
2647.331	5397
2649.248	5297
2651.163	5395
2653.077	5309
2654.993	5357
2656.906	5345
2658.821	5300
2660.733	5366
2662.646	5324
2664.557	5434
2666.47	5285
2668.381	5376
2670.291	5333
2672.201	5357
2674.11	5361
2676.021	5434
2677.929	5411
2679.837	5321
2681.745	5326
2683.652	5340
2685.56	5340
2687.466	5259
2689.371	5298
2691.276	5313
2693.181	5227
2695.085	5330
2696.991	5245
2698.893	5242
2700.796	5363
2702.698	5321
2704.601	5297
2706.502	5275
2708.404	5271
2710.304	5301
2712.203	5285
2714.103	5365
2716.003	5357
2717.902	5238
2719.8	5166
2721.697	5202
2723.594	5158
2725.49	5219
2727.389	5305
2729.283	5166
2731.179	5169
2733.073	5315
2734.968	5201
2736.863	5218
2738.757	5180
2740.649	5251
2742.541	5190
2744.433	5130
2746.324	5215
2748.216	5232
2750.107	5276
2751.997	5186
2753.886	5268
2755.776	5237
2757.666	5154
2759.553	5099
2761.44	5195
2763.327	5249
2765.215	5210
2767.102	5240
2768.988	5207
2770.873	5147
2772.757	5260
2774.641	5202
2776.525	5212
2778.41	5192
2780.292	5256
2782.175	5102
2784.057	5233
2785.938	5110
2787.821	5107
2789.701	5116
2791.581	5256
2793.461	5131
2795.34	5228
2797.219	5148
2799.099	5140
2800.975	5206
2802.853	5112
2804.73	5053
2806.606	5109
2808.484	5159
2810.358	5143
2812.233	5089
2814.108	5097
2815.981	5132
2817.857	5071
2819.73	5154
2821.602	5227
2823.474	5113
2825.346	5049
2827.217	5003
2829.089	5177
2830.959	5164
2832.829	5161
2834.698	5180
2836.567	5216
2838.436	5132
2840.305	5101
2842.172	5176
2844.04	5137
2845.905	5051
2847.772	5092
2849.639	5180
2851.503	5113
2853.369	5079
2855.232	5105
2857.096	5104
2858.961	5154
2860.824	5208
2862.686	5146
2864.547	5283
2866.41	5251
2868.272	5227
2870.132	5276
2871.992	5259
2873.851	5273
2875.711	5364
2877.57	5383
2879.429	5386
2881.287	5400
2883.144	5418
2885.001	5544
2886.857	5473
2888.714	5514
2890.57	5371
2892.425	5511
2894.279	5386
2896.133	5460
2897.987	5460
2899.842	5389
2901.694	5270
2903.547	5514
2905.397	5306
2907.249	5296
2909.101	5471
2910.952	5423
2912.802	5434
2914.652	5430
2916.5	5448
2918.35	5580
2920.198	5512
2922.045	5606
2923.893	5597
2925.74	5577
2927.585	5674
2929.433	5666
2931.279	5772
2933.123	5848
2934.968	5795
2936.811	5789
2938.656	5855
2940.5	5875
2942.342	5990
2944.185	5860
2946.026	5890
2947.87	5922
2949.71	6026
2951.549	5877
2953.39	5877
2955.229	5872
2957.069	5788
2958.908	5825
2960.746	5770
2962.584	5707
2964.421	5692
2966.257	5731
2968.094	5569
2969.931	5564
2971.766	5478
2973.601	5617
2975.435	5458
2977.27	5413
2979.105	5399
2980.938	5451
2982.77	5330
2984.602	5374
2986.434	5382
2988.267	5407
2990.097	5327
2991.927	5332
2993.757	5314
2995.587	5277
2997.417	5200
2999.246	5345
3001.074	5191
3002.902	5062
3004.729	5085
3006.556	5170
3008.384	5018
3010.21	4992
3012.036	5026
3013.861	4877
3015.684	4904
3017.51	4893
3019.334	4942
3021.157	5006
3022.981	4856
3024.802	4873
3026.624	4859
3028.448	4767
3030.267	4867
3032.088	4765
3033.909	4794
3035.728	4811
3037.549	4798
3039.368	4664
3041.186	4773
3043.004	4842
3044.821	4763
3046.64	4789
3048.455	4871
3050.272	4630
3052.087	4805
3053.903	4730
3055.717	4733
3057.534	4788
3059.347	4763
3061.16	4783
3062.974	4739
3064.785	4750
3066.598	4682
3068.411	4743
3070.222	4722
3072.032	4760
3073.844	4784
3075.653	4702
3077.463	4735
3079.272	4693
3081.08	4635
3082.889	4634
3084.697	4639
3086.505	4753
3088.312	4701
3090.118	4612
3091.924	4657
3093.729	4715
3095.535	4611
3097.34	4611
3099.144	4618
3100.947	4620
3102.75	4655
3104.553	4614
3106.357	4578
3108.159	4594
3109.961	4664
3111.762	4571
3113.562	4560
3115.365	4580
3117.164	4654
3118.964	4653
3120.761	4560
3122.56	4570
3124.36	4581
3126.158	4527
3127.954	4510
3129.75	4508
3131.547	4497
3133.343	4594
3135.139	4553
3136.934	4509
3138.729	4507
3140.522	4491
3142.317	4532
3144.11	4478
3145.904	4583
3147.695	4559
3149.488	4501
3151.28	4517
3153.07	4483
3154.863	4495
3156.652	4562
3158.441	4472
3160.231	4420
3162.019	4421
3163.81	4486
3165.597	4481
3167.384	4511
3169.172	4531
3170.958	4441
3172.745	4449
3174.532	4429
3176.317	4397
3178.101	4560
3179.885	4394
3181.67	4486
3183.455	4415
3185.238	4483
3187.02	4438
3188.802	4456
3190.585	4417
3192.368	4462
3194.149	4464
3195.929	4362
3197.709	4388
3199.489	4356
3201.268	4334
3203.048	4416
3204.826	4394
3206.604	4420
3208.382	4320
3210.159	4377
3211.937	4381
3213.713	4359
3215.489	4419
3217.263	4371
3219.038	4413
3220.815	4426
3222.589	4382
3224.363	4309
3226.136	4416
3227.908	4444
3229.681	4352
3231.454	4327
3233.226	4342
3234.996	4429
3236.767	4366
3238.538	4393
3240.308	4286
3242.078	4378
3243.847	4346
3245.615	4281
3247.384	4329
3249.15	4388
3250.92	4472
3252.686	4326
3254.453	4330
3256.218	4368
3257.984	4399
3259.75	4346
3261.515	4364
3263.279	4315
3265.044	4377
3266.806	4384
3268.57	4339
3270.334	4308
3272.095	4359
3273.856	4329
3275.619	4287
3277.379	4399
3279.14	4383
3280.9	4332
3282.661	4384
3284.419	4446
3286.178	4376
3287.937	4267
3289.695	4327
3291.453	4417
3293.21	4380
3294.967	4299
3296.723	4323
3298.48	4417
3300.235	4323
3301.99	4302
3303.744	4267
3305.498	4369
3307.253	4337
3309.006	4386
3310.759	4313
3312.511	4266
3314.263	4352
3316.017	4377
3317.768	4248
3319.519	4373
3321.268	4373
3323.018	4390
3324.767	4415
3326.518	4288
3328.267	4310
3330.014	4389
3331.762	4404
3333.509	4331
3335.258	4389
3337.003	4279
3338.75	4285
3340.496	4327
3342.24	4246
3343.987	4188
3345.732	4289
3347.475	4211
3349.219	4311
3350.961	4278
3352.705	4236
3354.448	4352
3356.19	4231
3357.931	4230
3359.672	4235
3361.412	4220
3363.155	4281
3364.894	4254
3366.633	4239
3368.372	4274
3370.11	4252
3371.849	4226
3373.588	4147
3375.325	4249
3377.061	4218
3378.799	4265
3380.534	4253
3382.271	4227
3384.006	4236
3385.741	4188
3387.475	4134
3389.209	4175
3390.944	4226
3392.677	4214
3394.409	4203
3396.143	4102
3397.874	4205
3399.606	4128
3401.338	4156
3403.069	4079
3404.799	4182
3406.528	4129
3408.258	4114
3409.988	4145
3411.717	4110
3413.445	4126
3415.173	4124
3416.899	4118
3418.626	4056
3420.354	4098
3422.08	4098
3423.806	4178
3425.531	4168
3427.255	4083
3428.981	4111
3430.705	4104
3432.429	4144
3434.151	4146
3435.875	4092
3437.599	4096
3439.321	4061
3441.042	4088
3442.763	3986
3444.483	4071
3446.204	4004
3447.926	4118
3449.645	3983
3451.364	4098
3453.082	4006
3454.801	3995
3456.52	4089
3458.238	4054
3459.954	4053
3461.671	4013
3463.387	3968
3465.104	4020
3466.82	3992
3468.534	4052
3470.25	3953
3471.963	4035
3473.676	3986
3475.392	3958
3477.104	3941
3478.817	3902
3480.528	3902
3482.241	3985
3483.954	3926
3485.664	3969
3487.374	3914
3489.084	3905
3490.795	3944
3492.504	3943
3494.214	3807
3495.922	3897
3497.63	3899
3499.338	3893
3501.045	3900
3502.753	3794
3504.459	3937
3506.166	3895
3507.871	3912
3509.576	3821
3511.283	3847
3512.987	3852
3514.691	3868
3516.395	3827
3518.098	3853
3519.8	3806
3521.504	3788
3523.206	3915
3524.908	3811
3526.609	3836
3528.309	3798
3530.011	3801
3531.711	3867
3533.411	3828
3535.109	3758
3536.808	3775
3538.507	3812
3540.206	3788
3541.904	3806
3543.601	3874
3545.297	3745
3546.994	3781
3548.69	3771
3550.387	3752
3552.081	3723
3553.776	3806
3555.47	3681
3557.166	3755
3558.859	3793
3560.553	3688
3562.245	3728
3563.938	3725
3565.629	3795
3567.322	3710
3569.014	3772
3570.704	3701
3572.394	3680
3574.084	3731
3575.775	3682
3577.464	3759
3579.152	3654
3580.842	3704
3582.529	3744
3584.216	3758
3585.905	3659
3587.591	3764
3589.279	3626
3590.964	3638
3592.649	3633
3594.336	3635
3596.021	3711
3597.705	3703
3599.388	3628
3601.072	3669
3602.757	3577
3604.439	3620
3606.122	3619
3607.803	3630
3609.485	3555
3611.167	3559
3612.849	3644
3614.529	3586
3616.208	3631
3617.888	3576
3619.567	3600
3621.247	3609
3622.926	3599
3624.603	3567
3626.281	3583
3627.958	3591
3629.635	3537
3631.312	3540
3632.989	3549
3634.665	3552
3636.339	3555
3638.014	3538
3639.691	3492
3641.364	3524
3643.038	3482
3644.71	3492
3646.384	3524
3648.058	3511
3649.729	3517
3651.402	3466
3653.073	3513
3654.744	3480
3656.414	3529
3658.085	3488
3659.755	3445
3661.424	3510
3663.094	3510
3664.762	3395
3666.431	3512
3668.099	3457
3669.766	3488
3671.433	3440
3673.099	3491
3674.768	3450
3676.433	3410
3678.098	3405
3679.763	3319
3681.428	3447
3683.093	3478
3684.757	3362
3686.421	3366
3688.083	3378
3689.746	3470
3691.408	3419
3693.071	3412
3694.733	3349
3696.394	3332
3698.054	3388
3699.715	3370
3701.375	3461
3703.036	3414
3704.695	3428
3706.354	3314
3708.012	3392
3709.67	3335
3711.329	3324
3712.987	3362
3714.644	3387
3716.299	3331
3717.955	3412
3719.613	3452
3721.268	3397
3722.923	3418
3724.577	3372
3726.231	3363
3727.885	3357
3729.539	3350
3731.192	3326
3732.845	3391
3734.497	3361
3736.149	3379
3737.802	3386
3739.453	3326
3741.104	3353
3742.753	3416
3744.404	3303
3746.052	3389
3747.704	3323
3749.352	3227
3751	3289
3752.648	3323
3754.296	3271
3755.944	3334
3757.59	3341
3759.238	3358
3760.883	3325
3762.528	3291
3764.176	3257
3765.82	3318
3767.464	3279
3769.109	3311
3770.753	3233
3772.396	3224
3774.04	3293
3775.683	3267
3777.325	3247
3778.967	3278
3780.608	3201
3782.25	3187
3783.89	3210
3785.531	3318
3787.17	3158
3788.81	3199
3790.45	3272
3792.09	3210
3793.729	3223
3795.366	3167
3797.003	3242
3798.64	3260
3800.278	3223
3801.915	3237
3803.551	3244
3805.187	3239
3806.822	3294
3808.458	3253
3810.093	3129
3811.726	3176
3813.36	3180
3814.994	3148
3816.627	3198
3818.262	3157
3819.893	3189
3821.525	3160
3823.157	3181
3824.787	3137
3826.42	3137
3828.051	3161
3829.68	3224
3831.31	3175
3832.938	3174
3834.569	3130
3836.198	3061
3837.825	3160
3839.454	3176
3841.08	3120
3842.708	3131
3844.335	3113
3845.962	3108
3847.587	3116
3849.212	3159
3850.838	3065
3852.463	3055
3854.089	3136
3855.712	3140
3857.335	3081
3858.959	3073
3860.582	3091
3862.205	3054
3863.827	3045
3865.449	3037
3867.07	3165
3868.691	3040
3870.312	3048
3871.933	3058
3873.553	3149
3875.173	3138
3876.792	3036
3878.411	3033
3880.03	3101
3881.647	3101
3883.265	3072
3884.882	3104
3886.499	3014
3888.116	3105
3889.732	3110
3891.348	3061
3892.964	2997
3894.579	3013
3896.195	3063
3897.809	3078
3899.423	3103
3901.036	3056
3902.648	2997
3904.261	2990
3905.875	3110
3907.487	3068
3909.099	3037
3910.709	3030
3912.321	3067
3913.933	2959
3915.542	2946
3917.152	3002
3918.762	3070
3920.37	3039
3921.98	2984
3923.589	2967
3925.196	3025
3926.804	2955
3928.41	2974
3930.018	2991
3931.626	2971
3933.231	2937
3934.838	2910
3936.442	2973
3938.046	2922
3939.653	3050
3941.257	2970
3942.861	2989
3944.464	2956
3946.068	3057
3947.67	2985
3949.273	2960
3950.876	2955
3952.477	3030
3954.078	2893
3955.678	3069
3957.281	2975
3958.881	2953
3960.48	2923
3962.079	2933
3963.678	2912
3965.279	2940
3966.877	2908
3968.475	2984
3970.072	2930
3971.669	2885
3973.266	2890
3974.864	2912
3976.459	2950
3978.055	2945
3979.65	2863
3981.245	2892
3982.841	2951
3984.436	2889
3986.03	2903
3987.623	2932
3989.216	2885
3990.809	2912
3992.403	2871
3993.995	2856
3995.586	2815
3997.177	2815
3998.768	2881
4000.361	2814
4001.951	2857
4003.54	2832
4005.13	2865
4006.719	2794
4008.31	2865
4009.897	2851
4011.485	2885
4013.073	2805
4014.66	2798
4016.247	2792
4017.834	2774
4019.421	2750
4021.006	2862
4022.592	2851
4024.178	2793
4025.763	2778
4027.348	2776
4028.932	2779
4030.515	2761
4032.099	2802
4033.682	2705
4035.266	2793
4036.847	2779
4038.429	2710
4040.011	2759
4041.592	2814
4043.173	2702
4044.755	2794
4046.334	2684
4047.913	2749
4049.494	2764
4051.074	2787
4052.652	2752
4054.23	2767
4055.807	2757
4057.385	2748
4058.963	2691
4060.541	2768
4062.117	2699
4063.693	2722
4065.269	2754
4066.844	2724
4068.42	2657
4069.995	2710
4071.569	2717
4073.143	2769
4074.716	2671
4076.291	2758
4077.864	2763
4079.436	2689
4081.009	2720
4082.58	2700
4084.152	2706
4085.723	2744
4087.294	2680
4088.865	2720
4090.435	2670
4092.005	2758
4093.574	2621
4095.143	2695
4096.712	2710
4098.279	2660
4099.848	2660
4101.416	2702
4102.984	2671
4104.55	2652
4106.117	2646
4107.682	2702
4109.248	2638
4110.815	2711
4112.379	2607
4113.945	2659
4115.508	2666
4117.073	2628
4118.637	2622
4120.201	2624
4121.763	2704
4123.325	2660
4124.888	2616
4126.449	2643
4128.013	2560
4129.573	2636
4131.133	2611
4132.694	2633
4134.254	2542
4135.814	2601
4137.374	2674
4138.933	2631
4140.491	2628
4142.049	2558
4143.607	2603
4145.167	2611
4146.724	2574
4148.28	2586
4149.836	2594
4151.392	2628
4152.949	2562
4154.504	2605
4156.059	2569
4157.614	2564
4159.168	2530
4160.723	2539
4162.277	2511
4163.83	2556
4165.383	2550
4166.936	2551
4168.488	2536
4170.041	2537
4171.593	2541
4173.144	2479
4174.695	2485
4176.246	2478
4177.796	2557
4179.346	2529
4180.896	2501
4182.445	2555
4183.994	2487
4185.542	2507
4187.091	2516
4188.639	2479
4190.185	2537
4191.732	2540
4193.279	2531
4194.826	2491
4196.373	2424
4197.918	2396
4199.463	2498
4201.008	2501
4202.553	2465
4204.098	2446
4205.641	2496
4207.185	2470
4208.728	2477
4210.271	2407
4211.814	2443
4213.357	2476
4214.898	2452
4216.439	2439
4217.98	2471
4219.522	2523
4221.062	2494
4222.603	2429
4224.142	2468
4225.681	2477
4227.222	2460
4228.76	2457
4230.298	2491
4231.835	2356
4233.373	2451
4234.911	2404
4236.449	2376
4237.985	2411
4239.521	2456
4241.057	2393
4242.592	2431
4244.128	2389
4245.663	2436
4247.197	2446
4248.731	2455
4250.265	2410
4251.798	2358
4253.333	2394
4254.865	2438
4256.397	2306
4257.93	2454
4259.461	2412
4260.994	2454
4262.525	2430
4264.056	2410
4265.586	2423
4267.115	2399
4268.646	2376
4270.176	2343
4271.705	2368
4273.232	2348
4274.761	2427
4276.289	2322
4277.818	2377
4279.345	2327
4280.872	2400
4282.399	2340
4283.924	2343
4285.452	2381
4286.976	2327
4288.502	2343
4290.026	2304
4291.551	2376
4293.074	2343
4294.6	2366
4296.123	2292
4297.646	2328
4299.168	2352
4300.691	2336
4302.214	2349
4303.736	2286
4305.257	2305
4306.778	2349
4308.299	2287
4309.82	2343
4311.34	2352
4312.86	2313
4314.379	2262
