400.0745	4253
402.597	4198
405.1208	4215
407.6419	4247
410.1623	4294
412.6819	4287
415.201	4284
417.7172	4291
420.2369	4269
422.7538	4355
425.2701	4455
427.7856	4349
430.3005	4457
432.8147	4471
435.3282	4407
437.841	4556
440.3511	4436
442.8625	4415
445.3753	4490
447.8854	4467
450.3927	4537
452.9014	4490
455.4073	4568
457.9146	4541
460.4233	4467
462.9272	4562
465.4325	4508
467.935	4474
470.4389	4503
472.9421	4554
475.4446	4486
477.9444	4546
480.4456	4559
482.944	4627
485.4417	4536
487.9429	4488
490.4393	4672
492.935	4643
495.4321	4612
497.9264	4586
500.4221	4704
502.9171	4715
505.4094	4655
507.9011	4545
510.392	4649
512.8864	4685
515.3759	4749
517.8649	4691
520.3531	4635
522.8406	4744
525.3275	4778
527.8178	4702
530.3033	4797
532.7881	4741
535.2723	4662
537.7558	4672
540.2407	4710
542.7228	4724
545.2043	4708
547.6851	4743
550.1652	4813
552.6467	4648
555.1255	4813
557.6016	4719
560.079	4692
562.5557	4733
565.0318	4752
567.5092	4821
569.984	4763
572.456	4851
574.9294	4819
577.4022	4835
579.8762	4934
582.3456	4909
584.8163	4929
587.2863	4944
589.7557	4926
592.2224	5001
594.6924	4866
597.1578	4905
599.6245	4826
602.0905	4885
604.5538	4814
607.0206	4917
609.4825	4754
611.9459	4894
614.4066	4864
616.8686	4838
619.33	4875
621.7906	4785
624.2487	4814
626.708	4952
629.1647	4809
631.6207	4893
634.0801	4814
636.5348	4870
638.9888	4843
641.4442	4887
643.8969	4828
646.3509	4797
648.8022	4963
651.255	4876
653.705	4935
656.1544	4933
658.6031	4856
661.0532	5015
663.5026	4950
665.9493	4908
668.3954	4981
670.8409	4877
673.2877	4967
675.7318	5001
678.1752	5010
680.618	5035
683.0601	5106
685.5035	5009
687.9444	5102
690.3845	5115
692.824	5056
695.2628	5072
697.701	5087
700.1406	5114
702.5774	5154
705.0116	5047
707.4472	5055
709.8821	5187
712.3183	5150
714.7519	5154
717.1829	5188
719.6151	5135
722.0468	5138
724.4777	5172
726.908	5161
729.3377	5257
731.7667	5198
734.1931	5236
736.6208	5437
739.0498	5268
741.4742	5325
743.9	5277
746.3231	5296
748.7476	5365
751.1713	5280
753.5945	5432
756.015	5448
758.4368	5343
760.856	5351
763.2766	5417
765.6965	5359
768.1157	5370
770.5323	5421
772.9483	5442
775.3656	5393
777.7822	5440
780.1963	5362
782.6116	5529
785.0244	5437
787.4365	5429
789.8499	5404
792.2626	5516
794.6728	5512
797.0823	5407
799.4911	5459
801.8994	5545
804.3109	5406
806.7178	5424
809.124	5529
811.5297	5451
813.9347	5553
816.341	5429
818.7447	5480
821.1478	5525
823.5502	5598
825.952	5460
828.3531	5566
830.7556	5524
833.1554	5555
835.5546	5489
837.9532	5515
840.3511	5576
842.7504	5646
845.1451	5552
847.5411	5513
849.9365	5633
852.3312	5640
854.7272	5630
857.1187	5642
859.5115	5500
861.9037	5527
864.2952	5610
866.6842	5597
869.0764	5590
871.4661	5609
873.8531	5610
876.2415	5594
878.6272	5591
881.0162	5550
883.4026	5562
885.7866	5503
888.1717	5635
890.5543	5610
892.9382	5677
895.3215	5619
897.7041	5559
900.0842	5657
902.4655	5565
904.8443	5643
907.2244	5633
909.6039	5593
911.9808	5523
914.357	5738
916.7346	5681
919.1115	5735
921.4859	5800
923.8616	5719
926.2347	5772
928.6071	5746
930.979	5769
933.3541	5860
935.7247	5946
938.0946	5838
940.4639	5839
942.8326	5959
945.2026	6057
947.5701	6105
949.9369	6217
952.305	6391
954.6705	6482
957.0355	6702
959.4017	6858
961.7654	7014
964.1284	6897
966.4908	6810
968.8527	6568
971.2138	6359
973.5743	6189
975.9343	5971
978.2936	6004
980.6522	5903
983.0122	5877
985.3696	5710
987.7245	5810
990.0807	5802
992.4362	5678
994.7911	5789
997.1474	5859
999.4991	5800
1001.852	5831
1004.205	5796
1006.555	5742
1008.908	5848
1011.258	5855
1013.606	5824
1015.956	5739
1018.302	5843
1020.652	5802
1022.998	5882
1025.345	5865
1027.691	5902
1030.035	5845
1032.378	5880
1034.724	5886
1037.066	5991
1039.409	5985
1041.75	5988
1044.092	5892
1046.433	5918
1048.771	5945
1051.112	5974
1053.449	5921
1055.786	6010
1058.124	5903
1060.462	5842
1062.797	5818
1065.131	5961
1067.467	6103
1069.8	5951
1072.135	6014
1074.467	5979
1076.798	6112
1079.129	5967
1081.459	5955
1083.792	6033
1086.121	5986
1088.449	5862
1090.777	5995
1093.104	5875
1095.431	5849
1097.759	5979
1100.084	5975
1102.408	5919
1104.732	5978
1107.056	5942
1109.379	5869
1111.701	5954
1114.022	5922
1116.343	6040
1118.664	5935
1120.983	5985
1123.303	5862
1125.621	6053
1127.939	5967
1130.256	5867
1132.573	5938
1134.889	5917
1137.205	5999
1139.52	5942
1141.832	5896
1144.146	5875
1146.461	5994
1148.771	5992
1151.083	6043
1153.392	5930
1155.703	5990
1158.011	5965
1160.323	5976
1162.629	6002
1164.938	5902
1167.243	5942
1169.55	6032
1171.857	6028
1174.163	5883
1176.466	6085
1178.769	5966
1181.073	5946
1183.374	6012
1185.677	6038
1187.979	5976
1190.279	5956
1192.578	5973
1194.878	5893
1197.178	5925
1199.476	5965
1201.772	6013
1204.068	5949
1206.366	6059
1208.663	6006
1210.957	6079
1213.251	5982
1215.544	5897
1217.836	5955
1220.128	6096
1222.421	5901
1224.712	6020
1227.002	6094
1229.292	6100
1231.581	6066
1233.871	6146
1236.159	6183
1238.446	6123
1240.732	6075
1243.018	6206
1245.304	6172
1247.59	6122
1249.874	6203
1252.156	6211
1254.439	6230
1256.721	6170
1259.005	6169
1261.286	6065
1263.565	6210
1265.845	6084
1268.125	6101
1270.403	6312
1272.682	6225
1274.959	6243
1277.234	6157
1279.511	6104
1281.787	6154
1284.062	6248
1286.337	6126
1288.609	6144
1290.882	6103
1293.153	6116
1295.428	6112
1297.698	6094
1299.969	6059
1302.237	6126
1304.507	6037
1306.777	6058
1309.044	6134
1311.312	5991
1313.578	6044
1315.844	6063
1318.109	6105
1320.375	6160
1322.638	6053
1324.903	6076
1327.165	6138
1329.427	6122
1331.69	6185
1333.952	6072
1336.212	6079
1338.471	6183
1340.73	6134
1342.988	6100
1345.248	6090
1347.505	6076
1349.763	6085
1352.019	6020
1354.274	6011
1356.53	6200
1358.784	6063
1361.038	6045
1363.291	6091
1365.543	6050
1367.797	6199
1370.048	6197
1372.296	6119
1374.546	5988
1376.796	6178
1379.045	6119
1381.295	6000
1383.542	6119
1385.787	6185
1388.034	6148
1390.28	6135
1392.527	6117
1394.772	6072
1397.014	6087
1399.258	6089
1401.501	6216
1403.741	6183
1405.985	6220
1408.226	6286
1410.465	6166
1412.705	6070
1414.943	6151
1417.184	6150
1419.42	6258
1421.658	6164
1423.894	6219
1426.13	6187
1428.366	6162
1430.602	6203
1432.835	6232
1435.069	6180
1437.301	6213
1439.535	6256
1441.767	6324
1443.997	6201
1446.229	6305
1448.458	6279
1450.687	6341
1452.916	6463
1455.146	6365
1457.372	6335
1459.599	6377
1461.824	6261
1464.051	6412
1466.277	6261
1468.501	6307
1470.725	6236
1472.948	6273
1475.17	6183
1477.393	6233
1479.614	6169
1481.837	6219
1484.057	6199
1486.276	6197
1488.497	6158
1490.715	6161
1492.932	6212
1495.148	6137
1497.364	5972
1499.58	6096
1501.798	6053
1504.012	6108
1506.227	6127
1508.44	6050
1510.653	6100
1512.866	6036
1515.078	6178
1517.289	6106
1519.5	6096
1521.711	6030
1523.92	6067
1526.13	6104
1528.338	6072
1530.544	6021
1532.752	6149
1534.959	6081
1537.165	6092
1539.371	5974
1541.574	6119
1543.779	6170
1545.983	6150
1548.187	6086
1550.39	6164
1552.59	6176
1554.792	6081
1556.991	6162
1559.19	6090
1561.392	6182
1563.59	6176
1565.789	6255
1567.986	6215
1570.182	6078
1572.381	6138
1574.576	6152
1576.771	6331
1578.966	6333
1581.16	6334
1583.354	6226
1585.546	6341
1587.74	6299
1589.931	6233
1592.121	6269
1594.311	6300
1596.502	6298
1598.693	6343
1600.881	6280
1603.069	6290
1605.256	6234
1607.445	6355
1609.631	6233
1611.816	6306
1614.001	6349
1616.186	6261
1618.37	6287
1620.555	6395
1622.737	6259
1624.919	6234
1627.101	6260
1629.282	6321
1631.463	6320
1633.643	6363
1635.822	6270
1638.001	6410
1640.179	6232
1642.359	6430
1644.534	6359
1646.711	6452
1648.887	6393
1651.062	6383
1653.235	6363
1655.412	6343
1657.586	6330
1659.757	6406
1661.93	6347
1664.1	6312
1666.274	6396
1668.445	6368
1670.614	6378
1672.784	6327
1674.951	6483
1677.12	6405
1679.289	6496
1681.457	6384
1683.622	6482
1685.789	6399
1687.953	6346
1690.121	6405
1692.284	6465
1694.447	6375
1696.611	6346
1698.772	6362
1700.935	6281
1703.098	6278
1705.258	6256
1707.417	6278
1709.576	6225
1711.736	6392
1713.896	6216
1716.053	6220
1718.21	6222
1720.366	6243
1722.522	6210
1724.68	6251
1726.835	6239
1728.989	6227
1731.142	6301
1733.295	6251
1735.449	6200
1737.601	6257
1739.753	6241
1741.903	6222
1744.054	6313
1746.203	6381
1748.354	6253
1750.503	6197
1752.651	6237
1754.798	6281
1756.944	6285
1759.092	6241
1761.238	6240
1763.383	6315
1765.528	6303
1767.672	6284
1769.814	6296
1771.959	6330
1774.102	6285
1776.242	6209
1778.384	6282
1780.525	6237
1782.665	6338
1784.805	6324
1786.945	6420
1789.082	6334
1791.22	6273
1793.36	6439
1795.495	6424
1797.632	6316
1799.766	6299
1801.902	6217
1804.035	6280
1806.172	6195
1808.304	6257
1810.436	6342
1812.569	6265
1814.699	6371
1816.833	6292
1818.963	6181
1821.092	6284
1823.222	6286
1825.35	6314
1827.478	6220
1829.608	6273
1831.734	6325
1833.86	6280
1835.986	6273
1838.11	6185
1840.238	6336
1842.362	6290
1844.485	6264
1846.608	6386
1848.73	6262
1850.853	6245
1852.974	6153
1855.097	6260
1857.217	6308
1859.336	6248
1861.455	6240
1863.576	6181
1865.693	6236
1867.811	6206
1869.926	6252
1872.042	6187
1874.16	6175
1876.275	6174
1878.39	6119
1880.504	6116
1882.618	6286
1884.731	6227
1886.843	6214
1888.956	6276
1891.067	6242
1893.178	6327
1895.287	6171
1897.399	6269
1899.508	6258
1901.617	6219
1903.724	6241
1905.832	6207
1907.941	6351
1910.046	6271
1912.152	6279
1914.256	6369
1916.361	6379
1918.464	6241
1920.57	6264
1922.672	6332
1924.775	6290
1926.876	6337
1928.978	6356
1931.08	6468
1933.181	6380
1935.28	6431
1937.38	6221
1939.478	6359
1941.577	6336
1943.675	6272
1945.771	6381
1947.867	6205
1949.964	6364
1952.058	6458
1954.154	6397
1956.248	6311
1958.343	6281
1960.435	6282
1962.527	6374
1964.62	6303
1966.711	6231
1968.802	6319
1970.892	6389
1972.983	6362
1975.072	6287
1977.162	6368
1979.25	6295
1981.337	6285
1983.424	6288
1985.51	6266
1987.598	6320
1989.683	6323
1991.768	6321
1993.852	6375
1995.934	6270
1998.019	6306
2000.102	6205
2002.184	6369
2004.266	6203
2006.347	6237
2008.427	6204
2010.508	6294
2012.587	6190
2014.666	6148
2016.745	6308
2018.821	6230
2020.9	6346
2022.977	6288
2025.052	6215
2027.128	6167
2029.204	6226
2031.277	6159
2033.353	6193
2035.425	6229
2037.499	6176
2039.57	6192
2041.642	6159
2043.714	6318
2045.786	6238
2047.855	6204
2049.925	6190
2051.993	6200
2054.064	6273
2056.132	6274
2058.2	6288
2060.266	6237
2062.332	6236
2064.398	6212
2066.465	6289
2068.529	6260
2070.592	6175
2072.657	6240
2074.719	6204
2076.783	6312
2078.845	6164
2080.907	6385
2082.968	6204
2085.028	6164
2087.087	6309
2089.148	6098
2091.207	6391
2093.264	6248
2095.322	6364
2097.379	6222
2099.439	6181
2101.495	6219
2103.55	6254
2105.605	6147
2107.658	6266
2109.713	6313
2111.767	6072
2113.82	6190
2115.872	6191
2117.924	6238
2119.975	6203
2122.028	6164
2124.078	6132
2126.126	6162
2128.176	6183
2130.225	6132
2132.275	6277
2134.321	6094
2136.368	6161
2138.415	6229
2140.461	6299
2142.505	6165
2144.552	6376
2146.597	6123
2148.64	6234
2150.684	6226
2152.725	6134
2154.77	6176
2156.811	6214
2158.852	6118
2160.894	6180
2162.933	6135
2164.973	6212
2167.013	6145
2169.051	6094
2171.089	6124
2173.126	6148
2175.164	6146
2177.201	6275
2179.236	6140
2181.273	6215
2183.307	6169
2185.341	6224
2187.377	6159
2189.41	6160
2191.442	6068
2193.473	6094
2195.506	6050
2197.539	5970
2199.569	6128
2201.598	5990
2203.628	6165
2205.656	5943
2207.686	6010
2209.716	6103
2211.743	6091
2213.769	6022
2215.796	6025
2217.821	6048
2219.848	6089
2221.873	6150
2223.897	6017
2225.921	5930
2227.944	5980
2229.967	6025
2231.991	6040
2234.011	6098
2236.032	6064
2238.053	5954
2240.073	6109
2242.094	6025
2244.114	6027
2246.131	5956
2248.149	6009
2250.167	6018
2252.186	6056
2254.201	6068
2256.218	6044
2258.233	6040
2260.247	5999
2262.262	5987
2264.278	5996
2266.29	6150
2268.303	6142
2270.315	5998
2272.327	5925
2274.341	6032
2276.35	6067
2278.361	6095
2280.37	5940
2282.38	5956
2284.388	6007
2286.397	5978
2288.405	6049
2290.412	6022
2292.419	6083
2294.425	5996
2296.431	5869
2298.437	5903
2300.441	5937
2302.445	6051
2304.449	6009
2306.453	6110
2308.455	6060
2310.457	5929
2312.459	6058
2314.46	5947
2316.46	5989
2318.461	5934
2320.46	5946
2322.458	5999
2324.458	5984
2326.456	5947
2328.455	5874
2330.451	5975
2332.447	5946
2334.443	5903
2336.438	5914
2338.433	5879
2340.429	5928
2342.422	5930
2344.416	5930
2346.408	5856
2348.399	5916
2350.393	5942
2352.384	5954
2354.375	5823
2356.365	5892
2358.355	5823
2360.344	5914
2362.333	5927
2364.322	5933
2366.309	5889
2368.295	5888
2370.282	5769
2372.27	5868
2374.256	5757
2376.24	5902
2378.225	5872
2380.208	5820
2382.194	5900
2384.177	5810
2386.159	5796
2388.142	5831
2390.122	5775
2392.105	5793
2394.085	5705
2396.066	5888
2398.044	5768
2400.024	5798
2402.002	5883
2403.982	5947
2405.959	5858
2407.935	5750
2409.913	5702
2411.888	5854
2413.865	5769
2415.84	5777
2417.814	5789
2419.788	5729
2421.762	5771
2423.735	5808
2425.708	5791
2427.68	5801
2429.651	5756
2431.623	5873
2433.593	5907
2435.564	5748
2437.533	5815
2439.502	5816
2441.47	5722
2443.438	5800
2445.406	5803
2447.373	5724
2449.34	5767
2451.305	5769
2453.271	5656
2455.235	5771
2457.201	5698
2459.165	5688
2461.129	5767
2463.092	5654
2465.054	5689
2467.018	5645
2468.978	5808
2470.939	5756
2472.899	5834
2474.86	5784
2476.819	5634
2478.778	5643
2480.737	5586
2482.695	5610
2484.653	5742
2486.609	5653
2488.567	5786
2490.524	5613
2492.478	5673
2494.433	5629
2496.387	5692
2498.343	5692
2500.297	5692
2502.249	5634
2504.202	5699
2506.153	5724
2508.105	5611
2510.057	5597
2512.008	5620
2513.957	5794
2515.906	5686
2517.855	5710
2519.805	5616
2521.754	5715
2523.7	5482
2525.647	5669
2527.594	5548
2529.54	5658
2531.486	5611
2533.431	5608
2535.376	5696
2537.32	5680
2539.263	5653
2541.207	5697
2543.151	5544
2545.093	5601
2547.034	5697
2548.975	5631
2550.917	5521
2552.856	5580
2554.796	5592
2556.735	5660
2558.673	5562
2560.611	5596
2562.55	5564
2564.487	5640
2566.424	5662
2568.36	5627
2570.296	5670
2572.232	5641
2574.167	5625
2576.101	5633
2578.035	5512
2579.969	5608
2581.902	5703
2583.834	5551
2585.766	5689
2587.698	5657
2589.628	5664
2591.557	5563
2593.489	5603
2595.419	5530
2597.348	5598
2599.275	5662
2601.204	5674
2603.131	5655
2605.059	5602
2606.986	5668
2608.911	5638
2610.837	5561
2612.76	5608
2614.687	5681
2616.61	5611
2618.534	5568
2620.457	5641
2622.38	5624
2624.302	5691
2626.225	5527
2628.145	5724
2630.067	5579
2631.986	5696
2633.906	5654
2635.827	5609
2637.745	5612
2639.662	5620
2641.581	5537
2643.498	5580
2645.415	5689
2647.331	5581
2649.248	5552
2651.163	5575
2653.077	5604
2654.993	5583
2656.906	5593
2658.821	5630
2660.733	5578
2662.646	5624
2664.557	5601
2666.47	5673
2668.381	5669
2670.291	5607
2672.201	5625
2674.11	5554
2676.021	5681
2677.929	5576
2679.837	5543
2681.745	5697
2683.652	5550
2685.56	5538
2687.466	5551
2689.371	5683
2691.276	5557
2693.181	5595
2695.085	5582
2696.991	5574
2698.893	5507
2700.796	5568
2702.698	5503
2704.601	5524
2706.502	5489
2708.404	5463
2710.304	5464
2712.203	5518
2714.103	5493
2716.003	5392
2717.902	5514
2719.8	5512
2721.697	5517
2723.594	5572
2725.49	5452
2727.389	5480
2729.283	5360
2731.179	5501
2733.073	5468
2734.968	5391
2736.863	5540
2738.757	5385
2740.649	5475
2742.541	5412
2744.433	5380
2746.324	5447
2748.216	5414
2750.107	5451
2751.997	5500
2753.886	5452
2755.776	5422
2757.666	5507
2759.553	5282
2761.44	5448
2763.327	5433
2765.215	5358
2767.102	5395
2768.988	5468
2770.873	5401
2772.757	5318
2774.641	5400
2776.525	5425
2778.41	5426
2780.292	5418
2782.175	5314
2784.057	5425
2785.938	5378
2787.821	5406
2789.701	5466
2791.581	5480
2793.461	5303
2795.34	5340
2797.219	5329
2799.099	5341
2800.975	5300
2802.853	5250
2804.73	5345
2806.606	5369
2808.484	5370
2810.358	5387
2812.233	5320
2814.108	5364
2815.981	5329
2817.857	5316
2819.73	5281
2821.602	5357
2823.474	5295
2825.346	5371
2827.217	5419
2829.089	5244
2830.959	5358
2832.829	5340
2834.698	5338
2836.567	5242
2838.436	5467
2840.305	5298
2842.172	5283
2844.04	5252
2845.905	5407
2847.772	5340
2849.639	5373
2851.503	5366
2853.369	5366
2855.232	5429
2857.096	5364
2858.961	5413
2860.824	5421
2862.686	5398
2864.547	5346
2866.41	5450
2868.272	5510
2870.132	5456
2871.992	5525
2873.851	5457
2875.711	5732
2877.57	5540
2879.429	5634
2881.287	5609
2883.144	5685
2885.001	5691
2886.857	5629
2888.714	5678
2890.57	5623
2892.425	5552
2894.279	5727
2896.133	5551
2897.987	5562
2899.842	5644
2901.694	5592
2903.547	5634
2905.397	5641
2907.249	5615
2909.101	5691
2910.952	5619
2912.802	5658
2914.652	5673
2916.5	5726
2918.35	5733
2920.198	5772
2922.045	5764
2923.893	5780
2925.74	5933
2927.585	5952
2929.433	5957
2931.279	5987
2933.123	5980
2934.968	6035
2936.811	6185
2938.656	6060
2940.5	6013
2942.342	6263
2944.185	6163
2946.026	6122
2947.87	6224
2949.71	6145
2951.549	6141
2953.39	6131
2955.229	6042
2957.069	6001
2958.908	5915
2960.746	5922
2962.584	5829
2964.421	5874
2966.257	5860
2968.094	5724
2969.931	5876
2971.766	5821
2973.601	5750
2975.435	5697
2977.27	5590
2979.105	5614
2980.938	5677
2982.77	5735
2984.602	5630
2986.434	5587
2988.267	5502
2990.097	5451
2991.927	5422
2993.757	5693
2995.587	5460
2997.417	5453
2999.246	5525
3001.074	5499
3002.902	5408
3004.729	5257
3006.556	5334
3008.384	5172
3010.21	5289
3012.036	5226
3013.861	5206
3015.684	5187
3017.51	5210
3019.334	5205
3021.157	5108
3022.981	5061
3024.802	5143
3026.624	5070
3028.448	5031
3030.267	5017
3032.088	4963
3033.909	5086
3035.728	5056
3037.549	5059
3039.368	5073
3041.186	4888
3043.004	4993
3044.821	4930
3046.64	4960
3048.455	5020
3050.272	5010
3052.087	5024
3053.903	5043
3055.717	5047
3057.534	5023
3059.347	4931
3061.16	4972
3062.974	4979
3064.785	4974
3066.598	4990
3068.411	5072
3070.222	4990
3072.032	5043
3073.844	4817
3075.653	4927
3077.463	4958
3079.272	4837
3081.08	4877
3082.889	4843
3084.697	4765
3086.505	4898
3088.312	4889
3090.118	4966
3091.924	4776
3093.729	4844
3095.535	4811
3097.34	4928
3099.144	4856
3100.947	4802
3102.75	4810
3104.553	4847
3106.357	4840
3108.159	4800
3109.961	4870
3111.762	4833
3113.562	4793
3115.365	4759
3117.164	4779
3118.964	4716
3120.761	4761
3122.56	4716
3124.36	4839
3126.158	4782
3127.954	4841
3129.75	4824
3131.547	4799
3133.343	4689
3135.139	4846
3136.934	4795
3138.729	4740
3140.522	4666
3142.317	4727
3144.11	4729
3145.904	4802
3147.695	4644
3149.488	4832
3151.28	4743
3153.07	4727
3154.863	4679
3156.652	4614
3158.441	4766
3160.231	4741
3162.019	4755
3163.81	4638
3165.597	4646
3167.384	4631
3169.172	4646
3170.958	4646
3172.745	4665
3174.532	4582
3176.317	4631
3178.101	4642
3179.885	4754
3181.67	4599
3183.455	4631
3185.238	4651
3187.02	4630
3188.802	4596
3190.585	4638
3192.368	4592
3194.149	4688
3195.929	4531
3197.709	4527
3199.489	4605
3201.268	4546
3203.048	4583
3204.826	4671
3206.604	4642
3208.382	4593
3210.159	4672
3211.937	4598
3213.713	4587
3215.489	4649
3217.263	4553
3219.038	4547
3220.815	4525
3222.589	4617
3224.363	4554
3226.136	4598
3227.908	4583
3229.681	4597
3231.454	4514
3233.226	4573
3234.996	4621
3236.767	4522
3238.538	4496
3240.308	4586
3242.078	4557
3243.847	4529
3245.615	4449
3247.384	4588
3249.15	4557
3250.92	4583
3252.686	4608
3254.453	4519
3256.218	4467
3257.984	4479
3259.75	4563
3261.515	4507
3263.279	4625
3265.044	4600
3266.806	4560
3268.57	4495
3270.334	4506
3272.095	4518
3273.856	4497
3275.619	4581
3277.379	4619
3279.14	4529
3280.9	4534
3282.661	4466
3284.419	4534
3286.178	4524
3287.937	4580
3289.695	4440
3291.453	4506
3293.21	4573
3294.967	4485
3296.723	4474
3298.48	4641
3300.235	4446
3301.99	4487
3303.744	4492
3305.498	4499
3307.253	4478
3309.006	4438
3310.759	4519
3312.511	4572
3314.263	4674
3316.017	4393
3317.768	4466
3319.519	4536
3321.268	4498
3323.018	4543
3324.767	4540
3326.518	4500
3328.267	4513
3330.014	4569
3331.762	4489
3333.509	4535
3335.258	4400
3337.003	4458
3338.75	4459
3340.496	4438
3342.24	4484
3343.987	4493
3345.732	4495
3347.475	4448
3349.219	4522
3350.961	4443
3352.705	4494
3354.448	4420
3356.19	4441
3357.931	4362
3359.672	4501
3361.412	4496
3363.155	4459
3364.894	4432
3366.633	4423
3368.372	4373
3370.11	4388
3371.849	4365
3373.588	4384
3375.325	4390
3377.061	4423
3378.799	4405
3380.534	4455
3382.271	4399
3384.006	4345
3385.741	4334
3387.475	4251
3389.209	4399
3390.944	4358
3392.677	4437
3394.409	4437
3396.143	4302
3397.874	4312
3399.606	4343
3401.338	4345
3403.069	4316
3404.799	4314
3406.528	4367
3408.258	4335
3409.988	4312
3411.717	4375
3413.445	4263
3415.173	4451
3416.899	4383
3418.626	4318
3420.354	4314
3422.08	4261
3423.806	4295
3425.531	4306
3427.255	4257
3428.981	4211
3430.705	4299
3432.429	4249
3434.151	4181
3435.875	4262
3437.599	4261
3439.321	4217
3441.042	4214
3442.763	4209
3444.483	4297
3446.204	4200
3447.926	4288
3449.645	4230
3451.364	4270
3453.082	4190
3454.801	4227
3456.52	4198
3458.238	4214
3459.954	4121
3461.671	4190
3463.387	4207
3465.104	4190
3466.82	4142
3468.534	4123
3470.25	4249
3471.963	4203
3473.676	4150
3475.392	4090
3477.104	4171
3478.817	4174
3480.528	4055
3482.241	4104
3483.954	4113
3485.664	4176
3487.374	4088
3489.084	4149
3490.795	4056
3492.504	4098
3494.214	4126
3495.922	4078
3497.63	4051
3499.338	4043
3501.045	4031
3502.753	4051
3504.459	4028
3506.166	4087
3507.871	4064
3509.576	4087
3511.283	4120
3512.987	4080
3514.691	4062
3516.395	4009
3518.098	3932
3519.8	4033
3521.504	3956
3523.206	4104
3524.908	3985
3526.609	4009
3528.309	3922
3530.011	4046
3531.711	4024
3533.411	3972
3535.109	3919
3536.808	3944
3538.507	3996
3540.206	3875
3541.904	3869
3543.601	3934
3545.297	3957
3546.994	3969
3548.69	3971
3550.387	3932
3552.081	3937
3553.776	3812
3555.47	4005
3557.166	3921
3558.859	3883
3560.553	3949
3562.245	3937
3563.938	3881
3565.629	3888
3567.322	3897
3569.014	3937
3570.704	3870
3572.394	3835
3574.084	3907
3575.775	3873
3577.464	3902
3579.152	3873
3580.842	3861
3582.529	3889
3584.216	3825
3585.905	3833
3587.591	3848
3589.279	3797
3590.964	3891
3592.649	3825
3594.336	3814
3596.021	3895
3597.705	3892
3599.388	3802
3601.072	3814
3602.757	3792
3604.439	3788
3606.122	3806
3607.803	3732
3609.485	3846
3611.167	3716
3612.849	3782
3614.529	3746
3616.208	3745
3617.888	3655
3619.567	3731
3621.247	3729
3622.926	3700
3624.603	3668
3626.281	3727
3627.958	3773
3629.635	3729
3631.312	3726
3632.989	3712
3634.665	3657
3636.339	3674
3638.014	3746
3639.691	3730
3641.364	3728
3643.038	3659
3644.71	3667
3646.384	3667
3648.058	3731
3649.729	3697
3651.402	3665
3653.073	3686
3654.744	3590
3656.414	3628
3658.085	3652
3659.755	3661
3661.424	3677
3663.094	3704
3664.762	3599
3666.431	3613
3668.099	3625
3669.766	3533
3671.433	3600
3673.099	3563
3674.768	3595
3676.433	3578
3678.098	3639
3679.763	3570
3681.428	3605
3683.093	3544
3684.757	3612
3686.421	3585
3688.083	3643
3689.746	3588
3691.408	3595
3693.071	3574
3694.733	3613
3696.394	3545
3698.054	3544
3699.715	3570
3701.375	3567
3703.036	3540
3704.695	3558
3706.354	3541
3708.012	3516
3709.67	3456
3711.329	3542
3712.987	3525
3714.644	3568
3716.299	3507
3717.955	3495
3719.613	3456
3721.268	3561
3722.923	3554
3724.577	3465
3726.231	3534
3727.885	3450
3729.539	3521
3731.192	3443
3732.845	3515
3734.497	3416
3736.149	3446
3737.802	3472
3739.453	3398
3741.104	3482
3742.753	3549
3744.404	3485
3746.052	3456
3747.704	3459
3749.352	3512
3751	3505
3752.648	3509
3754.296	3417
3755.944	3477
3757.59	3386
3759.238	3360
3760.883	3417
3762.528	3493
3764.176	3402
3765.82	3442
3767.464	3454
3769.109	3483
3770.753	3443
3772.396	3429
3774.04	3365
3775.683	3442
3777.325	3410
3778.967	3429
3780.608	3363
3782.25	3429
3783.89	3283
3785.531	3416
3787.17	3379
3788.81	3383
3790.45	3398
3792.09	3439
3793.729	3411
3795.366	3331
3797.003	3283
3798.64	3380
3800.278	3322
3801.915	3379
3803.551	3371
3805.187	3361
3806.822	3296
3808.458	3357
3810.093	3360
3811.726	3308
3813.36	3296
3814.994	3270
3816.627	3402
3818.262	3315
3819.893	3259
3821.525	3267
3823.157	3342
3824.787	3348
3826.42	3317
3828.051	3251
3829.68	3287
3831.31	3308
3832.938	3297
3834.569	3278
3836.198	3379
3837.825	3291
3839.454	3280
3841.08	3363
3842.708	3180
3844.335	3263
3845.962	3194
3847.587	3286
3849.212	3233
3850.838	3298
3852.463	3235
3854.089	3218
3855.712	3158
3857.335	3215
3858.959	3222
3860.582	3241
3862.205	3217
3863.827	3229
3865.449	3210
3867.07	3229
3868.691	3178
3870.312	3186
3871.933	3221
3873.553	3172
3875.173	3210
3876.792	3192
3878.411	3243
3880.03	3179
3881.647	3119
3883.265	3174
3884.882	3137
3886.499	3194
3888.116	3254
3889.732	3226
3891.348	3205
3892.964	3141
3894.579	3202
3896.195	3221
3897.809	3131
3899.423	3161
3901.036	3200
3902.648	3201
3904.261	3159
3905.875	3133
3907.487	3190
3909.099	3158
3910.709	3158
3912.321	3169
3913.933	3216
3915.542	3178
3917.152	3104
3918.762	3185
3920.37	3153
3921.98	3228
3923.589	3163
3925.196	3193
3926.804	3188
3928.41	3125
3930.018	3097
3931.626	3067
3933.231	3100
3934.838	3131
3936.442	3158
3938.046	3128
3939.653	3134
3941.257	3110
3942.861	3123
3944.464	3052
3946.068	3213
3947.67	3117
3949.273	3117
3950.876	3093
3952.477	3142
3954.078	3107
3955.678	3083
3957.281	3058
3958.881	3028
3960.48	3032
3962.079	3093
3963.678	3068
3965.279	3107
3966.877	3044
3968.475	3104
3970.072	3043
3971.669	3014
3973.266	3103
3974.864	2977
3976.459	3039
3978.055	3019
3979.65	3026
3981.245	2940
3982.841	2981
3984.436	3018
3986.03	2987
3987.623	3024
3989.216	2921
3990.809	3033
3992.403	3004
3993.995	2999
3995.586	3048
3997.177	3000
3998.768	3026
4000.361	3024
4001.951	2948
4003.54	3011
4005.13	3030
4006.719	2999
4008.31	3005
4009.897	2987
4011.485	2984
4013.073	2937
4014.66	2994
4016.247	2916
4017.834	2970
4019.421	2940
4021.006	2822
4022.592	2952
4024.178	2947
4025.763	2914
4027.348	2965
4028.932	2906
4030.515	2875
4032.099	2902
4033.682	2880
4035.266	2877
4036.847	2839
4038.429	2938
4040.011	2905
4041.592	2889
4043.173	2831
4044.755	2898
4046.334	2892
4047.913	2829
4049.494	2811
4051.074	2916
4052.652	2833
4054.23	2895
4055.807	2859
4057.385	2810
4058.963	2834
4060.541	2805
4062.117	2897
4063.693	2866
4065.269	2909
4066.844	2869
4068.42	2780
4069.995	2872
4071.569	2818
4073.143	2786
4074.716	2859
4076.291	2861
4077.864	2859
4079.436	2824
4081.009	2769
4082.58	2783
4084.152	2779
4085.723	2785
4087.294	2786
4088.865	2873
4090.435	2886
4092.005	2758
4093.574	2858
4095.143	2871
4096.712	2752
4098.279	2760
4099.848	2768
4101.416	2714
4102.984	2764
4104.55	2743
4106.117	2833
4107.682	2820
4109.248	2832
4110.815	2758
4112.379	2790
4113.945	2747
4115.508	2680
4117.073	2840
4118.637	2809
4120.201	2774
4121.763	2720
4123.325	2705
4124.888	2749
4126.449	2746
4128.013	2675
4129.573	2766
4131.133	2761
4132.694	2770
4134.254	2657
4135.814	2733
4137.374	2693
4138.933	2706
4140.491	2731
4142.049	2680
4143.607	2781
4145.167	2704
4146.724	2645
4148.28	2655
4149.836	2658
4151.392	2729
4152.949	2703
4154.504	2632
4156.059	2580
4157.614	2593
4159.168	2651
4160.723	2616
4162.277	2636
4163.83	2712
4165.383	2654
4166.936	2629
4168.488	2668
4170.041	2626
4171.593	2687
4173.144	2654
4174.695	2648
4176.246	2511
4177.796	2606
4179.346	2632
4180.896	2653
4182.445	2546
4183.994	2618
4185.542	2616
4187.091	2553
4188.639	2644
4190.185	2572
4191.732	2670
4193.279	2579
4194.826	2644
4196.373	2606
4197.918	2597
4199.463	2581
4201.008	2617
4202.553	2639
4204.098	2568
4205.641	2564
4207.185	2554
4208.728	2601
4210.271	2658
4211.814	2577
4213.357	2580
4214.898	2544
4216.439	2584
4217.98	2556
4219.522	2562
4221.062	2631
4222.603	2533
4224.142	2528
4225.681	2526
4227.222	2582
4228.76	2607
4230.298	2522
4231.835	2562
4233.373	2544
4234.911	2563
4236.449	2500
4237.985	2504
4239.521	2515
4241.057	2536
4242.592	2513
4244.128	2479
4245.663	2501
4247.197	2553
4248.731	2569
4250.265	2499
4251.798	2489
4253.333	2559
4254.865	2551
4256.397	2503
4257.93	2477
4259.461	2476
4260.994	2534
4262.525	2502
4264.056	2479
4265.586	2527
4267.115	2505
4268.646	2461
4270.176	2418
4271.705	2510
4273.232	2498
4274.761	2461
4276.289	2464
4277.818	2544
4279.345	2465
4280.872	2487
4282.399	2465
4283.924	2460
4285.452	2412
4286.976	2463
4288.502	2413
4290.026	2470
4291.551	2464
4293.074	2413
4294.6	2418
4296.123	2430
4297.646	2465
4299.168	2429
4300.691	2412
4302.214	2432
4303.736	2448
4305.257	2483
4306.778	2416
4308.299	2469
4309.82	2460
4311.34	2401
4312.86	2418
4314.379	2446
