400.0745	3909
402.597	3985
405.1208	3951
407.6419	4016
410.1623	3971
412.6819	4029
415.201	4046
417.7172	4098
420.2369	4071
422.7538	4187
425.2701	4234
427.7856	4250
430.3005	4266
432.8147	4305
435.3282	4273
437.841	4315
440.3511	4148
442.8625	4256
445.3753	4234
447.8854	4272
450.3927	4311
452.9014	4252
455.4073	4233
457.9146	4239
460.4233	4275
462.9272	4352
465.4325	4201
467.935	4230
470.4389	4182
472.9421	4190
475.4446	4173
477.9444	4319
480.4456	4215
482.944	4328
485.4417	4285
487.9429	4254
490.4393	4265
492.935	4323
495.4321	4350
497.9264	4286
500.4221	4287
502.9171	4336
505.4094	4352
507.9011	4322
510.392	4295
512.8864	4276
515.3759	4411
517.8649	4391
520.3531	4358
522.8406	4377
525.3275	4417
527.8178	4420
530.3033	4351
532.7881	4472
535.2723	4398
537.7558	4374
540.2407	4389
542.7228	4363
545.2043	4424
547.6851	4387
550.1652	4403
552.6467	4360
555.1255	4454
557.6016	4425
560.079	4496
562.5557	4542
565.0318	4516
567.5092	4483
569.984	4582
572.456	4529
574.9294	4601
577.4022	4608
579.8762	4679
582.3456	4589
584.8163	4592
587.2863	4724
589.7557	4616
592.2224	4563
594.6924	4700
597.1578	4727
599.6245	4572
602.0905	4555
604.5538	4570
607.0206	4570
609.4825	4542
611.9459	4528
614.4066	4460
616.8686	4576
619.33	4511
621.7906	4493
624.2487	4519
626.708	4545
629.1647	4513
631.6207	4544
634.0801	4449
636.5348	4533
638.9888	4557
641.4442	4526
643.8969	4620
646.3509	4507
648.8022	4588
651.255	4463
653.705	4594
656.1544	4600
658.6031	4557
661.0532	4640
663.5026	4672
665.9493	4692
668.3954	4616
670.8409	4689
673.2877	4694
675.7318	4676
678.1752	4631
680.618	4710
683.0601	4659
685.5035	4642
687.9444	4667
690.3845	4676
692.824	4712
695.2628	4718
697.701	4687
700.1406	4687
702.5774	4729
705.0116	4768
707.4472	4709
709.8821	4747
712.3183	4831
714.7519	4752
717.1829	4829
719.6151	4822
722.0468	4754
724.4777	4855
726.908	4890
729.3377	4788
731.7667	4860
734.1931	4779
736.6208	4901
739.0498	4888
741.4742	4967
743.9	4935
746.3231	4847
748.7476	4997
751.1713	5012
753.5945	4991
756.015	4990
758.4368	4959
760.856	5048
763.2766	5032
765.6965	5003
768.1157	5068
770.5323	5095
772.9483	5065
775.3656	5010
777.7822	5067
780.1963	5005
782.6116	5038
785.0244	5084
787.4365	4959
789.8499	5047
792.2626	4999
794.6728	5061
797.0823	5088
799.4911	5017
801.8994	5053
804.3109	5102
806.7178	5106
809.124	4962
811.5297	5116
813.9347	5078
816.341	5133
818.7447	5187
821.1478	5081
823.5502	5213
825.952	5216
828.3531	5152
830.7556	5157
833.1554	5265
835.5546	5106
837.9532	5235
840.3511	5173
842.7504	5265
845.1451	5217
847.5411	5215
849.9365	5257
852.3312	5340
854.7272	5239
857.1187	5346
859.5115	5255
861.9037	5289
864.2952	5282
866.6842	5186
869.0764	5335
871.4661	5277
873.8531	5285
876.2415	5215
878.6272	5261
881.0162	5167
883.4026	5269
885.7866	5220
888.1717	5165
890.5543	5267
892.9382	5288
895.3215	5178
897.7041	5294
900.0842	5257
902.4655	5301
904.8443	5218
907.2244	5276
909.6039	5385
911.9808	5328
914.357	5387
916.7346	5482
919.1115	5351
921.4859	5503
923.8616	5573
926.2347	5533
928.6071	5649
930.979	5550
933.3541	5640
935.7247	5593
938.0946	5566
940.4639	5637
942.8326	5600
945.2026	5823
947.5701	5821
949.9369	5920
952.305	6175
954.6705	6428
957.0355	6683
959.4017	6981
961.7654	7099
964.1284	6957
966.4908	6945
968.8527	6483
971.2138	6166
973.5743	6030
975.9343	5733
978.2936	5534
980.6522	5530
983.0122	5552
985.3696	5467
987.7245	5481
990.0807	5454
992.4362	5401
994.7911	5394
997.1474	5421
999.4991	5430
1001.852	5542
1004.205	5513
1006.555	5525
1008.908	5509
1011.258	5519
1013.606	5418
1015.956	5461
1018.302	5411
1020.652	5443
1022.998	5552
1025.345	5493
1027.691	5576
1030.035	5421
1032.378	5522
1034.724	5463
1037.066	5582
1039.409	5493
1041.75	5543
1044.092	5533
1046.433	5478
1048.771	5560
1051.112	5584
1053.449	5529
1055.786	5542
1058.124	5469
1060.462	5504
1062.797	5570
1065.131	5670
1067.467	5642
1069.8	5631
1072.135	5645
1074.467	5671
1076.798	5669
1079.129	5639
1081.459	5629
1083.792	5573
1086.121	5599
1088.449	5523
1090.777	5503
1093.104	5458
1095.431	5617
1097.759	5561
1100.084	5482
1102.408	5629
1104.732	5572
1107.056	5517
1109.379	5476
1111.701	5511
1114.022	5522
1116.343	5614
1118.664	5481
1120.983	5589
1123.303	5517
1125.621	5594
1127.939	5573
1130.256	5510
1132.573	5511
1134.889	5575
1137.205	5606
1139.52	5514
1141.832	5575
1144.146	5576
1146.461	5448
1148.771	5453
1151.083	5502
1153.392	5514
1155.703	5420
1158.011	5607
1160.323	5565
1162.629	5571
1164.938	5488
1167.243	5461
1169.55	5511
1171.857	5574
1174.163	5538
1176.466	5536
1178.769	5553
1181.073	5521
1183.374	5576
1185.677	5411
1187.979	5532
1190.279	5467
1192.578	5519
1194.878	5465
1197.178	5428
1199.476	5634
1201.772	5630
1204.068	5435
1206.366	5625
1208.663	5537
1210.957	5563
1213.251	5492
1215.544	5543
1217.836	5529
1220.128	5565
1222.421	5580
1224.712	5611
1227.002	5600
1229.292	5700
1231.581	5680
1233.871	5682
1236.159	5650
1238.446	5664
1240.732	5646
1243.018	5829
1245.304	5739
1247.59	5811
1249.874	5802
1252.156	5716
1254.439	5808
1256.721	5875
1259.005	5837
1261.286	5777
1263.565	5813
1265.845	5942
1268.125	5825
1270.403	5839
1272.682	5854
1274.959	5781
1277.234	5756
1279.511	5674
1281.787	5692
1284.062	5696
1286.337	5722
1288.609	5766
1290.882	5757
1293.153	5763
1295.428	5724
1297.698	5709
1299.969	5623
1302.237	5698
1304.507	5576
1306.777	5636
1309.044	5626
1311.312	5685
1313.578	5641
1315.844	5697
1318.109	5795
1320.375	5722
1322.638	5569
1324.903	5733
1327.165	5666
1329.427	5629
1331.69	5682
1333.952	5715
1336.212	5752
1338.471	5673
1340.73	5676
1342.988	5547
1345.248	5676
1347.505	5663
1349.763	5683
1352.019	5672
1354.274	5662
1356.53	5650
1358.784	5701
1361.038	5706
1363.291	5668
1365.543	5671
1367.797	5589
1370.048	5646
1372.296	5603
1374.546	5598
1376.796	5758
1379.045	5671
1381.295	5806
1383.542	5747
1385.787	5587
1388.034	5736
1390.28	5754
1392.527	5742
1394.772	5805
1397.014	5733
1399.258	5766
1401.501	5872
1403.741	5914
1405.985	5841
1408.226	5760
1410.465	5749
1412.705	5792
1414.943	5713
1417.184	5762
1419.42	5856
1421.658	5812
1423.894	5773
1426.13	5812
1428.366	5844
1430.602	5872
1432.835	5855
1435.069	5959
1437.301	5931
1439.535	5929
1441.767	6003
1443.997	5934
1446.229	6045
1448.458	5977
1450.687	6030
1452.916	6027
1455.146	6172
1457.372	6016
1459.599	5951
1461.824	5943
1464.051	5959
1466.277	6038
1468.501	5955
1470.725	5882
1472.948	5854
1475.17	5842
1477.393	5693
1479.614	5860
1481.837	5778
1484.057	5725
1486.276	5734
1488.497	5683
1490.715	5692
1492.932	5602
1495.148	5561
1497.364	5606
1499.58	5547
1501.798	5507
1504.012	5595
1506.227	5634
1508.44	5562
1510.653	5610
1512.866	5667
1515.078	5607
1517.289	5645
1519.5	5621
1521.711	5642
1523.92	5611
1526.13	5506
1528.338	5525
1530.544	5501
1532.752	5562
1534.959	5620
1537.165	5659
1539.371	5608
1541.574	5633
1543.779	5692
1545.983	5627
1548.187	5652
1550.39	5601
1552.59	5589
1554.792	5790
1556.991	5639
1559.19	5676
1561.392	5778
1563.59	5643
1565.789	5673
1567.986	5633
1570.182	5773
1572.381	5657
1574.576	5835
1576.771	5660
1578.966	5792
1581.16	5650
1583.354	5740
1585.546	5776
1587.74	5765
1589.931	5810
1592.121	5696
1594.311	5801
1596.502	5699
1598.693	5883
1600.881	5823
1603.069	5824
1605.256	5772
1607.445	5798
1609.631	5782
1611.816	5842
1614.001	5797
1616.186	5836
1618.37	5809
1620.555	5865
1622.737	5845
1624.919	5717
1627.101	5798
1629.282	6020
1631.463	5973
1633.643	5879
1635.822	5901
1638.001	6013
1640.179	5947
1642.359	5890
1644.534	5970
1646.711	5937
1648.887	5960
1651.062	5919
1653.235	5952
1655.412	5991
1657.586	5978
1659.757	6049
1661.93	6093
1664.1	6050
1666.274	6030
1668.445	5973
1670.614	6069
1672.784	6062
1674.951	6047
1677.12	5995
1679.289	6014
1681.457	5947
1683.622	6014
1685.789	5927
1687.953	5972
1690.121	5989
1692.284	5849
1694.447	5823
1696.611	5955
1698.772	5893
1700.935	5879
1703.098	5877
1705.258	5808
1707.417	5750
1709.576	5775
1711.736	5806
1713.896	5709
1716.053	5846
1718.21	5753
1720.366	5779
1722.522	5581
1724.68	5656
1726.835	5704
1728.989	5834
1731.142	5779
1733.295	5768
1735.449	5725
1737.601	5681
1739.753	5683
1741.903	5770
1744.054	5741
1746.203	5703
1748.354	5693
1750.503	5785
1752.651	5790
1754.798	5771
1756.944	5723
1759.092	5837
1761.238	5801
1763.383	5861
1765.528	5702
1767.672	5849
1769.814	5737
1771.959	5869
1774.102	5639
1776.242	5797
1778.384	5754
1780.525	5826
1782.665	5737
1784.805	5740
1786.945	5877
1789.082	5801
1791.22	5773
1793.36	5890
1795.495	5766
1797.632	5862
1799.766	5764
1801.902	5816
1804.035	5673
1806.172	5806
1808.304	5789
1810.436	5869
1812.569	5749
1814.699	5747
1816.833	5747
1818.963	5765
1821.092	5746
1823.222	5716
1825.35	5806
1827.478	5794
1829.608	5777
1831.734	5691
1833.86	5892
1835.986	5782
1838.11	5713
1840.238	5854
1842.362	5759
1844.485	5744
1846.608	5777
1848.73	5743
1850.853	5612
1852.974	5753
1855.097	5806
1857.217	5679
1859.336	5792
1861.455	5675
1863.576	5657
1865.693	5672
1867.811	5731
1869.926	5752
1872.042	5675
1874.16	5686
1876.275	5779
1878.39	5752
1880.504	5719
1882.618	5794
1884.731	5742
1886.843	5769
1888.956	5704
1891.067	5691
1893.178	5751
1895.287	5842
1897.399	5752
1899.508	5786
1901.617	5719
1903.724	5853
1905.832	5822
1907.941	5744
1910.046	5646
1912.152	5733
1914.256	5855
1916.361	5813
1918.464	5784
1920.57	5814
1922.672	5764
1924.775	5704
1926.876	5837
1928.978	5772
1931.08	5870
1933.181	5723
1935.28	5793
1937.38	5781
1939.478	5783
1941.577	5865
1943.675	5719
1945.771	5777
1947.867	5763
1949.964	5815
1952.058	5938
1954.154	5791
1956.248	5864
1958.343	5730
1960.435	5897
1962.527	5809
1964.62	5669
1966.711	5835
1968.802	5818
1970.892	5828
1972.983	5783
1975.072	5807
1977.162	5898
1979.25	5829
1981.337	5822
1983.424	5781
1985.51	5727
1987.598	5712
1989.683	5752
1991.768	5834
1993.852	5822
1995.934	5860
1998.019	5697
2000.102	5655
2002.184	5763
2004.266	5704
2006.347	5735
2008.427	5802
2010.508	5802
2012.587	5689
2014.666	5642
2016.745	5789
2018.821	5837
2020.9	5709
2022.977	5663
2025.052	5698
2027.128	5842
2029.204	5769
2031.277	5664
2033.353	5788
2035.425	5729
2037.499	5767
2039.57	5749
2041.642	5592
2043.714	5827
2045.786	5702
2047.855	5694
2049.925	5778
2051.993	5691
2054.064	5744
2056.132	5795
2058.2	5632
2060.266	5753
2062.332	5764
2064.398	5653
2066.465	5808
2068.529	5754
2070.592	5730
2072.657	5775
2074.719	5663
2076.783	5656
2078.845	5730
2080.907	5770
2082.968	5756
2085.028	5697
2087.087	5745
2089.148	5692
2091.207	5695
2093.264	5779
2095.322	5865
2097.379	5693
2099.439	5768
2101.495	5639
2103.55	5715
2105.605	5791
2107.658	5730
2109.713	5647
2111.767	5845
2113.82	5739
2115.872	5661
2117.924	5740
2119.975	5757
2122.028	5696
2124.078	5723
2126.126	5747
2128.176	5707
2130.225	5694
2132.275	5761
2134.321	5742
2136.368	5729
2138.415	5718
2140.461	5701
2142.505	5753
2144.552	5679
2146.597	5640
2148.64	5735
2150.684	5696
2152.725	5743
2154.77	5707
2156.811	5593
2158.852	5590
2160.894	5578
2162.933	5557
2164.973	5673
2167.013	5667
2169.051	5578
2171.089	5626
2173.126	5651
2175.164	5608
2177.201	5635
2179.236	5626
2181.273	5623
2183.307	5660
2185.341	5518
2187.377	5605
2189.41	5513
2191.442	5596
2193.473	5482
2195.506	5718
2197.539	5616
2199.569	5605
2201.598	5592
2203.628	5641
2205.656	5555
2207.686	5560
2209.716	5652
2211.743	5716
2213.769	5507
2215.796	5545
2217.821	5642
2219.848	5568
2221.873	5520
2223.897	5633
2225.921	5519
2227.944	5483
2229.967	5601
2231.991	5478
2234.011	5608
2236.032	5542
2238.053	5513
2240.073	5597
2242.094	5579
2244.114	5433
2246.131	5518
2248.149	5506
2250.167	5608
2252.186	5540
2254.201	5584
2256.218	5673
2258.233	5544
2260.247	5533
2262.262	5459
2264.278	5512
2266.29	5574
2268.303	5556
2270.315	5548
2272.327	5471
2274.341	5552
2276.35	5557
2278.361	5496
2280.37	5583
2282.38	5550
2284.388	5519
2286.397	5606
2288.405	5573
2290.412	5571
2292.419	5582
2294.425	5650
2296.431	5642
2298.437	5442
2300.441	5532
2302.445	5472
2304.449	5529
2306.453	5585
2308.455	5436
2310.457	5489
2312.459	5503
2314.46	5615
2316.46	5558
2318.461	5538
2320.46	5491
2322.458	5454
2324.458	5512
2326.456	5458
2328.455	5489
2330.451	5440
2332.447	5404
2334.443	5543
2336.438	5419
2338.433	5395
2340.429	5606
2342.422	5412
2344.416	5424
2346.408	5523
2348.399	5497
2350.393	5450
2352.384	5339
2354.375	5305
2356.365	5370
2358.355	5436
2360.344	5487
2362.333	5342
2364.322	5402
2366.309	5525
2368.295	5376
2370.282	5418
2372.27	5423
2374.256	5352
2376.24	5297
2378.225	5391
2380.208	5358
2382.194	5378
2384.177	5293
2386.159	5302
2388.142	5445
2390.122	5294
2392.105	5333
2394.085	5305
2396.066	5374
2398.044	5325
2400.024	5383
2402.002	5304
2403.982	5356
2405.959	5333
2407.935	5349
2409.913	5189
2411.888	5360
2413.865	5379
2415.84	5370
2417.814	5368
2419.788	5326
2421.762	5335
2423.735	5291
2425.708	5401
2427.68	5286
2429.651	5208
2431.623	5359
2433.593	5296
2435.564	5315
2437.533	5447
2439.502	5134
2441.47	5361
2443.438	5350
2445.406	5283
2447.373	5314
2449.34	5359
2451.305	5385
2453.271	5289
2455.235	5282
2457.201	5313
2459.165	5214
2461.129	5429
2463.092	5316
2465.054	5299
2467.018	5190
2468.978	5327
2470.939	5332
2472.899	5217
2474.86	5282
2476.819	5220
2478.778	5259
2480.737	5296
2482.695	5273
2484.653	5159
2486.609	5299
2488.567	5247
2490.524	5398
2492.478	5185
2494.433	5219
2496.387	5322
2498.343	5259
2500.297	5258
2502.249	5256
2504.202	5175
2506.153	5263
2508.105	5284
2510.057	5236
2512.008	5328
2513.957	5219
2515.906	5278
2517.855	5310
2519.805	5192
2521.754	5271
2523.7	5226
2525.647	5211
2527.594	5177
2529.54	5122
2531.486	5177
2533.431	5181
2535.376	5274
2537.32	5230
2539.263	5145
2541.207	5231
2543.151	5116
2545.093	5260
2547.034	5227
2548.975	5150
2550.917	5127
2552.856	5273
2554.796	5299
2556.735	5237
2558.673	5275
2560.611	5192
2562.55	5266
2564.487	5243
2566.424	5221
2568.36	5207
2570.296	5239
2572.232	5230
2574.167	5221
2576.101	5201
2578.035	5278
2579.969	5200
2581.902	5104
2583.834	5144
2585.766	5192
2587.698	5243
2589.628	5212
2591.557	5237
2593.489	5289
2595.419	5147
2597.348	5121
2599.275	5254
2601.204	5202
2603.131	5213
2605.059	5236
2606.986	5278
2608.911	5380
2610.837	5234
2612.76	5140
2614.687	5190
2616.61	5246
2618.534	5221
2620.457	5309
2622.38	5168
2624.302	5159
2626.225	5262
2628.145	5208
2630.067	5274
2631.986	5325
2633.906	5292
2635.827	5291
2637.745	5179
2639.662	5234
2641.581	5244
2643.498	5275
2645.415	5109
2647.331	5214
2649.248	5207
2651.163	5233
2653.077	5217
2654.993	5263
2656.906	5269
2658.821	5277
2660.733	5238
2662.646	5213
2664.557	5140
2666.47	5203
2668.381	5080
2670.291	5289
2672.201	5145
2674.11	5225
2676.021	5224
2677.929	5133
2679.837	5182
2681.745	5242
2683.652	5183
2685.56	5151
2687.466	5137
2689.371	5155
2691.276	5188
2693.181	5144
2695.085	5273
2696.991	5113
2698.893	5210
2700.796	5072
2702.698	5104
2704.601	5093
2706.502	5216
2708.404	5122
2710.304	5182
2712.203	4992
2714.103	5066
2716.003	5073
2717.902	5095
2719.8	5116
2721.697	5167
2723.594	5115
2725.49	5104
2727.389	5080
2729.283	5159
2731.179	5003
2733.073	5109
2734.968	5182
2736.863	5075
2738.757	5121
2740.649	5123
2742.541	5031
2744.433	5015
2746.324	4970
2748.216	5052
2750.107	5111
2751.997	5132
2753.886	5050
2755.776	5064
2757.666	5241
2759.553	5106
2761.44	5030
2763.327	5153
2765.215	5011
2767.102	5155
2768.988	5178
2770.873	5013
2772.757	5066
2774.641	5057
2776.525	5104
2778.41	5078
2780.292	4987
2782.175	5095
2784.057	5009
2785.938	5090
2787.821	5063
2789.701	4981
2791.581	5056
2793.461	5191
2795.34	5051
2797.219	5046
2799.099	5026
2800.975	5012
2802.853	5002
2804.73	5050
2806.606	5059
2808.484	4969
2810.358	4983
2812.233	5042
2814.108	4942
2815.981	5004
2817.857	4976
2819.73	4981
2821.602	5005
2823.474	4986
2825.346	5034
2827.217	4985
2829.089	5001
2830.959	5120
2832.829	5075
2834.698	5066
2836.567	4966
2838.436	5047
2840.305	5052
2842.172	5057
2844.04	5078
2845.905	5128
2847.772	5064
2849.639	5093
2851.503	5108
2853.369	5147
2855.232	5175
2857.096	5097
2858.961	5175
2860.824	5213
2862.686	5235
2864.547	5241
2866.41	5291
2868.272	5256
2870.132	5325
2871.992	5467
2873.851	5468
2875.711	5438
2877.57	5415
2879.429	5638
2881.287	5586
2883.144	5594
2885.001	5730
2886.857	5642
2888.714	5742
2890.57	5700
2892.425	5628
2894.279	5644
2896.133	5591
2897.987	5641
2899.842	5629
2901.694	5620
2903.547	5672
2905.397	5612
2907.249	5742
2909.101	5676
2910.952	5717
2912.802	5669
2914.652	5806
2916.5	5814
2918.35	5931
2920.198	5925
2922.045	6010
2923.893	5996
2925.74	6012
2927.585	6167
2929.433	6244
2931.279	6158
2933.123	6294
2934.968	6452
2936.811	6473
2938.656	6379
2940.5	6610
2942.342	6652
2944.185	6750
2946.026	6641
2947.87	6696
2949.71	6630
2951.549	6629
2953.39	6543
2955.229	6374
2957.069	6494
2958.908	6271
2960.746	6314
2962.584	6178
2964.421	6216
2966.257	6122
2968.094	6046
2969.931	6009
2971.766	5967
2973.601	5902
2975.435	5767
2977.27	5918
2979.105	5800
2980.938	5820
2982.77	5750
2984.602	5746
2986.434	5694
2988.267	5686
2990.097	5731
2991.927	5619
2993.757	5638
2995.587	5542
2997.417	5501
2999.246	5463
3001.074	5309
3002.902	5303
3004.729	5337
3006.556	5205
3008.384	5235
3010.21	5178
3012.036	5027
3013.861	5047
3015.684	5061
3017.51	5128
3019.334	4858
3021.157	4862
3022.981	4879
3024.802	4908
3026.624	4866
3028.448	4845
3030.267	4870
3032.088	4824
3033.909	4736
3035.728	4779
3037.549	4692
3039.368	4742
3041.186	4757
3043.004	4675
3044.821	4759
3046.64	4754
3048.455	4738
3050.272	4714
3052.087	4704
3053.903	4669
3055.717	4700
3057.534	4822
3059.347	4725
3061.16	4811
3062.974	4672
3064.785	4805
3066.598	4764
3068.411	4734
3070.222	4775
3072.032	4619
3073.844	4717
3075.653	4585
3077.463	4674
3079.272	4624
3081.08	4663
3082.889	4627
3084.697	4644
3086.505	4574
3088.312	4604
3090.118	4735
3091.924	4599
3093.729	4626
3095.535	4614
3097.34	4542
3099.144	4551
3100.947	4595
3102.75	4449
3104.553	4559
3106.357	4538
3108.159	4527
3109.961	4544
3111.762	4511
3113.562	4467
3115.365	4565
3117.164	4534
3118.964	4479
3120.761	4487
3122.56	4530
3124.36	4472
3126.158	4448
3127.954	4444
3129.75	4473
3131.547	4599
3133.343	4418
3135.139	4442
3136.934	4440
3138.729	4501
3140.522	4486
3142.317	4519
3144.11	4460
3145.904	4448
3147.695	4497
3149.488	4473
3151.28	4421
3153.07	4427
3154.863	4461
3156.652	4401
3158.441	4421
3160.231	4426
3162.019	4485
3163.81	4352
3165.597	4389
3167.384	4393
3169.172	4439
3170.958	4434
3172.745	4374
3174.532	4441
3176.317	4457
3178.101	4442
3179.885	4341
3181.67	4444
3183.455	4379
3185.238	4371
3187.02	4450
3188.802	4389
3190.585	4401
3192.368	4459
3194.149	4377
3195.929	4334
3197.709	4339
3199.489	4432
3201.268	4329
3203.048	4426
3204.826	4306
3206.604	4487
3208.382	4344
3210.159	4351
3211.937	4442
3213.713	4413
3215.489	4322
3217.263	4369
3219.038	4360
3220.815	4300
3222.589	4448
3224.363	4402
3226.136	4379
3227.908	4414
3229.681	4429
3231.454	4362
3233.226	4461
3234.996	4444
3236.767	4368
3238.538	4349
3240.308	4359
3242.078	4342
3243.847	4346
3245.615	4440
3247.384	4335
3249.15	4325
3250.92	4373
3252.686	4382
3254.453	4371
3256.218	4419
3257.984	4338
3259.75	4359
3261.515	4356
3263.279	4437
3265.044	4413
3266.806	4389
3268.57	4448
3270.334	4333
3272.095	4395
3273.856	4413
3275.619	4369
3277.379	4410
3279.14	4357
3280.9	4484
3282.661	4389
3284.419	4412
3286.178	4343
3287.937	4369
3289.695	4355
3291.453	4391
3293.21	4397
3294.967	4486
3296.723	4363
3298.48	4443
3300.235	4343
3301.99	4461
3303.744	4415
3305.498	4399
3307.253	4381
3309.006	4425
3310.759	4432
3312.511	4466
3314.263	4443
3316.017	4349
3317.768	4377
3319.519	4362
3321.268	4401
3323.018	4394
3324.767	4430
3326.518	4403
3328.267	4423
3330.014	4468
3331.762	4343
3333.509	4374
3335.258	4406
3337.003	4382
3338.75	4371
3340.496	4346
3342.24	4403
3343.987	4415
3345.732	4357
3347.475	4308
3349.219	4303
3350.961	4298
3352.705	4261
3354.448	4410
3356.19	4370
3357.931	4389
3359.672	4356
3361.412	4276
3363.155	4374
3364.894	4266
3366.633	4302
3368.372	4357
3370.11	4377
3371.849	4261
3373.588	4329
3375.325	4344
3377.061	4304
3378.799	4189
3380.534	4225
3382.271	4335
3384.006	4256
3385.741	4278
3387.475	4220
3389.209	4358
3390.944	4199
3392.677	4159
3394.409	4258
3396.143	4155
3397.874	4245
3399.606	4147
3401.338	4237
3403.069	4236
3404.799	4135
3406.528	4280
3408.258	4124
3409.988	4217
3411.717	4228
3413.445	4148
3415.173	4168
3416.899	4146
3418.626	4194
3420.354	4175
3422.08	4160
3423.806	4121
3425.531	4117
3427.255	4155
3428.981	4186
3430.705	4172
3432.429	4190
3434.151	4041
3435.875	4041
3437.599	4149
3439.321	4070
3441.042	4150
3442.763	4099
3444.483	4156
3446.204	4154
3447.926	4125
3449.645	4050
3451.364	4012
3453.082	4096
3454.801	4049
3456.52	4058
3458.238	4024
3459.954	4095
3461.671	3971
3463.387	3995
3465.104	4055
3466.82	3970
3468.534	4013
3470.25	4041
3471.963	4030
3473.676	3969
3475.392	4005
3477.104	4004
3478.817	3977
3480.528	3942
3482.241	3965
3483.954	3984
3485.664	3992
3487.374	3976
3489.084	4062
3490.795	3866
3492.504	3924
3494.214	3920
3495.922	3866
3497.63	3882
3499.338	3856
3501.045	3941
3502.753	3972
3504.459	3894
3506.166	3828
3507.871	3952
3509.576	3937
3511.283	3806
3512.987	3854
3514.691	3834
3516.395	3816
3518.098	3798
3519.8	3775
3521.504	3851
3523.206	3870
3524.908	3948
3526.609	3815
3528.309	3775
3530.011	3793
3531.711	3746
3533.411	3900
3535.109	3799
3536.808	3721
3538.507	3851
3540.206	3776
3541.904	3725
3543.601	3845
3545.297	3731
3546.994	3805
3548.69	3759
3550.387	3744
3552.081	3777
3553.776	3722
3555.47	3740
3557.166	3722
3558.859	3687
3560.553	3722
3562.245	3727
3563.938	3743
3565.629	3703
3567.322	3651
3569.014	3771
3570.704	3726
3572.394	3738
3574.084	3609
3575.775	3647
3577.464	3700
3579.152	3681
3580.842	3601
3582.529	3707
3584.216	3702
3585.905	3532
3587.591	3666
3589.279	3671
3590.964	3675
3592.649	3630
3594.336	3590
3596.021	3552
3597.705	3621
3599.388	3590
3601.072	3599
3602.757	3613
3604.439	3618
3606.122	3526
3607.803	3607
3609.485	3566
3611.167	3509
3612.849	3622
3614.529	3587
3616.208	3504
3617.888	3585
3619.567	3519
3621.247	3489
3622.926	3509
3624.603	3419
3626.281	3548
3627.958	3540
3629.635	3525
3631.312	3527
3632.989	3477
3634.665	3466
3636.339	3434
3638.014	3421
3639.691	3415
3641.364	3450
3643.038	3488
3644.71	3424
3646.384	3395
3648.058	3484
3649.729	3429
3651.402	3410
3653.073	3474
3654.744	3393
3656.414	3393
3658.085	3407
3659.755	3447
3661.424	3445
3663.094	3399
3664.762	3388
3666.431	3473
3668.099	3491
3669.766	3353
3671.433	3373
3673.099	3314
3674.768	3329
3676.433	3367
3678.098	3381
3679.763	3306
3681.428	3367
3683.093	3326
3684.757	3322
3686.421	3326
3688.083	3348
3689.746	3332
3691.408	3371
3693.071	3351
3694.733	3296
3696.394	3304
3698.054	3400
3699.715	3352
3701.375	3297
3703.036	3379
3704.695	3263
3706.354	3274
3708.012	3342
3709.67	3299
3711.329	3314
3712.987	3296
3714.644	3274
3716.299	3286
3717.955	3218
3719.613	3261
3721.268	3308
3722.923	3217
3724.577	3352
3726.231	3242
3727.885	3199
3729.539	3256
3731.192	3225
3732.845	3381
3734.497	3248
3736.149	3211
3737.802	3228
3739.453	3200
3741.104	3224
3742.753	3260
3744.404	3266
3746.052	3263
3747.704	3274
3749.352	3281
3751	3298
3752.648	3303
3754.296	3216
3755.944	3283
3757.59	3227
3759.238	3212
3760.883	3209
3762.528	3203
3764.176	3171
3765.82	3194
3767.464	3197
3769.109	3172
3770.753	3148
3772.396	3252
3774.04	3215
3775.683	3149
3777.325	3171
3778.967	3170
3780.608	3144
3782.25	3181
3783.89	3188
3785.531	3193
3787.17	3194
3788.81	3181
3790.45	3192
3792.09	3130
3793.729	3178
3795.366	3140
3797.003	3109
3798.64	3111
3800.278	3135
3801.915	3106
3803.551	3173
3805.187	3149
3806.822	3134
3808.458	3163
3810.093	3148
3811.726	3143
3813.36	3144
3814.994	3074
3816.627	3098
3818.262	3105
3819.893	3105
3821.525	3142
3823.157	3071
3824.787	3122
3826.42	3090
3828.051	3055
3829.68	3113
3831.31	3061
3832.938	3059
3834.569	3021
3836.198	3081
3837.825	3115
3839.454	3093
3841.08	3011
3842.708	3078
3844.335	3018
3845.962	3047
3847.587	3096
3849.212	3078
3850.838	3060
3852.463	3107
3854.089	3095
3855.712	3048
3857.335	3022
3858.959	2998
3860.582	2936
3862.205	3077
3863.827	3041
3865.449	3020
3867.07	2973
3868.691	2956
3870.312	2936
3871.933	3019
3873.553	3038
3875.173	2953
3876.792	3020
3878.411	3035
3880.03	2958
3881.647	2971
3883.265	2990
3884.882	2911
3886.499	2926
3888.116	2923
3889.732	2932
3891.348	3072
3892.964	2975
3894.579	3010
3896.195	2983
3897.809	2922
3899.423	3013
3901.036	2937
3902.648	2949
3904.261	2984
3905.875	2972
3907.487	2958
3909.099	2979
3910.709	2929
3912.321	2970
3913.933	2934
3915.542	2921
3917.152	2968
3918.762	2980
3920.37	2937
3921.98	2988
3923.589	2916
3925.196	2884
3926.804	2917
3928.41	2956
3930.018	2966
3931.626	2952
3933.231	2997
3934.838	2869
3936.442	2963
3938.046	2903
3939.653	2900
3941.257	2960
3942.861	2925
3944.464	2862
3946.068	2869
3947.67	2914
3949.273	2844
3950.876	2931
3952.477	2882
3954.078	2897
3955.678	2909
3957.281	2898
3958.881	2928
3960.48	2858
3962.079	2894
3963.678	2898
3965.279	2837
3966.877	2835
3968.475	2811
3970.072	2913
3971.669	2889
3973.266	2843
3974.864	2854
3976.459	2845
3978.055	2825
3979.65	2822
3981.245	2972
3982.841	2876
3984.436	2911
3986.03	2828
3987.623	2885
3989.216	2881
3990.809	2834
3992.403	2886
3993.995	2839
3995.586	2857
3997.177	2779
3998.768	2808
4000.361	2781
4001.951	2752
4003.54	2774
4005.13	2757
4006.719	2772
4008.31	2799
4009.897	2789
4011.485	2723
4013.073	2778
4014.66	2782
4016.247	2741
4017.834	2764
4019.421	2762
4021.006	2730
4022.592	2785
4024.178	2701
4025.763	2657
4027.348	2762
4028.932	2805
4030.515	2705
4032.099	2716
4033.682	2785
4035.266	2695
4036.847	2757
4038.429	2678
4040.011	2693
4041.592	2711
4043.173	2716
4044.755	2654
4046.334	2738
4047.913	2774
4049.494	2746
4051.074	2656
4052.652	2633
4054.23	2691
4055.807	2671
4057.385	2622
4058.963	2677
4060.541	2704
4062.117	2673
4063.693	2738
4065.269	2691
4066.844	2700
4068.42	2665
4069.995	2661
4071.569	2689
4073.143	2736
4074.716	2639
4076.291	2703
4077.864	2612
4079.436	2646
4081.009	2673
4082.58	2640
4084.152	2664
4085.723	2614
4087.294	2686
4088.865	2605
4090.435	2637
4092.005	2695
4093.574	2589
4095.143	2631
4096.712	2682
4098.279	2601
4099.848	2666
4101.416	2636
4102.984	2583
4104.55	2625
4106.117	2567
4107.682	2594
4109.248	2649
4110.815	2633
4112.379	2609
4113.945	2583
4115.508	2557
4117.073	2553
4118.637	2605
4120.201	2591
4121.763	2580
4123.325	2612
4124.888	2560
4126.449	2606
4128.013	2547
4129.573	2576
4131.133	2604
4132.694	2606
4134.254	2636
4135.814	2517
4137.374	2515
4138.933	2479
4140.491	2606
4142.049	2532
4143.607	2589
4145.167	2540
4146.724	2517
4148.28	2533
4149.836	2455
4151.392	2507
4152.949	2582
4154.504	2532
4156.059	2536
4157.614	2436
4159.168	2527
4160.723	2476
4162.277	2477
4163.83	2448
4165.383	2543
4166.936	2515
4168.488	2558
4170.041	2500
4171.593	2468
4173.144	2502
4174.695	2468
4176.246	2436
4177.796	2481
4179.346	2406
4180.896	2461
4182.445	2414
4183.994	2443
4185.542	2465
4187.091	2445
4188.639	2390
4190.185	2448
4191.732	2365
4193.279	2420
4194.826	2513
4196.373	2459
4197.918	2477
4199.463	2446
4201.008	2398
4202.553	2456
4204.098	2387
4205.641	2377
4207.185	2388
4208.728	2494
4210.271	2415
4211.814	2387
4213.357	2395
4214.898	2451
4216.439	2443
4217.98	2368
4219.522	2449
4221.062	2367
4222.603	2306
4224.142	2407
4225.681	2455
4227.222	2446
4228.76	2435
4230.298	2411
4231.835	2385
4233.373	2391
4234.911	2446
4236.449	2391
4237.985	2403
4239.521	2436
4241.057	2377
4242.592	2387
4244.128	2346
4245.663	2380
4247.197	2401
4248.731	2384
4250.265	2375
4251.798	2385
4253.333	2398
4254.865	2367
4256.397	2356
4257.93	2352
4259.461	2350
4260.994	2316
4262.525	2419
4264.056	2344
4265.586	2425
4267.115	2391
4268.646	2361
4270.176	2344
4271.705	2335
4273.232	2292
4274.761	2352
4276.289	2332
4277.818	2332
4279.345	2390
4280.872	2333
4282.399	2401
4283.924	2335
4285.452	2314
4286.976	2320
4288.502	2326
4290.026	2283
4291.551	2316
4293.074	2273
4294.6	2298
4296.123	2296
4297.646	2320
4299.168	2292
4300.691	2343
4302.214	2298
4303.736	2260
4305.257	2324
4306.778	2292
4308.299	2268
4309.82	2271
4311.34	2266
4312.86	2321
4314.379	2265
