400.0745	4096
402.597	4125
405.1208	4113
407.6419	4138
410.1623	4066
412.6819	4197
415.201	4270
417.7172	4159
420.2369	4330
422.7538	4252
425.2701	4342
427.7856	4386
430.3005	4385
432.8147	4443
435.3282	4395
437.841	4353
440.3511	4410
442.8625	4507
445.3753	4501
447.8854	4385
450.3927	4406
452.9014	4431
455.4073	4385
457.9146	4324
460.4233	4452
462.9272	4448
465.4325	4472
467.935	4389
470.4389	4325
472.9421	4430
475.4446	4319
477.9444	4415
480.4456	4401
482.944	4467
485.4417	4440
487.9429	4443
490.4393	4475
492.935	4414
495.4321	4528
497.9264	4408
500.4221	4436
502.9171	4449
505.4094	4529
507.9011	4483
510.392	4471
512.8864	4452
515.3759	4421
517.8649	4525
520.3531	4575
522.8406	4590
525.3275	4592
527.8178	4596
530.3033	4613
532.7881	4612
535.2723	4473
537.7558	4556
540.2407	4506
542.7228	4554
545.2043	4584
547.6851	4557
550.1652	4665
552.6467	4537
555.1255	4591
557.6016	4671
560.079	4524
562.5557	4625
565.0318	4688
567.5092	4684
569.984	4689
572.456	4742
574.9294	4688
577.4022	4762
579.8762	4667
582.3456	4836
584.8163	4767
587.2863	4866
589.7557	4814
592.2224	4859
594.6924	4744
597.1578	4743
599.6245	4777
602.0905	4798
604.5538	4788
607.0206	4818
609.4825	4736
611.9459	4761
614.4066	4703
616.8686	4799
619.33	4782
621.7906	4705
624.2487	4785
626.708	4665
629.1647	4602
631.6207	4652
634.0801	4734
636.5348	4705
638.9888	4720
641.4442	4730
643.8969	4684
646.3509	4780
648.8022	4764
651.255	4777
653.705	4788
656.1544	4903
658.6031	4806
661.0532	4854
663.5026	4939
665.9493	4722
668.3954	4793
670.8409	4789
673.2877	4756
675.7318	4934
678.1752	4885
680.618	4909
683.0601	4845
685.5035	4938
687.9444	4899
690.3845	4925
692.824	4882
695.2628	4839
697.701	4950
700.1406	4909
702.5774	4915
705.0116	4948
707.4472	4904
709.8821	5027
712.3183	4965
714.7519	5008
717.1829	4937
719.6151	4971
722.0468	4989
724.4777	5030
726.908	5129
729.3377	5141
731.7667	5073
734.1931	4996
736.6208	5041
739.0498	5113
741.4742	5132
743.9	5064
746.3231	5095
748.7476	5095
751.1713	5170
753.5945	5112
756.015	5275
758.4368	5244
760.856	5297
763.2766	5201
765.6965	5186
768.1157	5251
770.5323	5287
772.9483	5204
775.3656	5332
777.7822	5176
780.1963	5231
782.6116	5251
785.0244	5224
787.4365	5248
789.8499	5270
792.2626	5233
794.6728	5253
797.0823	5302
799.4911	5341
801.8994	5248
804.3109	5213
806.7178	5260
809.124	5212
811.5297	5415
813.9347	5298
816.341	5305
818.7447	5311
821.1478	5217
823.5502	5367
825.952	5231
828.3531	5323
830.7556	5309
833.1554	5262
835.5546	5409
837.9532	5291
840.3511	5334
842.7504	5252
845.1451	5381
847.5411	5551
849.9365	5499
852.3312	5488
854.7272	5495
857.1187	5490
859.5115	5513
861.9037	5491
864.2952	5481
866.6842	5464
869.0764	5420
871.4661	5447
873.8531	5558
876.2415	5530
878.6272	5421
881.0162	5366
883.4026	5488
885.7866	5414
888.1717	5396
890.5543	5465
892.9382	5406
895.3215	5342
897.7041	5571
900.0842	5412
902.4655	5497
904.8443	5499
907.2244	5512
909.6039	5522
911.9808	5512
914.357	5540
916.7346	5672
919.1115	5651
921.4859	5780
923.8616	5774
926.2347	5707
928.6071	5816
930.979	5842
933.3541	5697
935.7247	5834
938.0946	5782
940.4639	5800
942.8326	5866
945.2026	5951
947.5701	6063
949.9369	6219
952.305	6402
954.6705	6598
957.0355	6807
959.4017	7082
961.7654	7255
964.1284	7121
966.4908	6967
968.8527	6724
971.2138	6444
973.5743	6149
975.9343	6051
978.2936	5856
980.6522	5755
983.0122	5763
985.3696	5700
987.7245	5600
990.0807	5628
992.4362	5725
994.7911	5661
997.1474	5606
999.4991	5674
1001.852	5694
1004.205	5573
1006.555	5638
1008.908	5581
1011.258	5681
1013.606	5648
1015.956	5783
1018.302	5790
1020.652	5648
1022.998	5864
1025.345	5729
1027.691	5686
1030.035	5724
1032.378	5796
1034.724	5678
1037.066	5776
1039.409	5825
1041.75	5749
1044.092	5801
1046.433	5771
1048.771	5716
1051.112	5772
1053.449	5752
1055.786	5845
1058.124	5824
1060.462	5829
1062.797	5935
1065.131	5942
1067.467	5854
1069.8	5886
1072.135	5929
1074.467	5929
1076.798	6043
1079.129	5825
1081.459	5827
1083.792	5800
1086.121	5849
1088.449	5876
1090.777	5812
1093.104	5659
1095.431	5826
1097.759	5949
1100.084	5804
1102.408	5821
1104.732	5876
1107.056	5876
1109.379	5888
1111.701	5813
1114.022	5846
1116.343	5878
1118.664	5804
1120.983	5860
1123.303	5876
1125.621	5871
1127.939	5786
1130.256	5729
1132.573	5752
1134.889	5813
1137.205	5770
1139.52	5816
1141.832	5815
1144.146	5821
1146.461	5761
1148.771	5692
1151.083	5818
1153.392	5869
1155.703	5814
1158.011	5823
1160.323	5812
1162.629	5857
1164.938	5769
1167.243	5859
1169.55	5871
1171.857	5849
1174.163	5862
1176.466	5775
1178.769	5823
1181.073	5914
1183.374	5828
1185.677	5833
1187.979	5763
1190.279	5866
1192.578	5850
1194.878	5852
1197.178	5791
1199.476	5942
1201.772	5849
1204.068	5809
1206.366	5916
1208.663	5868
1210.957	5858
1213.251	5893
1215.544	5937
1217.836	5970
1220.128	6083
1222.421	5913
1224.712	5865
1227.002	5948
1229.292	5965
1231.581	6055
1233.871	6080
1236.159	6018
1238.446	6052
1240.732	6114
1243.018	6134
1245.304	6058
1247.59	6177
1249.874	6164
1252.156	6075
1254.439	6195
1256.721	6150
1259.005	6185
1261.286	6168
1263.565	6115
1265.845	6135
1268.125	6052
1270.403	6245
1272.682	6153
1274.959	6230
1277.234	6198
1279.511	6134
1281.787	6144
1284.062	6075
1286.337	6114
1288.609	6053
1290.882	6066
1293.153	6015
1295.428	6003
1297.698	6017
1299.969	6215
1302.237	6086
1304.507	5986
1306.777	6015
1309.044	6084
1311.312	6005
1313.578	6065
1315.844	6039
1318.109	6097
1320.375	5869
1322.638	6119
1324.903	6107
1327.165	6048
1329.427	6084
1331.69	6072
1333.952	6095
1336.212	5956
1338.471	6149
1340.73	6154
1342.988	5998
1345.248	6077
1347.505	6061
1349.763	6086
1352.019	6109
1354.274	5999
1356.53	6074
1358.784	6057
1361.038	5984
1363.291	6100
1365.543	5971
1367.797	6189
1370.048	6002
1372.296	6067
1374.546	5908
1376.796	6060
1379.045	6109
1381.295	6061
1383.542	6131
1385.787	6179
1388.034	6144
1390.28	6148
1392.527	6232
1394.772	6205
1397.014	6268
1399.258	6165
1401.501	6270
1403.741	6242
1405.985	6207
1408.226	6227
1410.465	6230
1412.705	6271
1414.943	6246
1417.184	6224
1419.42	6247
1421.658	6362
1423.894	6314
1426.13	6305
1428.366	6321
1430.602	6334
1432.835	6317
1435.069	6348
1437.301	6309
1439.535	6392
1441.767	6471
1443.997	6471
1446.229	6427
1448.458	6442
1450.687	6567
1452.916	6553
1455.146	6452
1457.372	6450
1459.599	6454
1461.824	6433
1464.051	6495
1466.277	6481
1468.501	6341
1470.725	6384
1472.948	6353
1475.17	6250
1477.393	6274
1479.614	6227
1481.837	6175
1484.057	6124
1486.276	6142
1488.497	6114
1490.715	6140
1492.932	6087
1495.148	6133
1497.364	6130
1499.58	6101
1501.798	6122
1504.012	6150
1506.227	6174
1508.44	6063
1510.653	6006
1512.866	6128
1515.078	5988
1517.289	5985
1519.5	6076
1521.711	6089
1523.92	6100
1526.13	6021
1528.338	6029
1530.544	6033
1532.752	6127
1534.959	6178
1537.165	6120
1539.371	6027
1541.574	6139
1543.779	6000
1545.983	6198
1548.187	6127
1550.39	6044
1552.59	6140
1554.792	6104
1556.991	6050
1559.19	6234
1561.392	6237
1563.59	6168
1565.789	6204
1567.986	6202
1570.182	6269
1572.381	6270
1574.576	6183
1576.771	6319
1578.966	6164
1581.16	6220
1583.354	6271
1585.546	6290
1587.74	6329
1589.931	6322
1592.121	6366
1594.311	6322
1596.502	6278
1598.693	6310
1600.881	6330
1603.069	6436
1605.256	6341
1607.445	6402
1609.631	6354
1611.816	6302
1614.001	6427
1616.186	6360
1618.37	6307
1620.555	6223
1622.737	6268
1624.919	6357
1627.101	6318
1629.282	6343
1631.463	6391
1633.643	6490
1635.822	6381
1638.001	6481
1640.179	6412
1642.359	6453
1644.534	6383
1646.711	6403
1648.887	6405
1651.062	6420
1653.235	6543
1655.412	6481
1657.586	6439
1659.757	6492
1661.93	6452
1664.1	6458
1666.274	6526
1668.445	6526
1670.614	6518
1672.784	6523
1674.951	6469
1677.12	6539
1679.289	6483
1681.457	6403
1683.622	6466
1685.789	6639
1687.953	6458
1690.121	6425
1692.284	6370
1694.447	6330
1696.611	6400
1698.772	6464
1700.935	6310
1703.098	6294
1705.258	6377
1707.417	6252
1709.576	6341
1711.736	6297
1713.896	6287
1716.053	6249
1718.21	6233
1720.366	6224
1722.522	6258
1724.68	6263
1726.835	6208
1728.989	6242
1731.142	6242
1733.295	6199
1735.449	6248
1737.601	6180
1739.753	6151
1741.903	6243
1744.054	6165
1746.203	6240
1748.354	6180
1750.503	6125
1752.651	6167
1754.798	6216
1756.944	6143
1759.092	6280
1761.238	6175
1763.383	6206
1765.528	6179
1767.672	6184
1769.814	6232
1771.959	6237
1774.102	6236
1776.242	6382
1778.384	6197
1780.525	6260
1782.665	6310
1784.805	6201
1786.945	6218
1789.082	6172
1791.22	6409
1793.36	6301
1795.495	6214
1797.632	6336
1799.766	6255
1801.902	6304
1804.035	6294
1806.172	6229
1808.304	6251
1810.436	6146
1812.569	6357
1814.699	6298
1816.833	6274
1818.963	6263
1821.092	6166
1823.222	6199
1825.35	6294
1827.478	6216
1829.608	6175
1831.734	6225
1833.86	6034
1835.986	6166
1838.11	6216
1840.238	6247
1842.362	6166
1844.485	6165
1846.608	6267
1848.73	6164
1850.853	6151
1852.974	6263
1855.097	6121
1857.217	6104
1859.336	6192
1861.455	6135
1863.576	6115
1865.693	6164
1867.811	6229
1869.926	6139
1872.042	6051
1874.16	6080
1876.275	6113
1878.39	6071
1880.504	6198
1882.618	6142
1884.731	6168
1886.843	6138
1888.956	6169
1891.067	6309
1893.178	6129
1895.287	6015
1897.399	6109
1899.508	6299
1901.617	6169
1903.724	6165
1905.832	6292
1907.941	6200
1910.046	6211
1912.152	6149
1914.256	6287
1916.361	6217
1918.464	6229
1920.57	6319
1922.672	6308
1924.775	6217
1926.876	6262
1928.978	6172
1931.08	6307
1933.181	6210
1935.28	6166
1937.38	6283
1939.478	6194
1941.577	6308
1943.675	6226
1945.771	6234
1947.867	6285
1949.964	6239
1952.058	6215
1954.154	6210
1956.248	6186
1958.343	6223
1960.435	6235
1962.527	6346
1964.62	6289
1966.711	6199
1968.802	6291
1970.892	6217
1972.983	6277
1975.072	6281
1977.162	6317
1979.25	6137
1981.337	6314
1983.424	6186
1985.51	6203
1987.598	6231
1989.683	6228
1991.768	6199
1993.852	6239
1995.934	6180
1998.019	6147
2000.102	6295
2002.184	6180
2004.266	6183
2006.347	6242
2008.427	6140
2010.508	6180
2012.587	6216
2014.666	6137
2016.745	6167
2018.821	6135
2020.9	6237
2022.977	6140
2025.052	6217
2027.128	6103
2029.204	6211
2031.277	6182
2033.353	6099
2035.425	6147
2037.499	6235
2039.57	6178
2041.642	6148
2043.714	6210
2045.786	6150
2047.855	6198
2049.925	6192
2051.993	6084
2054.064	6327
2056.132	6203
2058.2	6273
2060.266	6083
2062.332	6154
2064.398	6150
2066.465	6130
2068.529	6203
2070.592	6073
2072.657	6260
2074.719	6204
2076.783	6186
2078.845	6146
2080.907	6157
2082.968	6177
2085.028	6225
2087.087	6287
2089.148	6176
2091.207	6255
2093.264	6189
2095.322	6264
2097.379	6220
2099.439	6162
2101.495	6110
2103.55	6078
2105.605	6044
2107.658	6257
2109.713	6145
2111.767	6163
2113.82	6224
2115.872	6176
2117.924	6151
2119.975	6062
2122.028	6101
2124.078	6113
2126.126	6117
2128.176	6146
2130.225	6190
2132.275	6222
2134.321	6317
2136.368	6084
2138.415	6150
2140.461	6124
2142.505	6129
2144.552	6130
2146.597	6163
2148.64	6175
2150.684	6160
2152.725	6218
2154.77	6150
2156.811	6048
2158.852	6128
2160.894	6091
2162.933	6092
2164.973	6155
2167.013	6208
2169.051	6050
2171.089	6175
2173.126	6047
2175.164	6038
2177.201	6019
2179.236	6059
2181.273	6130
2183.307	5986
2185.341	6071
2187.377	6097
2189.41	6058
2191.442	6088
2193.473	5982
2195.506	6028
2197.539	5984
2199.569	6040
2201.598	5990
2203.628	5996
2205.656	6037
2207.686	5928
2209.716	6049
2211.743	5934
2213.769	5905
2215.796	5905
2217.821	5828
2219.848	6029
2221.873	5921
2223.897	5996
2225.921	6043
2227.944	5971
2229.967	6033
2231.991	5874
2234.011	6014
2236.032	6076
2238.053	5976
2240.073	5982
2242.094	5941
2244.114	6054
2246.131	5932
2248.149	6010
2250.167	5904
2252.186	5903
2254.201	5879
2256.218	5910
2258.233	5976
2260.247	5925
2262.262	5993
2264.278	6090
2266.29	5933
2268.303	5950
2270.315	5970
2272.327	5931
2274.341	5992
2276.35	6006
2278.361	6018
2280.37	6031
2282.38	6060
2284.388	5958
2286.397	5991
2288.405	5960
2290.412	5890
2292.419	6091
2294.425	5915
2296.431	5938
2298.437	5998
2300.441	6028
2302.445	6025
2304.449	5985
2306.453	5928
2308.455	5990
2310.457	5950
2312.459	6008
2314.46	5927
2316.46	5958
2318.461	5927
2320.46	5909
2322.458	5976
2324.458	5908
2326.456	5995
2328.455	5922
2330.451	5981
2332.447	5955
2334.443	5906
2336.438	5870
2338.433	5874
2340.429	5989
2342.422	5881
2344.416	5891
2346.408	5978
2348.399	6037
2350.393	5882
2352.384	5942
2354.375	5795
2356.365	5937
2358.355	5802
2360.344	5833
2362.333	5807
2364.322	5723
2366.309	5942
2368.295	5928
2370.282	5761
2372.27	5791
2374.256	5817
2376.24	5861
2378.225	5826
2380.208	5763
2382.194	5813
2384.177	5837
2386.159	5824
2388.142	5807
2390.122	5779
2392.105	5831
2394.085	5651
2396.066	5745
2398.044	5777
2400.024	5746
2402.002	5708
2403.982	5768
2405.959	5785
2407.935	5792
2409.913	5774
2411.888	5835
2413.865	5788
2415.84	5727
2417.814	5827
2419.788	5760
2421.762	5755
2423.735	5808
2425.708	5713
2427.68	5810
2429.651	5763
2431.623	5749
2433.593	5727
2435.564	5751
2437.533	5704
2439.502	5769
2441.47	5647
2443.438	5739
2445.406	5750
2447.373	5653
2449.34	5747
2451.305	5767
2453.271	5731
2455.235	5880
2457.201	5751
2459.165	5650
2461.129	5743
2463.092	5670
2465.054	5691
2467.018	5698
2468.978	5734
2470.939	5647
2472.899	5591
2474.86	5845
2476.819	5575
2478.778	5704
2480.737	5634
2482.695	5668
2484.653	5712
2486.609	5639
2488.567	5758
2490.524	5746
2492.478	5672
2494.433	5700
2496.387	5705
2498.343	5605
2500.297	5713
2502.249	5733
2504.202	5684
2506.153	5747
2508.105	5585
2510.057	5690
2512.008	5615
2513.957	5598
2515.906	5641
2517.855	5592
2519.805	5688
2521.754	5688
2523.7	5637
2525.647	5542
2527.594	5589
2529.54	5694
2531.486	5628
2533.431	5662
2535.376	5607
2537.32	5563
2539.263	5717
2541.207	5566
2543.151	5567
2545.093	5679
2547.034	5672
2548.975	5588
2550.917	5720
2552.856	5675
2554.796	5658
2556.735	5541
2558.673	5673
2560.611	5643
2562.55	5546
2564.487	5576
2566.424	5699
2568.36	5624
2570.296	5631
2572.232	5576
2574.167	5721
2576.101	5707
2578.035	5580
2579.969	5564
2581.902	5578
2583.834	5593
2585.766	5588
2587.698	5567
2589.628	5658
2591.557	5575
2593.489	5670
2595.419	5722
2597.348	5648
2599.275	5589
2601.204	5623
2603.131	5653
2605.059	5623
2606.986	5594
2608.911	5620
2610.837	5603
2612.76	5723
2614.687	5711
2616.61	5616
2618.534	5745
2620.457	5672
2622.38	5667
2624.302	5608
2626.225	5656
2628.145	5569
2630.067	5613
2631.986	5732
2633.906	5697
2635.827	5663
2637.745	5707
2639.662	5738
2641.581	5618
2643.498	5602
2645.415	5663
2647.331	5695
2649.248	5612
2651.163	5573
2653.077	5707
2654.993	5598
2656.906	5721
2658.821	5612
2660.733	5693
2662.646	5658
2664.557	5678
2666.47	5692
2668.381	5525
2670.291	5659
2672.201	5701
2674.11	5623
2676.021	5588
2677.929	5588
2679.837	5560
2681.745	5566
2683.652	5595
2685.56	5647
2687.466	5533
2689.371	5637
2691.276	5604
2693.181	5563
2695.085	5663
2696.991	5621
2698.893	5618
2700.796	5556
2702.698	5607
2704.601	5518
2706.502	5553
2708.404	5542
2710.304	5591
2712.203	5519
2714.103	5507
2716.003	5551
2717.902	5492
2719.8	5532
2721.697	5529
2723.594	5561
2725.49	5485
2727.389	5485
2729.283	5539
2731.179	5418
2733.073	5447
2734.968	5587
2736.863	5517
2738.757	5529
2740.649	5508
2742.541	5539
2744.433	5468
2746.324	5451
2748.216	5557
2750.107	5353
2751.997	5428
2753.886	5590
2755.776	5585
2757.666	5478
2759.553	5502
2761.44	5584
2763.327	5451
2765.215	5510
2767.102	5494
2768.988	5522
2770.873	5485
2772.757	5456
2774.641	5514
2776.525	5545
2778.41	5431
2780.292	5419
2782.175	5541
2784.057	5556
2785.938	5372
2787.821	5466
2789.701	5337
2791.581	5476
2793.461	5419
2795.34	5484
2797.219	5631
2799.099	5352
2800.975	5443
2802.853	5420
2804.73	5422
2806.606	5516
2808.484	5523
2810.358	5338
2812.233	5450
2814.108	5423
2815.981	5423
2817.857	5316
2819.73	5363
2821.602	5487
2823.474	5423
2825.346	5353
2827.217	5461
2829.089	5410
2830.959	5422
2832.829	5414
2834.698	5461
2836.567	5444
2838.436	5523
2840.305	5490
2842.172	5502
2844.04	5533
2845.905	5621
2847.772	5541
2849.639	5515
2851.503	5548
2853.369	5482
2855.232	5569
2857.096	5654
2858.961	5709
2860.824	5617
2862.686	5638
2864.547	5773
2866.41	5751
2868.272	5777
2870.132	5870
2871.992	5806
2873.851	5855
2875.711	5933
2877.57	6054
2879.429	5980
2881.287	6089
2883.144	6057
2885.001	6201
2886.857	6165
2888.714	6162
2890.57	5981
2892.425	6082
2894.279	6094
2896.133	6050
2897.987	6117
2899.842	6198
2901.694	6133
2903.547	6220
2905.397	6078
2907.249	6217
2909.101	6110
2910.952	6139
2912.802	6276
2914.652	6339
2916.5	6270
2918.35	6301
2920.198	6368
2922.045	6375
2923.893	6516
2925.74	6614
2927.585	6546
2929.433	6626
2931.279	6713
2933.123	6778
2934.968	6755
2936.811	6851
2938.656	6947
2940.5	6928
2942.342	7025
2944.185	7009
2946.026	7185
2947.87	7138
2949.71	7090
2951.549	6991
2953.39	6961
2955.229	6889
2957.069	6715
2958.908	6734
2960.746	6755
2962.584	6748
2964.421	6698
2966.257	6512
2968.094	6507
2969.931	6474
2971.766	6499
2973.601	6338
2975.435	6301
2977.27	6340
2979.105	6324
2980.938	6204
2982.77	6122
2984.602	6213
2986.434	6092
2988.267	6089
2990.097	6195
2991.927	5872
2993.757	5949
2995.587	5930
2997.417	5879
2999.246	5872
3001.074	5804
3002.902	5778
3004.729	5624
3006.556	5623
3008.384	5589
3010.21	5478
3012.036	5551
3013.861	5333
3015.684	5446
3017.51	5394
3019.334	5328
3021.157	5410
3022.981	5315
3024.802	5259
3026.624	5096
3028.448	5275
3030.267	5206
3032.088	5107
3033.909	5247
3035.728	5144
3037.549	5180
3039.368	5180
3041.186	5176
3043.004	5109
3044.821	5223
3046.64	5126
3048.455	5097
3050.272	5088
3052.087	5088
3053.903	5066
3055.717	5055
3057.534	5088
3059.347	5169
3061.16	5092
3062.974	5085
3064.785	5107
3066.598	5121
3068.411	5071
3070.222	5081
3072.032	4935
3073.844	5053
3075.653	5075
3077.463	5088
3079.272	5020
3081.08	5021
3082.889	5079
3084.697	4997
3086.505	5084
3088.312	5033
3090.118	4979
3091.924	5065
3093.729	4981
3095.535	4971
3097.34	4860
3099.144	5053
3100.947	4965
3102.75	4950
3104.553	4936
3106.357	4809
3108.159	4879
3109.961	4903
3111.762	4976
3113.562	4976
3115.365	4855
3117.164	4898
3118.964	4812
3120.761	4855
3122.56	4869
3124.36	4847
3126.158	4873
3127.954	4843
3129.75	4812
3131.547	4903
3133.343	4846
3135.139	4802
3136.934	4821
3138.729	4782
3140.522	4779
3142.317	4800
3144.11	4835
3145.904	4840
3147.695	4779
3149.488	4723
3151.28	4730
3153.07	4740
3154.863	4814
3156.652	4797
3158.441	4710
3160.231	4842
3162.019	4764
3163.81	4757
3165.597	4812
3167.384	4780
3169.172	4760
3170.958	4764
3172.745	4707
3174.532	4810
3176.317	4793
3178.101	4671
3179.885	4832
3181.67	4701
3183.455	4740
3185.238	4784
3187.02	4747
3188.802	4759
3190.585	4767
3192.368	4731
3194.149	4783
3195.929	4778
3197.709	4821
3199.489	4779
3201.268	4807
3203.048	4694
3204.826	4674
3206.604	4722
3208.382	4808
3210.159	4742
3211.937	4732
3213.713	4768
3215.489	4753
3217.263	4697
3219.038	4663
3220.815	4656
3222.589	4709
3224.363	4628
3226.136	4696
3227.908	4728
3229.681	4697
3231.454	4673
3233.226	4724
3234.996	4734
3236.767	4713
3238.538	4671
3240.308	4628
3242.078	4751
3243.847	4711
3245.615	4794
3247.384	4670
3249.15	4626
3250.92	4641
3252.686	4645
3254.453	4650
3256.218	4617
3257.984	4656
3259.75	4791
3261.515	4711
3263.279	4694
3265.044	4693
3266.806	4737
3268.57	4747
3270.334	4707
3272.095	4686
3273.856	4736
3275.619	4716
3277.379	4682
3279.14	4618
3280.9	4723
3282.661	4667
3284.419	4732
3286.178	4707
3287.937	4650
3289.695	4674
3291.453	4761
3293.21	4640
3294.967	4722
3296.723	4647
3298.48	4683
3300.235	4640
3301.99	4738
3303.744	4807
3305.498	4655
3307.253	4750
3309.006	4696
3310.759	4653
3312.511	4812
3314.263	4755
3316.017	4720
3317.768	4817
3319.519	4669
3321.268	4733
3323.018	4729
3324.767	4746
3326.518	4640
3328.267	4657
3330.014	4730
3331.762	4718
3333.509	4764
3335.258	4692
3337.003	4601
3338.75	4758
3340.496	4696
3342.24	4707
3343.987	4666
3345.732	4783
3347.475	4709
3349.219	4670
3350.961	4656
3352.705	4678
3354.448	4605
3356.19	4760
3357.931	4582
3359.672	4589
3361.412	4583
3363.155	4508
3364.894	4622
3366.633	4638
3368.372	4556
3370.11	4662
3371.849	4516
3373.588	4625
3375.325	4594
3377.061	4495
3378.799	4649
3380.534	4576
3382.271	4571
3384.006	4523
3385.741	4542
3387.475	4550
3389.209	4559
3390.944	4505
3392.677	4636
3394.409	4574
3396.143	4566
3397.874	4528
3399.606	4515
3401.338	4558
3403.069	4583
3404.799	4458
3406.528	4531
3408.258	4439
3409.988	4498
3411.717	4473
3413.445	4489
3415.173	4425
3416.899	4360
3418.626	4409
3420.354	4366
3422.08	4436
3423.806	4416
3425.531	4502
3427.255	4433
3428.981	4440
3430.705	4421
3432.429	4475
3434.151	4407
3435.875	4501
3437.599	4388
3439.321	4412
3441.042	4320
3442.763	4341
3444.483	4393
3446.204	4383
3447.926	4317
3449.645	4268
3451.364	4319
3453.082	4336
3454.801	4396
3456.52	4250
3458.238	4299
3459.954	4245
3461.671	4339
3463.387	4355
3465.104	4289
3466.82	4276
3468.534	4199
3470.25	4362
3471.963	4239
3473.676	4238
3475.392	4311
3477.104	4213
3478.817	4165
3480.528	4214
3482.241	4265
3483.954	4274
3485.664	4281
3487.374	4225
3489.084	4162
3490.795	4232
3492.504	4335
3494.214	4253
3495.922	4244
3497.63	4199
3499.338	4138
3501.045	4165
3502.753	4258
3504.459	4121
3506.166	4182
3507.871	4137
3509.576	4037
3511.283	4165
3512.987	4093
3514.691	4107
3516.395	4117
3518.098	4054
3519.8	4132
3521.504	4089
3523.206	4011
3524.908	4129
3526.609	4075
3528.309	4051
3530.011	4112
3531.711	4094
3533.411	4072
3535.109	4047
3536.808	4182
3538.507	4086
3540.206	4120
3541.904	4066
3543.601	4013
3545.297	4063
3546.994	4004
3548.69	4014
3550.387	4015
3552.081	4014
3553.776	3952
3555.47	4007
3557.166	3998
3558.859	4034
3560.553	4018
3562.245	3951
3563.938	4053
3565.629	4009
3567.322	3992
3569.014	3897
3570.704	3990
3572.394	3996
3574.084	3892
3575.775	3983
3577.464	3979
3579.152	4008
3580.842	3932
3582.529	3905
3584.216	3886
3585.905	3889
3587.591	3902
3589.279	3941
3590.964	3821
3592.649	3983
3594.336	3925
3596.021	3876
3597.705	3881
3599.388	3820
3601.072	3888
3602.757	3876
3604.439	3767
3606.122	3857
3607.803	3846
3609.485	3800
3611.167	3817
3612.849	3852
3614.529	3789
3616.208	3779
3617.888	3805
3619.567	3729
3621.247	3814
3622.926	3776
3624.603	3814
3626.281	3826
3627.958	3751
3629.635	3765
3631.312	3865
3632.989	3776
3634.665	3725
3636.339	3643
3638.014	3706
3639.691	3742
3641.364	3725
3643.038	3716
3644.71	3698
3646.384	3750
3648.058	3713
3649.729	3695
3651.402	3713
3653.073	3671
3654.744	3724
3656.414	3748
3658.085	3726
3659.755	3737
3661.424	3615
3663.094	3769
3664.762	3724
3666.431	3700
3668.099	3716
3669.766	3699
3671.433	3614
3673.099	3621
3674.768	3565
3676.433	3693
3678.098	3717
3679.763	3705
3681.428	3641
3683.093	3669
3684.757	3665
3686.421	3588
3688.083	3660
3689.746	3589
3691.408	3625
3693.071	3653
3694.733	3577
3696.394	3625
3698.054	3625
3699.715	3658
3701.375	3530
3703.036	3604
3704.695	3604
3706.354	3582
3708.012	3601
3709.67	3603
3711.329	3529
3712.987	3515
3714.644	3548
3716.299	3575
3717.955	3562
3719.613	3637
3721.268	3638
3722.923	3541
3724.577	3549
3726.231	3503
3727.885	3546
3729.539	3508
3731.192	3595
3732.845	3519
3734.497	3555
3736.149	3476
3737.802	3503
3739.453	3545
3741.104	3552
3742.753	3485
3744.404	3535
3746.052	3550
3747.704	3527
3749.352	3495
3751	3477
3752.648	3522
3754.296	3512
3755.944	3520
3757.59	3516
3759.238	3496
3760.883	3510
3762.528	3408
3764.176	3486
3765.82	3451
3767.464	3450
3769.109	3437
3770.753	3463
3772.396	3507
3774.04	3439
3775.683	3431
3777.325	3464
3778.967	3453
3780.608	3495
3782.25	3472
3783.89	3479
3785.531	3472
3787.17	3411
3788.81	3405
3790.45	3438
3792.09	3385
3793.729	3437
3795.366	3405
3797.003	3415
3798.64	3353
3800.278	3342
3801.915	3389
3803.551	3418
3805.187	3463
3806.822	3425
3808.458	3388
3810.093	3405
3811.726	3388
3813.36	3386
3814.994	3336
3816.627	3350
3818.262	3422
3819.893	3346
3821.525	3311
3823.157	3406
3824.787	3352
3826.42	3336
3828.051	3399
3829.68	3362
3831.31	3349
3832.938	3312
3834.569	3247
3836.198	3316
3837.825	3335
3839.454	3275
3841.08	3303
3842.708	3255
3844.335	3283
3845.962	3275
3847.587	3296
3849.212	3316
3850.838	3303
3852.463	3281
3854.089	3264
3855.712	3278
3857.335	3265
3858.959	3282
3860.582	3279
3862.205	3245
3863.827	3239
3865.449	3293
3867.07	3274
3868.691	3240
3870.312	3211
3871.933	3283
3873.553	3239
3875.173	3315
3876.792	3196
3878.411	3149
3880.03	3272
3881.647	3283
3883.265	3292
3884.882	3224
3886.499	3149
3888.116	3216
3889.732	3220
3891.348	3303
3892.964	3246
3894.579	3249
3896.195	3193
3897.809	3283
3899.423	3194
3901.036	3230
3902.648	3123
3904.261	3223
3905.875	3242
3907.487	3134
3909.099	3189
3910.709	3123
3912.321	3224
3913.933	3220
3915.542	3277
3917.152	3145
3918.762	3184
3920.37	3274
3921.98	3242
3923.589	3159
3925.196	3235
3926.804	3246
3928.41	3143
3930.018	3207
3931.626	3196
3933.231	3205
3934.838	3179
3936.442	3146
3938.046	3135
3939.653	3232
3941.257	3153
3942.861	3108
3944.464	3184
3946.068	3257
3947.67	3245
3949.273	3132
3950.876	3128
3952.477	3208
3954.078	3188
3955.678	3169
3957.281	3093
3958.881	3174
3960.48	3180
3962.079	3123
3963.678	3102
3965.279	3149
3966.877	3169
3968.475	3068
3970.072	3083
3971.669	3135
3973.266	3123
3974.864	3121
3976.459	3066
3978.055	3089
3979.65	3152
3981.245	3082
3982.841	3067
3984.436	3083
3986.03	3013
3987.623	3084
3989.216	3100
3990.809	3112
3992.403	3033
3993.995	3051
3995.586	3025
3997.177	3024
3998.768	3076
4000.361	3062
4001.951	3106
4003.54	3063
4005.13	3026
4006.719	2959
4008.31	2996
4009.897	2938
4011.485	2984
4013.073	3023
4014.66	3011
4016.247	3015
4017.834	3025
4019.421	3009
4021.006	3067
4022.592	2925
4024.178	2985
4025.763	3009
4027.348	2947
4028.932	3023
4030.515	2969
4032.099	2937
4033.682	2919
4035.266	2973
4036.847	2948
4038.429	2980
4040.011	2900
4041.592	2889
4043.173	2917
4044.755	2924
4046.334	2880
4047.913	2907
4049.494	2947
4051.074	2920
4052.652	2988
4054.23	2899
4055.807	2864
4057.385	2908
4058.963	2958
4060.541	2859
4062.117	2858
4063.693	2966
4065.269	2869
4066.844	2892
4068.42	2871
4069.995	2789
4071.569	2925
4073.143	2909
4074.716	2948
4076.291	2864
4077.864	2858
4079.436	2876
4081.009	2843
4082.58	2868
4084.152	2928
4085.723	2944
4087.294	2872
4088.865	2826
4090.435	2852
4092.005	2849
4093.574	2824
4095.143	2854
4096.712	2838
4098.279	2843
4099.848	2768
4101.416	2843
4102.984	2866
4104.55	2796
4106.117	2877
4107.682	2851
4109.248	2816
4110.815	2830
4112.379	2863
4113.945	2889
4115.508	2804
4117.073	2852
4118.637	2844
4120.201	2749
4121.763	2779
4123.325	2819
4124.888	2847
4126.449	2835
4128.013	2786
4129.573	2743
4131.133	2805
4132.694	2786
4134.254	2795
4135.814	2822
4137.374	2784
4138.933	2701
4140.491	2758
4142.049	2808
4143.607	2708
4145.167	2850
4146.724	2762
4148.28	2752
4149.836	2755
4151.392	2721
4152.949	2771
4154.504	2762
4156.059	2750
4157.614	2668
4159.168	2735
4160.723	2754
4162.277	2756
4163.83	2699
4165.383	2715
4166.936	2759
4168.488	2718
4170.041	2666
4171.593	2639
4173.144	2736
4174.695	2649
4176.246	2687
4177.796	2657
4179.346	2695
4180.896	2722
4182.445	2718
4183.994	2673
4185.542	2633
4187.091	2684
4188.639	2643
4190.185	2651
4191.732	2672
4193.279	2647
4194.826	2621
4196.373	2635
4197.918	2619
4199.463	2700
4201.008	2673
4202.553	2633
4204.098	2615
4205.641	2601
4207.185	2661
4208.728	2664
4210.271	2582
4211.814	2633
4213.357	2576
4214.898	2646
4216.439	2660
4217.98	2621
4219.522	2602
4221.062	2549
4222.603	2593
4224.142	2693
4225.681	2606
4227.222	2586
4228.76	2644
4230.298	2590
4231.835	2630
4233.373	2585
4234.911	2633
4236.449	2560
4237.985	2547
4239.521	2609
4241.057	2588
4242.592	2596
4244.128	2623
4245.663	2563
4247.197	2533
4248.731	2599
4250.265	2568
4251.798	2599
4253.333	2557
4254.865	2552
4256.397	2592
4257.93	2547
4259.461	2580
4260.994	2500
4262.525	2486
4264.056	2522
4265.586	2546
4267.115	2560
4268.646	2638
4270.176	2514
4271.705	2553
4273.232	2506
4274.761	2523
4276.289	2550
4277.818	2571
4279.345	2522
4280.872	2562
4282.399	2559
4283.924	2561
4285.452	2470
4286.976	2459
4288.502	2495
4290.026	2522
4291.551	2544
4293.074	2531
4294.6	2547
4296.123	2445
4297.646	2496
4299.168	2496
4300.691	2533
4302.214	2530
4303.736	2431
4305.257	2462
4306.778	2523
4308.299	2472
4309.82	2452
4311.34	2499
4312.86	2459
4314.379	2465
