400.0745	4651
402.597	4582
405.1208	4664
407.6419	4672
410.1623	4694
412.6819	4737
415.201	4681
417.7172	4712
420.2369	4784
422.7538	4791
425.2701	4934
427.7856	4794
430.3005	4874
432.8147	4854
435.3282	4900
437.841	4913
440.3511	4946
442.8625	4860
445.3753	4980
447.8854	4980
450.3927	5009
452.9014	4912
455.4073	5010
457.9146	4974
460.4233	5038
462.9272	4962
465.4325	5025
467.935	5000
470.4389	4901
472.9421	4925
475.4446	5020
477.9444	5022
480.4456	4980
482.944	5089
485.4417	5163
487.9429	5046
490.4393	5106
492.935	5091
495.4321	5117
497.9264	5212
500.4221	5104
502.9171	5238
505.4094	5245
507.9011	5177
510.392	5134
512.8864	5203
515.3759	5225
517.8649	5121
520.3531	5076
522.8406	5099
525.3275	5259
527.8178	5272
530.3033	5235
532.7881	5213
535.2723	5269
537.7558	5178
540.2407	5268
542.7228	5192
545.2043	5181
547.6851	5297
550.1652	5186
552.6467	5294
555.1255	5221
557.6016	5227
560.079	5224
562.5557	5254
565.0318	5292
567.5092	5376
569.984	5349
572.456	5343
574.9294	5329
577.4022	5401
579.8762	5379
582.3456	5413
584.8163	5434
587.2863	5346
589.7557	5504
592.2224	5503
594.6924	5473
597.1578	5514
599.6245	5420
602.0905	5393
604.5538	5510
607.0206	5404
609.4825	5431
611.9459	5457
614.4066	5460
616.8686	5442
619.33	5469
621.7906	5422
624.2487	5434
626.708	5492
629.1647	5345
631.6207	5346
634.0801	5381
636.5348	5505
638.9888	5368
641.4442	5472
643.8969	5356
646.3509	5464
648.8022	5371
651.255	5436
653.705	5491
656.1544	5587
658.6031	5469
661.0532	5589
663.5026	5638
665.9493	5599
668.3954	5551
670.8409	5640
673.2877	5568
675.7318	5512
678.1752	5533
680.618	5716
683.0601	5713
685.5035	5708
687.9444	5723
690.3845	5739
692.824	5671
695.2628	5748
697.701	5609
700.1406	5787
702.5774	5655
705.0116	5706
707.4472	5707
709.8821	5660
712.3183	5664
714.7519	5647
717.1829	5727
719.6151	5700
722.0468	5754
724.4777	5840
726.908	5772
729.3377	5697
731.7667	5824
734.1931	5755
736.6208	5805
739.0498	5874
741.4742	5940
743.9	5893
746.3231	5823
748.7476	5873
751.1713	6044
753.5945	6070
756.015	6046
758.4368	5993
760.856	6044
763.2766	5919
765.6965	6010
768.1157	5994
770.5323	6044
772.9483	6175
775.3656	5979
777.7822	6033
780.1963	6044
782.6116	6023
785.0244	6079
787.4365	6151
789.8499	6024
792.2626	6044
794.6728	6130
797.0823	6111
799.4911	6105
801.8994	5967
804.3109	6046
806.7178	6016
809.124	6191
811.5297	6096
813.9347	6083
816.341	6167
818.7447	6107
821.1478	6156
823.5502	6137
825.952	6176
828.3531	6159
830.7556	6114
833.1554	6245
835.5546	6215
837.9532	6123
840.3511	6154
842.7504	6218
845.1451	6158
847.5411	6172
849.9365	6126
852.3312	6174
854.7272	6248
857.1187	6402
859.5115	6217
861.9037	6144
864.2952	6219
866.6842	6133
869.0764	6178
871.4661	6141
873.8531	6170
876.2415	6169
878.6272	6230
881.0162	6155
883.4026	6177
885.7866	6250
888.1717	6261
890.5543	6161
892.9382	6220
895.3215	6219
897.7041	6136
900.0842	6276
902.4655	6031
904.8443	6222
907.2244	6252
909.6039	6238
911.9808	6133
914.357	6285
916.7346	6240
919.1115	6337
921.4859	6358
923.8616	6412
926.2347	6293
928.6071	6358
930.979	6472
933.3541	6372
935.7247	6394
938.0946	6396
940.4639	6517
942.8326	6465
945.2026	6630
947.5701	6566
949.9369	6682
952.305	6766
954.6705	6941
957.0355	6902
959.4017	7270
961.7654	7304
964.1284	7276
966.4908	7123
968.8527	6991
971.2138	6916
973.5743	6699
975.9343	6557
978.2936	6578
980.6522	6504
983.0122	6398
985.3696	6430
987.7245	6389
990.0807	6467
992.4362	6375
994.7911	6531
997.1474	6382
999.4991	6472
1001.852	6453
1004.205	6387
1006.555	6286
1008.908	6524
1011.258	6448
1013.606	6401
1015.956	6441
1018.302	6372
1020.652	6483
1022.998	6484
1025.345	6383
1027.691	6381
1030.035	6432
1032.378	6423
1034.724	6516
1037.066	6491
1039.409	6511
1041.75	6509
1044.092	6481
1046.433	6438
1048.771	6517
1051.112	6525
1053.449	6419
1055.786	6623
1058.124	6499
1060.462	6550
1062.797	6528
1065.131	6570
1067.467	6707
1069.8	6667
1072.135	6611
1074.467	6677
1076.798	6624
1079.129	6611
1081.459	6625
1083.792	6638
1086.121	6661
1088.449	6568
1090.777	6563
1093.104	6535
1095.431	6642
1097.759	6547
1100.084	6682
1102.408	6539
1104.732	6683
1107.056	6612
1109.379	6551
1111.701	6637
1114.022	6545
1116.343	6623
1118.664	6623
1120.983	6577
1123.303	6569
1125.621	6462
1127.939	6765
1130.256	6630
1132.573	6702
1134.889	6667
1137.205	6712
1139.52	6592
1141.832	6626
1144.146	6576
1146.461	6604
1148.771	6478
1151.083	6637
1153.392	6671
1155.703	6676
1158.011	6602
1160.323	6580
1162.629	6700
1164.938	6677
1167.243	6677
1169.55	6725
1171.857	6666
1174.163	6646
1176.466	6564
1178.769	6525
1181.073	6659
1183.374	6609
1185.677	6698
1187.979	6590
1190.279	6695
1192.578	6583
1194.878	6718
1197.178	6664
1199.476	6690
1201.772	6643
1204.068	6653
1206.366	6620
1208.663	6612
1210.957	6697
1213.251	6649
1215.544	6612
1217.836	6618
1220.128	6734
1222.421	6631
1224.712	6742
1227.002	6819
1229.292	6618
1231.581	6757
1233.871	6753
1236.159	6770
1238.446	6805
1240.732	6775
1243.018	6815
1245.304	6833
1247.59	6768
1249.874	6797
1252.156	6831
1254.439	6886
1256.721	6852
1259.005	6977
1261.286	6773
1263.565	6921
1265.845	6842
1268.125	6851
1270.403	6843
1272.682	6800
1274.959	6928
1277.234	6929
1279.511	6754
1281.787	6763
1284.062	6744
1286.337	6894
1288.609	6787
1290.882	6825
1293.153	6740
1295.428	6827
1297.698	6903
1299.969	6778
1302.237	6798
1304.507	6683
1306.777	6631
1309.044	6771
1311.312	6619
1313.578	6706
1315.844	6744
1318.109	6775
1320.375	6645
1322.638	6643
1324.903	6784
1327.165	6751
1329.427	6704
1331.69	6760
1333.952	6821
1336.212	6692
1338.471	6726
1340.73	6832
1342.988	6672
1345.248	6851
1347.505	6627
1349.763	6835
1352.019	6823
1354.274	6699
1356.53	6721
1358.784	6705
1361.038	6742
1363.291	6884
1365.543	6687
1367.797	6807
1370.048	6782
1372.296	6785
1374.546	6749
1376.796	6739
1379.045	6845
1381.295	6762
1383.542	6923
1385.787	6818
1388.034	6881
1390.28	6794
1392.527	6844
1394.772	6833
1397.014	6826
1399.258	6750
1401.501	6840
1403.741	6760
1405.985	6862
1408.226	6814
1410.465	6852
1412.705	6822
1414.943	6862
1417.184	6853
1419.42	6877
1421.658	6954
1423.894	6913
1426.13	6844
1428.366	6900
1430.602	6795
1432.835	6907
1435.069	6863
1437.301	6940
1439.535	6922
1441.767	7181
1443.997	6987
1446.229	6895
1448.458	6927
1450.687	6955
1452.916	7009
1455.146	7048
1457.372	7107
1459.599	6945
1461.824	6947
1464.051	7002
1466.277	7043
1468.501	6999
1470.725	6862
1472.948	6948
1475.17	6844
1477.393	6872
1479.614	6980
1481.837	7010
1484.057	6895
1486.276	6982
1488.497	6880
1490.715	6910
1492.932	6818
1495.148	6724
1497.364	6840
1499.58	6761
1501.798	6780
1504.012	6637
1506.227	6815
1508.44	6712
1510.653	6787
1512.866	6731
1515.078	6753
1517.289	6774
1519.5	6742
1521.711	6736
1523.92	6762
1526.13	6837
1528.338	6739
1530.544	6664
1532.752	6719
1534.959	6694
1537.165	6777
1539.371	6827
1541.574	6679
1543.779	6842
1545.983	6794
1548.187	6767
1550.39	6702
1552.59	6846
1554.792	6765
1556.991	6871
1559.19	6902
1561.392	6857
1563.59	6741
1565.789	6839
1567.986	6875
1570.182	6989
1572.381	6864
1574.576	6884
1576.771	6845
1578.966	6919
1581.16	6977
1583.354	6886
1585.546	6847
1587.74	7043
1589.931	6959
1592.121	7085
1594.311	6865
1596.502	6914
1598.693	6855
1600.881	7024
1603.069	7100
1605.256	7024
1607.445	7035
1609.631	6944
1611.816	6951
1614.001	6959
1616.186	6990
1618.37	6915
1620.555	7144
1622.737	6926
1624.919	6948
1627.101	6919
1629.282	7065
1631.463	6997
1633.643	6950
1635.822	7036
1638.001	7017
1640.179	6987
1642.359	7055
1644.534	6995
1646.711	7074
1648.887	7002
1651.062	7059
1653.235	7082
1655.412	7032
1657.586	6895
1659.757	7105
1661.93	7022
1664.1	7092
1666.274	7070
1668.445	6984
1670.614	7187
1672.784	7119
1674.951	6960
1677.12	7111
1679.289	7048
1681.457	7064
1683.622	7080
1685.789	7104
1687.953	7070
1690.121	7059
1692.284	7015
1694.447	7100
1696.611	7076
1698.772	7030
1700.935	6965
1703.098	7055
1705.258	6976
1707.417	7008
1709.576	7072
1711.736	6950
1713.896	6924
1716.053	6886
1718.21	6919
1720.366	7031
1722.522	6944
1724.68	7004
1726.835	7016
1728.989	7001
1731.142	6897
1733.295	6938
1735.449	6915
1737.601	6979
1739.753	6876
1741.903	6976
1744.054	7017
1746.203	6968
1748.354	6990
1750.503	6977
1752.651	6953
1754.798	7050
1756.944	6998
1759.092	7023
1761.238	7092
1763.383	6978
1765.528	7041
1767.672	7065
1769.814	6926
1771.959	7161
1774.102	6933
1776.242	7100
1778.384	7053
1780.525	6947
1782.665	6986
1784.805	7064
1786.945	6962
1789.082	7042
1791.22	7032
1793.36	7137
1795.495	7005
1797.632	7075
1799.766	7129
1801.902	7026
1804.035	6927
1806.172	7004
1808.304	7075
1810.436	6984
1812.569	7064
1814.699	7067
1816.833	6984
1818.963	6976
1821.092	7026
1823.222	7057
1825.35	6971
1827.478	6866
1829.608	6932
1831.734	6909
1833.86	6983
1835.986	7000
1838.11	6928
1840.238	6996
1842.362	6915
1844.485	6906
1846.608	6889
1848.73	6912
1850.853	6824
1852.974	6952
1855.097	6795
1857.217	6900
1859.336	7086
1861.455	6961
1863.576	6911
1865.693	6812
1867.811	6832
1869.926	6957
1872.042	7009
1874.16	6938
1876.275	6944
1878.39	6920
1880.504	6971
1882.618	6913
1884.731	7081
1886.843	6905
1888.956	6909
1891.067	6891
1893.178	6926
1895.287	6985
1897.399	7031
1899.508	7005
1901.617	6951
1903.724	6945
1905.832	6954
1907.941	7011
1910.046	7065
1912.152	6964
1914.256	6991
1916.361	6968
1918.464	6957
1920.57	7045
1922.672	6949
1924.775	6981
1926.876	6980
1928.978	7104
1931.08	6955
1933.181	7059
1935.28	6944
1937.38	7022
1939.478	6972
1941.577	7047
1943.675	7059
1945.771	6925
1947.867	7062
1949.964	7040
1952.058	7052
1954.154	6970
1956.248	7094
1958.343	7002
1960.435	6930
1962.527	7130
1964.62	6902
1966.711	6998
1968.802	7045
1970.892	7060
1972.983	7087
1975.072	6920
1977.162	7026
1979.25	6944
1981.337	6962
1983.424	6872
1985.51	7073
1987.598	7059
1989.683	6992
1991.768	6933
1993.852	7074
1995.934	7010
1998.019	7052
2000.102	6912
2002.184	6924
2004.266	6980
2006.347	6937
2008.427	6838
2010.508	6982
2012.587	7050
2014.666	6884
2016.745	6875
2018.821	7040
2020.9	7012
2022.977	6930
2025.052	6977
2027.128	6933
2029.204	6912
2031.277	7000
2033.353	6955
2035.425	6827
2037.499	6960
2039.57	6914
2041.642	6998
2043.714	6888
2045.786	6824
2047.855	6940
2049.925	7022
2051.993	7000
2054.064	6991
2056.132	6977
2058.2	6845
2060.266	6896
2062.332	6995
2064.398	6906
2066.465	6979
2068.529	6888
2070.592	6943
2072.657	6852
2074.719	6974
2076.783	6903
2078.845	6936
2080.907	6792
2082.968	6935
2085.028	6872
2087.087	6963
2089.148	6889
2091.207	7020
2093.264	6943
2095.322	6913
2097.379	6967
2099.439	6855
2101.495	6929
2103.55	6841
2105.605	6933
2107.658	6863
2109.713	6799
2111.767	6810
2113.82	6974
2115.872	6958
2117.924	6850
2119.975	6919
2122.028	6904
2124.078	6938
2126.126	6849
2128.176	6879
2130.225	6846
2132.275	6853
2134.321	6865
2136.368	6803
2138.415	6889
2140.461	6966
2142.505	6839
2144.552	6945
2146.597	6749
2148.64	6926
2150.684	6873
2152.725	6868
2154.77	6858
2156.811	6903
2158.852	6904
2160.894	6809
2162.933	6890
2164.973	6853
2167.013	6785
2169.051	6832
2171.089	6764
2173.126	6795
2175.164	6796
2177.201	6798
2179.236	6692
2181.273	6741
2183.307	6720
2185.341	6733
2187.377	6738
2189.41	6787
2191.442	6829
2193.473	6790
2195.506	6834
2197.539	6819
2199.569	6804
2201.598	6714
2203.628	6705
2205.656	6708
2207.686	6586
2209.716	6884
2211.743	6718
2213.769	6565
2215.796	6678
2217.821	6703
2219.848	6707
2221.873	6785
2223.897	6648
2225.921	6637
2227.944	6756
2229.967	6714
2231.991	6650
2234.011	6667
2236.032	6703
2238.053	6602
2240.073	6748
2242.094	6626
2244.114	6719
2246.131	6708
2248.149	6647
2250.167	6647
2252.186	6661
2254.201	6667
2256.218	6655
2258.233	6615
2260.247	6638
2262.262	6645
2264.278	6600
2266.29	6672
2268.303	6603
2270.315	6673
2272.327	6707
2274.341	6654
2276.35	6645
2278.361	6709
2280.37	6588
2282.38	6603
2284.388	6722
2286.397	6690
2288.405	6674
2290.412	6607
2292.419	6563
2294.425	6618
2296.431	6616
2298.437	6671
2300.441	6744
2302.445	6582
2304.449	6641
2306.453	6649
2308.455	6629
2310.457	6618
2312.459	6709
2314.46	6633
2316.46	6428
2318.461	6538
2320.46	6553
2322.458	6557
2324.458	6518
2326.456	6635
2328.455	6627
2330.451	6634
2332.447	6560
2334.443	6530
2336.438	6563
2338.433	6538
2340.429	6506
2342.422	6543
2344.416	6560
2346.408	6506
2348.399	6509
2350.393	6517
2352.384	6445
2354.375	6487
2356.365	6495
2358.355	6517
2360.344	6495
2362.333	6496
2364.322	6564
2366.309	6552
2368.295	6459
2370.282	6457
2372.27	6506
2374.256	6450
2376.24	6467
2378.225	6435
2380.208	6383
2382.194	6339
2384.177	6391
2386.159	6478
2388.142	6392
2390.122	6455
2392.105	6495
2394.085	6335
2396.066	6477
2398.044	6382
2400.024	6363
2402.002	6234
2403.982	6499
2405.959	6294
2407.935	6458
2409.913	6384
2411.888	6392
2413.865	6308
2415.84	6338
2417.814	6335
2419.788	6294
2421.762	6301
2423.735	6344
2425.708	6364
2427.68	6380
2429.651	6422
2431.623	6443
2433.593	6276
2435.564	6362
2437.533	6284
2439.502	6271
2441.47	6377
2443.438	6399
2445.406	6334
2447.373	6332
2449.34	6417
2451.305	6302
2453.271	6294
2455.235	6411
2457.201	6387
2459.165	6339
2461.129	6341
2463.092	6273
2465.054	6296
2467.018	6310
2468.978	6247
2470.939	6176
2472.899	6202
2474.86	6305
2476.819	6204
2478.778	6176
2480.737	6316
2482.695	6245
2484.653	6150
2486.609	6246
2488.567	6321
2490.524	6176
2492.478	6245
2494.433	6182
2496.387	6317
2498.343	6267
2500.297	6214
2502.249	6157
2504.202	6229
2506.153	6377
2508.105	6289
2510.057	6206
2512.008	6183
2513.957	6279
2515.906	6145
2517.855	6180
2519.805	6218
2521.754	6251
2523.7	6294
2525.647	6175
2527.594	6263
2529.54	6317
2531.486	6133
2533.431	6168
2535.376	6186
2537.32	6042
2539.263	6183
2541.207	6127
2543.151	6204
2545.093	6215
2547.034	6130
2548.975	6147
2550.917	6199
2552.856	6091
2554.796	6230
2556.735	6230
2558.673	6181
2560.611	6085
2562.55	6147
2564.487	6264
2566.424	6163
2568.36	6218
2570.296	6179
2572.232	6175
2574.167	6108
2576.101	6182
2578.035	6103
2579.969	6255
2581.902	6208
2583.834	6089
2585.766	6166
2587.698	6249
2589.628	6160
2591.557	6059
2593.489	6193
2595.419	6012
2597.348	6208
2599.275	6177
2601.204	6144
2603.131	6268
2605.059	6154
2606.986	6196
2608.911	6052
2610.837	6098
2612.76	6116
2614.687	6007
2616.61	6172
2618.534	6134
2620.457	6186
2622.38	6187
2624.302	6196
2626.225	6152
2628.145	6238
2630.067	6175
2631.986	6194
2633.906	6193
2635.827	6192
2637.745	6208
2639.662	6136
2641.581	6149
2643.498	6193
2645.415	6147
2647.331	6174
2649.248	6099
2651.163	6242
2653.077	6173
2654.993	6016
2656.906	6176
2658.821	6157
2660.733	6198
2662.646	6188
2664.557	6046
2666.47	6083
2668.381	6149
2670.291	6069
2672.201	6101
2674.11	6149
2676.021	6112
2677.929	6172
2679.837	6172
2681.745	6075
2683.652	6133
2685.56	6093
2687.466	6068
2689.371	6064
2691.276	6127
2693.181	5947
2695.085	6056
2696.991	6173
2698.893	5997
2700.796	6142
2702.698	6047
2704.601	6019
2706.502	6050
2708.404	5936
2710.304	5974
2712.203	6022
2714.103	6008
2716.003	5956
2717.902	6121
2719.8	5934
2721.697	6017
2723.594	5942
2725.49	6015
2727.389	6048
2729.283	5937
2731.179	6121
2733.073	6000
2734.968	6071
2736.863	5959
2738.757	5989
2740.649	5853
2742.541	5998
2744.433	5940
2746.324	5905
2748.216	5882
2750.107	5906
2751.997	5929
2753.886	5889
2755.776	5892
2757.666	5887
2759.553	5828
2761.44	5857
2763.327	5809
2765.215	6011
2767.102	5911
2768.988	5872
2770.873	5899
2772.757	5828
2774.641	5921
2776.525	5953
2778.41	5886
2780.292	5859
2782.175	5862
2784.057	5858
2785.938	5892
2787.821	5901
2789.701	5816
2791.581	5927
2793.461	5973
2795.34	5901
2797.219	5897
2799.099	5879
2800.975	5938
2802.853	5863
2804.73	5902
2806.606	5916
2808.484	5950
2810.358	5823
2812.233	5939
2814.108	5818
2815.981	5815
2817.857	5704
2819.73	5862
2821.602	5826
2823.474	5777
2825.346	5793
2827.217	5929
2829.089	5839
2830.959	5872
2832.829	5716
2834.698	5786
2836.567	5742
2838.436	5724
2840.305	5719
2842.172	5722
2844.04	5820
2845.905	5859
2847.772	5753
2849.639	5784
2851.503	5818
2853.369	5721
2855.232	5880
2857.096	5731
2858.961	5808
2860.824	5749
2862.686	5861
2864.547	5842
2866.41	5877
2868.272	5864
2870.132	5908
2871.992	5889
2873.851	5823
2875.711	5873
2877.57	5991
2879.429	5934
2881.287	5929
2883.144	6056
2885.001	6035
2886.857	5953
2888.714	5831
2890.57	5934
2892.425	5918
2894.279	5881
2896.133	5998
2897.987	5885
2899.842	5916
2901.694	6058
2903.547	5975
2905.397	5886
2907.249	5999
2909.101	5900
2910.952	5950
2912.802	5933
2914.652	6060
2916.5	5978
2918.35	6032
2920.198	6145
2922.045	5941
2923.893	6039
2925.74	6103
2927.585	6193
2929.433	6127
2931.279	6154
2933.123	6260
2934.968	6264
2936.811	6291
2938.656	6253
2940.5	6227
2942.342	6320
2944.185	6273
2946.026	6256
2947.87	6253
2949.71	6367
2951.549	6281
2953.39	6326
2955.229	6183
2957.069	6253
2958.908	6225
2960.746	6111
2962.584	6075
2964.421	6082
2966.257	6086
2968.094	6094
2969.931	5980
2971.766	5894
2973.601	6010
2975.435	5974
2977.27	5984
2979.105	5777
2980.938	5989
2982.77	5968
2984.602	5921
2986.434	5740
2988.267	5939
2990.097	5810
2991.927	5823
2993.757	5810
2995.587	5864
2997.417	5732
2999.246	5695
3001.074	5736
3002.902	5711
3004.729	5652
3006.556	5724
3008.384	5565
3010.21	5656
3012.036	5689
3013.861	5573
3015.684	5587
3017.51	5560
3019.334	5487
3021.157	5438
3022.981	5546
3024.802	5519
3026.624	5504
3028.448	5428
3030.267	5416
3032.088	5458
3033.909	5411
3035.728	5436
3037.549	5422
3039.368	5389
3041.186	5483
3043.004	5393
3044.821	5531
3046.64	5348
3048.455	5337
3050.272	5405
3052.087	5310
3053.903	5403
3055.717	5360
3057.534	5326
3059.347	5330
3061.16	5318
3062.974	5314
3064.785	5420
3066.598	5293
3068.411	5351
3070.222	5373
3072.032	5296
3073.844	5411
3075.653	5367
3077.463	5292
3079.272	5296
3081.08	5396
3082.889	5268
3084.697	5110
3086.505	5151
3088.312	5220
3090.118	5291
3091.924	5233
3093.729	5219
3095.535	5202
3097.34	5195
3099.144	5244
3100.947	5245
3102.75	5208
3104.553	5146
3106.357	5145
3108.159	5164
3109.961	5215
3111.762	5006
3113.562	5147
3115.365	5081
3117.164	5155
3118.964	5082
3120.761	5052
3122.56	5277
3124.36	5110
3126.158	5123
3127.954	5155
3129.75	5049
3131.547	5211
3133.343	5122
3135.139	5106
3136.934	5097
3138.729	5076
3140.522	5066
3142.317	5076
3144.11	5112
3145.904	4999
3147.695	5115
3149.488	5109
3151.28	5046
3153.07	4976
3154.863	5006
3156.652	5002
3158.441	5047
3160.231	4955
3162.019	5007
3163.81	4998
3165.597	5029
3167.384	4985
3169.172	5026
3170.958	4986
3172.745	5082
3174.532	5031
3176.317	4973
3178.101	4991
3179.885	5051
3181.67	4999
3183.455	4991
3185.238	5013
3187.02	4969
3188.802	5010
3190.585	4855
3192.368	4904
3194.149	4977
3195.929	4984
3197.709	4968
3199.489	4909
3201.268	5049
3203.048	4826
3204.826	4933
3206.604	4960
3208.382	4994
3210.159	4894
3211.937	4932
3213.713	4872
3215.489	4890
3217.263	4954
3219.038	4980
3220.815	4995
3222.589	4966
3224.363	4896
3226.136	4982
3227.908	4950
3229.681	4854
3231.454	4895
3233.226	4968
3234.996	4862
3236.767	4889
3238.538	4900
3240.308	4978
3242.078	4922
3243.847	4888
3245.615	4904
3247.384	4848
3249.15	4890
3250.92	4897
3252.686	4891
3254.453	4880
3256.218	4886
3257.984	4787
3259.75	4882
3261.515	4853
3263.279	4857
3265.044	4867
3266.806	4850
3268.57	4809
3270.334	4784
3272.095	4851
3273.856	4821
3275.619	4792
3277.379	4888
3279.14	4821
3280.9	4833
3282.661	4797
3284.419	4879
3286.178	4907
3287.937	4847
3289.695	4860
3291.453	4853
3293.21	4908
3294.967	4949
3296.723	4817
3298.48	4830
3300.235	4869
3301.99	4875
3303.744	4793
3305.498	4783
3307.253	4809
3309.006	4883
3310.759	4880
3312.511	4728
3314.263	4900
3316.017	4822
3317.768	4850
3319.519	4762
3321.268	4864
3323.018	4828
3324.767	4787
3326.518	4825
3328.267	4764
3330.014	4864
3331.762	4800
3333.509	4811
3335.258	4803
3337.003	4768
3338.75	4781
3340.496	4785
3342.24	4797
3343.987	4747
3345.732	4740
3347.475	4714
3349.219	4709
3350.961	4694
3352.705	4666
3354.448	4729
3356.19	4806
3357.931	4690
3359.672	4646
3361.412	4696
3363.155	4723
3364.894	4717
3366.633	4691
3368.372	4670
3370.11	4652
3371.849	4684
3373.588	4675
3375.325	4667
3377.061	4687
3378.799	4592
3380.534	4689
3382.271	4678
3384.006	4623
3385.741	4656
3387.475	4641
3389.209	4674
3390.944	4663
3392.677	4632
3394.409	4668
3396.143	4609
3397.874	4662
3399.606	4596
3401.338	4660
3403.069	4589
3404.799	4628
3406.528	4632
3408.258	4609
3409.988	4632
3411.717	4549
3413.445	4560
3415.173	4581
3416.899	4611
3418.626	4534
3420.354	4590
3422.08	4542
3423.806	4567
3425.531	4571
3427.255	4598
3428.981	4610
3430.705	4635
3432.429	4545
3434.151	4521
3435.875	4509
3437.599	4508
3439.321	4512
3441.042	4534
3442.763	4542
3444.483	4485
3446.204	4523
3447.926	4583
3449.645	4461
3451.364	4478
3453.082	4538
3454.801	4498
3456.52	4487
3458.238	4424
3459.954	4459
3461.671	4485
3463.387	4462
3465.104	4513
3466.82	4425
3468.534	4414
3470.25	4429
3471.963	4446
3473.676	4376
3475.392	4290
3477.104	4434
3478.817	4375
3480.528	4378
3482.241	4338
3483.954	4324
3485.664	4371
3487.374	4318
3489.084	4307
3490.795	4414
3492.504	4342
3494.214	4326
3495.922	4335
3497.63	4261
3499.338	4358
3501.045	4350
3502.753	4345
3504.459	4325
3506.166	4319
3507.871	4324
3509.576	4297
3511.283	4421
3512.987	4321
3514.691	4329
3516.395	4201
3518.098	4298
3519.8	4270
3521.504	4238
3523.206	4363
3524.908	4277
3526.609	4344
3528.309	4245
3530.011	4240
3531.711	4278
3533.411	4198
3535.109	4247
3536.808	4233
3538.507	4211
3540.206	4209
3541.904	4269
3543.601	4205
3545.297	4146
3546.994	4234
3548.69	4085
3550.387	4224
3552.081	4173
3553.776	4150
3555.47	4282
3557.166	4241
3558.859	4140
3560.553	4260
3562.245	4182
3563.938	4227
3565.629	4180
3567.322	4121
3569.014	4190
3570.704	4165
3572.394	4144
3574.084	4170
3575.775	4090
3577.464	4140
3579.152	4173
3580.842	4132
3582.529	4133
3584.216	4167
3585.905	4019
3587.591	4118
3589.279	4141
3590.964	4131
3592.649	4180
3594.336	4167
3596.021	4103
3597.705	4049
3599.388	3988
3601.072	4000
3602.757	4045
3604.439	4064
3606.122	4029
3607.803	4050
3609.485	4017
3611.167	4045
3612.849	3995
3614.529	4027
3616.208	4037
3617.888	3970
3619.567	4012
3621.247	4028
3622.926	3925
3624.603	3951
3626.281	4045
3627.958	3934
3629.635	4006
3631.312	4060
3632.989	3968
3634.665	3933
3636.339	4004
3638.014	3933
3639.691	3941
3641.364	3956
3643.038	3965
3644.71	3864
3646.384	3954
3648.058	3882
3649.729	4005
3651.402	3962
3653.073	3909
3654.744	3904
3656.414	3897
3658.085	3828
3659.755	3853
3661.424	3931
3663.094	3836
3664.762	3941
3666.431	3875
3668.099	3900
3669.766	3868
3671.433	3822
3673.099	3954
3674.768	3844
3676.433	3769
3678.098	3838
3679.763	3892
3681.428	3893
3683.093	3837
3684.757	3894
3686.421	3823
3688.083	3808
3689.746	3887
3691.408	3873
3693.071	3807
3694.733	3841
3696.394	3729
3698.054	3776
3699.715	3828
3701.375	3785
3703.036	3908
3704.695	3838
3706.354	3843
3708.012	3827
3709.67	3811
3711.329	3817
3712.987	3733
3714.644	3841
3716.299	3868
3717.955	3727
3719.613	3758
3721.268	3850
3722.923	3806
3724.577	3715
3726.231	3827
3727.885	3761
3729.539	3793
3731.192	3732
3732.845	3730
3734.497	3754
3736.149	3715
3737.802	3751
3739.453	3750
3741.104	3717
3742.753	3771
3744.404	3787
3746.052	3738
3747.704	3773
3749.352	3757
3751	3640
3752.648	3694
3754.296	3615
3755.944	3713
3757.59	3648
3759.238	3644
3760.883	3701
3762.528	3697
3764.176	3688
3765.82	3778
3767.464	3709
3769.109	3685
3770.753	3654
3772.396	3709
3774.04	3690
3775.683	3697
3777.325	3705
3778.967	3678
3780.608	3695
3782.25	3611
3783.89	3579
3785.531	3670
3787.17	3686
3788.81	3621
3790.45	3611
3792.09	3518
3793.729	3637
3795.366	3698
3797.003	3622
3798.64	3608
3800.278	3680
3801.915	3584
3803.551	3593
3805.187	3483
3806.822	3607
3808.458	3610
3810.093	3613
3811.726	3560
3813.36	3617
3814.994	3534
3816.627	3512
3818.262	3523
3819.893	3534
3821.525	3518
3823.157	3508
3824.787	3571
3826.42	3503
3828.051	3511
3829.68	3524
3831.31	3555
3832.938	3514
3834.569	3508
3836.198	3491
3837.825	3479
3839.454	3502
3841.08	3540
3842.708	3569
3844.335	3484
3845.962	3466
3847.587	3512
3849.212	3497
3850.838	3460
3852.463	3459
3854.089	3477
3855.712	3471
3857.335	3535
3858.959	3539
3860.582	3451
3862.205	3437
3863.827	3464
3865.449	3486
3867.07	3440
3868.691	3498
3870.312	3522
3871.933	3401
3873.553	3367
3875.173	3417
3876.792	3399
3878.411	3432
3880.03	3426
3881.647	3404
3883.265	3442
3884.882	3465
3886.499	3436
3888.116	3530
3889.732	3419
3891.348	3451
3892.964	3507
3894.579	3459
3896.195	3397
3897.809	3442
3899.423	3392
3901.036	3417
3902.648	3434
3904.261	3425
3905.875	3389
3907.487	3344
3909.099	3380
3910.709	3380
3912.321	3478
3913.933	3359
3915.542	3401
3917.152	3391
3918.762	3439
3920.37	3301
3921.98	3306
3923.589	3382
3925.196	3319
3926.804	3310
3928.41	3319
3930.018	3330
3931.626	3380
3933.231	3406
3934.838	3395
3936.442	3383
3938.046	3413
3939.653	3321
3941.257	3311
3942.861	3390
3944.464	3337
3946.068	3353
3947.67	3304
3949.273	3316
3950.876	3330
3952.477	3358
3954.078	3366
3955.678	3327
3957.281	3308
3958.881	3286
3960.48	3300
3962.079	3285
3963.678	3283
3965.279	3263
3966.877	3218
3968.475	3290
3970.072	3211
3971.669	3310
3973.266	3290
3974.864	3418
3976.459	3278
3978.055	3204
3979.65	3245
3981.245	3272
3982.841	3217
3984.436	3226
3986.03	3186
3987.623	3283
3989.216	3276
3990.809	3301
3992.403	3146
3993.995	3194
3995.586	3190
3997.177	3201
3998.768	3143
4000.361	3177
4001.951	3211
4003.54	3148
4005.13	3182
4006.719	3193
4008.31	3256
4009.897	3139
4011.485	3195
4013.073	3176
4014.66	3161
4016.247	3122
4017.834	3156
4019.421	3109
4021.006	3176
4022.592	3185
4024.178	3062
4025.763	3134
4027.348	3144
4028.932	3176
4030.515	3087
4032.099	3182
4033.682	3083
4035.266	3106
4036.847	3131
4038.429	3053
4040.011	3083
4041.592	3126
4043.173	3047
4044.755	3168
4046.334	3058
4047.913	3036
4049.494	3092
4051.074	3000
4052.652	3045
4054.23	3070
4055.807	3118
4057.385	3037
4058.963	3058
4060.541	3124
4062.117	3062
4063.693	3024
4065.269	3057
4066.844	2988
4068.42	3050
4069.995	3122
4071.569	2989
4073.143	2959
4074.716	2991
4076.291	3035
4077.864	3015
4079.436	3026
4081.009	3003
4082.58	2980
4084.152	2998
4085.723	3001
4087.294	3057
4088.865	2974
4090.435	2954
4092.005	3007
4093.574	2916
4095.143	2967
4096.712	2988
4098.279	3049
4099.848	2950
4101.416	3049
4102.984	2879
4104.55	3050
4106.117	2927
4107.682	2953
4109.248	3037
4110.815	3016
4112.379	2938
4113.945	2946
4115.508	2965
4117.073	2946
4118.637	2925
4120.201	3010
4121.763	2916
4123.325	2973
4124.888	2943
4126.449	2988
4128.013	2869
4129.573	2976
4131.133	2900
4132.694	2987
4134.254	2881
4135.814	2949
4137.374	2873
4138.933	2810
4140.491	2930
4142.049	2855
4143.607	2844
4145.167	2913
4146.724	2880
4148.28	2891
4149.836	2826
4151.392	2842
4152.949	2875
4154.504	2850
4156.059	2820
4157.614	2874
4159.168	2897
4160.723	2818
4162.277	2793
4163.83	2853
4165.383	2861
4166.936	2781
4168.488	2821
4170.041	2805
4171.593	2815
4173.144	2832
4174.695	2737
4176.246	2815
4177.796	2766
4179.346	2734
4180.896	2795
4182.445	2792
4183.994	2844
4185.542	2795
4187.091	2703
4188.639	2743
4190.185	2793
4191.732	2783
4193.279	2765
4194.826	2733
4196.373	2716
4197.918	2793
4199.463	2782
4201.008	2753
4202.553	2751
4204.098	2725
4205.641	2741
4207.185	2734
4208.728	2764
4210.271	2728
4211.814	2753
4213.357	2709
4214.898	2718
4216.439	2694
4217.98	2747
4219.522	2690
4221.062	2719
4222.603	2724
4224.142	2716
4225.681	2743
4227.222	2761
4228.76	2693
4230.298	2688
4231.835	2625
4233.373	2755
4234.911	2757
4236.449	2763
4237.985	2733
4239.521	2648
4241.057	2667
4242.592	2660
4244.128	2730
4245.663	2725
4247.197	2734
4248.731	2667
4250.265	2651
4251.798	2710
4253.333	2663
4254.865	2623
4256.397	2710
4257.93	2651
4259.461	2722
4260.994	2690
4262.525	2708
4264.056	2674
4265.586	2628
4267.115	2641
4268.646	2654
4270.176	2664
4271.705	2624
4273.232	2619
4274.761	2678
4276.289	2656
4277.818	2668
4279.345	2652
4280.872	2622
4282.399	2643
4283.924	2630
4285.452	2561
4286.976	2623
4288.502	2619
4290.026	2641
4291.551	2548
4293.074	2564
4294.6	2615
4296.123	2605
4297.646	2582
4299.168	2666
4300.691	2627
4302.214	2644
4303.736	2500
4305.257	2579
4306.778	2625
4308.299	2608
4309.82	2554
4311.34	2561
4312.86	2564
4314.379	2551
