400.0745	3642
402.597	3525
405.1208	3552
407.6419	3562
410.1623	3651
412.6819	3665
415.201	3548
417.7172	3672
420.2369	3728
422.7538	3727
425.2701	3641
427.7856	3819
430.3005	3709
432.8147	3732
435.3282	3740
437.841	3921
440.3511	3839
442.8625	3826
445.3753	3874
447.8854	3856
450.3927	3794
452.9014	3720
455.4073	3713
457.9146	3863
460.4233	3837
462.9272	3809
465.4325	3801
467.935	3793
470.4389	3776
472.9421	3838
475.4446	3871
477.9444	3836
480.4456	3840
482.944	3873
485.4417	3993
487.9429	3839
490.4393	3866
492.935	3893
495.4321	3883
497.9264	3890
500.4221	3895
502.9171	3947
505.4094	3970
507.9011	3891
510.392	3918
512.8864	4019
515.3759	3917
517.8649	3985
520.3531	3959
522.8406	4085
525.3275	4050
527.8178	3992
530.3033	3977
532.7881	3972
535.2723	3918
537.7558	3927
540.2407	3950
542.7228	4002
545.2043	3992
547.6851	3916
550.1652	4024
552.6467	4068
555.1255	4000
557.6016	3954
560.079	4064
562.5557	4021
565.0318	4028
567.5092	4085
569.984	4125
572.456	4045
574.9294	4094
577.4022	4159
579.8762	4107
582.3456	4182
584.8163	4179
587.2863	4072
589.7557	4083
592.2224	4167
594.6924	4138
597.1578	4231
599.6245	4081
602.0905	4197
604.5538	4205
607.0206	4104
609.4825	4103
611.9459	4120
614.4066	4127
616.8686	4179
619.33	4122
621.7906	4119
624.2487	4168
626.708	4122
629.1647	4093
631.6207	4069
634.0801	4139
636.5348	4100
638.9888	4200
641.4442	4145
643.8969	4085
646.3509	4103
648.8022	4189
651.255	4186
653.705	4095
656.1544	4267
658.6031	4228
661.0532	4176
663.5026	4248
665.9493	4194
668.3954	4187
670.8409	4307
673.2877	4242
675.7318	4228
678.1752	4221
680.618	4389
683.0601	4173
685.5035	4236
687.9444	4353
690.3845	4266
692.824	4213
695.2628	4374
697.701	4271
700.1406	4317
702.5774	4259
705.0116	4348
707.4472	4267
709.8821	4333
712.3183	4348
714.7519	4358
717.1829	4420
719.6151	4321
722.0468	4427
724.4777	4379
726.908	4457
729.3377	4389
731.7667	4439
734.1931	4400
736.6208	4630
739.0498	4468
741.4742	4353
743.9	4553
746.3231	4486
748.7476	4493
751.1713	4525
753.5945	4529
756.015	4529
758.4368	4489
760.856	4596
763.2766	4583
765.6965	4654
768.1157	4630
770.5323	4563
772.9483	4535
775.3656	4554
777.7822	4542
780.1963	4600
782.6116	4583
785.0244	4474
787.4365	4672
789.8499	4493
792.2626	4483
794.6728	4582
797.0823	4535
799.4911	4650
801.8994	4574
804.3109	4623
806.7178	4679
809.124	4485
811.5297	4562
813.9347	4630
816.341	4624
818.7447	4664
821.1478	4728
823.5502	4660
825.952	4587
828.3531	4572
830.7556	4523
833.1554	4737
835.5546	4563
837.9532	4693
840.3511	4688
842.7504	4697
845.1451	4716
847.5411	4702
849.9365	4790
852.3312	4741
854.7272	4728
857.1187	4694
859.5115	4770
861.9037	4691
864.2952	4710
866.6842	4685
869.0764	4701
871.4661	4763
873.8531	4703
876.2415	4754
878.6272	4721
881.0162	4732
883.4026	4697
885.7866	4732
888.1717	4713
890.5543	4701
892.9382	4720
895.3215	4752
897.7041	4665
900.0842	4711
902.4655	4695
904.8443	4700
907.2244	4718
909.6039	4772
911.9808	4800
914.357	4841
916.7346	4838
919.1115	4865
921.4859	4802
923.8616	4950
926.2347	4978
928.6071	4924
930.979	4969
933.3541	5020
935.7247	4807
938.0946	4976
940.4639	4990
942.8326	4952
945.2026	5030
947.5701	5002
949.9369	5075
952.305	5146
954.6705	5305
957.0355	5353
959.4017	5454
961.7654	5676
964.1284	5516
966.4908	5492
968.8527	5346
971.2138	5227
973.5743	5126
975.9343	5038
978.2936	4998
980.6522	4869
983.0122	4933
985.3696	4890
987.7245	4931
990.0807	4851
992.4362	4913
994.7911	4849
997.1474	4942
999.4991	4869
1001.852	4960
1004.205	4953
1006.555	4805
1008.908	4917
1011.258	4910
1013.606	4857
1015.956	4881
1018.302	4872
1020.652	4880
1022.998	4886
1025.345	4942
1027.691	4889
1030.035	4956
1032.378	4856
1034.724	4888
1037.066	5001
1039.409	4935
1041.75	4923
1044.092	4946
1046.433	4908
1048.771	4849
1051.112	4979
1053.449	4834
1055.786	5015
1058.124	4942
1060.462	5045
1062.797	4938
1065.131	5053
1067.467	4961
1069.8	5024
1072.135	5062
1074.467	4975
1076.798	5076
1079.129	4988
1081.459	5024
1083.792	5037
1086.121	4994
1088.449	4987
1090.777	4938
1093.104	4956
1095.431	5114
1097.759	4950
1100.084	5029
1102.408	5005
1104.732	5006
1107.056	4966
1109.379	5078
1111.701	4987
1114.022	4907
1116.343	5041
1118.664	4987
1120.983	5030
1123.303	5063
1125.621	5021
1127.939	5058
1130.256	5019
1132.573	5071
1134.889	5125
1137.205	5045
1139.52	4994
1141.832	5006
1144.146	5000
1146.461	4960
1148.771	5072
1151.083	4977
1153.392	5076
1155.703	5039
1158.011	5095
1160.323	5082
1162.629	5189
1164.938	4967
1167.243	5003
1169.55	4960
1171.857	4985
1174.163	4974
1176.466	4977
1178.769	4956
1181.073	5090
1183.374	5068
1185.677	4978
1187.979	5005
1190.279	4996
1192.578	5032
1194.878	5047
1197.178	5048
1199.476	5011
1201.772	5147
1204.068	4983
1206.366	4929
1208.663	4999
1210.957	5078
1213.251	5043
1215.544	5041
1217.836	5084
1220.128	5042
1222.421	5055
1224.712	5148
1227.002	5092
1229.292	5196
1231.581	5068
1233.871	5068
1236.159	5329
1238.446	5227
1240.732	5194
1243.018	5184
1245.304	5197
1247.59	5280
1249.874	5250
1252.156	5287
1254.439	5292
1256.721	5189
1259.005	5219
1261.286	5198
1263.565	5226
1265.845	5289
1268.125	5264
1270.403	5162
1272.682	5190
1274.959	5166
1277.234	5279
1279.511	5225
1281.787	5219
1284.062	5196
1286.337	5168
1288.609	5227
1290.882	5138
1293.153	5228
1295.428	5257
1297.698	5177
1299.969	5150
1302.237	5144
1304.507	5051
1306.777	5127
1309.044	5129
1311.312	5175
1313.578	5041
1315.844	5155
1318.109	5152
1320.375	5104
1322.638	5069
1324.903	5177
1327.165	5071
1329.427	5100
1331.69	5233
1333.952	5200
1336.212	5152
1338.471	5266
1340.73	5158
1342.988	5196
1345.248	5243
1347.505	5144
1349.763	5161
1352.019	5128
1354.274	5185
1356.53	5134
1358.784	5176
1361.038	5217
1363.291	5099
1365.543	5082
1367.797	5241
1370.048	5198
1372.296	5177
1374.546	5125
1376.796	5197
1379.045	5235
1381.295	5155
1383.542	5214
1385.787	5175
1388.034	5216
1390.28	5188
1392.527	5191
1394.772	5245
1397.014	5279
1399.258	5250
1401.501	5334
1403.741	5306
1405.985	5331
1408.226	5288
1410.465	5225
1412.705	5335
1414.943	5244
1417.184	5252
1419.42	5342
1421.658	5237
1423.894	5333
1426.13	5276
1428.366	5290
1430.602	5240
1432.835	5145
1435.069	5386
1437.301	5249
1439.535	5301
1441.767	5377
1443.997	5398
1446.229	5399
1448.458	5303
1450.687	5411
1452.916	5453
1455.146	5434
1457.372	5443
1459.599	5401
1461.824	5410
1464.051	5388
1466.277	5344
1468.501	5385
1470.725	5296
1472.948	5271
1475.17	5307
1477.393	5229
1479.614	5261
1481.837	5198
1484.057	5183
1486.276	5183
1488.497	5177
1490.715	5160
1492.932	5156
1495.148	5154
1497.364	5067
1499.58	5036
1501.798	5082
1504.012	5127
1506.227	5208
1508.44	5058
1510.653	5091
1512.866	5210
1515.078	5113
1517.289	5181
1519.5	5050
1521.711	5153
1523.92	5133
1526.13	5016
1528.338	5204
1530.544	5207
1532.752	5107
1534.959	5115
1537.165	5034
1539.371	5191
1541.574	5161
1543.779	5018
1545.983	5154
1548.187	5208
1550.39	5216
1552.59	5142
1554.792	5202
1556.991	5178
1559.19	5168
1561.392	5239
1563.59	5224
1565.789	5190
1567.986	5228
1570.182	5254
1572.381	5244
1574.576	5287
1576.771	5315
1578.966	5327
1581.16	5228
1583.354	5237
1585.546	5232
1587.74	5279
1589.931	5288
1592.121	5167
1594.311	5245
1596.502	5234
1598.693	5289
1600.881	5265
1603.069	5291
1605.256	5219
1607.445	5329
1609.631	5404
1611.816	5242
1614.001	5308
1616.186	5231
1618.37	5291
1620.555	5333
1622.737	5267
1624.919	5281
1627.101	5246
1629.282	5302
1631.463	5366
1633.643	5283
1635.822	5438
1638.001	5393
1640.179	5375
1642.359	5316
1644.534	5258
1646.711	5296
1648.887	5223
1651.062	5380
1653.235	5374
1655.412	5440
1657.586	5346
1659.757	5484
1661.93	5392
1664.1	5472
1666.274	5392
1668.445	5372
1670.614	5368
1672.784	5329
1674.951	5443
1677.12	5345
1679.289	5432
1681.457	5399
1683.622	5496
1685.789	5429
1687.953	5330
1690.121	5479
1692.284	5358
1694.447	5438
1696.611	5416
1698.772	5265
1700.935	5332
1703.098	5212
1705.258	5219
1707.417	5207
1709.576	5211
1711.736	5337
1713.896	5217
1716.053	5318
1718.21	5377
1720.366	5296
1722.522	5235
1724.68	5299
1726.835	5235
1728.989	5283
1731.142	5320
1733.295	5243
1735.449	5276
1737.601	5256
1739.753	5272
1741.903	5232
1744.054	5285
1746.203	5296
1748.354	5171
1750.503	5241
1752.651	5250
1754.798	5240
1756.944	5278
1759.092	5241
1761.238	5220
1763.383	5234
1765.528	5358
1767.672	5264
1769.814	5229
1771.959	5329
1774.102	5333
1776.242	5280
1778.384	5323
1780.525	5236
1782.665	5283
1784.805	5349
1786.945	5308
1789.082	5280
1791.22	5402
1793.36	5309
1795.495	5347
1797.632	5308
1799.766	5345
1801.902	5359
1804.035	5312
1806.172	5365
1808.304	5285
1810.436	5332
1812.569	5188
1814.699	5358
1816.833	5274
1818.963	5255
1821.092	5317
1823.222	5265
1825.35	5386
1827.478	5212
1829.608	5300
1831.734	5256
1833.86	5197
1835.986	5262
1838.11	5229
1840.238	5327
1842.362	5335
1844.485	5225
1846.608	5230
1848.73	5256
1850.853	5294
1852.974	5257
1855.097	5212
1857.217	5278
1859.336	5193
1861.455	5282
1863.576	5164
1865.693	5218
1867.811	5130
1869.926	5286
1872.042	5273
1874.16	5233
1876.275	5251
1878.39	5207
1880.504	5260
1882.618	5216
1884.731	5279
1886.843	5320
1888.956	5186
1891.067	5285
1893.178	5350
1895.287	5227
1897.399	5285
1899.508	5302
1901.617	5230
1903.724	5250
1905.832	5314
1907.941	5303
1910.046	5269
1912.152	5258
1914.256	5352
1916.361	5256
1918.464	5386
1920.57	5240
1922.672	5255
1924.775	5428
1926.876	5215
1928.978	5413
1931.08	5288
1933.181	5289
1935.28	5251
1937.38	5344
1939.478	5298
1941.577	5364
1943.675	5444
1945.771	5304
1947.867	5383
1949.964	5286
1952.058	5305
1954.154	5295
1956.248	5216
1958.343	5353
1960.435	5377
1962.527	5305
1964.62	5301
1966.711	5248
1968.802	5337
1970.892	5301
1972.983	5310
1975.072	5151
1977.162	5178
1979.25	5351
1981.337	5373
1983.424	5197
1985.51	5266
1987.598	5310
1989.683	5266
1991.768	5243
1993.852	5241
1995.934	5264
1998.019	5281
2000.102	5356
2002.184	5284
2004.266	5190
2006.347	5238
2008.427	5195
2010.508	5272
2012.587	5347
2014.666	5234
2016.745	5322
2018.821	5230
2020.9	5261
2022.977	5286
2025.052	5164
2027.128	5152
2029.204	5278
2031.277	5188
2033.353	5243
2035.425	5245
2037.499	5162
2039.57	5297
2041.642	5132
2043.714	5295
2045.786	5367
2047.855	5210
2049.925	5221
2051.993	5187
2054.064	5266
2056.132	5302
2058.2	5282
2060.266	5237
2062.332	5303
2064.398	5241
2066.465	5229
2068.529	5209
2070.592	5251
2072.657	5246
2074.719	5318
2076.783	5236
2078.845	5341
2080.907	5325
2082.968	5242
2085.028	5288
2087.087	5226
2089.148	5182
2091.207	5346
2093.264	5152
2095.322	5278
2097.379	5266
2099.439	5319
2101.495	5175
2103.55	5258
2105.605	5253
2107.658	5340
2109.713	5284
2111.767	5258
2113.82	5251
2115.872	5284
2117.924	5324
2119.975	5166
2122.028	5281
2124.078	5178
2126.126	5285
2128.176	5207
2130.225	5187
2132.275	5256
2134.321	5243
2136.368	5208
2138.415	5152
2140.461	5239
2142.505	5352
2144.552	5179
2146.597	5219
2148.64	5176
2150.684	5191
2152.725	5163
2154.77	5232
2156.811	5332
2158.852	5189
2160.894	5229
2162.933	5194
2164.973	5169
2167.013	5215
2169.051	5221
2171.089	5215
2173.126	5155
2175.164	5181
2177.201	5239
2179.236	5150
2181.273	5146
2183.307	5142
2185.341	5097
2187.377	5199
2189.41	5128
2191.442	5049
2193.473	5212
2195.506	5141
2197.539	5185
2199.569	5102
2201.598	5129
2203.628	5089
2205.656	5155
2207.686	5034
2209.716	5073
2211.743	5115
2213.769	5014
2215.796	5039
2217.821	5054
2219.848	5164
2221.873	5083
2223.897	5072
2225.921	5159
2227.944	5019
2229.967	5062
2231.991	5119
2234.011	5195
2236.032	5029
2238.053	5047
2240.073	5042
2242.094	5096
2244.114	5040
2246.131	5011
2248.149	5102
2250.167	5164
2252.186	5016
2254.201	5027
2256.218	5157
2258.233	5116
2260.247	5098
2262.262	5166
2264.278	5033
2266.29	5117
2268.303	5146
2270.315	5008
2272.327	5091
2274.341	5156
2276.35	5072
2278.361	5127
2280.37	5053
2282.38	5054
2284.388	5071
2286.397	5086
2288.405	5145
2290.412	5071
2292.419	5085
2294.425	5047
2296.431	4987
2298.437	5184
2300.441	5032
2302.445	5168
2304.449	5043
2306.453	5163
2308.455	4991
2310.457	4998
2312.459	5096
2314.46	4961
2316.46	5064
2318.461	5033
2320.46	4962
2322.458	5045
2324.458	4999
2326.456	5086
2328.455	5042
2330.451	5037
2332.447	4917
2334.443	5051
2336.438	5024
2338.433	5036
2340.429	5026
2342.422	4982
2344.416	5076
2346.408	5036
2348.399	5054
2350.393	4839
2352.384	5005
2354.375	4970
2356.365	5025
2358.355	4887
2360.344	4951
2362.333	4917
2364.322	4985
2366.309	4906
2368.295	4897
2370.282	4964
2372.27	4963
2374.256	4814
2376.24	4985
2378.225	4937
2380.208	4956
2382.194	4985
2384.177	4917
2386.159	4913
2388.142	4863
2390.122	4892
2392.105	4944
2394.085	4826
2396.066	4904
2398.044	4881
2400.024	4910
2402.002	4865
2403.982	4894
2405.959	4906
2407.935	4870
2409.913	4935
2411.888	4877
2413.865	4860
2415.84	4822
2417.814	4846
2419.788	4901
2421.762	4817
2423.735	4805
2425.708	4936
2427.68	4867
2429.651	4972
2431.623	4983
2433.593	4874
2435.564	4861
2437.533	4800
2439.502	4903
2441.47	4861
2443.438	4993
2445.406	4955
2447.373	4901
2449.34	4824
2451.305	4847
2453.271	4863
2455.235	4938
2457.201	4799
2459.165	4982
2461.129	4838
2463.092	4774
2465.054	4849
2467.018	4848
2468.978	4897
2470.939	4848
2472.899	4897
2474.86	4908
2476.819	4921
2478.778	4885
2480.737	4889
2482.695	4770
2484.653	4874
2486.609	4760
2488.567	4828
2490.524	4800
2492.478	4783
2494.433	4761
2496.387	4751
2498.343	4893
2500.297	4748
2502.249	4810
2504.202	4904
2506.153	4893
2508.105	4869
2510.057	4759
2512.008	4763
2513.957	4809
2515.906	4747
2517.855	4753
2519.805	4832
2521.754	4805
2523.7	4669
2525.647	4787
2527.594	4840
2529.54	4846
2531.486	4715
2533.431	4779
2535.376	4827
2537.32	4774
2539.263	4744
2541.207	4743
2543.151	4925
2545.093	4776
2547.034	4790
2548.975	4716
2550.917	4813
2552.856	4771
2554.796	4762
2556.735	4757
2558.673	4739
2560.611	4698
2562.55	4828
2564.487	4785
2566.424	4737
2568.36	4808
2570.296	4717
2572.232	4777
2574.167	4761
2576.101	4769
2578.035	4663
2579.969	4764
2581.902	4741
2583.834	4694
2585.766	4737
2587.698	4704
2589.628	4750
2591.557	4711
2593.489	4778
2595.419	4826
2597.348	4749
2599.275	4803
2601.204	4728
2603.131	4822
2605.059	4648
2606.986	4768
2608.911	4674
2610.837	4755
2612.76	4771
2614.687	4815
2616.61	4761
2618.534	4738
2620.457	4732
2622.38	4770
2624.302	4670
2626.225	4776
2628.145	4781
2630.067	4824
2631.986	4769
2633.906	4794
2635.827	4779
2637.745	4777
2639.662	4730
2641.581	4764
2643.498	4708
2645.415	4829
2647.331	4700
2649.248	4845
2651.163	4662
2653.077	4766
2654.993	4723
2656.906	4729
2658.821	4788
2660.733	4799
2662.646	4810
2664.557	4756
2666.47	4642
2668.381	4780
2670.291	4690
2672.201	4640
2674.11	4771
2676.021	4598
2677.929	4725
2679.837	4789
2681.745	4688
2683.652	4654
2685.56	4657
2687.466	4659
2689.371	4725
2691.276	4728
2693.181	4713
2695.085	4710
2696.991	4674
2698.893	4751
2700.796	4712
2702.698	4773
2704.601	4683
2706.502	4578
2708.404	4575
2710.304	4691
2712.203	4693
2714.103	4517
2716.003	4690
2717.902	4689
2719.8	4671
2721.697	4666
2723.594	4664
2725.49	4720
2727.389	4635
2729.283	4605
2731.179	4623
2733.073	4619
2734.968	4604
2736.863	4589
2738.757	4631
2740.649	4682
2742.541	4583
2744.433	4520
2746.324	4665
2748.216	4650
2750.107	4579
2751.997	4544
2753.886	4649
2755.776	4570
2757.666	4564
2759.553	4616
2761.44	4625
2763.327	4599
2765.215	4614
2767.102	4601
2768.988	4641
2770.873	4686
2772.757	4669
2774.641	4579
2776.525	4637
2778.41	4517
2780.292	4576
2782.175	4582
2784.057	4603
2785.938	4531
2787.821	4594
2789.701	4580
2791.581	4599
2793.461	4595
2795.34	4645
2797.219	4560
2799.099	4593
2800.975	4548
2802.853	4586
2804.73	4522
2806.606	4521
2808.484	4568
2810.358	4583
2812.233	4591
2814.108	4471
2815.981	4477
2817.857	4651
2819.73	4495
2821.602	4596
2823.474	4552
2825.346	4603
2827.217	4538
2829.089	4503
2830.959	4556
2832.829	4514
2834.698	4543
2836.567	4582
2838.436	4594
2840.305	4522
2842.172	4576
2844.04	4573
2845.905	4559
2847.772	4575
2849.639	4509
2851.503	4630
2853.369	4579
2855.232	4638
2857.096	4607
2858.961	4639
2860.824	4605
2862.686	4635
2864.547	4587
2866.41	4707
2868.272	4668
2870.132	4735
2871.992	4745
2873.851	4800
2875.711	4841
2877.57	4780
2879.429	4921
2881.287	4901
2883.144	4963
2885.001	4874
2886.857	4858
2888.714	4864
2890.57	4868
2892.425	4913
2894.279	4971
2896.133	4913
2897.987	4933
2899.842	4940
2901.694	5007
2903.547	4843
2905.397	4894
2907.249	4947
2909.101	4920
2910.952	4964
2912.802	4898
2914.652	4996
2916.5	4955
2918.35	5001
2920.198	4969
2922.045	4963
2923.893	5132
2925.74	5101
2927.585	5180
2929.433	5214
2931.279	5216
2933.123	5237
2934.968	5262
2936.811	5393
2938.656	5296
2940.5	5297
2942.342	5376
2944.185	5385
2946.026	5446
2947.87	5403
2949.71	5374
2951.549	5361
2953.39	5488
2955.229	5331
2957.069	5313
2958.908	5200
2960.746	5179
2962.584	5253
2964.421	5209
2966.257	5130
2968.094	5095
2969.931	5002
2971.766	5057
2973.601	5037
2975.435	4958
2977.27	4835
2979.105	4977
2980.938	4853
2982.77	4917
2984.602	4920
2986.434	4881
2988.267	4835
2990.097	4789
2991.927	4754
2993.757	4775
2995.587	4700
2997.417	4718
2999.246	4701
3001.074	4619
3002.902	4618
3004.729	4555
3006.556	4518
3008.384	4599
3010.21	4418
3012.036	4510
3013.861	4404
3015.684	4346
3017.51	4331
3019.334	4427
3021.157	4384
3022.981	4369
3024.802	4375
3026.624	4268
3028.448	4259
3030.267	4397
3032.088	4244
3033.909	4330
3035.728	4301
3037.549	4281
3039.368	4305
3041.186	4263
3043.004	4202
3044.821	4263
3046.64	4126
3048.455	4227
3050.272	4201
3052.087	4336
3053.903	4234
3055.717	4253
3057.534	4274
3059.347	4164
3061.16	4245
3062.974	4257
3064.785	4248
3066.598	4172
3068.411	4287
3070.222	4296
3072.032	4196
3073.844	4206
3075.653	4213
3077.463	4226
3079.272	4111
3081.08	4273
3082.889	4154
3084.697	4236
3086.505	4158
3088.312	4146
3090.118	4134
3091.924	4199
3093.729	4163
3095.535	4145
3097.34	4072
3099.144	4178
3100.947	4156
3102.75	4087
3104.553	4121
3106.357	4078
3108.159	4044
3109.961	4155
3111.762	4101
3113.562	4083
3115.365	4116
3117.164	4095
3118.964	4073
3120.761	4044
3122.56	4033
3124.36	4085
3126.158	4053
3127.954	4076
3129.75	3946
3131.547	4058
3133.343	3949
3135.139	4034
3136.934	4016
3138.729	3990
3140.522	3927
3142.317	4047
3144.11	4004
3145.904	3960
3147.695	3990
3149.488	3973
3151.28	3961
3153.07	4006
3154.863	4039
3156.652	4027
3158.441	3992
3160.231	4015
3162.019	4029
3163.81	3989
3165.597	3976
3167.384	3958
3169.172	4003
3170.958	3920
3172.745	3995
3174.532	3904
3176.317	3938
3178.101	3976
3179.885	3976
3181.67	3965
3183.455	3819
3185.238	3948
3187.02	3877
3188.802	3931
3190.585	3928
3192.368	3975
3194.149	3887
3195.929	3925
3197.709	3944
3199.489	3894
3201.268	3896
3203.048	3937
3204.826	3874
3206.604	3892
3208.382	3915
3210.159	4007
3211.937	3930
3213.713	3837
3215.489	3868
3217.263	3938
3219.038	3935
3220.815	3969
3222.589	3889
3224.363	3892
3226.136	3913
3227.908	3931
3229.681	3910
3231.454	3947
3233.226	3884
3234.996	3888
3236.767	3987
3238.538	3965
3240.308	3814
3242.078	3818
3243.847	3805
3245.615	3799
3247.384	3862
3249.15	3903
3250.92	3907
3252.686	3860
3254.453	3859
3256.218	3913
3257.984	3909
3259.75	3893
3261.515	3882
3263.279	3881
3265.044	3887
3266.806	3933
3268.57	3838
3270.334	3936
3272.095	3837
3273.856	3894
3275.619	3840
3277.379	3891
3279.14	3856
3280.9	3896
3282.661	3845
3284.419	3900
3286.178	3841
3287.937	3825
3289.695	3848
3291.453	3894
3293.21	3861
3294.967	3893
3296.723	3813
3298.48	3849
3300.235	3858
3301.99	3874
3303.744	3800
3305.498	3953
3307.253	3853
3309.006	3790
3310.759	3968
3312.511	3866
3314.263	3854
3316.017	3908
3317.768	3889
3319.519	3914
3321.268	3814
3323.018	3832
3324.767	3874
3326.518	3859
3328.267	3791
3330.014	3867
3331.762	3849
3333.509	3794
3335.258	3851
3337.003	3848
3338.75	3908
3340.496	3797
3342.24	3782
3343.987	3870
3345.732	3870
3347.475	3746
3349.219	3774
3350.961	3802
3352.705	3855
3354.448	3747
3356.19	3764
3357.931	3793
3359.672	3844
3361.412	3769
3363.155	3760
3364.894	3848
3366.633	3741
3368.372	3710
3370.11	3781
3371.849	3788
3373.588	3786
3375.325	3735
3377.061	3788
3378.799	3681
3380.534	3722
3382.271	3703
3384.006	3695
3385.741	3711
3387.475	3763
3389.209	3650
3390.944	3752
3392.677	3706
3394.409	3645
3396.143	3711
3397.874	3718
3399.606	3737
3401.338	3684
3403.069	3721
3404.799	3702
3406.528	3667
3408.258	3671
3409.988	3630
3411.717	3737
3413.445	3740
3415.173	3623
3416.899	3639
3418.626	3609
3420.354	3619
3422.08	3669
3423.806	3722
3425.531	3691
3427.255	3662
3428.981	3689
3430.705	3682
3432.429	3657
3434.151	3601
3435.875	3656
3437.599	3622
3439.321	3636
3441.042	3605
3442.763	3599
3444.483	3647
3446.204	3540
3447.926	3608
3449.645	3526
3451.364	3617
3453.082	3612
3454.801	3512
3456.52	3553
3458.238	3535
3459.954	3547
3461.671	3641
3463.387	3620
3465.104	3548
3466.82	3562
3468.534	3524
3470.25	3419
3471.963	3572
3473.676	3563
3475.392	3537
3477.104	3482
3478.817	3467
3480.528	3447
3482.241	3437
3483.954	3573
3485.664	3531
3487.374	3450
3489.084	3452
3490.795	3502
3492.504	3491
3494.214	3467
3495.922	3464
3497.63	3481
3499.338	3417
3501.045	3412
3502.753	3531
3504.459	3457
3506.166	3397
3507.871	3481
3509.576	3416
3511.283	3348
3512.987	3399
3514.691	3410
3516.395	3347
3518.098	3363
3519.8	3375
3521.504	3371
3523.206	3407
3524.908	3411
3526.609	3369
3528.309	3387
3530.011	3450
3531.711	3454
3533.411	3424
3535.109	3379
3536.808	3318
3538.507	3452
3540.206	3270
3541.904	3368
3543.601	3399
3545.297	3337
3546.994	3416
3548.69	3357
3550.387	3299
3552.081	3352
3553.776	3335
3555.47	3313
3557.166	3312
3558.859	3295
3560.553	3337
3562.245	3273
3563.938	3339
3565.629	3331
3567.322	3362
3569.014	3304
3570.704	3340
3572.394	3271
3574.084	3313
3575.775	3244
3577.464	3296
3579.152	3312
3580.842	3278
3582.529	3218
3584.216	3354
3585.905	3209
3587.591	3264
3589.279	3279
3590.964	3300
3592.649	3281
3594.336	3227
3596.021	3240
3597.705	3264
3599.388	3282
3601.072	3357
3602.757	3175
3604.439	3175
3606.122	3314
3607.803	3226
3609.485	3164
3611.167	3192
3612.849	3249
3614.529	3189
3616.208	3131
3617.888	3237
3619.567	3215
3621.247	3168
3622.926	3156
3624.603	3179
3626.281	3179
3627.958	3147
3629.635	3209
3631.312	3125
3632.989	3140
3634.665	3153
3636.339	3087
3638.014	3111
3639.691	3128
3641.364	3150
3643.038	3191
3644.71	3111
3646.384	3174
3648.058	3193
3649.729	3084
3651.402	3173
3653.073	3129
3654.744	3097
3656.414	3099
3658.085	3138
3659.755	3113
3661.424	3158
3663.094	3089
3664.762	3102
3666.431	3129
3668.099	3107
3669.766	3063
3671.433	3004
3673.099	3088
3674.768	3068
3676.433	3138
3678.098	3055
3679.763	3088
3681.428	3078
3683.093	3071
3684.757	3113
3686.421	2974
3688.083	3050
3689.746	3097
3691.408	3085
3693.071	3078
3694.733	3060
3696.394	3127
3698.054	3065
3699.715	3005
3701.375	3014
3703.036	2973
3704.695	3008
3706.354	2990
3708.012	3033
3709.67	3028
3711.329	2955
3712.987	3036
3714.644	3088
3716.299	3022
3717.955	3009
3719.613	3066
3721.268	2990
3722.923	2992
3724.577	2979
3726.231	2944
3727.885	3004
3729.539	2978
3731.192	2976
3732.845	2969
3734.497	2978
3736.149	2986
3737.802	2998
3739.453	2999
3741.104	2981
3742.753	2911
3744.404	3024
3746.052	2987
3747.704	2955
3749.352	3029
3751	2966
3752.648	3000
3754.296	2963
3755.944	2982
3757.59	2941
3759.238	2972
3760.883	2993
3762.528	2909
3764.176	3078
3765.82	3009
3767.464	2931
3769.109	2846
3770.753	2884
3772.396	2917
3774.04	2905
3775.683	2959
3777.325	2897
3778.967	2891
3780.608	2956
3782.25	2901
3783.89	2884
3785.531	2921
3787.17	2897
3788.81	2892
3790.45	2904
3792.09	2889
3793.729	2864
3795.366	2899
3797.003	2953
3798.64	2904
3800.278	2820
3801.915	2915
3803.551	2858
3805.187	2864
3806.822	2960
3808.458	2859
3810.093	2809
3811.726	2890
3813.36	2876
3814.994	2798
3816.627	2913
3818.262	2891
3819.893	2796
3821.525	2828
3823.157	2782
3824.787	2838
3826.42	2833
3828.051	2815
3829.68	2842
3831.31	2869
3832.938	2808
3834.569	2839
3836.198	2826
3837.825	2854
3839.454	2808
3841.08	2804
3842.708	2773
3844.335	2846
3845.962	2782
3847.587	2803
3849.212	2708
3850.838	2788
3852.463	2789
3854.089	2751
3855.712	2830
3857.335	2737
3858.959	2837
3860.582	2729
3862.205	2767
3863.827	2812
3865.449	2670
3867.07	2803
3868.691	2733
3870.312	2722
3871.933	2770
3873.553	2695
3875.173	2748
3876.792	2832
3878.411	2686
3880.03	2724
3881.647	2770
3883.265	2715
3884.882	2756
3886.499	2754
3888.116	2782
3889.732	2735
3891.348	2706
3892.964	2745
3894.579	2726
3896.195	2738
3897.809	2749
3899.423	2741
3901.036	2769
3902.648	2706
3904.261	2731
3905.875	2741
3907.487	2735
3909.099	2810
3910.709	2715
3912.321	2784
3913.933	2659
3915.542	2750
3917.152	2758
3918.762	2699
3920.37	2753
3921.98	2741
3923.589	2688
3925.196	2725
3926.804	2651
3928.41	2685
3930.018	2709
3931.626	2731
3933.231	2641
3934.838	2688
3936.442	2684
3938.046	2593
3939.653	2688
3941.257	2711
3942.861	2671
3944.464	2675
3946.068	2648
3947.67	2700
3949.273	2619
3950.876	2675
3952.477	2706
3954.078	2681
3955.678	2651
3957.281	2742
3958.881	2666
3960.48	2605
3962.079	2676
3963.678	2657
3965.279	2595
3966.877	2671
3968.475	2672
3970.072	2629
3971.669	2622
3973.266	2692
3974.864	2680
3976.459	2609
3978.055	2630
3979.65	2600
3981.245	2612
3982.841	2606
3984.436	2565
3986.03	2567
3987.623	2590
3989.216	2582
3990.809	2617
3992.403	2615
3993.995	2580
3995.586	2600
3997.177	2557
3998.768	2520
4000.361	2593
4001.951	2611
4003.54	2593
4005.13	2554
4006.719	2521
4008.31	2566
4009.897	2578
4011.485	2561
4013.073	2506
4014.66	2558
4016.247	2578
4017.834	2534
4019.421	2594
4021.006	2497
4022.592	2474
4024.178	2537
4025.763	2563
4027.348	2515
4028.932	2551
4030.515	2511
4032.099	2459
4033.682	2462
4035.266	2501
4036.847	2478
4038.429	2598
4040.011	2437
4041.592	2512
4043.173	2502
4044.755	2475
4046.334	2525
4047.913	2494
4049.494	2461
4051.074	2411
4052.652	2493
4054.23	2476
4055.807	2520
4057.385	2486
4058.963	2459
4060.541	2476
4062.117	2478
4063.693	2507
4065.269	2529
4066.844	2455
4068.42	2519
4069.995	2430
4071.569	2418
4073.143	2499
4074.716	2463
4076.291	2433
4077.864	2481
4079.436	2481
4081.009	2405
4082.58	2434
4084.152	2561
4085.723	2420
4087.294	2359
4088.865	2465
4090.435	2451
4092.005	2381
4093.574	2470
4095.143	2417
4096.712	2507
4098.279	2399
4099.848	2407
4101.416	2394
4102.984	2381
4104.55	2384
4106.117	2426
4107.682	2415
4109.248	2358
4110.815	2431
4112.379	2401
4113.945	2367
4115.508	2461
4117.073	2406
4118.637	2462
4120.201	2394
4121.763	2404
4123.325	2383
4124.888	2370
4126.449	2345
4128.013	2408
4129.573	2312
4131.133	2388
4132.694	2395
4134.254	2344
4135.814	2332
4137.374	2367
4138.933	2339
4140.491	2318
4142.049	2380
4143.607	2374
4145.167	2303
4146.724	2320
4148.28	2350
4149.836	2297
4151.392	2377
4152.949	2320
4154.504	2336
4156.059	2317
4157.614	2306
4159.168	2290
4160.723	2325
4162.277	2337
4163.83	2316
4165.383	2281
4166.936	2273
4168.488	2324
4170.041	2313
4171.593	2301
4173.144	2252
4174.695	2266
4176.246	2302
4177.796	2287
4179.346	2257
4180.896	2242
4182.445	2269
4183.994	2258
4185.542	2244
4187.091	2207
4188.639	2278
4190.185	2354
4191.732	2263
4193.279	2277
4194.826	2324
4196.373	2230
4197.918	2263
4199.463	2296
4201.008	2185
4202.553	2251
4204.098	2256
4205.641	2222
4207.185	2291
4208.728	2236
4210.271	2223
4211.814	2228
4213.357	2271
4214.898	2253
4216.439	2253
4217.98	2240
4219.522	2198
4221.062	2209
4222.603	2205
4224.142	2183
4225.681	2280
4227.222	2212
4228.76	2229
4230.298	2276
4231.835	2183
4233.373	2164
4234.911	2200
4236.449	2251
4237.985	2223
4239.521	2171
4241.057	2178
4242.592	2200
4244.128	2176
4245.663	2186
4247.197	2217
4248.731	2238
4250.265	2218
4251.798	2236
4253.333	2190
4254.865	2215
4256.397	2234
4257.93	2153
4259.461	2176
4260.994	2212
4262.525	2177
4264.056	2187
4265.586	2170
4267.115	2134
4268.646	2206
4270.176	2151
4271.705	2203
4273.232	2126
4274.761	2207
4276.289	2136
4277.818	2145
4279.345	2183
4280.872	2184
4282.399	2189
4283.924	2207
4285.452	2153
4286.976	2101
4288.502	2119
4290.026	2154
4291.551	2136
4293.074	2096
4294.6	2203
4296.123	2137
4297.646	2177
4299.168	2157
4300.691	2080
4302.214	2127
4303.736	2126
4305.257	2159
4306.778	2133
4308.299	2143
4309.82	2167
4311.34	2112
4312.86	2140
4314.379	2078
