400.0745	4130
402.597	4168
405.1208	4163
407.6419	4262
410.1623	4202
412.6819	4235
415.201	4266
417.7172	4252
420.2369	4361
422.7538	4365
425.2701	4373
427.7856	4497
430.3005	4506
432.8147	4510
435.3282	4475
437.841	4497
440.3511	4534
442.8625	4382
445.3753	4443
447.8854	4467
450.3927	4461
452.9014	4474
455.4073	4487
457.9146	4423
460.4233	4450
462.9272	4484
465.4325	4442
467.935	4399
470.4389	4532
472.9421	4440
475.4446	4371
477.9444	4418
480.4456	4363
482.944	4599
485.4417	4566
487.9429	4488
490.4393	4553
492.935	4550
495.4321	4539
497.9264	4545
500.4221	4518
502.9171	4587
505.4094	4572
507.9011	4575
510.392	4632
512.8864	4578
515.3759	4575
517.8649	4639
520.3531	4667
522.8406	4485
525.3275	4673
527.8178	4598
530.3033	4654
532.7881	4697
535.2723	4649
537.7558	4690
540.2407	4558
542.7228	4545
545.2043	4636
547.6851	4631
550.1652	4625
552.6467	4566
555.1255	4685
557.6016	4643
560.079	4600
562.5557	4717
565.0318	4665
567.5092	4731
569.984	4708
572.456	4727
574.9294	4865
577.4022	4776
579.8762	4788
582.3456	4842
584.8163	4843
587.2863	4799
589.7557	4919
592.2224	4827
594.6924	4875
597.1578	4841
599.6245	4750
602.0905	4702
604.5538	4772
607.0206	4783
609.4825	4891
611.9459	4759
614.4066	4806
616.8686	4816
619.33	4860
621.7906	4747
624.2487	4740
626.708	4666
629.1647	4808
631.6207	4822
634.0801	4694
636.5348	4739
638.9888	4761
641.4442	4718
643.8969	4759
646.3509	4755
648.8022	4773
651.255	4774
653.705	4779
656.1544	4878
658.6031	4931
661.0532	4803
663.5026	4847
665.9493	4863
668.3954	4801
670.8409	4896
673.2877	4907
675.7318	4921
678.1752	4932
680.618	4928
683.0601	4950
685.5035	4958
687.9444	4916
690.3845	4903
692.824	4897
695.2628	4832
697.701	4867
700.1406	4998
702.5774	4938
705.0116	5004
707.4472	5075
709.8821	4973
712.3183	5053
714.7519	5039
717.1829	5028
719.6151	5037
722.0468	5051
724.4777	5104
726.908	5171
729.3377	5089
731.7667	5049
734.1931	5203
736.6208	5028
739.0498	5116
741.4742	5117
743.9	5225
746.3231	5177
748.7476	5178
751.1713	5224
753.5945	5200
756.015	5216
758.4368	5269
760.856	5310
763.2766	5297
765.6965	5216
768.1157	5380
770.5323	5308
772.9483	5385
775.3656	5204
777.7822	5147
780.1963	5204
782.6116	5326
785.0244	5216
787.4365	5310
789.8499	5282
792.2626	5390
794.6728	5303
797.0823	5302
799.4911	5309
801.8994	5291
804.3109	5394
806.7178	5402
809.124	5261
811.5297	5326
813.9347	5390
816.341	5362
818.7447	5439
821.1478	5384
823.5502	5443
825.952	5426
828.3531	5360
830.7556	5311
833.1554	5396
835.5546	5323
837.9532	5392
840.3511	5413
842.7504	5416
845.1451	5498
847.5411	5440
849.9365	5399
852.3312	5451
854.7272	5554
857.1187	5473
859.5115	5529
861.9037	5503
864.2952	5453
866.6842	5505
869.0764	5458
871.4661	5627
873.8531	5491
876.2415	5525
878.6272	5482
881.0162	5453
883.4026	5438
885.7866	5514
888.1717	5517
890.5543	5443
892.9382	5370
895.3215	5456
897.7041	5396
900.0842	5425
902.4655	5513
904.8443	5501
907.2244	5539
909.6039	5580
911.9808	5551
914.357	5590
916.7346	5648
919.1115	5643
921.4859	5703
923.8616	5744
926.2347	5758
928.6071	5887
930.979	5788
933.3541	5849
935.7247	5847
938.0946	5777
940.4639	5946
942.8326	5977
945.2026	6046
947.5701	6194
949.9369	6295
952.305	6461
954.6705	6759
957.0355	6977
959.4017	7291
961.7654	7439
964.1284	7447
966.4908	7145
968.8527	6798
971.2138	6526
973.5743	6437
975.9343	6056
978.2936	5894
980.6522	5855
983.0122	5766
985.3696	5690
987.7245	5773
990.0807	5616
992.4362	5676
994.7911	5670
997.1474	5725
999.4991	5727
1001.852	5924
1004.205	5734
1006.555	5726
1008.908	5796
1011.258	5722
1013.606	5673
1015.956	5771
1018.302	5738
1020.652	5780
1022.998	5744
1025.345	5707
1027.691	5853
1030.035	5830
1032.378	5851
1034.724	5851
1037.066	5816
1039.409	5908
1041.75	5895
1044.092	5927
1046.433	5886
1048.771	5845
1051.112	5796
1053.449	5909
1055.786	5901
1058.124	5783
1060.462	5818
1062.797	5932
1065.131	5913
1067.467	6021
1069.8	5942
1072.135	6118
1074.467	5990
1076.798	5968
1079.129	5963
1081.459	5989
1083.792	5913
1086.121	5812
1088.449	5897
1090.777	5867
1093.104	5813
1095.431	5803
1097.759	5905
1100.084	5786
1102.408	5865
1104.732	5905
1107.056	5822
1109.379	5842
1111.701	5915
1114.022	5691
1116.343	5975
1118.664	5836
1120.983	5923
1123.303	5857
1125.621	5854
1127.939	5837
1130.256	5899
1132.573	5845
1134.889	5827
1137.205	5900
1139.52	5943
1141.832	5813
1144.146	5903
1146.461	5861
1148.771	5874
1151.083	5825
1153.392	5898
1155.703	5879
1158.011	5870
1160.323	5903
1162.629	5948
1164.938	5884
1167.243	5874
1169.55	5894
1171.857	5819
1174.163	5905
1176.466	5872
1178.769	5838
1181.073	5835
1183.374	5850
1185.677	5928
1187.979	5862
1190.279	5864
1192.578	5902
1194.878	5958
1197.178	5857
1199.476	5852
1201.772	5918
1204.068	5839
1206.366	5876
1208.663	5872
1210.957	5897
1213.251	5893
1215.544	5930
1217.836	5876
1220.128	5948
1222.421	5871
1224.712	5943
1227.002	6009
1229.292	6026
1231.581	5996
1233.871	6024
1236.159	5982
1238.446	6114
1240.732	6029
1243.018	6056
1245.304	6191
1247.59	6149
1249.874	6115
1252.156	6268
1254.439	6229
1256.721	6198
1259.005	6187
1261.286	6071
1263.565	6188
1265.845	6077
1268.125	6110
1270.403	6157
1272.682	6182
1274.959	6121
1277.234	6185
1279.511	6157
1281.787	6104
1284.062	6148
1286.337	6118
1288.609	6109
1290.882	6032
1293.153	6020
1295.428	6063
1297.698	6042
1299.969	5993
1302.237	6086
1304.507	6180
1306.777	6087
1309.044	6033
1311.312	6010
1313.578	5918
1315.844	6115
1318.109	6060
1320.375	6148
1322.638	5953
1324.903	6127
1327.165	6007
1329.427	6078
1331.69	5986
1333.952	6096
1336.212	6005
1338.471	5938
1340.73	6119
1342.988	5927
1345.248	6047
1347.505	6050
1349.763	5998
1352.019	6015
1354.274	6076
1356.53	6113
1358.784	6094
1361.038	6040
1363.291	5954
1365.543	5976
1367.797	6007
1370.048	6132
1372.296	6000
1374.546	5967
1376.796	6097
1379.045	6044
1381.295	6093
1383.542	6082
1385.787	6044
1388.034	6113
1390.28	6098
1392.527	6116
1394.772	6219
1397.014	6277
1399.258	6358
1401.501	6122
1403.741	6264
1405.985	6179
1408.226	6245
1410.465	6083
1412.705	6286
1414.943	6235
1417.184	6283
1419.42	6315
1421.658	6253
1423.894	6242
1426.13	6189
1428.366	6202
1430.602	6199
1432.835	6407
1435.069	6266
1437.301	6361
1439.535	6412
1441.767	6318
1443.997	6386
1446.229	6379
1448.458	6399
1450.687	6452
1452.916	6451
1455.146	6580
1457.372	6496
1459.599	6424
1461.824	6404
1464.051	6347
1466.277	6411
1468.501	6362
1470.725	6270
1472.948	6311
1475.17	6284
1477.393	6212
1479.614	6210
1481.837	6154
1484.057	6182
1486.276	6155
1488.497	6049
1490.715	6091
1492.932	6187
1495.148	6058
1497.364	6139
1499.58	6184
1501.798	6019
1504.012	6007
1506.227	6025
1508.44	6007
1510.653	6056
1512.866	6058
1515.078	6113
1517.289	6042
1519.5	6005
1521.711	6155
1523.92	6028
1526.13	6004
1528.338	5924
1530.544	5975
1532.752	5998
1534.959	6002
1537.165	5972
1539.371	6103
1541.574	6037
1543.779	5986
1545.983	6129
1548.187	6051
1550.39	6082
1552.59	6122
1554.792	6111
1556.991	6122
1559.19	6051
1561.392	6177
1563.59	6012
1565.789	6109
1567.986	6140
1570.182	5989
1572.381	6179
1574.576	6185
1576.771	6169
1578.966	6100
1581.16	6252
1583.354	6254
1585.546	6287
1587.74	6349
1589.931	6216
1592.121	6175
1594.311	6221
1596.502	6238
1598.693	6266
1600.881	6241
1603.069	6347
1605.256	6376
1607.445	6271
1609.631	6303
1611.816	6299
1614.001	6253
1616.186	6200
1618.37	6318
1620.555	6371
1622.737	6287
1624.919	6319
1627.101	6339
1629.282	6294
1631.463	6409
1633.643	6418
1635.822	6320
1638.001	6373
1640.179	6467
1642.359	6324
1644.534	6399
1646.711	6389
1648.887	6324
1651.062	6388
1653.235	6448
1655.412	6397
1657.586	6399
1659.757	6410
1661.93	6387
1664.1	6492
1666.274	6406
1668.445	6403
1670.614	6488
1672.784	6524
1674.951	6484
1677.12	6426
1679.289	6412
1681.457	6374
1683.622	6459
1685.789	6518
1687.953	6438
1690.121	6443
1692.284	6338
1694.447	6261
1696.611	6332
1698.772	6322
1700.935	6228
1703.098	6324
1705.258	6137
1707.417	6231
1709.576	6312
1711.736	6192
1713.896	6228
1716.053	6121
1718.21	6270
1720.366	6247
1722.522	6181
1724.68	6171
1726.835	6156
1728.989	6114
1731.142	6290
1733.295	6170
1735.449	6301
1737.601	6312
1739.753	6274
1741.903	6209
1744.054	6255
1746.203	6170
1748.354	6180
1750.503	6278
1752.651	6205
1754.798	6165
1756.944	6231
1759.092	6259
1761.238	6209
1763.383	6162
1765.528	6176
1767.672	6279
1769.814	6280
1771.959	6344
1774.102	6278
1776.242	6243
1778.384	6155
1780.525	6334
1782.665	6250
1784.805	6216
1786.945	6351
1789.082	6168
1791.22	6250
1793.36	6296
1795.495	6239
1797.632	6321
1799.766	6267
1801.902	6259
1804.035	6320
1806.172	6306
1808.304	6304
1810.436	6362
1812.569	6287
1814.699	6306
1816.833	6295
1818.963	6282
1821.092	6215
1823.222	6297
1825.35	6276
1827.478	6202
1829.608	6280
1831.734	6219
1833.86	6124
1835.986	6234
1838.11	6315
1840.238	6171
1842.362	6275
1844.485	6151
1846.608	6227
1848.73	6220
1850.853	6222
1852.974	6078
1855.097	6231
1857.217	6250
1859.336	6121
1861.455	6170
1863.576	6176
1865.693	6338
1867.811	6145
1869.926	6269
1872.042	6150
1874.16	6102
1876.275	6115
1878.39	6164
1880.504	6146
1882.618	6191
1884.731	6298
1886.843	6194
1888.956	6259
1891.067	6313
1893.178	6117
1895.287	6299
1897.399	6268
1899.508	6175
1901.617	6269
1903.724	6287
1905.832	6169
1907.941	6286
1910.046	6193
1912.152	6298
1914.256	6318
1916.361	6274
1918.464	6273
1920.57	6230
1922.672	6426
1924.775	6266
1926.876	6260
1928.978	6285
1931.08	6312
1933.181	6335
1935.28	6256
1937.38	6363
1939.478	6374
1941.577	6322
1943.675	6267
1945.771	6309
1947.867	6353
1949.964	6246
1952.058	6316
1954.154	6285
1956.248	6243
1958.343	6308
1960.435	6283
1962.527	6252
1964.62	6232
1966.711	6412
1968.802	6338
1970.892	6209
1972.983	6343
1975.072	6283
1977.162	6189
1979.25	6233
1981.337	6325
1983.424	6278
1985.51	6290
1987.598	6265
1989.683	6163
1991.768	6343
1993.852	6200
1995.934	6347
1998.019	6218
2000.102	6224
2002.184	6306
2004.266	6243
2006.347	6177
2008.427	6117
2010.508	6173
2012.587	6290
2014.666	6142
2016.745	6226
2018.821	6143
2020.9	6164
2022.977	6216
2025.052	6324
2027.128	6232
2029.204	6173
2031.277	6291
2033.353	6249
2035.425	6269
2037.499	6269
2039.57	6325
2041.642	6292
2043.714	6181
2045.786	6167
2047.855	6174
2049.925	6356
2051.993	6191
2054.064	6333
2056.132	6189
2058.2	6241
2060.266	6300
2062.332	6199
2064.398	6215
2066.465	6237
2068.529	6322
2070.592	6345
2072.657	6231
2074.719	6219
2076.783	6124
2078.845	6238
2080.907	6226
2082.968	6213
2085.028	6194
2087.087	6400
2089.148	6289
2091.207	6257
2093.264	6335
2095.322	6354
2097.379	6339
2099.439	6298
2101.495	6300
2103.55	6227
2105.605	6184
2107.658	6358
2109.713	6266
2111.767	6249
2113.82	6284
2115.872	6335
2117.924	6217
2119.975	6275
2122.028	6246
2124.078	6330
2126.126	6329
2128.176	6253
2130.225	6145
2132.275	6237
2134.321	6389
2136.368	6138
2138.415	6297
2140.461	6315
2142.505	6358
2144.552	6313
2146.597	6258
2148.64	6261
2150.684	6226
2152.725	6309
2154.77	6347
2156.811	6380
2158.852	6259
2160.894	6279
2162.933	6325
2164.973	6263
2167.013	6213
2169.051	6183
2171.089	6190
2173.126	6251
2175.164	6256
2177.201	6224
2179.236	6136
2181.273	6276
2183.307	6176
2185.341	6168
2187.377	6109
2189.41	6128
2191.442	6180
2193.473	6248
2195.506	6270
2197.539	6252
2199.569	6079
2201.598	6126
2203.628	6217
2205.656	6280
2207.686	6146
2209.716	6136
2211.743	6122
2213.769	6307
2215.796	6166
2217.821	6225
2219.848	6206
2221.873	6059
2223.897	6212
2225.921	6235
2227.944	6120
2229.967	6170
2231.991	6023
2234.011	6173
2236.032	6088
2238.053	6066
2240.073	6047
2242.094	6178
2244.114	6077
2246.131	6156
2248.149	6149
2250.167	6226
2252.186	6082
2254.201	6194
2256.218	6290
2258.233	6172
2260.247	6210
2262.262	6273
2264.278	6208
2266.29	6198
2268.303	6130
2270.315	6192
2272.327	6233
2274.341	6114
2276.35	6254
2278.361	6128
2280.37	6111
2282.38	6156
2284.388	6133
2286.397	6247
2288.405	6096
2290.412	6205
2292.419	6237
2294.425	6102
2296.431	6214
2298.437	6186
2300.441	6129
2302.445	6240
2304.449	6093
2306.453	6226
2308.455	6176
2310.457	6229
2312.459	6129
2314.46	6166
2316.46	6255
2318.461	6257
2320.46	6166
2322.458	6199
2324.458	6160
2326.456	6088
2328.455	6246
2330.451	6215
2332.447	6230
2334.443	6179
2336.438	6135
2338.433	6169
2340.429	6150
2342.422	6150
2344.416	6173
2346.408	6162
2348.399	6095
2350.393	6180
2352.384	6166
2354.375	6159
2356.365	6115
2358.355	6080
2360.344	6086
2362.333	6136
2364.322	6041
2366.309	6125
2368.295	6134
2370.282	6103
2372.27	6078
2374.256	6013
2376.24	6164
2378.225	6137
2380.208	6049
2382.194	6053
2384.177	6021
2386.159	6040
2388.142	6050
2390.122	5987
2392.105	6053
2394.085	5970
2396.066	6172
2398.044	6018
2400.024	6094
2402.002	5929
2403.982	6063
2405.959	5953
2407.935	6077
2409.913	6063
2411.888	6072
2413.865	6098
2415.84	6072
2417.814	6117
2419.788	6062
2421.762	5994
2423.735	6094
2425.708	6076
2427.68	6054
2429.651	6081
2431.623	6114
2433.593	6026
2435.564	5952
2437.533	6039
2439.502	6091
2441.47	5992
2443.438	6092
2445.406	6092
2447.373	6053
2449.34	6171
2451.305	5974
2453.271	6025
2455.235	6030
2457.201	6089
2459.165	5996
2461.129	5969
2463.092	6071
2465.054	6081
2467.018	5963
2468.978	5967
2470.939	6001
2472.899	6053
2474.86	6090
2476.819	6085
2478.778	6045
2480.737	5985
2482.695	5940
2484.653	5902
2486.609	5943
2488.567	6003
2490.524	6054
2492.478	6022
2494.433	6049
2496.387	5991
2498.343	6034
2500.297	6034
2502.249	5990
2504.202	5927
2506.153	6074
2508.105	6050
2510.057	5968
2512.008	5943
2513.957	6009
2515.906	5945
2517.855	5991
2519.805	5945
2521.754	5989
2523.7	5863
2525.647	5925
2527.594	5938
2529.54	5949
2531.486	6029
2533.431	6034
2535.376	6042
2537.32	5965
2539.263	5955
2541.207	5879
2543.151	5958
2545.093	5890
2547.034	5989
2548.975	6001
2550.917	5989
2552.856	5890
2554.796	5982
2556.735	5902
2558.673	6029
2560.611	5875
2562.55	5919
2564.487	6023
2566.424	5923
2568.36	6004
2570.296	5985
2572.232	5812
2574.167	6044
2576.101	5945
2578.035	5962
2579.969	5887
2581.902	5937
2583.834	5979
2585.766	5877
2587.698	5858
2589.628	5946
2591.557	5900
2593.489	5951
2595.419	5969
2597.348	5960
2599.275	5981
2601.204	5928
2603.131	5849
2605.059	5988
2606.986	5923
2608.911	5908
2610.837	5896
2612.76	5952
2614.687	6030
2616.61	5938
2618.534	5856
2620.457	5979
2622.38	6088
2624.302	6044
2626.225	5847
2628.145	5881
2630.067	5922
2631.986	5890
2633.906	5891
2635.827	5994
2637.745	6000
2639.662	6058
2641.581	5860
2643.498	6022
2645.415	5985
2647.331	5944
2649.248	5893
2651.163	5928
2653.077	5968
2654.993	5975
2656.906	5985
2658.821	5948
2660.733	5921
2662.646	5976
2664.557	5876
2666.47	5987
2668.381	5830
2670.291	5849
2672.201	5809
2674.11	5935
2676.021	5930
2677.929	5962
2679.837	5901
2681.745	5931
2683.652	5889
2685.56	5933
2687.466	5920
2689.371	5909
2691.276	5817
2693.181	5818
2695.085	5934
2696.991	5793
2698.893	5879
2700.796	5800
2702.698	5795
2704.601	5950
2706.502	5825
2708.404	5823
2710.304	5884
2712.203	5917
2714.103	5687
2716.003	5914
2717.902	5908
2719.8	5699
2721.697	5838
2723.594	5745
2725.49	5809
2727.389	5876
2729.283	5780
2731.179	5757
2733.073	5835
2734.968	5853
2736.863	5753
2738.757	5792
2740.649	5773
2742.541	5848
2744.433	5884
2746.324	5788
2748.216	5713
2750.107	5745
2751.997	5778
2753.886	5830
2755.776	5737
2757.666	5796
2759.553	5699
2761.44	5734
2763.327	5619
2765.215	5753
2767.102	5698
2768.988	5727
2770.873	5732
2772.757	5720
2774.641	5708
2776.525	5728
2778.41	5761
2780.292	5693
2782.175	5713
2784.057	5742
2785.938	5649
2787.821	5635
2789.701	5742
2791.581	5737
2793.461	5667
2795.34	5745
2797.219	5789
2799.099	5653
2800.975	5629
2802.853	5741
2804.73	5687
2806.606	5593
2808.484	5778
2810.358	5693
2812.233	5702
2814.108	5585
2815.981	5713
2817.857	5789
2819.73	5605
2821.602	5672
2823.474	5616
2825.346	5646
2827.217	5693
2829.089	5670
2830.959	5717
2832.829	5604
2834.698	5685
2836.567	5644
2838.436	5872
2840.305	5725
2842.172	5684
2844.04	5781
2845.905	5769
2847.772	5707
2849.639	5652
2851.503	5727
2853.369	5796
2855.232	5677
2857.096	5758
2858.961	5768
2860.824	5877
2862.686	5779
2864.547	5901
2866.41	5885
2868.272	5890
2870.132	6014
2871.992	6044
2873.851	6117
2875.711	6075
2877.57	6180
2879.429	6199
2881.287	6221
2883.144	6220
2885.001	6293
2886.857	6433
2888.714	6319
2890.57	6247
2892.425	6328
2894.279	6340
2896.133	6323
2897.987	6377
2899.842	6243
2901.694	6294
2903.547	6358
2905.397	6286
2907.249	6214
2909.101	6276
2910.952	6246
2912.802	6305
2914.652	6418
2916.5	6314
2918.35	6525
2920.198	6642
2922.045	6662
2923.893	6761
2925.74	6735
2927.585	6889
2929.433	6716
2931.279	6954
2933.123	6883
2934.968	7031
2936.811	7070
2938.656	6978
2940.5	7183
2942.342	7043
2944.185	7206
2946.026	7290
2947.87	7139
2949.71	7214
2951.549	7207
2953.39	7022
2955.229	7005
2957.069	7012
2958.908	6983
2960.746	6933
2962.584	6819
2964.421	6740
2966.257	6752
2968.094	6589
2969.931	6545
2971.766	6500
2973.601	6503
2975.435	6495
2977.27	6454
2979.105	6372
2980.938	6449
2982.77	6359
2984.602	6312
2986.434	6272
2988.267	6348
2990.097	6168
2991.927	6288
2993.757	6143
2995.587	6098
2997.417	6107
2999.246	6014
3001.074	5985
3002.902	5909
3004.729	5831
3006.556	5749
3008.384	5738
3010.21	5739
3012.036	5735
3013.861	5625
3015.684	5587
3017.51	5550
3019.334	5508
3021.157	5505
3022.981	5433
3024.802	5350
3026.624	5357
3028.448	5494
3030.267	5343
3032.088	5402
3033.909	5522
3035.728	5421
3037.549	5350
3039.368	5332
3041.186	5357
3043.004	5419
3044.821	5383
3046.64	5330
3048.455	5276
3050.272	5322
3052.087	5310
3053.903	5304
3055.717	5338
3057.534	5270
3059.347	5349
3061.16	5450
3062.974	5262
3064.785	5314
3066.598	5312
3068.411	5274
3070.222	5298
3072.032	5276
3073.844	5276
3075.653	5264
3077.463	5143
3079.272	5305
3081.08	5228
3082.889	5209
3084.697	5156
3086.505	5202
3088.312	5276
3090.118	5229
3091.924	5150
3093.729	5147
3095.535	5107
3097.34	5156
3099.144	5158
3100.947	5103
3102.75	5073
3104.553	5125
3106.357	5113
3108.159	5172
3109.961	5188
3111.762	4919
3113.562	5110
3115.365	5129
3117.164	5109
3118.964	5114
3120.761	5139
3122.56	5066
3124.36	5024
3126.158	5186
3127.954	5044
3129.75	5062
3131.547	5036
3133.343	5096
3135.139	5045
3136.934	4978
3138.729	5043
3140.522	4913
3142.317	4985
3144.11	4993
3145.904	5135
3147.695	5019
3149.488	4949
3151.28	5018
3153.07	5032
3154.863	4984
3156.652	4934
3158.441	4917
3160.231	5062
3162.019	4915
3163.81	4937
3165.597	5023
3167.384	5065
3169.172	4945
3170.958	5064
3172.745	4885
3174.532	4972
3176.317	5046
3178.101	4905
3179.885	4960
3181.67	4923
3183.455	4990
3185.238	4897
3187.02	4859
3188.802	4905
3190.585	4888
3192.368	4901
3194.149	4960
3195.929	4961
3197.709	4866
3199.489	4871
3201.268	4937
3203.048	4972
3204.826	4849
3206.604	4908
3208.382	4952
3210.159	5031
3211.937	4825
3213.713	4978
3215.489	4975
3217.263	4961
3219.038	4989
3220.815	4988
3222.589	4931
3224.363	4930
3226.136	4970
3227.908	4942
3229.681	4889
3231.454	4911
3233.226	4814
3234.996	4920
3236.767	4947
3238.538	4829
3240.308	4925
3242.078	5083
3243.847	4972
3245.615	4927
3247.384	4901
3249.15	4878
3250.92	4854
3252.686	4902
3254.453	4929
3256.218	4969
3257.984	4860
3259.75	4848
3261.515	4980
3263.279	4845
3265.044	4902
3266.806	4940
3268.57	4939
3270.334	5010
3272.095	4933
3273.856	4933
3275.619	4872
3277.379	4970
3279.14	4926
3280.9	4858
3282.661	4960
3284.419	4972
3286.178	4959
3287.937	5026
3289.695	4901
3291.453	4883
3293.21	4793
3294.967	4955
3296.723	4864
3298.48	4903
3300.235	4948
3301.99	5016
3303.744	4953
3305.498	5026
3307.253	4888
3309.006	4859
3310.759	4978
3312.511	4907
3314.263	4857
3316.017	4909
3317.768	4945
3319.519	4938
3321.268	4895
3323.018	4910
3324.767	4978
3326.518	4913
3328.267	4844
3330.014	4849
3331.762	4917
3333.509	4947
3335.258	4863
3337.003	4835
3338.75	4876
3340.496	4926
3342.24	4829
3343.987	4921
3345.732	4854
3347.475	4848
3349.219	4838
3350.961	4911
3352.705	4850
3354.448	4858
3356.19	4908
3357.931	4953
3359.672	4806
3361.412	4825
3363.155	4850
3364.894	4768
3366.633	4838
3368.372	4807
3370.11	4861
3371.849	4724
3373.588	4767
3375.325	4699
3377.061	4725
3378.799	4744
3380.534	4762
3382.271	4692
3384.006	4857
3385.741	4730
3387.475	4643
3389.209	4645
3390.944	4669
3392.677	4740
3394.409	4633
3396.143	4779
3397.874	4721
3399.606	4699
3401.338	4794
3403.069	4744
3404.799	4812
3406.528	4722
3408.258	4639
3409.988	4777
3411.717	4797
3413.445	4754
3415.173	4735
3416.899	4749
3418.626	4739
3420.354	4623
3422.08	4715
3423.806	4697
3425.531	4651
3427.255	4741
3428.981	4775
3430.705	4584
3432.429	4638
3434.151	4639
3435.875	4633
3437.599	4667
3439.321	4632
3441.042	4598
3442.763	4707
3444.483	4613
3446.204	4654
3447.926	4568
3449.645	4651
3451.364	4575
3453.082	4585
3454.801	4605
3456.52	4602
3458.238	4527
3459.954	4584
3461.671	4485
3463.387	4551
3465.104	4515
3466.82	4434
3468.534	4497
3470.25	4528
3471.963	4458
3473.676	4499
3475.392	4486
3477.104	4505
3478.817	4466
3480.528	4510
3482.241	4438
3483.954	4581
3485.664	4562
3487.374	4408
3489.084	4456
3490.795	4420
3492.504	4554
3494.214	4511
3495.922	4402
3497.63	4418
3499.338	4449
3501.045	4353
3502.753	4443
3504.459	4379
3506.166	4432
3507.871	4366
3509.576	4369
3511.283	4384
3512.987	4354
3514.691	4351
3516.395	4321
3518.098	4385
3519.8	4333
3521.504	4294
3523.206	4424
3524.908	4409
3526.609	4342
3528.309	4371
3530.011	4285
3531.711	4315
3533.411	4251
3535.109	4359
3536.808	4306
3538.507	4349
3540.206	4421
3541.904	4252
3543.601	4385
3545.297	4286
3546.994	4196
3548.69	4372
3550.387	4260
3552.081	4318
3553.776	4282
3555.47	4244
3557.166	4293
3558.859	4366
3560.553	4183
3562.245	4282
3563.938	4282
3565.629	4223
3567.322	4168
3569.014	4295
3570.704	4269
3572.394	4306
3574.084	4316
3575.775	4152
3577.464	4159
3579.152	4226
3580.842	4147
3582.529	4209
3584.216	4150
3585.905	4281
3587.591	4181
3589.279	4154
3590.964	4169
3592.649	4240
3594.336	4207
3596.021	4121
3597.705	4128
3599.388	4197
3601.072	4139
3602.757	4126
3604.439	4090
3606.122	4123
3607.803	4114
3609.485	4164
3611.167	4050
3612.849	4116
3614.529	4146
3616.208	3933
3617.888	4059
3619.567	4058
3621.247	3926
3622.926	4004
3624.603	4015
3626.281	4150
3627.958	4011
3629.635	4022
3631.312	4068
3632.989	4025
3634.665	4039
3636.339	4023
3638.014	4028
3639.691	3983
3641.364	3962
3643.038	3871
3644.71	3976
3646.384	4019
3648.058	3982
3649.729	3955
3651.402	3955
3653.073	3957
3654.744	3912
3656.414	4027
3658.085	3979
3659.755	3987
3661.424	3924
3663.094	3973
3664.762	4003
3666.431	4005
3668.099	3928
3669.766	3906
3671.433	3951
3673.099	3988
3674.768	3944
3676.433	3944
3678.098	3979
3679.763	3900
3681.428	3976
3683.093	3879
3684.757	3829
3686.421	3822
3688.083	3926
3689.746	3836
3691.408	3899
3693.071	3844
3694.733	3880
3696.394	3900
3698.054	3912
3699.715	3858
3701.375	3872
3703.036	3932
3704.695	3828
3706.354	3903
3708.012	3906
3709.67	3737
3711.329	3852
3712.987	3863
3714.644	3836
3716.299	3794
3717.955	3852
3719.613	3882
3721.268	3874
3722.923	3844
3724.577	3797
3726.231	3803
3727.885	3851
3729.539	3830
3731.192	3892
3732.845	3800
3734.497	3850
3736.149	3891
3737.802	3811
3739.453	3858
3741.104	3859
3742.753	3783
3744.404	3816
3746.052	3777
3747.704	3812
3749.352	3787
3751	3842
3752.648	3780
3754.296	3783
3755.944	3768
3757.59	3753
3759.238	3810
3760.883	3732
3762.528	3708
3764.176	3794
3765.82	3749
3767.464	3832
3769.109	3864
3770.753	3768
3772.396	3726
3774.04	3769
3775.683	3761
3777.325	3706
3778.967	3797
3780.608	3747
3782.25	3801
3783.89	3742
3785.531	3730
3787.17	3757
3788.81	3710
3790.45	3684
3792.09	3725
3793.729	3704
3795.366	3593
3797.003	3668
3798.64	3709
3800.278	3733
3801.915	3657
3803.551	3636
3805.187	3658
3806.822	3650
3808.458	3683
3810.093	3677
3811.726	3626
3813.36	3660
3814.994	3547
3816.627	3689
3818.262	3653
3819.893	3653
3821.525	3581
3823.157	3685
3824.787	3576
3826.42	3606
3828.051	3615
3829.68	3637
3831.31	3584
3832.938	3624
3834.569	3605
3836.198	3625
3837.825	3689
3839.454	3652
3841.08	3640
3842.708	3653
3844.335	3563
3845.962	3561
3847.587	3607
3849.212	3627
3850.838	3598
3852.463	3546
3854.089	3544
3855.712	3567
3857.335	3583
3858.959	3606
3860.582	3500
3862.205	3558
3863.827	3510
3865.449	3533
3867.07	3551
3868.691	3516
3870.312	3507
3871.933	3490
3873.553	3529
3875.173	3496
3876.792	3521
3878.411	3564
3880.03	3563
3881.647	3549
3883.265	3435
3884.882	3453
3886.499	3586
3888.116	3531
3889.732	3521
3891.348	3482
3892.964	3507
3894.579	3548
3896.195	3546
3897.809	3500
3899.423	3499
3901.036	3541
3902.648	3520
3904.261	3540
3905.875	3480
3907.487	3528
3909.099	3452
3910.709	3423
3912.321	3503
3913.933	3503
3915.542	3508
3917.152	3426
3918.762	3390
3920.37	3501
3921.98	3430
3923.589	3517
3925.196	3491
3926.804	3508
3928.41	3514
3930.018	3439
3931.626	3553
3933.231	3485
3934.838	3398
3936.442	3490
3938.046	3435
3939.653	3481
3941.257	3438
3942.861	3494
3944.464	3416
3946.068	3426
3947.67	3392
3949.273	3478
3950.876	3368
3952.477	3408
3954.078	3443
3955.678	3336
3957.281	3309
3958.881	3370
3960.48	3375
3962.079	3450
3963.678	3370
3965.279	3364
3966.877	3423
3968.475	3395
3970.072	3340
3971.669	3417
3973.266	3397
3974.864	3343
3976.459	3418
3978.055	3366
3979.65	3354
3981.245	3340
3982.841	3374
3984.436	3387
3986.03	3369
3987.623	3353
3989.216	3306
3990.809	3288
3992.403	3339
3993.995	3355
3995.586	3317
3997.177	3278
3998.768	3289
4000.361	3354
4001.951	3304
4003.54	3337
4005.13	3260
4006.719	3257
4008.31	3257
4009.897	3283
4011.485	3268
4013.073	3284
4014.66	3271
4016.247	3255
4017.834	3260
4019.421	3269
4021.006	3242
4022.592	3248
4024.178	3264
4025.763	3147
4027.348	3206
4028.932	3203
4030.515	3212
4032.099	3202
4033.682	3175
4035.266	3267
4036.847	3169
4038.429	3220
4040.011	3167
4041.592	3176
4043.173	3183
4044.755	3172
4046.334	3223
4047.913	3187
4049.494	3165
4051.074	3247
4052.652	3228
4054.23	3108
4055.807	3165
4057.385	3151
4058.963	3109
4060.541	3163
4062.117	3128
4063.693	3187
4065.269	3095
4066.844	3232
4068.42	3199
4069.995	3101
4071.569	3172
4073.143	3140
4074.716	3187
4076.291	3228
4077.864	3112
4079.436	3188
4081.009	3129
4082.58	3137
4084.152	3148
4085.723	3125
4087.294	3158
4088.865	3127
4090.435	3091
4092.005	3116
4093.574	3128
4095.143	3111
4096.712	3111
4098.279	3041
4099.848	3170
4101.416	3041
4102.984	3092
4104.55	3041
4106.117	3059
4107.682	3155
4109.248	3100
4110.815	3097
4112.379	3075
4113.945	3081
4115.508	3108
4117.073	3093
4118.637	3099
4120.201	3035
4121.763	2995
4123.325	3035
4124.888	3055
4126.449	3063
4128.013	3044
4129.573	3045
4131.133	3107
4132.694	3075
4134.254	3096
4135.814	2981
4137.374	2987
4138.933	3064
4140.491	3075
4142.049	2995
4143.607	2972
4145.167	2955
4146.724	3067
4148.28	2967
4149.836	2958
4151.392	2968
4152.949	2963
4154.504	2925
4156.059	3075
4157.614	2947
4159.168	2960
4160.723	2993
4162.277	2984
4163.83	2971
4165.383	2968
4166.936	2939
4168.488	2936
4170.041	2853
4171.593	2888
4173.144	2950
4174.695	2958
4176.246	2891
4177.796	2879
4179.346	2928
4180.896	2883
4182.445	2842
4183.994	2884
4185.542	2848
4187.091	2903
4188.639	2874
4190.185	2833
4191.732	2865
4193.279	2930
4194.826	2961
4196.373	2834
4197.918	2827
4199.463	2957
4201.008	2908
4202.553	2827
4204.098	2873
4205.641	2868
4207.185	2859
4208.728	2889
4210.271	2833
4211.814	2889
4213.357	2892
4214.898	2861
4216.439	2762
4217.98	2898
4219.522	2834
4221.062	2854
4222.603	2825
4224.142	2891
4225.681	2909
4227.222	2794
4228.76	2799
4230.298	2821
4231.835	2866
4233.373	2868
4234.911	2814
4236.449	2806
4237.985	2810
4239.521	2789
4241.057	2835
4242.592	2725
4244.128	2808
4245.663	2814
4247.197	2757
4248.731	2727
4250.265	2791
4251.798	2822
4253.333	2816
4254.865	2771
4256.397	2759
4257.93	2781
4259.461	2748
4260.994	2801
4262.525	2812
4264.056	2808
4265.586	2842
4267.115	2787
4268.646	2769
4270.176	2743
4271.705	2766
4273.232	2713
4274.761	2721
4276.289	2752
4277.818	2724
4279.345	2854
4280.872	2746
4282.399	2760
4283.924	2732
4285.452	2813
4286.976	2718
4288.502	2712
4290.026	2773
4291.551	2698
4293.074	2679
4294.6	2686
4296.123	2738
4297.646	2714
4299.168	2725
4300.691	2740
4302.214	2704
4303.736	2644
4305.257	2705
4306.778	2713
4308.299	2660
4309.82	2703
4311.34	2671
4312.86	2753
4314.379	2724
