400.0745	4063
402.597	4112
405.1208	4133
407.6419	4163
410.1623	4111
412.6819	4114
415.201	4191
417.7172	4254
420.2369	4118
422.7538	4283
425.2701	4294
427.7856	4325
430.3005	4405
432.8147	4417
435.3282	4396
437.841	4241
440.3511	4329
442.8625	4409
445.3753	4376
447.8854	4443
450.3927	4376
452.9014	4263
455.4073	4445
457.9146	4350
460.4233	4451
462.9272	4328
465.4325	4354
467.935	4392
470.4389	4421
472.9421	4427
475.4446	4414
477.9444	4401
480.4456	4419
482.944	4525
485.4417	4434
487.9429	4388
490.4393	4424
492.935	4442
495.4321	4494
497.9264	4441
500.4221	4493
502.9171	4423
505.4094	4469
507.9011	4470
510.392	4571
512.8864	4556
515.3759	4519
517.8649	4655
520.3531	4606
522.8406	4410
525.3275	4601
527.8178	4566
530.3033	4592
532.7881	4625
535.2723	4578
537.7558	4519
540.2407	4549
542.7228	4484
545.2043	4567
547.6851	4550
550.1652	4628
552.6467	4546
555.1255	4616
557.6016	4657
560.079	4701
562.5557	4614
565.0318	4608
567.5092	4736
569.984	4642
572.456	4806
574.9294	4588
577.4022	4724
579.8762	4767
582.3456	4761
584.8163	4762
587.2863	4744
589.7557	4807
592.2224	4777
594.6924	4817
597.1578	4749
599.6245	4744
602.0905	4714
604.5538	4704
607.0206	4620
609.4825	4816
611.9459	4706
614.4066	4742
616.8686	4735
619.33	4835
621.7906	4674
624.2487	4702
626.708	4804
629.1647	4745
631.6207	4683
634.0801	4765
636.5348	4691
638.9888	4702
641.4442	4676
643.8969	4774
646.3509	4803
648.8022	4733
651.255	4734
653.705	4727
656.1544	4779
658.6031	4832
661.0532	4844
663.5026	4728
665.9493	4799
668.3954	4829
670.8409	4822
673.2877	4843
675.7318	4806
678.1752	4818
680.618	4951
683.0601	4818
685.5035	4889
687.9444	4877
690.3845	4942
692.824	4835
695.2628	4810
697.701	4958
700.1406	4918
702.5774	4983
705.0116	4771
707.4472	4934
709.8821	4938
712.3183	5030
714.7519	5041
717.1829	4946
719.6151	4929
722.0468	5005
724.4777	4926
726.908	5021
729.3377	5022
731.7667	5066
734.1931	5080
736.6208	5072
739.0498	5015
741.4742	5157
743.9	5050
746.3231	5177
748.7476	5122
751.1713	5220
753.5945	5226
756.015	5242
758.4368	5250
760.856	5146
763.2766	5276
765.6965	5341
768.1157	5276
770.5323	5245
772.9483	5177
775.3656	5293
777.7822	5159
780.1963	5231
782.6116	5337
785.0244	5355
787.4365	5289
789.8499	5170
792.2626	5274
794.6728	5212
797.0823	5185
799.4911	5359
801.8994	5206
804.3109	5229
806.7178	5235
809.124	5296
811.5297	5275
813.9347	5319
816.341	5360
818.7447	5341
821.1478	5352
823.5502	5274
825.952	5308
828.3531	5297
830.7556	5281
833.1554	5342
835.5546	5396
837.9532	5189
840.3511	5395
842.7504	5353
845.1451	5394
847.5411	5357
849.9365	5454
852.3312	5445
854.7272	5535
857.1187	5418
859.5115	5502
861.9037	5386
864.2952	5419
866.6842	5379
869.0764	5437
871.4661	5430
873.8531	5332
876.2415	5483
878.6272	5387
881.0162	5411
883.4026	5455
885.7866	5347
888.1717	5486
890.5543	5384
892.9382	5413
895.3215	5432
897.7041	5426
900.0842	5377
902.4655	5382
904.8443	5366
907.2244	5608
909.6039	5499
911.9808	5551
914.357	5515
916.7346	5562
919.1115	5581
921.4859	5636
923.8616	5770
926.2347	5623
928.6071	5731
930.979	5729
933.3541	5690
935.7247	5799
938.0946	5608
940.4639	5825
942.8326	5868
945.2026	5799
947.5701	5920
949.9369	6072
952.305	6176
954.6705	6428
957.0355	6667
959.4017	6710
961.7654	6865
964.1284	6760
966.4908	6782
968.8527	6572
971.2138	6290
973.5743	6068
975.9343	5929
978.2936	5872
980.6522	5764
983.0122	5582
985.3696	5608
987.7245	5576
990.0807	5670
992.4362	5646
994.7911	5598
997.1474	5572
999.4991	5643
1001.852	5656
1004.205	5723
1006.555	5690
1008.908	5611
1011.258	5734
1013.606	5581
1015.956	5645
1018.302	5693
1020.652	5605
1022.998	5731
1025.345	5666
1027.691	5634
1030.035	5643
1032.378	5721
1034.724	5664
1037.066	5674
1039.409	5777
1041.75	5754
1044.092	5744
1046.433	5744
1048.771	5786
1051.112	5769
1053.449	5757
1055.786	5752
1058.124	5711
1060.462	5719
1062.797	5846
1065.131	5878
1067.467	5803
1069.8	5825
1072.135	5790
1074.467	5712
1076.798	5858
1079.129	5836
1081.459	5703
1083.792	5811
1086.121	5721
1088.449	5848
1090.777	5779
1093.104	5729
1095.431	5771
1097.759	5820
1100.084	5809
1102.408	5742
1104.732	5667
1107.056	5741
1109.379	5727
1111.701	5736
1114.022	5815
1116.343	5804
1118.664	5705
1120.983	5771
1123.303	5778
1125.621	5810
1127.939	5868
1130.256	5725
1132.573	5726
1134.889	5892
1137.205	5813
1139.52	5820
1141.832	5783
1144.146	5780
1146.461	5684
1148.771	5789
1151.083	5721
1153.392	5807
1155.703	5659
1158.011	5832
1160.323	5871
1162.629	5829
1164.938	5843
1167.243	5901
1169.55	5845
1171.857	5665
1174.163	5731
1176.466	5744
1178.769	5795
1181.073	5764
1183.374	5768
1185.677	5781
1187.979	5760
1190.279	5632
1192.578	5684
1194.878	5766
1197.178	5672
1199.476	5708
1201.772	5752
1204.068	5726
1206.366	5798
1208.663	5733
1210.957	5798
1213.251	5789
1215.544	5784
1217.836	5742
1220.128	5820
1222.421	5859
1224.712	5781
1227.002	5765
1229.292	5793
1231.581	5814
1233.871	5843
1236.159	5871
1238.446	5875
1240.732	5945
1243.018	6058
1245.304	5952
1247.59	6054
1249.874	5957
1252.156	5973
1254.439	5900
1256.721	5972
1259.005	6005
1261.286	6007
1263.565	5941
1265.845	5914
1268.125	5987
1270.403	5952
1272.682	6019
1274.959	5941
1277.234	6002
1279.511	5921
1281.787	5958
1284.062	5934
1286.337	6032
1288.609	5951
1290.882	5826
1293.153	5948
1295.428	5886
1297.698	5959
1299.969	5857
1302.237	5844
1304.507	5880
1306.777	5938
1309.044	5935
1311.312	5861
1313.578	5748
1315.844	5812
1318.109	5942
1320.375	5830
1322.638	5890
1324.903	5830
1327.165	5894
1329.427	5884
1331.69	5842
1333.952	5933
1336.212	5855
1338.471	5993
1340.73	5889
1342.988	5792
1345.248	5927
1347.505	5993
1349.763	5862
1352.019	6004
1354.274	5945
1356.53	5747
1358.784	5874
1361.038	5875
1363.291	5879
1365.543	5810
1367.797	5850
1370.048	5896
1372.296	5865
1374.546	5899
1376.796	5988
1379.045	5863
1381.295	5859
1383.542	5905
1385.787	5996
1388.034	5893
1390.28	6087
1392.527	5919
1394.772	6004
1397.014	5956
1399.258	6027
1401.501	5900
1403.741	5926
1405.985	6016
1408.226	5883
1410.465	6009
1412.705	6006
1414.943	5975
1417.184	6097
1419.42	5983
1421.658	6082
1423.894	5961
1426.13	6107
1428.366	6163
1430.602	6049
1432.835	5954
1435.069	6075
1437.301	6016
1439.535	6041
1441.767	6086
1443.997	6139
1446.229	6087
1448.458	6119
1450.687	6177
1452.916	6123
1455.146	6112
1457.372	6147
1459.599	6178
1461.824	6244
1464.051	6173
1466.277	6131
1468.501	6212
1470.725	6142
1472.948	6091
1475.17	5942
1477.393	6093
1479.614	5922
1481.837	5959
1484.057	6028
1486.276	5939
1488.497	5867
1490.715	5923
1492.932	5880
1495.148	5875
1497.364	5920
1499.58	5877
1501.798	5969
1504.012	5895
1506.227	5875
1508.44	5853
1510.653	5807
1512.866	5774
1515.078	5877
1517.289	5960
1519.5	5877
1521.711	5815
1523.92	5884
1526.13	6003
1528.338	5792
1530.544	5919
1532.752	5862
1534.959	5915
1537.165	5956
1539.371	5762
1541.574	6026
1543.779	5859
1545.983	6006
1548.187	5967
1550.39	5901
1552.59	5918
1554.792	5848
1556.991	5976
1559.19	5948
1561.392	5964
1563.59	5929
1565.789	5867
1567.986	5995
1570.182	6089
1572.381	5979
1574.576	5903
1576.771	5958
1578.966	6086
1581.16	5967
1583.354	6084
1585.546	6021
1587.74	5946
1589.931	6004
1592.121	6026
1594.311	6104
1596.502	6040
1598.693	6013
1600.881	5995
1603.069	6058
1605.256	6000
1607.445	6077
1609.631	6016
1611.816	6071
1614.001	6122
1616.186	6133
1618.37	6073
1620.555	6101
1622.737	5998
1624.919	6149
1627.101	6157
1629.282	6114
1631.463	6087
1633.643	6119
1635.822	6061
1638.001	6113
1640.179	6048
1642.359	6140
1644.534	6087
1646.711	6076
1648.887	6123
1651.062	6229
1653.235	6130
1655.412	6064
1657.586	6202
1659.757	6192
1661.93	6225
1664.1	6200
1666.274	6125
1668.445	6165
1670.614	6200
1672.784	6141
1674.951	6170
1677.12	6243
1679.289	6228
1681.457	6281
1683.622	6147
1685.789	6160
1687.953	6133
1690.121	6282
1692.284	6141
1694.447	6128
1696.611	6030
1698.772	6022
1700.935	6115
1703.098	6119
1705.258	6158
1707.417	6121
1709.576	6111
1711.736	5975
1713.896	6048
1716.053	5994
1718.21	6040
1720.366	6029
1722.522	5945
1724.68	6040
1726.835	5942
1728.989	5974
1731.142	5978
1733.295	5994
1735.449	5965
1737.601	5945
1739.753	5959
1741.903	6041
1744.054	5901
1746.203	5946
1748.354	6009
1750.503	5900
1752.651	5998
1754.798	6024
1756.944	5945
1759.092	6066
1761.238	6012
1763.383	6132
1765.528	6125
1767.672	6029
1769.814	6022
1771.959	6054
1774.102	6050
1776.242	6105
1778.384	6156
1780.525	6071
1782.665	5981
1784.805	6162
1786.945	6064
1789.082	6071
1791.22	6068
1793.36	6062
1795.495	6071
1797.632	6100
1799.766	6009
1801.902	6139
1804.035	6163
1806.172	6084
1808.304	6060
1810.436	6042
1812.569	6028
1814.699	6112
1816.833	6030
1818.963	6164
1821.092	6047
1823.222	6095
1825.35	5970
1827.478	5941
1829.608	6160
1831.734	6055
1833.86	6031
1835.986	6089
1838.11	6046
1840.238	6013
1842.362	6025
1844.485	6090
1846.608	6025
1848.73	6031
1850.853	5924
1852.974	6111
1855.097	5980
1857.217	6040
1859.336	6135
1861.455	5973
1863.576	6005
1865.693	5943
1867.811	5938
1869.926	6037
1872.042	5969
1874.16	6000
1876.275	5913
1878.39	5979
1880.504	5969
1882.618	6008
1884.731	6000
1886.843	5948
1888.956	5952
1891.067	5934
1893.178	6150
1895.287	5920
1897.399	5980
1899.508	6078
1901.617	5992
1903.724	5997
1905.832	6157
1907.941	5960
1910.046	5978
1912.152	6115
1914.256	6141
1916.361	6089
1918.464	6075
1920.57	6002
1922.672	6100
1924.775	6085
1926.876	6132
1928.978	6127
1931.08	6164
1933.181	6093
1935.28	6120
1937.38	6187
1939.478	6132
1941.577	6157
1943.675	6073
1945.771	6143
1947.867	6140
1949.964	6069
1952.058	6133
1954.154	6087
1956.248	5967
1958.343	5992
1960.435	6090
1962.527	6220
1964.62	6076
1966.711	6042
1968.802	6074
1970.892	5961
1972.983	5917
1975.072	6090
1977.162	6054
1979.25	6007
1981.337	6027
1983.424	6011
1985.51	6017
1987.598	6063
1989.683	5969
1991.768	5935
1993.852	6008
1995.934	5941
1998.019	5940
2000.102	5958
2002.184	6063
2004.266	5955
2006.347	6043
2008.427	5863
2010.508	5892
2012.587	6049
2014.666	5950
2016.745	6053
2018.821	5965
2020.9	6036
2022.977	5886
2025.052	5979
2027.128	6052
2029.204	6031
2031.277	6004
2033.353	5986
2035.425	6059
2037.499	5979
2039.57	6004
2041.642	6042
2043.714	6013
2045.786	6051
2047.855	6095
2049.925	6031
2051.993	5949
2054.064	6042
2056.132	5882
2058.2	5972
2060.266	6071
2062.332	6075
2064.398	5977
2066.465	5933
2068.529	5999
2070.592	5896
2072.657	6102
2074.719	5972
2076.783	5940
2078.845	6099
2080.907	5958
2082.968	5995
2085.028	6148
2087.087	6059
2089.148	6007
2091.207	5906
2093.264	5948
2095.322	6103
2097.379	5918
2099.439	6074
2101.495	5988
2103.55	5950
2105.605	6040
2107.658	6088
2109.713	5911
2111.767	5925
2113.82	5999
2115.872	5882
2117.924	6051
2119.975	5998
2122.028	5972
2124.078	6020
2126.126	6086
2128.176	5981
2130.225	5997
2132.275	5981
2134.321	5889
2136.368	5895
2138.415	6000
2140.461	5882
2142.505	5972
2144.552	6043
2146.597	6015
2148.64	5948
2150.684	6086
2152.725	5973
2154.77	5928
2156.811	5918
2158.852	5985
2160.894	5943
2162.933	5924
2164.973	5910
2167.013	5892
2169.051	5897
2171.089	5893
2173.126	6042
2175.164	6086
2177.201	5833
2179.236	5866
2181.273	5848
2183.307	5976
2185.341	6015
2187.377	5771
2189.41	5790
2191.442	5975
2193.473	5873
2195.506	5907
2197.539	5797
2199.569	5760
2201.598	5914
2203.628	5821
2205.656	5863
2207.686	5822
2209.716	5919
2211.743	5950
2213.769	5818
2215.796	5876
2217.821	5921
2219.848	5754
2221.873	5868
2223.897	5885
2225.921	5852
2227.944	5807
2229.967	5787
2231.991	5801
2234.011	5886
2236.032	5786
2238.053	5789
2240.073	5757
2242.094	5843
2244.114	5735
2246.131	5878
2248.149	5944
2250.167	5810
2252.186	5824
2254.201	5930
2256.218	5783
2258.233	5820
2260.247	5781
2262.262	5780
2264.278	5736
2266.29	5827
2268.303	5933
2270.315	5712
2272.327	5784
2274.341	5808
2276.35	5852
2278.361	5710
2280.37	5805
2282.38	5794
2284.388	5819
2286.397	5743
2288.405	5771
2290.412	5795
2292.419	5763
2294.425	5780
2296.431	5792
2298.437	5795
2300.441	5750
2302.445	5771
2304.449	5743
2306.453	5773
2308.455	5803
2310.457	5822
2312.459	5798
2314.46	5778
2316.46	5752
2318.461	5739
2320.46	5780
2322.458	5686
2324.458	5728
2326.456	5759
2328.455	5740
2330.451	5788
2332.447	5649
2334.443	5840
2336.438	5767
2338.433	5762
2340.429	5655
2342.422	5628
2344.416	5693
2346.408	5712
2348.399	5701
2350.393	5640
2352.384	5701
2354.375	5704
2356.365	5685
2358.355	5611
2360.344	5697
2362.333	5656
2364.322	5667
2366.309	5632
2368.295	5621
2370.282	5661
2372.27	5611
2374.256	5645
2376.24	5677
2378.225	5510
2380.208	5618
2382.194	5643
2384.177	5594
2386.159	5626
2388.142	5687
2390.122	5575
2392.105	5636
2394.085	5548
2396.066	5496
2398.044	5548
2400.024	5611
2402.002	5510
2403.982	5534
2405.959	5549
2407.935	5628
2409.913	5621
2411.888	5519
2413.865	5530
2415.84	5550
2417.814	5520
2419.788	5640
2421.762	5609
2423.735	5623
2425.708	5539
2427.68	5536
2429.651	5661
2431.623	5555
2433.593	5532
2435.564	5489
2437.533	5705
2439.502	5537
2441.47	5593
2443.438	5626
2445.406	5573
2447.373	5560
2449.34	5583
2451.305	5573
2453.271	5605
2455.235	5590
2457.201	5623
2459.165	5515
2461.129	5545
2463.092	5468
2465.054	5525
2467.018	5399
2468.978	5518
2470.939	5401
2472.899	5468
2474.86	5459
2476.819	5449
2478.778	5496
2480.737	5531
2482.695	5576
2484.653	5511
2486.609	5494
2488.567	5520
2490.524	5559
2492.478	5479
2494.433	5530
2496.387	5463
2498.343	5427
2500.297	5476
2502.249	5472
2504.202	5450
2506.153	5399
2508.105	5415
2510.057	5465
2512.008	5440
2513.957	5483
2515.906	5440
2517.855	5432
2519.805	5397
2521.754	5361
2523.7	5520
2525.647	5470
2527.594	5427
2529.54	5424
2531.486	5398
2533.431	5433
2535.376	5447
2537.32	5327
2539.263	5475
2541.207	5457
2543.151	5352
2545.093	5414
2547.034	5466
2548.975	5478
2550.917	5358
2552.856	5438
2554.796	5446
2556.735	5398
2558.673	5364
2560.611	5415
2562.55	5315
2564.487	5444
2566.424	5411
2568.36	5387
2570.296	5333
2572.232	5442
2574.167	5422
2576.101	5418
2578.035	5484
2579.969	5337
2581.902	5358
2583.834	5444
2585.766	5460
2587.698	5421
2589.628	5480
2591.557	5490
2593.489	5396
2595.419	5298
2597.348	5405
2599.275	5387
2601.204	5337
2603.131	5380
2605.059	5473
2606.986	5433
2608.911	5425
2610.837	5323
2612.76	5339
2614.687	5420
2616.61	5297
2618.534	5429
2620.457	5440
2622.38	5395
2624.302	5381
2626.225	5411
2628.145	5377
2630.067	5491
2631.986	5368
2633.906	5437
2635.827	5389
2637.745	5411
2639.662	5428
2641.581	5365
2643.498	5406
2645.415	5400
2647.331	5341
2649.248	5296
2651.163	5394
2653.077	5407
2654.993	5325
2656.906	5447
2658.821	5375
2660.733	5409
2662.646	5451
2664.557	5361
2666.47	5430
2668.381	5436
2670.291	5380
2672.201	5424
2674.11	5394
2676.021	5379
2677.929	5387
2679.837	5322
2681.745	5352
2683.652	5352
2685.56	5373
2687.466	5384
2689.371	5456
2691.276	5343
2693.181	5243
2695.085	5362
2696.991	5357
2698.893	5237
2700.796	5302
2702.698	5305
2704.601	5315
2706.502	5288
2708.404	5301
2710.304	5399
2712.203	5245
2714.103	5327
2716.003	5264
2717.902	5278
2719.8	5272
2721.697	5301
2723.594	5183
2725.49	5193
2727.389	5343
2729.283	5195
2731.179	5319
2733.073	5239
2734.968	5269
2736.863	5285
2738.757	5310
2740.649	5339
2742.541	5153
2744.433	5194
2746.324	5279
2748.216	5177
2750.107	5278
2751.997	5202
2753.886	5161
2755.776	5219
2757.666	5267
2759.553	5263
2761.44	5167
2763.327	5207
2765.215	5186
2767.102	5224
2768.988	5158
2770.873	5297
2772.757	5209
2774.641	5229
2776.525	5209
2778.41	5255
2780.292	5155
2782.175	5167
2784.057	5309
2785.938	5174
2787.821	5120
2789.701	5113
2791.581	5167
2793.461	5212
2795.34	5154
2797.219	5143
2799.099	5182
2800.975	5216
2802.853	5099
2804.73	5206
2806.606	5160
2808.484	5166
2810.358	5171
2812.233	5162
2814.108	5133
2815.981	5108
2817.857	5134
2819.73	5136
2821.602	5154
2823.474	5158
2825.346	5231
2827.217	5181
2829.089	5112
2830.959	5160
2832.829	5280
2834.698	5132
2836.567	5197
2838.436	5233
2840.305	5260
2842.172	5226
2844.04	5068
2845.905	5156
2847.772	5299
2849.639	5127
2851.503	5209
2853.369	5144
2855.232	5224
2857.096	5272
2858.961	5221
2860.824	5305
2862.686	5206
2864.547	5386
2866.41	5296
2868.272	5342
2870.132	5473
2871.992	5379
2873.851	5361
2875.711	5285
2877.57	5397
2879.429	5362
2881.287	5469
2883.144	5541
2885.001	5568
2886.857	5549
2888.714	5552
2890.57	5568
2892.425	5541
2894.279	5599
2896.133	5488
2897.987	5593
2899.842	5528
2901.694	5506
2903.547	5477
2905.397	5622
2907.249	5486
2909.101	5572
2910.952	5538
2912.802	5519
2914.652	5467
2916.5	5664
2918.35	5565
2920.198	5729
2922.045	5717
2923.893	5693
2925.74	5795
2927.585	5762
2929.433	5805
2931.279	5879
2933.123	5984
2934.968	5978
2936.811	6041
2938.656	6010
2940.5	6091
2942.342	6222
2944.185	6018
2946.026	6055
2947.87	6115
2949.71	6034
2951.549	6090
2953.39	6031
2955.229	5953
2957.069	5958
2958.908	5847
2960.746	5875
2962.584	5879
2964.421	5765
2966.257	5803
2968.094	5720
2969.931	5716
2971.766	5674
2973.601	5461
2975.435	5635
2977.27	5636
2979.105	5508
2980.938	5602
2982.77	5491
2984.602	5534
2986.434	5478
2988.267	5441
2990.097	5474
2991.927	5339
2993.757	5379
2995.587	5435
2997.417	5322
2999.246	5322
3001.074	5190
3002.902	5265
3004.729	5217
3006.556	5197
3008.384	5155
3010.21	5072
3012.036	5040
3013.861	5043
3015.684	4991
3017.51	5107
3019.334	4955
3021.157	5016
3022.981	5005
3024.802	4950
3026.624	4904
3028.448	4903
3030.267	4875
3032.088	4867
3033.909	4896
3035.728	4868
3037.549	4827
3039.368	4876
3041.186	4947
3043.004	4867
3044.821	4818
3046.64	4894
3048.455	4834
3050.272	4756
3052.087	4760
3053.903	4872
3055.717	4740
3057.534	4755
3059.347	4802
3061.16	4786
3062.974	4823
3064.785	4862
3066.598	4806
3068.411	4869
3070.222	4858
3072.032	4764
3073.844	4731
3075.653	4712
3077.463	4766
3079.272	4750
3081.08	4655
3082.889	4739
3084.697	4712
3086.505	4690
3088.312	4781
3090.118	4725
3091.924	4709
3093.729	4732
3095.535	4601
3097.34	4724
3099.144	4730
3100.947	4701
3102.75	4724
3104.553	4604
3106.357	4635
3108.159	4642
3109.961	4682
3111.762	4657
3113.562	4639
3115.365	4686
3117.164	4614
3118.964	4625
3120.761	4608
3122.56	4484
3124.36	4627
3126.158	4587
3127.954	4611
3129.75	4586
3131.547	4674
3133.343	4590
3135.139	4606
3136.934	4604
3138.729	4539
3140.522	4501
3142.317	4619
3144.11	4508
3145.904	4605
3147.695	4538
3149.488	4527
3151.28	4589
3153.07	4595
3154.863	4463
3156.652	4570
3158.441	4545
3160.231	4579
3162.019	4515
3163.81	4507
3165.597	4478
3167.384	4529
3169.172	4570
3170.958	4549
3172.745	4478
3174.532	4485
3176.317	4459
3178.101	4476
3179.885	4459
3181.67	4570
3183.455	4483
3185.238	4549
3187.02	4498
3188.802	4415
3190.585	4486
3192.368	4387
3194.149	4412
3195.929	4404
3197.709	4427
3199.489	4568
3201.268	4374
3203.048	4412
3204.826	4431
3206.604	4444
3208.382	4565
3210.159	4430
3211.937	4415
3213.713	4422
3215.489	4405
3217.263	4413
3219.038	4446
3220.815	4540
3222.589	4518
3224.363	4424
3226.136	4375
3227.908	4423
3229.681	4447
3231.454	4469
3233.226	4372
3234.996	4425
3236.767	4451
3238.538	4367
3240.308	4398
3242.078	4350
3243.847	4435
3245.615	4354
3247.384	4384
3249.15	4449
3250.92	4406
3252.686	4327
3254.453	4334
3256.218	4442
3257.984	4402
3259.75	4433
3261.515	4412
3263.279	4486
3265.044	4391
3266.806	4391
3268.57	4442
3270.334	4409
3272.095	4422
3273.856	4393
3275.619	4344
3277.379	4516
3279.14	4393
3280.9	4434
3282.661	4372
3284.419	4434
3286.178	4454
3287.937	4356
3289.695	4302
3291.453	4330
3293.21	4472
3294.967	4444
3296.723	4391
3298.48	4377
3300.235	4396
3301.99	4470
3303.744	4455
3305.498	4449
3307.253	4340
3309.006	4391
3310.759	4410
3312.511	4454
3314.263	4386
3316.017	4424
3317.768	4435
3319.519	4424
3321.268	4369
3323.018	4368
3324.767	4370
3326.518	4375
3328.267	4427
3330.014	4393
3331.762	4361
3333.509	4339
3335.258	4427
3337.003	4362
3338.75	4344
3340.496	4327
3342.24	4421
3343.987	4356
3345.732	4364
3347.475	4333
3349.219	4336
3350.961	4251
3352.705	4356
3354.448	4317
3356.19	4207
3357.931	4340
3359.672	4347
3361.412	4357
3363.155	4329
3364.894	4417
3366.633	4287
3368.372	4301
3370.11	4270
3371.849	4253
3373.588	4246
3375.325	4333
3377.061	4372
3378.799	4190
3380.534	4296
3382.271	4268
3384.006	4257
3385.741	4221
3387.475	4302
3389.209	4223
3390.944	4192
3392.677	4151
3394.409	4290
3396.143	4284
3397.874	4171
3399.606	4198
3401.338	4228
3403.069	4216
3404.799	4180
3406.528	4208
3408.258	4185
3409.988	4207
3411.717	4240
3413.445	4236
3415.173	4141
3416.899	4155
3418.626	4189
3420.354	4167
3422.08	4164
3423.806	4273
3425.531	4131
3427.255	4083
3428.981	4144
3430.705	4278
3432.429	4156
3434.151	4127
3435.875	4172
3437.599	4133
3439.321	4033
3441.042	4134
3442.763	4098
3444.483	4089
3446.204	4179
3447.926	4030
3449.645	4008
3451.364	4071
3453.082	4079
3454.801	4213
3456.52	4039
3458.238	4013
3459.954	4015
3461.671	4012
3463.387	4015
3465.104	4023
3466.82	4057
3468.534	4111
3470.25	3992
3471.963	4036
3473.676	3964
3475.392	4007
3477.104	4039
3478.817	3988
3480.528	4001
3482.241	4068
3483.954	3973
3485.664	4035
3487.374	3902
3489.084	4006
3490.795	3812
3492.504	3999
3494.214	3909
3495.922	3948
3497.63	4033
3499.338	3959
3501.045	3996
3502.753	3928
3504.459	3900
3506.166	3936
3507.871	3945
3509.576	3917
3511.283	3884
3512.987	3934
3514.691	3916
3516.395	3749
3518.098	3935
3519.8	3926
3521.504	3897
3523.206	3788
3524.908	3800
3526.609	3880
3528.309	3807
3530.011	3913
3531.711	3842
3533.411	3834
3535.109	3856
3536.808	3866
3538.507	3865
3540.206	3757
3541.904	3857
3543.601	3807
3545.297	3815
3546.994	3833
3548.69	3779
3550.387	3874
3552.081	3783
3553.776	3771
3555.47	3822
3557.166	3764
3558.859	3839
3560.553	3780
3562.245	3748
3563.938	3778
3565.629	3700
3567.322	3759
3569.014	3818
3570.704	3732
3572.394	3835
3574.084	3803
3575.775	3761
3577.464	3834
3579.152	3770
3580.842	3735
3582.529	3730
3584.216	3740
3585.905	3697
3587.591	3773
3589.279	3640
3590.964	3720
3592.649	3642
3594.336	3717
3596.021	3714
3597.705	3705
3599.388	3756
3601.072	3637
3602.757	3780
3604.439	3645
3606.122	3570
3607.803	3728
3609.485	3669
3611.167	3603
3612.849	3636
3614.529	3656
3616.208	3631
3617.888	3610
3619.567	3609
3621.247	3582
3622.926	3665
3624.603	3608
3626.281	3656
3627.958	3635
3629.635	3494
3631.312	3492
3632.989	3546
3634.665	3595
3636.339	3583
3638.014	3552
3639.691	3642
3641.364	3532
3643.038	3543
3644.71	3612
3646.384	3584
3648.058	3472
3649.729	3520
3651.402	3508
3653.073	3578
3654.744	3547
3656.414	3561
3658.085	3499
3659.755	3567
3661.424	3524
3663.094	3551
3664.762	3511
3666.431	3572
3668.099	3425
3669.766	3499
3671.433	3420
3673.099	3432
3674.768	3482
3676.433	3449
3678.098	3457
3679.763	3423
3681.428	3510
3683.093	3430
3684.757	3401
3686.421	3459
3688.083	3423
3689.746	3430
3691.408	3435
3693.071	3440
3694.733	3377
3696.394	3443
3698.054	3411
3699.715	3471
3701.375	3482
3703.036	3405
3704.695	3400
3706.354	3487
3708.012	3401
3709.67	3388
3711.329	3370
3712.987	3390
3714.644	3504
3716.299	3314
3717.955	3358
3719.613	3403
3721.268	3388
3722.923	3372
3724.577	3326
3726.231	3372
3727.885	3328
3729.539	3433
3731.192	3309
3732.845	3360
3734.497	3362
3736.149	3344
3737.802	3364
3739.453	3396
3741.104	3324
3742.753	3353
3744.404	3448
3746.052	3277
3747.704	3316
3749.352	3380
3751	3346
3752.648	3335
3754.296	3333
3755.944	3337
3757.59	3245
3759.238	3354
3760.883	3361
3762.528	3353
3764.176	3287
3765.82	3350
3767.464	3302
3769.109	3227
3770.753	3271
3772.396	3265
3774.04	3261
3775.683	3259
3777.325	3273
3778.967	3246
3780.608	3300
3782.25	3235
3783.89	3243
3785.531	3318
3787.17	3278
3788.81	3261
3790.45	3163
3792.09	3225
3793.729	3199
3795.366	3272
3797.003	3225
3798.64	3277
3800.278	3274
3801.915	3155
3803.551	3302
3805.187	3196
3806.822	3258
3808.458	3251
3810.093	3164
3811.726	3210
3813.36	3231
3814.994	3220
3816.627	3245
3818.262	3105
3819.893	3256
3821.525	3172
3823.157	3207
3824.787	3230
3826.42	3137
3828.051	3240
3829.68	3065
3831.31	3220
3832.938	3148
3834.569	3139
3836.198	3155
3837.825	3157
3839.454	3153
3841.08	3111
3842.708	3093
3844.335	3134
3845.962	3181
3847.587	3154
3849.212	3187
3850.838	3206
3852.463	3161
3854.089	3156
3855.712	3086
3857.335	3086
3858.959	3144
3860.582	3100
3862.205	3067
3863.827	3071
3865.449	3035
3867.07	3111
3868.691	3064
3870.312	3140
3871.933	3115
3873.553	3060
3875.173	3082
3876.792	3064
3878.411	3105
3880.03	3091
3881.647	3103
3883.265	3063
3884.882	3030
3886.499	3022
3888.116	3102
3889.732	3043
3891.348	3159
3892.964	3091
3894.579	3084
3896.195	3062
3897.809	3065
3899.423	3041
3901.036	3103
3902.648	3060
3904.261	3084
3905.875	3042
3907.487	3076
3909.099	3048
3910.709	3020
3912.321	3023
3913.933	3000
3915.542	3003
3917.152	3119
3918.762	2953
3920.37	3030
3921.98	3040
3923.589	2982
3925.196	3056
3926.804	3079
3928.41	3033
3930.018	2979
3931.626	3025
3933.231	3044
3934.838	3040
3936.442	3004
3938.046	2994
3939.653	3035
3941.257	2938
3942.861	3004
3944.464	3029
3946.068	2993
3947.67	2954
3949.273	2947
3950.876	2981
3952.477	2959
3954.078	3011
3955.678	2933
3957.281	3025
3958.881	2961
3960.48	3039
3962.079	3013
3963.678	2930
3965.279	2983
3966.877	2963
3968.475	2939
3970.072	3034
3971.669	2980
3973.266	2906
3974.864	2884
3976.459	2978
3978.055	2942
3979.65	2925
3981.245	2941
3982.841	2978
3984.436	2906
3986.03	2902
3987.623	2996
3989.216	2918
3990.809	2911
3992.403	2850
3993.995	2908
3995.586	2894
3997.177	2818
3998.768	2877
4000.361	2876
4001.951	2874
4003.54	2828
4005.13	2882
4006.719	2879
4008.31	2878
4009.897	2874
4011.485	2848
4013.073	2862
4014.66	2785
4016.247	2881
4017.834	2906
4019.421	2850
4021.006	2810
4022.592	2754
4024.178	2878
4025.763	2812
4027.348	2815
4028.932	2751
4030.515	2801
4032.099	2826
4033.682	2839
4035.266	2728
4036.847	2948
4038.429	2790
4040.011	2776
4041.592	2771
4043.173	2784
4044.755	2857
4046.334	2742
4047.913	2838
4049.494	2823
4051.074	2693
4052.652	2821
4054.23	2735
4055.807	2760
4057.385	2744
4058.963	2781
4060.541	2720
4062.117	2775
4063.693	2791
4065.269	2793
4066.844	2714
4068.42	2723
4069.995	2767
4071.569	2745
4073.143	2743
4074.716	2819
4076.291	2702
4077.864	2630
4079.436	2761
4081.009	2705
4082.58	2646
4084.152	2655
4085.723	2647
4087.294	2697
4088.865	2685
4090.435	2665
4092.005	2776
4093.574	2695
4095.143	2751
4096.712	2731
4098.279	2651
4099.848	2738
4101.416	2666
4102.984	2637
4104.55	2693
4106.117	2745
4107.682	2680
4109.248	2715
4110.815	2654
4112.379	2645
4113.945	2634
4115.508	2671
4117.073	2658
4118.637	2666
4120.201	2610
4121.763	2606
4123.325	2686
4124.888	2663
4126.449	2660
4128.013	2665
4129.573	2654
4131.133	2626
4132.694	2646
4134.254	2587
4135.814	2570
4137.374	2567
4138.933	2599
4140.491	2668
4142.049	2587
4143.607	2602
4145.167	2596
4146.724	2622
4148.28	2619
4149.836	2556
4151.392	2575
4152.949	2582
4154.504	2613
4156.059	2556
4157.614	2568
4159.168	2600
4160.723	2594
4162.277	2631
4163.83	2539
4165.383	2506
4166.936	2585
4168.488	2605
4170.041	2568
4171.593	2556
4173.144	2632
4174.695	2549
4176.246	2547
4177.796	2523
4179.346	2544
4180.896	2520
4182.445	2569
4183.994	2563
4185.542	2501
4187.091	2520
4188.639	2509
4190.185	2502
4191.732	2539
4193.279	2514
4194.826	2477
4196.373	2551
4197.918	2544
4199.463	2509
4201.008	2510
4202.553	2526
4204.098	2504
4205.641	2518
4207.185	2436
4208.728	2496
4210.271	2502
4211.814	2500
4213.357	2494
4214.898	2485
4216.439	2473
4217.98	2522
4219.522	2406
4221.062	2496
4222.603	2499
4224.142	2514
4225.681	2449
4227.222	2456
4228.76	2552
4230.298	2509
4231.835	2476
4233.373	2450
4234.911	2422
4236.449	2465
4237.985	2387
4239.521	2425
4241.057	2459
4242.592	2447
4244.128	2450
4245.663	2486
4247.197	2447
4248.731	2409
4250.265	2383
4251.798	2424
4253.333	2405
4254.865	2425
4256.397	2450
4257.93	2405
4259.461	2440
4260.994	2444
4262.525	2484
4264.056	2402
4265.586	2424
4267.115	2413
4268.646	2401
4270.176	2382
4271.705	2402
4273.232	2397
4274.761	2377
4276.289	2425
4277.818	2380
4279.345	2425
4280.872	2410
4282.399	2411
4283.924	2449
4285.452	2401
4286.976	2427
4288.502	2328
4290.026	2348
4291.551	2337
4293.074	2358
4294.6	2303
4296.123	2368
4297.646	2284
4299.168	2365
4300.691	2336
4302.214	2369
4303.736	2311
4305.257	2329
4306.778	2363
4308.299	2382
4309.82	2432
4311.34	2317
4312.86	2349
4314.379	2336
