400.0745	9383
402.597	9634
405.1208	9554
407.6419	9474
410.1623	9574
412.6819	9681
415.201	9685
417.7172	9843
420.2369	9815
422.7538	9950
425.2701	9881
427.7856	9948
430.3005	10119
432.8147	10066
435.3282	10087
437.841	10129
440.3511	10072
442.8625	10231
445.3753	10205
447.8854	10164
450.3927	10208
452.9014	10161
455.4073	10363
457.9146	10283
460.4233	10156
462.9272	10387
465.4325	10257
467.935	10285
470.4389	10319
472.9421	10380
475.4446	10453
477.9444	10353
480.4456	10378
482.944	10394
485.4417	10523
487.9429	10506
490.4393	10543
492.935	10602
495.4321	10729
497.9264	10629
500.4221	10570
502.9171	10673
505.4094	10864
507.9011	10615
510.392	10783
512.8864	10761
515.3759	10858
517.8649	10937
520.3531	10806
522.8406	10831
525.3275	10899
527.8178	10894
530.3033	10787
532.7881	11021
535.2723	10884
537.7558	10901
540.2407	10894
542.7228	10778
545.2043	10782
547.6851	10875
550.1652	10903
552.6467	10832
555.1255	10816
557.6016	10799
560.079	10972
562.5557	11012
565.0318	11083
567.5092	10969
569.984	10992
572.456	11102
574.9294	11059
577.4022	11190
579.8762	11229
582.3456	11067
584.8163	11180
587.2863	11266
589.7557	11119
592.2224	11134
594.6924	11189
597.1578	11292
599.6245	11260
602.0905	11194
604.5538	11202
607.0206	11347
609.4825	11340
611.9459	11226
614.4066	11183
616.8686	11177
619.33	11131
621.7906	11206
624.2487	11315
626.708	11419
629.1647	11196
631.6207	11170
634.0801	11212
636.5348	11348
638.9888	11254
641.4442	11266
643.8969	11323
646.3509	11365
648.8022	11390
651.255	11497
653.705	11509
656.1544	11404
658.6031	11425
661.0532	11368
663.5026	11702
665.9493	11590
668.3954	11622
670.8409	11641
673.2877	11635
675.7318	11801
678.1752	11665
680.618	11581
683.0601	11563
685.5035	11650
687.9444	11709
690.3845	11601
692.824	11699
695.2628	11801
697.701	11766
700.1406	11829
702.5774	11861
705.0116	11838
707.4472	11871
709.8821	11792
712.3183	11850
714.7519	11838
717.1829	11778
719.6151	12043
722.0468	11885
724.4777	12058
726.908	12119
729.3377	11969
731.7667	12020
734.1931	12045
736.6208	12168
739.0498	12127
741.4742	12231
743.9	12298
746.3231	12272
748.7476	12166
751.1713	12358
753.5945	12270
756.015	12291
758.4368	12417
760.856	12504
763.2766	12497
765.6965	12450
768.1157	12536
770.5323	12388
772.9483	12491
775.3656	12471
777.7822	12615
780.1963	12616
782.6116	12655
785.0244	12408
787.4365	12458
789.8499	12587
792.2626	12526
794.6728	12607
797.0823	12543
799.4911	12477
801.8994	12652
804.3109	12540
806.7178	12634
809.124	12621
811.5297	12756
813.9347	12666
816.341	12640
818.7447	12795
821.1478	12791
823.5502	12866
825.952	12804
828.3531	12690
830.7556	12708
833.1554	12686
835.5546	12749
837.9532	12696
840.3511	12811
842.7504	12687
845.1451	12783
847.5411	12865
849.9365	13012
852.3312	12876
854.7272	13032
857.1187	12702
859.5115	12897
861.9037	12845
864.2952	12874
866.6842	12857
869.0764	12834
871.4661	12989
873.8531	12912
876.2415	13036
878.6272	12895
881.0162	12714
883.4026	12906
885.7866	12905
888.1717	12859
890.5543	12812
892.9382	13029
895.3215	12820
897.7041	12726
900.0842	12950
902.4655	12930
904.8443	12807
907.2244	12859
909.6039	12941
911.9808	12757
914.357	13078
916.7346	13201
919.1115	13255
921.4859	13214
923.8616	13380
926.2347	13310
928.6071	13257
930.979	13366
933.3541	13371
935.7247	13300
938.0946	13494
940.4639	13405
942.8326	13437
945.2026	13733
947.5701	13656
949.9369	13978
952.305	14131
954.6705	14266
957.0355	14475
959.4017	14721
961.7654	14801
964.1284	14800
966.4908	14603
968.8527	14212
971.2138	13934
973.5743	13738
975.9343	13693
978.2936	13350
980.6522	13550
983.0122	13288
985.3696	13222
987.7245	13432
990.0807	13253
992.4362	13201
994.7911	13429
997.1474	13300
999.4991	13242
1001.852	13297
1004.205	13315
1006.555	13252
1008.908	13377
1011.258	13265
1013.606	13227
1015.956	13272
1018.302	13336
1020.652	13297
1022.998	13217
1025.345	13245
1027.691	13419
1030.035	13362
1032.378	13383
1034.724	13554
1037.066	13691
1039.409	13585
1041.75	13609
1044.092	13344
1046.433	13643
1048.771	13554
1051.112	13652
1053.449	13425
1055.786	13582
1058.124	13502
1060.462	13621
1062.797	13584
1065.131	13690
1067.467	13703
1069.8	13672
1072.135	13557
1074.467	13844
1076.798	13663
1079.129	13670
1081.459	13715
1083.792	13615
1086.121	13585
1088.449	13679
1090.777	13569
1093.104	13575
1095.431	13730
1097.759	13702
1100.084	13584
1102.408	13565
1104.732	13594
1107.056	13758
1109.379	13753
1111.701	13653
1114.022	13611
1116.343	13609
1118.664	13675
1120.983	13648
1123.303	13727
1125.621	13774
1127.939	13833
1130.256	13612
1132.573	13804
1134.889	13729
1137.205	13697
1139.52	13807
1141.832	13646
1144.146	13714
1146.461	13659
1148.771	13710
1151.083	13749
1153.392	13746
1155.703	13770
1158.011	13749
1160.323	13763
1162.629	13952
1164.938	13733
1167.243	13832
1169.55	13758
1171.857	13775
1174.163	13816
1176.466	13602
1178.769	13694
1181.073	13735
1183.374	13624
1185.677	13701
1187.979	13754
1190.279	13723
1192.578	13576
1194.878	13688
1197.178	13713
1199.476	13802
1201.772	13777
1204.068	13527
1206.366	13683
1208.663	13885
1210.957	13833
1213.251	13815
1215.544	13685
1217.836	13717
1220.128	13806
1222.421	13762
1224.712	13697
1227.002	14033
1229.292	13795
1231.581	14010
1233.871	14154
1236.159	14153
1238.446	14062
1240.732	14083
1243.018	14021
1245.304	14041
1247.59	14052
1249.874	14128
1252.156	14103
1254.439	14191
1256.721	14063
1259.005	14001
1261.286	14221
1263.565	14069
1265.845	14036
1268.125	14059
1270.403	14159
1272.682	13974
1274.959	14350
1277.234	14106
1279.511	14052
1281.787	14124
1284.062	14173
1286.337	14013
1288.609	14087
1290.882	13911
1293.153	14091
1295.428	13895
1297.698	13924
1299.969	13968
1302.237	13823
1304.507	13920
1306.777	13881
1309.044	13881
1311.312	14084
1313.578	13949
1315.844	14023
1318.109	13970
1320.375	14015
1322.638	14119
1324.903	14003
1327.165	13876
1329.427	14113
1331.69	13977
1333.952	13903
1336.212	13971
1338.471	14160
1340.73	13960
1342.988	14041
1345.248	13969
1347.505	14213
1349.763	14242
1352.019	13880
1354.274	14023
1356.53	13965
1358.784	14064
1361.038	14074
1363.291	13977
1365.543	13843
1367.797	14011
1370.048	14037
1372.296	14108
1374.546	14064
1376.796	14073
1379.045	14045
1381.295	14033
1383.542	13955
1385.787	14107
1388.034	14052
1390.28	14171
1392.527	14075
1394.772	14279
1397.014	14257
1399.258	14083
1401.501	14068
1403.741	14244
1405.985	14277
1408.226	14216
1410.465	14066
1412.705	14392
1414.943	14147
1417.184	14353
1419.42	14305
1421.658	14218
1423.894	14415
1426.13	14346
1428.366	14263
1430.602	14293
1432.835	14305
1435.069	14366
1437.301	14407
1439.535	14469
1441.767	14320
1443.997	14500
1446.229	14409
1448.458	14494
1450.687	14374
1452.916	14635
1455.146	14495
1457.372	14565
1459.599	14566
1461.824	14488
1464.051	14397
1466.277	14540
1468.501	14392
1470.725	14428
1472.948	14291
1475.17	14157
1477.393	14325
1479.614	14207
1481.837	14089
1484.057	14203
1486.276	14162
1488.497	14128
1490.715	14142
1492.932	13991
1495.148	14029
1497.364	13987
1499.58	14074
1501.798	14005
1504.012	14017
1506.227	14124
1508.44	13859
1510.653	13932
1512.866	13947
1515.078	13925
1517.289	13885
1519.5	13963
1521.711	13959
1523.92	13967
1526.13	13977
1528.338	14130
1530.544	14013
1532.752	13915
1534.959	14211
1537.165	14002
1539.371	14043
1541.574	14089
1543.779	14244
1545.983	13988
1548.187	14190
1550.39	14174
1552.59	14018
1554.792	14084
1556.991	14012
1559.19	14287
1561.392	14198
1563.59	14027
1565.789	14158
1567.986	14240
1570.182	14118
1572.381	14165
1574.576	14266
1576.771	14258
1578.966	14423
1581.16	14279
1583.354	14408
1585.546	14483
1587.74	14441
1589.931	14577
1592.121	14402
1594.311	14344
1596.502	14529
1598.693	14371
1600.881	14468
1603.069	14452
1605.256	14412
1607.445	14389
1609.631	14559
1611.816	14288
1614.001	14310
1616.186	14400
1618.37	14577
1620.555	14446
1622.737	14342
1624.919	14462
1627.101	14430
1629.282	14396
1631.463	14428
1633.643	14438
1635.822	14381
1638.001	14292
1640.179	14432
1642.359	14419
1644.534	14569
1646.711	14621
1648.887	14358
1651.062	14585
1653.235	14424
1655.412	14606
1657.586	14389
1659.757	14613
1661.93	14444
1664.1	14456
1666.274	14559
1668.445	14489
1670.614	14527
1672.784	14462
1674.951	14404
1677.12	14651
1679.289	14511
1681.457	14666
1683.622	14383
1685.789	14658
1687.953	14521
1690.121	14445
1692.284	14364
1694.447	14502
1696.611	14607
1698.772	14432
1700.935	14417
1703.098	14322
1705.258	14370
1707.417	14361
1709.576	14272
1711.736	14476
1713.896	14424
1716.053	14302
1718.21	14257
1720.366	14312
1722.522	14324
1724.68	14221
1726.835	14140
1728.989	14142
1731.142	14265
1733.295	14289
1735.449	14328
1737.601	14314
1739.753	14171
1741.903	14443
1744.054	14301
1746.203	14303
1748.354	14437
1750.503	14434
1752.651	14307
1754.798	14373
1756.944	14520
1759.092	14398
1761.238	14557
1763.383	14342
1765.528	14361
1767.672	14468
1769.814	14473
1771.959	14346
1774.102	14230
1776.242	14446
1778.384	14335
1780.525	14495
1782.665	14355
1784.805	14395
1786.945	14457
1789.082	14410
1791.22	14426
1793.36	14406
1795.495	14372
1797.632	14434
1799.766	14306
1801.902	14430
1804.035	14354
1806.172	14460
1808.304	14385
1810.436	14610
1812.569	14266
1814.699	14638
1816.833	14360
1818.963	14368
1821.092	14365
1823.222	14390
1825.35	14333
1827.478	14293
1829.608	14436
1831.734	14418
1833.86	14277
1835.986	14238
1838.11	14308
1840.238	14370
1842.362	14095
1844.485	14154
1846.608	14399
1848.73	14177
1850.853	14259
1852.974	14233
1855.097	14203
1857.217	14177
1859.336	14218
1861.455	14168
1863.576	14214
1865.693	14305
1867.811	14026
1869.926	14320
1872.042	14112
1874.16	14228
1876.275	14405
1878.39	14285
1880.504	14317
1882.618	14268
1884.731	14075
1886.843	14093
1888.956	14176
1891.067	14106
1893.178	14352
1895.287	14175
1897.399	14382
1899.508	14251
1901.617	14525
1903.724	14312
1905.832	14323
1907.941	14213
1910.046	14424
1912.152	14380
1914.256	14300
1916.361	14480
1918.464	14536
1920.57	14567
1922.672	14319
1924.775	14246
1926.876	14375
1928.978	14330
1931.08	14459
1933.181	14508
1935.28	14522
1937.38	14381
1939.478	14430
1941.577	14391
1943.675	14349
1945.771	14284
1947.867	14346
1949.964	14513
1952.058	14389
1954.154	14456
1956.248	14510
1958.343	14299
1960.435	14443
1962.527	14506
1964.62	14336
1966.711	14418
1968.802	14258
1970.892	14273
1972.983	14334
1975.072	14338
1977.162	14348
1979.25	14290
1981.337	14307
1983.424	14420
1985.51	14212
1987.598	14129
1989.683	14272
1991.768	14306
1993.852	14434
1995.934	14351
1998.019	14292
2000.102	14096
2002.184	14224
2004.266	14188
2006.347	14038
2008.427	14331
2010.508	14161
2012.587	14251
2014.666	14101
2016.745	14293
2018.821	14203
2020.9	14161
2022.977	14180
2025.052	14148
2027.128	14187
2029.204	14324
2031.277	14038
2033.353	14161
2035.425	14295
2037.499	14130
2039.57	14219
2041.642	14077
2043.714	14015
2045.786	14215
2047.855	14166
2049.925	14136
2051.993	14152
2054.064	14375
2056.132	14062
2058.2	14275
2060.266	14226
2062.332	14136
2064.398	14183
2066.465	14192
2068.529	14291
2070.592	14136
2072.657	14200
2074.719	14122
2076.783	14170
2078.845	14248
2080.907	14120
2082.968	14102
2085.028	14093
2087.087	14196
2089.148	14222
2091.207	14261
2093.264	14177
2095.322	14123
2097.379	14076
2099.439	14206
2101.495	13958
2103.55	14095
2105.605	14180
2107.658	14200
2109.713	14092
2111.767	14145
2113.82	14190
2115.872	14234
2117.924	14159
2119.975	14148
2122.028	14306
2124.078	14084
2126.126	14244
2128.176	14014
2130.225	14134
2132.275	14061
2134.321	14030
2136.368	14103
2138.415	14209
2140.461	14054
2142.505	14104
2144.552	14068
2146.597	13964
2148.64	14046
2150.684	14148
2152.725	14062
2154.77	13947
2156.811	13926
2158.852	13999
2160.894	13924
2162.933	13991
2164.973	14026
2167.013	13796
2169.051	13838
2171.089	13886
2173.126	13779
2175.164	13803
2177.201	13779
2179.236	13890
2181.273	13921
2183.307	13905
2185.341	13875
2187.377	13913
2189.41	13896
2191.442	13724
2193.473	13885
2195.506	13816
2197.539	13810
2199.569	13964
2201.598	13746
2203.628	13679
2205.656	13781
2207.686	13693
2209.716	13672
2211.743	13791
2213.769	13736
2215.796	13758
2217.821	13567
2219.848	13785
2221.873	13486
2223.897	13598
2225.921	13752
2227.944	13619
2229.967	13513
2231.991	13584
2234.011	13867
2236.032	13529
2238.053	13470
2240.073	13671
2242.094	13771
2244.114	13562
2246.131	13621
2248.149	13667
2250.167	13618
2252.186	13574
2254.201	13461
2256.218	13699
2258.233	13329
2260.247	13641
2262.262	13758
2264.278	13648
2266.29	13525
2268.303	13633
2270.315	13413
2272.327	13455
2274.341	13520
2276.35	13576
2278.361	13560
2280.37	13544
2282.38	13576
2284.388	13549
2286.397	13550
2288.405	13619
2290.412	13631
2292.419	13697
2294.425	13553
2296.431	13678
2298.437	13573
2300.441	13605
2302.445	13406
2304.449	13535
2306.453	13725
2308.455	13594
2310.457	13623
2312.459	13672
2314.46	13277
2316.46	13612
2318.461	13496
2320.46	13269
2322.458	13314
2324.458	13617
2326.456	13538
2328.455	13467
2330.451	13291
2332.447	13220
2334.443	13441
2336.438	13336
2338.433	13439
2340.429	13398
2342.422	13333
2344.416	13344
2346.408	13358
2348.399	13266
2350.393	13268
2352.384	13219
2354.375	13212
2356.365	13168
2358.355	13200
2360.344	13388
2362.333	13212
2364.322	13340
2366.309	13086
2368.295	13006
2370.282	13223
2372.27	13162
2374.256	13241
2376.24	13272
2378.225	13153
2380.208	13122
2382.194	13151
2384.177	13103
2386.159	13121
2388.142	13036
2390.122	13116
2392.105	13217
2394.085	13043
2396.066	13027
2398.044	13094
2400.024	13277
2402.002	12782
2403.982	12981
2405.959	13034
2407.935	13168
2409.913	13034
2411.888	13035
2413.865	13094
2415.84	12787
2417.814	13038
2419.788	12952
2421.762	13035
2423.735	13000
2425.708	13159
2427.68	13114
2429.651	12932
2431.623	13084
2433.593	13107
2435.564	13032
2437.533	13231
2439.502	12928
2441.47	13063
2443.438	13121
2445.406	13057
2447.373	12824
2449.34	12962
2451.305	12878
2453.271	12927
2455.235	12913
2457.201	12805
2459.165	13033
2461.129	12859
2463.092	12907
2465.054	12688
2467.018	12828
2468.978	12834
2470.939	12753
2472.899	12753
2474.86	12945
2476.819	12828
2478.778	12772
2480.737	12757
2482.695	12537
2484.653	12827
2486.609	12656
2488.567	12819
2490.524	12855
2492.478	12777
2494.433	12891
2496.387	12728
2498.343	12626
2500.297	12560
2502.249	12656
2504.202	12637
2506.153	12744
2508.105	12785
2510.057	12743
2512.008	12676
2513.957	12610
2515.906	12624
2517.855	12750
2519.805	12598
2521.754	12721
2523.7	12602
2525.647	12528
2527.594	12529
2529.54	12682
2531.486	12569
2533.431	12618
2535.376	12637
2537.32	12496
2539.263	12484
2541.207	12687
2543.151	12496
2545.093	12595
2547.034	12660
2548.975	12687
2550.917	12541
2552.856	12695
2554.796	12472
2556.735	12704
2558.673	12620
2560.611	12558
2562.55	12525
2564.487	12746
2566.424	12565
2568.36	12447
2570.296	12545
2572.232	12581
2574.167	12701
2576.101	12480
2578.035	12516
2579.969	12481
2581.902	12566
2583.834	12547
2585.766	12684
2587.698	12438
2589.628	12595
2591.557	12374
2593.489	12807
2595.419	12674
2597.348	12558
2599.275	12592
2601.204	12624
2603.131	12408
2605.059	12346
2606.986	12491
2608.911	12403
2610.837	12607
2612.76	12698
2614.687	12588
2616.61	12460
2618.534	12507
2620.457	12531
2622.38	12542
2624.302	12611
2626.225	12622
2628.145	12505
2630.067	12670
2631.986	12533
2633.906	12549
2635.827	12452
2637.745	12403
2639.662	12469
2641.581	12585
2643.498	12654
2645.415	12679
2647.331	12607
2649.248	12405
2651.163	12621
2653.077	12655
2654.993	12470
2656.906	12474
2658.821	12654
2660.733	12269
2662.646	12437
2664.557	12313
2666.47	12402
2668.381	12460
2670.291	12515
2672.201	12410
2674.11	12290
2676.021	12404
2677.929	12353
2679.837	12368
2681.745	12264
2683.652	12472
2685.56	12139
2687.466	12491
2689.371	12380
2691.276	12300
2693.181	12289
2695.085	12468
2696.991	12391
2698.893	12303
2700.796	12316
2702.698	12194
2704.601	12096
2706.502	12188
2708.404	12263
2710.304	12183
2712.203	12259
2714.103	12262
2716.003	12183
2717.902	12171
2719.8	12206
2721.697	12118
2723.594	12286
2725.49	12276
2727.389	12125
2729.283	12108
2731.179	12039
2733.073	12149
2734.968	12188
2736.863	12118
2738.757	12302
2740.649	12191
2742.541	12195
2744.433	12002
2746.324	12143
2748.216	12010
2750.107	12039
2751.997	12034
2753.886	12141
2755.776	12099
2757.666	12092
2759.553	12005
2761.44	12195
2763.327	11793
2765.215	12200
2767.102	11909
2768.988	12042
2770.873	12114
2772.757	12068
2774.641	12212
2776.525	12042
2778.41	12067
2780.292	12058
2782.175	11986
2784.057	11969
2785.938	11899
2787.821	12066
2789.701	12101
2791.581	12018
2793.461	11931
2795.34	11866
2797.219	12020
2799.099	11984
2800.975	11800
2802.853	11909
2804.73	12038
2806.606	11758
2808.484	11936
2810.358	11779
2812.233	12023
2814.108	11716
2815.981	11740
2817.857	11737
2819.73	11663
2821.602	11960
2823.474	11789
2825.346	11776
2827.217	11859
2829.089	11871
2830.959	11915
2832.829	11763
2834.698	11855
2836.567	11729
2838.436	11751
2840.305	11694
2842.172	11760
2844.04	11872
2845.905	11725
2847.772	11731
2849.639	11714
2851.503	11986
2853.369	11718
2855.232	11823
2857.096	11775
2858.961	11927
2860.824	11910
2862.686	11857
2864.547	11875
2866.41	11847
2868.272	11996
2870.132	11900
2871.992	11950
2873.851	11910
2875.711	12304
2877.57	12035
2879.429	12070
2881.287	12305
2883.144	12174
2885.001	12097
2886.857	12312
2888.714	12203
2890.57	12187
2892.425	12257
2894.279	12250
2896.133	12204
2897.987	12235
2899.842	12172
2901.694	12080
2903.547	12146
2905.397	12195
2907.249	12208
2909.101	11952
2910.952	11996
2912.802	12202
2914.652	12125
2916.5	12119
2918.35	12266
2920.198	12260
2922.045	12296
2923.893	12420
2925.74	12395
2927.585	12514
2929.433	12490
2931.279	12584
2933.123	12644
2934.968	12551
2936.811	12731
2938.656	12648
2940.5	12766
2942.342	12968
2944.185	12980
2946.026	12769
2947.87	12893
2949.71	12964
2951.549	12823
2953.39	12771
2955.229	12683
2957.069	12613
2958.908	12437
2960.746	12529
2962.584	12394
2964.421	12284
2966.257	12395
2968.094	12149
2969.931	12211
2971.766	12189
2973.601	12089
2975.435	12228
2977.27	12223
2979.105	11900
2980.938	12142
2982.77	11867
2984.602	11830
2986.434	11864
2988.267	12000
2990.097	11746
2991.927	11674
2993.757	11872
2995.587	11674
2997.417	11594
2999.246	11501
3001.074	11688
3002.902	11753
3004.729	11699
3006.556	11462
3008.384	11376
3010.21	11412
3012.036	11332
3013.861	11226
3015.684	11448
3017.51	11196
3019.334	11182
3021.157	11044
3022.981	11177
3024.802	11120
3026.624	11189
3028.448	11054
3030.267	11114
3032.088	10997
3033.909	11010
3035.728	11102
3037.549	10797
3039.368	11021
3041.186	11106
3043.004	10807
3044.821	10967
3046.64	10958
3048.455	10886
3050.272	10867
3052.087	10907
3053.903	10988
3055.717	10730
3057.534	10773
3059.347	10694
3061.16	10918
3062.974	10790
3064.785	10923
3066.598	10841
3068.411	10848
3070.222	10733
3072.032	10832
3073.844	10711
3075.653	10715
3077.463	10651
3079.272	10649
3081.08	10608
3082.889	10716
3084.697	10687
3086.505	10777
3088.312	10506
3090.118	10525
3091.924	10583
3093.729	10551
3095.535	10538
3097.34	10592
3099.144	10622
3100.947	10498
3102.75	10561
3104.553	10522
3106.357	10525
3108.159	10562
3109.961	10371
3111.762	10505
3113.562	10314
3115.365	10345
3117.164	10476
3118.964	10392
3120.761	10274
3122.56	10431
3124.36	10381
3126.158	10376
3127.954	10363
3129.75	10319
3131.547	10561
3133.343	10264
3135.139	10278
3136.934	10171
3138.729	10350
3140.522	10046
3142.317	10265
3144.11	10201
3145.904	10317
3147.695	10172
3149.488	10127
3151.28	10119
3153.07	10283
3154.863	10170
3156.652	10141
3158.441	10117
3160.231	10113
3162.019	10090
3163.81	10078
3165.597	10141
3167.384	10042
3169.172	10027
3170.958	10088
3172.745	10046
3174.532	10174
3176.317	10066
3178.101	10063
3179.885	9988
3181.67	10089
3183.455	10018
3185.238	9973
3187.02	9946
3188.802	9942
3190.585	9989
3192.368	10028
3194.149	10019
3195.929	9909
3197.709	10034
3199.489	9941
3201.268	9885
3203.048	10003
3204.826	9938
3206.604	9876
3208.382	9813
3210.159	9877
3211.937	9997
3213.713	9940
3215.489	9947
3217.263	9854
3219.038	9813
3220.815	10061
3222.589	9861
3224.363	9818
3226.136	9866
3227.908	9874
3229.681	9866
3231.454	9774
3233.226	9909
3234.996	9762
3236.767	9709
3238.538	9833
3240.308	9898
3242.078	9797
3243.847	9944
3245.615	9734
3247.384	9802
3249.15	9704
3250.92	9772
3252.686	9786
3254.453	9825
3256.218	9772
3257.984	9687
3259.75	9754
3261.515	9704
3263.279	9895
3265.044	9747
3266.806	9701
3268.57	9713
3270.334	9752
3272.095	9784
3273.856	9690
3275.619	9834
3277.379	9681
3279.14	9815
3280.9	9687
3282.661	9654
3284.419	9691
3286.178	9649
3287.937	9645
3289.695	9705
3291.453	9679
3293.21	9797
3294.967	9728
3296.723	9712
3298.48	9748
3300.235	9741
3301.99	9754
3303.744	9626
3305.498	9636
3307.253	9760
3309.006	9459
3310.759	9672
3312.511	9679
3314.263	9700
3316.017	9613
3317.768	9698
3319.519	9666
3321.268	9717
3323.018	9651
3324.767	9629
3326.518	9688
3328.267	9756
3330.014	9510
3331.762	9637
3333.509	9484
3335.258	9645
3337.003	9528
3338.75	9574
3340.496	9565
3342.24	9568
3343.987	9435
3345.732	9634
3347.475	9482
3349.219	9508
3350.961	9437
3352.705	9326
3354.448	9457
3356.19	9527
3357.931	9515
3359.672	9563
3361.412	9431
3363.155	9423
3364.894	9509
3366.633	9440
3368.372	9538
3370.11	9501
3371.849	9395
3373.588	9361
3375.325	9281
3377.061	9341
3378.799	9347
3380.534	9496
3382.271	9426
3384.006	9445
3385.741	9403
3387.475	9290
3389.209	9550
3390.944	9341
3392.677	9258
3394.409	9182
3396.143	9264
3397.874	9423
3399.606	9185
3401.338	9353
3403.069	9373
3404.799	9212
3406.528	9148
3408.258	9195
3409.988	9206
3411.717	9176
3413.445	9218
3415.173	9216
3416.899	9244
3418.626	9332
3420.354	9064
3422.08	9180
3423.806	9128
3425.531	9210
3427.255	9179
3428.981	9090
3430.705	9070
3432.429	9157
3434.151	9070
3435.875	9020
3437.599	9146
3439.321	9058
3441.042	9028
3442.763	9093
3444.483	8978
3446.204	9003
3447.926	9043
3449.645	9021
3451.364	8863
3453.082	8985
3454.801	8837
3456.52	8907
3458.238	8916
3459.954	8810
3461.671	8955
3463.387	8938
3465.104	8927
3466.82	8903
3468.534	8836
3470.25	8829
3471.963	8811
3473.676	8884
3475.392	8898
3477.104	8786
3478.817	8654
3480.528	8772
3482.241	8692
3483.954	8762
3485.664	8909
3487.374	8632
3489.084	8715
3490.795	8647
3492.504	8687
3494.214	8590
3495.922	8705
3497.63	8625
3499.338	8634
3501.045	8647
3502.753	8693
3504.459	8679
3506.166	8652
3507.871	8673
3509.576	8481
3511.283	8597
3512.987	8514
3514.691	8622
3516.395	8531
3518.098	8539
3519.8	8601
3521.504	8583
3523.206	8591
3524.908	8516
3526.609	8502
3528.309	8453
3530.011	8458
3531.711	8551
3533.411	8471
3535.109	8385
3536.808	8490
3538.507	8532
3540.206	8474
3541.904	8476
3543.601	8375
3545.297	8464
3546.994	8363
3548.69	8455
3550.387	8489
3552.081	8353
3553.776	8346
3555.47	8408
3557.166	8416
3558.859	8392
3560.553	8328
3562.245	8278
3563.938	8382
3565.629	8286
3567.322	8376
3569.014	8319
3570.704	8329
3572.394	8354
3574.084	8315
3575.775	8280
3577.464	8139
3579.152	8331
3580.842	8239
3582.529	8265
3584.216	8180
3585.905	8217
3587.591	8246
3589.279	8078
3590.964	8230
3592.649	8006
3594.336	8230
3596.021	8075
3597.705	8263
3599.388	8252
3601.072	7890
3602.757	8047
3604.439	8015
3606.122	8078
3607.803	8047
3609.485	8017
3611.167	7969
3612.849	8082
3614.529	7938
3616.208	8019
3617.888	7900
3619.567	7993
3621.247	7996
3622.926	7978
3624.603	7926
3626.281	7875
3627.958	7961
3629.635	7876
3631.312	7967
3632.989	7803
3634.665	7902
3636.339	7868
3638.014	7752
3639.691	7884
3641.364	7763
3643.038	7709
3644.71	7795
3646.384	7860
3648.058	7826
3649.729	7740
3651.402	7738
3653.073	7723
3654.744	7741
3656.414	7753
3658.085	7612
3659.755	7707
3661.424	7742
3663.094	7768
3664.762	7766
3666.431	7641
3668.099	7749
3669.766	7762
3671.433	7735
3673.099	7664
3674.768	7759
3676.433	7654
3678.098	7854
3679.763	7704
3681.428	7646
3683.093	7620
3684.757	7768
3686.421	7663
3688.083	7685
3689.746	7658
3691.408	7769
3693.071	7564
3694.733	7596
3696.394	7633
3698.054	7701
3699.715	7474
3701.375	7592
3703.036	7547
3704.695	7620
3706.354	7497
3708.012	7632
3709.67	7559
3711.329	7530
3712.987	7575
3714.644	7686
3716.299	7485
3717.955	7464
3719.613	7481
3721.268	7434
3722.923	7506
3724.577	7423
3726.231	7558
3727.885	7539
3729.539	7480
3731.192	7490
3732.845	7323
3734.497	7500
3736.149	7397
3737.802	7550
3739.453	7329
3741.104	7426
3742.753	7466
3744.404	7476
3746.052	7454
3747.704	7470
3749.352	7352
3751	7353
3752.648	7381
3754.296	7341
3755.944	7401
3757.59	7306
3759.238	7370
3760.883	7349
3762.528	7386
3764.176	7262
3765.82	7296
3767.464	7360
3769.109	7392
3770.753	7345
3772.396	7263
3774.04	7342
3775.683	7322
3777.325	7396
3778.967	7201
3780.608	7271
3782.25	7222
3783.89	6987
3785.531	7274
3787.17	7181
3788.81	7307
3790.45	7160
3792.09	7265
3793.729	7230
3795.366	7202
3797.003	6983
3798.64	7197
3800.278	7032
3801.915	7189
3803.551	7180
3805.187	7162
3806.822	7157
3808.458	7074
3810.093	7062
3811.726	7185
3813.36	7154
3814.994	7174
3816.627	7060
3818.262	6886
3819.893	6969
3821.525	6929
3823.157	6993
3824.787	7036
3826.42	7020
3828.051	6964
3829.68	7049
3831.31	6971
3832.938	6887
3834.569	6961
3836.198	7051
3837.825	6897
3839.454	6789
3841.08	6901
3842.708	6991
3844.335	7077
3845.962	6908
3847.587	7055
3849.212	6869
3850.838	6836
3852.463	6935
3854.089	6921
3855.712	6775
3857.335	6867
3858.959	6785
3860.582	6795
3862.205	6883
3863.827	6918
3865.449	6854
3867.07	6825
3868.691	6989
3870.312	6799
3871.933	6805
3873.553	6832
3875.173	6788
3876.792	6866
3878.411	6859
3880.03	6784
3881.647	6812
3883.265	6902
3884.882	6770
3886.499	6739
3888.116	6761
3889.732	6845
3891.348	6756
3892.964	6754
3894.579	6815
3896.195	6786
3897.809	6718
3899.423	6732
3901.036	6677
3902.648	6724
3904.261	6736
3905.875	6767
3907.487	6742
3909.099	6674
3910.709	6703
3912.321	6622
3913.933	6722
3915.542	6610
3917.152	6679
3918.762	6689
3920.37	6628
3921.98	6645
3923.589	6556
3925.196	6591
3926.804	6624
3928.41	6605
3930.018	6685
3931.626	6626
3933.231	6632
3934.838	6644
3936.442	6648
3938.046	6531
3939.653	6579
3941.257	6516
3942.861	6657
3944.464	6645
3946.068	6664
3947.67	6487
3949.273	6565
3950.876	6517
3952.477	6477
3954.078	6578
3955.678	6578
3957.281	6567
3958.881	6656
3960.48	6637
3962.079	6563
3963.678	6475
3965.279	6493
3966.877	6411
3968.475	6471
3970.072	6462
3971.669	6323
3973.266	6541
3974.864	6417
3976.459	6335
3978.055	6460
3979.65	6426
3981.245	6342
3982.841	6331
3984.436	6414
3986.03	6327
3987.623	6413
3989.216	6368
3990.809	6254
3992.403	6299
3993.995	6290
3995.586	6351
3997.177	6292
3998.768	6329
4000.361	6252
4001.951	6213
4003.54	6316
4005.13	6224
4006.719	6242
4008.31	6137
4009.897	6241
4011.485	6148
4013.073	6133
4014.66	6140
4016.247	6214
4017.834	6144
4019.421	6163
4021.006	6191
4022.592	6112
4024.178	6068
4025.763	6240
4027.348	6117
4028.932	6037
4030.515	6080
4032.099	6087
4033.682	6077
4035.266	6100
4036.847	6076
4038.429	6048
4040.011	6108
4041.592	6048
4043.173	5991
4044.755	6101
4046.334	6087
4047.913	5970
4049.494	6016
4051.074	6032
4052.652	6033
4054.23	5985
4055.807	6029
4057.385	5981
4058.963	5899
4060.541	5929
4062.117	5850
4063.693	5946
4065.269	5958
4066.844	5947
4068.42	5902
4069.995	5878
4071.569	5987
4073.143	5842
4074.716	5959
4076.291	5929
4077.864	5854
4079.436	5965
4081.009	5886
4082.58	5835
4084.152	5878
4085.723	5930
4087.294	5881
4088.865	5870
4090.435	5836
4092.005	5919
4093.574	5883
4095.143	5856
4096.712	5937
4098.279	5931
4099.848	5919
4101.416	5845
4102.984	5814
4104.55	5688
4106.117	5848
4107.682	5754
4109.248	5789
4110.815	5817
4112.379	5776
4113.945	5810
4115.508	5718
4117.073	5703
4118.637	5818
4120.201	5729
4121.763	5750
4123.325	5737
4124.888	5716
4126.449	5650
4128.013	5686
4129.573	5701
4131.133	5654
4132.694	5691
4134.254	5649
4135.814	5551
4137.374	5728
4138.933	5557
4140.491	5638
4142.049	5636
4143.607	5617
4145.167	5607
4146.724	5566
4148.28	5627
4149.836	5605
4151.392	5574
4152.949	5579
4154.504	5518
4156.059	5609
4157.614	5576
4159.168	5510
4160.723	5500
4162.277	5512
4163.83	5514
4165.383	5501
4166.936	5579
4168.488	5541
4170.041	5500
4171.593	5525
4173.144	5373
4174.695	5369
4176.246	5422
4177.796	5522
4179.346	5467
4180.896	5438
4182.445	5345
4183.994	5335
4185.542	5423
4187.091	5369
4188.639	5343
4190.185	5481
4191.732	5334
4193.279	5401
4194.826	5375
4196.373	5409
4197.918	5438
4199.463	5344
4201.008	5316
4202.553	5396
4204.098	5285
4205.641	5446
4207.185	5334
4208.728	5344
4210.271	5344
4211.814	5239
4213.357	5366
4214.898	5251
4216.439	5330
4217.98	5273
4219.522	5237
4221.062	5321
4222.603	5305
4224.142	5207
4225.681	5267
4227.222	5333
4228.76	5230
4230.298	5376
4231.835	5159
4233.373	5224
4234.911	5198
4236.449	5334
4237.985	5201
4239.521	5198
4241.057	5249
4242.592	5226
4244.128	5169
4245.663	5237
4247.197	5208
4248.731	5096
4250.265	5217
4251.798	5266
4253.333	5205
4254.865	5146
4256.397	5156
4257.93	5147
4259.461	5183
4260.994	5211
4262.525	5270
4264.056	5179
4265.586	5030
4267.115	5130
4268.646	5153
4270.176	5178
4271.705	5192
4273.232	5068
4274.761	5147
4276.289	5146
4277.818	4980
4279.345	5026
4280.872	5186
4282.399	5083
4283.924	5196
4285.452	5075
4286.976	5027
4288.502	5060
4290.026	5062
4291.551	4992
4293.074	4996
4294.6	5082
4296.123	5032
4297.646	5027
4299.168	4937
4300.691	5121
4302.214	4985
4303.736	4941
4305.257	5075
4306.778	4999
4308.299	4975
4309.82	4950
4311.34	4989
4312.86	5013
4314.379	4902
